399.19301,0.55764
401.12148,-1.01362
403.04995,-0.49569
404.97842,0.13906
406.90689,0.43783
408.83536,0.44895
410.76382,0.16178
412.69229,-0.12615
414.62076,0.00033
416.54923,0.41633
418.47770,0.80024
420.40617,0.68190
422.33464,0.25946
424.26311,-0.05001
426.19157,-0.11095
428.12004,0.01037
430.04851,0.21990
431.97698,0.31072
433.90545,0.15699
435.83392,-0.00166
437.76239,-0.04052
439.69085,0.01231
441.61932,0.19177
443.54779,0.36161
445.47626,0.26860
447.40473,0.03730
449.33320,-0.07020
451.26167,-0.02412
453.19013,0.08111
455.11860,0.20141
457.04707,0.23865
458.97554,0.08046
460.90401,-0.10463
462.83248,-0.09818
464.76095,0.05349
466.68942,0.17271
468.61788,0.20770
470.54635,0.19718
472.47482,0.36175
474.40329,0.74929
476.33176,0.68430
478.26023,0.43341
480.18870,0.28598
482.11716,0.13478
484.04563,-0.03686
485.97410,-0.09029
487.90257,0.00837
489.83104,0.14130
491.75951,0.19171
493.68798,0.15390
495.61645,0.07495
497.54491,0.01902
499.47338,0.05838
501.40185,0.17769
503.33032,0.23554
505.25879,0.17420
507.18726,0.07120
509.11573,0.02456
511.04419,0.08011
512.97266,0.17925
514.90113,0.20988
516.82960,0.13450
518.75807,0.04605
520.68654,0.01728
522.61501,0.04082
524.54348,0.11954
526.47194,0.21116
528.40041,0.20950
530.32888,0.11617
532.25735,0.03716
534.18582,0.06683
536.11429,0.18236
538.04276,0.23105
539.97122,0.15572
541.89969,0.06433
543.82816,0.04614
545.75663,0.08784
547.68510,0.14383
549.61357,0.19856
551.54204,0.28427
553.47051,0.33694
555.39897,0.23439
557.32744,0.09704
559.25591,0.10709
561.18438,0.16317
563.11285,0.14451
565.04132,0.07822
566.96979,0.02581
568.89825,0.01156
570.82672,0.06314
572.75519,0.16157
574.68366,0.19820
576.61213,0.12991
578.54060,0.05839
580.46907,0.05749
582.39754,0.12173
584.32600,0.18380
586.25447,0.16850
588.18294,0.08268
590.11141,0.00752
592.03988,0.01450
593.96835,0.08604
595.89682,0.15675
597.82528,0.19023
599.75375,0.16872
601.68222,0.11769
603.61069,0.10214
605.53916,0.13143
607.46763,0.15570
609.39610,0.15364
611.32456,0.12513
613.25303,0.08060
615.18150,0.06904
617.10997,0.11987
619.03844,0.17506
620.96691,0.16675
622.89538,0.11047
624.82385,0.06264
626.75231,0.06346
628.68078,0.13214
630.60925,0.21583
632.53772,0.22040
634.46619,0.14873
636.39466,0.09048
638.32313,0.09405
640.25159,0.14597
642.18006,0.20444
644.10853,0.21985
646.03700,0.16896
647.96547,0.10484
649.89394,0.09293
651.82241,0.11824
653.75088,0.14628
655.67934,0.16143
657.60781,0.13544
659.53628,0.08449
661.46475,0.07034
663.39322,0.10442
665.32169,0.15092
667.25016,0.17096
669.17862,0.13661
671.10709,0.10677
673.03556,0.10626
674.96403,0.13094
676.89250,0.16702
678.82097,0.17071
680.74944,0.13339
682.67791,0.09631
684.60637,0.08610
686.53484,0.11416
688.46331,0.16490
690.39178,0.18251
692.32025,0.15916
694.24872,0.13014
696.17719,0.10602
698.10565,0.10612
700.03412,0.13866
701.96259,0.16251
703.89106,0.15553
705.81953,0.13977
707.74800,0.13594
709.67647,0.15367
711.60494,0.18351
713.53340,0.19150
715.46187,0.16276
717.39034,0.11735
719.31881,0.09137
721.24728,0.10793
723.17575,0.14115
725.10422,0.16176
727.03268,0.16698
728.96115,0.15059
730.88962,0.12512
732.81809,0.12530
734.74656,0.14710
736.67503,0.15851
738.60350,0.14952
740.53197,0.12349
742.46043,0.09628
744.38890,0.09637
746.31737,0.13060
748.24584,0.16557
750.17431,0.17334
752.10278,0.16188
754.03125,0.14550
755.95971,0.13409
757.88818,0.13764
759.81665,0.14463
761.74512,0.13810
763.67359,0.12317
765.60206,0.11273
767.53053,0.11769
769.45900,0.13875
771.38746,0.16305
773.31593,0.17379
775.24440,0.16311
777.17287,0.14208
779.10134,0.13034
781.02981,0.14486
782.95828,0.17573
784.88674,0.18521
786.81521,0.16199
788.74368,0.14173
790.67215,0.15129
792.60062,0.16699
794.52909,0.16803
796.45756,0.16206
798.38602,0.14347
800.31449,0.11199
802.24296,0.09548
804.17143,0.11245
806.09990,0.14566
808.02837,0.16451
809.95684,0.15267
811.88531,0.11867
813.81377,0.09416
815.74224,0.10263
817.67071,0.13440
819.59918,0.16027
821.52765,0.16243
823.45612,0.14636
825.38459,0.13084
827.31305,0.14021
829.24152,0.16817
831.16999,0.18051
833.09846,0.16770
835.02693,0.14861
836.95540,0.14040
838.88387,0.14910
840.81234,0.16929
842.74080,0.18372
844.66927,0.17636
846.59774,0.14773
848.52621,0.12290
850.45468,0.12772
852.38315,0.15266
854.31162,0.17297
856.24008,0.17324
858.16855,0.14648
860.09702,0.11533
862.02549,0.11391
863.95396,0.13615
865.88243,0.15353
867.81090,0.15283
869.73937,0.13705
871.66783,0.11776
873.59630,0.11701
875.52477,0.14668
877.45324,0.17648
879.38171,0.17938
881.31018,0.16518
883.23865,0.14655
885.16711,0.13691
887.09558,0.14821
889.02405,0.16868
890.95252,0.17312
892.88099,0.15537
894.80946,0.13404
896.73793,0.12463
898.66640,0.13470
900.59486,0.16038
902.52333,0.17516
904.45180,0.16648
906.38027,0.15265
908.30874,0.14834
910.23721,0.15478
912.16568,0.16765
914.09414,0.17551
916.02261,0.16731
917.95108,0.15041
919.87955,0.14544
921.80802,0.15464
923.73649,0.16661
925.66496,0.17356
927.59343,0.16223
929.52189,0.13970
931.45036,0.13535
933.37883,0.15230
935.30730,0.17073
937.23577,0.17606
939.16424,0.16391
941.09271,0.14340
943.02117,0.13352
944.94964,0.14429
946.87811,0.16187
948.80658,0.16665
950.73505,0.16236
952.66352,0.15625
954.59199,0.14847
956.52045,0.14787
958.44892,0.15744
960.37739,0.16356
962.30586,0.15423
964.23433,0.13763
966.16280,0.12936
968.09127,0.13433
970.01974,0.15148
971.94820,0.16992
973.87667,0.17076
975.80514,0.15403
977.73361,0.13846
979.66208,0.13146
981.59055,0.13324
983.51902,0.14137
985.44748,0.14299
987.37595,0.13687
989.30442,0.13595
991.23289,0.14435
993.16136,0.15649
995.08983,0.16664
997.01830,0.16752
998.94677,0.15916
1000.87523,0.15471
1002.80370,0.16086
1004.73217,0.17089
1006.66064,0.17866
1008.58911,0.17694
1010.51758,0.16197
1012.44605,0.14906
1014.37451,0.15123
1016.30298,0.16275
1018.23145,0.17450
1020.15992,0.17999
1022.08839,0.17592
1024.01686,0.16289
1025.94533,0.14527
1027.87380,0.13715
1029.80226,0.15236
1031.73073,0.17427
1033.65920,0.17347
1035.58767,0.15549
1037.51614,0.14807
1039.44461,0.16329
1041.37308,0.19159
1043.30154,0.21048
1045.23001,0.20351
1047.15848,0.17590
1049.08695,0.15060
1051.01542,0.15150
1052.94389,0.17716
1054.87236,0.19809
1056.80083,0.19486
1058.72929,0.17717
1060.65776,0.16438
1062.58623,0.16995
1064.51470,0.19087
1066.44317,0.20699
1068.37164,0.20332
1070.30011,0.17834
1072.22857,0.15157
1074.15704,0.15413
1076.08551,0.17844
1078.01398,0.18780
1079.94245,0.17413
1081.87092,0.15724
1083.79939,0.15224
1085.72786,0.16112
1087.65632,0.17320
1089.58479,0.17500
1091.51326,0.16621
1093.44173,0.15509
1095.37020,0.14849
1097.29867,0.15422
1099.22714,0.17491
1101.15560,0.19544
1103.08407,0.19379
1105.01254,0.17340
1106.94101,0.15864
1108.86948,0.16066
1110.79795,0.17149
1112.72642,0.18306
1114.65489,0.18653
1116.58335,0.17187
1118.51182,0.15099
1120.44029,0.14427
1122.36876,0.15843
1124.29723,0.18517
1126.22570,0.20103
1128.15417,0.19129
1130.08263,0.16787
1132.01110,0.15233
1133.93957,0.15485
1135.86804,0.16936
1137.79651,0.17885
1139.72498,0.17136
1141.65345,0.15406
1143.58191,0.14726
1145.51038,0.16080
1147.43885,0.17957
1149.36732,0.18853
1151.29579,0.18724
1153.22426,0.17819
1155.15273,0.17058
1157.08120,0.17563
1159.00966,0.18736
1160.93813,0.19103
1162.86660,0.18337
1164.79507,0.17061
1166.72354,0.16085
1168.65201,0.16178
1170.58048,0.17363
1172.50894,0.18276
1174.43741,0.17703
1176.36588,0.16323
1178.29435,0.15476
1180.22282,0.15821
1182.15129,0.16946
1184.07976,0.17904
1186.00823,0.18361
1187.93669,0.18009
1189.86516,0.16795
1191.79363,0.15977
1193.72210,0.16346
1195.65057,0.17007
1197.57904,0.17116
1199.50751,0.16868
1201.43597,0.16809
1203.36444,0.17047
1205.29291,0.17532
1207.22138,0.18013
1209.14985,0.17786
1211.07832,0.16939
1213.00679,0.16343
1214.93526,0.16543
1216.86372,0.17409
1218.79219,0.18204
1220.72066,0.18396
1222.64913,0.17834
1224.57760,0.16941
1226.50607,0.16643
1228.43454,0.17265
1230.36300,0.18174
1232.29147,0.18446
1234.21994,0.17992
1236.14841,0.17372
1238.07688,0.16835
1240.00535,0.16718
1241.93382,0.17319
1243.86229,0.17973
1245.79075,0.17710
1247.71922,0.16733
1249.64769,0.16253
1251.57616,0.16909
1253.50463,0.18000
1255.43310,0.18592
1257.36157,0.18251
1259.29003,0.17206
1261.21850,0.16579
1263.14697,0.17165
1265.07544,0.18420
1267.00391,0.18992
1268.93238,0.18299
1270.86085,0.17246
1272.78932,0.16668
1274.71778,0.16740
1276.64625,0.17527
1278.57472,0.18375
1280.50319,0.18301
1282.43166,0.17694
1284.36013,0.17595
1286.28860,0.18142
1288.21706,0.18839
1290.14553,0.19176
1292.07400,0.18667
1294.00247,0.17467
1295.93094,0.16768
1297.85941,0.17056
1299.78788,0.17552
1301.71634,0.17684
1303.64481,0.17320
1305.57328,0.16921
1307.50175,0.17222
1309.43022,0.17794
1311.35869,0.18109
1313.28716,0.18484
1315.21563,0.18606
1317.14409,0.18287
1319.07256,0.18031
1321.00103,0.17909
1322.92950,0.17994
1324.85797,0.18273
1326.78644,0.18195
1328.71491,0.17473
1330.64337,0.16683
1332.57184,0.16652
1334.50031,0.17368
1336.42878,0.18358
1338.35725,0.19161
1340.28572,0.18595
1342.21419,0.16744
1344.14266,0.15633
1346.07112,0.16147
1347.99959,0.17388
1349.92806,0.18026
1351.85653,0.17892
1353.78500,0.17697
1355.71347,0.17776
1357.64194,0.18220
1359.57040,0.18984
1361.49887,0.19673
1363.42734,0.19531
1365.35581,0.18506
1367.28428,0.17637
1369.21275,0.17764
1371.14122,0.18753
1373.06969,0.19454
1374.99815,0.18916
1376.92662,0.17960
1378.85509,0.17764
1380.78356,0.18349
1382.71203,0.19256
1384.64050,0.20094
1386.56897,0.20563
1388.49743,0.20032
1390.42590,0.18914
1392.35437,0.18631
1394.28284,0.19576
1396.21131,0.20476
1398.13978,0.20029
1400.06825,0.18843
1401.99672,0.18356
1403.92518,0.18893
1405.85365,0.19661
1407.78212,0.19731
1409.71059,0.19151
1411.63906,0.18483
1413.56753,0.18279
1415.49600,0.18739
1417.42446,0.19921
1419.35293,0.21122
1421.28140,0.20797
1423.20987,0.19556
1425.13834,0.18615
1427.06681,0.18520
1428.99528,0.19095
1430.92375,0.19809
1432.85221,0.19934
1434.78068,0.19439
1436.70915,0.18711
1438.63762,0.18525
1440.56609,0.19007
1442.49456,0.19598
1444.42303,0.19892
1446.35149,0.19698
1448.27996,0.19254
1450.20843,0.19343
1452.13690,0.20180
1454.06537,0.21591
1455.99384,0.23056
1457.92231,0.22173
1459.85077,0.19942
1461.77924,0.19166
1463.70771,0.19579
1465.63618,0.20454
1467.56465,0.20737
1469.49312,0.20476
1471.42159,0.20041
1473.35006,0.19661
1475.27852,0.19860
1477.20699,0.20174
1479.13546,0.20020
1481.06393,0.19597
1482.99240,0.19234
1484.92087,0.19230
1486.84934,0.19771
1488.77780,0.20804
1490.70627,0.21413
1492.63474,0.20852
1494.56321,0.19949
1496.49168,0.19650
1498.42015,0.20132
1500.34862,0.20533
1502.27709,0.20912
1504.20555,0.21233
1506.13402,0.20458
1508.06249,0.19096
1509.99096,0.19512
1511.91943,0.20404
1513.84790,0.21051
1515.77637,0.21087
1517.70483,0.20625
1519.63330,0.20700
1521.56177,0.21537
1523.49024,0.21973
1525.41871,0.21828
1527.34718,0.21055
1529.27565,0.19958
1531.20412,0.19510
1533.13258,0.19939
1535.06105,0.20723
1536.98952,0.21701
1538.91799,0.23045
1540.84646,0.22894
1542.77493,0.21214
1544.70340,0.20202
1546.63186,0.19969
1548.56033,0.20511
1550.48880,0.20891
1552.41727,0.20295
1554.34574,0.19425
1556.27421,0.19236
1558.20268,0.20706
1560.13115,0.22037
1562.05961,0.20744
1563.98808,0.19308
1565.91655,0.18786
1567.84502,0.19454
1569.77349,0.20480
1571.70196,0.20752
1573.63043,0.20771
1575.55889,0.20522
1577.48736,0.19426
1579.41583,0.18586
1581.34430,0.18325
1583.27277,0.18474
1585.20124,0.18882
1587.12971,0.18961
1589.05818,0.18547
1590.98664,0.18217
1592.91511,0.18327
1594.84358,0.18864
1596.77205,0.19343
1598.70052,0.19156
1600.62899,0.18573
1602.55746,0.18466
1604.48592,0.19125
1606.41439,0.19926
1608.34286,0.20267
1610.27133,0.19771
1612.19980,0.18900
1614.12827,0.18739
1616.05674,0.19738
1617.98521,0.20753
1619.91367,0.20886
1621.84214,0.20832
1623.77061,0.20498
1625.69908,0.20166
1627.62755,0.20518
1629.55602,0.21117
1631.48449,0.21585
1633.41295,0.22249
1635.34142,0.22367
1637.26989,0.21004
1639.19836,0.20736
1641.12683,0.21535
1643.05530,0.22169
1644.98377,0.22493
1646.91223,0.22189
1648.84070,0.21160
1650.76917,0.21031
1652.69764,0.22374
1654.62611,0.22831
1656.55458,0.21676
1658.48305,0.20824
1660.41152,0.20545
1662.33998,0.20637
1664.26845,0.21094
1666.19692,0.22206
1668.12539,0.23363
1670.05386,0.22810
1671.98233,0.21554
1673.91080,0.21567
1675.83926,0.21983
1677.76773,0.22294
1679.69620,0.22719
1681.62467,0.22853
1683.55314,0.22233
1685.48161,0.21656
1687.41008,0.21789
1689.33855,0.21885
1691.26701,0.21852
1693.19548,0.21836
1695.12395,0.21734
1697.05242,0.22034
1698.98089,0.23191
1700.90936,0.23602
1702.83783,0.22973
1704.76629,0.22342
1706.69476,0.21065
1708.62323,0.19535
1710.55170,0.19146
1712.48017,0.20185
1714.40864,0.21580
1716.33711,0.21626
1718.26558,0.20379
1720.19404,0.19945
1722.12251,0.20129
1724.05098,0.20294
1725.97945,0.20347
1727.90792,0.20354
1729.83639,0.20171
1731.76486,0.20155
1733.69332,0.20966
1735.62179,0.21648
1737.55026,0.21464
1739.47873,0.20869
1741.40720,0.20156
1743.33567,0.19910
1745.26414,0.20402
1747.19261,0.21392
1749.12107,0.22104
1751.04954,0.21525
1752.97801,0.20437
1754.90648,0.19997
1756.83495,0.20172
1758.76342,0.20759
1760.69189,0.21520
1762.62035,0.21606
1764.54882,0.20667
1766.47729,0.19868
1768.40576,0.20154
1770.33423,0.21537
1772.26270,0.22617
1774.19117,0.21797
1776.11964,0.20498
1778.04810,0.19953
1779.97657,0.20116
1781.90504,0.20586
1783.83351,0.20905
1785.76198,0.20656
1787.69045,0.20011
1789.61892,0.19713
1791.54738,0.20083
1793.47585,0.20729
1795.40432,0.21094
1797.33279,0.21097
1799.26126,0.20795
1801.18973,0.20285
1803.11820,0.19904
1805.04666,0.20068
1806.97513,0.20657
1808.90360,0.21118
1810.83207,0.20921
1812.76054,0.20227
1814.68901,0.19853
1816.61748,0.20102
1818.54595,0.20581
1820.47441,0.20720
1822.40288,0.20498
1824.33135,0.20326
1826.25982,0.20546
1828.18829,0.21210
1830.11676,0.21798
1832.04523,0.21683
1833.97369,0.21187
1835.90216,0.20584
1837.83063,0.20041
1839.75910,0.20130
1841.68757,0.20951
1843.61604,0.21493
1845.54451,0.20641
1847.47298,0.19431
1849.40144,0.19150
1851.32991,0.19773
1853.25838,0.20546
1855.18685,0.20922
1857.11532,0.20864
1859.04379,0.20535
1860.97226,0.20143
1862.90072,0.20006
1864.82919,0.20473
1866.75766,0.21344
1868.68613,0.21512
1870.61460,0.20572
1872.54307,0.19766
1874.47154,0.19684
1876.40001,0.20014
1878.32847,0.20352
1880.25694,0.20479
1882.18541,0.20195
1884.11388,0.19837
1886.04235,0.19937
1887.97082,0.20574
1889.89929,0.21282
1891.82775,0.21219
1893.75622,0.20536
1895.68469,0.19990
1897.61316,0.19919
1899.54163,0.20145
1901.47010,0.20376
1903.39857,0.20354
1905.32704,0.20033
1907.25550,0.19835
1909.18397,0.20168
1911.11244,0.20836
1913.04091,0.21281
1914.96938,0.21309
1916.89785,0.21168
1918.82632,0.20994
1920.75478,0.20821
1922.68325,0.20801
1924.61172,0.20909
1926.54019,0.20778
1928.46866,0.20291
1930.39713,0.19846
1932.32560,0.19846
1934.25407,0.20320
1936.18253,0.20912
1938.11100,0.21230
1940.03947,0.21157
1941.96794,0.20703
1943.89641,0.20173
1945.82488,0.20099
1947.75335,0.20398
1949.68181,0.20572
1951.61028,0.20401
1953.53875,0.20064
1955.46722,0.19940
1957.39569,0.20164
1959.32416,0.20515
1961.25263,0.20772
1963.18110,0.20771
1965.10956,0.20496
1967.03803,0.20197
1968.96650,0.20207
1970.89497,0.20559
1972.82344,0.20932
1974.75191,0.20899
1976.68038,0.20408
1978.60884,0.19864
1980.53731,0.19749
1982.46578,0.20185
1984.39425,0.20673
1986.32272,0.20761
1988.25119,0.20570
1990.17966,0.20488
1992.10812,0.20604
1994.03659,0.20592
1995.96506,0.20408
1997.89353,0.20235
1999.82200,0.20035
2001.75047,0.19947
2003.67894,0.20237
2005.60741,0.20652
2007.53587,0.20728
2009.46434,0.20424
2011.39281,0.20090
2013.32128,0.20055
2015.24975,0.20327
2017.17822,0.20801
2019.10669,0.21199
2021.03515,0.21066
2022.96362,0.20438
2024.89209,0.19826
2026.82056,0.19629
2028.74903,0.19934
2030.67750,0.20357
2032.60597,0.20349
2034.53444,0.19944
2036.46290,0.19556
2038.39137,0.19525
2040.31984,0.19928
2042.24831,0.20447
2044.17678,0.20728
2046.10525,0.20559
2048.03372,0.20079
2049.96218,0.19890
2051.89065,0.20245
2053.81912,0.20657
2055.74759,0.20681
2057.67606,0.20403
2059.60453,0.20031
2061.53300,0.19788
2063.46147,0.20004
2065.38993,0.20621
2067.31840,0.21065
2069.24687,0.20944
2071.17534,0.20537
2073.10381,0.20267
2075.03228,0.20224
2076.96075,0.20478
2078.88921,0.20835
2080.81768,0.20722
2082.74615,0.20147
2084.67462,0.19867
2086.60309,0.20107
2088.53156,0.20428
2090.46003,0.20571
2092.38850,0.20419
2094.31696,0.20163
2096.24543,0.20157
2098.17390,0.20380
2100.10237,0.20703
2102.03084,0.20962
2103.95931,0.20828
2105.88778,0.20309
2107.81624,0.20039
2109.74471,0.20339
2111.67318,0.20798
2113.60165,0.21153
2115.53012,0.21281
2117.45859,0.20961
2119.38706,0.20467
2121.31553,0.20276
2123.24399,0.20503
2125.17246,0.20970
2127.10093,0.21136
2129.02940,0.20711
2130.95787,0.20087
2132.88634,0.19854
2134.81481,0.20298
2136.74327,0.20946
2138.67174,0.21169
2140.60021,0.20877
2142.52868,0.20426
2144.45715,0.20327
2146.38562,0.20653
2148.31409,0.21072
2150.24255,0.21158
2152.17102,0.20671
2154.09949,0.20009
2156.02796,0.19918
2157.95643,0.20571
2159.88490,0.21256
2161.81337,0.21371
2163.74184,0.21081
2165.67030,0.20896
2167.59877,0.21068
2169.52724,0.21421
2171.45571,0.21542
2173.38418,0.21147
2175.31265,0.20600
2177.24112,0.20351
2179.16958,0.20373
2181.09805,0.20685
2183.02652,0.21142
2184.95499,0.21259
2186.88346,0.20875
2188.81193,0.20370
2190.74040,0.20196
2192.66887,0.20378
2194.59733,0.20522
2196.52580,0.20386
2198.45427,0.20161
2200.38274,0.20000
2202.31121,0.20030
2204.23968,0.20436
2206.16815,0.20855
2208.09661,0.20861
2210.02508,0.20605
2211.95355,0.20224
2213.88202,0.19906
2215.81049,0.19961
2217.73896,0.20227
2219.66743,0.20412
2221.59590,0.20373
2223.52436,0.19993
2225.45283,0.19603
2227.38130,0.19830
2229.30977,0.20588
2231.23824,0.21113
2233.16671,0.21027
2235.09518,0.20613
2237.02364,0.20387
2238.95211,0.20601
2240.88058,0.20973
2242.80905,0.21138
2244.73752,0.20896
2246.66599,0.20162
2248.59446,0.19490
2250.52293,0.19602
2252.45139,0.20255
2254.37986,0.20637
2256.30833,0.20376
2258.23680,0.19872
2260.16527,0.19695
2262.09374,0.19975
2264.02221,0.20562
2265.95067,0.21062
2267.87914,0.20985
2269.80761,0.20354
2271.73608,0.19829
2273.66455,0.19955
2275.59302,0.20509
2277.52149,0.20744
2279.44996,0.20412
2281.37842,0.19981
2283.30689,0.19823
2285.23536,0.19998
2287.16383,0.20243
2289.09230,0.20036
2291.02077,0.19218
2292.94924,0.18551
2294.87770,0.18485
2296.80617,0.18509
2298.73464,0.18778
2300.66311,0.19264
2302.59158,0.19260
2304.52005,0.18740
2306.44852,0.17807
2308.37699,0.16931
2310.30545,0.16829
2312.23392,0.17285
2314.16239,0.17614
2316.09086,0.17204
2318.01933,0.15865
2319.94780,0.14618
2321.87627,0.14712
2323.80473,0.15386
2325.73320,0.15321
2327.66167,0.14190
2329.59014,0.11970
2331.51861,0.10855
2333.44708,0.13126
2335.37555,0.16266
2337.30401,0.16758
2339.23248,0.14536
2341.16095,0.11460
2343.08942,0.09922
2345.01789,0.11851
2346.94636,0.14720
2348.87483,0.15682
2350.80330,0.14675
2352.73176,0.11869
2354.66023,0.08648
2356.58870,0.07654
2358.51717,0.09330
2360.44564,0.12015
2362.37411,0.12940
2364.30258,0.11286
2366.23104,0.10484
2368.15951,0.12437
2370.08798,0.14695
2372.01645,0.15631
2373.94492,0.15841
2375.87339,0.16194
2377.80186,0.17073
2379.73033,0.18200
2381.65879,0.19246
2383.58726,0.20054
2385.51573,0.20410
2387.44420,0.20377
2389.37267,0.20265
2391.30114,0.20314
2393.22961,0.20713
2395.15807,0.21177
2397.08654,0.21034
2399.01501,0.20386
2400.94348,0.20056
2402.87195,0.20369
2404.80042,0.20860
2406.72889,0.21053
2408.65736,0.20927
2410.58582,0.20688
2412.51429,0.20544
2414.44276,0.20494
2416.37123,0.20641
2418.29970,0.21174
2420.22817,0.21639
2422.15664,0.21541
2424.08510,0.21152
2426.01357,0.20956
2427.94204,0.21165
2429.87051,0.21618
2431.79898,0.21755
2433.72745,0.21330
2435.65592,0.20772
2437.58439,0.20590
2439.51285,0.20947
2441.44132,0.21408
2443.36979,0.21322
2445.29826,0.20755
2447.22673,0.20298
2449.15520,0.20031
2451.08367,0.19759
2453.01213,0.19764
2454.94060,0.20289
2456.86907,0.20776
2458.79754,0.20609
2460.72601,0.20414
2462.65448,0.20734
2464.58295,0.20878
2466.51142,0.20667
2468.43988,0.20598
2470.36835,0.20540
2472.29682,0.20380
2474.22529,0.20565
2476.15376,0.21085
2478.08223,0.21398
2480.01070,0.21251
2481.93916,0.20738
2483.86763,0.20270
2485.79610,0.20349
2487.72457,0.20853
2489.65304,0.21087
2491.58151,0.20710
2493.50998,0.20135
2495.43844,0.19954
2497.36691,0.20400
2499.29538,0.21190
2501.22385,0.21599
2503.15232,0.21358
2505.08079,0.20925
2507.00926,0.20507
2508.93773,0.20319
2510.86619,0.20670
2512.79466,0.21161
2514.72313,0.21180
2516.65160,0.20700
2518.58007,0.20060
2520.50854,0.19743
2522.43701,0.20066
2524.36547,0.20676
2526.29394,0.21076
2528.22241,0.21094
2530.15088,0.20834
2532.07935,0.20678
2534.00782,0.20779
2535.93629,0.20915
2537.86476,0.20857
2539.79322,0.20616
2541.72169,0.20505
2543.65016,0.20712
2545.57863,0.20992
2547.50710,0.21187
2549.43557,0.21312
2551.36404,0.21289
2553.29250,0.21056
2555.22097,0.20776
2557.14944,0.20947
2559.07791,0.21511
2561.00638,0.21714
2562.93485,0.21332
2564.86332,0.20848
2566.79179,0.20690
2568.72025,0.20862
2570.64872,0.21092
2572.57719,0.21207
2574.50566,0.21289
2576.43413,0.21204
2578.36260,0.20919
2580.29107,0.20910
2582.21953,0.21275
2584.14800,0.21599
2586.07647,0.21521
2588.00494,0.20956
2589.93341,0.20467
2591.86188,0.20685
2593.79035,0.21376
2595.71882,0.21920
2597.64728,0.21846
2599.57575,0.21126
2601.50422,0.20426
2603.43269,0.20532
2605.36116,0.21332
2607.28963,0.21886
2609.21810,0.21856
2611.14656,0.21448
2613.07503,0.20939
2615.00350,0.20905
2616.93197,0.21431
2618.86044,0.21898
2620.78891,0.21801
2622.71738,0.21351
2624.64585,0.21153
2626.57431,0.21342
2628.50278,0.21690
2630.43125,0.21850
2632.35972,0.21504
2634.28819,0.21106
2636.21666,0.21098
2638.14513,0.21139
2640.07359,0.21165
2642.00206,0.21257
2643.93053,0.21305
2645.85900,0.21216
2647.78747,0.20858
2649.71594,0.20706
2651.64441,0.21241
2653.57288,0.21856
2655.50134,0.21899
2657.42981,0.21437
2659.35828,0.20811
2661.28675,0.20510
2663.21522,0.20855
2665.14369,0.21629
2667.07216,0.22133
2669.00062,0.21957
2670.92909,0.21580
2672.85756,0.21526
2674.78603,0.21853
2676.71450,0.22381
2678.64297,0.22507
2680.57144,0.21869
2682.49990,0.21166
2684.42837,0.21169
2686.35684,0.21724
2688.28531,0.22203
2690.21378,0.22193
2692.14225,0.21794
2694.07072,0.21309
2695.99919,0.21085
2697.92765,0.21357
2699.85612,0.21689
2701.78459,0.21671
2703.71306,0.21454
2705.64153,0.21143
2707.57000,0.20978
2709.49847,0.21224
2711.42693,0.21743
2713.35540,0.22237
2715.28387,0.22286
2717.21234,0.21818
2719.14081,0.21381
2721.06928,0.21452
2722.99775,0.21927
2724.92622,0.22311
2726.85468,0.22180
2728.78315,0.21604
2730.71162,0.21244
2732.64009,0.21497
2734.56856,0.22087
2736.49703,0.22534
2738.42550,0.22460
2740.35396,0.21951
2742.28243,0.21526
2744.21090,0.21587
2746.13937,0.21994
2748.06784,0.22343
2749.99631,0.22423
2751.92478,0.22054
2753.85325,0.21364
2755.78171,0.21127
2757.71018,0.21779
2759.63865,0.22627
2761.56712,0.22825
2763.49559,0.22502
2765.42406,0.22214
2767.35253,0.22066
2769.28099,0.22055
2771.20946,0.22153
2773.13793,0.22178
2775.06640,0.22135
2776.99487,0.21970
2778.92334,0.21705
2780.85181,0.21890
2782.78028,0.22703
2784.70874,0.23214
2786.63721,0.22800
2788.56568,0.22163
2790.49415,0.22098
2792.42262,0.22605
2794.35109,0.23124
2796.27956,0.23003
2798.20802,0.22157
2800.13649,0.21433
2802.06496,0.21631
2803.99343,0.22473
2805.92190,0.23313
2807.85037,0.23446
2809.77884,0.22466
2811.70731,0.21296
2813.63577,0.21069
2815.56424,0.21849
2817.49271,0.22965
2819.42118,0.23380
2821.34965,0.22848
2823.27812,0.22261
2825.20659,0.22097
2827.13505,0.22236
2829.06352,0.22681
2830.99199,0.23223
2832.92046,0.23285
2834.84893,0.22839
2836.77740,0.22550
2838.70587,0.22706
2840.63433,0.22977
2842.56280,0.23029
2844.49127,0.22853
2846.41974,0.22477
2848.34821,0.22100
2850.27668,0.22025
2852.20515,0.22181
2854.13362,0.22516
2856.06208,0.22699
2857.99055,0.22431
2859.91902,0.22274
2861.84749,0.22616
2863.77596,0.23079
2865.70443,0.23135
2867.63290,0.22741
2869.56136,0.22335
2871.48983,0.22280
2873.41830,0.22631
2875.34677,0.23288
2877.27524,0.23734
2879.20371,0.23257
2881.13218,0.22256
2883.06065,0.21726
2884.98911,0.21946
2886.91758,0.22606
2888.84605,0.22992
2890.77452,0.22644
2892.70299,0.21913
2894.63146,0.21484
2896.55993,0.21772
2898.48839,0.22554
2900.41686,0.23205
2902.34533,0.23252
2904.27380,0.22535
2906.20227,0.21621
2908.13074,0.21554
2910.05921,0.22197
2911.98768,0.22485
2913.91614,0.22028
2915.84461,0.21249
2917.77308,0.20824
2919.70155,0.21048
2921.63002,0.21921
2923.55849,0.22632
2925.48696,0.21741
2927.41542,0.20230
2929.34389,0.20375
2931.27236,0.21683
2933.20083,0.22586
2935.12930,0.22863
2937.05777,0.22763
2938.98624,0.22532
2940.91471,0.22198
2942.84317,0.21976
2944.77164,0.22181
2946.70011,0.22413
2948.62858,0.22338
2950.55705,0.22026
2952.48552,0.21791
2954.41399,0.21933
2956.34245,0.22085
2958.27092,0.22228
2960.19939,0.22708
2962.12786,0.22867
2964.05633,0.22378
2965.98480,0.22010
2967.91327,0.22171
2969.84174,0.23112
2971.77020,0.24428
2973.69867,0.24504
2975.62714,0.23062
2977.55561,0.21891
2979.48408,0.22181
2981.41255,0.23236
2983.34102,0.23976
2985.26948,0.23931
2987.19795,0.23110
2989.12642,0.22404
2991.05489,0.22549
2992.98336,0.23204
2994.91183,0.23751
2996.84030,0.23674
2998.76877,0.23094
3000.69723,0.22794
3002.62570,0.23169
3004.55417,0.23968
3006.48264,0.24627
3008.41111,0.24438
3010.33958,0.23142
3012.26805,0.21379
3014.19651,0.19768
3016.12498,0.18706
3018.05345,0.19182
3019.98192,0.21046
3021.91039,0.22410
3023.83886,0.22687
3025.76733,0.22923
3027.69579,0.23587
3029.62426,0.24170
3031.55273,0.23944
3033.48120,0.23114
3035.40967,0.22675
3037.33814,0.22803
3039.26661,0.23134
3041.19508,0.23638
3043.12354,0.24014
3045.05201,0.23537
3046.98048,0.22456
3048.90895,0.21918
3050.83742,0.22090
3052.76589,0.22499
3054.69436,0.22634
3056.62282,0.22225
3058.55129,0.22101
3060.47976,0.22430
3062.40823,0.22625
3064.33670,0.22953
3066.26517,0.23336
3068.19364,0.23369
3070.12211,0.23290
3072.05057,0.23273
3073.97904,0.23267
3075.90751,0.23565
3077.83598,0.24039
3079.76445,0.23856
3081.69292,0.22903
3083.62139,0.21888
3085.54985,0.21839
3087.47832,0.22761
3089.40679,0.23391
3091.33526,0.23455
3093.26373,0.22974
3095.19220,0.22246
3097.12067,0.22313
3099.04914,0.22928
3100.97760,0.23058
3102.90607,0.22477
3104.83454,0.22112
3106.76301,0.22572
3108.69148,0.23336
3110.61995,0.23647
3112.54842,0.23204
3114.47688,0.22712
3116.40535,0.22482
3118.33382,0.22225
3120.26229,0.22320
3122.19076,0.23025
3124.11923,0.23793
3126.04770,0.23815
3127.97617,0.23076
3129.90463,0.22268
3131.83310,0.22011
3133.76157,0.22733
3135.69004,0.24015
3137.61851,0.24443
3139.54698,0.23574
3141.47545,0.22590
3143.40391,0.22345
3145.33238,0.22908
3147.26085,0.23862
3149.18932,0.24201
3151.11779,0.23651
3153.04626,0.23016
3154.97473,0.22769
3156.90320,0.22859
3158.83166,0.23137
3160.76013,0.23116
3162.68860,0.22462
3164.61707,0.21700
3166.54554,0.21815
3168.47401,0.23060
3170.40248,0.24415
3172.33094,0.24854
3174.25941,0.24567
3176.18788,0.24156
3178.11635,0.24113
3180.04482,0.24717
3181.97329,0.25193
3183.90176,0.25000
3185.83022,0.24558
3187.75869,0.24009
3189.68716,0.23391
3191.61563,0.22964
3193.54410,0.23284
3195.47257,0.24131
3197.40104,0.23939
3199.32951,0.22695
3201.25797,0.22137
3203.18644,0.22720
3205.11491,0.23668
3207.04338,0.24253
3208.97185,0.24044
3210.90032,0.23246
3212.82879,0.22908
3214.75725,0.23590
3216.68572,0.24244
3218.61419,0.24214
3220.54266,0.23766
3222.47113,0.22674
3224.39960,0.21414
3226.32807,0.21314
3228.25654,0.22621
3230.18500,0.24117
3232.11347,0.24362
3234.04194,0.23300
3235.97041,0.22351
3237.89888,0.22455
3239.82735,0.23139
3241.75582,0.23700
3243.68428,0.23766
3245.61275,0.23194
3247.54122,0.22434
3249.46969,0.22434
3251.39816,0.23240
3253.32663,0.23859
3255.25510,0.23819
3257.18357,0.23100
3259.11203,0.22309
3261.04050,0.22594
3262.96897,0.23711
3264.89744,0.24466
3266.82591,0.24447
3268.75438,0.23870
3270.68285,0.23043
3272.61131,0.22631
3274.53978,0.23101
3276.46825,0.23849
3278.39672,0.23938
3280.32519,0.23155
3282.25366,0.22214
3284.18213,0.22066
3286.11060,0.22701
3288.03906,0.23175
3289.96753,0.23051
3291.89600,0.22857
3293.82447,0.22793
3295.75294,0.22506
3297.68141,0.22435
3299.60988,0.22927
3301.53834,0.23127
3303.46681,0.22581
3305.39528,0.21908
3307.32375,0.21851
3309.25222,0.22522
3311.18069,0.23157
3313.10916,0.23152
3315.03763,0.22863
3316.96609,0.22654
3318.89456,0.22669
3320.82303,0.23118
3322.75150,0.23651
3324.67997,0.23919
3326.60844,0.23929
3328.53691,0.23625
3330.46537,0.23454
3332.39384,0.23636
3334.32231,0.23867
3336.25078,0.24185
3338.17925,0.24223
3340.10772,0.23587
3342.03619,0.22963
3343.96466,0.22995
3345.89312,0.23346
3347.82159,0.23448
3349.75006,0.23347
3351.67853,0.23326
3353.60700,0.23354
3355.53547,0.23404
3357.46394,0.23642
3359.39240,0.24021
3361.32087,0.23985
3363.24934,0.23249
3365.17781,0.22526
3367.10628,0.22583
3369.03475,0.23252
3370.96322,0.23973
3372.89168,0.24365
3374.82015,0.23954
3376.74862,0.22944
3378.67709,0.22452
3380.60556,0.22949
3382.53403,0.23825
3384.46250,0.24071
3386.39097,0.23307
3388.31943,0.22365
3390.24790,0.22135
3392.17637,0.22840
3394.10484,0.23916
3396.03331,0.24102
3397.96178,0.23186
3399.89025,0.22339
3401.81871,0.22304
3403.74718,0.23157
3405.67565,0.24241
3407.60412,0.24379
3409.53259,0.23481
3411.46106,0.22365
3413.38953,0.21799
3415.31800,0.22181
3417.24646,0.23068
3419.17493,0.23386
3421.10340,0.22556
3423.03187,0.21508
3424.96034,0.21384
3426.88881,0.22116
3428.81728,0.23024
3430.74574,0.23530
3432.67421,0.23257
3434.60268,0.22261
3436.53115,0.21510
3438.45962,0.21640
3440.38809,0.22000
3442.31656,0.22142
3444.24503,0.22196
3446.17349,0.22074
3448.10196,0.21935
3450.03043,0.22166
3451.95890,0.22706
3453.88737,0.23190
3455.81584,0.22951
3457.74431,0.21629
3459.67277,0.20390
3461.60124,0.20601
3463.52971,0.21792
3465.45818,0.22540
3467.38665,0.22168
3469.31512,0.21309
3471.24359,0.20850
3473.17206,0.20866
3475.10052,0.21329
3477.02899,0.22039
3478.95746,0.22341
3480.88593,0.21677
3482.81440,0.20540
3484.74287,0.20260
3486.67134,0.20883
3488.59980,0.21323
3490.52827,0.20977
3492.45674,0.20117
3494.38521,0.19514
3496.31368,0.19744
3498.24215,0.20495
3500.17062,0.21169
3502.09909,0.21341
3504.02755,0.20582
3505.95602,0.19613
3507.88449,0.19471
3509.81296,0.19889
3511.74143,0.20107
3513.66990,0.19727
3515.59837,0.18869
3517.52683,0.18102
3519.45530,0.17895
3521.38377,0.18457
3523.31224,0.19310
3525.24071,0.19477
3527.16918,0.18986
3529.09765,0.18300
3531.02611,0.17824
3532.95458,0.17990
3534.88305,0.18507
3536.81152,0.18810
3538.73999,0.18690
3540.66846,0.18335
3542.59693,0.18232
3544.52540,0.18650
3546.45386,0.19300
3548.38233,0.19526
3550.31080,0.19076
3552.23927,0.18451
3554.16774,0.18255
3556.09621,0.18433
3558.02468,0.18632
3559.95314,0.18609
3561.88161,0.18272
3563.81008,0.17845
3565.73855,0.18114
3567.66702,0.19294
3569.59549,0.19572
3571.52396,0.18831
3573.45243,0.17859
3575.38089,0.16456
3577.30936,0.15208
3579.23783,0.15560
3581.16630,0.16988
3583.09477,0.17683
3585.02324,0.17390
3586.95171,0.16721
3588.88017,0.16214
3590.80864,0.16297
3592.73711,0.16758
3594.66558,0.17189
3596.59405,0.17376
3598.52252,0.17174
3600.45099,0.16501
3602.37946,0.16162
3604.30792,0.16748
3606.23639,0.17735
3608.16486,0.18173
3610.09333,0.17319
3612.02180,0.15971
3613.95027,0.15486
3615.87874,0.16276
3617.80720,0.17306
3619.73567,0.16941
3621.66414,0.15418
3623.59261,0.14370
3625.52108,0.14344
3627.44955,0.15499
3629.37802,0.16881
3631.30649,0.16737
3633.23495,0.15665
3635.16342,0.14674
3637.09189,0.14568
3639.02036,0.15011
3640.94883,0.15412
3642.87730,0.15574
3644.80577,0.15475
3646.73423,0.15490
3648.66270,0.16140
3650.59117,0.16944
3652.51964,0.16976
3654.44811,0.16590
3656.37658,0.15946
3658.30505,0.15112
3660.23352,0.14537
3662.16198,0.14668
3664.09045,0.15354
3666.01892,0.15996
3667.94739,0.16386
3669.87586,0.15941
3671.80433,0.14785
3673.73280,0.14678
3675.66126,0.15960
3677.58973,0.16315
3679.51820,0.14992
3681.44667,0.13598
3683.37514,0.13208
3685.30361,0.13858
3687.23208,0.15168
3689.16055,0.16086
3691.08901,0.15062
3693.01748,0.13550
3694.94595,0.13003
3696.87442,0.13289
3698.80289,0.13978
3700.73136,0.14698
3702.65983,0.14812
3704.58829,0.14190
3706.51676,0.13639
3708.44523,0.13970
3710.37370,0.15477
3712.30217,0.16184
3714.23064,0.15062
3716.15911,0.14167
3718.08757,0.14060
3720.01604,0.14289
3721.94451,0.14617
3723.87298,0.14764
3725.80145,0.14170
3727.72992,0.13022
3729.65839,0.12181
3731.58686,0.12429
3733.51532,0.14219
3735.44379,0.15860
3737.37226,0.15578
3739.30073,0.14681
3741.22920,0.14141
3743.15767,0.14381
3745.08614,0.15453
3747.01460,0.16334
3748.94307,0.17158
3750.87154,0.17366
3752.80001,0.15866
3754.72848,0.14754
3756.65695,0.14723
3758.58542,0.14914
3760.51389,0.14482
3762.44235,0.13628
3764.37082,0.12853
3766.29929,0.12614
3768.22776,0.13241
3770.15623,0.14167
3772.08470,0.14193
3774.01317,0.13406
3775.94163,0.12749
3777.87010,0.12788
3779.79857,0.13292
3781.72704,0.13784
3783.65551,0.14069
3785.58398,0.13640
3787.51245,0.12896
3789.44092,0.12803
3791.36938,0.13442
3793.29785,0.14282
3795.22632,0.14429
3797.15479,0.13835
3799.08326,0.13453
3801.01173,0.13540
3802.94020,0.14258
3804.86866,0.15047
3806.79713,0.15206
3808.72560,0.14660
3810.65407,0.14002
3812.58254,0.13660
3814.51101,0.13852
3816.43948,0.14580
3818.36795,0.15293
3820.29641,0.15328
3822.22488,0.14364
3824.15335,0.13599
3826.08182,0.13628
3828.01029,0.13869
3829.93876,0.13767
3831.86723,0.13621
3833.79569,0.13525
3835.72416,0.13421
3837.65263,0.13969
3839.58110,0.14831
3841.50957,0.15005
3843.43804,0.14501
3845.36651,0.13334
3847.29498,0.12397
3849.22344,0.12538
3851.15191,0.13835
3853.08038,0.15980
3855.00885,0.16223
3856.93732,0.14682
3858.86579,0.13359
3860.79426,0.12952
3862.72272,0.13516
3864.65119,0.13997
3866.57966,0.13716
3868.50813,0.13008
3870.43660,0.12234
3872.36507,0.12325
3874.29354,0.13676
3876.22200,0.15067
3878.15047,0.15250
3880.07894,0.14199
3882.00741,0.13048
3883.93588,0.12929
3885.86435,0.13085
3887.79282,0.13086
3889.72129,0.13239
3891.64975,0.13124
3893.57822,0.12616
3895.50669,0.12383
3897.43516,0.12776
3899.36363,0.13810
3901.29210,0.14399
3903.22057,0.13749
3905.14903,0.12858
3907.07750,0.12540
3909.00597,0.12750
3910.93444,0.12949
3912.86291,0.12936
3914.79138,0.13149
3916.71985,0.12938
3918.64832,0.12113
3920.57678,0.11991
3922.50525,0.12440
3924.43372,0.12620
3926.36219,0.12150
3928.29066,0.11326
3930.21913,0.11121
3932.14760,0.11994
3934.07606,0.12983
3936.00453,0.13449
3937.93300,0.13263
3939.86147,0.12192
3941.78994,0.11015
3943.71841,0.10967
3945.64688,0.11909
3947.57535,0.12900
3949.50381,0.13211
3951.43228,0.12642
3953.36075,0.12124
3955.28922,0.12472
3957.21769,0.13030
3959.14616,0.12919
3961.07463,0.12661
3963.00309,0.12626
3964.93156,0.12378
3966.86003,0.12277
3968.78850,0.12591
3970.71697,0.12777
3972.64544,0.12658
3974.57391,0.12147
3976.50238,0.11425
3978.43084,0.11328
3980.35931,0.11948
3982.28778,0.12637
3984.21625,0.12941
3986.14472,0.12398
3988.07319,0.11316
3990.00166,0.10913
3991.93012,0.11425
3993.85859,0.11896
3995.78706,0.11739
3997.71553,0.11202
3999.64400,0.10730
4001.57247,0.10855
4003.50094,0.11731
4005.42941,0.12472
4007.35787,0.12435
4009.28634,0.11820
4011.21481,0.11146
4013.14328,0.11019
4015.07175,0.11445
4017.00022,0.12057
4018.92869,0.12379
4020.85715,0.11811
4022.78562,0.10790
4024.71409,0.10310
4026.64256,0.10637
4028.57103,0.11238
4030.49950,0.11346
4032.42797,0.10956
4034.35644,0.10722
4036.28490,0.10909
4038.21337,0.11093
4040.14184,0.10970
4042.07031,0.10850
4043.99878,0.10834
4045.92725,0.10611
4047.85572,0.10369
4049.78418,0.10713
4051.71265,0.11579
4053.64112,0.12236
4055.56959,0.12413
4057.49806,0.12210
4059.42653,0.11524
4061.35500,0.11070
4063.28346,0.11575
4065.21193,0.11970
4067.14040,0.11209
4069.06887,0.09962
4070.99734,0.09281
4072.92581,0.09524
4074.85428,0.10492
4076.78275,0.11232
4078.71121,0.11048
4080.63968,0.10513
4082.56815,0.09978
4084.49662,0.09563
4086.42509,0.09870
4088.35356,0.10556
4090.28203,0.10657
4092.21049,0.10168
4094.13896,0.09858
4096.06743,0.10163
4097.99590,0.10720
4099.92437,0.10912
4101.85284,0.10417
4103.78131,0.09757
4105.70978,0.09641
4107.63824,0.09936
4109.56671,0.10429
4111.49518,0.10851
4113.42365,0.10741
4115.35212,0.10130
4117.28059,0.09645
4119.20906,0.09768
4121.13752,0.10005
4123.06599,0.10166
4124.99446,0.10620
4126.92293,0.10533
4128.85140,0.09519
4130.77987,0.09143
4132.70834,0.10123
4134.63681,0.11197
4136.56527,0.11099
4138.49374,0.09809
4140.42221,0.08474
4142.35068,0.08176
4144.27915,0.08702
4146.20762,0.09443
4148.13609,0.10179
4150.06455,0.10249
4151.99302,0.09437
4153.92149,0.08928
4155.84996,0.09439
4157.77843,0.10302
4159.70690,0.10507
4161.63537,0.09907
4163.56384,0.09220
4165.49230,0.08989
4167.42077,0.09233
4169.34924,0.09672
4171.27771,0.10099
4173.20618,0.10174
4175.13465,0.09286
4177.06312,0.07740
4178.99158,0.07201
4180.92005,0.08368
4182.84852,0.09638
4184.77699,0.09538
4186.70546,0.08475
4188.63393,0.07563
4190.56240,0.07423
4192.49087,0.08015
4194.41933,0.08576
4196.34780,0.08379
4198.27627,0.07803
4200.20474,0.07740
4202.13321,0.08092
4204.06168,0.08362
4205.99015,0.08697
4207.91861,0.08763
4209.84708,0.08091
4211.77555,0.07304
4213.70402,0.07491
4215.63249,0.08885
4217.56096,0.10027
4219.48943,0.09776
4221.41789,0.08697
4223.34636,0.07556
4225.27483,0.06837
4227.20330,0.06789
4229.13177,0.07235
4231.06024,0.07685
4232.98871,0.07408
4234.91718,0.06627
4236.84564,0.06446
4238.77411,0.07104
4240.70258,0.08187
4242.63105,0.09054
4244.55952,0.09113
4246.48799,0.08486
4248.41646,0.07551
4250.34492,0.06885
4252.27339,0.06824
4254.20186,0.06877
4256.13033,0.06626
4258.05880,0.06323
4259.98727,0.06363
4261.91574,0.06420
4263.84421,0.06458
4265.77267,0.06824
4267.70114,0.06345
4269.62961,0.04872
4271.55808,0.04280
4273.48655,0.05294
4275.41502,0.07129
4277.34349,0.08070
4279.27195,0.07304
4281.20042,0.05859
4283.12889,0.05139
4285.05736,0.06021
4286.98583,0.07503
4288.91430,0.07922
4290.84277,0.07405
4292.77124,0.06681
4294.69970,0.06313
4296.62817,0.06857
4298.55664,0.07541
4300.48511,0.07422
4302.41358,0.06848
4304.34205,0.06127
4306.27052,0.05683
4308.19898,0.06135
4310.12745,0.07201
4312.05592,0.08036
4313.98439,0.07910
4315.91286,0.06561
4317.84133,0.04962
4319.76980,0.04649
4321.69827,0.05656
4323.62673,0.06660
4325.55520,0.06502
4327.48367,0.05478
4329.41214,0.05015
4331.34061,0.05473
4333.26908,0.06115
4335.19755,0.06717
4337.12601,0.07030
4339.05448,0.06337
4340.98295,0.05080
4342.91142,0.04674
4344.83989,0.05766
4346.76836,0.07073
4348.69683,0.06706
4350.62530,0.05027
4352.55376,0.03682
4354.48223,0.03584
4356.41070,0.04777
4358.33917,0.06171
4360.26764,0.06468
4362.19611,0.05745
4364.12458,0.04979
4366.05304,0.04647
4367.98151,0.04865
4369.90998,0.05487
4371.83845,0.05800
4373.76692,0.05291
4375.69539,0.04010
4377.62386,0.02896
4379.55232,0.03562
4381.48079,0.05790
4383.40926,0.06871
4385.33773,0.05293
4387.26620,0.03206
4389.19467,0.03500
4391.12314,0.05636
4393.05161,0.06671
4394.98007,0.05656
4396.90854,0.03932
4398.83701,0.02759
4400.76548,0.02936
4402.69395,0.03957
4404.62242,0.04426
4406.55089,0.04562
4408.47935,0.04581
4410.40782,0.03792
4412.33629,0.03066
4414.26476,0.03414
4416.19323,0.04166
4418.12170,0.04661
4420.05017,0.04662
4421.97864,0.04003
4423.90710,0.03417
4425.83557,0.04153
4427.76404,0.05779
4429.69251,0.06202
4431.62098,0.05167
4433.54945,0.03947
4435.47792,0.02762
4437.40638,0.02149
4439.33485,0.02693
4441.26332,0.03405
4443.19179,0.03418
4445.12026,0.02898
4447.04873,0.02206
4448.97720,0.02274
4450.90567,0.03897
4452.83413,0.05599
4454.76260,0.05568
4456.69107,0.04456
4458.61954,0.03470
4460.54801,0.02984
4462.47648,0.03012
4464.40495,0.03444
4466.33341,0.04007
4468.26188,0.03824
4470.19035,0.03281
4472.11882,0.03656
4474.04729,0.04160
4475.97576,0.04262
4477.90423,0.04427
4479.83270,0.04024
4481.76116,0.02665
4483.68963,0.01389
4485.61810,0.01823
4487.54657,0.03327
4489.47504,0.03731
4491.40351,0.02947
4493.33198,0.02134
4495.26044,0.01654
4497.18891,0.01201
4499.11738,0.00830
4501.04585,0.00741
4502.97432,0.00815
4504.90279,0.01350
4506.83126,0.02138
4508.75973,0.02476
4510.68819,0.03111
4512.61666,0.04144
4514.54513,0.03858
4516.47360,0.02234
4518.40207,0.00795
4520.33054,0.00603
4522.25901,0.01663
4524.18747,0.02300
4526.11594,0.01478
4528.04441,0.00385
4529.97288,0.00638
4531.90135,0.02353
4533.82982,0.03939
4535.75829,0.04080
4537.68676,0.03004
4539.61522,0.01558
4541.54369,0.00543
4543.47216,0.00723
4545.40063,0.01805
4547.32910,0.02608
4549.25757,0.02826
4551.18604,0.02345
4553.11450,0.01157
4555.04297,0.00826
4556.97144,0.02098
4558.89991,0.03159
4560.82838,0.02631
4562.75685,0.01487
4564.68532,0.01153
4566.61378,0.01780
4568.54225,0.02418
4570.47072,0.01954
4572.39919,0.01176
4574.32766,0.01438
4576.25613,0.01923
4578.18460,0.02025
4580.11307,0.02481
4582.04153,0.03080
4583.97000,0.02764
4585.89847,0.01601
4587.82694,0.00599
4589.75541,0.00645
4591.68388,0.01579
4593.61235,0.01887
4595.54081,0.01281
4597.46928,0.01101
4599.39775,0.01560
4601.32622,0.01661
4603.25469,0.01292
4605.18316,0.01530
4607.11163,0.02177
4609.04010,0.01686
4610.96856,0.00421
4612.89703,0.00534
4614.82550,0.02101
4616.75397,0.03333
4618.68244,0.03257
4620.61091,0.02153
4622.53938,0.01303
4624.46784,0.01355
4626.39631,0.01792
4628.32478,0.02232
4630.25325,0.02476
4632.18172,0.01879
4634.11019,0.00465
4636.03866,-0.00204
4637.96713,0.00138
4639.89559,0.00535
4641.82406,0.01111
4643.75253,0.01479
4645.68100,0.01069
4647.60947,0.00596
4649.53794,0.00988
4651.46641,0.02005
4653.39487,0.02240
4655.32334,0.01242
4657.25181,0.00100
4659.18028,0.00059
4661.10875,0.01465
4663.03722,0.02861
4664.96569,0.02556
4666.89416,0.00452
4668.82262,-0.01936
4670.75109,-0.02355
4672.67956,-0.00380
4674.60803,0.01991
4676.53650,0.02367
4678.46497,0.00620
4680.39344,-0.01124
4682.32190,-0.01540
4684.25037,0.00099
4686.17884,0.02981
4688.10731,0.04483
4690.03578,0.04303
4691.96425,0.03214
4693.89272,0.01357
4695.82119,0.00535
4697.74965,0.01632
4699.67812,0.02250
4701.60659,0.01000
4703.53506,-0.00477
4705.46353,-0.00679
4707.39200,0.00088
4709.32047,0.00825
4711.24893,0.01460
4713.17740,0.01904
4715.10587,0.01589
4717.03434,0.00831
4718.96281,0.00218
4720.89128,0.00652
4722.81975,0.01932
4724.74821,0.02067
4726.67668,0.00695
4728.60515,-0.00118
4730.53362,0.00828
4732.46209,0.02399
4734.39056,0.03097
4736.31903,0.02719
4738.24750,0.01495
4740.17596,0.00445
4742.10443,0.01078
4744.03290,0.02823
4745.96137,0.03707
4747.88984,0.03096
4749.81831,0.01289
4751.74678,-0.01379
4753.67524,-0.03262
4755.60371,-0.02498
4757.53218,-0.00221
4759.46065,0.01095
4761.38912,0.00898
4763.31759,0.00038
4765.24606,-0.00623
4767.17453,-0.00690
4769.10299,-0.00620
4771.03146,-0.00929
4772.95993,-0.01172
4774.88840,-0.00992
4776.81687,-0.00613
4778.74534,-0.00060
4780.67381,0.00877
4782.60227,0.01820
4784.53074,0.01539
4786.45921,-0.00246
4788.38768,-0.01840
4790.31615,-0.01458
4792.24462,0.00437
4794.17309,0.02033
4796.10156,0.02379
4798.03002,0.01352
4799.95849,-0.00279
4801.88696,-0.01087
4803.81543,-0.00407
4805.74390,0.01183
4807.67237,0.01964
4809.60084,0.01191
4811.52930,0.00203
4813.45777,0.00246
4815.38624,0.01499
4817.31471,0.02984
4819.24318,0.03320
4821.17165,0.02808
4823.10012,0.02115
4825.02859,0.01024
4826.95705,0.00136
4828.88552,-0.00338
4830.81399,-0.00587
4832.74246,-0.00593
4834.67093,-0.01180
4836.59940,-0.01743
4838.52787,-0.01119
4840.45633,0.00349
4842.38480,0.01769
4844.31327,0.02054
4846.24174,0.01153
4848.17021,-0.00041
4850.09868,-0.00494
4852.02715,0.00179
4853.95562,0.00883
4855.88408,0.00901
4857.81255,0.00801
4859.74102,0.00551
4861.66949,0.00028
4863.59796,0.00054
4865.52643,0.01204
4867.45490,0.02702
4869.38336,0.02873
4871.31183,0.01653
4873.24030,0.00571
4875.16877,0.00092
4877.09724,0.00424
4879.02571,0.01669
4880.95418,0.01826
4882.88265,-0.00091
4884.81111,-0.01372
4886.73958,-0.00246
4888.66805,0.01861
4890.59652,0.02956
4892.52499,0.01820
4894.45346,-0.00200
4896.38193,-0.00397
4898.31039,0.00721
4900.23886,0.00658
4902.16733,-0.00858
4904.09580,-0.02317
4906.02427,-0.02505
4907.95274,-0.01679
4909.88121,-0.00861
4911.80967,-0.00230
4913.73814,0.00226
4915.66661,-0.00921
4917.59508,-0.02875
4919.52355,-0.01831
4921.45202,0.02372
4923.38049,0.05114
4925.30896,0.04073
4927.23742,0.01731
4929.16589,0.00497
4931.09436,0.01135
4933.02283,0.02581
4934.95130,0.02632
4936.87977,0.01779
4938.80824,0.01196
4940.73670,0.00469
4942.66517,0.00263
4944.59364,0.01395
4946.52211,0.02912
4948.45058,0.03203
4950.37905,0.01809
4952.30752,0.00493
4954.23599,0.01330
4956.16445,0.03560
4958.09292,0.04406
4960.02139,0.02503
4961.94986,-0.00404
4963.87833,-0.01902
4965.80680,-0.01153
4967.73527,0.01281
4969.66373,0.03182
4971.59220,0.02660
4973.52067,0.01067
4975.44914,0.00418
4977.37761,0.00902
4979.30608,0.02773
4981.23455,0.04824
4983.16302,0.04972
4985.09148,0.03821
4987.01995,0.02485
4988.94842,0.01349
4990.87689,0.01194
4992.80536,0.02242
4994.73383,0.03313
4996.66230,0.02149
4998.59076,-0.01066
5000.51923,-0.02299
5002.44770,0.00322
5004.37617,0.03761
5006.30464,0.04474
5008.23311,0.02445
5010.16158,0.00017
5012.09005,-0.00597
5014.01851,0.01197
5015.94698,0.03321
5017.87545,0.03515
5019.80392,0.01972
5021.73239,0.00263
5023.66086,0.00316
5025.58933,0.02124
5027.51779,0.03455
5029.44626,0.03062
5031.37473,0.01256
5033.30320,-0.00601
5035.23167,-0.00795
5037.16014,0.00445
5039.08861,0.01355
5041.01708,0.01209
5042.94554,0.00460
5044.87401,-0.00351
5046.80248,-0.00640
5048.73095,0.00267
5050.65942,0.02290
5052.58789,0.03542
5054.51636,0.02759
5056.44482,0.01452
5058.37329,0.01276
5060.30176,0.02487
5062.23023,0.04785
5064.15870,0.06659
5066.08717,0.05856
5068.01564,0.02690
5069.94410,0.00083
5071.87257,-0.00028
5073.80104,0.01985
5075.72951,0.04404
5077.65798,0.05021
5079.58645,0.02911
5081.51492,0.00420
5083.44339,0.00083
5085.37185,0.01221
5087.30032,0.02083
5089.22879,0.02373
5091.15726,0.02327
5093.08573,0.02313
5095.01420,0.03715
5096.94267,0.05925
5098.87113,0.06085
5100.79960,0.04150
5102.72807,0.02409
5104.65654,0.01287
5106.58501,0.00816
5108.51348,0.01620
5110.44195,0.02952
5112.37042,0.04383
5114.29888,0.05251
5116.22735,0.03578
5118.15582,0.00430
5120.08429,0.00164
5122.01276,0.03359
5123.94123,0.05808
5125.86970,0.05257
5127.79816,0.02390
5129.72663,-0.00021
5131.65510,0.01344
5133.58357,0.05104
5135.51204,0.06631
5137.44051,0.04371
5139.36898,0.00845
5141.29745,-0.00442
5143.22591,0.01033
5145.15438,0.02791
5147.08285,0.03777
5149.01132,0.03491
5150.93979,0.01157
5152.86826,-0.00487
5154.79673,0.01217
5156.72519,0.04171
5158.65366,0.05452
5160.58213,0.04705
5162.51060,0.01844
5164.43907,-0.00984
5166.36754,0.00416
5168.29601,0.05267
5170.22448,0.07695
5172.15294,0.04459
5174.08141,0.00205
5176.00988,0.00294
5177.93835,0.03637
5179.86682,0.06244
5181.79529,0.06775
5183.72376,0.05642
5185.65222,0.03663
5187.58069,0.02544
5189.50916,0.02878
5191.43763,0.04919
5193.36610,0.07622
5195.29457,0.07601
5197.22304,0.04006
5199.15151,0.00273
5201.07997,-0.00163
5203.00844,0.02663
5204.93691,0.06177
5206.86538,0.07417
5208.79385,0.05883
5210.72232,0.03687
5212.65079,0.03009
5214.57925,0.04385
5216.50772,0.05755
5218.43619,0.05448
5220.36466,0.03851
5222.29313,0.02669
5224.22160,0.03936
5226.15007,0.06870
5228.07854,0.07961
5230.00700,0.06710
5231.93547,0.04467
5233.86394,0.02330
5235.79241,0.02067
5237.72088,0.04057
5239.64935,0.06464
5241.57782,0.07337
5243.50628,0.05558
5245.43475,0.01916
5247.36322,-0.00236
5249.29169,0.01651
5251.22016,0.04571
5253.14863,0.04819
5255.07710,0.03756
5257.00556,0.02791
5258.93403,0.02550
5260.86250,0.04235
5262.79097,0.06762
5264.71944,0.07894
5266.64791,0.05969
5268.57638,0.03141
5270.50485,0.03907
5272.43331,0.07112
5274.36178,0.08555
5276.29025,0.07329
5278.21872,0.04700
5280.14719,0.03023
5282.07566,0.03779
5284.00413,0.06010
5285.93259,0.08321
5287.86106,0.10072
5289.78953,0.10203
5291.71800,0.07542
5293.64647,0.04634
5295.57494,0.05403
5297.50341,0.08318
5299.43188,0.08797
5301.36034,0.06407
5303.28881,0.04380
5305.21728,0.05193
5307.14575,0.07809
5309.07422,0.10083
5311.00269,0.10582
5312.93116,0.07917
5314.85962,0.04278
5316.78809,0.03776
5318.71656,0.06625
5320.64503,0.10139
5322.57350,0.11395
5324.50197,0.08625
5326.43044,0.03781
5328.35891,0.01259
5330.28737,0.01951
5332.21584,0.03936
5334.14431,0.05751
5336.07278,0.05788
5338.00125,0.02887
5339.92972,-0.00305
5341.85819,0.00375
5343.78665,0.04409
5345.71512,0.08769
5347.64359,0.10064
5349.57206,0.07095
5351.50053,0.03336
5353.42900,0.03496
5355.35747,0.06037
5357.28594,0.06686
5359.21440,0.05992
5361.14287,0.05738
5363.07134,0.05776
5364.99981,0.06298
5366.92828,0.07624
5368.85675,0.08368
5370.78522,0.07432
5372.71368,0.05600
5374.64215,0.05098
5376.57062,0.07284
5378.49909,0.09606
5380.42756,0.10332
5382.35603,0.10042
5384.28450,0.07235
5386.21297,0.03109
5388.14143,0.02798
5390.06990,0.05085
5391.99837,0.07263
5393.92684,0.08500
5395.85531,0.06737
5397.78378,0.03266
5399.71225,0.01917
5401.64071,0.03450
5403.56918,0.07004
5405.49765,0.10665
5407.42612,0.10510
5409.35459,0.06939
5411.28306,0.05644
5413.21153,0.08427
5415.13999,0.10793
5417.06846,0.10146
5418.99693,0.07908
5420.92540,0.05349
5422.85387,0.03420
5424.78234,0.03681
5426.71081,0.05679
5428.63928,0.06181
5430.56774,0.04679
5432.49621,0.03344
5434.42468,0.01443
5436.35315,0.01709
5438.28162,0.05653
5440.21009,0.07292
5442.13856,0.05018
5444.06702,0.02790
5445.99549,0.02203
5447.92396,0.03923
5449.85243,0.06461
5451.78090,0.07624
5453.70937,0.08387
5455.63784,0.08173
5457.56631,0.04608
5459.49477,0.02183
5461.42324,0.04939
5463.35171,0.08154
5465.28018,0.07742
5467.20865,0.04678
5469.13712,0.01437
5471.06559,-0.00181
5472.99405,0.00166
5474.92252,0.02833
5476.85099,0.06177
5478.77946,0.06529
5480.70793,0.05654
5482.63640,0.07314
5484.56487,0.09764
5486.49334,0.10912
5488.42180,0.10820
5490.35027,0.08321
5492.27874,0.04720
5494.20721,0.04113
5496.13568,0.07061
5498.06415,0.10438
5499.99262,0.10502
5501.92108,0.06764
5503.84955,0.04184
5505.77802,0.05791
5507.70649,0.08819
5509.63496,0.10294
5511.56343,0.09947
5513.49190,0.08315
5515.42037,0.06789
5517.34883,0.06032
5519.27730,0.05802
5521.20577,0.07221
5523.13424,0.09133
5525.06271,0.07813
5526.99118,0.05455
5528.91965,0.05626
5530.84811,0.06971
5532.77658,0.08629
5534.70505,0.09896
5536.63352,0.08468
5538.56199,0.04030
5540.49046,-0.00017
5542.41893,0.00162
5544.34740,0.04258
5546.27586,0.09037
5548.20433,0.09927
5550.13280,0.06115
5552.06127,0.03148
5553.98974,0.04016
5555.91821,0.07247
5557.84668,0.10907
5559.77514,0.11867
5561.70361,0.08895
5563.63208,0.05346
5565.56055,0.04496
5567.48902,0.06884
5569.41749,0.10664
5571.34596,0.11631
5573.27443,0.08901
5575.20289,0.06903
5577.13136,0.07588
5579.05983,0.09753
5580.98830,0.12384
5582.91677,0.12479
5584.84524,0.08826
5586.77371,0.05176
5588.70217,0.05243
5590.63064,0.07770
5592.55911,0.08146
5594.48758,0.05993
5596.41605,0.05518
5598.34452,0.08289
5600.27299,0.12224
5602.20145,0.14574
5604.12992,0.14694
5606.05839,0.13910
5607.98686,0.10731
5609.91533,0.04576
5611.84380,0.01537
5613.77227,0.05660
5615.70074,0.10635
5617.62920,0.11315
5619.55767,0.10904
5621.48614,0.12121
5623.41461,0.14887
5625.34308,0.18013
5627.27155,0.18117
5629.20002,0.14490
5631.12848,0.09324
5633.05695,0.04352
5634.98542,0.01934
5636.91389,0.03219
5638.84236,0.06419
5640.77083,0.09084
5642.69930,0.08947
5644.62777,0.05727
5646.55623,0.03988
5648.48470,0.07261
5650.41317,0.11491
5652.34164,0.11843
5654.27011,0.08851
5656.19858,0.05487
5658.12705,0.03195
5660.05551,0.02270
5661.98398,0.03771
5663.91245,0.06793
5665.84092,0.07967
5667.76939,0.06007
5669.69786,0.02978
5671.62633,0.03701
5673.55480,0.09669
5675.48326,0.13818
5677.41173,0.10389
5679.34020,0.05504
5681.26867,0.05623
5683.19714,0.08075
5685.12561,0.10514
5687.05408,0.13460
5688.98254,0.12760
5690.91101,0.05917
5692.83948,0.01193
5694.76795,0.05273
5696.69642,0.12655
5698.62489,0.14672
5700.55336,0.11774
5702.48183,0.08000
5704.41029,0.04156
5706.33876,0.03915
5708.26723,0.08737
5710.19570,0.13512
5712.12417,0.13303
5714.05264,0.06648
5715.98111,0.00194
5717.90957,0.00784
5719.83804,0.06222
5721.76651,0.11322
5723.69498,0.12012
5725.62345,0.08281
5727.55192,0.04884
5729.48039,0.05968
5731.40886,0.09208
5733.33732,0.08838
5735.26579,0.05410
5737.19426,0.04649
5739.12273,0.06018
5741.05120,0.06283
5742.97967,0.07229
5744.90814,0.09753
5746.83660,0.11262
5748.76507,0.11091
5750.69354,0.10331
5752.62201,0.09651
5754.55048,0.10537
5756.47895,0.11951
5758.40742,0.09767
5760.33588,0.04502
5762.26435,0.03214
5764.19282,0.06876
5766.12129,0.09293
5768.04976,0.10606
5769.97823,0.11371
5771.90670,0.08178
5773.83517,0.03706
5775.76363,0.02756
5777.69210,0.04267
5779.62057,0.07727
5781.54904,0.12846
5783.47751,0.14482
5785.40598,0.11036
5787.33445,0.07659
5789.26291,0.08361
5791.19138,0.11473
5793.11985,0.12473
5795.04832,0.08817
5796.97679,0.02961
5798.90526,0.02051
5800.83373,0.07216
5802.76220,0.11674
5804.69066,0.11199
5806.61913,0.06576
5808.54760,0.01623
5810.47607,-0.00631
5812.40454,-0.00061
5814.33301,0.03194
5816.26148,0.06911
5818.18994,0.08261
5820.11841,0.08277
5822.04688,0.08812
5823.97535,0.09623
5825.90382,0.09196
5827.83229,0.06590
5829.76076,0.04702
5831.68923,0.06862
5833.61769,0.10255
5835.54616,0.13348
5837.47463,0.19191
5839.40310,0.24129
5841.33157,0.20775
5843.26004,0.11413
5845.18851,0.05296
5847.11697,0.06864
5849.04544,0.13111
5850.97391,0.17044
5852.90238,0.16420
5854.83085,0.13798
5856.75932,0.11115
5858.68779,0.11470
5860.61626,0.15955
5862.54472,0.19315
5864.47319,0.15258
5866.40166,0.04840
5868.33013,-0.03224
5870.25860,-0.02405
5872.18707,0.04617
5874.11554,0.11611
5876.04400,0.14505
5877.97247,0.11018
5879.90094,0.05151
5881.82941,0.05823
5883.75788,0.12883
5885.68635,0.17026
5887.61482,0.13700
5889.54329,0.08085
5891.47175,0.07191
5893.40022,0.11192
5895.32869,0.15364
5897.25716,0.16992
5899.18563,0.15200
5901.11410,0.09493
5903.04257,0.03037
5904.97103,0.00273
5906.89950,0.02207
5908.82797,0.07819
5910.75644,0.10629
5912.68491,0.06875
5914.61338,0.04597
5916.54185,0.06331
5918.47032,0.08425
5920.39878,0.12544
5922.32725,0.14995
5924.25572,0.10406
5926.18419,0.03463
5928.11266,0.01788
5930.04113,0.06256
5931.96960,0.11855
5933.89806,0.11948
5935.82653,0.05935
5937.75500,0.01507
5939.68347,0.02084
5941.61194,0.06800
5943.54041,0.14754
5945.46888,0.19999
5947.39734,0.16494
5949.32581,0.07874
5951.25428,0.03740
5953.18275,0.06284
5955.11122,0.10674
5957.03969,0.12937
5958.96816,0.09128
5960.89663,0.00807
5962.82509,-0.02916
5964.75356,-0.00030
5966.68203,0.06026
5968.61050,0.09836
5970.53897,0.05972
5972.46744,-0.01062
5974.39591,-0.03709
5976.32437,-0.00906
5978.25284,0.04651
5980.18131,0.10054
5982.10978,0.13981
5984.03825,0.14064
5985.96672,0.10590
5987.89519,0.10852
5989.82366,0.16217
5991.75212,0.17421
5993.68059,0.11914
5995.60906,0.08031
5997.53753,0.07885
5999.46600,0.08510
6001.39447,0.11240
6003.32294,0.13558
6005.25140,0.12987
6007.17987,0.11065
6009.10834,0.08005
6011.03681,0.06932
6012.96528,0.11023
6014.89375,0.17117
6016.82222,0.18011
6018.75069,0.10563
6020.67915,0.02431
6022.60762,0.02462
6024.53609,0.08146
6026.46456,0.10615
6028.39303,0.08970
6030.32150,0.10361
6032.24997,0.15604
6034.17843,0.17993
6036.10690,0.15589
6038.03537,0.12944
6039.96384,0.11778
6041.89231,0.09174
6043.82078,0.04492
6045.74925,0.03573
6047.67772,0.10311
6049.60618,0.18669
6051.53465,0.17793
6053.46312,0.08820
6055.39159,0.03602
6057.32006,0.06559
6059.24853,0.11824
6061.17700,0.14761
6063.10546,0.13172
6065.03393,0.08487
6066.96240,0.02813
6068.89087,-0.00999
6070.81934,0.02658
6072.74781,0.10907
6074.67628,0.14431
6076.60475,0.11141
6078.53321,0.05494
6080.46168,0.04052
6082.39015,0.09691
6084.31862,0.15767
6086.24709,0.16462
6088.17556,0.13581
6090.10403,0.07596
6092.03249,0.02080
6093.96096,0.04974
6095.88943,0.12437
6097.81790,0.14165
6099.74637,0.07110
6101.67484,-0.02545
6103.60331,-0.05329
6105.53177,-0.00831
6107.46024,0.04869
6109.38871,0.08066
6111.31718,0.06494
6113.24565,0.02684
6115.17412,0.03141
6117.10259,0.06236
6119.03106,0.08304
6120.95952,0.11645
6122.88799,0.15073
6124.81646,0.13396
6126.74493,0.05427
6128.67340,0.00655
6130.60187,0.06915
6132.53034,0.14009
6134.45880,0.12170
6136.38727,0.06149
6138.31574,0.01090
6140.24421,-0.03674
6142.17268,-0.04495
6144.10115,0.00504
6146.02962,0.06296
6147.95809,0.11719
6149.88655,0.15989
6151.81502,0.17778
6153.74349,0.20281
6155.67196,0.20661
6157.60043,0.14176
6159.52890,0.06782
6161.45737,0.02869
6163.38583,0.00767
6165.31430,0.01854
6167.24277,0.05216
6169.17124,0.06753
6171.09971,0.05420
6173.02818,0.05166
6174.95665,0.08122
6176.88512,0.11933
6178.81358,0.14029
6180.74205,0.12352
6182.67052,0.06923
6184.59899,0.01376
6186.52746,0.01257
6188.45593,0.08400
6190.38440,0.15209
6192.31286,0.13451
6194.24133,0.06099
6196.16980,0.03946
6198.09827,0.09453
6200.02674,0.14198
6201.95521,0.14447
6203.88368,0.13349
6205.81215,0.11824
6207.74061,0.09967
6209.66908,0.07373
6211.59755,0.03728
6213.52602,0.02544
6215.45449,0.02595
6217.38296,0.01164
6219.31143,-0.00572
6221.23989,-0.00516
6223.16836,0.03663
6225.09683,0.09534
6227.02530,0.11015
6228.95377,0.07120
6230.88224,0.03684
6232.81071,0.07433
6234.73918,0.15314
6236.66764,0.20002
6238.59611,0.18788
6240.52458,0.10514
6242.45305,0.00066
6244.38152,-0.04444
6246.30999,-0.00361
6248.23846,0.12029
6250.16692,0.22492
6252.09539,0.17323
6254.02386,0.04259
6255.95233,-0.00264
6257.88080,0.06969
6259.80927,0.15408
6261.73774,0.18026
6263.66621,0.16637
6265.59467,0.11849
6267.52314,0.06648
6269.45161,0.06902
6271.38008,0.12603
6273.30855,0.19150
6275.23702,0.17398
6277.16549,0.06658
6279.09395,-0.00201
6281.02242,0.03106
6282.95089,0.09666
6284.87936,0.12320
6286.80783,0.12661
6288.73630,0.09286
6290.66477,-0.00933
6292.59323,-0.07471
6294.52170,-0.00507
6296.45017,0.08817
6298.37864,0.08330
6300.30711,0.02290
6302.23558,-0.02912
6304.16405,-0.01596
6306.09252,0.08819
6308.02098,0.20702
6309.94945,0.25851
6311.87792,0.19064
6313.80639,0.01836
6315.73486,-0.09452
6317.66333,-0.00793
6319.59180,0.18260
6321.52026,0.24981
6323.44873,0.12896
6325.37720,-0.01576
6327.30567,-0.05086
6329.23414,0.02484
6331.16261,0.12715
6333.09108,0.15577
6335.01955,0.09444
6336.94801,0.01924
6338.87648,0.00991
6340.80495,0.06500
6342.73342,0.11256
6344.66189,0.11679
6346.59036,0.09825
6348.51883,0.09258
6350.44729,0.10886
6352.37576,0.15868
6354.30423,0.23733
6356.23270,0.28151
6358.16117,0.24209
6360.08964,0.15071
6362.01811,0.08720
6363.94658,0.06603
6365.87504,0.05873
6367.80351,0.06437
6369.73198,0.06023
6371.66045,0.05277
6373.58892,0.04406
6375.51739,0.03244
6377.44586,0.09115
6379.37432,0.18141
6381.30279,0.18909
6383.23126,0.11531
6385.15973,0.05650
6387.08820,0.05485
6389.01667,0.09279
6390.94514,0.15462
6392.87361,0.17519
6394.80207,0.10753
6396.73054,0.03700
6398.65901,0.04075
6400.58748,0.10563
6402.51595,0.14114
6404.44442,0.09957
6406.37289,0.05085
6408.30135,0.06880
6410.22982,0.13406
6412.15829,0.22186
6414.08676,0.27324
6416.01523,0.24090
6417.94370,0.21034
6419.87217,0.22657
6421.80064,0.21845
6423.72910,0.16334
6425.65757,0.10710
6427.58604,0.07624
6429.51451,0.02948
6431.44298,-0.01082
6433.37145,-0.01460
6435.29992,0.01966
6437.22838,0.11340
6439.15685,0.15407
6441.08532,0.08160
6443.01379,0.01220
6444.94226,0.03138
6446.87073,0.13036
6448.79920,0.23473
6450.72766,0.22262
6452.65613,0.09889
6454.58460,-0.01379
6456.51307,-0.04566
6458.44154,0.01943
6460.37001,0.13973
6462.29848,0.19932
6464.22695,0.09740
6466.15541,-0.04741
6468.08388,-0.06717
6470.01235,0.00501
6471.94082,0.09278
6473.86929,0.16232
6475.79776,0.15791
6477.72623,0.08033
6479.65469,0.03345
6481.58316,0.07828
6483.51163,0.17755
6485.44010,0.26693
6487.36857,0.27687
6489.29704,0.21229
6491.22551,0.16480
6493.15398,0.17264
6495.08244,0.20878
6497.01091,0.22451
6498.93938,0.19752
6500.86785,0.12656
6502.79632,0.03686
6504.72479,0.02710
6506.65326,0.10956
6508.58172,0.18050
6510.51019,0.15381
6512.43866,0.03482
6514.36713,-0.03860
6516.29560,0.01458
6518.22407,0.08457
6520.15254,0.10944
6522.08101,0.13483
6524.00947,0.11442
6525.93794,0.03590
6527.86641,0.01411
6529.79488,0.05781
6531.72335,0.08348
6533.65182,0.04072
6535.58029,-0.03276
6537.50875,-0.03987
6539.43722,0.06336
6541.36569,0.20881
6543.29416,0.25546
6545.22263,0.13522
6547.15110,-0.00976
6549.07957,-0.03502
6551.00804,0.04319
6552.93650,0.12242
6554.86497,0.16779
6556.79344,0.16239
6558.72191,0.09477
6560.65038,0.01323
6562.57885,-0.00505
6564.50732,0.05524
6566.43578,0.12106
6568.36425,0.15084
6570.29272,0.16330
6572.22119,0.14734
6574.14966,0.13683
6576.07813,0.16192
6578.00660,0.16256
6579.93507,0.10067
6581.86353,0.00967
6583.79200,-0.04723
6585.72047,-0.02096
6587.64894,0.06937
6589.57741,0.14805
6591.50588,0.14935
6593.43435,0.06536
6595.36281,-0.02750
6597.29128,-0.03308
6599.21975,0.05224
6601.14822,0.16864
6603.07669,0.21825
6605.00516,0.14826
6606.93363,0.01603
6608.86210,-0.02302
6610.79056,0.06916
6612.71903,0.13666
6614.64750,0.09343
6616.57597,0.02333
6618.50444,0.01444
6620.43291,0.03763
6622.36138,0.03768
6624.28984,0.07824
6626.21831,0.19262
6628.14678,0.23004
6630.07525,0.12207
6632.00372,-0.00868
6633.93219,-0.10259
6635.86066,-0.11778
6637.78912,-0.05667
6639.71759,0.00291
6641.64606,0.03658
6643.57453,0.06245
6645.50300,0.12929
6647.43147,0.21981
6649.35994,0.21284
6651.28841,0.08267
6653.21687,-0.04054
6655.14534,-0.05513
6657.07381,0.04473
6659.00228,0.20126
6660.93075,0.27441
6662.85922,0.20161
6664.78769,0.09533
6666.71615,0.05388
6668.64462,0.09163
6670.57309,0.19795
6672.50156,0.22771
6674.43003,0.06199
6676.35850,-0.09935
6678.28697,-0.08038
6680.21544,0.07838
6682.14390,0.23581
6684.07237,0.25583
6686.00084,0.13182
6687.92931,-0.01921
6689.85778,-0.10470
6691.78625,-0.09466
6693.71472,0.00926
6695.64318,0.12468
6697.57165,0.10717
6699.50012,-0.01600
6701.42859,-0.07660
6703.35706,-0.04523
6705.28553,-0.00492
6707.21400,0.01205
6709.14247,0.01395
6711.07093,0.01109
6712.99940,0.05590
6714.92787,0.17382
6716.85634,0.25643
6718.78481,0.21497
6720.71328,0.13028
6722.64175,0.08788
6724.57021,0.07220
6726.49868,0.10439
6728.42715,0.15671
6730.35562,0.11204
6732.28409,0.00853
6734.21256,-0.00297
6736.14103,0.04121
6738.06950,0.04032
6739.99796,0.05102
6741.92643,0.10197
6743.85490,0.05996
6745.78337,-0.09363
6747.71184,-0.19226
6749.64031,-0.14766
6751.56878,-0.06701
6753.49724,-0.03908
6755.42571,-0.07333
6757.35418,-0.06874
6759.28265,0.05678
6761.21112,0.17222
6763.13959,0.16644
6765.06806,0.13136
6766.99653,0.11464
6768.92499,0.08751
6770.85346,0.05541
6772.78193,0.04885
6774.71040,0.10089
6776.63887,0.20528
6778.56734,0.25013
6780.49581,0.18751
6782.42427,0.09292
6784.35274,0.07594
6786.28121,0.15294
6788.20968,0.22026
6790.13815,0.18196
6792.06662,0.06494
6793.99509,-0.00574
6795.92355,0.02318
6797.85202,0.10116
6799.78049,0.17181
6801.70896,0.20399
6803.63743,0.16461
6805.56590,0.13770
6807.49437,0.17319
6809.42284,0.16568
6811.35130,0.10389
6813.27977,0.04599
6815.20824,-0.01690
6817.13671,-0.03097
6819.06518,0.02317
6820.99365,0.08748
6822.92212,0.16057
6824.85058,0.20518
6826.77905,0.14524
6828.70752,-0.00760
6830.63599,-0.12485
6832.56446,-0.11771
6834.49293,0.01781
6836.42140,0.18770
6838.34987,0.17439
6840.27833,0.04983
6842.20680,-0.00061
6844.13527,0.01421
6846.06374,0.06876
6847.99221,0.17827
6849.92068,0.21613
6851.84915,0.06206
6853.77761,-0.14462
6855.70608,-0.18141
6857.63455,-0.02467
6859.56302,0.11447
6861.49149,0.14727
6863.41996,0.09059
6865.34843,-0.06700
6867.27690,-0.26750
6869.20536,-0.31071
6871.13383,-0.14275
6873.06230,0.05095
6874.99077,0.07031
6876.91924,-0.01476
6878.84771,-0.07823
6880.77618,-0.05493
6882.70464,0.00257
6884.63311,-0.01537
6886.56158,-0.08401
6888.49005,-0.07665
6890.41852,0.03280
6892.34699,0.17127
6894.27546,0.29640
6896.20393,0.38432
6898.13239,0.38634
6900.06086,0.27959
6901.98933,0.13378
6903.91780,0.06467
6905.84627,0.07174
6907.77474,0.05795
6909.70321,0.04918
6911.63167,0.07148
6913.56014,0.06684
6915.48861,0.06222
6917.41708,0.15172
6919.34555,0.29735
6921.27402,0.31431
6923.20249,0.16126
6925.13096,-0.06946
6927.05942,-0.24813
6928.98789,-0.20893
6930.91636,0.04718
6932.84483,0.24595
6934.77330,0.22944
6936.70177,0.12376
6938.63024,0.05510
6940.55870,0.07897
6942.48717,0.14382
6944.41564,0.15718
6946.34411,0.06633
6948.27258,-0.04550
6950.20105,-0.08073
6952.12952,-0.07396
6954.05799,-0.04169
6955.98645,-0.00840
6957.91492,0.00445
6959.84339,-0.02114
6961.77186,-0.10164
6963.70033,-0.11898
6965.62880,-0.01677
6967.55727,0.10350
6969.48573,0.08821
6971.41420,-0.04386
6973.34267,-0.06348
6975.27114,0.10415
6977.19961,0.20599
6979.12808,0.13005
6981.05655,0.04311
6982.98501,0.02082
6984.91348,0.02512
6986.84195,0.06661
6988.77042,0.13513
6990.69889,0.17355
6992.62736,0.13355
6994.55583,0.08051
6996.48430,0.11395
6998.41276,0.20236
7000.34123,0.24253
7002.26970,0.18648
7004.19817,0.06312
7006.12664,-0.01833
7008.05511,-0.00719
7009.98358,0.02047
7011.91204,0.06151
7013.84051,0.08437
7015.76898,0.03373
7017.69745,-0.04172
7019.62592,-0.08064
7021.55439,-0.02237
7023.48286,0.08638
7025.41133,0.16493
7027.33979,0.16363
7029.26826,0.00979
7031.19673,-0.15055
7033.12520,-0.14912
7035.05367,-0.04138
7036.98214,0.04590
7038.91061,0.12196
7040.83907,0.14101
7042.76754,0.01090
7044.69601,-0.06560
7046.62448,0.04360
7048.55295,0.16006
7050.48142,0.18840
7052.40989,0.13907
7054.33836,0.06320
7056.26682,0.04578
7058.19529,0.08737
7060.12376,0.14817
7062.05223,0.18280
7063.98070,0.08482
7065.90917,-0.13085
7067.83764,-0.27845
7069.76610,-0.15837
7071.69457,0.19127
7073.62304,0.33762
7075.55151,0.16241
7077.47998,-0.07028
7079.40845,-0.15591
7081.33692,-0.00114
7083.26539,0.19379
7085.19385,0.19406
7087.12232,0.03426
7089.05079,-0.06532
7090.97926,-0.00002
7092.90773,0.02984
7094.83620,-0.00370
7096.76467,-0.01871
7098.69313,-0.10138
7100.62160,-0.21499
7102.55007,-0.22944
7104.47854,-0.07848
7106.40701,0.13563
7108.33548,0.18142
7110.26395,0.12092
7112.19242,0.04904
7114.12088,-0.07202
7116.04935,-0.17097
7117.97782,-0.04879
7119.90629,0.18084
7121.83476,0.18203
7123.76323,0.02728
7125.69170,-0.06877
7127.62016,-0.07142
7129.54863,0.00678
7131.47710,0.13791
7133.40557,0.16894
7135.33404,0.02881
7137.26251,-0.08997
7139.19098,-0.01794
7141.11944,0.17639
7143.04791,0.32687
7144.97638,0.32057
7146.90485,0.14221
7148.83332,-0.00591
7150.76179,0.03940
7152.69026,0.17886
7154.61873,0.16069
7156.54719,-0.01581
7158.47566,-0.17494
7160.40413,-0.23563
7162.33260,-0.19111
7164.26107,-0.07668
7166.18954,0.00095
7168.11801,-0.10481
7170.04647,-0.27457
7171.97494,-0.25555
7173.90341,-0.07065
7175.83188,0.16953
7177.76035,0.30686
7179.68882,0.19120
7181.61729,-0.09512
7183.54576,-0.22775
7185.47422,-0.02825
7187.40269,0.24862
7189.33116,0.36557
7191.25963,0.15006
7193.18810,-0.21011
7195.11657,-0.32782
7197.04504,-0.16596
7198.97350,0.07481
7200.90197,0.23352
7202.83044,0.29425
7204.75891,0.18681
7206.68738,0.03788
7208.61585,0.03965
7210.54432,0.09655
7212.47279,0.19818
7214.40125,0.29298
7216.32972,0.21053
7218.25819,-0.01598
7220.18666,-0.05949
7222.11513,0.08557
7224.04360,0.26287
7225.97207,0.33787
7227.90053,0.21562
7229.82900,0.05972
7231.75747,0.10684
7233.68594,0.26843
7235.61441,0.41299
7237.54288,0.48601
7239.47135,0.31840
7241.39982,-0.03525
7243.32828,-0.19445
7245.25675,-0.03997
7247.18522,0.10498
7249.11369,0.12763
7251.04216,0.01560
7252.97063,-0.12656
7254.89910,-0.03864
7256.82756,0.17318
7258.75603,0.28510
7260.68450,0.18062
7262.61297,-0.02484
7264.54144,-0.15842
7266.46991,-0.20107
7268.39838,-0.09834
7270.32685,0.15155
7272.25531,0.25516
7274.18378,0.03602
7276.11225,-0.12086
7278.04072,-0.08722
7279.96919,0.06049
7281.89766,0.16191
7283.82613,0.07893
7285.75459,-0.10952
7287.68306,-0.16206
7289.61153,0.01782
7291.54000,0.21028
7293.46847,0.25933
7295.39694,0.28854
7297.32541,0.28279
7299.25387,0.21092
7301.18234,0.15701
7303.11081,0.15380
7305.03928,0.22245
7306.96775,0.26072
7308.89622,0.06853
7310.82469,-0.12434
7312.75316,-0.05626
7314.68162,0.21227
7316.61009,0.51652
7318.53856,0.53640
7320.46703,0.31954
7322.39550,0.06957
7324.32397,-0.12446
7326.25244,-0.23186
7328.18090,-0.18063
7330.10937,0.01142
7332.03784,0.06001
7333.96631,-0.03901
7335.89478,-0.17646
7337.82325,-0.30659
7339.75172,-0.23074
7341.68019,0.06003
7343.60865,0.19436
7345.53712,0.18628
7347.46559,0.12233
7349.39406,0.04015
7351.32253,0.01070
7353.25100,0.05038
7355.17947,-0.00194
7357.10793,-0.23570
7359.03640,-0.43341
7360.96487,-0.31083
7362.89334,0.02648
7364.82181,0.27759
7366.75028,0.34721
7368.67875,0.30693
7370.60722,0.21254
7372.53568,0.16124
7374.46415,0.20612
7376.39262,0.17939
7378.32109,0.06017
7380.24956,0.05838
7382.17803,0.06324
7384.10650,-0.08552
7386.03496,-0.11087
7387.96343,0.16846
7389.89190,0.36955
7391.82037,0.26583
7393.74884,0.08230
7395.67731,0.01653
7397.60578,0.03874
7399.53425,0.16945
7401.46271,0.28477
7403.39118,0.17295
7405.31965,-0.01867
7407.24812,-0.05793
7409.17659,-0.07294
7411.10506,-0.11137
7413.03353,-0.08422
7414.96199,-0.03498
7416.89046,-0.08827
7418.81893,-0.19992
7420.74740,-0.11534
7422.67587,0.09673
7424.60434,0.25587
7426.53281,0.30808
7428.46128,0.21329
7430.38974,-0.01288
7432.31821,-0.16846
7434.24668,-0.15494
7436.17515,-0.02085
7438.10362,0.07251
7440.03209,-0.00428
7441.96056,-0.17352
7443.88902,-0.24405
7445.81749,-0.09479
7447.74596,0.17305
7449.67443,0.36094
7451.60290,0.37336
7453.53137,0.20093
7455.45984,0.00918
7457.38831,0.00513
7459.31677,0.12150
7461.24524,0.08725
7463.17371,-0.09790
7465.10218,-0.28202
7467.03065,-0.32866
7468.95912,-0.19829
7470.88759,0.07076
7472.81605,0.26249
7474.74452,0.19228
7476.67299,0.03498
7478.60146,0.05195
7480.52993,0.20797
7482.45840,0.11141
7484.38687,-0.06592
7486.31533,0.05416
7488.24380,0.27495
7490.17227,0.29642
7492.10074,0.17082
7494.02921,0.03642
7495.95768,-0.00718
7497.88615,0.07181
