399.19301,0.24429
401.12148,0.67948
403.04995,0.43571
404.97842,0.00425
406.90689,-0.16019
408.83536,-0.01672
410.76382,0.23962
412.69229,0.34385
414.62076,0.25386
416.54923,0.08850
418.47770,0.04420
420.40617,0.20331
422.33464,0.29974
424.26311,0.27503
426.19157,0.20288
428.12004,0.11143
430.04851,0.01095
431.97698,0.01814
433.90545,0.10419
435.83392,0.13208
437.76239,0.09118
439.69085,0.01956
441.61932,-0.00150
443.54779,0.08121
445.47626,0.14929
447.40473,0.09851
449.33320,-0.00782
451.26167,-0.05917
453.19013,-0.03649
455.11860,0.02820
457.04707,0.09043
458.97554,0.06483
460.90401,-0.02670
462.83248,-0.07836
464.76095,-0.06565
466.68942,-0.02313
468.61788,0.03095
470.54635,0.11428
472.47482,0.19407
474.40329,0.16838
476.33176,0.13425
478.26023,0.15115
480.18870,0.16704
482.11716,0.16570
484.04563,0.14544
485.97410,0.13297
487.90257,0.14041
489.83104,0.14062
491.75951,0.12036
493.68798,0.10044
495.61645,0.10728
497.54491,0.11145
499.47338,0.08062
501.40185,0.04310
503.33032,0.02014
505.25879,0.01681
507.18726,0.03896
509.11573,0.07824
511.04419,0.09434
512.97266,0.06558
514.90113,0.04641
516.82960,0.07081
518.75807,0.09983
520.68654,0.11905
522.61501,0.13136
524.54348,0.11474
526.47194,0.08026
528.40041,0.06352
530.32888,0.05830
532.25735,0.07089
534.18582,0.09577
536.11429,0.08995
538.04276,0.08252
539.97122,0.11979
541.89969,0.13735
543.82816,0.09852
545.75663,0.07939
547.68510,0.10616
549.61357,0.13253
551.54204,0.12679
553.47051,0.09221
555.39897,0.05658
557.32744,0.04861
559.25591,0.05559
561.18438,0.05455
563.11285,0.06253
565.04132,0.08123
566.96979,0.08687
568.89825,0.08039
570.82672,0.07555
572.75519,0.08141
574.68366,0.10027
576.61213,0.11117
578.54060,0.09199
580.46907,0.05706
582.39754,0.04074
584.32600,0.06027
586.25447,0.09150
588.18294,0.10392
590.11141,0.10825
592.03988,0.10953
593.96835,0.09351
595.89682,0.07140
597.82528,0.05834
599.75375,0.06184
601.68222,0.08232
603.61069,0.09390
605.53916,0.08177
607.46763,0.06917
609.39610,0.07470
611.32456,0.09479
613.25303,0.10832
615.18150,0.10069
617.10997,0.07871
619.03844,0.05310
620.96691,0.04144
622.89538,0.05608
624.82385,0.08733
626.75231,0.11747
628.68078,0.12933
630.60925,0.12174
632.53772,0.11940
634.46619,0.12092
636.39466,0.10142
638.32313,0.08757
640.25159,0.10047
642.18006,0.10292
644.10853,0.08703
646.03700,0.08472
647.96547,0.09810
649.89394,0.10791
651.82241,0.10669
653.75088,0.10089
655.67934,0.10153
657.60781,0.10227
659.53628,0.10005
661.46475,0.10709
663.39322,0.11756
665.32169,0.12466
667.25016,0.12420
669.17862,0.10485
671.10709,0.09754
673.03556,0.10653
674.96403,0.11204
676.89250,0.11317
678.82097,0.11512
680.74944,0.11041
682.67791,0.09715
684.60637,0.08719
686.53484,0.09620
688.46331,0.11465
690.39178,0.11595
692.32025,0.10501
694.24872,0.10270
696.17719,0.10548
698.10565,0.09948
700.03412,0.09266
701.96259,0.09572
703.89106,0.10394
705.81953,0.11121
707.74800,0.11582
709.67647,0.11798
711.60494,0.11347
713.53340,0.10249
715.46187,0.09729
717.39034,0.10389
719.31881,0.11350
721.24728,0.11243
723.17575,0.10572
725.10422,0.10800
727.03268,0.11210
728.96115,0.10669
730.88962,0.09804
732.81809,0.09899
734.74656,0.10669
736.67503,0.10758
738.60350,0.10784
740.53197,0.11238
742.46043,0.10913
744.38890,0.10127
746.31737,0.09956
748.24584,0.09791
750.17431,0.09270
752.10278,0.09670
754.03125,0.10810
755.95971,0.11096
757.88818,0.10811
759.81665,0.10779
761.74512,0.10986
763.67359,0.11157
765.60206,0.11186
767.53053,0.11130
769.45900,0.10828
771.38746,0.11020
773.31593,0.12069
775.24440,0.12785
777.17287,0.12842
779.10134,0.12912
781.02981,0.12781
782.95828,0.11890
784.88674,0.11028
786.81521,0.11228
788.74368,0.12253
790.67215,0.13296
792.60062,0.13515
794.52909,0.12669
796.45756,0.11816
798.38602,0.11777
800.31449,0.12126
802.24296,0.12748
804.17143,0.13827
806.09990,0.14479
808.02837,0.13651
809.95684,0.11681
811.88531,0.10701
813.81377,0.11846
815.74224,0.13185
817.67071,0.13273
819.59918,0.13095
821.52765,0.13270
823.45612,0.12993
825.38459,0.12181
827.31305,0.11813
829.24152,0.11908
831.16999,0.11845
833.09846,0.11798
835.02693,0.12213
836.95540,0.12803
838.88387,0.13177
840.81234,0.13440
842.74080,0.13581
844.66927,0.13110
846.59774,0.11971
848.52621,0.11254
850.45468,0.11768
852.38315,0.12545
854.31162,0.12201
856.24008,0.11033
858.16855,0.10364
860.09702,0.11186
862.02549,0.13042
863.95396,0.13916
865.88243,0.13085
867.81090,0.11572
869.73937,0.10495
871.66783,0.10856
873.59630,0.12280
875.52477,0.13122
877.45324,0.12770
879.38171,0.12103
881.31018,0.11937
883.23865,0.12323
885.16711,0.12817
887.09558,0.12770
889.02405,0.12348
890.95252,0.12041
892.88099,0.11706
894.80946,0.11638
896.73793,0.11966
898.66640,0.12039
900.59486,0.12082
902.52333,0.12956
904.45180,0.14103
906.38027,0.14054
908.30874,0.13095
910.23721,0.12634
912.16568,0.13014
914.09414,0.13770
916.02261,0.14016
917.95108,0.13289
919.87955,0.12589
921.80802,0.12549
923.73649,0.12584
925.66496,0.12482
927.59343,0.12180
929.52189,0.11955
931.45036,0.12533
933.37883,0.13317
935.30730,0.13388
937.23577,0.13371
939.16424,0.13758
941.09271,0.13714
943.02117,0.13160
944.94964,0.12719
946.87811,0.12273
948.80658,0.12179
950.73505,0.12752
952.66352,0.13284
954.59199,0.13488
956.52045,0.13638
958.44892,0.13697
960.37739,0.13665
962.30586,0.13603
964.23433,0.13420
966.16280,0.13188
968.09127,0.12982
970.01974,0.12857
971.94820,0.13116
973.87667,0.13789
975.80514,0.14347
977.73361,0.14355
979.66208,0.13933
981.59055,0.13447
983.51902,0.13291
985.44748,0.13584
987.37595,0.14073
989.30442,0.14580
991.23289,0.14865
993.16136,0.14668
995.08983,0.14231
997.01830,0.14209
998.94677,0.14372
1000.87523,0.13944
1002.80370,0.13553
1004.73217,0.13775
1006.66064,0.14219
1008.58911,0.14605
1010.51758,0.14682
1012.44605,0.14482
1014.37451,0.13967
1016.30298,0.13137
1018.23145,0.12679
1020.15992,0.13043
1022.08839,0.13588
1024.01686,0.13808
1025.94533,0.14118
1027.87380,0.14308
1029.80226,0.14047
1031.73073,0.13906
1033.65920,0.14079
1035.58767,0.14205
1037.51614,0.14090
1039.44461,0.13525
1041.37308,0.12655
1043.30154,0.12583
1045.23001,0.13829
1047.15848,0.15036
1049.08695,0.15335
1051.01542,0.15366
1052.94389,0.14997
1054.87236,0.14287
1056.80083,0.14308
1058.72929,0.14895
1060.65776,0.15226
1062.58623,0.15428
1064.51470,0.15721
1066.44317,0.15806
1068.37164,0.15371
1070.30011,0.14612
1072.22857,0.14288
1074.15704,0.14584
1076.08551,0.14815
1078.01398,0.14670
1079.94245,0.14616
1081.87092,0.15157
1083.79939,0.16175
1085.72786,0.16832
1087.65632,0.16083
1089.58479,0.14584
1091.51326,0.14301
1093.44173,0.15371
1095.37020,0.16284
1097.29867,0.16566
1099.22714,0.16601
1101.15560,0.16489
1103.08407,0.16401
1105.01254,0.16033
1106.94101,0.15342
1108.86948,0.15117
1110.79795,0.15584
1112.72642,0.16161
1114.65489,0.15929
1116.58335,0.14965
1118.51182,0.14364
1120.44029,0.14477
1122.36876,0.14780
1124.29723,0.14865
1126.22570,0.14806
1128.15417,0.14675
1130.08263,0.14536
1132.01110,0.14735
1133.93957,0.15239
1135.86804,0.15613
1137.79651,0.15612
1139.72498,0.15221
1141.65345,0.14897
1143.58191,0.14926
1145.51038,0.14926
1147.43885,0.14873
1149.36732,0.15083
1151.29579,0.15347
1153.22426,0.15269
1155.15273,0.14974
1157.08120,0.14861
1159.00966,0.15012
1160.93813,0.15216
1162.86660,0.15410
1164.79507,0.15450
1166.72354,0.15236
1168.65201,0.15306
1170.58048,0.15635
1172.50894,0.15591
1174.43741,0.15354
1176.36588,0.15416
1178.29435,0.15787
1180.22282,0.16039
1182.15129,0.15719
1184.07976,0.15225
1186.00823,0.15249
1187.93669,0.15533
1189.86516,0.15478
1191.79363,0.15101
1193.72210,0.14712
1195.65057,0.14413
1197.57904,0.14403
1199.50751,0.14780
1201.43597,0.15140
1203.36444,0.15345
1205.29291,0.15507
1207.22138,0.15769
1209.14985,0.16201
1211.07832,0.16333
1213.00679,0.16109
1214.93526,0.15924
1216.86372,0.15557
1218.79219,0.15094
1220.72066,0.14974
1222.64913,0.15117
1224.57760,0.15483
1226.50607,0.15938
1228.43454,0.16032
1230.36300,0.15780
1232.29147,0.15397
1234.21994,0.14805
1236.14841,0.14437
1238.07688,0.14820
1240.00535,0.15292
1241.93382,0.15196
1243.86229,0.14755
1245.79075,0.14310
1247.71922,0.14387
1249.64769,0.15068
1251.57616,0.15311
1253.50463,0.14786
1255.43310,0.14551
1257.36157,0.14596
1259.29003,0.14085
1261.21850,0.13600
1263.14697,0.13828
1265.07544,0.14176
1267.00391,0.14200
1268.93238,0.14293
1270.86085,0.14790
1272.78932,0.15081
1274.71778,0.14636
1276.64625,0.14415
1278.57472,0.14955
1280.50319,0.15194
1282.43166,0.15006
1284.36013,0.15180
1286.28860,0.15278
1288.21706,0.15103
1290.14553,0.15172
1292.07400,0.14995
1294.00247,0.14436
1295.93094,0.14090
1297.85941,0.13625
1299.78788,0.12264
1301.71634,0.09849
1303.64481,0.07697
1305.57328,0.08483
1307.50175,0.12274
1309.43022,0.15335
1311.35869,0.16185
1313.28716,0.16372
1315.21563,0.16273
1317.14409,0.16066
1319.07256,0.16115
1321.00103,0.15843
1322.92950,0.15308
1324.85797,0.14765
1326.78644,0.14282
1328.71491,0.14253
1330.64337,0.14142
1332.57184,0.14128
1334.50031,0.14609
1336.42878,0.14626
1338.35725,0.14349
1340.28572,0.13778
1342.21419,0.13098
1344.14266,0.13113
1346.07112,0.13253
1347.99959,0.13811
1349.92806,0.14724
1351.85653,0.14920
1353.78500,0.14541
1355.71347,0.14273
1357.64194,0.14472
1359.57040,0.14802
1361.49887,0.15163
1363.42734,0.15693
1365.35581,0.15853
1367.28428,0.15683
1369.21275,0.15806
1371.14122,0.16333
1373.06969,0.16779
1374.99815,0.16896
1376.92662,0.16836
1378.85509,0.16786
1380.78356,0.16803
1382.71203,0.16944
1384.64050,0.17279
1386.56897,0.17724
1388.49743,0.18013
1390.42590,0.18107
1392.35437,0.18253
1394.28284,0.18397
1396.21131,0.18302
1398.13978,0.18130
1400.06825,0.18014
1401.99672,0.18009
1403.92518,0.18103
1405.85365,0.18016
1407.78212,0.17784
1409.71059,0.17618
1411.63906,0.17400
1413.56753,0.17310
1415.49600,0.17620
1417.42446,0.18255
1419.35293,0.18820
1421.28140,0.18629
1423.20987,0.17863
1425.13834,0.17308
1427.06681,0.17508
1428.99528,0.18093
1430.92375,0.18378
1432.85221,0.18340
1434.78068,0.18470
1436.70915,0.18563
1438.63762,0.18275
1440.56609,0.18147
1442.49456,0.17978
1444.42303,0.17537
1446.35149,0.17494
1448.27996,0.17891
1450.20843,0.17991
1452.13690,0.18065
1454.06537,0.18456
1455.99384,0.19109
1457.92231,0.19435
1459.85077,0.18973
1461.77924,0.18672
1463.70771,0.18616
1465.63618,0.18372
1467.56465,0.18187
1469.49312,0.18576
1471.42159,0.19418
1473.35006,0.20106
1475.27852,0.19957
1477.20699,0.19121
1479.13546,0.18382
1481.06393,0.18138
1482.99240,0.18161
1484.92087,0.18414
1486.84934,0.19035
1488.77780,0.19635
1490.70627,0.19384
1492.63474,0.18901
1494.56321,0.18986
1496.49168,0.19417
1498.42015,0.19379
1500.34862,0.18951
1502.27709,0.18992
1504.20555,0.19729
1506.13402,0.20682
1508.06249,0.20161
1509.99096,0.19227
1511.91943,0.18952
1513.84790,0.19167
1515.77637,0.19703
1517.70483,0.20294
1519.63330,0.21008
1521.56177,0.21482
1523.49024,0.20933
1525.41871,0.20292
1527.34718,0.19869
1529.27565,0.19578
1531.20412,0.19618
1533.13258,0.19815
1535.06105,0.19888
1536.98952,0.20385
1538.91799,0.21839
1540.84646,0.22593
1542.77493,0.21376
1544.70340,0.20421
1546.63186,0.19713
1548.56033,0.19287
1550.48880,0.19087
1552.41727,0.18888
1554.34574,0.19115
1556.27421,0.20263
1558.20268,0.21840
1560.13115,0.21348
1562.05961,0.20479
1563.98808,0.20329
1565.91655,0.20167
1567.84502,0.19900
1569.77349,0.19578
1571.70196,0.19236
1573.63043,0.19278
1575.55889,0.19597
1577.48736,0.19559
1579.41583,0.19199
1581.34430,0.18875
1583.27277,0.18672
1585.20124,0.18697
1587.12971,0.18811
1589.05818,0.18714
1590.98664,0.18624
1592.91511,0.18877
1594.84358,0.19103
1596.77205,0.19074
1598.70052,0.19105
1600.62899,0.19097
1602.55746,0.18929
1604.48592,0.18918
1606.41439,0.19150
1608.34286,0.19382
1610.27133,0.19269
1612.19980,0.18982
1614.12827,0.19197
1616.05674,0.20062
1617.98521,0.20381
1619.91367,0.20039
1621.84214,0.20111
1623.77061,0.20323
1625.69908,0.20108
1627.62755,0.19903
1629.55602,0.19843
1631.48449,0.19979
1633.41295,0.20535
1635.34142,0.21192
1637.26989,0.20838
1639.19836,0.20190
1641.12683,0.19924
1643.05530,0.20067
1644.98377,0.20896
1646.91223,0.22038
1648.84070,0.22128
1650.76917,0.22283
1652.69764,0.23213
1654.62611,0.22517
1656.55458,0.21019
1658.48305,0.20255
1660.41152,0.20262
1662.33998,0.20618
1664.26845,0.20274
1666.19692,0.19893
1668.12539,0.20479
1670.05386,0.21131
1671.98233,0.20787
1673.91080,0.20545
1675.83926,0.20609
1677.76773,0.20706
1679.69620,0.20944
1681.62467,0.21455
1683.55314,0.22203
1685.48161,0.21897
1687.41008,0.20828
1689.33855,0.20044
1691.26701,0.19650
1693.19548,0.19816
1695.12395,0.20535
1697.05242,0.21186
1698.98089,0.21231
1700.90936,0.20616
1702.83783,0.19951
1704.76629,0.19786
1706.69476,0.19757
1708.62323,0.19654
1710.55170,0.19620
1712.48017,0.19790
1714.40864,0.20482
1716.33711,0.21452
1718.26558,0.21046
1720.19404,0.19810
1722.12251,0.19119
1724.05098,0.18722
1725.97945,0.18548
1727.90792,0.18847
1729.83639,0.19319
1731.76486,0.19794
1733.69332,0.20304
1735.62179,0.20056
1737.55026,0.19693
1739.47873,0.19724
1741.40720,0.19760
1743.33567,0.19715
1745.26414,0.19785
1747.19261,0.20162
1749.12107,0.20646
1751.04954,0.20314
1752.97801,0.19496
1754.90648,0.19199
1756.83495,0.19439
1758.76342,0.19671
1760.69189,0.19526
1762.62035,0.19123
1764.54882,0.18867
1766.47729,0.19010
1768.40576,0.19512
1770.33423,0.20105
1772.26270,0.20317
1774.19117,0.19991
1776.11964,0.19715
1778.04810,0.19670
1779.97657,0.19598
1781.90504,0.19317
1783.83351,0.19055
1785.76198,0.18860
1787.69045,0.18871
1789.61892,0.19447
1791.54738,0.20341
1793.47585,0.20640
1795.40432,0.20344
1797.33279,0.20047
1799.26126,0.19815
1801.18973,0.19619
1803.11820,0.19416
1805.04666,0.19118
1806.97513,0.19012
1808.90360,0.19234
1810.83207,0.19280
1812.76054,0.19107
1814.68901,0.19129
1816.61748,0.19135
1818.54595,0.18922
1820.47441,0.18736
1822.40288,0.18884
1824.33135,0.19315
1826.25982,0.19683
1828.18829,0.19954
1830.11676,0.19976
1832.04523,0.19670
1833.97369,0.19452
1835.90216,0.19349
1837.83063,0.19148
1839.75910,0.18953
1841.68757,0.19130
1843.61604,0.19615
1845.54451,0.19753
1847.47298,0.19536
1849.40144,0.19419
1851.32991,0.19352
1853.25838,0.19197
1855.18685,0.19004
1857.11532,0.18864
1859.04379,0.18914
1860.97226,0.19123
1862.90072,0.19268
1864.82919,0.19389
1866.75766,0.19566
1868.68613,0.19530
1870.61460,0.19174
1872.54307,0.18828
1874.47154,0.18766
1876.40001,0.18883
1878.32847,0.18830
1880.25694,0.18752
1882.18541,0.18901
1884.11388,0.19162
1886.04235,0.19344
1887.97082,0.19369
1889.89929,0.19261
1891.82775,0.19211
1893.75622,0.19310
1895.68469,0.19269
1897.61316,0.19058
1899.54163,0.18911
1901.47010,0.18867
1903.39857,0.18944
1905.32704,0.19071
1907.25550,0.19133
1909.18397,0.19079
1911.11244,0.18976
1913.04091,0.18972
1914.96938,0.19097
1916.89785,0.19171
1918.82632,0.19094
1920.75478,0.19208
1922.68325,0.19518
1924.61172,0.19549
1926.54019,0.19278
1928.46866,0.19055
1930.39713,0.19041
1932.32560,0.19131
1934.25407,0.19244
1936.18253,0.19475
1938.11100,0.19705
1940.03947,0.19812
1941.96794,0.19890
1943.89641,0.19815
1945.82488,0.19540
1947.75335,0.19257
1949.68181,0.19086
1951.61028,0.19111
1953.53875,0.19329
1955.46722,0.19517
1957.39569,0.19443
1959.32416,0.19253
1961.25263,0.19154
1963.18110,0.19104
1965.10956,0.19117
1967.03803,0.19219
1968.96650,0.19294
1970.89497,0.19353
1972.82344,0.19488
1974.75191,0.19598
1976.68038,0.19531
1978.60884,0.19333
1980.53731,0.19314
1982.46578,0.19482
1984.39425,0.19529
1986.32272,0.19551
1988.25119,0.19597
1990.17966,0.19515
1992.10812,0.19403
1994.03659,0.19328
1995.96506,0.19230
1997.89353,0.19184
1999.82200,0.19275
2001.75047,0.19402
2003.67894,0.19464
2005.60741,0.19475
2007.53587,0.19439
2009.46434,0.19310
2011.39281,0.19200
2013.32128,0.19248
2015.24975,0.19323
2017.17822,0.19406
2019.10669,0.19501
2021.03515,0.19519
2022.96362,0.19557
2024.89209,0.19465
2026.82056,0.19243
2028.74903,0.19278
2030.67750,0.19389
2032.60597,0.19318
2034.53444,0.19341
2036.46290,0.19473
2038.39137,0.19384
2040.31984,0.19079
2042.24831,0.18961
2044.17678,0.19178
2046.10525,0.19462
2048.03372,0.19493
2049.96218,0.19273
2051.89065,0.19103
2053.81912,0.19157
2055.74759,0.19417
2057.67606,0.19700
2059.60453,0.19765
2061.53300,0.19642
2063.46147,0.19537
2065.38993,0.19519
2067.31840,0.19576
2069.24687,0.19660
2071.17534,0.19678
2073.10381,0.19631
2075.03228,0.19503
2076.96075,0.19378
2078.88921,0.19410
2080.81768,0.19503
2082.74615,0.19488
2084.67462,0.19358
2086.60309,0.19283
2088.53156,0.19381
2090.46003,0.19569
2092.38850,0.19719
2094.31696,0.19735
2096.24543,0.19592
2098.17390,0.19363
2100.10237,0.19201
2102.03084,0.19208
2103.95931,0.19320
2105.88778,0.19500
2107.81624,0.19772
2109.74471,0.19999
2111.67318,0.20011
2113.60165,0.19875
2115.53012,0.19742
2117.45859,0.19684
2119.38706,0.19725
2121.31553,0.19825
2123.24399,0.19929
2125.17246,0.19896
2127.10093,0.19646
2129.02940,0.19457
2130.95787,0.19481
2132.88634,0.19503
2134.81481,0.19402
2136.74327,0.19183
2138.67174,0.18989
2140.60021,0.19121
2142.52868,0.19467
2144.45715,0.19645
2146.38562,0.19679
2148.31409,0.19713
2150.24255,0.19747
2152.17102,0.19742
2154.09949,0.19691
2156.02796,0.19756
2157.95643,0.19866
2159.88490,0.19785
2161.81337,0.19664
2163.74184,0.19664
2165.67030,0.19779
2167.59877,0.19952
2169.52724,0.19927
2171.45571,0.19696
2173.38418,0.19492
2175.31265,0.19302
2177.24112,0.19201
2179.16958,0.19305
2181.09805,0.19485
2183.02652,0.19572
2184.95499,0.19502
2186.88346,0.19499
2188.81193,0.19688
2190.74040,0.19782
2192.66887,0.19789
2194.59733,0.19855
2196.52580,0.19824
2198.45427,0.19779
2200.38274,0.19873
2202.31121,0.19914
2204.23968,0.19825
2206.16815,0.19767
2208.09661,0.19834
2210.02508,0.20013
2211.95355,0.20150
2213.88202,0.20140
2215.81049,0.20062
2217.73896,0.19973
2219.66743,0.19893
2221.59590,0.19785
2223.52436,0.19623
2225.45283,0.19529
2227.38130,0.19544
2229.30977,0.19526
2231.23824,0.19342
2233.16671,0.19218
2235.09518,0.19415
2237.02364,0.19744
2238.95211,0.19856
2240.88058,0.19667
2242.80905,0.19510
2244.73752,0.19553
2246.66599,0.19591
2248.59446,0.19645
2250.52293,0.19796
2252.45139,0.19951
2254.37986,0.20066
2256.30833,0.20165
2258.23680,0.20159
2260.16527,0.19935
2262.09374,0.19705
2264.02221,0.19806
2265.95067,0.20004
2267.87914,0.19898
2269.80761,0.19700
2271.73608,0.19585
2273.66455,0.19458
2275.59302,0.19419
2277.52149,0.19480
2279.44996,0.19541
2281.37842,0.19629
2283.30689,0.19770
2285.23536,0.19866
2287.16383,0.19754
2289.09230,0.19531
2291.02077,0.19387
2292.94924,0.19187
2294.87770,0.19022
2296.80617,0.19118
2298.73464,0.19189
2300.66311,0.18987
2302.59158,0.18801
2304.52005,0.18954
2306.44852,0.19054
2308.37699,0.18615
2310.30545,0.18126
2312.23392,0.18087
2314.16239,0.18298
2316.09086,0.18254
2318.01933,0.17674
2319.94780,0.17126
2321.87627,0.17253
2323.80473,0.17913
2325.73320,0.18292
2327.66167,0.17520
2329.59014,0.16195
2331.51861,0.15538
2333.44708,0.15510
2335.37555,0.15976
2337.30401,0.16657
2339.23248,0.16600
2341.16095,0.15764
2343.08942,0.15065
2345.01789,0.15439
2346.94636,0.16660
2348.87483,0.17546
2350.80330,0.17714
2352.73176,0.16986
2354.66023,0.15290
2356.58870,0.13701
2358.51717,0.13351
2360.44564,0.14292
2362.37411,0.15664
2364.30258,0.16024
2366.23104,0.15208
2368.15951,0.14732
2370.08798,0.14862
2372.01645,0.15020
2373.94492,0.15590
2375.87339,0.16459
2377.80186,0.17309
2379.73033,0.18141
2381.65879,0.18789
2383.58726,0.19301
2385.51573,0.19701
2387.44420,0.19822
2389.37267,0.19790
2391.30114,0.19852
2393.22961,0.19932
2395.15807,0.19857
2397.08654,0.19778
2399.01501,0.19885
2400.94348,0.19941
2402.87195,0.19797
2404.80042,0.19720
2406.72889,0.19814
2408.65736,0.19948
2410.58582,0.20038
2412.51429,0.20031
2414.44276,0.19967
2416.37123,0.19940
2418.29970,0.19954
2420.22817,0.19979
2422.15664,0.20077
2424.08510,0.20283
2426.01357,0.20438
2427.94204,0.20290
2429.87051,0.19956
2431.79898,0.19868
2433.72745,0.19969
2435.65592,0.19882
2437.58439,0.19693
2439.51285,0.19611
2441.44132,0.19664
2443.36979,0.19807
2445.29826,0.19975
2447.22673,0.20157
2449.15520,0.20285
2451.08367,0.20368
2453.01213,0.20510
2454.94060,0.20499
2456.86907,0.20208
2458.79754,0.20054
2460.72601,0.20103
2462.65448,0.20060
2464.58295,0.20086
2466.51142,0.20274
2468.43988,0.20377
2470.36835,0.20236
2472.29682,0.20062
2474.22529,0.20183
2476.15376,0.20397
2478.08223,0.20395
2480.01070,0.20299
2481.93916,0.20242
2483.86763,0.20190
2485.79610,0.20172
2487.72457,0.20271
2489.65304,0.20457
2491.58151,0.20466
2493.50998,0.20211
2495.43844,0.20059
2497.36691,0.20055
2499.29538,0.20039
2501.22385,0.20069
2503.15232,0.20087
2505.08079,0.20108
2507.00926,0.20121
2508.93773,0.20021
2510.86619,0.19966
2512.79466,0.20077
2514.72313,0.20319
2516.65160,0.20636
2518.58007,0.20770
2520.50854,0.20575
2522.43701,0.20239
2524.36547,0.19930
2526.29394,0.19776
2528.22241,0.19869
2530.15088,0.20122
2532.07935,0.20303
2534.00782,0.20272
2535.93629,0.20234
2537.86476,0.20262
2539.79322,0.20136
2541.72169,0.19981
2543.65016,0.20068
2545.57863,0.20252
2547.50710,0.20368
2549.43557,0.20486
2551.36404,0.20495
2553.29250,0.20393
2555.22097,0.20401
2557.14944,0.20437
2559.07791,0.20413
2561.00638,0.20428
2562.93485,0.20458
2564.86332,0.20411
2566.79179,0.20299
2568.72025,0.20215
2570.64872,0.20287
2572.57719,0.20515
2574.50566,0.20613
2576.43413,0.20465
2578.36260,0.20384
2580.29107,0.20496
2582.21953,0.20536
2584.14800,0.20466
2586.07647,0.20510
2588.00494,0.20623
2589.93341,0.20536
2591.86188,0.20223
2593.79035,0.20058
2595.71882,0.20149
2597.64728,0.20162
2599.57575,0.20095
2601.50422,0.20210
2603.43269,0.20415
2605.36116,0.20535
2607.28963,0.20608
2609.21810,0.20280
2611.14656,0.19414
2613.07503,0.18883
2615.00350,0.19276
2616.93197,0.20099
2618.86044,0.20591
2620.78891,0.20710
2622.71738,0.20721
2624.64585,0.20632
2626.57431,0.20636
2628.50278,0.20793
2630.43125,0.20939
2632.35972,0.20983
2634.28819,0.20896
2636.21666,0.20827
2638.14513,0.20949
2640.07359,0.21144
2642.00206,0.21026
2643.93053,0.20606
2645.85900,0.20314
2647.78747,0.20316
2649.71594,0.20567
2651.64441,0.20945
2653.57288,0.21049
2655.50134,0.20778
2657.42981,0.20569
2659.35828,0.20591
2661.28675,0.20720
2663.21522,0.20871
2665.14369,0.21001
2667.07216,0.21040
2669.00062,0.20954
2670.92909,0.20916
2672.85756,0.21002
2674.78603,0.21106
2676.71450,0.21126
2678.64297,0.21098
2680.57144,0.21155
2682.49990,0.21206
2684.42837,0.21134
2686.35684,0.21031
2688.28531,0.21027
2690.21378,0.21156
2692.14225,0.21299
2694.07072,0.21272
2695.99919,0.21122
2697.92765,0.21153
2699.85612,0.21372
2701.78459,0.21464
2703.71306,0.21294
2705.64153,0.20969
2707.57000,0.20832
2709.49847,0.21098
2711.42693,0.21412
2713.35540,0.21430
2715.28387,0.21305
2717.21234,0.21175
2719.14081,0.21081
2721.06928,0.21195
2722.99775,0.21367
2724.92622,0.21337
2726.85468,0.21256
2728.78315,0.21319
2730.71162,0.21534
2732.64009,0.21764
2734.56856,0.21707
2736.49703,0.21422
2738.42550,0.21331
2740.35396,0.21262
2742.28243,0.20940
2744.21090,0.20747
2746.13937,0.20942
2748.06784,0.21308
2749.99631,0.21558
2751.92478,0.21701
2753.85325,0.21787
2755.78171,0.21631
2757.71018,0.21293
2759.63865,0.21221
2761.56712,0.21470
2763.49559,0.21482
2765.42406,0.21192
2767.35253,0.21098
2769.28099,0.21200
2771.20946,0.21187
2773.13793,0.21194
2775.06640,0.21377
2776.99487,0.21413
2778.92334,0.21191
2780.85181,0.21055
2782.78028,0.21079
2784.70874,0.21119
2786.63721,0.21257
2788.56568,0.21432
2790.49415,0.21421
2792.42262,0.21257
2794.35109,0.21104
2796.27956,0.21052
2798.20802,0.21174
2800.13649,0.21336
2802.06496,0.21240
2803.99343,0.21106
2805.92190,0.21313
2807.85037,0.21661
2809.77884,0.21857
2811.70731,0.21936
2813.63577,0.21996
2815.56424,0.22045
2817.49271,0.22142
2819.42118,0.22195
2821.34965,0.21954
2823.27812,0.21642
2825.20659,0.21686
2827.13505,0.21851
2829.06352,0.21843
2830.99199,0.21894
2832.92046,0.21990
2834.84893,0.22104
2836.77740,0.22388
2838.70587,0.22472
2840.63433,0.22131
2842.56280,0.21772
2844.49127,0.21508
2846.41974,0.21351
2848.34821,0.21500
2850.27668,0.21660
2852.20515,0.21656
2854.13362,0.21777
2856.06208,0.21945
2857.99055,0.21914
2859.91902,0.21898
2861.84749,0.22131
2863.77596,0.22319
2865.70443,0.22238
2867.63290,0.22066
2869.56136,0.21869
2871.48983,0.21541
2873.41830,0.21295
2875.34677,0.21557
2877.27524,0.22118
2879.20371,0.22299
2881.13218,0.22048
2883.06065,0.21762
2884.98911,0.21528
2886.91758,0.21518
2888.84605,0.21854
2890.77452,0.22112
2892.70299,0.21744
2894.63146,0.20927
2896.55993,0.20638
2898.48839,0.20981
2900.41686,0.21407
2902.34533,0.21824
2904.27380,0.21578
2906.20227,0.20722
2908.13074,0.20518
2910.05921,0.20918
2911.98768,0.21227
2913.91614,0.20844
2915.84461,0.19535
2917.77308,0.19044
2919.70155,0.20168
2921.63002,0.21381
2923.55849,0.21465
2925.48696,0.20161
2927.41542,0.19120
2929.34389,0.19868
2931.27236,0.21031
2933.20083,0.21130
2935.12930,0.20068
2937.05777,0.18680
2938.98624,0.18834
2940.91471,0.20302
2942.84317,0.21001
2944.77164,0.20304
2946.70011,0.18781
2948.62858,0.18391
2950.55705,0.19896
2952.48552,0.21112
2954.41399,0.20746
2956.34245,0.19052
2958.27092,0.18009
2960.19939,0.19413
2962.12786,0.21373
2964.05633,0.21837
2965.98480,0.20865
2967.91327,0.19654
2969.84174,0.20017
2971.77020,0.21385
2973.69867,0.21874
2975.62714,0.20929
2977.55561,0.19224
2979.48408,0.19062
2981.41255,0.20960
2983.34102,0.22587
2985.26948,0.22505
2987.19795,0.20963
2989.12642,0.20147
2991.05489,0.21370
2992.98336,0.22710
2994.91183,0.22782
2996.84030,0.22125
2998.76877,0.21719
3000.69723,0.21923
3002.62570,0.22134
3004.55417,0.21939
3006.48264,0.21130
3008.41111,0.19638
3010.33958,0.17403
3012.26805,0.13738
3014.19651,0.08917
3016.12498,0.05922
3018.05345,0.08440
3019.98192,0.15179
3021.91039,0.20603
3023.83886,0.22476
3025.76733,0.22172
3027.69579,0.21393
3029.62426,0.21499
3031.55273,0.22305
3033.48120,0.22860
3035.40967,0.22827
3037.33814,0.22190
3039.26661,0.21920
3041.19508,0.22467
3043.12354,0.22588
3045.05201,0.21667
3046.98048,0.20564
3048.90895,0.20493
3050.83742,0.21157
3052.76589,0.21347
3054.69436,0.20598
3056.62282,0.19328
3058.55129,0.19421
3060.47976,0.21136
3062.40823,0.22247
3064.33670,0.21718
3066.26517,0.20517
3068.19364,0.20613
3070.12211,0.22029
3072.05057,0.22700
3073.97904,0.21522
3075.90751,0.19834
3077.83598,0.20122
3079.76445,0.21754
3081.69292,0.22110
3083.62139,0.20453
3085.54985,0.18773
3087.47832,0.19657
3089.40679,0.21808
3091.33526,0.22164
3093.26373,0.20460
3095.19220,0.19283
3097.12067,0.20434
3099.04914,0.22135
3100.97760,0.22084
3102.90607,0.20344
3104.83454,0.19590
3106.76301,0.20926
3108.69148,0.21956
3110.61995,0.21173
3112.54842,0.19864
3114.47688,0.20268
3116.40535,0.21740
3118.33382,0.21773
3120.26229,0.20353
3122.19076,0.19598
3124.11923,0.20649
3126.04770,0.22065
3127.97617,0.22341
3129.90463,0.21595
3131.83310,0.21195
3133.76157,0.21920
3135.69004,0.22599
3137.61851,0.22117
3139.54698,0.21194
3141.47545,0.21410
3143.40391,0.22367
3145.33238,0.22738
3147.26085,0.22432
3149.18932,0.22015
3151.11779,0.22212
3153.04626,0.22750
3154.97473,0.22782
3156.90320,0.22484
3158.83166,0.22478
3160.76013,0.22683
3162.68860,0.22776
3164.61707,0.22773
3166.54554,0.22920
3168.47401,0.23299
3170.40248,0.23516
3172.33094,0.23376
3174.25941,0.23067
3176.18788,0.22818
3178.11635,0.22858
3180.04482,0.22968
3181.97329,0.22871
3183.90176,0.22950
3185.83022,0.23186
3187.75869,0.23051
3189.68716,0.22681
3191.61563,0.22447
3193.54410,0.22610
3195.47257,0.23189
3197.40104,0.23653
3199.32951,0.23591
3201.25797,0.23275
3203.18644,0.23084
3205.11491,0.22973
3207.04338,0.22831
3208.97185,0.22922
3210.90032,0.23417
3212.82879,0.23897
3214.75725,0.24019
3216.68572,0.23732
3218.61419,0.23291
3220.54266,0.23091
3222.47113,0.23120
3224.39960,0.23200
3226.32807,0.23212
3228.25654,0.23274
3230.18500,0.23397
3232.11347,0.23307
3234.04194,0.23061
3235.97041,0.22964
3237.89888,0.22919
3239.82735,0.22507
3241.75582,0.22131
3243.68428,0.22323
3245.61275,0.22439
3247.54122,0.22050
3249.46969,0.21668
3251.39816,0.21650
3253.32663,0.21991
3255.25510,0.22574
3257.18357,0.23274
3259.11203,0.23877
3261.04050,0.23959
3262.96897,0.23461
3264.89744,0.22796
3266.82591,0.22507
3268.75438,0.22777
3270.68285,0.23241
3272.61131,0.23701
3274.53978,0.23891
3276.46825,0.23424
3278.39672,0.22667
3280.32519,0.22188
3282.25366,0.22176
3284.18213,0.22656
3286.11060,0.23278
3288.03906,0.23726
3289.96753,0.23837
3291.89600,0.23503
3293.82447,0.23159
3295.75294,0.22968
3297.68141,0.22568
3299.60988,0.22204
3301.53834,0.22409
3303.46681,0.22612
3305.39528,0.22162
3307.32375,0.22007
3309.25222,0.22629
3311.18069,0.23008
3313.10916,0.22988
3315.03763,0.23033
3316.96609,0.22885
3318.89456,0.22624
3320.82303,0.22532
3322.75150,0.22397
3324.67997,0.22206
3326.60844,0.22148
3328.53691,0.22370
3330.46537,0.22790
3332.39384,0.23203
3334.32231,0.23605
3336.25078,0.23779
3338.17925,0.23534
3340.10772,0.23283
3342.03619,0.23433
3343.96466,0.23823
3345.89312,0.23845
3347.82159,0.23230
3349.75006,0.22619
3351.67853,0.22283
3353.60700,0.22086
3355.53547,0.22215
3357.46394,0.22537
3359.39240,0.23024
3361.32087,0.23605
3363.24934,0.23906
3365.17781,0.24080
3367.10628,0.24240
3369.03475,0.24161
3370.96322,0.23927
3372.89168,0.23618
3374.82015,0.23125
3376.74862,0.22646
3378.67709,0.22509
3380.60556,0.22610
3382.53403,0.22650
3384.46250,0.22806
3386.39097,0.22951
3388.31943,0.22618
3390.24790,0.22339
3392.17637,0.22739
3394.10484,0.23496
3396.03331,0.24004
3397.96178,0.23998
3399.89025,0.23694
3401.81871,0.23523
3403.74718,0.23506
3405.67565,0.23449
3407.60412,0.23286
3409.53259,0.22765
3411.46106,0.22098
3413.38953,0.21963
3415.31800,0.22417
3417.24646,0.22898
3419.17493,0.22958
3421.10340,0.22668
3423.03187,0.22328
3424.96034,0.22120
3426.88881,0.22195
3428.81728,0.22481
3430.74574,0.22657
3432.67421,0.22680
3434.60268,0.22643
3436.53115,0.22650
3438.45962,0.22745
3440.38809,0.22611
3442.31656,0.22366
3444.24503,0.22456
3446.17349,0.22616
3448.10196,0.22354
3450.03043,0.21894
3451.95890,0.21633
3453.88737,0.21486
3455.81584,0.21418
3457.74431,0.21455
3459.67277,0.21361
3461.60124,0.20980
3463.52971,0.20470
3465.45818,0.20065
3467.38665,0.19990
3469.31512,0.20351
3471.24359,0.20818
3473.17206,0.21076
3475.10052,0.21162
3477.02899,0.21102
3478.95746,0.20978
3480.88593,0.20898
3482.81440,0.20793
3484.74287,0.20659
3486.67134,0.20363
3488.59980,0.19795
3490.52827,0.19521
3492.45674,0.19846
3494.38521,0.20214
3496.31368,0.20243
3498.24215,0.20041
3500.17062,0.19855
3502.09909,0.19877
3504.02755,0.19924
3505.95602,0.19907
3507.88449,0.19904
3509.81296,0.19735
3511.74143,0.19562
3513.66990,0.19612
3515.59837,0.19880
3517.52683,0.20359
3519.45530,0.20630
3521.38377,0.20269
3523.31224,0.19458
3525.24071,0.18879
3527.16918,0.18903
3529.09765,0.18963
3531.02611,0.18624
3532.95458,0.18267
3534.88305,0.18106
3536.81152,0.18102
3538.73999,0.18221
3540.66846,0.18180
3542.59693,0.17792
3544.52540,0.17335
3546.45386,0.17231
3548.38233,0.17419
3550.31080,0.17645
3552.23927,0.17786
3554.16774,0.17611
3556.09621,0.17191
3558.02468,0.16930
3559.95314,0.17183
3561.88161,0.17861
3563.81008,0.18352
3565.73855,0.18099
3567.66702,0.17374
3569.59549,0.17247
3571.52396,0.17476
3573.45243,0.17530
3575.38089,0.17540
3577.30936,0.17552
3579.23783,0.17269
3581.16630,0.16856
3583.09477,0.16969
3585.02324,0.17755
3586.95171,0.18406
3588.88017,0.17982
3590.80864,0.17070
3592.73711,0.16316
3594.66558,0.16092
3596.59405,0.16539
3598.52252,0.16887
3600.45099,0.16646
3602.37946,0.16205
3604.30792,0.16149
3606.23639,0.16603
3608.16486,0.17133
3610.09333,0.17325
3612.02180,0.17301
3613.95027,0.16948
3615.87874,0.16638
3617.80720,0.16834
3619.73567,0.16716
3621.66414,0.16015
3623.59261,0.15748
3625.52108,0.16093
3627.44955,0.16681
3629.37802,0.16755
3631.30649,0.16218
3633.23495,0.15867
3635.16342,0.15760
3637.09189,0.15661
3639.02036,0.15318
3640.94883,0.15036
3642.87730,0.15353
3644.80577,0.16113
3646.73423,0.17153
3648.66270,0.18263
3650.59117,0.17770
3652.51964,0.16589
3654.44811,0.16137
3656.37658,0.15913
3658.30505,0.15463
3660.23352,0.14996
3662.16198,0.14528
3664.09045,0.14223
3666.01892,0.14399
3667.94739,0.15097
3669.87586,0.15853
3671.80433,0.15836
3673.73280,0.15545
3675.66126,0.15319
3677.58973,0.14773
3679.51820,0.14163
3681.44667,0.13837
3683.37514,0.13941
3685.30361,0.14481
3687.23208,0.15284
3689.16055,0.15731
3691.08901,0.15154
3693.01748,0.14321
3694.94595,0.13873
3696.87442,0.13868
3698.80289,0.14204
3700.73136,0.14531
3702.65983,0.14495
3704.58829,0.14197
3706.51676,0.13984
3708.44523,0.14167
3710.37370,0.14606
3712.30217,0.14510
3714.23064,0.14199
3716.15911,0.14062
3718.08757,0.14050
3720.01604,0.14522
3721.94451,0.15129
3723.87298,0.14892
3725.80145,0.14116
3727.72992,0.13576
3729.65839,0.13389
3731.58686,0.13831
3733.51532,0.15017
3735.44379,0.15516
3737.37226,0.14907
3739.30073,0.14465
3741.22920,0.14207
3743.15767,0.14293
3745.08614,0.14974
3747.01460,0.15323
3748.94307,0.15481
3750.87154,0.15640
3752.80001,0.15100
3754.72848,0.14299
3756.65695,0.13952
3758.58542,0.14334
3760.51389,0.14638
3762.44235,0.14388
3764.37082,0.14262
3766.29929,0.14212
3768.22776,0.13912
3770.15623,0.13640
3772.08470,0.13347
3774.01317,0.12978
3775.94163,0.13031
3777.87010,0.13644
3779.79857,0.14115
3781.72704,0.14225
3783.65551,0.14390
3785.58398,0.14255
3787.51245,0.13738
3789.44092,0.13293
3791.36938,0.13157
3793.29785,0.13496
3795.22632,0.14050
3797.15479,0.14276
3799.08326,0.14292
3801.01173,0.14689
3802.94020,0.15060
3804.86866,0.15004
3806.79713,0.14763
3808.72560,0.14145
3810.65407,0.13669
3812.58254,0.13633
3814.51101,0.13743
3816.43948,0.14009
3818.36795,0.14632
3820.29641,0.15088
3822.22488,0.14595
3824.15335,0.14008
3826.08182,0.13981
3828.01029,0.14021
3829.93876,0.13721
3831.86723,0.13508
3833.79569,0.13833
3835.72416,0.14299
3837.65263,0.14599
3839.58110,0.14347
3841.50957,0.13511
3843.43804,0.13102
3845.36651,0.13154
3847.29498,0.13100
3849.22344,0.13244
3851.15191,0.13953
3853.08038,0.14518
3855.00885,0.13949
3856.93732,0.13654
3858.86579,0.13809
3860.79426,0.13964
3862.72272,0.13821
3864.65119,0.13494
3866.57966,0.13413
3868.50813,0.13693
3870.43660,0.13998
3872.36507,0.13477
3874.29354,0.12590
3876.22200,0.12447
3878.15047,0.13099
3880.07894,0.13866
3882.00741,0.13913
3883.93588,0.13574
3885.86435,0.13288
3887.79282,0.12951
3889.72129,0.12581
3891.64975,0.12168
3893.57822,0.12000
3895.50669,0.12351
3897.43516,0.12979
3899.36363,0.13333
3901.29210,0.13461
3903.22057,0.13830
3905.14903,0.13740
3907.07750,0.13101
3909.00597,0.12634
3910.93444,0.12238
3912.86291,0.11708
3914.79138,0.11487
3916.71985,0.11727
3918.64832,0.12096
3920.57678,0.12481
3922.50525,0.12604
3924.43372,0.12259
3926.36219,0.11811
3928.29066,0.11670
3930.21913,0.11934
3932.14760,0.12216
3934.07606,0.11848
3936.00453,0.11342
3937.93300,0.11467
3939.86147,0.11817
3941.78994,0.11922
3943.71841,0.12139
3945.64688,0.12553
3947.57535,0.12722
3949.50381,0.12479
3951.43228,0.12082
3953.36075,0.11852
3955.28922,0.11792
3957.21769,0.11786
3959.14616,0.11972
3961.07463,0.12207
3963.00309,0.12049
3964.93156,0.11658
3966.86003,0.11291
3968.78850,0.10882
3970.71697,0.10789
3972.64544,0.11203
3974.57391,0.11501
3976.50238,0.11328
3978.43084,0.11038
3980.35931,0.10859
3982.28778,0.10759
3984.21625,0.10782
3986.14472,0.10803
3988.07319,0.10692
3990.00166,0.10766
3991.93012,0.11056
3993.85859,0.11142
3995.78706,0.11126
3997.71553,0.11293
3999.64400,0.11320
4001.57247,0.10883
4003.50094,0.10407
4005.42941,0.10459
4007.35787,0.10756
4009.28634,0.10598
4011.21481,0.10175
4013.14328,0.10135
4015.07175,0.10470
4017.00022,0.10874
4018.92869,0.11015
4020.85715,0.10713
4022.78562,0.10502
4024.71409,0.10665
4026.64256,0.10459
4028.57103,0.09978
4030.49950,0.10134
4032.42797,0.10431
4034.35644,0.10124
4036.28490,0.09611
4038.21337,0.09370
4040.14184,0.09462
4042.07031,0.09785
4043.99878,0.10043
4045.92725,0.09900
4047.85572,0.09507
4049.78418,0.09449
4051.71265,0.09971
4053.64112,0.10339
4055.56959,0.10006
4057.49806,0.09590
4059.42653,0.09505
4061.35500,0.09501
4063.28346,0.09465
4065.21193,0.09601
4067.14040,0.10008
4069.06887,0.10311
4070.99734,0.10203
4072.92581,0.09960
4074.85428,0.09956
4076.78275,0.10031
4078.71121,0.09624
4080.63968,0.08891
4082.56815,0.08736
4084.49662,0.09119
4086.42509,0.09380
4088.35356,0.09525
4090.28203,0.09602
4092.21049,0.09507
4094.13896,0.09289
4096.06743,0.09135
4097.99590,0.09360
4099.92437,0.09828
4101.85284,0.10092
4103.78131,0.09977
4105.70978,0.09668
4107.63824,0.09301
4109.56671,0.08696
4111.49518,0.08284
4113.42365,0.08615
4115.35212,0.09200
4117.28059,0.09499
4119.20906,0.09414
4121.13752,0.08983
4123.06599,0.08606
4124.99446,0.08625
4126.92293,0.08636
4128.85140,0.08216
4130.77987,0.07762
4132.70834,0.07853
4134.63681,0.08544
4136.56527,0.09057
4138.49374,0.08869
4140.42221,0.08629
4142.35068,0.08630
4144.27915,0.08586
4146.20762,0.08636
4148.13609,0.08680
4150.06455,0.08456
4151.99302,0.08275
4153.92149,0.08394
4155.84996,0.08576
4157.77843,0.08504
4159.70690,0.08201
4161.63537,0.07986
4163.56384,0.07856
4165.49230,0.07758
4167.42077,0.07916
4169.34924,0.08015
4171.27771,0.07669
4173.20618,0.07329
4175.13465,0.07355
4177.06312,0.07479
4178.99158,0.07568
4180.92005,0.07750
4182.84852,0.07724
4184.77699,0.07099
4186.70546,0.06335
4188.63393,0.06221
4190.56240,0.06637
4192.49087,0.07198
4194.41933,0.07730
4196.34780,0.07837
4198.27627,0.07928
4200.20474,0.08240
4202.13321,0.08089
4204.06168,0.07533
4205.99015,0.06883
4207.91861,0.06338
4209.84708,0.06217
4211.77555,0.06445
4213.70402,0.06704
4215.63249,0.06806
4217.56096,0.06656
4219.48943,0.06143
4221.41789,0.05573
4223.34636,0.05568
4225.27483,0.06113
4227.20330,0.06542
4229.13177,0.06603
4231.06024,0.06460
4232.98871,0.06087
4234.91718,0.05776
4236.84564,0.05996
4238.77411,0.06462
4240.70258,0.06681
4242.63105,0.06867
4244.55952,0.07067
4246.48799,0.06792
4248.41646,0.06225
4250.34492,0.06114
4252.27339,0.06570
4254.20186,0.06819
4256.13033,0.06425
4258.05880,0.06008
4259.98727,0.05846
4261.91574,0.05749
4263.84421,0.05861
4265.77267,0.05912
4267.70114,0.05641
4269.62961,0.05402
4271.55808,0.05373
4273.48655,0.05365
4275.41502,0.05182
4277.34349,0.04956
4279.27195,0.04958
4281.20042,0.05260
4283.12889,0.05461
4285.05736,0.05419
4286.98583,0.05652
4288.91430,0.05968
4290.84277,0.05864
4292.77124,0.05276
4294.69970,0.04431
4296.62817,0.03975
4298.55664,0.04355
4300.48511,0.05138
4302.41358,0.05390
4304.34205,0.05019
4306.27052,0.04649
4308.19898,0.04349
4310.12745,0.03924
4312.05592,0.03427
4313.98439,0.03160
4315.91286,0.03577
4317.84133,0.04257
4319.76980,0.04207
4321.69827,0.03715
4323.62673,0.03550
4325.55520,0.03652
4327.48367,0.03815
4329.41214,0.03963
4331.34061,0.03828
4333.26908,0.03297
4335.19755,0.02849
4337.12601,0.02847
4339.05448,0.03149
4340.98295,0.03483
4342.91142,0.03723
4344.83989,0.03857
4346.76836,0.03471
4348.69683,0.02553
4350.62530,0.02119
4352.55376,0.02615
4354.48223,0.03406
4356.41070,0.03700
4358.33917,0.03303
4360.26764,0.02914
4362.19611,0.02941
4364.12458,0.02995
4366.05304,0.03007
4367.98151,0.03120
4369.90998,0.03009
4371.83845,0.02704
4373.76692,0.02791
4375.69539,0.03142
4377.62386,0.03332
4379.55232,0.03484
4381.48079,0.03428
4383.40926,0.03131
4385.33773,0.03208
4387.26620,0.03543
4389.19467,0.03554
4391.12314,0.03478
4393.05161,0.03418
4394.98007,0.02821
4396.90854,0.01919
4398.83701,0.01652
4400.76548,0.02077
4402.69395,0.02475
4404.62242,0.02406
4406.55089,0.02087
4408.47935,0.01989
4410.40782,0.02029
4412.33629,0.01950
4414.26476,0.01861
4416.19323,0.01846
4418.12170,0.01835
4420.05017,0.01773
4421.97864,0.01757
4423.90710,0.01928
4425.83557,0.02075
4427.76404,0.01994
4429.69251,0.01956
4431.62098,0.01844
4433.54945,0.01525
4435.47792,0.01514
4437.40638,0.01568
4439.33485,0.01141
4441.26332,0.00963
4443.19179,0.01516
4445.12026,0.01879
4447.04873,0.01469
4448.97720,0.00909
4450.90567,0.00750
4452.83413,0.00745
4454.76260,0.00787
4456.69107,0.00794
4458.61954,0.00442
4460.54801,0.00137
4462.47648,0.00156
4464.40495,0.00236
4466.33341,0.00552
4468.26188,0.01144
4470.19035,0.01503
4472.11882,0.01594
4474.04729,0.01556
4475.97576,0.01135
4477.90423,0.00898
4479.83270,0.01062
4481.76116,0.00869
4483.68963,0.00584
4485.61810,0.00679
4487.54657,0.00599
4489.47504,0.00249
4491.40351,0.00244
4493.33198,0.00388
4495.26044,0.00104
4497.18891,-0.00150
4499.11738,0.00333
4501.04585,0.00963
4502.97432,0.01110
4504.90279,0.01120
4506.83126,0.01061
4508.75973,0.01064
4510.68819,0.01082
4512.61666,0.00560
4514.54513,-0.00283
4516.47360,-0.00532
4518.40207,0.00054
4520.33054,0.00886
4522.25901,0.01433
4524.18747,0.01394
4526.11594,0.00661
4528.04441,-0.00213
4529.97288,-0.00276
4531.90135,0.00363
4533.82982,0.00838
4535.75829,0.00838
4537.68676,0.00191
4539.61522,-0.00864
4541.54369,-0.01418
4543.47216,-0.01072
4545.40063,-0.00552
4547.32910,-0.00337
4549.25757,0.00060
4551.18604,0.00540
4553.11450,0.00533
4555.04297,0.00273
4556.97144,0.00189
4558.89991,0.00096
4560.82838,0.00044
4562.75685,0.00431
4564.68532,0.00904
4566.61378,0.01159
4568.54225,0.01372
4570.47072,0.01395
4572.39919,0.01091
4574.32766,0.00846
4576.25613,0.00926
4578.18460,0.00911
4580.11307,0.00464
4582.04153,0.00162
4583.97000,0.00657
4585.89847,0.01575
4587.82694,0.01708
4589.75541,0.00854
4591.68388,0.00527
4593.61235,0.01342
4595.54081,0.02302
4597.46928,0.02781
4599.39775,0.02562
4601.32622,0.01681
4603.25469,0.00599
4605.18316,-0.00097
4607.11163,-0.00025
4609.04010,0.00358
4610.96856,0.00430
4612.89703,0.00066
4614.82550,-0.00462
4616.75397,-0.00719
4618.68244,-0.00378
4620.61091,0.00529
4622.53938,0.01119
4624.46784,0.00807
4626.39631,0.00369
4628.32478,0.00442
4630.25325,0.00724
4632.18172,0.00774
4634.11019,0.00478
4636.03866,0.00193
4637.96713,0.00112
4639.89559,-0.00043
4641.82406,0.00064
4643.75253,0.00748
4645.68100,0.01176
4647.60947,0.01044
4649.53794,0.01192
4651.46641,0.01591
4653.39487,0.01449
4655.32334,0.00974
4657.25181,0.00711
4659.18028,0.00560
4661.10875,0.00425
4663.03722,0.00375
4664.96569,0.00268
4666.89416,-0.00077
4668.82262,-0.00493
4670.75109,-0.00540
4672.67956,0.00047
4674.60803,0.00740
4676.53650,0.00918
4678.46497,0.01055
4680.39344,0.01243
4682.32190,0.00956
4684.25037,0.00741
4686.17884,0.01138
4688.10731,0.01431
4690.03578,0.01068
4691.96425,0.00609
4693.89272,0.00308
4695.82119,-0.00315
4697.74965,-0.00751
4699.67812,-0.00198
4701.60659,0.00298
4703.53506,0.00033
4705.46353,0.00103
4707.39200,0.00467
4709.32047,-0.00129
4711.24893,-0.01228
4713.17740,-0.01449
4715.10587,-0.00977
4717.03434,-0.00341
4718.96281,0.00303
4720.89128,0.00741
4722.81975,0.00918
4724.74821,0.00373
4726.67668,-0.00516
4728.60515,0.00048
4730.53362,0.01875
4732.46209,0.02182
4734.39056,0.00751
4736.31903,-0.00067
4738.24750,-0.00268
4740.17596,-0.00944
4742.10443,-0.01610
4744.03290,-0.01421
4745.96137,-0.00815
4747.88984,-0.00803
4749.81831,-0.01500
4751.74678,-0.02041
4753.67524,-0.01368
4755.60371,0.00438
4757.53218,0.01397
4759.46065,0.00658
4761.38912,-0.00586
4763.31759,-0.00829
4765.24606,0.00016
4767.17453,0.00897
4769.10299,0.01176
4771.03146,0.00696
4772.95993,-0.00068
4774.88840,-0.00416
4776.81687,-0.00138
4778.74534,0.00414
4780.67381,0.00250
4782.60227,-0.00503
4784.53074,-0.00774
4786.45921,-0.00285
4788.38768,0.00447
4790.31615,0.01025
4792.24462,0.01519
4794.17309,0.01812
4796.10156,0.01513
4798.03002,0.00809
4799.95849,0.00290
4801.88696,-0.00197
4803.81543,-0.00726
4805.74390,-0.00379
4807.67237,0.00538
4809.60084,0.00601
4811.52930,0.00118
4813.45777,0.00219
4815.38624,0.00708
4817.31471,0.00986
4819.24318,0.01028
4821.17165,0.00597
4823.10012,0.00031
4825.02859,0.00273
4826.95705,0.00657
4828.88552,-0.00207
4830.81399,-0.01522
4832.74246,-0.01607
4834.67093,-0.00501
4836.59940,0.00776
4838.52787,0.01726
4840.45633,0.01881
4842.38480,0.00741
4844.31327,-0.00684
4846.24174,-0.00735
4848.17021,0.00119
4850.09868,0.00295
4852.02715,0.00054
4853.95562,0.00320
4855.88408,0.00561
4857.81255,0.00318
4859.74102,-0.00116
4861.66949,-0.00272
4863.59796,0.00113
4865.52643,0.00143
4867.45490,-0.00634
4869.38336,-0.00977
4871.31183,-0.00136
4873.24030,0.00961
4875.16877,0.01104
4877.09724,0.00277
4879.02571,-0.00500
4880.95418,-0.00431
4882.88265,0.00375
4884.81111,0.01174
4886.73958,0.01176
4888.66805,0.00983
4890.59652,0.01587
4892.52499,0.01930
4894.45346,0.01364
4896.38193,0.01162
4898.31039,0.01463
4900.23886,0.01193
4902.16733,0.00865
4904.09580,0.01390
4906.02427,0.02061
4907.95274,0.02419
4909.88121,0.02711
4911.80967,0.02443
4913.73814,0.01351
4915.66661,0.00111
4917.59508,-0.00517
4919.52355,-0.00538
4921.45202,-0.00633
4923.38049,-0.01001
4925.30896,-0.00894
4927.23742,-0.00454
4929.16589,0.00009
4931.09436,0.00601
4933.02283,0.00445
4934.95130,-0.00204
4936.87977,0.00012
4938.80824,0.00651
4940.73670,0.00471
4942.66517,-0.00141
4944.59364,-0.00308
4946.52211,-0.00104
4948.45058,0.00216
4950.37905,0.00589
4952.30752,0.00145
4954.23599,-0.00765
4956.16445,-0.00641
4958.09292,-0.00238
4960.02139,-0.00300
4961.94986,-0.00029
4963.87833,0.00914
4965.80680,0.01968
4967.73527,0.02621
4969.66373,0.03020
4971.59220,0.02686
4973.52067,0.01378
4975.44914,0.00168
4977.37761,-0.00375
4979.30608,-0.00336
4981.23455,0.00305
4983.16302,0.01092
4985.09148,0.01035
4987.01995,0.00064
4988.94842,-0.00398
4990.87689,0.00381
4992.80536,0.01588
4994.73383,0.02327
4996.66230,0.01728
4998.59076,0.00252
5000.51923,-0.00836
5002.44770,-0.01896
5004.37617,-0.02418
5006.30464,-0.01099
5008.23311,0.00634
5010.16158,0.01286
5012.09005,0.01378
5014.01851,0.00902
5015.94698,-0.00190
5017.87545,-0.00658
5019.80392,-0.00186
5021.73239,0.00725
5023.66086,0.01835
5025.58933,0.02186
5027.51779,0.01171
5029.44626,0.00088
5031.37473,0.00645
5033.30320,0.02266
5035.23167,0.02722
5037.16014,0.01662
5039.08861,0.00666
5041.01708,0.00646
5042.94554,0.00950
5044.87401,0.00735
5046.80248,0.00292
5048.73095,0.00421
5050.65942,0.00909
5052.58789,0.01122
5054.51636,0.01072
5056.44482,0.00664
5058.37329,0.00123
5060.30176,0.00552
5062.23023,0.01811
5064.15870,0.02054
5066.08717,0.00818
5068.01564,0.00010
5069.94410,0.01015
5071.87257,0.02804
5073.80104,0.03466
5075.72951,0.02500
5077.65798,0.01281
5079.58645,0.01434
5081.51492,0.02057
5083.44339,0.01421
5085.37185,0.00402
5087.30032,0.00115
5089.22879,0.00452
5091.15726,0.00978
5093.08573,0.01137
5095.01420,0.01127
5096.94267,0.01531
5098.87113,0.02037
5100.79960,0.01587
5102.72807,0.00936
5104.65654,0.01365
5106.58501,0.01944
5108.51348,0.01698
5110.44195,0.01138
5112.37042,0.01146
5114.29888,0.01348
5116.22735,0.01375
5118.15582,0.02194
5120.08429,0.03429
5122.01276,0.03655
5123.94123,0.02640
5125.86970,0.01338
5127.79816,0.01024
5129.72663,0.01314
5131.65510,0.01370
5133.58357,0.01836
5135.51204,0.02187
5137.44051,0.01631
5139.36898,0.01008
5141.29745,0.01251
5143.22591,0.02881
5145.15438,0.04533
5147.08285,0.04859
5149.01132,0.04505
5150.93979,0.03282
5152.86826,0.01902
5154.79673,0.02207
5156.72519,0.03122
5158.65366,0.02896
5160.58213,0.01936
5162.51060,0.00642
5164.43907,-0.00014
5166.36754,0.00890
5168.29601,0.02447
5170.22448,0.03683
5172.15294,0.04141
5174.08141,0.04605
5176.00988,0.05901
5177.93835,0.05895
5179.86682,0.03623
5181.79529,0.02258
5183.72376,0.03031
5185.65222,0.03965
5187.58069,0.04192
5189.50916,0.03899
5191.43763,0.03363
5193.36610,0.03409
5195.29457,0.04252
5197.22304,0.05022
5199.15151,0.05023
5201.07997,0.04672
5203.00844,0.04515
5204.93691,0.04041
5206.86538,0.03042
5208.79385,0.02740
5210.72232,0.02882
5212.65079,0.02125
5214.57925,0.01228
5216.50772,0.01698
5218.43619,0.02707
5220.36466,0.02889
5222.29313,0.03030
5224.22160,0.03848
5226.15007,0.04435
5228.07854,0.04286
5230.00700,0.03936
5231.93547,0.03343
5233.86394,0.02669
5235.79241,0.02083
5237.72088,0.01986
5239.64935,0.03098
5241.57782,0.04001
5243.50628,0.03249
5245.43475,0.02374
5247.36322,0.03699
5249.29169,0.06614
5251.22016,0.07447
5253.14863,0.05171
5255.07710,0.02676
5257.00556,0.01725
5258.93403,0.01391
5260.86250,0.01949
5262.79097,0.03303
5264.71944,0.03182
5266.64791,0.02444
5268.57638,0.02872
5270.50485,0.03276
5272.43331,0.03555
5274.36178,0.04176
5276.29025,0.04642
5278.21872,0.05292
5280.14719,0.06176
5282.07566,0.06294
5284.00413,0.05336
5285.93259,0.03635
5287.86106,0.01175
5289.78953,-0.00511
5291.71800,0.00461
5293.64647,0.02588
5295.57494,0.04517
5297.50341,0.06036
5299.43188,0.06515
5301.36034,0.05554
5303.28881,0.04586
5305.21728,0.05413
5307.14575,0.06258
5309.07422,0.05241
5311.00269,0.03901
5312.93116,0.03876
5314.85962,0.05235
5316.78809,0.07291
5318.71656,0.08734
5320.64503,0.08011
5322.57350,0.06257
5324.50197,0.05989
5326.43044,0.06514
5328.35891,0.06115
5330.28737,0.05789
5332.21584,0.05613
5334.14431,0.03679
5336.07278,0.01388
5338.00125,0.01578
5339.92972,0.03535
5341.85819,0.06087
5343.78665,0.08670
5345.71512,0.09372
5347.64359,0.08437
5349.57206,0.06606
5351.50053,0.04646
5353.42900,0.04316
5355.35747,0.05782
5357.28594,0.07311
5359.21440,0.07244
5361.14287,0.06516
5363.07134,0.06233
5364.99981,0.04743
5366.92828,0.02889
5368.85675,0.02949
5370.78522,0.03582
5372.71368,0.03004
5374.64215,0.02712
5376.57062,0.04053
5378.49909,0.05187
5380.42756,0.05301
5382.35603,0.05317
5384.28450,0.06471
5386.21297,0.08138
5388.14143,0.07742
5390.06990,0.06209
5391.99837,0.05296
5393.92684,0.04751
5395.85531,0.04946
5397.78378,0.06133
5399.71225,0.06782
5401.64071,0.06291
5403.56918,0.05635
5405.49765,0.05832
5407.42612,0.06848
5409.35459,0.07913
5411.28306,0.08019
5413.21153,0.06524
5415.13999,0.05651
5417.06846,0.06355
5418.99693,0.06396
5420.92540,0.05242
5422.85387,0.04464
5424.78234,0.05362
5426.71081,0.07292
5428.63928,0.07528
5430.56774,0.05517
5432.49621,0.04359
5434.42468,0.04799
5436.35315,0.06020
5438.28162,0.08259
5440.21009,0.09598
5442.13856,0.08246
5444.06702,0.06514
5445.99549,0.05573
5447.92396,0.04815
5449.85243,0.05630
5451.78090,0.07688
5453.70937,0.08230
5455.63784,0.07561
5457.56631,0.08085
5459.49477,0.09327
5461.42324,0.08662
5463.35171,0.06144
5465.28018,0.04218
5467.20865,0.02971
5469.13712,0.01388
5471.06559,0.00801
5472.99405,0.02740
5474.92252,0.05837
5476.85099,0.06996
5478.77946,0.05721
5480.70793,0.03746
5482.63640,0.02969
5484.56487,0.03540
5486.49334,0.04605
5488.42180,0.06045
5490.35027,0.07058
5492.27874,0.07315
5494.20721,0.06652
5496.13568,0.05262
5498.06415,0.05269
5499.99262,0.06811
5501.92108,0.08087
5503.84955,0.08541
5505.77802,0.07691
5507.70649,0.07195
5509.63496,0.08456
5511.56343,0.08894
5513.49190,0.07686
5515.42037,0.07162
5517.34883,0.08347
5519.27730,0.09516
5521.20577,0.08891
5523.13424,0.07745
5525.06271,0.08000
5526.99118,0.07905
5528.91965,0.06323
5530.84811,0.04948
5532.77658,0.04261
5534.70505,0.04540
5536.63352,0.06839
5538.56199,0.10527
5540.49046,0.12233
5542.41893,0.10667
5544.34740,0.08735
5546.27586,0.07352
5548.20433,0.06696
5550.13280,0.07552
5552.06127,0.08165
5553.98974,0.07174
5555.91821,0.06320
5557.84668,0.07235
5559.77514,0.07617
5561.70361,0.06024
5563.63208,0.05474
5565.56055,0.07350
5567.48902,0.08756
5569.41749,0.08215
5571.34596,0.08395
5573.27443,0.10221
5575.20289,0.10368
5577.13136,0.08601
5579.05983,0.08534
5580.98830,0.10032
5582.91677,0.09138
5584.84524,0.06821
5586.77371,0.07063
5588.70217,0.08589
5590.63064,0.08124
5592.55911,0.06411
5594.48758,0.05951
5596.41605,0.07081
5598.34452,0.08570
5600.27299,0.09777
5602.20145,0.10342
5604.12992,0.09779
5606.05839,0.08674
5607.98686,0.08336
5609.91533,0.07144
5611.84380,0.04679
5613.77227,0.04505
5615.70074,0.06584
5617.62920,0.09482
5619.55767,0.12373
5621.48614,0.13212
5623.41461,0.12415
5625.34308,0.11346
5627.27155,0.10311
5629.20002,0.09248
5631.12848,0.08244
5633.05695,0.09605
5634.98542,0.13429
5636.91389,0.14109
5638.84236,0.10818
5640.77083,0.08360
5642.69930,0.06712
5644.62777,0.04861
5646.55623,0.04528
5648.48470,0.05668
5650.41317,0.07302
5652.34164,0.08564
5654.27011,0.08766
5656.19858,0.09108
5658.12705,0.10106
5660.05551,0.11157
5661.98398,0.11487
5663.91245,0.09426
5665.84092,0.05874
5667.76939,0.04630
5669.69786,0.07204
5671.62633,0.10814
5673.55480,0.11891
5675.48326,0.10468
5677.41173,0.08332
5679.34020,0.06414
5681.26867,0.05741
5683.19714,0.06004
5685.12561,0.05527
5687.05408,0.04486
5688.98254,0.03960
5690.91101,0.04099
5692.83948,0.05494
5694.76795,0.08273
5696.69642,0.10906
5698.62489,0.12798
5700.55336,0.13142
5702.48183,0.10942
5704.41029,0.08306
5706.33876,0.07119
5708.26723,0.07566
5710.19570,0.08505
5712.12417,0.08056
5714.05264,0.06769
5715.98111,0.05841
5717.90957,0.05771
5719.83804,0.06886
5721.76651,0.07952
5723.69498,0.08096
5725.62345,0.08836
5727.55192,0.10502
5729.48039,0.10286
5731.40886,0.08812
5733.33732,0.09119
5735.26579,0.09905
5737.19426,0.08497
5739.12273,0.06808
5741.05120,0.06623
5742.97967,0.05769
5744.90814,0.04277
5746.83660,0.04190
5748.76507,0.05202
5750.69354,0.06023
5752.62201,0.06009
5754.55048,0.05591
5756.47895,0.06104
5758.40742,0.07916
5760.33588,0.08757
5762.26435,0.07335
5764.19282,0.07189
5766.12129,0.09651
5768.04976,0.10700
5769.97823,0.08865
5771.90670,0.06436
5773.83517,0.05285
5775.76363,0.05788
5777.69210,0.07454
5779.62057,0.08729
5781.54904,0.08480
5783.47751,0.09021
5785.40598,0.12790
5787.33445,0.16407
5789.26291,0.15952
5791.19138,0.12912
5793.11985,0.10286
5795.04832,0.08581
5796.97679,0.06979
5798.90526,0.06893
5800.83373,0.09183
5802.76220,0.11175
5804.69066,0.11159
5806.61913,0.10411
5808.54760,0.09521
5810.47607,0.08443
5812.40454,0.07618
5814.33301,0.07035
5816.26148,0.07560
5818.18994,0.09945
5820.11841,0.12369
5822.04688,0.12344
5823.97535,0.09711
5825.90382,0.07011
5827.83229,0.05754
5829.76076,0.05125
5831.68923,0.05340
5833.61769,0.06074
5835.54616,0.05899
5837.47463,0.06357
5839.40310,0.08137
5841.33157,0.09208
5843.26004,0.09609
5845.18851,0.10188
5847.11697,0.10004
5849.04544,0.08497
5850.97391,0.08198
5852.90238,0.11187
5854.83085,0.14013
5856.75932,0.12768
5858.68779,0.09874
5860.61626,0.08852
5862.54472,0.10296
5864.47319,0.12932
5866.40166,0.13050
5868.33013,0.10725
5870.25860,0.09110
5872.18707,0.08548
5874.11554,0.08727
5876.04400,0.07912
5877.97247,0.05676
5879.90094,0.05402
5881.82941,0.06836
5883.75788,0.07274
5885.68635,0.07045
5887.61482,0.06969
5889.54329,0.06634
5891.47175,0.05995
5893.40022,0.05413
5895.32869,0.06130
5897.25716,0.09461
5899.18563,0.12773
5901.11410,0.13137
5903.04257,0.11878
5904.97103,0.10686
5906.89950,0.10006
5908.82797,0.09779
5910.75644,0.10149
5912.68491,0.10996
5914.61338,0.10957
5916.54185,0.11231
5918.47032,0.12520
5920.39878,0.11152
5922.32725,0.06692
5924.25572,0.03732
5926.18419,0.05330
5928.11266,0.09105
5930.04113,0.09765
5931.96960,0.07790
5933.89806,0.07389
5935.82653,0.07426
5937.75500,0.06251
5939.68347,0.06370
5941.61194,0.06980
5943.54041,0.04597
5945.46888,0.02656
5947.39734,0.05643
5949.32581,0.11246
5951.25428,0.16618
5953.18275,0.19693
5955.11122,0.18313
5957.03969,0.14275
5958.96816,0.11340
5960.89663,0.09992
5962.82509,0.08747
5964.75356,0.07619
5966.68203,0.05766
5968.61050,0.05024
5970.53897,0.07304
5972.46744,0.09817
5974.39591,0.10647
5976.32437,0.09265
5978.25284,0.06447
5980.18131,0.03343
5982.10978,0.00607
5984.03825,0.00542
5985.96672,0.04745
5987.89519,0.09032
5989.82366,0.08724
5991.75212,0.07278
5993.68059,0.07831
5995.60906,0.08096
5997.53753,0.07992
5999.46600,0.09752
6001.39447,0.12077
6003.32294,0.11923
6005.25140,0.11156
6007.17987,0.12073
6009.10834,0.12248
6011.03681,0.10737
6012.96528,0.08507
6014.89375,0.07559
6016.82222,0.08522
6018.75069,0.08028
6020.67915,0.05986
6022.60762,0.05477
6024.53609,0.06143
6026.46456,0.06707
6028.39303,0.07748
6030.32150,0.08457
6032.24997,0.06817
6034.17843,0.07082
6036.10690,0.11960
6038.03537,0.14394
6039.96384,0.12248
6041.89231,0.09504
6043.82078,0.06530
6045.74925,0.03137
6047.67772,0.00107
6049.60618,-0.01368
6051.53465,0.00528
6053.46312,0.03932
6055.39159,0.05667
6057.32006,0.04047
6059.24853,-0.00160
6061.17700,-0.00669
6063.10546,0.03577
6065.03393,0.06337
6066.96240,0.07983
6068.89087,0.09475
6070.81934,0.09131
6072.74781,0.09734
6074.67628,0.11724
6076.60475,0.09600
6078.53321,0.04703
6080.46168,0.04655
6082.39015,0.10099
6084.31862,0.14379
6086.24709,0.12805
6088.17556,0.08714
6090.10403,0.05398
6092.03249,0.02140
6093.96096,0.00615
6095.88943,0.01180
6097.81790,0.02231
6099.74637,0.05020
6101.67484,0.09876
6103.60331,0.12923
6105.53177,0.13653
6107.46024,0.13910
6109.38871,0.09338
6111.31718,0.00924
6113.24565,-0.01196
6115.17412,0.04630
6117.10259,0.11768
6119.03106,0.13935
6120.95952,0.11356
6122.88799,0.09736
6124.81646,0.11120
6126.74493,0.12582
6128.67340,0.11135
6130.60187,0.08298
6132.53034,0.07904
6134.45880,0.09292
6136.38727,0.07096
6138.31574,0.02674
6140.24421,0.03100
6142.17268,0.06582
6144.10115,0.09036
6146.02962,0.12804
6147.95809,0.16543
6149.88655,0.14869
6151.81502,0.06592
6153.74349,-0.00227
6155.67196,0.00489
6157.60043,0.03291
6159.52890,0.04556
6161.45737,0.06227
6163.38583,0.07378
6165.31430,0.07829
6167.24277,0.08795
6169.17124,0.09562
6171.09971,0.10819
6173.02818,0.10670
6174.95665,0.06841
6176.88512,0.05209
6178.81358,0.08216
6180.74205,0.07304
6182.67052,0.01371
6184.59899,-0.00533
6186.52746,0.02038
6188.45593,0.03250
6190.38440,0.02919
6192.31286,0.03813
6194.24133,0.06127
6196.16980,0.06462
6198.09827,0.03507
6200.02674,0.01791
6201.95521,0.06209
6203.88368,0.14993
6205.81215,0.18493
6207.74061,0.12561
6209.66908,0.03986
6211.59755,0.03047
6213.52602,0.08382
6215.45449,0.11181
6217.38296,0.09735
6219.31143,0.09076
6221.23989,0.11624
6223.16836,0.12421
6225.09683,0.09424
6227.02530,0.09033
6228.95377,0.11704
6230.88224,0.11150
6232.81071,0.06229
6234.73918,0.03201
6236.66764,0.06514
6238.59611,0.10230
6240.52458,0.07053
6242.45305,0.03199
6244.38152,0.04638
6246.30999,0.05103
6248.23846,0.03936
6250.16692,0.05711
6252.09539,0.07051
6254.02386,0.06556
6255.95233,0.06873
6257.88080,0.07099
6259.80927,0.07637
6261.73774,0.08116
6263.66621,0.07965
6265.59467,0.09831
6267.52314,0.11033
6269.45161,0.06806
6271.38008,0.01709
6273.30855,0.01324
6275.23702,0.04734
6277.16549,0.08751
6279.09395,0.09068
6281.02242,0.05449
6282.95089,0.04465
6284.87936,0.05230
6286.80783,0.03025
6288.73630,0.02661
6290.66477,0.05208
6292.59323,0.04509
6294.52170,0.03761
6296.45017,0.05903
6298.37864,0.06076
6300.30711,0.03039
6302.23558,0.01497
6304.16405,0.03123
6306.09252,0.02542
6308.02098,0.01183
6309.94945,0.02480
6311.87792,0.02585
6313.80639,0.03205
6315.73486,0.05712
6317.66333,0.06303
6319.59180,0.04663
6321.52026,0.02190
6323.44873,0.01926
6325.37720,0.04461
6327.30567,0.07027
6329.23414,0.07556
6331.16261,0.05538
6333.09108,0.03808
6335.01955,0.02631
6336.94801,0.01912
6338.87648,0.04378
6340.80495,0.06908
6342.73342,0.04893
6344.66189,0.02630
6346.59036,0.05476
6348.51883,0.06464
6350.44729,-0.00771
6352.37576,-0.06404
6354.30423,-0.02635
6356.23270,0.04209
6358.16117,0.05815
6360.08964,0.01920
6362.01811,0.00560
6363.94658,0.03340
6365.87504,0.05484
6367.80351,0.07432
6369.73198,0.08288
6371.66045,0.08414
6373.58892,0.09276
6375.51739,0.06271
6377.44586,0.01743
6379.37432,-0.00377
6381.30279,-0.01609
6383.23126,0.01060
6385.15973,0.09352
6387.08820,0.14227
6389.01667,0.10881
6390.94514,0.03306
6392.87361,-0.01085
6394.80207,0.00096
6396.73054,0.01641
6398.65901,0.03193
6400.58748,0.05760
6402.51595,0.05601
6404.44442,0.03207
6406.37289,0.03750
6408.30135,0.03544
6410.22982,-0.04520
6412.15829,-0.11514
6414.08676,-0.08051
6416.01523,-0.00182
6417.94370,0.05632
6419.87217,0.07684
6421.80064,0.05578
6423.72910,0.00599
6425.65757,-0.02692
6427.58604,-0.01293
6429.51451,0.03828
6431.44298,0.08843
6433.37145,0.09193
6435.29992,0.06847
6437.22838,0.04317
6439.15685,0.02567
6441.08532,0.04167
6443.01379,0.07213
6444.94226,0.07486
6446.87073,0.05387
6448.79920,0.02676
6450.72766,0.03780
6452.65613,0.10197
6454.58460,0.15463
6456.51307,0.15699
6458.44154,0.11047
6460.37001,0.04784
6462.29848,0.02600
6464.22695,0.04028
6466.15541,0.03216
6468.08388,0.00626
6470.01235,0.01911
6471.94082,0.08118
6473.86929,0.14500
6475.79776,0.18135
6477.72623,0.18579
6479.65469,0.16218
6481.58316,0.11262
6483.51163,0.06324
6485.44010,0.05065
6487.36857,0.05613
6489.29704,0.04893
6491.22551,0.03925
6493.15398,0.03351
6495.08244,0.01661
6497.01091,0.01490
6498.93938,0.04800
6500.86785,0.05118
6502.79632,0.00416
6504.72479,0.00206
6506.65326,0.04595
6508.58172,0.05816
6510.51019,0.05247
6512.43866,0.06722
6514.36713,0.09070
6516.29560,0.13574
6518.22407,0.15403
6520.15254,0.08305
6522.08101,-0.01048
6524.00947,-0.03710
6525.93794,0.00397
6527.86641,0.06531
6529.79488,0.10286
6531.72335,0.08831
6533.65182,0.05664
6535.58029,0.06571
6537.50875,0.10338
6539.43722,0.11522
6541.36569,0.10578
6543.29416,0.08963
6545.22263,0.06903
6547.15110,0.06797
6549.07957,0.06466
6551.00804,0.05930
6552.93650,0.07849
6554.86497,0.09306
6556.79344,0.09078
6558.72191,0.06491
6560.65038,0.02050
6562.57885,0.00665
6564.50732,0.02595
6566.43578,0.01089
6568.36425,-0.02949
6570.29272,-0.01977
6572.22119,0.01920
6574.14966,0.05160
6576.07813,0.07859
6578.00660,0.06868
6579.93507,0.03460
6581.86353,0.02486
6583.79200,0.04112
6585.72047,0.06438
6587.64894,0.08275
6589.57741,0.08922
6591.50588,0.09759
6593.43435,0.13218
6595.36281,0.16227
6597.29128,0.13580
6599.21975,0.08712
6601.14822,0.08123
6603.07669,0.09119
6605.00516,0.07217
6606.93363,0.05739
6608.86210,0.06803
6610.79056,0.08165
6612.71903,0.08135
6614.64750,0.06922
6616.57597,0.06638
6618.50444,0.08677
6620.43291,0.09540
6622.36138,0.07122
6624.28984,0.05804
6626.21831,0.07906
6628.14678,0.09959
6630.07525,0.09640
6632.00372,0.09787
6633.93219,0.13072
6635.86066,0.16230
6637.78912,0.16216
6639.71759,0.16525
6641.64606,0.17173
6643.57453,0.16065
6645.50300,0.16408
6647.43147,0.16983
6649.35994,0.13468
6651.28841,0.11728
6653.21687,0.16009
6655.14534,0.18154
6657.07381,0.10717
6659.00228,0.02887
6660.93075,0.01442
6662.85922,0.00960
6664.78769,0.00809
6666.71615,0.02065
6668.64462,0.05137
6670.57309,0.09827
6672.50156,0.09987
6674.43003,0.06684
6676.35850,0.07110
6678.28697,0.08178
6680.21544,0.07876
6682.14390,0.07318
6684.07237,0.02882
6686.00084,-0.03941
6687.92931,-0.04881
6689.85778,-0.00551
6691.78625,0.01620
6693.71472,0.02189
6695.64318,0.02160
6697.57165,0.00860
6699.50012,0.01430
6701.42859,0.04547
6703.35706,0.04767
6705.28553,0.02245
6707.21400,0.00581
6709.14247,-0.04374
6711.07093,-0.08121
6712.99940,-0.03467
6714.92787,0.02548
6716.85634,0.03955
6718.78481,0.02973
6720.71328,0.02605
6722.64175,0.05361
6724.57021,0.06297
6726.49868,0.03724
6728.42715,0.02465
6730.35562,0.00359
6732.28409,-0.04140
6734.21256,-0.04944
6736.14103,0.00416
6738.06950,0.03990
6739.99796,0.01524
6741.92643,0.02180
6743.85490,0.08584
6745.78337,0.11609
6747.71184,0.10795
6749.64031,0.10272
6751.56878,0.09140
6753.49724,0.06467
6755.42571,0.05811
6757.35418,0.06800
6759.28265,0.06465
6761.21112,0.08326
6763.13959,0.11860
6765.06806,0.11409
6766.99653,0.07780
6768.92499,0.02729
6770.85346,-0.03296
6772.78193,-0.05191
6774.71040,-0.00880
6776.63887,0.02345
6778.56734,0.02100
6780.49581,0.02774
6782.42427,0.02083
6784.35274,-0.00410
6786.28121,0.01514
6788.20968,0.10024
6790.13815,0.18564
6792.06662,0.18622
6793.99509,0.13665
6795.92355,0.11100
6797.85202,0.11107
6799.78049,0.12656
6801.70896,0.13294
6803.63743,0.07264
6805.56590,0.00860
6807.49437,0.04569
6809.42284,0.14205
6811.35130,0.20684
6813.27977,0.18053
6815.20824,0.10924
6817.13671,0.06350
6819.06518,0.04763
6820.99365,0.02205
6822.92212,-0.03575
6824.85058,-0.04758
6826.77905,0.00769
6828.70752,0.08416
6830.63599,0.14620
6832.56446,0.15766
6834.49293,0.13937
6836.42140,0.11168
6838.34987,0.08045
6840.27833,0.03720
6842.20680,-0.01758
6844.13527,-0.01693
6846.06374,0.05082
6847.99221,0.08159
6849.92068,0.03641
6851.84915,0.01104
6853.77761,-0.00394
6855.70608,-0.04492
6857.63455,-0.03937
6859.56302,0.02076
6861.49149,0.03901
6863.41996,-0.01015
6865.34843,-0.02774
6867.27690,0.02032
6869.20536,0.07765
6871.13383,0.12726
6873.06230,0.13745
6874.99077,0.07556
6876.91924,0.00901
6878.84771,-0.01809
6880.77618,-0.03080
6882.70464,-0.05331
6884.63311,-0.06856
6886.56158,-0.03681
6888.49005,0.02866
6890.41852,0.05800
6892.34699,0.04844
6894.27546,0.04039
6896.20393,0.01968
6898.13239,0.01751
6900.06086,0.06791
6901.98933,0.08603
6903.91780,0.05027
6905.84627,0.03909
6907.77474,0.07416
6909.70321,0.11376
6911.63167,0.15598
6913.56014,0.16668
6915.48861,0.10793
6917.41708,0.05233
6919.34555,0.00664
6921.27402,-0.02091
6923.20249,0.03839
6925.13096,0.09265
6927.05942,0.07978
6928.98789,0.07640
6930.91636,0.10462
6932.84483,0.08295
6934.77330,0.05444
6936.70177,0.10632
6938.63024,0.18321
6940.55870,0.19565
6942.48717,0.18371
6944.41564,0.17201
6946.34411,0.11146
6948.27258,0.05853
6950.20105,0.08775
6952.12952,0.12298
6954.05799,0.08348
6955.98645,0.05063
6957.91492,0.05185
6959.84339,0.02930
6961.77186,0.05636
6963.70033,0.11802
6965.62880,0.11831
6967.55727,0.11664
6969.48573,0.15656
6971.41420,0.11385
6973.34267,-0.03477
6975.27114,-0.15289
6977.19961,-0.13164
6979.12808,-0.06323
6981.05655,-0.03620
6982.98501,0.03067
6984.91348,0.12535
6986.84195,0.13142
6988.77042,0.07273
6990.69889,0.06603
6992.62736,0.11462
6994.55583,0.12954
6996.48430,0.13138
6998.41276,0.17201
7000.34123,0.18251
7002.26970,0.09022
7004.19817,-0.06070
7006.12664,-0.14820
7008.05511,-0.08494
7009.98358,0.02359
7011.91204,0.08102
7013.84051,0.11005
7015.76898,0.09284
7017.69745,0.04831
7019.62592,0.02496
7021.55439,-0.01360
7023.48286,-0.06370
7025.41133,-0.03470
7027.33979,0.10113
7029.26826,0.17655
7031.19673,0.07437
7033.12520,-0.04920
7035.05367,-0.08816
7036.98214,-0.06651
7038.91061,-0.02398
7040.83907,0.03485
7042.76754,0.12258
7044.69601,0.20124
7046.62448,0.19420
7048.55295,0.14368
7050.48142,0.11560
7052.40989,0.05570
7054.33836,0.03042
7056.26682,0.16832
7058.19529,0.27643
7060.12376,0.16378
7062.05223,0.05546
7063.98070,0.09029
7065.90917,0.16132
7067.83764,0.16867
7069.76610,0.10838
7071.69457,0.05918
7073.62304,0.07294
7075.55151,0.06400
7077.47998,0.05037
7079.40845,0.03653
7081.33692,-0.00841
7083.26539,0.02612
7085.19385,0.09517
7087.12232,0.05262
7089.05079,-0.05858
7090.97926,-0.11519
7092.90773,-0.10457
7094.83620,-0.07754
7096.76467,-0.06169
7098.69313,-0.02359
7100.62160,0.02225
7102.55007,0.05967
7104.47854,0.09785
7106.40701,0.10315
7108.33548,0.07192
7110.26395,0.05843
7112.19242,0.09384
7114.12088,0.11682
7116.04935,0.04055
7117.97782,-0.05354
7119.90629,-0.04955
7121.83476,-0.02371
7123.76323,0.03791
7125.69170,0.12716
7127.62016,0.11486
7129.54863,0.01938
7131.47710,-0.05650
7133.40557,-0.08433
7135.33404,-0.04543
7137.26251,0.04472
7139.19098,0.11963
7141.11944,0.15545
7143.04791,0.19210
7144.97638,0.20040
7146.90485,0.19226
7148.83332,0.28068
7150.76179,0.43449
7152.69026,0.52495
7154.61873,0.41608
7156.54719,0.18231
7158.47566,0.01070
7160.40413,-0.04690
7162.33260,-0.00796
7164.26107,0.06440
7166.18954,0.09654
7168.11801,0.07643
7170.04647,0.05261
7171.97494,0.04582
7173.90341,0.05567
7175.83188,0.07881
7177.76035,0.04663
7179.68882,-0.05293
7181.61729,-0.14598
7183.54576,-0.18803
7185.47422,-0.15830
7187.40269,-0.07559
7189.33116,0.02377
7191.25963,0.11039
7193.18810,0.08355
7195.11657,-0.04259
7197.04504,-0.09335
7198.97350,-0.06362
7200.90197,-0.04431
7202.83044,-0.04852
7204.75891,-0.07921
7206.68738,-0.07395
7208.61585,-0.00437
7210.54432,0.09272
7212.47279,0.16177
7214.40125,0.14119
7216.32972,0.10026
7218.25819,0.14273
7220.18666,0.10660
7222.11513,-0.00149
7224.04360,-0.04615
7225.97207,-0.04524
7227.90053,-0.05326
7229.82900,-0.06415
7231.75747,-0.05201
7233.68594,-0.01781
7235.61441,0.05786
7237.54288,0.19221
7239.47135,0.28125
7241.39982,0.24875
7243.32828,0.14950
7245.25675,0.03655
7247.18522,-0.09155
7249.11369,-0.13952
7251.04216,-0.00674
7252.97063,0.25205
7254.89910,0.32392
7256.82756,0.18385
7258.75603,0.05201
7260.68450,0.00245
7262.61297,0.03044
7264.54144,0.07574
7266.46991,0.09073
7268.39838,0.10227
7270.32685,0.03213
7272.25531,-0.12360
7274.18378,-0.15838
7276.11225,-0.08736
7278.04072,0.03040
7279.96919,0.18649
7281.89766,0.24185
7283.82613,0.22722
7285.75459,0.23950
7287.68306,0.21720
7289.61153,0.17690
7291.54000,0.17193
7293.46847,0.12264
7295.39694,0.06813
7297.32541,0.09434
7299.25387,0.10396
7301.18234,0.02009
7303.11081,-0.08509
7305.03928,-0.12537
7306.96775,-0.11369
7308.89622,-0.04977
7310.82469,0.04891
7312.75316,0.05449
7314.68162,-0.02400
7316.61009,-0.05581
7318.53856,0.02070
7320.46703,0.14508
7322.39550,0.22391
7324.32397,0.15921
7326.25244,0.00681
7328.18090,-0.06344
7330.10937,0.08058
7332.03784,0.22799
7333.96631,0.17173
7335.89478,0.00986
7337.82325,-0.07206
7339.75172,0.08542
7341.68019,0.29961
7343.60865,0.26877
7345.53712,0.08439
7347.46559,-0.08817
7349.39406,-0.12455
7351.32253,-0.01587
7353.25100,0.11719
7355.17947,0.14705
7357.10793,0.06621
7359.03640,-0.07104
7360.96487,-0.16534
7362.89334,-0.13822
7364.82181,0.03996
7366.75028,0.22520
7368.67875,0.22318
7370.60722,0.14963
7372.53568,0.15946
7374.46415,0.13997
7376.39262,0.01822
7378.32109,-0.02472
7380.24956,0.03038
7382.17803,0.09968
7384.10650,0.13083
7386.03496,0.13397
7387.96343,0.09045
7389.89190,0.06813
7391.82037,0.08210
7393.74884,0.02546
7395.67731,-0.03065
7397.60578,0.04044
7399.53425,0.15799
7401.46271,0.24602
7403.39118,0.26141
7405.31965,0.19188
7407.24812,0.18542
7409.17659,0.26003
7411.10506,0.30393
7413.03353,0.29699
7414.96199,0.22636
7416.89046,0.11357
7418.81893,0.11379
7420.74740,0.21511
7422.67587,0.20513
7424.60434,0.13937
7426.53281,0.17373
7428.46128,0.29560
7430.38974,0.32332
7432.31821,0.21588
7434.24668,0.09346
7436.17515,-0.02809
7438.10362,-0.13931
7440.03209,-0.16728
7441.96056,-0.08712
7443.88902,0.02457
7445.81749,0.09118
7447.74596,0.07504
7449.67443,-0.01410
7451.60290,-0.00234
7453.53137,0.14108
7455.45984,0.20054
7457.38831,0.16260
7459.31677,0.02988
7461.24524,-0.13486
7463.17371,-0.17249
7465.10218,-0.18361
7467.03065,-0.19301
7468.95912,-0.07092
7470.88759,0.13351
7472.81605,0.20894
7474.74452,0.14336
7476.67299,0.11261
7478.60146,0.13314
7480.52993,0.10343
7482.45840,0.06119
7484.38687,0.07021
7486.31533,0.16294
7488.24380,0.30858
7490.17227,0.32842
7492.10074,0.19904
7494.02921,0.06498
7495.95768,-0.00595
7497.88615,0.04711
