399.19301,1.32738
401.12148,0.50533
403.04995,-0.00794
404.97842,-0.15766
406.90689,-0.03565
408.83536,0.04881
410.76382,0.03752
412.69229,0.04366
414.62076,0.08472
416.54923,0.08335
418.47770,0.03655
420.40617,0.01666
422.33464,0.05446
424.26311,0.07655
426.19157,0.04167
428.12004,0.01158
430.04851,0.04336
431.97698,0.12171
433.90545,0.12862
435.83392,0.05979
437.76239,0.02669
439.69085,0.12181
441.61932,0.22732
443.54779,0.14785
445.47626,0.05398
447.40473,0.05163
449.33320,0.02015
451.26167,-0.02946
453.19013,-0.02701
455.11860,0.02102
457.04707,0.09587
458.97554,0.11717
460.90401,0.05739
462.83248,0.04335
464.76095,0.11708
466.68942,0.19063
468.61788,0.18822
470.54635,0.14239
472.47482,0.12436
474.40329,0.14058
476.33176,0.13881
478.26023,0.12997
480.18870,0.15341
482.11716,0.19803
484.04563,0.18249
485.97410,0.11347
487.90257,0.07508
489.83104,0.07695
491.75951,0.10182
493.68798,0.12445
495.61645,0.13591
497.54491,0.14646
499.47338,0.14529
501.40185,0.12445
503.33032,0.09131
505.25879,0.08055
507.18726,0.09640
509.11573,0.07656
511.04419,0.01929
512.97266,0.01842
514.90113,0.09193
516.82960,0.14583
518.75807,0.12276
520.68654,0.08173
522.61501,0.09052
524.54348,0.12004
526.47194,0.10711
528.40041,0.06362
530.32888,0.05166
532.25735,0.07058
534.18582,0.04888
536.11429,-0.00398
538.04276,0.01369
539.97122,0.11324
541.89969,0.18265
543.82816,0.15982
545.75663,0.11237
547.68510,0.10681
549.61357,0.14237
551.54204,0.22707
553.47051,0.32106
555.39897,0.29940
557.32744,0.19138
559.25591,0.11699
561.18438,0.07608
563.11285,0.06778
565.04132,0.09647
566.96979,0.11585
568.89825,0.09905
570.82672,0.07649
572.75519,0.09256
574.68366,0.12953
576.61213,0.12055
578.54060,0.08000
580.46907,0.07099
582.39754,0.09857
584.32600,0.11756
586.25447,0.10812
588.18294,0.10357
590.11141,0.11652
592.03988,0.11145
593.96835,0.08691
595.89682,0.08122
597.82528,0.10701
599.75375,0.14358
601.68222,0.14843
603.61069,0.11891
605.53916,0.10157
607.46763,0.11062
609.39610,0.11486
611.32456,0.08964
613.25303,0.07249
615.18150,0.08958
617.10997,0.09279
619.03844,0.07160
620.96691,0.07367
622.89538,0.10234
624.82385,0.12014
626.75231,0.10371
628.68078,0.07257
630.60925,0.07682
632.53772,0.11742
634.46619,0.14617
636.39466,0.14140
638.32313,0.11742
640.25159,0.09447
642.18006,0.08230
644.10853,0.07973
646.03700,0.08908
647.96547,0.10488
649.89394,0.10499
651.82241,0.08610
653.75088,0.06967
655.67934,0.08376
657.60781,0.12389
659.53628,0.14451
661.46475,0.12269
663.39322,0.09265
665.32169,0.09276
667.25016,0.10028
669.17862,0.07662
671.10709,0.07713
673.03556,0.10161
674.96403,0.10984
676.89250,0.09538
678.82097,0.08580
680.74944,0.09624
682.67791,0.11275
684.60637,0.10962
686.53484,0.09469
688.46331,0.09402
690.39178,0.09510
692.32025,0.08691
694.24872,0.08750
696.17719,0.10596
698.10565,0.12689
700.03412,0.12983
701.96259,0.11353
703.89106,0.09338
705.81953,0.08394
707.74800,0.08944
709.67647,0.09625
711.60494,0.09796
713.53340,0.10415
715.46187,0.11209
717.39034,0.11298
719.31881,0.10835
721.24728,0.10992
723.17575,0.11638
725.10422,0.11636
727.03268,0.11189
728.96115,0.11041
730.88962,0.11576
732.81809,0.11898
734.74656,0.10725
736.67503,0.09349
738.60350,0.09783
740.53197,0.11059
742.46043,0.11340
744.38890,0.10950
746.31737,0.10978
748.24584,0.10936
750.17431,0.10236
752.10278,0.09620
754.03125,0.10083
755.95971,0.11847
757.88818,0.13276
759.81665,0.12978
761.74512,0.10897
763.67359,0.08472
765.60206,0.07873
767.53053,0.08815
769.45900,0.10007
771.38746,0.11069
773.31593,0.11653
775.24440,0.11220
777.17287,0.10155
779.10134,0.09796
781.02981,0.10686
782.95828,0.11566
784.88674,0.11419
786.81521,0.11637
788.74368,0.12991
790.67215,0.13651
792.60062,0.12438
794.52909,0.10805
796.45756,0.10849
798.38602,0.12364
800.31449,0.13167
802.24296,0.12606
804.17143,0.12482
806.09990,0.13141
808.02837,0.12525
809.95684,0.09986
811.88531,0.08740
813.81377,0.10930
815.74224,0.13888
817.67071,0.14730
819.59918,0.13476
821.52765,0.11837
823.45612,0.11877
825.38459,0.13112
827.31305,0.13378
829.24152,0.13490
831.16999,0.14375
833.09846,0.14240
835.02693,0.12431
836.95540,0.10876
838.88387,0.11206
840.81234,0.13092
842.74080,0.14063
844.66927,0.12579
846.59774,0.11000
848.52621,0.10647
850.45468,0.10432
852.38315,0.10554
854.31162,0.11374
856.24008,0.12187
858.16855,0.12623
860.09702,0.12345
862.02549,0.11256
863.95396,0.10647
865.88243,0.11306
867.81090,0.13104
869.73937,0.15715
871.66783,0.17044
873.59630,0.15725
875.52477,0.13737
877.45324,0.12601
879.38171,0.12128
881.31018,0.12144
883.23865,0.12043
885.16711,0.11527
887.09558,0.11393
889.02405,0.12203
890.95252,0.12794
892.88099,0.12044
894.80946,0.10520
896.73793,0.10258
898.66640,0.11802
900.59486,0.12418
902.52333,0.11429
904.45180,0.11030
906.38027,0.11511
908.30874,0.11403
910.23721,0.10670
912.16568,0.10693
914.09414,0.12030
916.02261,0.13542
917.95108,0.13253
919.87955,0.11777
921.80802,0.11577
923.73649,0.12460
925.66496,0.12316
927.59343,0.11457
929.52189,0.11729
931.45036,0.12835
933.37883,0.13494
935.30730,0.13233
937.23577,0.12643
939.16424,0.12627
941.09271,0.13173
943.02117,0.13552
944.94964,0.13733
946.87811,0.13950
948.80658,0.13705
950.73505,0.13030
952.66352,0.12290
954.59199,0.11964
956.52045,0.12483
958.44892,0.12859
960.37739,0.12254
962.30586,0.11814
964.23433,0.12208
966.16280,0.12613
968.09127,0.12643
970.01974,0.12565
971.94820,0.12987
973.87667,0.13480
975.80514,0.12777
977.73361,0.11635
979.66208,0.11857
981.59055,0.12871
983.51902,0.13092
985.44748,0.12880
987.37595,0.13015
989.30442,0.13102
991.23289,0.12595
993.16136,0.12050
995.08983,0.12559
997.01830,0.14255
998.94677,0.15537
1000.87523,0.15075
1002.80370,0.14109
1004.73217,0.13961
1006.66064,0.14189
1008.58911,0.14298
1010.51758,0.13876
1012.44605,0.13020
1014.37451,0.13038
1016.30298,0.13771
1018.23145,0.14001
1020.15992,0.14137
1022.08839,0.14619
1024.01686,0.14852
1025.94533,0.14589
1027.87380,0.14473
1029.80226,0.14485
1031.73073,0.14159
1033.65920,0.13866
1035.58767,0.13538
1037.51614,0.13306
1039.44461,0.14146
1041.37308,0.15391
1043.30154,0.15443
1045.23001,0.14820
1047.15848,0.14719
1049.08695,0.14557
1051.01542,0.13507
1052.94389,0.12677
1054.87236,0.13369
1056.80083,0.15092
1058.72929,0.16258
1060.65776,0.15720
1062.58623,0.14440
1064.51470,0.13787
1066.44317,0.13585
1068.37164,0.13336
1070.30011,0.13412
1072.22857,0.13983
1074.15704,0.14365
1076.08551,0.14307
1078.01398,0.14116
1079.94245,0.14344
1081.87092,0.15004
1083.79939,0.15272
1085.72786,0.14859
1087.65632,0.14412
1089.58479,0.14234
1091.51326,0.13932
1093.44173,0.13454
1095.37020,0.13284
1097.29867,0.13727
1099.22714,0.14433
1101.15560,0.14856
1103.08407,0.15019
1105.01254,0.15704
1106.94101,0.16590
1108.86948,0.16391
1110.79795,0.15601
1112.72642,0.15357
1114.65489,0.15715
1116.58335,0.16224
1118.51182,0.15974
1120.44029,0.14511
1122.36876,0.13310
1124.29723,0.13701
1126.22570,0.14648
1128.15417,0.14798
1130.08263,0.14592
1132.01110,0.14790
1133.93957,0.14589
1135.86804,0.13570
1137.79651,0.13215
1139.72498,0.14255
1141.65345,0.15291
1143.58191,0.15271
1145.51038,0.14790
1147.43885,0.14687
1149.36732,0.14879
1151.29579,0.14849
1153.22426,0.14883
1155.15273,0.15457
1157.08120,0.16128
1159.00966,0.16064
1160.93813,0.15358
1162.86660,0.15045
1164.79507,0.15359
1166.72354,0.15513
1168.65201,0.15352
1170.58048,0.15365
1172.50894,0.15504
1174.43741,0.15500
1176.36588,0.15317
1178.29435,0.15084
1180.22282,0.15059
1182.15129,0.15149
1184.07976,0.14980
1186.00823,0.14762
1187.93669,0.15114
1189.86516,0.15694
1191.79363,0.15598
1193.72210,0.15040
1195.65057,0.14910
1197.57904,0.15311
1199.50751,0.15712
1201.43597,0.15719
1203.36444,0.15501
1205.29291,0.15401
1207.22138,0.15281
1209.14985,0.15053
1211.07832,0.14922
1213.00679,0.15221
1214.93526,0.15775
1216.86372,0.15851
1218.79219,0.15334
1220.72066,0.14883
1222.64913,0.15018
1224.57760,0.15304
1226.50607,0.15273
1228.43454,0.15371
1230.36300,0.16019
1232.29147,0.16581
1234.21994,0.16199
1236.14841,0.15472
1238.07688,0.15387
1240.00535,0.15777
1241.93382,0.16056
1243.86229,0.15909
1245.79075,0.15571
1247.71922,0.15815
1249.64769,0.16426
1251.57616,0.16294
1253.50463,0.15674
1255.43310,0.15749
1257.36157,0.16275
1259.29003,0.16203
1261.21850,0.15934
1263.14697,0.16285
1265.07544,0.16593
1267.00391,0.15996
1268.93238,0.15204
1270.86085,0.15264
1272.78932,0.15794
1274.71778,0.16048
1276.64625,0.16160
1278.57472,0.16447
1280.50319,0.16703
1282.43166,0.16820
1284.36013,0.16901
1286.28860,0.16817
1288.21706,0.16582
1290.14553,0.16495
1292.07400,0.16517
1294.00247,0.16287
1295.93094,0.16116
1297.85941,0.16291
1299.78788,0.16041
1301.71634,0.15035
1303.64481,0.14307
1305.57328,0.14681
1307.50175,0.15636
1309.43022,0.16184
1311.35869,0.16318
1313.28716,0.16715
1315.21563,0.17116
1317.14409,0.16905
1319.07256,0.16311
1321.00103,0.15890
1322.92950,0.15872
1324.85797,0.15976
1326.78644,0.16090
1328.71491,0.16454
1330.64337,0.16801
1332.57184,0.16864
1334.50031,0.16837
1336.42878,0.16620
1338.35725,0.16330
1340.28572,0.15954
1342.21419,0.14855
1344.14266,0.13627
1346.07112,0.13362
1347.99959,0.14220
1349.92806,0.15427
1351.85653,0.16072
1353.78500,0.16210
1355.71347,0.16331
1357.64194,0.16425
1359.57040,0.16653
1361.49887,0.17191
1363.42734,0.17291
1365.35581,0.16719
1367.28428,0.16377
1369.21275,0.16568
1371.14122,0.17096
1373.06969,0.17646
1374.99815,0.17447
1376.92662,0.16642
1378.85509,0.16273
1380.78356,0.16498
1382.71203,0.16883
1384.64050,0.17257
1386.56897,0.17749
1388.49743,0.18071
1390.42590,0.17930
1392.35437,0.17537
1394.28284,0.17401
1396.21131,0.17986
1398.13978,0.18528
1400.06825,0.18173
1401.99672,0.17539
1403.92518,0.17391
1405.85365,0.17596
1407.78212,0.17876
1409.71059,0.17908
1411.63906,0.17388
1413.56753,0.17024
1415.49600,0.17434
1417.42446,0.18075
1419.35293,0.18228
1421.28140,0.18217
1423.20987,0.18276
1425.13834,0.17901
1427.06681,0.17409
1428.99528,0.17618
1430.92375,0.18115
1432.85221,0.18211
1434.78068,0.18231
1436.70915,0.18195
1438.63762,0.18043
1440.56609,0.17965
1442.49456,0.17896
1444.42303,0.18042
1446.35149,0.18555
1448.27996,0.18724
1450.20843,0.18229
1452.13690,0.17960
1454.06537,0.18296
1455.99384,0.19317
1457.92231,0.20201
1459.85077,0.19606
1461.77924,0.19124
1463.70771,0.19202
1465.63618,0.18967
1467.56465,0.18566
1469.49312,0.18937
1471.42159,0.19920
1473.35006,0.20395
1475.27852,0.19950
1477.20699,0.19545
1479.13546,0.19297
1481.06393,0.18980
1482.99240,0.18487
1484.92087,0.18159
1486.84934,0.18571
1488.77780,0.19572
1490.70627,0.19806
1492.63474,0.19412
1494.56321,0.19466
1496.49168,0.19620
1498.42015,0.19112
1500.34862,0.18607
1502.27709,0.18797
1504.20555,0.20204
1506.13402,0.23096
1508.06249,0.22438
1509.99096,0.19192
1511.91943,0.18182
1513.84790,0.18812
1515.77637,0.19904
1517.70483,0.20622
1519.63330,0.21067
1521.56177,0.21343
1523.49024,0.20749
1525.41871,0.20088
1527.34718,0.19588
1529.27565,0.19165
1531.20412,0.19411
1533.13258,0.20052
1535.06105,0.19952
1536.98952,0.20135
1538.91799,0.21789
1540.84646,0.23362
1542.77493,0.22661
1544.70340,0.21285
1546.63186,0.20125
1548.56033,0.19819
1550.48880,0.19953
1552.41727,0.20247
1554.34574,0.21342
1556.27421,0.23107
1558.20268,0.24081
1560.13115,0.21470
1562.05961,0.19648
1563.98808,0.19456
1565.91655,0.19428
1567.84502,0.19240
1569.77349,0.19291
1571.70196,0.19564
1573.63043,0.20029
1575.55889,0.20454
1577.48736,0.19951
1579.41583,0.19135
1581.34430,0.18778
1583.27277,0.18654
1585.20124,0.18498
1587.12971,0.18411
1589.05818,0.18660
1590.98664,0.18988
1592.91511,0.18971
1594.84358,0.18825
1596.77205,0.18684
1598.70052,0.18501
1600.62899,0.18476
1602.55746,0.18616
1604.48592,0.18606
1606.41439,0.18482
1608.34286,0.18453
1610.27133,0.18465
1612.19980,0.18831
1614.12827,0.19759
1616.05674,0.20404
1617.98521,0.19741
1619.91367,0.19324
1621.84214,0.19939
1623.77061,0.20590
1625.69908,0.20250
1627.62755,0.19508
1629.55602,0.19132
1631.48449,0.19365
1633.41295,0.20151
1635.34142,0.21129
1637.26989,0.20874
1639.19836,0.19953
1641.12683,0.19409
1643.05530,0.19368
1644.98377,0.19985
1646.91223,0.20828
1648.84070,0.20856
1650.76917,0.20968
1652.69764,0.21587
1654.62611,0.21203
1656.55458,0.20403
1658.48305,0.19999
1660.41152,0.19630
1662.33998,0.19423
1664.26845,0.19903
1666.19692,0.20506
1668.12539,0.20879
1670.05386,0.21000
1671.98233,0.20860
1673.91080,0.20715
1675.83926,0.20323
1677.76773,0.19856
1679.69620,0.19962
1681.62467,0.20891
1683.55314,0.22087
1685.48161,0.21445
1687.41008,0.20347
1689.33855,0.20027
1691.26701,0.19807
1693.19548,0.19782
1695.12395,0.20561
1697.05242,0.21849
1698.98089,0.22410
1700.90936,0.21660
1702.83783,0.20872
1704.76629,0.20827
1706.69476,0.20578
1708.62323,0.19871
1710.55170,0.19504
1712.48017,0.19804
1714.40864,0.20666
1716.33711,0.21145
1718.26558,0.20082
1720.19404,0.19201
1722.12251,0.19183
1724.05098,0.19154
1725.97945,0.18763
1727.90792,0.18700
1729.83639,0.19434
1731.76486,0.20606
1733.69332,0.21348
1735.62179,0.20937
1737.55026,0.20597
1739.47873,0.20616
1741.40720,0.20334
1743.33567,0.20039
1745.26414,0.20348
1747.19261,0.20959
1749.12107,0.21192
1751.04954,0.20467
1752.97801,0.19576
1754.90648,0.19456
1756.83495,0.19550
1758.76342,0.19310
1760.69189,0.19238
1762.62035,0.19236
1764.54882,0.18987
1766.47729,0.18971
1768.40576,0.19391
1770.33423,0.20239
1772.26270,0.20900
1774.19117,0.20277
1776.11964,0.19356
1778.04810,0.19211
1779.97657,0.19737
1781.90504,0.19986
1783.83351,0.19506
1785.76198,0.18882
1787.69045,0.18941
1789.61892,0.19825
1791.54738,0.20590
1793.47585,0.20139
1795.40432,0.19562
1797.33279,0.19632
1799.26126,0.19778
1801.18973,0.19565
1803.11820,0.19258
1805.04666,0.19248
1806.97513,0.19416
1808.90360,0.19451
1810.83207,0.19266
1812.76054,0.19047
1814.68901,0.18883
1816.61748,0.18663
1818.54595,0.18477
1820.47441,0.18530
1822.40288,0.18977
1824.33135,0.19390
1826.25982,0.19239
1828.18829,0.19202
1830.11676,0.19509
1832.04523,0.19472
1833.97369,0.19224
1835.90216,0.19089
1837.83063,0.19050
1839.75910,0.19068
1841.68757,0.19138
1843.61604,0.19337
1845.54451,0.19523
1847.47298,0.19430
1849.40144,0.19138
1851.32991,0.18863
1853.25838,0.18866
1855.18685,0.19005
1857.11532,0.18972
1859.04379,0.18906
1860.97226,0.18980
1862.90072,0.19185
1864.82919,0.19626
1866.75766,0.20193
1868.68613,0.20269
1870.61460,0.19735
1872.54307,0.19303
1874.47154,0.19199
1876.40001,0.19221
1878.32847,0.19170
1880.25694,0.19113
1882.18541,0.19003
1884.11388,0.18690
1886.04235,0.18572
1887.97082,0.18984
1889.89929,0.19356
1891.82775,0.19252
1893.75622,0.19131
1895.68469,0.19120
1897.61316,0.18885
1899.54163,0.18624
1901.47010,0.18708
1903.39857,0.18961
1905.32704,0.19139
1907.25550,0.19269
1909.18397,0.19347
1911.11244,0.19368
1913.04091,0.19475
1914.96938,0.19719
1916.89785,0.19923
1918.82632,0.19809
1920.75478,0.19523
1922.68325,0.19336
1924.61172,0.19143
1926.54019,0.18981
1928.46866,0.19059
1930.39713,0.19242
1932.32560,0.19108
1934.25407,0.18744
1936.18253,0.18755
1938.11100,0.19249
1940.03947,0.19723
1941.96794,0.19840
1943.89641,0.19691
1945.82488,0.19448
1947.75335,0.19199
1949.68181,0.19078
1951.61028,0.19118
1953.53875,0.19239
1955.46722,0.19330
1957.39569,0.19143
1959.32416,0.18726
1961.25263,0.18652
1963.18110,0.19104
1965.10956,0.19497
1967.03803,0.19357
1968.96650,0.19007
1970.89497,0.18941
1972.82344,0.19121
1974.75191,0.19349
1976.68038,0.19530
1978.60884,0.19571
1980.53731,0.19429
1982.46578,0.19151
1984.39425,0.18993
1986.32272,0.19193
1988.25119,0.19423
1990.17966,0.19464
1992.10812,0.19422
1994.03659,0.19277
1995.96506,0.19233
1997.89353,0.19410
1999.82200,0.19524
2001.75047,0.19410
2003.67894,0.19277
2005.60741,0.19184
2007.53587,0.19142
2009.46434,0.19317
2011.39281,0.19634
2013.32128,0.19773
2015.24975,0.19568
2017.17822,0.19302
2019.10669,0.19227
2021.03515,0.19245
2022.96362,0.19187
2024.89209,0.18982
2026.82056,0.18736
2028.74903,0.18639
2030.67750,0.18850
2032.60597,0.19154
2034.53444,0.19213
2036.46290,0.19254
2038.39137,0.19424
2040.31984,0.19314
2042.24831,0.19034
2044.17678,0.19090
2046.10525,0.19370
2048.03372,0.19515
2049.96218,0.19354
2051.89065,0.19106
2053.81912,0.19142
2055.74759,0.19245
2057.67606,0.19097
2059.60453,0.18972
2061.53300,0.19119
2063.46147,0.19346
2065.38993,0.19451
2067.31840,0.19535
2069.24687,0.19677
2071.17534,0.19741
2073.10381,0.19743
2075.03228,0.19741
2076.96075,0.19727
2078.88921,0.19696
2080.81768,0.19600
2082.74615,0.19505
2084.67462,0.19512
2086.60309,0.19631
2088.53156,0.19766
2090.46003,0.19733
2092.38850,0.19646
2094.31696,0.19750
2096.24543,0.19929
2098.17390,0.19903
2100.10237,0.19533
2102.03084,0.19191
2103.95931,0.19329
2105.88778,0.19656
2107.81624,0.19680
2109.74471,0.19396
2111.67318,0.19088
2113.60165,0.19021
2115.53012,0.19160
2117.45859,0.19284
2119.38706,0.19501
2121.31553,0.19843
2123.24399,0.19907
2125.17246,0.19746
2127.10093,0.19681
2129.02940,0.19661
2130.95787,0.19610
2132.88634,0.19454
2134.81481,0.19404
2136.74327,0.19724
2138.67174,0.19933
2140.60021,0.19869
2142.52868,0.19856
2144.45715,0.19886
2146.38562,0.19926
2148.31409,0.19881
2150.24255,0.19761
2152.17102,0.19709
2154.09949,0.19739
2156.02796,0.19711
2157.95643,0.19551
2159.88490,0.19537
2161.81337,0.19788
2163.74184,0.19987
2165.67030,0.19881
2167.59877,0.19673
2169.52724,0.19660
2171.45571,0.19768
2173.38418,0.19747
2175.31265,0.19625
2177.24112,0.19709
2179.16958,0.20002
2181.09805,0.20072
2183.02652,0.19754
2184.95499,0.19509
2186.88346,0.19627
2188.81193,0.19787
2190.74040,0.19584
2192.66887,0.19213
2194.59733,0.19205
2196.52580,0.19499
2198.45427,0.19727
2200.38274,0.19749
2202.31121,0.19738
2204.23968,0.19858
2206.16815,0.19849
2208.09661,0.19577
2210.02508,0.19381
2211.95355,0.19427
2213.88202,0.19470
2215.81049,0.19426
2217.73896,0.19494
2219.66743,0.19655
2221.59590,0.19654
2223.52436,0.19492
2225.45283,0.19480
2227.38130,0.19720
2229.30977,0.19892
2231.23824,0.19808
2233.16671,0.19730
2235.09518,0.19813
2237.02364,0.19947
2238.95211,0.19969
2240.88058,0.19807
2242.80905,0.19651
2244.73752,0.19691
2246.66599,0.19662
2248.59446,0.19469
2250.52293,0.19621
2252.45139,0.20097
2254.37986,0.20197
2256.30833,0.19799
2258.23680,0.19405
2260.16527,0.19274
2262.09374,0.19346
2264.02221,0.19515
2265.95067,0.19645
2267.87914,0.19620
2269.80761,0.19639
2271.73608,0.19854
2273.66455,0.20002
2275.59302,0.20044
2277.52149,0.20090
2279.44996,0.19990
2281.37842,0.19675
2283.30689,0.19366
2285.23536,0.19327
2287.16383,0.19473
2289.09230,0.19545
2291.02077,0.19519
2292.94924,0.19441
2294.87770,0.19352
2296.80617,0.19383
2298.73464,0.19329
2300.66311,0.19105
2302.59158,0.19040
2304.52005,0.19066
2306.44852,0.18929
2308.37699,0.18683
2310.30545,0.18610
2312.23392,0.18808
2314.16239,0.18870
2316.09086,0.18359
2318.01933,0.17763
2319.94780,0.17982
2321.87627,0.18417
2323.80473,0.18122
2325.73320,0.17545
2327.66167,0.17241
2329.59014,0.17268
2331.51861,0.17273
2333.44708,0.17159
2335.37555,0.17488
2337.30401,0.18063
2339.23248,0.17914
2341.16095,0.17131
2343.08942,0.17161
2345.01789,0.18267
2346.94636,0.18796
2348.87483,0.18563
2350.80330,0.18207
2352.73176,0.18166
2354.66023,0.18228
2356.58870,0.16950
2358.51717,0.15399
2360.44564,0.15681
2362.37411,0.16392
2364.30258,0.16665
2366.23104,0.17160
2368.15951,0.17441
2370.08798,0.17256
2372.01645,0.17298
2373.94492,0.17682
2375.87339,0.18162
2377.80186,0.18726
2379.73033,0.19200
2381.65879,0.19423
2383.58726,0.19629
2385.51573,0.19929
2387.44420,0.20075
2389.37267,0.19817
2391.30114,0.19312
2393.22961,0.19126
2395.15807,0.19415
2397.08654,0.19641
2399.01501,0.19473
2400.94348,0.19404
2402.87195,0.19744
2404.80042,0.19854
2406.72889,0.19552
2408.65736,0.19511
2410.58582,0.19838
2412.51429,0.20015
2414.44276,0.19872
2416.37123,0.19704
2418.29970,0.19744
2420.22817,0.20023
2422.15664,0.20267
2424.08510,0.20116
2426.01357,0.19823
2427.94204,0.19757
2429.87051,0.19851
2431.79898,0.19932
2433.72745,0.20066
2435.65592,0.20291
2437.58439,0.20302
2439.51285,0.20066
2441.44132,0.19806
2443.36979,0.19632
2445.29826,0.19689
2447.22673,0.19931
2449.15520,0.20199
2451.08367,0.20511
2453.01213,0.20682
2454.94060,0.20485
2456.86907,0.20136
2458.79754,0.20004
2460.72601,0.20270
2462.65448,0.20461
2464.58295,0.20117
2466.51142,0.19769
2468.43988,0.19841
2470.36835,0.20062
2472.29682,0.20189
2474.22529,0.20155
2476.15376,0.20096
2478.08223,0.20336
2480.01070,0.20628
2481.93916,0.20479
2483.86763,0.20152
2485.79610,0.20065
2487.72457,0.20088
2489.65304,0.20070
2491.58151,0.20141
2493.50998,0.20271
2495.43844,0.20310
2497.36691,0.20201
2499.29538,0.20036
2501.22385,0.19927
2503.15232,0.19917
2505.08079,0.19973
2507.00926,0.19909
2508.93773,0.19833
2510.86619,0.19953
2512.79466,0.20195
2514.72313,0.20286
2516.65160,0.20152
2518.58007,0.20173
2520.50854,0.20394
2522.43701,0.20453
2524.36547,0.20321
2526.29394,0.20260
2528.22241,0.20327
2530.15088,0.20403
2532.07935,0.20331
2534.00782,0.20217
2535.93629,0.20393
2537.86476,0.20569
2539.79322,0.20380
2541.72169,0.20193
2543.65016,0.20323
2545.57863,0.20564
2547.50710,0.20557
2549.43557,0.20302
2551.36404,0.20309
2553.29250,0.20657
2555.22097,0.20773
2557.14944,0.20519
2559.07791,0.20231
2561.00638,0.20137
2562.93485,0.20227
2564.86332,0.20245
2566.79179,0.20063
2568.72025,0.20039
2570.64872,0.20246
2572.57719,0.20122
2574.50566,0.19806
2576.43413,0.19978
2578.36260,0.20423
2580.29107,0.20615
2582.21953,0.20538
2584.14800,0.20301
2586.07647,0.20124
2588.00494,0.20134
2589.93341,0.20142
2591.86188,0.20187
2593.79035,0.20426
2595.71882,0.20605
2597.64728,0.20478
2599.57575,0.20277
2601.50422,0.20333
2603.43269,0.20655
2605.36116,0.20877
2607.28963,0.20805
2609.21810,0.20753
2611.14656,0.20855
2613.07503,0.20763
2615.00350,0.20411
2616.93197,0.20227
2618.86044,0.20347
2620.78891,0.20471
2622.71738,0.20378
2624.64585,0.20236
2626.57431,0.20279
2628.50278,0.20379
2630.43125,0.20377
2632.35972,0.20252
2634.28819,0.20069
2636.21666,0.20069
2638.14513,0.20339
2640.07359,0.20503
2642.00206,0.20381
2643.93053,0.20245
2645.85900,0.20182
2647.78747,0.20232
2649.71594,0.20562
2651.64441,0.20979
2653.57288,0.21034
2655.50134,0.20751
2657.42981,0.20472
2659.35828,0.20385
2661.28675,0.20547
2663.21522,0.20704
2665.14369,0.20626
2667.07216,0.20633
2669.00062,0.20903
2670.92909,0.21006
2672.85756,0.20816
2674.78603,0.20716
2676.71450,0.20873
2678.64297,0.21071
2680.57144,0.21074
2682.49990,0.20875
2684.42837,0.20596
2686.35684,0.20501
2688.28531,0.20683
2690.21378,0.20774
2692.14225,0.20741
2694.07072,0.20973
2695.99919,0.21209
2697.92765,0.21151
2699.85612,0.21070
2701.78459,0.20992
2703.71306,0.20802
2705.64153,0.20596
2707.57000,0.20661
2709.49847,0.21028
2711.42693,0.21184
2713.35540,0.20899
2715.28387,0.20536
2717.21234,0.20520
2719.14081,0.20911
2721.06928,0.21379
2722.99775,0.21670
2724.92622,0.21740
2726.85468,0.21620
2728.78315,0.21390
2730.71162,0.21160
2732.64009,0.21167
2734.56856,0.21484
2736.49703,0.21803
2738.42550,0.21782
2740.35396,0.21453
2742.28243,0.21174
2744.21090,0.21092
2746.13937,0.21122
2748.06784,0.21147
2749.99631,0.21195
2751.92478,0.21351
2753.85325,0.21430
2755.78171,0.21385
2757.71018,0.21513
2759.63865,0.21765
2761.56712,0.21795
2763.49559,0.21662
2765.42406,0.21623
2767.35253,0.21745
2769.28099,0.21917
2771.20946,0.22158
2773.13793,0.22413
2775.06640,0.22209
2776.99487,0.21800
2778.92334,0.21788
2780.85181,0.21857
2782.78028,0.21712
2784.70874,0.21680
2786.63721,0.21780
2788.56568,0.21645
2790.49415,0.21418
2792.42262,0.21491
2794.35109,0.21712
2796.27956,0.21672
2798.20802,0.21431
2800.13649,0.21579
2802.06496,0.22097
2803.99343,0.22218
2805.92190,0.21994
2807.85037,0.22013
2809.77884,0.22295
2811.70731,0.22530
2813.63577,0.22281
2815.56424,0.21777
2817.49271,0.21790
2819.42118,0.22139
2821.34965,0.22145
2823.27812,0.21891
2825.20659,0.21816
2827.13505,0.22014
2829.06352,0.22186
2830.99199,0.22211
2832.92046,0.22310
2834.84893,0.22422
2836.77740,0.22375
2838.70587,0.22088
2840.63433,0.21664
2842.56280,0.21474
2844.49127,0.21636
2846.41974,0.21963
2848.34821,0.22149
2850.27668,0.22113
2852.20515,0.22148
2854.13362,0.22296
2856.06208,0.22208
2857.99055,0.21881
2859.91902,0.21764
2861.84749,0.21895
2863.77596,0.21979
2865.70443,0.22126
2867.63290,0.22374
2869.56136,0.22388
2871.48983,0.22100
2873.41830,0.21875
2875.34677,0.21987
2877.27524,0.22250
2879.20371,0.22564
2881.13218,0.22760
2883.06065,0.22483
2884.98911,0.22043
2886.91758,0.21830
2888.84605,0.21866
2890.77452,0.22226
2892.70299,0.22606
2894.63146,0.22373
2896.55993,0.21660
2898.48839,0.21221
2900.41686,0.21140
2902.34533,0.21033
2904.27380,0.20896
2906.20227,0.20953
2908.13074,0.21287
2910.05921,0.21636
2911.98768,0.21627
2913.91614,0.21371
2915.84461,0.21317
2917.77308,0.21695
2919.70155,0.22254
2921.63002,0.22370
2923.55849,0.21656
2925.48696,0.20943
2927.41542,0.21472
2929.34389,0.22345
2931.27236,0.21935
2933.20083,0.21024
2935.12930,0.20879
2937.05777,0.21135
2938.98624,0.21442
2940.91471,0.21888
2942.84317,0.22191
2944.77164,0.21912
2946.70011,0.21103
2948.62858,0.20822
2950.55705,0.21533
2952.48552,0.22385
2954.41399,0.22597
2956.34245,0.21978
2958.27092,0.21465
2960.19939,0.21883
2962.12786,0.22495
2964.05633,0.22437
2965.98480,0.21904
2967.91327,0.21609
2969.84174,0.21775
2971.77020,0.21922
2973.69867,0.21950
2975.62714,0.22109
2977.55561,0.22098
2979.48408,0.21906
2981.41255,0.21826
2983.34102,0.21856
2985.26948,0.22012
2987.19795,0.22170
2989.12642,0.22375
2991.05489,0.22781
2992.98336,0.23059
2994.91183,0.22957
2996.84030,0.22687
2998.76877,0.22665
3000.69723,0.23039
3002.62570,0.23231
3004.55417,0.22932
3006.48264,0.22573
3008.41111,0.22318
3010.33958,0.21977
3012.26805,0.21052
3014.19651,0.19158
3016.12498,0.17567
3018.05345,0.18316
3019.98192,0.20674
3021.91039,0.22047
3023.83886,0.22220
3025.76733,0.22511
3027.69579,0.22861
3029.62426,0.22679
3031.55273,0.22283
3033.48120,0.22256
3035.40967,0.22650
3037.33814,0.22949
3039.26661,0.22816
3041.19508,0.22571
3043.12354,0.22516
3045.05201,0.22448
3046.98048,0.22172
3048.90895,0.22017
3050.83742,0.22219
3052.76589,0.22383
3054.69436,0.22161
3056.62282,0.21829
3058.55129,0.21984
3060.47976,0.22600
3062.40823,0.22825
3064.33670,0.22138
3066.26517,0.21260
3068.19364,0.21310
3070.12211,0.21928
3072.05057,0.22014
3073.97904,0.21653
3075.90751,0.21418
3077.83598,0.21613
3079.76445,0.22095
3081.69292,0.22386
3083.62139,0.22315
3085.54985,0.22010
3087.47832,0.21891
3089.40679,0.22157
3091.33526,0.22379
3093.26373,0.22054
3095.19220,0.21661
3097.12067,0.21930
3099.04914,0.22413
3100.97760,0.22582
3102.90607,0.22383
3104.83454,0.22075
3106.76301,0.22060
3108.69148,0.22323
3110.61995,0.22431
3112.54842,0.22268
3114.47688,0.22389
3116.40535,0.22796
3118.33382,0.23127
3120.26229,0.23157
3122.19076,0.22765
3124.11923,0.22614
3126.04770,0.22996
3127.97617,0.23211
3129.90463,0.22912
3131.83310,0.22595
3133.76157,0.22912
3135.69004,0.23573
3137.61851,0.23606
3139.54698,0.22917
3141.47545,0.22400
3143.40391,0.22597
3145.33238,0.23091
3147.26085,0.23160
3149.18932,0.22925
3151.11779,0.22886
3153.04626,0.22895
3154.97473,0.22922
3156.90320,0.23215
3158.83166,0.23614
3160.76013,0.23685
3162.68860,0.23436
3164.61707,0.23385
3166.54554,0.23572
3168.47401,0.23673
3170.40248,0.23733
3172.33094,0.23645
3174.25941,0.23268
3176.18788,0.23092
3178.11635,0.23157
3180.04482,0.23108
3181.97329,0.23293
3183.90176,0.23671
3185.83022,0.23893
3187.75869,0.23798
3189.68716,0.23201
3191.61563,0.22641
3193.54410,0.22731
3195.47257,0.23104
3197.40104,0.23139
3199.32951,0.22974
3201.25797,0.23034
3203.18644,0.23244
3205.11491,0.23246
3207.04338,0.23161
3208.97185,0.23130
3210.90032,0.22891
3212.82879,0.22764
3214.75725,0.23237
3216.68572,0.23960
3218.61419,0.24089
3220.54266,0.23339
3222.47113,0.22348
3224.39960,0.21984
3226.32807,0.22379
3228.25654,0.22838
3230.18500,0.23056
3232.11347,0.23037
3234.04194,0.22726
3235.97041,0.22660
3237.89888,0.22962
3239.82735,0.23030
3241.75582,0.23109
3243.68428,0.23583
3245.61275,0.23740
3247.54122,0.23368
3249.46969,0.23235
3251.39816,0.23310
3253.32663,0.23071
3255.25510,0.22684
3257.18357,0.22502
3259.11203,0.22771
3261.04050,0.23144
3262.96897,0.22869
3264.89744,0.22203
3266.82591,0.21982
3268.75438,0.22218
3270.68285,0.22319
3272.61131,0.22207
3274.53978,0.22223
3276.46825,0.22555
3278.39672,0.22938
3280.32519,0.23013
3282.25366,0.23089
3284.18213,0.23341
3286.11060,0.23355
3288.03906,0.23122
3289.96753,0.23054
3291.89600,0.23195
3293.82447,0.23294
3295.75294,0.23027
3297.68141,0.22487
3299.60988,0.22507
3301.53834,0.23205
3303.46681,0.23349
3305.39528,0.22640
3307.32375,0.22350
3309.25222,0.22673
3311.18069,0.22842
3313.10916,0.22726
3315.03763,0.22713
3316.96609,0.23014
3318.89456,0.23038
3320.82303,0.22575
3322.75150,0.22141
3324.67997,0.21941
3326.60844,0.22094
3328.53691,0.22610
3330.46537,0.22932
3332.39384,0.22741
3334.32231,0.22583
3336.25078,0.22915
3338.17925,0.23288
3340.10772,0.23288
3342.03619,0.23384
3343.96466,0.23415
3345.89312,0.22714
3347.82159,0.22132
3349.75006,0.22756
3351.67853,0.23796
3353.60700,0.23953
3355.53547,0.23238
3357.46394,0.22569
3359.39240,0.22787
3361.32087,0.23518
3363.24934,0.23895
3365.17781,0.23666
3367.10628,0.23088
3369.03475,0.22994
3370.96322,0.23394
3372.89168,0.23612
3374.82015,0.23686
3376.74862,0.23628
3378.67709,0.23393
3380.60556,0.23211
3382.53403,0.23150
3384.46250,0.23447
3386.39097,0.23887
3388.31943,0.23606
3390.24790,0.22896
3392.17637,0.22847
3394.10484,0.23336
3396.03331,0.23503
3397.96178,0.23390
3399.89025,0.23074
3401.81871,0.22264
3403.74718,0.21466
3405.67565,0.21417
3407.60412,0.22263
3409.53259,0.23222
3411.46106,0.23254
3413.38953,0.22552
3415.31800,0.21944
3417.24646,0.21778
3419.17493,0.21910
3421.10340,0.22079
3423.03187,0.22326
3424.96034,0.22649
3426.88881,0.22729
3428.81728,0.22404
3430.74574,0.21939
3432.67421,0.21817
3434.60268,0.22073
3436.53115,0.22328
3438.45962,0.22482
3440.38809,0.22714
3442.31656,0.22940
3444.24503,0.22834
3446.17349,0.22418
3448.10196,0.21882
3450.03043,0.21626
3451.95890,0.21743
3453.88737,0.21569
3455.81584,0.21192
3457.74431,0.21408
3459.67277,0.21928
3461.60124,0.21838
3463.52971,0.21239
3465.45818,0.20996
3467.38665,0.21348
3469.31512,0.21777
3471.24359,0.21676
3473.17206,0.21086
3475.10052,0.20687
3477.02899,0.20535
3478.95746,0.20431
3480.88593,0.20679
3482.81440,0.21169
3484.74287,0.21501
3486.67134,0.21328
3488.59980,0.20536
3490.52827,0.19866
3492.45674,0.20026
3494.38521,0.20618
3496.31368,0.20746
3498.24215,0.20401
3500.17062,0.20075
3502.09909,0.19698
3504.02755,0.19288
3505.95602,0.19229
3507.88449,0.19450
3509.81296,0.19649
3511.74143,0.19371
3513.66990,0.18465
3515.59837,0.17835
3517.52683,0.18136
3519.45530,0.18742
3521.38377,0.19172
3523.31224,0.19723
3525.24071,0.20193
3527.16918,0.19939
3529.09765,0.18980
3531.02611,0.18078
3532.95458,0.17793
3534.88305,0.18062
3536.81152,0.18451
3538.73999,0.18522
3540.66846,0.18534
3542.59693,0.18801
3544.52540,0.18852
3546.45386,0.18277
3548.38233,0.17761
3550.31080,0.17872
3552.23927,0.18070
3554.16774,0.17836
3556.09621,0.17507
3558.02468,0.17384
3559.95314,0.17230
3561.88161,0.17047
3563.81008,0.17363
3565.73855,0.18495
3567.66702,0.19755
3569.59549,0.19521
3571.52396,0.18210
3573.45243,0.17215
3575.38089,0.16953
3577.30936,0.16833
3579.23783,0.16583
3581.16630,0.16553
3583.09477,0.17186
3585.02324,0.18215
3586.95171,0.18346
3588.88017,0.17243
3590.80864,0.16577
3592.73711,0.16552
3594.66558,0.16511
3596.59405,0.16246
3598.52252,0.15981
3600.45099,0.16062
3602.37946,0.16505
3604.30792,0.16879
3606.23639,0.17111
3608.16486,0.17268
3610.09333,0.17319
3612.02180,0.17224
3613.95027,0.16822
3615.87874,0.16508
3617.80720,0.16731
3619.73567,0.16751
3621.66414,0.15961
3623.59261,0.15365
3625.52108,0.15438
3627.44955,0.16014
3629.37802,0.16675
3631.30649,0.16550
3633.23495,0.15804
3635.16342,0.14932
3637.09189,0.14414
3639.02036,0.14538
3640.94883,0.15027
3642.87730,0.15177
3644.80577,0.14959
3646.73423,0.15131
3648.66270,0.16338
3650.59117,0.16943
3652.51964,0.16147
3654.44811,0.15389
3656.37658,0.14996
3658.30505,0.14978
3660.23352,0.14980
3662.16198,0.14662
3664.09045,0.14388
3666.01892,0.14605
3667.94739,0.15210
3669.87586,0.15710
3671.80433,0.15952
3673.73280,0.16524
3675.66126,0.16518
3677.58973,0.15304
3679.51820,0.14551
3681.44667,0.14336
3683.37514,0.14485
3685.30361,0.14935
3687.23208,0.15418
3689.16055,0.15614
3691.08901,0.15243
3693.01748,0.14694
3694.94595,0.14374
3696.87442,0.14297
3698.80289,0.14496
3700.73136,0.14924
3702.65983,0.14868
3704.58829,0.14192
3706.51676,0.13879
3708.44523,0.14383
3710.37370,0.15150
3712.30217,0.14756
3714.23064,0.13839
3716.15911,0.13831
3718.08757,0.14365
3720.01604,0.14716
3721.94451,0.14976
3723.87298,0.15124
3725.80145,0.14779
3727.72992,0.14167
3729.65839,0.13587
3731.58686,0.13521
3733.51532,0.14860
3735.44379,0.16556
3737.37226,0.16222
3739.30073,0.15234
3741.22920,0.14739
3743.15767,0.13870
3745.08614,0.12440
3747.01460,0.12708
3748.94307,0.14831
3750.87154,0.16952
3752.80001,0.16238
3754.72848,0.14803
3756.65695,0.14380
3758.58542,0.14632
3760.51389,0.14700
3762.44235,0.14241
3764.37082,0.13861
3766.29929,0.13830
3768.22776,0.13643
3770.15623,0.13230
3772.08470,0.13129
3774.01317,0.13273
3775.94163,0.13373
3777.87010,0.13356
3779.79857,0.12998
3781.72704,0.12723
3783.65551,0.13107
3785.58398,0.13490
3787.51245,0.13356
3789.44092,0.13213
3791.36938,0.13201
3793.29785,0.13464
3795.22632,0.14152
3797.15479,0.14564
3799.08326,0.14915
3801.01173,0.15800
3802.94020,0.15667
3804.86866,0.14755
3806.79713,0.14254
3808.72560,0.13807
3810.65407,0.13304
3812.58254,0.13291
3814.51101,0.13959
3816.43948,0.14531
3818.36795,0.14204
3820.29641,0.13566
3822.22488,0.13385
3824.15335,0.13775
3826.08182,0.14003
3828.01029,0.13508
3829.93876,0.12730
3831.86723,0.12676
3833.79569,0.13574
3835.72416,0.14487
3837.65263,0.14855
3839.58110,0.14554
3841.50957,0.14140
3843.43804,0.14311
3845.36651,0.14342
3847.29498,0.13851
3849.22344,0.13558
3851.15191,0.13904
3853.08038,0.14282
3855.00885,0.13895
3856.93732,0.13769
3858.86579,0.13743
3860.79426,0.13555
3862.72272,0.13399
3864.65119,0.13114
3866.57966,0.12650
3868.50813,0.12741
3870.43660,0.13417
3872.36507,0.13797
3874.29354,0.13667
3876.22200,0.13187
3878.15047,0.12915
3880.07894,0.13139
3882.00741,0.13695
3883.93588,0.14214
3885.86435,0.13918
3887.79282,0.13108
3889.72129,0.12932
3891.64975,0.12973
3893.57822,0.12358
3895.50669,0.11713
3897.43516,0.11907
3899.36363,0.12863
3901.29210,0.13370
3903.22057,0.13150
3905.14903,0.12825
3907.07750,0.12520
3909.00597,0.12142
3910.93444,0.11723
3912.86291,0.11840
3914.79138,0.12429
3916.71985,0.12706
3918.64832,0.12592
3920.57678,0.12271
3922.50525,0.11966
3924.43372,0.11915
3926.36219,0.11813
3928.29066,0.11521
3930.21913,0.11194
3932.14760,0.11239
3934.07606,0.11862
3936.00453,0.12220
3937.93300,0.11775
3939.86147,0.11099
3941.78994,0.11110
3943.71841,0.11784
3945.64688,0.12269
3947.57535,0.12482
3949.50381,0.12786
3951.43228,0.12808
3953.36075,0.12317
3955.28922,0.12096
3957.21769,0.12233
3959.14616,0.11936
3961.07463,0.11312
3963.00309,0.10939
3964.93156,0.10808
3966.86003,0.10837
3968.78850,0.10960
3970.71697,0.10687
3972.64544,0.10146
3974.57391,0.10087
3976.50238,0.10426
3978.43084,0.10641
3980.35931,0.10704
3982.28778,0.10824
3984.21625,0.11023
3986.14472,0.11018
3988.07319,0.10686
3990.00166,0.10356
3991.93012,0.10245
3993.85859,0.10265
3995.78706,0.10309
3997.71553,0.10493
3999.64400,0.10826
4001.57247,0.10967
4003.50094,0.10769
4005.42941,0.10368
4007.35787,0.10085
4009.28634,0.10255
4011.21481,0.10776
4013.14328,0.11305
4015.07175,0.11563
4017.00022,0.11385
4018.92869,0.10922
4020.85715,0.10453
4022.78562,0.10271
4024.71409,0.10349
4026.64256,0.10196
4028.57103,0.09998
4030.49950,0.10271
4032.42797,0.10581
4034.35644,0.10196
4036.28490,0.09422
4038.21337,0.09143
4040.14184,0.09445
4042.07031,0.09933
4043.99878,0.10244
4045.92725,0.10223
4047.85572,0.10238
4049.78418,0.10417
4051.71265,0.10195
4053.64112,0.09449
4055.56959,0.09076
4057.49806,0.09467
4059.42653,0.10109
4061.35500,0.10809
4063.28346,0.11220
4065.21193,0.10745
4067.14040,0.09838
4069.06887,0.09308
4070.99734,0.09404
4072.92581,0.10138
4074.85428,0.10735
4076.78275,0.10260
4078.71121,0.09248
4080.63968,0.08723
4082.56815,0.08827
4084.49662,0.09171
4086.42509,0.09332
4088.35356,0.09384
4090.28203,0.09545
4092.21049,0.09597
4094.13896,0.09426
4096.06743,0.09283
4097.99590,0.09376
4099.92437,0.09589
4101.85284,0.09658
4103.78131,0.09289
4105.70978,0.08653
4107.63824,0.08428
4109.56671,0.08675
4111.49518,0.08713
4113.42365,0.08428
4115.35212,0.08337
4117.28059,0.08403
4119.20906,0.08358
4121.13752,0.08257
4123.06599,0.08417
4124.99446,0.09036
4126.92293,0.09496
4128.85140,0.09302
4130.77987,0.08934
4132.70834,0.08731
4134.63681,0.08490
4136.56527,0.08186
4138.49374,0.08184
4140.42221,0.08607
4142.35068,0.08777
4144.27915,0.08495
4146.20762,0.08282
4148.13609,0.08230
4150.06455,0.08363
4151.99302,0.08451
4153.92149,0.08314
4155.84996,0.08517
4157.77843,0.09036
4159.70690,0.09124
4161.63537,0.08922
4163.56384,0.08931
4165.49230,0.08878
4167.42077,0.08548
4169.34924,0.08291
4171.27771,0.08387
4173.20618,0.08583
4175.13465,0.08490
4177.06312,0.07990
4178.99158,0.07318
4180.92005,0.06904
4182.84852,0.06883
4184.77699,0.06918
4186.70546,0.06645
4188.63393,0.06311
4190.56240,0.06256
4192.49087,0.06361
4194.41933,0.06447
4196.34780,0.06530
4198.27627,0.06776
4200.20474,0.06999
4202.13321,0.06631
4204.06168,0.05942
4205.99015,0.06051
4207.91861,0.06955
4209.84708,0.07640
4211.77555,0.07695
4213.70402,0.07457
4215.63249,0.07448
4217.56096,0.07366
4219.48943,0.06622
4221.41789,0.05860
4223.34636,0.06052
4225.27483,0.06887
4227.20330,0.07176
4229.13177,0.06914
4231.06024,0.07224
4232.98871,0.07814
4234.91718,0.07550
4236.84564,0.06519
4238.77411,0.05656
4240.70258,0.05734
4242.63105,0.06532
4244.55952,0.07133
4246.48799,0.07035
4248.41646,0.06488
4250.34492,0.05942
4252.27339,0.05410
4254.20186,0.04961
4256.13033,0.05246
4258.05880,0.06257
4259.98727,0.06729
4261.91574,0.06257
4263.84421,0.05796
4265.77267,0.05792
4267.70114,0.05968
4269.62961,0.06063
4271.55808,0.05783
4273.48655,0.04987
4275.41502,0.04433
4277.34349,0.04782
4279.27195,0.05465
4281.20042,0.05876
4283.12889,0.06014
4285.05736,0.05751
4286.98583,0.05015
4288.91430,0.04455
4290.84277,0.04720
4292.77124,0.05043
4294.69970,0.04461
4296.62817,0.04028
4298.55664,0.04670
4300.48511,0.05083
4302.41358,0.04723
4304.34205,0.04637
4306.27052,0.04738
4308.19898,0.04384
4310.12745,0.04024
4312.05592,0.04362
4313.98439,0.05414
4315.91286,0.06461
4317.84133,0.06473
4319.76980,0.05197
4321.69827,0.04031
4323.62673,0.04130
4325.55520,0.04517
4327.48367,0.04223
4329.41214,0.03900
4331.34061,0.03912
4333.26908,0.03900
4335.19755,0.03848
4337.12601,0.03570
4339.05448,0.03133
4340.98295,0.03103
4342.91142,0.03172
4344.83989,0.02873
4346.76836,0.03016
4348.69683,0.03814
4350.62530,0.04081
4352.55376,0.03565
4354.48223,0.03081
4356.41070,0.03105
4358.33917,0.03337
4360.26764,0.03386
4362.19611,0.03415
4364.12458,0.03471
4366.05304,0.03294
4367.98151,0.02678
4369.90998,0.01970
4371.83845,0.02295
4373.76692,0.03421
4375.69539,0.03763
4377.62386,0.03464
4379.55232,0.03418
4381.48079,0.03367
4383.40926,0.03040
4385.33773,0.02829
4387.26620,0.03240
4389.19467,0.03819
4391.12314,0.03707
4393.05161,0.03123
4394.98007,0.02884
4396.90854,0.02676
4398.83701,0.01833
4400.76548,0.01120
4402.69395,0.01299
4404.62242,0.01848
4406.55089,0.02216
4408.47935,0.02514
4410.40782,0.02684
4412.33629,0.02736
4414.26476,0.02778
4416.19323,0.02361
4418.12170,0.01274
4420.05017,0.00421
4421.97864,0.00862
4423.90710,0.01874
4425.83557,0.02342
4427.76404,0.02301
4429.69251,0.02028
4431.62098,0.01972
4433.54945,0.02076
4435.47792,0.01903
4437.40638,0.01451
4439.33485,0.00880
4441.26332,0.00705
4443.19179,0.01051
4445.12026,0.01682
4447.04873,0.02473
4448.97720,0.02749
4450.90567,0.02367
4452.83413,0.01711
4454.76260,0.01075
4456.69107,0.01054
4458.61954,0.01461
4460.54801,0.01600
4462.47648,0.01496
4464.40495,0.01584
4466.33341,0.01746
4468.26188,0.01567
4470.19035,0.01376
4472.11882,0.01579
4474.04729,0.01925
4475.97576,0.01945
4477.90423,0.01471
4479.83270,0.00796
4481.76116,0.00650
4483.68963,0.01270
4485.61810,0.01797
4487.54657,0.01667
4489.47504,0.01370
4491.40351,0.01572
4493.33198,0.01814
4495.26044,0.01419
4497.18891,0.01119
4499.11738,0.01208
4501.04585,0.01310
4502.97432,0.01598
4504.90279,0.01721
4506.83126,0.01724
4508.75973,0.02007
4510.68819,0.01609
4512.61666,0.00353
4514.54513,-0.00512
4516.47360,-0.00590
4518.40207,-0.00254
4520.33054,-0.00064
4522.25901,-0.00109
4524.18747,0.00285
4526.11594,0.00777
4528.04441,0.00733
4529.97288,0.00557
4531.90135,0.00671
4533.82982,0.00754
4535.75829,0.00153
4537.68676,-0.00435
4539.61522,0.00101
4541.54369,0.01072
4543.47216,0.01487
4545.40063,0.01607
4547.32910,0.01735
4549.25757,0.01706
4551.18604,0.01460
4553.11450,0.00711
4555.04297,0.00167
4556.97144,0.00876
4558.89991,0.01651
4560.82838,0.01334
4562.75685,0.00710
4564.68532,0.00201
4566.61378,-0.00136
4568.54225,0.00364
4570.47072,0.01294
4572.39919,0.01758
4574.32766,0.01609
4576.25613,0.00865
4578.18460,0.00251
4580.11307,0.00499
4582.04153,0.00796
4583.97000,0.00679
4585.89847,0.00991
4587.82694,0.01601
4589.75541,0.01719
4591.68388,0.01197
4593.61235,0.00356
4595.54081,0.00121
4597.46928,0.00708
4599.39775,0.00695
4601.32622,-0.00039
4603.25469,0.00113
4605.18316,0.01040
4607.11163,0.01475
4609.04010,0.01247
4610.96856,0.01077
4612.89703,0.01382
4614.82550,0.01229
4616.75397,0.00136
4618.68244,-0.00711
4620.61091,-0.00294
4622.53938,0.00737
4624.46784,0.01024
4626.39631,0.00597
4628.32478,0.00278
4630.25325,0.00348
4632.18172,0.00782
4634.11019,0.01084
4636.03866,0.01032
4637.96713,0.01034
4639.89559,0.01089
4641.82406,0.00798
4643.75253,0.00405
4645.68100,0.00318
4647.60947,0.00301
4649.53794,0.00063
4651.46641,-0.00438
4653.39487,-0.00674
4655.32334,-0.00329
4657.25181,-0.00227
4659.18028,-0.00266
4661.10875,0.00526
4663.03722,0.01328
4664.96569,0.01072
4666.89416,0.00419
4668.82262,0.00310
4670.75109,0.00562
4672.67956,0.00477
4674.60803,0.00315
4676.53650,0.00439
4678.46497,0.00604
4680.39344,0.00655
4682.32190,0.00609
4684.25037,0.00752
4686.17884,0.01189
4688.10731,0.01804
4690.03578,0.02440
4691.96425,0.02563
4693.89272,0.01628
4695.82119,0.00155
4697.74965,-0.00553
4699.67812,-0.00642
4701.60659,-0.00504
4703.53506,0.00238
4705.46353,0.00896
4707.39200,0.00317
4709.32047,-0.01213
4711.24893,-0.02095
4713.17740,-0.01495
4715.10587,-0.00530
4717.03434,-0.00407
4718.96281,-0.00819
4720.89128,-0.00891
4722.81975,-0.00464
4724.74821,0.00087
4726.67668,0.01062
4728.60515,0.02302
4730.53362,0.02372
4732.46209,0.01235
4734.39056,0.00362
4736.31903,0.00402
4738.24750,0.00797
4740.17596,0.00871
4742.10443,0.00846
4744.03290,0.01326
4745.96137,0.01832
4747.88984,0.01398
4749.81831,0.00486
4751.74678,0.00291
4753.67524,0.00769
4755.60371,0.01187
4757.53218,0.01475
4759.46065,0.01301
4761.38912,0.00440
4763.31759,0.00072
4765.24606,0.00794
4767.17453,0.01616
4769.10299,0.01881
4771.03146,0.01843
4772.95993,0.01288
4774.88840,0.00427
4776.81687,0.00532
4778.74534,0.01544
4780.67381,0.01549
4782.60227,0.00112
4784.53074,-0.00890
4786.45921,-0.00775
4788.38768,-0.00114
4790.31615,0.00446
4792.24462,0.00141
4794.17309,-0.00488
4796.10156,-0.00320
4798.03002,0.00121
4799.95849,-0.00033
4801.88696,0.00212
4803.81543,0.01507
4805.74390,0.02177
4807.67237,0.01375
4809.60084,0.00468
4811.52930,0.00448
4813.45777,0.01030
4815.38624,0.01083
4817.31471,0.00111
4819.24318,-0.00490
4821.17165,0.00110
4823.10012,0.00696
4825.02859,0.00673
4826.95705,0.01199
4828.88552,0.01966
4830.81399,0.01679
4832.74246,0.00924
4834.67093,0.00657
4836.59940,0.01193
4838.52787,0.02094
4840.45633,0.01838
4842.38480,-0.00036
4844.31327,-0.01588
4846.24174,-0.01270
4848.17021,-0.00722
4850.09868,-0.01489
4852.02715,-0.02185
4853.95562,-0.01604
4855.88408,-0.00337
4857.81255,0.00406
4859.74102,0.00748
4861.66949,0.01325
4863.59796,0.01275
4865.52643,0.00419
4867.45490,0.00016
4869.38336,0.00596
4871.31183,0.01728
4873.24030,0.02959
4875.16877,0.02831
4877.09724,0.00927
4879.02571,-0.00046
4880.95418,0.00414
4882.88265,0.00095
4884.81111,-0.00344
4886.73958,0.00433
4888.66805,0.01532
4890.59652,0.02407
4892.52499,0.02679
4894.45346,0.01606
4896.38193,0.00518
4898.31039,0.00806
4900.23886,0.01026
4902.16733,0.00847
4904.09580,0.01571
4906.02427,0.02103
4907.95274,0.01344
4909.88121,0.00476
4911.80967,0.00585
4913.73814,0.01283
4915.66661,0.01591
4917.59508,0.00781
4919.52355,-0.00424
4921.45202,-0.00396
4923.38049,0.00538
4925.30896,0.00648
4927.23742,0.00223
4929.16589,0.01136
4931.09436,0.03198
4933.02283,0.04121
4934.95130,0.02864
4936.87977,0.00934
4938.80824,0.00523
4940.73670,0.01684
4942.66517,0.02356
4944.59364,0.01387
4946.52211,-0.00054
4948.45058,-0.00071
4950.37905,0.01164
4952.30752,0.01520
4954.23599,0.00896
4956.16445,0.01113
4958.09292,0.01978
4960.02139,0.02153
4961.94986,0.01707
4963.87833,0.01483
4965.80680,0.01118
4967.73527,0.00332
4969.66373,-0.00106
4971.59220,-0.00027
4973.52067,0.00468
4975.44914,0.00891
4977.37761,-0.00017
4979.30608,-0.01337
4981.23455,-0.00914
4983.16302,0.00350
4985.09148,0.00136
4987.01995,-0.00658
4988.94842,-0.00053
4990.87689,0.01878
4992.80536,0.03332
4994.73383,0.03373
4996.66230,0.02621
4998.59076,0.01509
5000.51923,0.00926
5002.44770,0.01294
5004.37617,0.01927
5006.30464,0.02285
5008.23311,0.01665
5010.16158,0.00171
5012.09005,-0.00678
5014.01851,-0.00743
5015.94698,-0.00745
5017.87545,-0.00373
5019.80392,0.00364
5021.73239,0.01364
5023.66086,0.02685
5025.58933,0.03154
5027.51779,0.02613
5029.44626,0.02679
5031.37473,0.02804
5033.30320,0.01494
5035.23167,-0.00286
5037.16014,-0.01028
5039.08861,-0.00673
5041.01708,0.00088
5042.94554,0.00002
5044.87401,-0.01315
5046.80248,-0.01944
5048.73095,-0.00967
5050.65942,-0.00039
5052.58789,0.00347
5054.51636,0.01025
5056.44482,0.01231
5058.37329,0.00379
5060.30176,-0.00390
5062.23023,-0.00185
5064.15870,0.01293
5066.08717,0.02756
5068.01564,0.02309
5069.94410,0.00693
5071.87257,-0.00199
5073.80104,0.00078
5075.72951,0.01048
5077.65798,0.02615
5079.58645,0.04070
5081.51492,0.03947
5083.44339,0.02288
5085.37185,0.00945
5087.30032,0.01136
5089.22879,0.01935
5091.15726,0.02125
5093.08573,0.02068
5095.01420,0.02451
5096.94267,0.03183
5098.87113,0.04126
5100.79960,0.04071
5102.72807,0.02577
5104.65654,0.01822
5106.58501,0.02360
5108.51348,0.02612
5110.44195,0.02175
5112.37042,0.01727
5114.29888,0.01320
5116.22735,0.00810
5118.15582,0.00439
5120.08429,0.00479
5122.01276,0.01350
5123.94123,0.02622
5125.86970,0.03649
5127.79816,0.04578
5129.72663,0.05273
5131.65510,0.05001
5133.58357,0.03331
5135.51204,0.01693
5137.44051,0.02145
5139.36898,0.04209
5141.29745,0.05485
5143.22591,0.05062
5145.15438,0.04590
5147.08285,0.05346
5149.01132,0.06074
5150.93979,0.05154
5152.86826,0.03557
5154.79673,0.02829
5156.72519,0.02520
5158.65366,0.02667
5160.58213,0.03485
5162.51060,0.03945
5164.43907,0.03841
5166.36754,0.03593
5168.29601,0.03024
5170.22448,0.02225
5172.15294,0.02074
5174.08141,0.02813
5176.00988,0.03450
5177.93835,0.03404
5179.86682,0.03195
5181.79529,0.02518
5183.72376,0.01527
5185.65222,0.01824
5187.58069,0.02948
5189.50916,0.03544
5191.43763,0.03435
5193.36610,0.03428
5195.29457,0.03683
5197.22304,0.02908
5199.15151,0.01681
5201.07997,0.01476
5203.00844,0.02359
5204.93691,0.03677
5206.86538,0.04174
5208.79385,0.03757
5210.72232,0.03716
5212.65079,0.04089
5214.57925,0.04144
5216.50772,0.03273
5218.43619,0.01445
5220.36466,0.00676
5222.29313,0.02174
5224.22160,0.03341
5226.15007,0.02329
5228.07854,0.01989
5230.00700,0.03322
5231.93547,0.04121
5233.86394,0.04451
5235.79241,0.04588
5237.72088,0.04299
5239.64935,0.04333
5241.57782,0.03873
5243.50628,0.03007
5245.43475,0.03889
5247.36322,0.05399
5249.29169,0.05643
5251.22016,0.05288
5253.14863,0.04574
5255.07710,0.03456
5257.00556,0.02624
5258.93403,0.02590
5260.86250,0.03223
5262.79097,0.03860
5264.71944,0.03372
5266.64791,0.02011
5268.57638,0.01437
5270.50485,0.02040
5272.43331,0.02494
5274.36178,0.01446
5276.29025,0.00642
5278.21872,0.02745
5280.14719,0.05132
5282.07566,0.04635
5284.00413,0.04127
5285.93259,0.05243
5287.86106,0.05074
5289.78953,0.02752
5291.71800,0.01236
5293.64647,0.02321
5295.57494,0.04234
5297.50341,0.05900
5299.43188,0.06432
5301.36034,0.04730
5303.28881,0.02127
5305.21728,0.01048
5307.14575,0.01464
5309.07422,0.01490
5311.00269,0.02115
5312.93116,0.04989
5314.85962,0.07750
5316.78809,0.07771
5318.71656,0.07125
5320.64503,0.07686
5322.57350,0.06731
5324.50197,0.02922
5326.43044,-0.00219
5328.35891,0.00295
5330.28737,0.02189
5332.21584,0.03166
5334.14431,0.03703
5336.07278,0.04337
5338.00125,0.05098
5339.92972,0.05060
5341.85819,0.04778
5343.78665,0.06191
5345.71512,0.08352
5347.64359,0.08955
5349.57206,0.07972
5351.50053,0.06710
5353.42900,0.07335
5355.35747,0.08499
5357.28594,0.07103
5359.21440,0.05131
5361.14287,0.05643
5363.07134,0.07093
5364.99981,0.06039
5366.92828,0.03476
5368.85675,0.02836
5370.78522,0.03635
5372.71368,0.03628
5374.64215,0.03877
5376.57062,0.05017
5378.49909,0.06080
5380.42756,0.06964
5382.35603,0.06343
5384.28450,0.04431
5386.21297,0.04002
5388.14143,0.05468
5390.06990,0.07080
5391.99837,0.07746
5393.92684,0.06596
5395.85531,0.05277
5397.78378,0.05232
5399.71225,0.04743
5401.64071,0.04290
5403.56918,0.05165
5405.49765,0.06164
5407.42612,0.06024
5409.35459,0.05212
5411.28306,0.05253
5413.21153,0.05916
5415.13999,0.06040
5417.06846,0.05804
5418.99693,0.05483
5420.92540,0.04981
5422.85387,0.03088
5424.78234,0.00666
5426.71081,0.00905
5428.63928,0.03264
5430.56774,0.04703
5432.49621,0.04666
5434.42468,0.03780
5436.35315,0.02868
5438.28162,0.02646
5440.21009,0.02781
5442.13856,0.02666
5444.06702,0.03390
5445.99549,0.05319
5447.92396,0.06554
5449.85243,0.06263
5451.78090,0.06467
5453.70937,0.08443
5455.63784,0.09660
5457.56631,0.07384
5459.49477,0.03917
5461.42324,0.03510
5463.35171,0.05359
5465.28018,0.05636
5467.20865,0.04476
5469.13712,0.04796
5471.06559,0.06572
5472.99405,0.07067
5474.92252,0.06693
5476.85099,0.07002
5478.77946,0.06434
5480.70793,0.04505
5482.63640,0.03701
5484.56487,0.05167
5486.49334,0.07203
5488.42180,0.07280
5490.35027,0.03772
5492.27874,0.00738
5494.20721,0.02775
5496.13568,0.05368
5498.06415,0.04540
5499.99262,0.03314
5501.92108,0.04969
5503.84955,0.07890
5505.77802,0.09063
5507.70649,0.07721
5509.63496,0.07011
5511.56343,0.08330
5513.49190,0.08700
5515.42037,0.06916
5517.34883,0.04541
5519.27730,0.03031
5521.20577,0.02938
5523.13424,0.03736
5525.06271,0.04992
5526.99118,0.07069
5528.91965,0.09216
5530.84811,0.08577
5532.77658,0.05402
5534.70505,0.04189
5536.63352,0.06719
5538.56199,0.10583
5540.49046,0.12383
5542.41893,0.11095
5544.34740,0.08879
5546.27586,0.07175
5548.20433,0.07020
5550.13280,0.07765
5552.06127,0.06912
5553.98974,0.04851
5555.91821,0.03606
5557.84668,0.03963
5559.77514,0.04648
5561.70361,0.04232
5563.63208,0.04478
5565.56055,0.06730
5567.48902,0.08425
5569.41749,0.08859
5571.34596,0.10479
5573.27443,0.12026
5575.20289,0.09776
5577.13136,0.06460
5579.05983,0.06256
5580.98830,0.06643
5582.91677,0.06018
5584.84524,0.07248
5586.77371,0.08987
5588.70217,0.07721
5590.63064,0.05027
5592.55911,0.03696
5594.48758,0.03491
5596.41605,0.04489
5598.34452,0.06571
5600.27299,0.08472
5602.20145,0.09834
5604.12992,0.10789
5606.05839,0.11126
5607.98686,0.10755
5609.91533,0.10334
5611.84380,0.10551
5613.77227,0.09141
5615.70074,0.05196
5617.62920,0.04209
5619.55767,0.08495
5621.48614,0.12764
5623.41461,0.13258
5625.34308,0.11382
5627.27155,0.10482
5629.20002,0.10886
5631.12848,0.10619
5633.05695,0.09894
5634.98542,0.09196
5636.91389,0.08724
5638.84236,0.09019
5640.77083,0.08953
5642.69930,0.08492
5644.62777,0.09453
5646.55623,0.11005
5648.48470,0.10907
5650.41317,0.09383
5652.34164,0.07744
5654.27011,0.07054
5656.19858,0.07285
5658.12705,0.07655
5660.05551,0.08195
5661.98398,0.08301
5663.91245,0.07770
5665.84092,0.08129
5667.76939,0.09376
5669.69786,0.10344
5671.62633,0.09869
5673.55480,0.07872
5675.48326,0.07178
5677.41173,0.08345
5679.34020,0.08204
5681.26867,0.06975
5683.19714,0.06293
5685.12561,0.06081
5687.05408,0.05992
5688.98254,0.05663
5690.91101,0.06751
5692.83948,0.10130
5694.76795,0.12790
5696.69642,0.13635
5698.62489,0.13836
5700.55336,0.13128
5702.48183,0.11841
5704.41029,0.09583
5706.33876,0.06530
5708.26723,0.04517
5710.19570,0.02954
5712.12417,0.01366
5714.05264,0.01232
5715.98111,0.03305
5717.90957,0.07450
5719.83804,0.10537
5721.76651,0.09277
5723.69498,0.06259
5725.62345,0.05116
5727.55192,0.06949
5729.48039,0.09516
5731.40886,0.07986
5733.33732,0.04849
5735.26579,0.06155
5737.19426,0.09560
5739.12273,0.10110
5741.05120,0.08890
5742.97967,0.07547
5744.90814,0.06577
5746.83660,0.07256
5748.76507,0.08585
5750.69354,0.08514
5752.62201,0.08483
5754.55048,0.08848
5756.47895,0.08019
5758.40742,0.08048
5760.33588,0.08882
5762.26435,0.09146
5764.19282,0.11047
5766.12129,0.12783
5768.04976,0.12773
5769.97823,0.12575
5771.90670,0.10338
5773.83517,0.05831
5775.76363,0.03379
5777.69210,0.05361
5779.62057,0.08280
5781.54904,0.08792
5783.47751,0.08122
5785.40598,0.07688
5787.33445,0.06570
5789.26291,0.03642
5791.19138,0.00818
5793.11985,0.01740
5795.04832,0.06473
5796.97679,0.10400
5798.90526,0.09796
5800.83373,0.07878
5802.76220,0.10331
5804.69066,0.13038
5806.61913,0.09672
5808.54760,0.06449
5810.47607,0.07703
5812.40454,0.08058
5814.33301,0.04576
5816.26148,0.02487
5818.18994,0.05349
5820.11841,0.08450
5822.04688,0.08465
5823.97535,0.06987
5825.90382,0.05884
5827.83229,0.06825
5829.76076,0.08632
5831.68923,0.08479
5833.61769,0.06790
5835.54616,0.06242
5837.47463,0.06756
5839.40310,0.07303
5841.33157,0.07780
5843.26004,0.07426
5845.18851,0.06805
5847.11697,0.05747
5849.04544,0.03832
5850.97391,0.03448
5852.90238,0.05033
5854.83085,0.06050
5856.75932,0.06421
5858.68779,0.07885
5860.61626,0.08501
5862.54472,0.07511
5864.47319,0.08399
5866.40166,0.11803
5868.33013,0.13687
5870.25860,0.10686
5872.18707,0.05498
5874.11554,0.03944
5876.04400,0.07967
5877.97247,0.12007
5879.90094,0.09236
5881.82941,0.02445
5883.75788,0.00189
5885.68635,0.03943
5887.61482,0.09285
5889.54329,0.11944
5891.47175,0.10314
5893.40022,0.07892
5895.32869,0.09472
5897.25716,0.13913
5899.18563,0.15318
5901.11410,0.13303
5903.04257,0.12291
5904.97103,0.11864
5906.89950,0.08971
5908.82797,0.06154
5910.75644,0.08194
5912.68491,0.10323
5914.61338,0.06823
5916.54185,0.03615
5918.47032,0.04856
5920.39878,0.06320
5922.32725,0.05267
5924.25572,0.04174
5926.18419,0.06998
5928.11266,0.10625
5930.04113,0.10036
5931.96960,0.08543
5933.89806,0.09257
5935.82653,0.10946
5937.75500,0.11777
5939.68347,0.09956
5941.61194,0.06260
5943.54041,0.04521
5945.46888,0.05934
5947.39734,0.06964
5949.32581,0.05321
5951.25428,0.04502
5953.18275,0.06615
5955.11122,0.07471
5957.03969,0.07206
5958.96816,0.09870
5960.89663,0.12491
5962.82509,0.10277
5964.75356,0.05892
5966.68203,0.04384
5968.61050,0.06807
5970.53897,0.09188
5972.46744,0.08314
5974.39591,0.07183
5976.32437,0.07404
5978.25284,0.07117
5980.18131,0.06616
5982.10978,0.06494
5984.03825,0.07017
5985.96672,0.07358
5987.89519,0.05874
5989.82366,0.03373
5991.75212,0.03472
5993.68059,0.06080
5995.60906,0.08573
5997.53753,0.10456
5999.46600,0.11178
6001.39447,0.13470
6003.32294,0.16687
6005.25140,0.14787
6007.17987,0.10588
6009.10834,0.11132
6011.03681,0.13340
6012.96528,0.10914
6014.89375,0.07067
6016.82222,0.06382
6018.75069,0.06951
6020.67915,0.07935
6022.60762,0.09330
6024.53609,0.09100
6026.46456,0.10303
6028.39303,0.13346
6030.32150,0.12309
6032.24997,0.10169
6034.17843,0.10792
6036.10690,0.09774
6038.03537,0.05895
6039.96384,0.03319
6041.89231,0.03688
6043.82078,0.05626
6045.74925,0.07553
6047.67772,0.08557
6049.60618,0.10465
6051.53465,0.13228
6053.46312,0.11867
6055.39159,0.07278
6057.32006,0.05267
6059.24853,0.05881
6061.17700,0.07467
6063.10546,0.08672
6065.03393,0.08572
6066.96240,0.10420
6068.89087,0.13308
6070.81934,0.10818
6072.74781,0.04626
6074.67628,0.03730
6076.60475,0.07751
6078.53321,0.07438
6080.46168,0.03233
6082.39015,0.03063
6084.31862,0.05985
6086.24709,0.08129
6088.17556,0.09617
6090.10403,0.09990
6092.03249,0.10402
6093.96096,0.10317
6095.88943,0.07132
6097.81790,0.03130
6099.74637,0.02077
6101.67484,0.04181
6103.60331,0.06445
6105.53177,0.07974
6107.46024,0.10910
6109.38871,0.12750
6111.31718,0.08189
6113.24565,0.00623
6115.17412,-0.01766
6117.10259,0.02864
6119.03106,0.07015
6120.95952,0.03634
6122.88799,-0.01892
6124.81646,-0.01512
6126.74493,0.05159
6128.67340,0.11399
6130.60187,0.12031
6132.53034,0.10737
6134.45880,0.12246
6136.38727,0.12452
6138.31574,0.09318
6140.24421,0.08451
6142.17268,0.10773
6144.10115,0.13867
6146.02962,0.14643
6147.95809,0.09387
6149.88655,0.01904
6151.81502,0.00711
6153.74349,0.04532
6155.67196,0.05822
6157.60043,0.05689
6159.52890,0.08028
6161.45737,0.12510
6163.38583,0.15485
6165.31430,0.13402
6167.24277,0.09075
6169.17124,0.07944
6171.09971,0.09097
6173.02818,0.08027
6174.95665,0.05009
6176.88512,0.01898
6178.81358,0.00166
6180.74205,-0.00061
6182.67052,0.01052
6184.59899,0.04486
6186.52746,0.06533
6188.45593,0.03835
6190.38440,0.00662
6192.31286,0.01148
6194.24133,0.02536
6196.16980,0.01823
6198.09827,0.03397
6200.02674,0.09125
6201.95521,0.14000
6203.88368,0.14702
6205.81215,0.13042
6207.74061,0.11993
6209.66908,0.12730
6211.59755,0.14210
6213.52602,0.12679
6215.45449,0.10062
6217.38296,0.08391
6219.31143,0.03226
6221.23989,-0.03479
6223.16836,-0.02832
6225.09683,0.04376
6227.02530,0.07479
6228.95377,0.06744
6230.88224,0.10218
6232.81071,0.15446
6234.73918,0.14939
6236.66764,0.11488
6238.59611,0.08908
6240.52458,0.06695
6242.45305,0.06799
6244.38152,0.09022
6246.30999,0.08750
6248.23846,0.06666
6250.16692,0.07684
6252.09539,0.11773
6254.02386,0.14381
6255.95233,0.12389
6257.88080,0.09071
6259.80927,0.09357
6261.73774,0.08219
6263.66621,0.04239
6265.59467,0.04522
6267.52314,0.08574
6269.45161,0.11671
6271.38008,0.11179
6273.30855,0.08684
6275.23702,0.10550
6277.16549,0.13387
6279.09395,0.10079
6281.02242,0.06160
6282.95089,0.08306
6284.87936,0.13023
6286.80783,0.15468
6288.73630,0.16386
6290.66477,0.14327
6292.59323,0.08902
6294.52170,0.05650
6296.45017,0.04947
6298.37864,0.05324
6300.30711,0.09732
6302.23558,0.13556
6304.16405,0.10170
6306.09252,0.05770
6308.02098,0.03543
6309.94945,0.04130
6311.87792,0.09708
6313.80639,0.11410
6315.73486,0.08525
6317.66333,0.09477
6319.59180,0.09764
6321.52026,0.05866
6323.44873,0.05690
6325.37720,0.12524
6327.30567,0.18912
6329.23414,0.15226
6331.16261,0.03241
6333.09108,-0.03644
6335.01955,-0.02177
6336.94801,-0.00489
6338.87648,-0.01424
6340.80495,-0.00765
6342.73342,0.05072
6344.66189,0.11252
6346.59036,0.11337
6348.51883,0.10087
6350.44729,0.12620
6352.37576,0.12521
6354.30423,0.08196
6356.23270,0.06309
6358.16117,0.07508
6360.08964,0.08564
6362.01811,0.08749
6363.94658,0.08759
6365.87504,0.08065
6367.80351,0.05745
6369.73198,0.05210
6371.66045,0.09948
6373.58892,0.15770
6375.51739,0.15843
6377.44586,0.11709
6379.37432,0.08554
6381.30279,0.07897
6383.23126,0.09828
6385.15973,0.12053
6387.08820,0.10281
6389.01667,0.07027
6390.94514,0.08392
6392.87361,0.13728
6394.80207,0.14843
6396.73054,0.11108
6398.65901,0.08167
6400.58748,0.06762
6402.51595,0.06271
6404.44442,0.07416
6406.37289,0.10655
6408.30135,0.15199
6410.22982,0.15789
6412.15829,0.08198
6414.08676,0.00117
6416.01523,-0.00221
6417.94370,0.02235
6419.87217,0.00438
6421.80064,-0.00603
6423.72910,0.00179
6425.65757,-0.01271
6427.58604,-0.00343
6429.51451,0.03085
6431.44298,0.03951
6433.37145,0.05032
6435.29992,0.07707
6437.22838,0.08330
6439.15685,0.04260
6441.08532,0.01199
6443.01379,0.04923
6444.94226,0.11011
6446.87073,0.13555
6448.79920,0.13624
6450.72766,0.13694
6452.65613,0.14543
6454.58460,0.15669
6456.51307,0.15274
6458.44154,0.14605
6460.37001,0.16200
6462.29848,0.17118
6464.22695,0.16100
6466.15541,0.13923
6468.08388,0.08648
6470.01235,0.05139
6471.94082,0.10737
6473.86929,0.19750
6475.79776,0.21893
6477.72623,0.14246
6479.65469,0.05650
6481.58316,0.04138
6483.51163,0.06802
6485.44010,0.07999
6487.36857,0.06890
6489.29704,0.06723
6491.22551,0.11909
6493.15398,0.17711
6495.08244,0.14155
6497.01091,0.08337
6498.93938,0.10606
6500.86785,0.13875
6502.79632,0.08861
6504.72479,0.03562
6506.65326,0.03882
6508.58172,0.05752
6510.51019,0.08214
6512.43866,0.08502
6514.36713,0.05187
6516.29560,0.06638
6518.22407,0.12424
6520.15254,0.12257
6522.08101,0.05446
6524.00947,-0.00104
6525.93794,0.01416
6527.86641,0.07034
6529.79488,0.10698
6531.72335,0.11216
6533.65182,0.09878
6535.58029,0.06040
6537.50875,0.02047
6539.43722,0.03469
6541.36569,0.08777
6543.29416,0.09232
6545.22263,0.02255
6547.15110,-0.02178
6549.07957,0.03236
6551.00804,0.09353
6552.93650,0.07036
6554.86497,0.06263
6556.79344,0.11732
6558.72191,0.13150
6560.65038,0.05849
6562.57885,-0.03579
6564.50732,-0.04731
6566.43578,0.04460
6568.36425,0.06822
6570.29272,-0.02064
6572.22119,-0.06179
6574.14966,-0.00355
6576.07813,0.06948
6578.00660,0.07806
6579.93507,0.04021
6581.86353,0.02904
6583.79200,0.04924
6585.72047,0.06834
6587.64894,0.06771
6589.57741,0.05692
6591.50588,0.06112
6593.43435,0.06163
6595.36281,0.05494
6597.29128,0.08486
6599.21975,0.10726
6601.14822,0.04046
6603.07669,-0.02323
6605.00516,0.01246
6606.93363,0.04593
6608.86210,0.02362
6610.79056,0.01559
6612.71903,0.01048
6614.64750,-0.02061
6616.57597,-0.04409
6618.50444,-0.05379
6620.43291,-0.05495
6622.36138,-0.01860
6624.28984,0.05848
6626.21831,0.08680
6628.14678,0.01171
6630.07525,-0.05547
6632.00372,-0.00013
6633.93219,0.11121
6635.86066,0.12494
6637.78912,0.00501
6639.71759,-0.07684
6641.64606,-0.04938
6643.57453,0.01433
6645.50300,0.04795
6647.43147,0.03700
6649.35994,0.00658
6651.28841,0.00189
6653.21687,0.01834
6655.14534,0.04358
6657.07381,0.08484
6659.00228,0.06354
6660.93075,-0.01968
6662.85922,-0.03828
6664.78769,-0.00488
6666.71615,0.00002
6668.64462,-0.02397
6670.57309,-0.07479
6672.50156,-0.11167
6674.43003,-0.05285
6676.35850,0.04593
6678.28697,0.09652
6680.21544,0.07687
6682.14390,0.05251
6684.07237,0.08697
6686.00084,0.12733
6687.92931,0.14280
6689.85778,0.15245
6691.78625,0.11785
6693.71472,0.04371
6695.64318,0.00259
6697.57165,0.03834
6699.50012,0.09927
6701.42859,0.09161
6703.35706,0.00056
6705.28553,-0.07397
6707.21400,-0.05327
6709.14247,0.00388
6711.07093,0.00154
6712.99940,-0.01620
6714.92787,0.01281
6716.85634,0.05455
6718.78481,0.05117
6720.71328,0.00182
6722.64175,-0.03226
6724.57021,-0.02572
6726.49868,-0.02818
6728.42715,-0.03799
6730.35562,0.03166
6732.28409,0.16156
6734.21256,0.21348
6736.14103,0.12966
6738.06950,0.00483
6739.99796,-0.04648
6741.92643,-0.04238
6743.85490,-0.04975
6745.78337,-0.03024
6747.71184,0.04192
6749.64031,0.09211
6751.56878,0.08051
6753.49724,0.03124
6755.42571,-0.01737
6757.35418,-0.01272
6759.28265,0.02515
6761.21112,0.07403
6763.13959,0.15267
6765.06806,0.18949
6766.99653,0.13326
6768.92499,0.05297
6770.85346,0.00233
6772.78193,0.00935
6774.71040,0.07599
6776.63887,0.10164
6778.56734,0.02871
6780.49581,-0.04061
6782.42427,-0.04066
6784.35274,-0.04177
6786.28121,-0.08186
6788.20968,-0.10468
6790.13815,-0.07502
6792.06662,-0.01692
6793.99509,0.02983
6795.92355,0.05959
6797.85202,0.07444
6799.78049,0.11275
6801.70896,0.18368
6803.63743,0.20159
6805.56590,0.14569
6807.49437,0.13753
6809.42284,0.17485
6811.35130,0.11719
6813.27977,0.02466
6815.20824,0.08175
6817.13671,0.19983
6819.06518,0.17628
6820.99365,0.06174
6822.92212,0.03875
6824.85058,0.12019
6826.77905,0.15433
6828.70752,0.12310
6830.63599,0.12154
6832.56446,0.14895
6834.49293,0.15010
6836.42140,0.14617
6838.34987,0.14779
6840.27833,0.13863
6842.20680,0.12343
6844.13527,0.09107
6846.06374,0.04362
6847.99221,0.01959
6849.92068,0.04228
6851.84915,0.06188
6853.77761,0.01604
6855.70608,-0.01633
6857.63455,0.06275
6859.56302,0.11329
6861.49149,0.04834
6863.41996,-0.01460
6865.34843,0.00478
6867.27690,0.01708
6869.20536,-0.04938
6871.13383,-0.10295
6873.06230,-0.05085
6874.99077,0.00871
6876.91924,-0.03367
6878.84771,-0.13089
6880.77618,-0.17619
6882.70464,-0.16119
6884.63311,-0.13473
6886.56158,-0.06134
6888.49005,0.03793
6890.41852,0.04985
6892.34699,-0.02095
6894.27546,-0.06780
6896.20393,-0.05886
6898.13239,-0.00475
6900.06086,0.07104
6901.98933,0.10613
6903.91780,0.06686
6905.84627,0.03705
6907.77474,0.06214
6909.70321,0.08054
6911.63167,0.09978
6913.56014,0.12410
6915.48861,0.11486
6917.41708,0.07009
6919.34555,-0.00193
6921.27402,-0.07441
6923.20249,-0.05754
6925.13096,0.04850
6927.05942,0.11072
6928.98789,0.10053
6930.91636,0.12180
6932.84483,0.12328
6934.77330,0.03482
6936.70177,0.00859
6938.63024,0.11000
6940.55870,0.17278
6942.48717,0.07222
6944.41564,-0.05430
6946.34411,-0.11533
6948.27258,-0.11411
6950.20105,-0.08499
6952.12952,-0.08099
6954.05799,-0.07872
6955.98645,-0.07614
6957.91492,-0.13707
6959.84339,-0.11340
6961.77186,0.04517
6963.70033,0.09056
6965.62880,-0.01272
6967.55727,-0.08050
6969.48573,-0.05615
6971.41420,0.01280
6973.34267,0.15002
6975.27114,0.28132
6977.19961,0.26005
6979.12808,0.16669
6981.05655,0.13347
6982.98501,0.10691
6984.91348,-0.01749
6986.84195,-0.13431
6988.77042,-0.07879
6990.69889,0.07244
6992.62736,0.11270
6994.55583,0.02401
6996.48430,-0.02253
6998.41276,0.08958
7000.34123,0.19484
7002.26970,0.15273
7004.19817,0.03652
7006.12664,-0.03953
7008.05511,-0.00341
7009.98358,0.06034
7011.91204,0.05524
7013.84051,-0.00963
7015.76898,-0.06683
7017.69745,-0.07255
7019.62592,-0.00063
7021.55439,0.11544
7023.48286,0.18207
7025.41133,0.13161
7027.33979,0.00538
7029.26826,-0.03869
7031.19673,0.04830
7033.12520,0.15754
7035.05367,0.21409
7036.98214,0.20668
7038.91061,0.22300
7040.83907,0.27682
7042.76754,0.27716
7044.69601,0.16978
7046.62448,0.07100
7048.55295,0.08592
7050.48142,0.09570
7052.40989,0.04827
7054.33836,0.03936
7056.26682,0.04664
7058.19529,0.01779
7060.12376,0.03575
7062.05223,0.10313
7063.98070,0.10432
7065.90917,0.02409
7067.83764,-0.05578
7069.76610,-0.07693
7071.69457,-0.01694
7073.62304,0.00844
7075.55151,-0.03282
7077.47998,-0.06148
7079.40845,-0.07814
7081.33692,-0.08152
7083.26539,0.00009
7085.19385,0.06753
7087.12232,-0.01703
7089.05079,-0.14263
7090.97926,-0.11978
7092.90773,0.01308
7094.83620,0.11055
7096.76467,0.11335
7098.69313,0.06576
7100.62160,0.05392
7102.55007,0.09295
7104.47854,0.15961
7106.40701,0.22293
7108.33548,0.19141
7110.26395,0.08877
7112.19242,0.01631
7114.12088,0.00393
7116.04935,0.03277
7117.97782,0.08035
7119.90629,0.12584
7121.83476,0.11665
7123.76323,0.01768
7125.69170,-0.06934
7127.62016,-0.03387
7129.54863,0.02986
7131.47710,0.03220
7133.40557,0.01010
7135.33404,-0.03228
7137.26251,-0.07344
7139.19098,-0.00131
7141.11944,0.16881
7143.04791,0.25975
7144.97638,0.25534
7146.90485,0.23420
7148.83332,0.17775
7150.76179,0.03648
7152.69026,-0.14990
7154.61873,-0.21113
7156.54719,-0.10987
7158.47566,0.01626
7160.40413,0.07300
7162.33260,0.06246
7164.26107,0.01178
7166.18954,-0.03577
7168.11801,-0.00300
7170.04647,0.04706
7171.97494,0.03005
7173.90341,0.00111
7175.83188,0.01230
7177.76035,0.06762
7179.68882,0.10714
7181.61729,0.08354
7183.54576,0.01907
7185.47422,-0.05691
7187.40269,-0.12637
7189.33116,-0.14366
7191.25963,-0.05257
7193.18810,0.09828
7195.11657,0.13828
7197.04504,0.05336
7198.97350,0.00274
7200.90197,0.03437
7202.83044,0.10717
7204.75891,0.22155
7206.68738,0.30397
7208.61585,0.27278
7210.54432,0.15163
7212.47279,0.04056
7214.40125,0.03566
7216.32972,0.13170
7218.25819,0.16561
7220.18666,0.01819
7222.11513,-0.10118
7224.04360,-0.06413
7225.97207,0.05652
7227.90053,0.11160
7229.82900,0.10645
7231.75747,0.13591
7233.68594,0.20532
7235.61441,0.23213
7237.54288,0.15634
7239.47135,0.09169
7241.39982,0.18576
7243.32828,0.35518
7245.25675,0.34868
7247.18522,0.19621
7249.11369,0.10229
7251.04216,0.10382
7252.97063,0.09797
7254.89910,0.08473
7256.82756,0.06020
7258.75603,0.01525
7260.68450,-0.00321
7262.61297,0.03645
7264.54144,0.09428
7266.46991,0.13668
7268.39838,0.18372
7270.32685,0.16594
7272.25531,-0.02937
7274.18378,-0.13097
7276.11225,-0.02379
7278.04072,0.03624
7279.96919,-0.00731
7281.89766,-0.02326
7283.82613,-0.02918
7285.75459,-0.00717
7287.68306,0.04006
7289.61153,0.03722
7291.54000,0.03830
7293.46847,0.10198
7295.39694,0.15065
7297.32541,0.13245
7299.25387,0.08367
7301.18234,0.04402
7303.11081,0.01388
7305.03928,0.03487
7306.96775,0.12295
7308.89622,0.15244
7310.82469,0.14870
7312.75316,0.19087
7314.68162,0.13137
7316.61009,-0.01105
7318.53856,-0.01565
7320.46703,0.04395
7322.39550,0.02681
7324.32397,-0.06002
7326.25244,-0.09283
7328.18090,0.02811
7330.10937,0.20056
7332.03784,0.21016
7333.96631,0.12721
7335.89478,0.12987
7337.82325,0.25599
7339.75172,0.27180
7341.68019,0.02142
7343.60865,-0.12377
7345.53712,-0.15262
7347.46559,-0.12642
7349.39406,-0.02980
7351.32253,0.09441
7353.25100,0.20547
7355.17947,0.25509
7357.10793,0.19039
7359.03640,0.08240
7360.96487,0.11166
7362.89334,0.18526
7364.82181,0.11207
7366.75028,0.00593
7368.67875,0.05389
7370.60722,0.09711
7372.53568,-0.04245
7374.46415,-0.27060
7376.39262,-0.29864
7378.32109,-0.17789
7380.24956,-0.08688
7382.17803,0.02914
7384.10650,0.14650
7386.03496,0.19050
7387.96343,0.18186
7389.89190,0.11977
7391.82037,-0.02547
7393.74884,-0.18881
7395.67731,-0.19776
7397.60578,-0.12146
7399.53425,-0.09990
7401.46271,-0.07132
7403.39118,-0.03321
7405.31965,-0.06746
7407.24812,-0.12206
7409.17659,-0.10393
7411.10506,-0.06480
7413.03353,-0.00707
7414.96199,0.14212
7416.89046,0.27639
7418.81893,0.23226
7420.74740,0.21442
7422.67587,0.29826
7424.60434,0.24618
7426.53281,0.12586
7428.46128,0.06272
7430.38974,-0.00314
7432.31821,-0.03950
7434.24668,0.04945
7436.17515,0.18475
7438.10362,0.18335
7440.03209,0.01181
7441.96056,-0.04787
7443.88902,0.16554
7445.81749,0.32268
7447.74596,0.21405
7449.67443,-0.01519
7451.60290,-0.11495
7453.53137,0.00955
7455.45984,0.11903
7457.38831,0.04396
7459.31677,-0.15401
7461.24524,-0.22289
7463.17371,-0.13952
7465.10218,-0.07061
7467.03065,-0.02264
7468.95912,0.06336
7470.88759,0.21231
7472.81605,0.33393
7474.74452,0.28363
7476.67299,0.08380
7478.60146,-0.05251
7480.52993,0.03541
7482.45840,0.16624
7484.38687,0.20682
7486.31533,0.27394
7488.24380,0.35745
7490.17227,0.37036
7492.10074,0.29854
7494.02921,0.15742
7495.95768,0.01842
7497.88615,-0.04281
