399.19301,1.28937
401.12148,0.67586
403.04995,0.82824
404.97842,0.68546
406.90689,0.45328
408.83536,0.20838
410.76382,0.02702
412.69229,-0.02147
414.62076,0.01381
416.54923,0.07777
418.47770,0.19865
420.40617,0.23408
422.33464,0.15249
424.26311,0.14818
426.19157,0.17780
428.12004,0.18508
430.04851,0.25592
431.97698,0.28195
433.90545,0.14788
435.83392,0.03977
437.76239,0.04305
439.69085,0.06540
441.61932,0.06532
443.54779,0.10985
445.47626,0.14655
447.40473,0.13058
449.33320,0.13177
451.26167,0.10053
453.19013,0.03206
455.11860,0.00541
457.04707,0.00711
458.97554,0.02569
460.90401,0.06634
462.83248,0.06797
464.76095,-0.01533
466.68942,-0.08656
468.61788,-0.03637
470.54635,0.06345
472.47482,0.06750
474.40329,-0.02034
476.33176,0.03303
478.26023,0.11841
480.18870,0.12413
482.11716,0.11537
484.04563,0.14211
485.97410,0.14971
487.90257,0.13332
489.83104,0.13128
491.75951,0.14598
493.68798,0.16490
495.61645,0.16886
497.54491,0.12350
499.47338,0.07602
501.40185,0.09968
503.33032,0.11791
505.25879,0.07339
507.18726,0.04039
509.11573,0.02254
511.04419,0.00170
512.97266,0.02523
514.90113,0.08000
516.82960,0.09830
518.75807,0.08473
520.68654,0.08074
522.61501,0.06967
524.54348,0.05436
526.47194,0.07013
528.40041,0.08363
530.32888,0.06727
532.25735,0.05003
534.18582,0.03919
536.11429,0.02317
538.04276,0.02030
539.97122,0.04912
541.89969,0.07122
543.82816,0.06119
545.75663,0.06985
547.68510,0.09802
549.61357,0.09373
551.54204,0.07012
553.47051,0.05631
555.39897,0.05739
557.32744,0.08412
559.25591,0.10750
561.18438,0.09752
563.11285,0.09138
565.04132,0.10160
566.96979,0.08205
568.89825,0.05472
570.82672,0.06695
572.75519,0.08868
574.68366,0.09294
576.61213,0.08010
578.54060,0.05952
580.46907,0.05907
582.39754,0.07801
584.32600,0.09027
586.25447,0.09560
588.18294,0.10419
590.11141,0.10286
592.03988,0.07373
593.96835,0.04833
595.89682,0.05950
597.82528,0.08070
599.75375,0.08785
601.68222,0.09845
603.61069,0.11363
605.53916,0.09990
607.46763,0.06457
609.39610,0.04380
611.32456,0.04839
613.25303,0.07267
615.18150,0.09287
617.10997,0.09062
619.03844,0.08211
620.96691,0.08419
622.89538,0.09159
624.82385,0.09976
626.75231,0.11170
628.68078,0.11715
630.60925,0.10897
632.53772,0.10964
634.46619,0.12168
636.39466,0.12058
638.32313,0.11615
640.25159,0.11605
642.18006,0.10737
644.10853,0.09544
646.03700,0.08674
647.96547,0.08400
649.89394,0.08861
651.82241,0.09776
653.75088,0.11169
655.67934,0.11849
657.60781,0.10768
659.53628,0.08787
661.46475,0.07357
663.39322,0.07674
665.32169,0.09227
667.25016,0.10287
669.17862,0.10728
671.10709,0.10911
673.03556,0.09526
674.96403,0.07486
676.89250,0.07240
678.82097,0.08621
680.74944,0.10125
682.67791,0.11950
684.60637,0.13445
686.53484,0.12455
688.46331,0.09119
690.39178,0.06959
692.32025,0.08135
694.24872,0.10820
696.17719,0.12759
698.10565,0.12887
700.03412,0.11898
701.96259,0.11319
703.89106,0.10366
705.81953,0.09378
707.74800,0.10210
709.67647,0.11394
711.60494,0.11541
713.53340,0.11526
715.46187,0.11814
717.39034,0.12271
719.31881,0.12287
721.24728,0.11852
723.17575,0.11508
725.10422,0.10918
727.03268,0.10420
728.96115,0.10985
730.88962,0.12014
732.81809,0.12569
734.74656,0.12727
736.67503,0.12222
738.60350,0.11028
740.53197,0.10217
742.46043,0.10705
744.38890,0.11860
746.31737,0.12070
748.24584,0.11605
750.17431,0.11446
752.10278,0.10912
754.03125,0.09850
755.95971,0.09421
757.88818,0.09886
759.81665,0.10387
761.74512,0.10660
763.67359,0.11456
765.60206,0.12501
767.53053,0.12189
769.45900,0.10877
771.38746,0.09690
773.31593,0.08858
775.24440,0.09275
777.17287,0.10502
779.10134,0.11167
781.02981,0.11515
782.95828,0.12201
784.88674,0.12948
786.81521,0.12751
788.74368,0.11771
790.67215,0.11451
792.60062,0.11707
794.52909,0.11584
796.45756,0.11122
798.38602,0.10296
800.31449,0.10023
802.24296,0.11191
804.17143,0.11855
806.09990,0.11202
808.02837,0.10825
809.95684,0.10948
811.88531,0.10619
813.81377,0.09925
815.74224,0.09861
817.67071,0.10776
819.59918,0.11209
821.52765,0.10339
823.45612,0.09792
825.38459,0.10331
827.31305,0.10955
829.24152,0.11065
831.16999,0.10887
833.09846,0.11460
835.02693,0.12664
836.95540,0.12428
838.88387,0.11090
840.81234,0.10503
842.74080,0.10538
844.66927,0.11137
846.59774,0.12451
848.52621,0.13250
850.45468,0.12759
852.38315,0.11970
854.31162,0.11644
856.24008,0.12016
858.16855,0.13325
860.09702,0.14401
862.02549,0.14073
863.95396,0.13035
865.88243,0.12277
867.81090,0.13759
869.73937,0.18118
871.66783,0.19596
873.59630,0.16234
875.52477,0.13855
877.45324,0.13209
879.38171,0.12151
881.31018,0.12006
883.23865,0.13053
885.16711,0.13488
887.09558,0.12806
889.02405,0.12243
890.95252,0.12426
892.88099,0.12800
894.80946,0.12684
896.73793,0.12314
898.66640,0.12251
900.59486,0.12210
902.52333,0.11804
904.45180,0.11848
906.38027,0.12613
908.30874,0.12834
910.23721,0.12564
912.16568,0.12587
914.09414,0.12727
916.02261,0.12728
917.95108,0.12439
919.87955,0.12073
921.80802,0.12107
923.73649,0.12132
925.66496,0.11799
927.59343,0.12086
929.52189,0.13124
931.45036,0.13610
933.37883,0.13274
935.30730,0.12798
937.23577,0.12357
939.16424,0.12010
941.09271,0.11952
943.02117,0.12180
944.94964,0.12622
946.87811,0.12809
948.80658,0.12557
950.73505,0.12416
952.66352,0.12783
954.59199,0.13496
956.52045,0.13806
958.44892,0.13582
960.37739,0.13621
962.30586,0.14014
964.23433,0.13989
966.16280,0.13368
968.09127,0.12895
970.01974,0.13055
971.94820,0.13544
973.87667,0.13889
975.80514,0.14071
977.73361,0.14284
979.66208,0.14138
981.59055,0.13391
983.51902,0.12932
985.44748,0.13159
987.37595,0.13266
989.30442,0.13250
991.23289,0.13715
993.16136,0.14027
995.08983,0.13958
997.01830,0.14352
998.94677,0.14552
1000.87523,0.13717
1002.80370,0.12840
1004.73217,0.12764
1006.66064,0.13288
1008.58911,0.13978
1010.51758,0.14450
1012.44605,0.14679
1014.37451,0.14691
1016.30298,0.14298
1018.23145,0.13833
1020.15992,0.13784
1022.08839,0.13639
1024.01686,0.12996
1025.94533,0.12485
1027.87380,0.12313
1029.80226,0.12260
1031.73073,0.12368
1033.65920,0.12647
1035.58767,0.13274
1037.51614,0.14108
1039.44461,0.14164
1041.37308,0.13480
1043.30154,0.13539
1045.23001,0.14428
1047.15848,0.15102
1049.08695,0.15517
1051.01542,0.15369
1052.94389,0.14573
1054.87236,0.14540
1056.80083,0.15519
1058.72929,0.16134
1060.65776,0.15953
1062.58623,0.15568
1064.51470,0.15245
1066.44317,0.15006
1068.37164,0.15025
1070.30011,0.15323
1072.22857,0.15588
1074.15704,0.15669
1076.08551,0.15794
1078.01398,0.15585
1079.94245,0.14793
1081.87092,0.14510
1083.79939,0.15228
1085.72786,0.15776
1087.65632,0.15215
1089.58479,0.14184
1091.51326,0.14016
1093.44173,0.14775
1095.37020,0.14969
1097.29867,0.14146
1099.22714,0.13571
1101.15560,0.13917
1103.08407,0.14798
1105.01254,0.15359
1106.94101,0.15006
1108.86948,0.14507
1110.79795,0.14603
1112.72642,0.14534
1114.65489,0.14151
1116.58335,0.14112
1118.51182,0.14179
1120.44029,0.14294
1122.36876,0.14617
1124.29723,0.14670
1126.22570,0.14389
1128.15417,0.14355
1130.08263,0.14612
1132.01110,0.14763
1133.93957,0.14931
1135.86804,0.15288
1137.79651,0.15405
1139.72498,0.15129
1141.65345,0.14930
1143.58191,0.14954
1145.51038,0.15106
1147.43885,0.15256
1149.36732,0.15088
1151.29579,0.14919
1153.22426,0.15199
1155.15273,0.15416
1157.08120,0.15269
1159.00966,0.15325
1160.93813,0.15593
1162.86660,0.15448
1164.79507,0.15101
1166.72354,0.15123
1168.65201,0.15162
1170.58048,0.14983
1172.50894,0.15095
1174.43741,0.15573
1176.36588,0.15892
1178.29435,0.15773
1180.22282,0.15443
1182.15129,0.15270
1184.07976,0.15228
1186.00823,0.14963
1187.93669,0.14577
1189.86516,0.14461
1191.79363,0.14559
1193.72210,0.14651
1195.65057,0.14809
1197.57904,0.15091
1199.50751,0.15205
1201.43597,0.15069
1203.36444,0.14953
1205.29291,0.15167
1207.22138,0.15608
1209.14985,0.15751
1211.07832,0.15669
1213.00679,0.15544
1214.93526,0.15378
1216.86372,0.15541
1218.79219,0.15904
1220.72066,0.15900
1222.64913,0.15593
1224.57760,0.15578
1226.50607,0.15893
1228.43454,0.15943
1230.36300,0.15821
1232.29147,0.15860
1234.21994,0.15783
1236.14841,0.15660
1238.07688,0.15593
1240.00535,0.15234
1241.93382,0.14850
1243.86229,0.14965
1245.79075,0.15280
1247.71922,0.15443
1249.64769,0.15594
1251.57616,0.15596
1253.50463,0.15315
1255.43310,0.15125
1257.36157,0.15220
1259.29003,0.15417
1261.21850,0.15586
1263.14697,0.15440
1265.07544,0.15037
1267.00391,0.14974
1268.93238,0.15080
1270.86085,0.15208
1272.78932,0.15652
1274.71778,0.16022
1276.64625,0.16195
1278.57472,0.16431
1280.50319,0.16319
1282.43166,0.15903
1284.36013,0.15891
1286.28860,0.16154
1288.21706,0.16336
1290.14553,0.16353
1292.07400,0.16110
1294.00247,0.15864
1295.93094,0.15811
1297.85941,0.15884
1299.78788,0.15881
1301.71634,0.15459
1303.64481,0.14717
1305.57328,0.14417
1307.50175,0.15013
1309.43022,0.16033
1311.35869,0.16792
1313.28716,0.16949
1315.21563,0.16601
1317.14409,0.16352
1319.07256,0.16370
1321.00103,0.16295
1322.92950,0.16347
1324.85797,0.16568
1326.78644,0.16604
1328.71491,0.16420
1330.64337,0.16043
1332.57184,0.15754
1334.50031,0.15978
1336.42878,0.16575
1338.35725,0.17024
1340.28572,0.16624
1342.21419,0.16210
1344.14266,0.17567
1346.07112,0.18753
1347.99959,0.17518
1349.92806,0.16210
1351.85653,0.16087
1353.78500,0.16056
1355.71347,0.16075
1357.64194,0.15997
1359.57040,0.15856
1361.49887,0.16178
1363.42734,0.16745
1365.35581,0.16873
1367.28428,0.16749
1369.21275,0.16621
1371.14122,0.16723
1373.06969,0.17382
1374.99815,0.17857
1376.92662,0.17464
1378.85509,0.17025
1380.78356,0.17031
1382.71203,0.17120
1384.64050,0.17112
1386.56897,0.17166
1388.49743,0.17177
1390.42590,0.17206
1392.35437,0.17566
1394.28284,0.17999
1396.21131,0.17926
1398.13978,0.17464
1400.06825,0.16918
1401.99672,0.16700
1403.92518,0.17014
1405.85365,0.17441
1407.78212,0.17722
1409.71059,0.18053
1411.63906,0.18155
1413.56753,0.18020
1415.49600,0.18249
1417.42446,0.18714
1419.35293,0.18548
1421.28140,0.17965
1423.20987,0.17761
1425.13834,0.17735
1427.06681,0.17619
1428.99528,0.17683
1430.92375,0.18130
1432.85221,0.18656
1434.78068,0.18928
1436.70915,0.18608
1438.63762,0.17864
1440.56609,0.17429
1442.49456,0.17437
1444.42303,0.17727
1446.35149,0.18000
1448.27996,0.18250
1450.20843,0.18618
1452.13690,0.18904
1454.06537,0.19292
1455.99384,0.20091
1457.92231,0.20055
1459.85077,0.19041
1461.77924,0.18733
1463.70771,0.18909
1465.63618,0.18685
1467.56465,0.18318
1469.49312,0.18804
1471.42159,0.20046
1473.35006,0.20561
1475.27852,0.19805
1477.20699,0.19126
1479.13546,0.18661
1481.06393,0.18112
1482.99240,0.17646
1484.92087,0.17775
1486.84934,0.18630
1488.77780,0.19724
1490.70627,0.19790
1492.63474,0.19110
1494.56321,0.19029
1496.49168,0.19617
1498.42015,0.19826
1500.34862,0.19523
1502.27709,0.19444
1504.20555,0.19799
1506.13402,0.20645
1508.06249,0.20756
1509.99096,0.19766
1511.91943,0.19035
1513.84790,0.18917
1515.77637,0.19378
1517.70483,0.20188
1519.63330,0.20913
1521.56177,0.20866
1523.49024,0.20217
1525.41871,0.19834
1527.34718,0.19270
1529.27565,0.18885
1531.20412,0.19388
1533.13258,0.20178
1535.06105,0.20366
1536.98952,0.20884
1538.91799,0.22278
1540.84646,0.22847
1542.77493,0.21812
1544.70340,0.20525
1546.63186,0.19435
1548.56033,0.19258
1550.48880,0.19755
1552.41727,0.20135
1554.34574,0.20228
1556.27421,0.20709
1558.20268,0.22219
1560.13115,0.21681
1562.05961,0.19951
1563.98808,0.19328
1565.91655,0.19459
1567.84502,0.19919
1569.77349,0.20111
1571.70196,0.19793
1573.63043,0.19765
1575.55889,0.20213
1577.48736,0.20266
1579.41583,0.19658
1581.34430,0.19030
1583.27277,0.18650
1585.20124,0.18509
1587.12971,0.18581
1589.05818,0.18725
1590.98664,0.18639
1592.91511,0.18566
1594.84358,0.18813
1596.77205,0.18966
1598.70052,0.18849
1600.62899,0.18837
1602.55746,0.18921
1604.48592,0.18872
1606.41439,0.18876
1608.34286,0.18989
1610.27133,0.18884
1612.19980,0.18650
1614.12827,0.18664
1616.05674,0.18989
1617.98521,0.19385
1619.91367,0.19708
1621.84214,0.19978
1623.77061,0.19983
1625.69908,0.19989
1627.62755,0.20134
1629.55602,0.20006
1631.48449,0.19960
1633.41295,0.20514
1635.34142,0.21483
1637.26989,0.21432
1639.19836,0.20550
1641.12683,0.19942
1643.05530,0.19990
1644.98377,0.21015
1646.91223,0.22242
1648.84070,0.21761
1650.76917,0.21225
1652.69764,0.21784
1654.62611,0.21523
1656.55458,0.20359
1658.48305,0.19745
1660.41152,0.19849
1662.33998,0.20190
1664.26845,0.20061
1666.19692,0.20009
1668.12539,0.20487
1670.05386,0.20738
1671.98233,0.20323
1673.91080,0.20115
1675.83926,0.20030
1677.76773,0.19893
1679.69620,0.20062
1681.62467,0.20812
1683.55314,0.22037
1685.48161,0.21742
1687.41008,0.20541
1689.33855,0.19962
1691.26701,0.19657
1693.19548,0.19571
1695.12395,0.20183
1697.05242,0.21385
1698.98089,0.22033
1700.90936,0.21663
1702.83783,0.21077
1704.76629,0.20744
1706.69476,0.20257
1708.62323,0.19642
1710.55170,0.19353
1712.48017,0.19769
1714.40864,0.21010
1716.33711,0.22209
1718.26558,0.21596
1720.19404,0.20238
1722.12251,0.19518
1724.05098,0.19268
1725.97945,0.19122
1727.90792,0.19042
1729.83639,0.19378
1731.76486,0.20187
1733.69332,0.20532
1735.62179,0.19605
1737.55026,0.19003
1739.47873,0.19228
1741.40720,0.19713
1743.33567,0.19999
1745.26414,0.20144
1747.19261,0.20186
1749.12107,0.20013
1751.04954,0.19506
1752.97801,0.19073
1754.90648,0.19184
1756.83495,0.19619
1758.76342,0.19727
1760.69189,0.19421
1762.62035,0.18924
1764.54882,0.18640
1766.47729,0.19004
1768.40576,0.19862
1770.33423,0.20509
1772.26270,0.20473
1774.19117,0.19834
1776.11964,0.19236
1778.04810,0.19120
1779.97657,0.19341
1781.90504,0.19438
1783.83351,0.19468
1785.76198,0.19449
1787.69045,0.19308
1789.61892,0.19475
1791.54738,0.20007
1793.47585,0.20089
1795.40432,0.19798
1797.33279,0.19703
1799.26126,0.19609
1801.18973,0.19351
1803.11820,0.19133
1805.04666,0.19032
1806.97513,0.19075
1808.90360,0.19259
1810.83207,0.19217
1812.76054,0.18838
1814.68901,0.18667
1816.61748,0.18678
1818.54595,0.18290
1820.47441,0.17897
1822.40288,0.18390
1824.33135,0.19237
1826.25982,0.19521
1828.18829,0.19695
1830.11676,0.19866
1832.04523,0.19653
1833.97369,0.19388
1835.90216,0.19282
1837.83063,0.19244
1839.75910,0.19206
1841.68757,0.19364
1843.61604,0.19730
1845.54451,0.19804
1847.47298,0.19543
1849.40144,0.19280
1851.32991,0.19115
1853.25838,0.19134
1855.18685,0.19235
1857.11532,0.19154
1859.04379,0.18974
1860.97226,0.18888
1862.90072,0.18925
1864.82919,0.19172
1866.75766,0.19535
1868.68613,0.19737
1870.61460,0.19667
1872.54307,0.19305
1874.47154,0.18846
1876.40001,0.18655
1878.32847,0.18660
1880.25694,0.18683
1882.18541,0.18873
1884.11388,0.19077
1886.04235,0.19152
1887.97082,0.19269
1889.89929,0.19164
1891.82775,0.18828
1893.75622,0.18871
1895.68469,0.19247
1897.61316,0.19384
1899.54163,0.19206
1901.47010,0.19077
1903.39857,0.19164
1905.32704,0.19352
1907.25550,0.19437
1909.18397,0.19225
1911.11244,0.18839
1913.04091,0.18600
1914.96938,0.18609
1916.89785,0.18845
1918.82632,0.19242
1920.75478,0.19660
1922.68325,0.19844
1924.61172,0.19569
1926.54019,0.19275
1928.46866,0.19324
1930.39713,0.19352
1932.32560,0.19179
1934.25407,0.19098
1936.18253,0.19126
1938.11100,0.19194
1940.03947,0.19561
1941.96794,0.19983
1943.89641,0.19800
1945.82488,0.19301
1947.75335,0.19046
1949.68181,0.19053
1951.61028,0.19158
1953.53875,0.19232
1955.46722,0.19261
1957.39569,0.19284
1959.32416,0.19288
1961.25263,0.19286
1963.18110,0.19402
1965.10956,0.19595
1967.03803,0.19625
1968.96650,0.19457
1970.89497,0.19357
1972.82344,0.19460
1974.75191,0.19488
1976.68038,0.19318
1978.60884,0.19291
1980.53731,0.19436
1982.46578,0.19476
1984.39425,0.19519
1986.32272,0.19710
1988.25119,0.19820
1990.17966,0.19736
1992.10812,0.19505
1994.03659,0.19212
1995.96506,0.19163
1997.89353,0.19348
1999.82200,0.19414
2001.75047,0.19350
2003.67894,0.19411
2005.60741,0.19552
2007.53587,0.19506
2009.46434,0.19258
2011.39281,0.19085
2013.32128,0.19177
2015.24975,0.19383
2017.17822,0.19347
2019.10669,0.19092
2021.03515,0.19088
2022.96362,0.19220
2024.89209,0.19029
2026.82056,0.18892
2028.74903,0.19220
2030.67750,0.19566
2032.60597,0.19620
2034.53444,0.19604
2036.46290,0.19665
2038.39137,0.19796
2040.31984,0.19858
2042.24831,0.19711
2044.17678,0.19526
2046.10525,0.19488
2048.03372,0.19535
2049.96218,0.19556
2051.89065,0.19494
2053.81912,0.19352
2055.74759,0.19239
2057.67606,0.19306
2059.60453,0.19510
2061.53300,0.19644
2063.46147,0.19702
2065.38993,0.19779
2067.31840,0.19671
2069.24687,0.19358
2071.17534,0.19213
2073.10381,0.19335
2075.03228,0.19493
2076.96075,0.19499
2078.88921,0.19437
2080.81768,0.19547
2082.74615,0.19872
2084.67462,0.20055
2086.60309,0.19909
2088.53156,0.19797
2090.46003,0.19807
2092.38850,0.19829
2094.31696,0.19833
2096.24543,0.19617
2098.17390,0.19307
2100.10237,0.19227
2102.03084,0.19373
2103.95931,0.19582
2105.88778,0.19744
2107.81624,0.19727
2109.74471,0.19557
2111.67318,0.19505
2113.60165,0.19517
2115.53012,0.19400
2117.45859,0.19404
2119.38706,0.19614
2121.31553,0.19712
2123.24399,0.19691
2125.17246,0.19787
2127.10093,0.19853
2129.02940,0.19654
2130.95787,0.19426
2132.88634,0.19336
2134.81481,0.19310
2136.74327,0.19525
2138.67174,0.19860
2140.60021,0.20024
2142.52868,0.20078
2144.45715,0.19957
2146.38562,0.19767
2148.31409,0.19846
2150.24255,0.19990
2152.17102,0.19856
2154.09949,0.19579
2156.02796,0.19359
2157.95643,0.19273
2159.88490,0.19456
2161.81337,0.19814
2163.74184,0.20020
2165.67030,0.20030
2167.59877,0.19921
2169.52724,0.19731
2171.45571,0.19622
2173.38418,0.19564
2175.31265,0.19412
2177.24112,0.19318
2179.16958,0.19369
2181.09805,0.19476
2183.02652,0.19652
2184.95499,0.19789
2186.88346,0.19773
2188.81193,0.19690
2190.74040,0.19679
2192.66887,0.19808
2194.59733,0.19869
2196.52580,0.19872
2198.45427,0.20019
2200.38274,0.20118
2202.31121,0.20125
2204.23968,0.20150
2206.16815,0.20073
2208.09661,0.19944
2210.02508,0.19887
2211.95355,0.19872
2213.88202,0.19887
2215.81049,0.19878
2217.73896,0.19828
2219.66743,0.19862
2221.59590,0.19975
2223.52436,0.19996
2225.45283,0.20038
2227.38130,0.20244
2229.30977,0.20221
2231.23824,0.19875
2233.16671,0.19616
2235.09518,0.19513
2237.02364,0.19607
2238.95211,0.19885
2240.88058,0.19954
2242.80905,0.19699
2244.73752,0.19456
2246.66599,0.19385
2248.59446,0.19472
2250.52293,0.19735
2252.45139,0.19946
2254.37986,0.19978
2256.30833,0.19951
2258.23680,0.19760
2260.16527,0.19390
2262.09374,0.19204
2264.02221,0.19300
2265.95067,0.19416
2267.87914,0.19548
2269.80761,0.19761
2271.73608,0.19878
2273.66455,0.19911
2275.59302,0.20050
2277.52149,0.20118
2279.44996,0.19917
2281.37842,0.19707
2283.30689,0.19699
2285.23536,0.19770
2287.16383,0.19712
2289.09230,0.19467
2291.02077,0.19115
2292.94924,0.18804
2294.87770,0.18682
2296.80617,0.18730
2298.73464,0.18852
2300.66311,0.18865
2302.59158,0.18636
2304.52005,0.18353
2306.44852,0.18171
2308.37699,0.18020
2310.30545,0.17944
2312.23392,0.18066
2314.16239,0.18246
2316.09086,0.18232
2318.01933,0.18041
2319.94780,0.17806
2321.87627,0.17359
2323.80473,0.16713
2325.73320,0.16201
2327.66167,0.15625
2329.59014,0.15281
2331.51861,0.16098
2333.44708,0.17415
2335.37555,0.17853
2337.30401,0.17250
2339.23248,0.16471
2341.16095,0.16275
2343.08942,0.16284
2345.01789,0.16567
2346.94636,0.17519
2348.87483,0.18209
2350.80330,0.18129
2352.73176,0.17552
2354.66023,0.17038
2356.58870,0.16571
2358.51717,0.15533
2360.44564,0.14534
2362.37411,0.14287
2364.30258,0.14130
2366.23104,0.13987
2368.15951,0.14102
2370.08798,0.14624
2372.01645,0.15482
2373.94492,0.16569
2375.87339,0.17911
2377.80186,0.18822
2379.73033,0.18972
2381.65879,0.19061
2383.58726,0.19379
2385.51573,0.19601
2387.44420,0.19647
2389.37267,0.19683
2391.30114,0.19797
2393.22961,0.19949
2395.15807,0.19987
2397.08654,0.19916
2399.01501,0.19895
2400.94348,0.19873
2402.87195,0.19774
2404.80042,0.19638
2406.72889,0.19586
2408.65736,0.19777
2410.58582,0.20054
2412.51429,0.20154
2414.44276,0.20159
2416.37123,0.20157
2418.29970,0.20079
2420.22817,0.20071
2422.15664,0.20076
2424.08510,0.19884
2426.01357,0.19812
2427.94204,0.20005
2429.87051,0.20120
2431.79898,0.20096
2433.72745,0.20040
2435.65592,0.19917
2437.58439,0.19781
2439.51285,0.19726
2441.44132,0.19780
2443.36979,0.19899
2445.29826,0.19884
2447.22673,0.19667
2449.15520,0.19631
2451.08367,0.19966
2453.01213,0.20217
2454.94060,0.20193
2456.86907,0.20135
2458.79754,0.20111
2460.72601,0.20194
2462.65448,0.20389
2464.58295,0.20442
2466.51142,0.20315
2468.43988,0.20231
2470.36835,0.20177
2472.29682,0.20106
2474.22529,0.20068
2476.15376,0.19951
2478.08223,0.19765
2480.01070,0.19626
2481.93916,0.19608
2483.86763,0.19824
2485.79610,0.20205
2487.72457,0.20403
2489.65304,0.20242
2491.58151,0.20019
2493.50998,0.19996
2495.43844,0.20078
2497.36691,0.20188
2499.29538,0.20327
2501.22385,0.20400
2503.15232,0.20388
2505.08079,0.20303
2507.00926,0.20109
2508.93773,0.19969
2510.86619,0.19996
2512.79466,0.20173
2514.72313,0.20453
2516.65160,0.20547
2518.58007,0.20392
2520.50854,0.20259
2522.43701,0.20130
2524.36547,0.19897
2526.29394,0.19804
2528.22241,0.20043
2530.15088,0.20361
2532.07935,0.20516
2534.00782,0.20585
2535.93629,0.20563
2537.86476,0.20364
2539.79322,0.20150
2541.72169,0.20096
2543.65016,0.20175
2545.57863,0.20317
2547.50710,0.20499
2549.43557,0.20673
2551.36404,0.20646
2553.29250,0.20428
2555.22097,0.20274
2557.14944,0.20250
2559.07791,0.20204
2561.00638,0.20068
2562.93485,0.20127
2564.86332,0.20419
2566.79179,0.20498
2568.72025,0.20254
2570.64872,0.19994
2572.57719,0.19937
2574.50566,0.20014
2576.43413,0.20120
2578.36260,0.20241
2580.29107,0.20297
2582.21953,0.20205
2584.14800,0.20126
2586.07647,0.20253
2588.00494,0.20494
2589.93341,0.20783
2591.86188,0.20878
2593.79035,0.20509
2595.71882,0.20125
2597.64728,0.20185
2599.57575,0.20445
2601.50422,0.20595
2603.43269,0.20639
2605.36116,0.20656
2607.28963,0.20618
2609.21810,0.20639
2611.14656,0.21072
2613.07503,0.21384
2615.00350,0.20937
2616.93197,0.20570
2618.86044,0.20695
2620.78891,0.20744
2622.71738,0.20680
2624.64585,0.20688
2626.57431,0.20693
2628.50278,0.20568
2630.43125,0.20462
2632.35972,0.20554
2634.28819,0.20591
2636.21666,0.20389
2638.14513,0.20235
2640.07359,0.20322
2642.00206,0.20435
2643.93053,0.20530
2645.85900,0.20808
2647.78747,0.21026
2649.71594,0.20928
2651.64441,0.20872
2653.57288,0.20996
2655.50134,0.21025
2657.42981,0.20970
2659.35828,0.20931
2661.28675,0.20843
2663.21522,0.20743
2665.14369,0.20751
2667.07216,0.20798
2669.00062,0.20754
2670.92909,0.20755
2672.85756,0.21066
2674.78603,0.21421
2676.71450,0.21253
2678.64297,0.20857
2680.57144,0.20928
2682.49990,0.21307
2684.42837,0.21514
2686.35684,0.21501
2688.28531,0.21304
2690.21378,0.20957
2692.14225,0.20626
2694.07072,0.20515
2695.99919,0.20807
2697.92765,0.21263
2699.85612,0.21306
2701.78459,0.20995
2703.71306,0.20858
2705.64153,0.20914
2707.57000,0.20908
2709.49847,0.20806
2711.42693,0.20763
2713.35540,0.20830
2715.28387,0.20867
2717.21234,0.20961
2719.14081,0.21240
2721.06928,0.21441
2722.99775,0.21457
2724.92622,0.21507
2726.85468,0.21485
2728.78315,0.21364
2730.71162,0.21355
2732.64009,0.21260
2734.56856,0.21061
2736.49703,0.21091
2738.42550,0.21251
2740.35396,0.21258
2742.28243,0.21115
2744.21090,0.20971
2746.13937,0.21113
2748.06784,0.21550
2749.99631,0.21865
2751.92478,0.21918
2753.85325,0.21861
2755.78171,0.21871
2757.71018,0.21958
2759.63865,0.21910
2761.56712,0.21844
2763.49559,0.21902
2765.42406,0.21751
2767.35253,0.21326
2769.28099,0.21166
2771.20946,0.21361
2773.13793,0.21383
2775.06640,0.21237
2776.99487,0.21344
2778.92334,0.21566
2780.85181,0.21540
2782.78028,0.21496
2784.70874,0.21740
2786.63721,0.21958
2788.56568,0.21954
2790.49415,0.21987
2792.42262,0.22070
2794.35109,0.22040
2796.27956,0.21963
2798.20802,0.22034
2800.13649,0.22150
2802.06496,0.21899
2803.99343,0.21461
2805.92190,0.21408
2807.85037,0.21687
2809.77884,0.21991
2811.70731,0.22107
2813.63577,0.21855
2815.56424,0.21538
2817.49271,0.21505
2819.42118,0.21662
2821.34965,0.21835
2823.27812,0.21907
2825.20659,0.21976
2827.13505,0.22250
2829.06352,0.22513
2830.99199,0.22328
2832.92046,0.21847
2834.84893,0.21651
2836.77740,0.21795
2838.70587,0.21920
2840.63433,0.21911
2842.56280,0.21884
2844.49127,0.21922
2846.41974,0.21871
2848.34821,0.21711
2850.27668,0.21850
2852.20515,0.22246
2854.13362,0.22249
2856.06208,0.21787
2857.99055,0.21496
2859.91902,0.21704
2861.84749,0.21962
2863.77596,0.21866
2865.70443,0.21682
2867.63290,0.21691
2869.56136,0.21908
2871.48983,0.22166
2873.41830,0.22178
2875.34677,0.21862
2877.27524,0.21508
2879.20371,0.21606
2881.13218,0.21982
2883.06065,0.21964
2884.98911,0.21637
2886.91758,0.21656
2888.84605,0.22166
2890.77452,0.22579
2892.70299,0.22567
2894.63146,0.22460
2896.55993,0.22442
2898.48839,0.22351
2900.41686,0.22220
2902.34533,0.22096
2904.27380,0.21794
2906.20227,0.21555
2908.13074,0.21659
2910.05921,0.21875
2911.98768,0.22066
2913.91614,0.22054
2915.84461,0.21795
2917.77308,0.21849
2919.70155,0.22173
2921.63002,0.22090
2923.55849,0.21623
2925.48696,0.21162
2927.41542,0.20936
2929.34389,0.21025
2931.27236,0.21330
2933.20083,0.21724
2935.12930,0.21812
2937.05777,0.21531
2938.98624,0.21581
2940.91471,0.21990
2942.84317,0.22180
2944.77164,0.21931
2946.70011,0.21339
2948.62858,0.21072
2950.55705,0.21520
2952.48552,0.22277
2954.41399,0.22646
2956.34245,0.22029
2958.27092,0.21151
2960.19939,0.21039
2962.12786,0.21338
2964.05633,0.21456
2965.98480,0.21415
2967.91327,0.21466
2969.84174,0.21840
2971.77020,0.22333
2973.69867,0.22543
2975.62714,0.22242
2977.55561,0.21545
2979.48408,0.21270
2981.41255,0.21680
2983.34102,0.22041
2985.26948,0.21944
2987.19795,0.21578
2989.12642,0.21560
2991.05489,0.22178
2992.98336,0.22853
2994.91183,0.23028
2996.84030,0.22733
2998.76877,0.22292
3000.69723,0.22066
3002.62570,0.22222
3004.55417,0.22492
3006.48264,0.22524
3008.41111,0.22314
3010.33958,0.21774
3012.26805,0.20411
3014.19651,0.18120
3016.12498,0.16302
3018.05345,0.17181
3019.98192,0.20108
3021.91039,0.21957
3023.83886,0.22313
3025.76733,0.22493
3027.69579,0.22512
3029.62426,0.22326
3031.55273,0.22318
3033.48120,0.22683
3035.40967,0.23101
3037.33814,0.23069
3039.26661,0.22897
3041.19508,0.23057
3043.12354,0.23113
3045.05201,0.22619
3046.98048,0.22024
3048.90895,0.22002
3050.83742,0.22405
3052.76589,0.22716
3054.69436,0.22658
3056.62282,0.22089
3058.55129,0.21679
3060.47976,0.22046
3062.40823,0.22632
3064.33670,0.22654
3066.26517,0.22052
3068.19364,0.21628
3070.12211,0.21873
3072.05057,0.22417
3073.97904,0.22540
3075.90751,0.22090
3077.83598,0.21918
3079.76445,0.22275
3081.69292,0.22371
3083.62139,0.21345
3085.54985,0.20138
3087.47832,0.20760
3089.40679,0.22323
3091.33526,0.22849
3093.26373,0.22322
3095.19220,0.21886
3097.12067,0.22355
3099.04914,0.22832
3100.97760,0.22430
3102.90607,0.21617
3104.83454,0.21292
3106.76301,0.21801
3108.69148,0.22401
3110.61995,0.22258
3112.54842,0.21637
3114.47688,0.21616
3116.40535,0.22168
3118.33382,0.22363
3120.26229,0.22187
3122.19076,0.22229
3124.11923,0.22702
3126.04770,0.23130
3127.97617,0.23085
3129.90463,0.22722
3131.83310,0.22518
3133.76157,0.22819
3135.69004,0.23380
3137.61851,0.23471
3139.54698,0.22926
3141.47545,0.22402
3143.40391,0.22199
3145.33238,0.22313
3147.26085,0.22640
3149.18932,0.22922
3151.11779,0.23086
3153.04626,0.23199
3154.97473,0.23356
3156.90320,0.23263
3158.83166,0.22831
3160.76013,0.22397
3162.68860,0.22031
3164.61707,0.21888
3166.54554,0.22309
3168.47401,0.23070
3170.40248,0.23352
3172.33094,0.22922
3174.25941,0.22601
3176.18788,0.22932
3178.11635,0.23283
3180.04482,0.23249
3181.97329,0.23351
3183.90176,0.23697
3185.83022,0.23768
3187.75869,0.23438
3189.68716,0.23241
3191.61563,0.23348
3193.54410,0.23322
3195.47257,0.23033
3197.40104,0.22857
3199.32951,0.23046
3201.25797,0.23327
3203.18644,0.23188
3205.11491,0.22692
3207.04338,0.22497
3208.97185,0.22577
3210.90032,0.22561
3212.82879,0.22507
3214.75725,0.22567
3216.68572,0.22940
3218.61419,0.23369
3220.54266,0.23488
3222.47113,0.23385
3224.39960,0.23058
3226.32807,0.22669
3228.25654,0.22655
3230.18500,0.22872
3232.11347,0.22838
3234.04194,0.22763
3235.97041,0.23062
3237.89888,0.23336
3239.82735,0.23244
3241.75582,0.23208
3243.68428,0.23434
3245.61275,0.23598
3247.54122,0.23422
3249.46969,0.23064
3251.39816,0.22831
3253.32663,0.22757
3255.25510,0.22907
3257.18357,0.23020
3259.11203,0.22784
3261.04050,0.22713
3262.96897,0.23059
3264.89744,0.23332
3266.82591,0.23215
3268.75438,0.22942
3270.68285,0.23090
3272.61131,0.23414
3274.53978,0.23252
3276.46825,0.23125
3278.39672,0.23401
3280.32519,0.23486
3282.25366,0.23243
3284.18213,0.23126
3286.11060,0.23309
3288.03906,0.23445
3289.96753,0.23447
3291.89600,0.23412
3293.82447,0.23226
3295.75294,0.22919
3297.68141,0.22629
3299.60988,0.22501
3301.53834,0.22490
3303.46681,0.22350
3305.39528,0.22189
3307.32375,0.22381
3309.25222,0.22802
3311.18069,0.23013
3313.10916,0.22814
3315.03763,0.22354
3316.96609,0.22223
3318.89456,0.22733
3320.82303,0.23195
3322.75150,0.22937
3324.67997,0.22525
3326.60844,0.22567
3328.53691,0.22706
3330.46537,0.22824
3332.39384,0.23098
3334.32231,0.23354
3336.25078,0.23369
3338.17925,0.23180
3340.10772,0.23138
3342.03619,0.23352
3343.96466,0.23506
3345.89312,0.23424
3347.82159,0.23082
3349.75006,0.22724
3351.67853,0.22964
3353.60700,0.23699
3355.53547,0.24076
3357.46394,0.23850
3359.39240,0.23488
3361.32087,0.23222
3363.24934,0.22940
3365.17781,0.22735
3367.10628,0.22645
3369.03475,0.22760
3370.96322,0.23339
3372.89168,0.23729
3374.82015,0.23269
3376.74862,0.22640
3378.67709,0.22480
3380.60556,0.22530
3382.53403,0.22682
3384.46250,0.23040
3386.39097,0.23175
3388.31943,0.23174
3390.24790,0.23644
3392.17637,0.23979
3394.10484,0.23573
3396.03331,0.23170
3397.96178,0.23114
3399.89025,0.22939
3401.81871,0.22472
3403.74718,0.22179
3405.67565,0.22616
3407.60412,0.23382
3409.53259,0.23421
3411.46106,0.22586
3413.38953,0.21914
3415.31800,0.21904
3417.24646,0.22144
3419.17493,0.22490
3421.10340,0.22677
3423.03187,0.22475
3424.96034,0.22284
3426.88881,0.22433
3428.81728,0.22849
3430.74574,0.23035
3432.67421,0.22679
3434.60268,0.22212
3436.53115,0.22210
3438.45962,0.22596
3440.38809,0.22810
3442.31656,0.22662
3444.24503,0.22398
3446.17349,0.22094
3448.10196,0.21751
3450.03043,0.21657
3451.95890,0.21810
3453.88737,0.21854
3455.81584,0.21579
3457.74431,0.21130
3459.67277,0.20833
3461.60124,0.20691
3463.52971,0.20684
3465.45818,0.20697
3467.38665,0.20468
3469.31512,0.20249
3471.24359,0.20199
3473.17206,0.20265
3475.10052,0.20600
3477.02899,0.20849
3478.95746,0.20670
3480.88593,0.20527
3482.81440,0.20630
3484.74287,0.20580
3486.67134,0.20271
3488.59980,0.19841
3490.52827,0.19593
3492.45674,0.19644
3494.38521,0.19551
3496.31368,0.19300
3498.24215,0.19305
3500.17062,0.19386
3502.09909,0.19471
3504.02755,0.19702
3505.95602,0.19692
3507.88449,0.19460
3509.81296,0.19344
3511.74143,0.18969
3513.66990,0.18333
3515.59837,0.18172
3517.52683,0.18394
3519.45530,0.18631
3521.38377,0.18875
3523.31224,0.18830
3525.24071,0.18677
3527.16918,0.18731
3529.09765,0.18679
3531.02611,0.18302
3532.95458,0.17905
3534.88305,0.18074
3536.81152,0.18631
3538.73999,0.18808
3540.66846,0.18669
3542.59693,0.18722
3544.52540,0.18952
3546.45386,0.18807
3548.38233,0.18247
3550.31080,0.17777
3552.23927,0.17435
3554.16774,0.17302
3556.09621,0.17544
3558.02468,0.17857
3559.95314,0.17970
3561.88161,0.17819
3563.81008,0.17562
3565.73855,0.17802
3567.66702,0.18692
3569.59549,0.18920
3571.52396,0.18147
3573.45243,0.17153
3575.38089,0.16640
3577.30936,0.16820
3579.23783,0.17142
3581.16630,0.17095
3583.09477,0.17140
3585.02324,0.17636
3586.95171,0.17711
3588.88017,0.16731
3590.80864,0.16310
3592.73711,0.16866
3594.66558,0.17204
3596.59405,0.16852
3598.52252,0.16605
3600.45099,0.16698
3602.37946,0.16587
3604.30792,0.16238
3606.23639,0.16367
3608.16486,0.16988
3610.09333,0.17290
3612.02180,0.17144
3613.95027,0.16906
3615.87874,0.17003
3617.80720,0.16929
3619.73567,0.15915
3621.66414,0.15178
3623.59261,0.15292
3625.52108,0.15666
3627.44955,0.16291
3629.37802,0.16869
3631.30649,0.16916
3633.23495,0.16930
3635.16342,0.16666
3637.09189,0.16041
3639.02036,0.15529
3640.94883,0.15255
3642.87730,0.15354
3644.80577,0.16170
3646.73423,0.17661
3648.66270,0.18894
3650.59117,0.18154
3652.51964,0.16634
3654.44811,0.15626
3656.37658,0.14926
3658.30505,0.14363
3660.23352,0.14082
3662.16198,0.14104
3664.09045,0.14305
3666.01892,0.14720
3667.94739,0.15485
3669.87586,0.15996
3671.80433,0.15659
3673.73280,0.15499
3675.66126,0.15562
3677.58973,0.15365
3679.51820,0.15180
3681.44667,0.14870
3683.37514,0.14463
3685.30361,0.14315
3687.23208,0.14667
3689.16055,0.15433
3691.08901,0.15358
3693.01748,0.14434
3694.94595,0.13992
3696.87442,0.14153
3698.80289,0.14249
3700.73136,0.14087
3702.65983,0.14004
3704.58829,0.14213
3706.51676,0.14757
3708.44523,0.15415
3710.37370,0.15529
3712.30217,0.14823
3714.23064,0.14325
3716.15911,0.14400
3718.08757,0.14674
3720.01604,0.14972
3721.94451,0.15180
3723.87298,0.14971
3725.80145,0.14484
3727.72992,0.14210
3729.65839,0.14458
3731.58686,0.15120
3733.51532,0.15482
3735.44379,0.15356
3737.37226,0.15042
3739.30073,0.14257
3741.22920,0.13683
3743.15767,0.14177
3745.08614,0.15594
3747.01460,0.16358
3748.94307,0.16424
3750.87154,0.15836
3752.80001,0.14712
3754.72848,0.14180
3756.65695,0.14396
3758.58542,0.14771
3760.51389,0.14340
3762.44235,0.13547
3764.37082,0.13382
3766.29929,0.13628
3768.22776,0.13557
3770.15623,0.13344
3772.08470,0.13470
3774.01317,0.13853
3775.94163,0.14415
3777.87010,0.14965
3779.79857,0.14861
3781.72704,0.14293
3783.65551,0.13973
3785.58398,0.13707
3787.51245,0.13377
3789.44092,0.13103
3791.36938,0.12904
3793.29785,0.13041
3795.22632,0.13632
3797.15479,0.14209
3799.08326,0.14551
3801.01173,0.14944
3802.94020,0.14910
3804.86866,0.14726
3806.79713,0.14656
3808.72560,0.14112
3810.65407,0.13653
3812.58254,0.13607
3814.51101,0.13627
3816.43948,0.13765
3818.36795,0.14124
3820.29641,0.14159
3822.22488,0.13640
3824.15335,0.13352
3826.08182,0.13339
3828.01029,0.13408
3829.93876,0.13437
3831.86723,0.13191
3833.79569,0.12838
3835.72416,0.13015
3837.65263,0.13884
3839.58110,0.14331
3841.50957,0.14170
3843.43804,0.14188
3845.36651,0.14102
3847.29498,0.13714
3849.22344,0.13481
3851.15191,0.13893
3853.08038,0.14697
3855.00885,0.14181
3856.93732,0.13261
3858.86579,0.12991
3860.79426,0.13249
3862.72272,0.13595
3864.65119,0.13528
3866.57966,0.13385
3868.50813,0.13340
3870.43660,0.13139
3872.36507,0.13232
3874.29354,0.13459
3876.22200,0.13356
3878.15047,0.13188
3880.07894,0.13021
3882.00741,0.12692
3883.93588,0.12480
3885.86435,0.12570
3887.79282,0.12852
3889.72129,0.13367
3891.64975,0.13746
3893.57822,0.13500
3895.50669,0.13329
3897.43516,0.13371
3899.36363,0.13184
3901.29210,0.13183
3903.22057,0.13761
3905.14903,0.13819
3907.07750,0.13070
3909.00597,0.12238
3910.93444,0.11513
3912.86291,0.11154
3914.79138,0.11638
3916.71985,0.12669
3918.64832,0.13029
3920.57678,0.12591
3922.50525,0.12211
3924.43372,0.11902
3926.36219,0.11471
3928.29066,0.11206
3930.21913,0.11180
3932.14760,0.11391
3934.07606,0.11685
3936.00453,0.11775
3937.93300,0.11757
3939.86147,0.11723
3941.78994,0.11635
3943.71841,0.11562
3945.64688,0.11867
3947.57535,0.12660
3949.50381,0.13149
3951.43228,0.12710
3953.36075,0.11978
3955.28922,0.11691
3957.21769,0.11863
3959.14616,0.11946
3961.07463,0.11691
3963.00309,0.11642
3964.93156,0.11987
3966.86003,0.12100
3968.78850,0.11832
3970.71697,0.11507
3972.64544,0.11301
3974.57391,0.11290
3976.50238,0.11343
3978.43084,0.11311
3980.35931,0.11159
3982.28778,0.11046
3984.21625,0.11103
3986.14472,0.11191
3988.07319,0.11405
3990.00166,0.11625
3991.93012,0.11354
3993.85859,0.10790
3995.78706,0.10481
3997.71553,0.10435
3999.64400,0.10471
4001.57247,0.10639
4003.50094,0.10761
4005.42941,0.10554
4007.35787,0.10463
4009.28634,0.10807
4011.21481,0.10884
4013.14328,0.10460
4015.07175,0.10147
4017.00022,0.10131
4018.92869,0.10209
4020.85715,0.10080
4022.78562,0.09776
4024.71409,0.09814
4026.64256,0.10165
4028.57103,0.10352
4030.49950,0.10407
4032.42797,0.10403
4034.35644,0.09936
4036.28490,0.09082
4038.21337,0.08547
4040.14184,0.08582
4042.07031,0.08886
4043.99878,0.09200
4045.92725,0.09555
4047.85572,0.09704
4049.78418,0.09612
4051.71265,0.09842
4053.64112,0.10216
4055.56959,0.10373
4057.49806,0.10388
4059.42653,0.10048
4061.35500,0.09514
4063.28346,0.09373
4065.21193,0.09524
4067.14040,0.09481
4069.06887,0.09241
4070.99734,0.09018
4072.92581,0.08953
4074.85428,0.09008
4076.78275,0.08945
4078.71121,0.09036
4080.63968,0.09596
4082.56815,0.10082
4084.49662,0.09987
4086.42509,0.09607
4088.35356,0.09557
4090.28203,0.09891
4092.21049,0.09996
4094.13896,0.09592
4096.06743,0.09257
4097.99590,0.09333
4099.92437,0.09342
4101.85284,0.09346
4103.78131,0.09606
4105.70978,0.09353
4107.63824,0.08518
4109.56671,0.08239
4111.49518,0.08754
4113.42365,0.09204
4115.35212,0.09138
4117.28059,0.08818
4119.20906,0.08635
4121.13752,0.09008
4123.06599,0.09772
4124.99446,0.10141
4126.92293,0.09753
4128.85140,0.08946
4130.77987,0.08368
4132.70834,0.08251
4134.63681,0.08308
4136.56527,0.08262
4138.49374,0.08155
4140.42221,0.08344
4142.35068,0.08757
4144.27915,0.08829
4146.20762,0.08402
4148.13609,0.07911
4150.06455,0.07893
4151.99302,0.08305
4153.92149,0.08478
4155.84996,0.08068
4157.77843,0.07592
4159.70690,0.07565
4161.63537,0.07659
4163.56384,0.07515
4165.49230,0.07444
4167.42077,0.07658
4169.34924,0.07820
4171.27771,0.07800
4173.20618,0.07789
4175.13465,0.07632
4177.06312,0.07327
4178.99158,0.07389
4180.92005,0.07870
4182.84852,0.08064
4184.77699,0.07688
4186.70546,0.07170
4188.63393,0.06848
4190.56240,0.06777
4192.49087,0.06748
4194.41933,0.06764
4196.34780,0.07054
4198.27627,0.07574
4200.20474,0.08014
4202.13321,0.07943
4204.06168,0.07441
4205.99015,0.06948
4207.91861,0.06724
4209.84708,0.06839
4211.77555,0.07087
4213.70402,0.07493
4215.63249,0.07753
4217.56096,0.07295
4219.48943,0.06770
4221.41789,0.06720
4223.34636,0.06560
4225.27483,0.06310
4227.20330,0.06577
4229.13177,0.07168
4231.06024,0.07268
4232.98871,0.06683
4234.91718,0.06289
4236.84564,0.06487
4238.77411,0.06600
4240.70258,0.06460
4242.63105,0.06410
4244.55952,0.06308
4246.48799,0.06187
4248.41646,0.06270
4250.34492,0.06400
4252.27339,0.06537
4254.20186,0.06645
4256.13033,0.06613
4258.05880,0.06540
4259.98727,0.06289
4261.91574,0.05821
4263.84421,0.05682
4265.77267,0.05908
4267.70114,0.06000
4269.62961,0.06343
4271.55808,0.06943
4273.48655,0.06609
4275.41502,0.05429
4277.34349,0.04831
4279.27195,0.05107
4281.20042,0.05355
4283.12889,0.05312
4285.05736,0.05278
4286.98583,0.05315
4288.91430,0.05401
4290.84277,0.05503
4292.77124,0.05969
4294.69970,0.06515
4296.62817,0.06047
4298.55664,0.04856
4300.48511,0.03966
4302.41358,0.03688
4304.34205,0.04117
4306.27052,0.04629
4308.19898,0.04478
4310.12745,0.04259
4312.05592,0.04627
4313.98439,0.05198
4315.91286,0.05317
4317.84133,0.05062
4319.76980,0.04936
4321.69827,0.04768
4323.62673,0.04498
4325.55520,0.04368
4327.48367,0.04205
4329.41214,0.04068
4331.34061,0.04156
4333.26908,0.04271
4335.19755,0.04175
4337.12601,0.03761
4339.05448,0.03267
4340.98295,0.03318
4342.91142,0.03884
4344.83989,0.04283
4346.76836,0.04104
4348.69683,0.03675
4350.62530,0.03638
4352.55376,0.03678
4354.48223,0.03660
4356.41070,0.04005
4358.33917,0.04131
4360.26764,0.03708
4362.19611,0.03473
4364.12458,0.03562
4366.05304,0.03407
4367.98151,0.03241
4369.90998,0.03333
4371.83845,0.03093
4373.76692,0.02486
4375.69539,0.02308
4377.62386,0.02826
4379.55232,0.02972
4381.48079,0.02303
4383.40926,0.01990
4385.33773,0.02131
4387.26620,0.02069
4389.19467,0.02315
4391.12314,0.02893
4393.05161,0.03090
4394.98007,0.03092
4396.90854,0.03339
4398.83701,0.03604
4400.76548,0.03568
4402.69395,0.03292
4404.62242,0.02986
4406.55089,0.02817
4408.47935,0.02677
4410.40782,0.02234
4412.33629,0.01807
4414.26476,0.02024
4416.19323,0.02500
4418.12170,0.02549
4420.05017,0.02535
4421.97864,0.02725
4423.90710,0.02403
4425.83557,0.01820
4427.76404,0.02131
4429.69251,0.02671
4431.62098,0.02279
4433.54945,0.01732
4435.47792,0.01644
4437.40638,0.01771
4439.33485,0.02143
4441.26332,0.02263
4443.19179,0.01973
4445.12026,0.01799
4447.04873,0.01693
4448.97720,0.01642
4450.90567,0.01643
4452.83413,0.01193
4454.76260,0.00443
4456.69107,0.00272
4458.61954,0.00680
4460.54801,0.00988
4462.47648,0.01220
4464.40495,0.01410
4466.33341,0.01322
4468.26188,0.01147
4470.19035,0.00940
4472.11882,0.00614
4474.04729,0.00265
4475.97576,0.00109
4477.90423,0.00446
4479.83270,0.01233
4481.76116,0.01977
4483.68963,0.02153
4485.61810,0.01878
4487.54657,0.01786
4489.47504,0.01994
4491.40351,0.01965
4493.33198,0.01646
4495.26044,0.01336
4497.18891,0.00858
4499.11738,0.00610
4501.04585,0.00543
4502.97432,0.00118
4504.90279,0.00299
4506.83126,0.01269
4508.75973,0.01793
4510.68819,0.01337
4512.61666,0.00294
4514.54513,0.00052
4516.47360,0.01153
4518.40207,0.01820
4520.33054,0.01377
4522.25901,0.01325
4524.18747,0.01765
4526.11594,0.01711
4528.04441,0.01348
4529.97288,0.01223
4531.90135,0.01344
4533.82982,0.01391
4535.75829,0.01255
4537.68676,0.01109
4539.61522,0.00857
4541.54369,0.00363
4543.47216,0.00059
4545.40063,0.00172
4547.32910,0.00593
4549.25757,0.00981
4551.18604,0.00801
4553.11450,0.00638
4555.04297,0.01035
4556.97144,0.01144
4558.89991,0.00809
4560.82838,0.01045
4562.75685,0.01972
4564.68532,0.02445
4566.61378,0.01635
4568.54225,0.00193
4570.47072,-0.00558
4572.39919,-0.00498
4574.32766,-0.00057
4576.25613,0.01051
4578.18460,0.02168
4580.11307,0.02017
4582.04153,0.01037
4583.97000,0.00322
4585.89847,-0.00016
4587.82694,-0.00141
4589.75541,-0.00038
4591.68388,-0.00001
4593.61235,-0.00219
4595.54081,0.00006
4597.46928,0.00619
4599.39775,0.00662
4601.32622,0.00361
4603.25469,0.00272
4605.18316,0.00202
4607.11163,-0.00190
4609.04010,-0.00585
4610.96856,-0.00327
4612.89703,0.00224
4614.82550,0.00286
4616.75397,0.00133
4618.68244,0.00528
4620.61091,0.01037
4622.53938,0.00707
4624.46784,0.00077
4626.39631,0.00195
4628.32478,0.00180
4630.25325,-0.00949
4632.18172,-0.01446
4634.11019,-0.00099
4636.03866,0.01321
4637.96713,0.01365
4639.89559,0.00421
4641.82406,-0.00415
4643.75253,-0.00558
4645.68100,-0.00329
4647.60947,0.00122
4649.53794,0.00687
4651.46641,0.00836
4653.39487,0.00244
4655.32334,-0.00558
4657.25181,-0.00620
4659.18028,-0.00195
4661.10875,0.00019
4663.03722,0.00500
4664.96569,0.01335
4666.89416,0.01506
4668.82262,0.00875
4670.75109,0.00744
4672.67956,0.01611
4674.60803,0.02156
4676.53650,0.01887
4678.46497,0.01377
4680.39344,0.00357
4682.32190,-0.00789
4684.25037,-0.00930
4686.17884,-0.00283
4688.10731,0.00107
4690.03578,0.00465
4691.96425,0.01292
4693.89272,0.01734
4695.82119,0.01772
4697.74965,0.01744
4699.67812,0.00985
4701.60659,-0.00128
4703.53506,-0.00468
4705.46353,-0.00117
4707.39200,0.00126
4709.32047,0.00007
4711.24893,-0.00294
4713.17740,-0.00287
4715.10587,-0.00075
4717.03434,-0.00335
4718.96281,-0.00423
4720.89128,-0.00005
4722.81975,0.00091
4724.74821,0.00053
4726.67668,0.00129
4728.60515,-0.00017
4730.53362,0.00069
4732.46209,0.00731
4734.39056,0.01131
4736.31903,0.00867
4738.24750,0.00652
4740.17596,0.00689
4742.10443,0.00769
4744.03290,0.00942
4745.96137,0.00927
4747.88984,0.00730
4749.81831,0.01243
4751.74678,0.02166
4753.67524,0.01976
4755.60371,0.01089
4757.53218,0.00587
4759.46065,-0.00008
4761.38912,-0.00590
4763.31759,-0.00545
4765.24606,-0.00267
4767.17453,-0.00202
4769.10299,-0.00569
4771.03146,-0.01231
4772.95993,-0.01472
4774.88840,-0.01207
4776.81687,-0.00897
4778.74534,-0.00640
4780.67381,-0.00497
4782.60227,-0.00223
4784.53074,0.00346
4786.45921,0.00863
4788.38768,0.01569
4790.31615,0.02056
4792.24462,0.01336
4794.17309,0.00462
4796.10156,0.00758
4798.03002,0.01086
4799.95849,0.00822
4801.88696,0.01211
4803.81543,0.02019
4805.74390,0.01836
4807.67237,0.01093
4809.60084,0.00420
4811.52930,-0.00337
4813.45777,-0.00294
4815.38624,0.00475
4817.31471,0.00726
4819.24318,0.00655
4821.17165,0.00396
4823.10012,-0.00472
4825.02859,-0.01125
4826.95705,-0.00850
4828.88552,-0.00510
4830.81399,-0.00783
4832.74246,-0.01017
4834.67093,-0.00664
4836.59940,0.00013
4838.52787,0.00374
4840.45633,0.00176
4842.38480,0.00247
4844.31327,0.00871
4846.24174,0.01247
4848.17021,0.01453
4850.09868,0.01523
4852.02715,0.00861
4853.95562,0.00152
4855.88408,0.00263
4857.81255,0.00916
4859.74102,0.01198
4861.66949,0.00214
4863.59796,-0.00899
4865.52643,-0.00423
4867.45490,0.00914
4869.38336,0.01297
4871.31183,0.00784
4873.24030,0.01233
4875.16877,0.02397
4877.09724,0.02603
4879.02571,0.02399
4880.95418,0.02603
4882.88265,0.02580
4884.81111,0.01590
4886.73958,0.00357
4888.66805,0.00165
4890.59652,0.00555
4892.52499,0.00663
4894.45346,0.00040
4896.38193,-0.01054
4898.31039,-0.00831
4900.23886,0.00539
4902.16733,0.00902
4904.09580,0.00483
4906.02427,0.00841
4907.95274,0.01539
4909.88121,0.01465
4911.80967,0.01279
4913.73814,0.01664
4915.66661,0.01572
4917.59508,0.00920
4919.52355,0.00465
4921.45202,0.00523
4923.38049,0.00871
4925.30896,0.00411
4927.23742,-0.00761
4929.16589,-0.01466
4931.09436,-0.01458
4933.02283,-0.00854
4934.95130,-0.00004
4936.87977,0.00340
4938.80824,0.00034
4940.73670,0.00038
4942.66517,0.01450
4944.59364,0.02867
4946.52211,0.01880
4948.45058,-0.00329
4950.37905,-0.01233
4952.30752,-0.00601
4954.23599,0.00483
4956.16445,0.01427
4958.09292,0.01400
4960.02139,0.00098
4961.94986,-0.00503
4963.87833,-0.00209
4965.80680,-0.00457
4967.73527,-0.00157
4969.66373,0.01051
4971.59220,0.01584
4973.52067,0.01057
4975.44914,0.00270
4977.37761,-0.00543
4979.30608,-0.00927
4981.23455,-0.00229
4983.16302,0.01115
4985.09148,0.02171
4987.01995,0.02011
4988.94842,0.01114
4990.87689,0.01122
4992.80536,0.01473
4994.73383,0.01120
4996.66230,0.00547
4998.59076,0.00008
5000.51923,-0.00184
5002.44770,0.00435
5004.37617,0.01306
5006.30464,0.01852
5008.23311,0.02251
5010.16158,0.01656
5012.09005,-0.00334
5014.01851,-0.01938
5015.94698,-0.01923
5017.87545,-0.00539
5019.80392,0.01154
5021.73239,0.01847
5023.66086,0.01055
5025.58933,-0.00181
5027.51779,-0.00406
5029.44626,0.00271
5031.37473,0.00833
5033.30320,0.00940
5035.23167,0.00930
5037.16014,0.00948
5039.08861,0.01577
5041.01708,0.03088
5042.94554,0.04140
5044.87401,0.03671
5046.80248,0.02148
5048.73095,0.01463
5050.65942,0.02297
5052.58789,0.02956
5054.51636,0.02672
5056.44482,0.02649
5058.37329,0.03270
5060.30176,0.03180
5062.23023,0.02260
5064.15870,0.01517
5066.08717,0.01418
5068.01564,0.02518
5069.94410,0.04024
5071.87257,0.04557
5073.80104,0.04157
5075.72951,0.03365
5077.65798,0.02965
5079.58645,0.02755
5081.51492,0.01900
5083.44339,0.01312
5085.37185,0.01447
5087.30032,0.01777
5089.22879,0.02436
5091.15726,0.02337
5093.08573,0.00831
5095.01420,0.00213
5096.94267,0.01001
5098.87113,0.01362
5100.79960,0.02029
5102.72807,0.03672
5104.65654,0.04218
5106.58501,0.02975
5108.51348,0.01711
5110.44195,0.01301
5112.37042,0.00966
5114.29888,0.00222
5116.22735,-0.00198
5118.15582,0.00412
5120.08429,0.01112
5122.01276,0.00854
5123.94123,0.00418
5125.86970,0.00992
5127.79816,0.02426
5129.72663,0.03516
5131.65510,0.03502
5133.58357,0.02768
5135.51204,0.02061
5137.44051,0.01368
5139.36898,0.00906
5141.29745,0.00753
5143.22591,0.00089
5145.15438,-0.00925
5147.08285,-0.01211
5149.01132,0.00331
5150.93979,0.03521
5152.86826,0.05973
5154.79673,0.05988
5156.72519,0.04353
5158.65366,0.02840
5160.58213,0.02246
5162.51060,0.02052
5164.43907,0.01818
5166.36754,0.02345
5168.29601,0.03349
5170.22448,0.03246
5172.15294,0.02402
5174.08141,0.02319
5176.00988,0.03409
5177.93835,0.04544
5179.86682,0.03861
5181.79529,0.02171
5183.72376,0.01856
5185.65222,0.02706
5187.58069,0.03015
5189.50916,0.02188
5191.43763,0.01516
5193.36610,0.01866
5195.29457,0.02123
5197.22304,0.02733
5199.15151,0.04248
5201.07997,0.04945
5203.00844,0.04493
5204.93691,0.03654
5206.86538,0.02529
5208.79385,0.02182
5210.72232,0.03185
5212.65079,0.03825
5214.57925,0.03525
5216.50772,0.03196
5218.43619,0.03029
5220.36466,0.03523
5222.29313,0.04478
5224.22160,0.04605
5226.15007,0.04479
5228.07854,0.05279
5230.00700,0.05659
5231.93547,0.04707
5233.86394,0.04358
5235.79241,0.05747
5237.72088,0.06152
5239.64935,0.03967
5241.57782,0.02692
5243.50628,0.04322
5245.43475,0.05849
5247.36322,0.05632
5249.29169,0.04739
5251.22016,0.03902
5253.14863,0.03583
5255.07710,0.04013
5257.00556,0.04881
5258.93403,0.05013
5260.86250,0.04540
5262.79097,0.04954
5264.71944,0.05324
5266.64791,0.04329
5268.57638,0.03398
5270.50485,0.03553
5272.43331,0.03577
5274.36178,0.03256
5276.29025,0.04235
5278.21872,0.05739
5280.14719,0.05125
5282.07566,0.02578
5284.00413,0.01600
5285.93259,0.03542
5287.86106,0.05458
5289.78953,0.06243
5291.71800,0.06258
5293.64647,0.04751
5295.57494,0.03222
5297.50341,0.03277
5299.43188,0.02976
5301.36034,0.00872
5303.28881,-0.00894
5305.21728,-0.00750
5307.14575,0.00878
5309.07422,0.03109
5311.00269,0.04295
5312.93116,0.04003
5314.85962,0.03393
5316.78809,0.02571
5318.71656,0.01752
5320.64503,0.01932
5322.57350,0.02929
5324.50197,0.04527
5326.43044,0.06432
5328.35891,0.07980
5330.28737,0.09156
5332.21584,0.09455
5334.14431,0.09075
5336.07278,0.09374
5338.00125,0.09424
5339.92972,0.08011
5341.85819,0.06657
5343.78665,0.05923
5345.71512,0.05339
5347.64359,0.05357
5349.57206,0.06562
5351.50053,0.08043
5353.42900,0.07995
5355.35747,0.07022
5357.28594,0.05853
5359.21440,0.03444
5361.14287,0.01745
5363.07134,0.02869
5364.99981,0.04284
5366.92828,0.03998
5368.85675,0.03543
5370.78522,0.03922
5372.71368,0.04311
5374.64215,0.05164
5376.57062,0.06938
5378.49909,0.06478
5380.42756,0.04526
5382.35603,0.04058
5384.28450,0.05107
5386.21297,0.06933
5388.14143,0.08228
5390.06990,0.08026
5391.99837,0.06608
5393.92684,0.05375
5395.85531,0.05333
5397.78378,0.05114
5399.71225,0.04802
5401.64071,0.05172
5403.56918,0.06025
5405.49765,0.07358
5407.42612,0.07979
5409.35459,0.07664
5411.28306,0.07297
5413.21153,0.06272
5415.13999,0.05398
5417.06846,0.05002
5418.99693,0.04746
5420.92540,0.05300
5422.85387,0.05454
5424.78234,0.04681
5426.71081,0.04260
5428.63928,0.03804
5430.56774,0.03155
5432.49621,0.02500
5434.42468,0.01265
5436.35315,0.01738
5438.28162,0.04324
5440.21009,0.06247
5442.13856,0.07605
5444.06702,0.08704
5445.99549,0.07892
5447.92396,0.06503
5449.85243,0.06889
5451.78090,0.07951
5453.70937,0.08443
5455.63784,0.07385
5457.56631,0.04578
5459.49477,0.02740
5461.42324,0.02628
5463.35171,0.03514
5465.28018,0.05393
5467.20865,0.06900
5469.13712,0.06507
5471.06559,0.05465
5472.99405,0.06152
5474.92252,0.07221
5476.85099,0.05708
5478.77946,0.04283
5480.70793,0.05706
5482.63640,0.06483
5484.56487,0.04471
5486.49334,0.02844
5488.42180,0.03393
5490.35027,0.05203
5492.27874,0.07134
5494.20721,0.08337
5496.13568,0.08097
5498.06415,0.07267
5499.99262,0.07034
5501.92108,0.06331
5503.84955,0.05618
5505.77802,0.06345
5507.70649,0.07235
5509.63496,0.07587
5511.56343,0.07562
5513.49190,0.07024
5515.42037,0.07475
5517.34883,0.08271
5519.27730,0.06733
5521.20577,0.04014
5523.13424,0.03537
5525.06271,0.05669
5526.99118,0.07489
5528.91965,0.07699
5530.84811,0.07222
5532.77658,0.07343
5534.70505,0.08467
5536.63352,0.09296
5538.56199,0.08601
5540.49046,0.07073
5542.41893,0.06599
5544.34740,0.07760
5546.27586,0.09337
5548.20433,0.09188
5550.13280,0.06867
5552.06127,0.05523
5553.98974,0.06993
5555.91821,0.09225
5557.84668,0.09613
5559.77514,0.08130
5561.70361,0.07563
5563.63208,0.09530
5565.56055,0.11319
5567.48902,0.10041
5569.41749,0.07324
5571.34596,0.06085
5573.27443,0.06150
5575.20289,0.05483
5577.13136,0.04732
5579.05983,0.05834
5580.98830,0.07624
5582.91677,0.07909
5584.84524,0.07460
5586.77371,0.06974
5588.70217,0.05273
5590.63064,0.03977
5592.55911,0.04864
5594.48758,0.05720
5596.41605,0.05838
5598.34452,0.06339
5600.27299,0.06403
5602.20145,0.05856
5604.12992,0.06609
5606.05839,0.07952
5607.98686,0.07539
5609.91533,0.06270
5611.84380,0.05299
5613.77227,0.05147
5615.70074,0.07528
5617.62920,0.11900
5619.55767,0.14691
5621.48614,0.13124
5623.41461,0.08131
5625.34308,0.04148
5627.27155,0.04544
5629.20002,0.05974
5631.12848,0.05175
5633.05695,0.04633
5634.98542,0.05442
5636.91389,0.04957
5638.84236,0.02649
5640.77083,0.01558
5642.69930,0.02332
5644.62777,0.03315
5646.55623,0.04869
5648.48470,0.06779
5650.41317,0.07223
5652.34164,0.06716
5654.27011,0.07024
5656.19858,0.08286
5658.12705,0.10103
5660.05551,0.10905
5661.98398,0.09547
5663.91245,0.07698
5665.84092,0.06135
5667.76939,0.05507
5669.69786,0.06073
5671.62633,0.05554
5673.55480,0.04519
5675.48326,0.05695
5677.41173,0.08397
5679.34020,0.10608
5681.26867,0.10748
5683.19714,0.07333
5685.12561,0.03294
5687.05408,0.02720
5688.98254,0.04141
5690.91101,0.05689
5692.83948,0.07844
5694.76795,0.09025
5696.69642,0.08758
5698.62489,0.09143
5700.55336,0.09852
5702.48183,0.08622
5704.41029,0.05940
5706.33876,0.03760
5708.26723,0.03268
5710.19570,0.05474
5712.12417,0.08505
5714.05264,0.08973
5715.98111,0.09054
5717.90957,0.11265
5719.83804,0.11335
5721.76651,0.08603
5723.69498,0.08478
5725.62345,0.10787
5727.55192,0.11668
5729.48039,0.10120
5731.40886,0.07895
5733.33732,0.07646
5735.26579,0.08704
5737.19426,0.08034
5739.12273,0.07614
5741.05120,0.09059
5742.97967,0.08676
5744.90814,0.06397
5746.83660,0.05460
5748.76507,0.05627
5750.69354,0.05932
5752.62201,0.06422
5754.55048,0.05424
5756.47895,0.03421
5758.40742,0.03387
5760.33588,0.05516
5762.26435,0.07650
5764.19282,0.08095
5766.12129,0.07621
5768.04976,0.08151
5769.97823,0.09193
5771.90670,0.09125
5773.83517,0.07067
5775.76363,0.04391
5777.69210,0.03048
5779.62057,0.02020
5781.54904,0.02041
5783.47751,0.05464
5785.40598,0.10579
5787.33445,0.14194
5789.26291,0.15476
5791.19138,0.14343
5793.11985,0.11168
5795.04832,0.08049
5796.97679,0.05926
5798.90526,0.05514
5800.83373,0.07521
5802.76220,0.10161
5804.69066,0.11976
5806.61913,0.13058
5808.54760,0.13411
5810.47607,0.12099
5812.40454,0.08889
5814.33301,0.05716
5816.26148,0.04892
5818.18994,0.05956
5820.11841,0.06051
5822.04688,0.05345
5823.97535,0.05231
5825.90382,0.06801
5827.83229,0.09554
5829.76076,0.09258
5831.68923,0.06931
5833.61769,0.07822
5835.54616,0.10507
5837.47463,0.09749
5839.40310,0.06334
5841.33157,0.05098
5843.26004,0.05776
5845.18851,0.06293
5847.11697,0.09361
5849.04544,0.14047
5850.97391,0.13322
5852.90238,0.09350
5854.83085,0.08162
5856.75932,0.08423
5858.68779,0.09074
5860.61626,0.10968
5862.54472,0.11135
5864.47319,0.08391
5866.40166,0.07293
5868.33013,0.08716
5870.25860,0.09180
5872.18707,0.10026
5874.11554,0.12607
5876.04400,0.13883
5877.97247,0.11966
5879.90094,0.08665
5881.82941,0.07316
5883.75788,0.07906
5885.68635,0.07922
5887.61482,0.08509
5889.54329,0.10917
5891.47175,0.10671
5893.40022,0.07856
5895.32869,0.09925
5897.25716,0.14418
5899.18563,0.11864
5901.11410,0.04821
5903.04257,0.02293
5904.97103,0.05506
5906.89950,0.09357
5908.82797,0.10924
5910.75644,0.11756
5912.68491,0.12053
5914.61338,0.10209
5916.54185,0.09240
5918.47032,0.10495
5920.39878,0.10678
5922.32725,0.09171
5924.25572,0.06365
5926.18419,0.03550
5928.11266,0.02643
5930.04113,0.02323
5931.96960,0.03320
5933.89806,0.07903
5935.82653,0.11440
5937.75500,0.08517
5939.68347,0.05232
5941.61194,0.07888
5943.54041,0.10240
5945.46888,0.08589
5947.39734,0.08067
5949.32581,0.09617
5951.25428,0.10545
5953.18275,0.10767
5955.11122,0.10689
5957.03969,0.08981
5958.96816,0.06463
5960.89663,0.05622
5962.82509,0.05627
5964.75356,0.06182
5966.68203,0.08617
5968.61050,0.10700
5970.53897,0.11047
5972.46744,0.12351
5974.39591,0.12452
5976.32437,0.08983
5978.25284,0.06263
5980.18131,0.06032
5982.10978,0.05589
5984.03825,0.03780
5985.96672,0.03366
5987.89519,0.05412
5989.82366,0.07121
5991.75212,0.08299
5993.68059,0.08631
5995.60906,0.07991
5997.53753,0.09371
5999.46600,0.10427
6001.39447,0.08158
6003.32294,0.05897
6005.25140,0.06956
6007.17987,0.09272
6009.10834,0.09487
6011.03681,0.09054
6012.96528,0.08989
6014.89375,0.06475
6016.82222,0.03806
6018.75069,0.04433
6020.67915,0.03922
6022.60762,0.01272
6024.53609,0.02103
6026.46456,0.07018
6028.39303,0.08836
6030.32150,0.04224
6032.24997,0.00442
6034.17843,0.00894
6036.10690,0.04082
6038.03537,0.09315
6039.96384,0.12510
6041.89231,0.11171
6043.82078,0.07934
6045.74925,0.05373
6047.67772,0.04477
6049.60618,0.06872
6051.53465,0.10598
6053.46312,0.12746
6055.39159,0.12917
6057.32006,0.10428
6059.24853,0.09099
6061.17700,0.11803
6063.10546,0.12828
6065.03393,0.09618
6066.96240,0.07612
6068.89087,0.09099
6070.81934,0.11172
6072.74781,0.12202
6074.67628,0.13445
6076.60475,0.15364
6078.53321,0.15202
6080.46168,0.10691
6082.39015,0.05547
6084.31862,0.03519
6086.24709,0.03228
6088.17556,0.04224
6090.10403,0.06575
6092.03249,0.07199
6093.96096,0.07627
6095.88943,0.10770
6097.81790,0.11045
6099.74637,0.05807
6101.67484,0.01870
6103.60331,0.01945
6105.53177,0.02326
6107.46024,0.02831
6109.38871,0.05943
6111.31718,0.10219
6113.24565,0.12574
6115.17412,0.11647
6117.10259,0.08210
6119.03106,0.06133
6120.95952,0.06573
6122.88799,0.06518
6124.81646,0.05659
6126.74493,0.07373
6128.67340,0.12568
6130.60187,0.13491
6132.53034,0.07459
6134.45880,0.02360
6136.38727,0.01013
6138.31574,-0.00429
6140.24421,-0.01209
6142.17268,0.01510
6144.10115,0.01548
6146.02962,-0.02119
6147.95809,-0.01047
6149.88655,0.04252
6151.81502,0.08756
6153.74349,0.11122
6155.67196,0.11483
6157.60043,0.11534
6159.52890,0.10308
6161.45737,0.08226
6163.38583,0.10408
6165.31430,0.12655
6167.24277,0.08409
6169.17124,0.04035
6171.09971,0.03878
6173.02818,0.04530
6174.95665,0.06717
6176.88512,0.11649
6178.81358,0.15682
6180.74205,0.15387
6182.67052,0.13426
6184.59899,0.14887
6186.52746,0.16810
6188.45593,0.14798
6190.38440,0.13670
6192.31286,0.16140
6194.24133,0.16797
6196.16980,0.12935
6198.09827,0.08375
6200.02674,0.06917
6201.95521,0.07493
6203.88368,0.07444
6205.81215,0.07377
6207.74061,0.08311
6209.66908,0.08938
6211.59755,0.06577
6213.52602,0.02032
6215.45449,0.00187
6217.38296,0.02322
6219.31143,0.05873
6221.23989,0.09300
6223.16836,0.11830
6225.09683,0.12326
6227.02530,0.11466
6228.95377,0.11763
6230.88224,0.13123
6232.81071,0.13244
6234.73918,0.11271
6236.66764,0.10342
6238.59611,0.12052
6240.52458,0.12330
6242.45305,0.09120
6244.38152,0.04737
6246.30999,0.02034
6248.23846,0.04768
6250.16692,0.11951
6252.09539,0.16196
6254.02386,0.16250
6255.95233,0.14716
6257.88080,0.10958
6259.80927,0.06160
6261.73774,0.02535
6263.66621,0.02337
6265.59467,0.05668
6267.52314,0.07502
6269.45161,0.04884
6271.38008,0.02074
6273.30855,0.06307
6275.23702,0.16526
6277.16549,0.20396
6279.09395,0.15042
6281.02242,0.10333
6282.95089,0.09197
6284.87936,0.07887
6286.80783,0.07011
6288.73630,0.08024
6290.66477,0.09521
6292.59323,0.07961
6294.52170,0.04081
6296.45017,0.01752
6298.37864,0.02562
6300.30711,0.06529
6302.23558,0.11351
6304.16405,0.13617
6306.09252,0.12794
6308.02098,0.11672
6309.94945,0.10324
6311.87792,0.04971
6313.80639,0.00526
6315.73486,0.04844
6317.66333,0.11370
6319.59180,0.10250
6321.52026,0.06734
6323.44873,0.05485
6325.37720,0.04388
6327.30567,0.06967
6329.23414,0.10394
6331.16261,0.07340
6333.09108,0.03007
6335.01955,0.02197
6336.94801,0.02346
6338.87648,0.04831
6340.80495,0.09440
6342.73342,0.09495
6344.66189,0.06081
6346.59036,0.06677
6348.51883,0.09823
6350.44729,0.10756
6352.37576,0.08749
6354.30423,0.05612
6356.23270,0.04257
6358.16117,0.05514
6360.08964,0.07799
6362.01811,0.08304
6363.94658,0.07433
6365.87504,0.07467
6367.80351,0.07291
6369.73198,0.06740
6371.66045,0.05353
6373.58892,0.01577
6375.51739,-0.00795
6377.44586,0.00795
6379.37432,0.04076
6381.30279,0.05441
6383.23126,0.00361
6385.15973,-0.04738
6387.08820,0.00870
6389.01667,0.09479
6390.94514,0.10884
6392.87361,0.07533
6394.80207,0.04307
6396.73054,0.03331
6398.65901,0.05984
6400.58748,0.08322
6402.51595,0.08385
6404.44442,0.11211
6406.37289,0.16553
6408.30135,0.18140
6410.22982,0.16004
6412.15829,0.14790
6414.08676,0.14950
6416.01523,0.15998
6417.94370,0.15907
6419.87217,0.13183
6421.80064,0.12123
6423.72910,0.14955
6425.65757,0.18253
6427.58604,0.17694
6429.51451,0.15084
6431.44298,0.11661
6433.37145,0.04952
6435.29992,-0.04633
6437.22838,-0.11874
6439.15685,-0.08411
6441.08532,0.02923
6443.01379,0.11262
6444.94226,0.11039
6446.87073,0.07952
6448.79920,0.06948
6450.72766,0.08288
6452.65613,0.11661
6454.58460,0.14561
6456.51307,0.12739
6458.44154,0.07564
6460.37001,0.06873
6462.29848,0.06857
6464.22695,-0.00730
6466.15541,-0.05336
6468.08388,0.01637
6470.01235,0.07684
6471.94082,0.06124
6473.86929,0.06256
6475.79776,0.08356
6477.72623,0.05357
6479.65469,0.01821
6481.58316,0.04737
6483.51163,0.08688
6485.44010,0.08466
6487.36857,0.05085
6489.29704,-0.00486
6491.22551,-0.04294
6493.15398,-0.00853
6495.08244,0.07006
6497.01091,0.11790
6498.93938,0.12353
6500.86785,0.12259
6502.79632,0.12618
6504.72479,0.09984
6506.65326,0.04868
6508.58172,0.03731
6510.51019,0.07012
6512.43866,0.08529
6514.36713,0.08601
6516.29560,0.10542
6518.22407,0.08569
6520.15254,0.00279
6522.08101,-0.03860
6524.00947,0.02346
6525.93794,0.10030
6527.86641,0.10222
6529.79488,0.06856
6531.72335,0.06381
6533.65182,0.09345
6535.58029,0.13287
6537.50875,0.14103
6539.43722,0.09249
6541.36569,0.04656
6543.29416,0.05236
6545.22263,0.08628
6547.15110,0.10069
6549.07957,0.05000
6551.00804,-0.01724
6552.93650,-0.01912
6554.86497,0.01326
6556.79344,0.04263
6558.72191,0.04901
6560.65038,0.02861
6562.57885,0.02176
6564.50732,0.04657
6566.43578,0.06839
6568.36425,0.06865
6570.29272,0.03974
6572.22119,0.01131
6574.14966,0.05897
6576.07813,0.12963
6578.00660,0.14223
6579.93507,0.13645
6581.86353,0.13707
6583.79200,0.13147
6585.72047,0.16316
6587.64894,0.23177
6589.57741,0.21333
6591.50588,0.10284
6593.43435,0.07353
6595.36281,0.12152
6597.29128,0.10620
6599.21975,0.09385
6601.14822,0.12474
6603.07669,0.11883
6605.00516,0.10752
6606.93363,0.12458
6608.86210,0.15246
6610.79056,0.16957
6612.71903,0.11252
6614.64750,0.01086
6616.57597,0.00506
6618.50444,0.10369
6620.43291,0.16173
6622.36138,0.15146
6624.28984,0.12988
6626.21831,0.09497
6628.14678,0.06737
6630.07525,0.07383
6632.00372,0.07499
6633.93219,0.04920
6635.86066,-0.00620
6637.78912,-0.02948
6639.71759,0.02460
6641.64606,0.07891
6643.57453,0.07980
6645.50300,0.06424
6647.43147,0.06858
6649.35994,0.09945
6651.28841,0.15102
6653.21687,0.19689
6655.14534,0.21615
6657.07381,0.20254
6659.00228,0.15258
6660.93075,0.09408
6662.85922,0.07896
6664.78769,0.09450
6666.71615,0.09314
6668.64462,0.07821
6670.57309,0.06342
6672.50156,0.04373
6674.43003,0.03446
6676.35850,0.05015
6678.28697,0.08857
6680.21544,0.12898
6682.14390,0.11401
6684.07237,0.03051
6686.00084,-0.01957
6687.92931,0.01103
6689.85778,0.04513
6691.78625,0.05836
6693.71472,0.07044
6695.64318,0.04633
6697.57165,-0.02617
6699.50012,-0.07002
6701.42859,-0.04664
6703.35706,-0.00167
6705.28553,0.04619
6707.21400,0.05038
6709.14247,0.01592
6711.07093,0.03703
6712.99940,0.05970
6714.92787,0.04516
6716.85634,0.06219
6718.78481,0.06882
6720.71328,0.00330
6722.64175,-0.03539
6724.57021,0.02080
6726.49868,0.08829
6728.42715,0.08655
6730.35562,0.06125
6732.28409,0.09435
6734.21256,0.12209
6736.14103,0.09044
6738.06950,0.06351
6739.99796,0.05090
6741.92643,0.04315
6743.85490,0.04417
6745.78337,0.01421
6747.71184,-0.05294
6749.64031,-0.09114
6751.56878,-0.03472
6753.49724,0.06338
6755.42571,0.07222
6757.35418,0.01648
6759.28265,0.01378
6761.21112,0.04351
6763.13959,0.02290
6765.06806,-0.01841
6766.99653,-0.02767
6768.92499,-0.00545
6770.85346,0.01447
6772.78193,0.03984
6774.71040,0.08308
6776.63887,0.09254
6778.56734,0.05828
6780.49581,0.01289
6782.42427,-0.03639
6784.35274,-0.05243
6786.28121,0.00953
6788.20968,0.11844
6790.13815,0.19595
6792.06662,0.20325
6793.99509,0.16316
6795.92355,0.08256
6797.85202,-0.00006
6799.78049,-0.00096
6801.70896,0.07546
6803.63743,0.12132
6805.56590,0.08563
6807.49437,0.01756
6809.42284,0.03031
6811.35130,0.14937
6813.27977,0.23493
6815.20824,0.22599
6817.13671,0.15847
6819.06518,0.09468
6820.99365,0.06874
6822.92212,0.03705
6824.85058,-0.02663
6826.77905,-0.07557
6828.70752,-0.08609
6830.63599,-0.08264
6832.56446,-0.04855
6834.49293,0.04045
6836.42140,0.10528
6838.34987,0.08158
6840.27833,0.02136
6842.20680,-0.02992
6844.13527,-0.04062
6846.06374,-0.01822
6847.99221,-0.02559
6849.92068,-0.07637
6851.84915,-0.06728
6853.77761,0.03779
6855.70608,0.14818
6857.63455,0.15525
6859.56302,0.05053
6861.49149,-0.05048
6863.41996,-0.01189
6865.34843,0.05342
6867.27690,0.05212
6869.20536,0.09335
6871.13383,0.16685
6873.06230,0.17475
6874.99077,0.15518
6876.91924,0.14172
6878.84771,0.08442
6880.77618,0.00997
6882.70464,-0.00223
6884.63311,0.02919
6886.56158,0.04397
6888.49005,0.03952
6890.41852,0.04683
6892.34699,0.06756
6894.27546,0.10693
6896.20393,0.13745
6898.13239,0.08009
6900.06086,0.02630
6901.98933,0.09444
6903.91780,0.16807
6905.84627,0.14635
6907.77474,0.11679
6909.70321,0.10110
6911.63167,0.06726
6913.56014,0.04121
6915.48861,0.04648
6917.41708,0.08781
6919.34555,0.13085
6921.27402,0.10550
6923.20249,0.05065
6925.13096,0.04646
6927.05942,0.07695
6928.98789,0.08788
6930.91636,0.11843
6932.84483,0.17503
6934.77330,0.16010
6936.70177,0.11013
6938.63024,0.07678
6940.55870,0.05515
6942.48717,0.03648
6944.41564,0.01187
6946.34411,0.00068
6948.27258,0.01446
6950.20105,0.03924
6952.12952,0.04322
6954.05799,-0.00299
6955.98645,-0.07638
6957.91492,-0.11952
6959.84339,-0.07165
6961.77186,0.02397
6963.70033,0.02953
6965.62880,-0.06129
6967.55727,-0.17310
6969.48573,-0.19314
6971.41420,-0.06015
6973.34267,0.06449
6975.27114,0.04414
6977.19961,-0.01116
6979.12808,-0.04340
6981.05655,-0.05347
6982.98501,-0.02046
6984.91348,0.01960
6986.84195,0.03557
6988.77042,0.02820
6990.69889,0.01786
6992.62736,0.07174
6994.55583,0.19080
6996.48430,0.25037
6998.41276,0.13299
7000.34123,-0.06545
7002.26970,-0.14326
7004.19817,-0.04739
7006.12664,0.09104
7008.05511,0.09707
7009.98358,0.02433
7011.91204,0.02870
7013.84051,0.08549
7015.76898,0.06946
7017.69745,0.00869
7019.62592,-0.03379
7021.55439,-0.05708
7023.48286,-0.05157
7025.41133,-0.00473
7027.33979,0.11866
7029.26826,0.28113
7031.19673,0.28631
7033.12520,0.16201
7035.05367,0.06681
7036.98214,0.00784
7038.91061,-0.04436
7040.83907,-0.04637
7042.76754,-0.00595
7044.69601,0.05492
7046.62448,0.16667
7048.55295,0.20558
7050.48142,0.12583
7052.40989,0.09590
7054.33836,0.13702
7056.26682,0.17048
7058.19529,0.17668
7060.12376,0.13359
7062.05223,0.08397
7063.98070,0.07621
7065.90917,0.09733
7067.83764,0.09341
7069.76610,0.02177
7071.69457,-0.03363
7073.62304,0.00962
7075.55151,0.07674
7077.47998,0.07275
7079.40845,-0.02004
7081.33692,-0.04957
7083.26539,0.03945
7085.19385,0.02825
7087.12232,-0.08676
7089.05079,-0.10146
7090.97926,0.01296
7092.90773,0.14101
7094.83620,0.19865
7096.76467,0.15569
7098.69313,0.08519
7100.62160,0.09400
7102.55007,0.15555
7104.47854,0.18100
7106.40701,0.14411
7108.33548,0.10056
7110.26395,0.08109
7112.19242,0.10057
7114.12088,0.13206
7116.04935,0.12665
7117.97782,0.10827
7119.90629,0.06852
7121.83476,0.03792
7123.76323,0.07098
7125.69170,0.05793
7127.62016,-0.02275
7129.54863,-0.06025
7131.47710,-0.05588
7133.40557,-0.02046
7135.33404,0.06468
7137.26251,0.13342
7139.19098,0.15042
7141.11944,0.16794
7143.04791,0.21336
7144.97638,0.23732
7146.90485,0.14307
7148.83332,0.00612
7150.76179,-0.02467
7152.69026,-0.01680
7154.61873,-0.08579
7156.54719,-0.09275
7158.47566,-0.00858
7160.40413,0.02899
7162.33260,0.06279
7164.26107,0.16864
7166.18954,0.27079
7168.11801,0.35773
7170.04647,0.41464
7171.97494,0.32093
7173.90341,0.16939
7175.83188,0.14074
7177.76035,0.22478
7179.68882,0.32500
7181.61729,0.41231
7183.54576,0.35306
7185.47422,0.15783
7187.40269,0.01899
7189.33116,-0.03506
7191.25963,-0.00461
7193.18810,0.06306
7195.11657,0.10519
7197.04504,0.12503
7198.97350,0.13272
7200.90197,0.13163
7202.83044,0.04858
7204.75891,-0.09952
7206.68738,-0.08466
7208.61585,-0.01428
7210.54432,0.00216
7212.47279,0.04499
7214.40125,0.07599
7216.32972,0.02276
7218.25819,0.01221
7220.18666,0.10052
7222.11513,0.16477
7224.04360,0.21843
7225.97207,0.28073
7227.90053,0.34409
7229.82900,0.35883
7231.75747,0.18712
7233.68594,-0.00265
7235.61441,0.02077
7237.54288,0.12846
7239.47135,0.15162
7241.39982,0.15786
7243.32828,0.17453
7245.25675,0.11504
7247.18522,0.05254
7249.11369,0.05098
7251.04216,0.02615
7252.97063,-0.12838
7254.89910,-0.23896
7256.82756,-0.19827
7258.75603,-0.12552
7260.68450,-0.06204
7262.61297,-0.00636
7264.54144,-0.03849
7266.46991,-0.07093
7268.39838,0.04351
7270.32685,0.21389
7272.25531,0.28908
7274.18378,0.31025
7276.11225,0.35096
7278.04072,0.29982
7279.96919,0.11585
7281.89766,0.02447
7283.82613,0.03183
7285.75459,0.01569
7287.68306,-0.04482
7289.61153,-0.08761
7291.54000,-0.00930
7293.46847,0.09000
7295.39694,0.13851
7297.32541,0.18537
7299.25387,0.16532
7301.18234,0.09425
7303.11081,0.09749
7305.03928,0.08672
7306.96775,-0.09045
7308.89622,-0.25864
7310.82469,-0.19337
7312.75316,-0.03726
7314.68162,0.02036
7316.61009,-0.00558
7318.53856,0.01943
7320.46703,0.04413
7322.39550,0.01977
7324.32397,-0.06384
7326.25244,-0.19822
7328.18090,-0.28001
7330.10937,-0.19097
7332.03784,-0.01942
7333.96631,0.08258
7335.89478,0.07937
7337.82325,0.07817
7339.75172,0.19793
7341.68019,0.29650
7343.60865,0.28704
7345.53712,0.22432
7347.46559,0.14800
7349.39406,0.13149
7351.32253,0.08924
7353.25100,-0.00141
7355.17947,-0.01191
7357.10793,0.12824
7359.03640,0.25848
7360.96487,0.22106
7362.89334,0.14078
7364.82181,0.07524
7366.75028,0.05921
7368.67875,0.08916
7370.60722,0.08448
7372.53568,0.04685
7374.46415,0.03702
7376.39262,0.07223
7378.32109,0.08251
7380.24956,0.07542
7382.17803,0.03650
7384.10650,-0.02725
7386.03496,0.06359
7387.96343,0.23119
7389.89190,0.18878
7391.82037,0.04228
7393.74884,-0.07128
7395.67731,-0.10515
7397.60578,0.01313
7399.53425,0.17956
7401.46271,0.28624
7403.39118,0.29477
7405.31965,0.15665
7407.24812,0.03266
7409.17659,0.03029
7411.10506,0.03658
7413.03353,0.03196
7414.96199,0.06582
7416.89046,0.08469
7418.81893,0.08259
7420.74740,0.17257
7422.67587,0.24770
7424.60434,0.15328
7426.53281,0.03587
7428.46128,0.05796
7430.38974,0.14155
7432.31821,0.14376
7434.24668,0.03052
7436.17515,-0.10784
7438.10362,-0.10118
7440.03209,0.01709
7441.96056,0.08349
7443.88902,0.03736
7445.81749,-0.05117
7447.74596,-0.11649
7449.67443,-0.19783
7451.60290,-0.33603
7453.53137,-0.35091
7455.45984,-0.18336
7457.38831,0.02301
7459.31677,0.16291
7461.24524,0.15495
7463.17371,0.12629
7465.10218,0.18180
7467.03065,0.26045
7468.95912,0.26815
7470.88759,0.18295
7472.81605,0.13127
7474.74452,0.14413
7476.67299,0.04738
7478.60146,-0.17019
7480.52993,-0.25745
7482.45840,-0.10037
7484.38687,0.13709
7486.31533,0.30705
7488.24380,0.33245
7490.17227,0.23774
7492.10074,0.07943
7494.02921,-0.04142
7495.95768,-0.07249
7497.88615,-0.05650
