399.19301,-0.15831
401.12148,-0.53341
403.04995,-0.20533
404.97842,-0.08715
406.90689,-0.06148
408.83536,-0.04143
410.76382,-0.01532
412.69229,0.00434
414.62076,0.04424
416.54923,0.13918
418.47770,0.26964
420.40617,0.25087
422.33464,0.13321
424.26311,0.11855
426.19157,0.16902
428.12004,0.14099
430.04851,0.08229
431.97698,0.10321
433.90545,0.13091
435.83392,0.09901
437.76239,0.10943
439.69085,0.20480
441.61932,0.24425
443.54779,0.17142
445.47626,0.09144
447.40473,-0.02436
449.33320,-0.11997
451.26167,-0.09805
453.19013,-0.02776
455.11860,0.03249
457.04707,0.04639
458.97554,0.01303
460.90401,0.01570
462.83248,0.03944
464.76095,0.04380
466.68942,0.05513
468.61788,0.06452
470.54635,0.04194
472.47482,0.04008
474.40329,0.10863
476.33176,0.13177
478.26023,0.10992
480.18870,0.08153
482.11716,0.05776
484.04563,0.03688
485.97410,0.03534
487.90257,0.07175
489.83104,0.09216
491.75951,0.07262
493.68798,0.04875
495.61645,0.03718
497.54491,0.03616
499.47338,0.04388
501.40185,0.06615
503.33032,0.09413
505.25879,0.09264
507.18726,0.06653
509.11573,0.06725
511.04419,0.09250
512.97266,0.11103
514.90113,0.11602
516.82960,0.10302
518.75807,0.08899
520.68654,0.09508
522.61501,0.10099
524.54348,0.09104
526.47194,0.09004
528.40041,0.09552
530.32888,0.07895
532.25735,0.07847
534.18582,0.11898
536.11429,0.13238
538.04276,0.08278
539.97122,0.03887
541.89969,0.05207
543.82816,0.07930
545.75663,0.08483
547.68510,0.08444
549.61357,0.11106
551.54204,0.26079
553.47051,0.43602
555.39897,0.37972
557.32744,0.17774
559.25591,0.09156
561.18438,0.09820
563.11285,0.09600
565.04132,0.09864
566.96979,0.12635
568.89825,0.14617
570.82672,0.13486
572.75519,0.11204
574.68366,0.09478
576.61213,0.07721
578.54060,0.05476
580.46907,0.04013
582.39754,0.04412
584.32600,0.05677
586.25447,0.07018
588.18294,0.08881
590.11141,0.10565
592.03988,0.10573
593.96835,0.08896
595.89682,0.06968
597.82528,0.05290
599.75375,0.04527
601.68222,0.05960
603.61069,0.07631
605.53916,0.07766
607.46763,0.07336
609.39610,0.07244
611.32456,0.08286
613.25303,0.09535
615.18150,0.08883
617.10997,0.06387
619.03844,0.04717
620.96691,0.04903
622.89538,0.05855
624.82385,0.07100
626.75231,0.07966
628.68078,0.08891
630.60925,0.10571
632.53772,0.11590
634.46619,0.11344
636.39466,0.11190
638.32313,0.11494
640.25159,0.11755
642.18006,0.11469
644.10853,0.10137
646.03700,0.09121
647.96547,0.09839
649.89394,0.10737
651.82241,0.10674
653.75088,0.10414
655.67934,0.10078
657.60781,0.09810
659.53628,0.09366
661.46475,0.08544
663.39322,0.07993
665.32169,0.06975
667.25016,0.05357
669.17862,0.06258
671.10709,0.08317
673.03556,0.09476
674.96403,0.10578
676.89250,0.10650
678.82097,0.09375
680.74944,0.08462
682.67791,0.08243
684.60637,0.08705
686.53484,0.10216
688.46331,0.11062
690.39178,0.10819
692.32025,0.11021
694.24872,0.11477
696.17719,0.10637
698.10565,0.08761
700.03412,0.08326
701.96259,0.09733
703.89106,0.11357
705.81953,0.12013
707.74800,0.11507
709.67647,0.10803
711.60494,0.10385
713.53340,0.10583
715.46187,0.11565
717.39034,0.12008
719.31881,0.11385
721.24728,0.10561
723.17575,0.10220
725.10422,0.10438
727.03268,0.10681
728.96115,0.10616
730.88962,0.10071
732.81809,0.09128
734.74656,0.08545
736.67503,0.09030
738.60350,0.10418
740.53197,0.11238
742.46043,0.10980
744.38890,0.10433
746.31737,0.09928
748.24584,0.09997
750.17431,0.10748
752.10278,0.11173
754.03125,0.10908
755.95971,0.11194
757.88818,0.12478
759.81665,0.13192
761.74512,0.12435
763.67359,0.11649
765.60206,0.11992
767.53053,0.12171
769.45900,0.11356
771.38746,0.10432
773.31593,0.10116
775.24440,0.10327
777.17287,0.11050
779.10134,0.12051
781.02981,0.12148
782.95828,0.10957
784.88674,0.09565
786.81521,0.09040
788.74368,0.09677
790.67215,0.11278
792.60062,0.12743
794.52909,0.12277
796.45756,0.10625
798.38602,0.10328
800.31449,0.11220
802.24296,0.11571
804.17143,0.11190
806.09990,0.10840
808.02837,0.11119
809.95684,0.11403
811.88531,0.11182
813.81377,0.11404
815.74224,0.11793
817.67071,0.11185
819.59918,0.10437
821.52765,0.10686
823.45612,0.10795
825.38459,0.10201
827.31305,0.09863
829.24152,0.10067
831.16999,0.10837
833.09846,0.11575
835.02693,0.11948
836.95540,0.12294
838.88387,0.12117
840.81234,0.11617
842.74080,0.11475
844.66927,0.11611
846.59774,0.11716
848.52621,0.11147
850.45468,0.10419
852.38315,0.11328
854.31162,0.13237
856.24008,0.14036
858.16855,0.13775
860.09702,0.13434
862.02549,0.12850
863.95396,0.11676
865.88243,0.10775
867.81090,0.10804
869.73937,0.11065
871.66783,0.11180
873.59630,0.11803
875.52477,0.12663
877.45324,0.12673
879.38171,0.12148
881.31018,0.11673
883.23865,0.11615
885.16711,0.12361
887.09558,0.12970
889.02405,0.13028
890.95252,0.13025
892.88099,0.12788
894.80946,0.12445
896.73793,0.12214
898.66640,0.12113
900.59486,0.12601
902.52333,0.13348
904.45180,0.12955
906.38027,0.11655
908.30874,0.11202
910.23721,0.11802
912.16568,0.12439
914.09414,0.12677
916.02261,0.12735
917.95108,0.13068
919.87955,0.13506
921.80802,0.13746
923.73649,0.14019
925.66496,0.13931
927.59343,0.13183
929.52189,0.12675
931.45036,0.12777
933.37883,0.12594
935.30730,0.12277
937.23577,0.12801
939.16424,0.13445
941.09271,0.13405
943.02117,0.13207
944.94964,0.13094
946.87811,0.12976
948.80658,0.13209
950.73505,0.13823
952.66352,0.14184
954.59199,0.14163
956.52045,0.13944
958.44892,0.13284
960.37739,0.12474
962.30586,0.12247
964.23433,0.12324
966.16280,0.12291
968.09127,0.12675
970.01974,0.13239
971.94820,0.13267
973.87667,0.12829
975.80514,0.12315
977.73361,0.12263
979.66208,0.13003
981.59055,0.14028
983.51902,0.14457
985.44748,0.14160
987.37595,0.13411
989.30442,0.12659
991.23289,0.12493
993.16136,0.12727
995.08983,0.13020
997.01830,0.13220
998.94677,0.13006
1000.87523,0.12598
1002.80370,0.12342
1004.73217,0.12103
1006.66064,0.12069
1008.58911,0.12497
1010.51758,0.13217
1012.44605,0.13724
1014.37451,0.13471
1016.30298,0.13029
1018.23145,0.13342
1020.15992,0.14311
1022.08839,0.14820
1024.01686,0.13949
1025.94533,0.13231
1027.87380,0.14349
1029.80226,0.15427
1031.73073,0.14593
1033.65920,0.13616
1035.58767,0.14004
1037.51614,0.14872
1039.44461,0.15082
1041.37308,0.14529
1043.30154,0.14236
1045.23001,0.14483
1047.15848,0.14091
1049.08695,0.13135
1051.01542,0.12940
1052.94389,0.13518
1054.87236,0.14093
1056.80083,0.14493
1058.72929,0.14470
1060.65776,0.13672
1062.58623,0.12782
1064.51470,0.12803
1066.44317,0.13614
1068.37164,0.14410
1070.30011,0.14491
1072.22857,0.14139
1074.15704,0.14045
1076.08551,0.13979
1078.01398,0.13995
1079.94245,0.14268
1081.87092,0.14316
1083.79939,0.14225
1085.72786,0.14516
1087.65632,0.14968
1089.58479,0.15268
1091.51326,0.15384
1093.44173,0.15003
1095.37020,0.14566
1097.29867,0.14946
1099.22714,0.15732
1101.15560,0.15896
1103.08407,0.15094
1105.01254,0.14309
1106.94101,0.14707
1108.86948,0.15402
1110.79795,0.15188
1112.72642,0.14866
1114.65489,0.15236
1116.58335,0.15591
1118.51182,0.15043
1120.44029,0.14124
1122.36876,0.14085
1124.29723,0.14922
1126.22570,0.15306
1128.15417,0.14577
1130.08263,0.13550
1132.01110,0.12950
1133.93957,0.13053
1135.86804,0.13969
1137.79651,0.15183
1139.72498,0.15750
1141.65345,0.15405
1143.58191,0.14887
1145.51038,0.14742
1147.43885,0.15002
1149.36732,0.15608
1151.29579,0.16111
1153.22426,0.15959
1155.15273,0.15511
1157.08120,0.15394
1159.00966,0.15533
1160.93813,0.15579
1162.86660,0.15325
1164.79507,0.15172
1166.72354,0.15354
1168.65201,0.15376
1170.58048,0.15360
1172.50894,0.15737
1174.43741,0.16082
1176.36588,0.16115
1178.29435,0.16004
1180.22282,0.15418
1182.15129,0.14606
1184.07976,0.14375
1186.00823,0.14823
1187.93669,0.15377
1189.86516,0.15368
1191.79363,0.15112
1193.72210,0.15141
1195.65057,0.15166
1197.57904,0.15065
1199.50751,0.15008
1201.43597,0.14945
1203.36444,0.15022
1205.29291,0.15382
1207.22138,0.15648
1209.14985,0.15609
1211.07832,0.15432
1213.00679,0.15350
1214.93526,0.15477
1216.86372,0.15594
1218.79219,0.15439
1220.72066,0.15210
1222.64913,0.15318
1224.57760,0.15524
1226.50607,0.15466
1228.43454,0.15341
1230.36300,0.15386
1232.29147,0.15545
1234.21994,0.15595
1236.14841,0.15547
1238.07688,0.15507
1240.00535,0.15506
1241.93382,0.15564
1243.86229,0.15549
1245.79075,0.15414
1247.71922,0.15323
1249.64769,0.15305
1251.57616,0.15188
1253.50463,0.15154
1255.43310,0.15328
1257.36157,0.15427
1259.29003,0.15535
1261.21850,0.15731
1263.14697,0.15724
1265.07544,0.15488
1267.00391,0.15332
1268.93238,0.15566
1270.86085,0.15986
1272.78932,0.16072
1274.71778,0.15829
1276.64625,0.15862
1278.57472,0.16314
1280.50319,0.16473
1282.43166,0.16084
1284.36013,0.15687
1286.28860,0.15640
1288.21706,0.15908
1290.14553,0.16179
1292.07400,0.16339
1294.00247,0.16404
1295.93094,0.16047
1297.85941,0.15378
1299.78788,0.15037
1301.71634,0.15037
1303.64481,0.14860
1305.57328,0.14767
1307.50175,0.15242
1309.43022,0.15752
1311.35869,0.15938
1313.28716,0.16129
1315.21563,0.16479
1317.14409,0.16879
1319.07256,0.16950
1321.00103,0.16637
1322.92950,0.16418
1324.85797,0.16299
1326.78644,0.16134
1328.71491,0.16250
1330.64337,0.16493
1332.57184,0.16413
1334.50031,0.16300
1336.42878,0.16357
1338.35725,0.16377
1340.28572,0.16167
1342.21419,0.15707
1344.14266,0.15359
1346.07112,0.15414
1347.99959,0.15858
1349.92806,0.16244
1351.85653,0.16180
1353.78500,0.16070
1355.71347,0.16298
1357.64194,0.16543
1359.57040,0.16506
1361.49887,0.16455
1363.42734,0.16759
1365.35581,0.17096
1367.28428,0.17013
1369.21275,0.16630
1371.14122,0.16546
1373.06969,0.17141
1374.99815,0.17804
1376.92662,0.17661
1378.85509,0.17231
1380.78356,0.17052
1382.71203,0.16985
1384.64050,0.17118
1386.56897,0.17508
1388.49743,0.17552
1390.42590,0.17238
1392.35437,0.17358
1394.28284,0.17976
1396.21131,0.18424
1398.13978,0.18546
1400.06825,0.18342
1401.99672,0.17710
1403.92518,0.16991
1405.85365,0.16594
1407.78212,0.16687
1409.71059,0.17073
1411.63906,0.17346
1413.56753,0.17557
1415.49600,0.18118
1417.42446,0.18708
1419.35293,0.18516
1421.28140,0.17987
1423.20987,0.17885
1425.13834,0.17990
1427.06681,0.18037
1428.99528,0.17967
1430.92375,0.17761
1432.85221,0.17679
1434.78068,0.17832
1436.70915,0.17776
1438.63762,0.17426
1440.56609,0.17409
1442.49456,0.17657
1444.42303,0.17923
1446.35149,0.18214
1448.27996,0.18360
1450.20843,0.18231
1452.13690,0.18245
1454.06537,0.18843
1455.99384,0.19948
1457.92231,0.20466
1459.85077,0.19844
1461.77924,0.19193
1463.70771,0.18732
1465.63618,0.18053
1467.56465,0.17435
1469.49312,0.17804
1471.42159,0.19340
1473.35006,0.20568
1475.27852,0.19933
1477.20699,0.18902
1479.13546,0.18299
1481.06393,0.18010
1482.99240,0.17912
1484.92087,0.18065
1486.84934,0.18542
1488.77780,0.19168
1490.70627,0.19357
1492.63474,0.19206
1494.56321,0.19367
1496.49168,0.19747
1498.42015,0.19425
1500.34862,0.18589
1502.27709,0.18413
1504.20555,0.19083
1506.13402,0.20381
1508.06249,0.21452
1509.99096,0.20833
1511.91943,0.19674
1513.84790,0.19289
1515.77637,0.19909
1517.70483,0.20732
1519.63330,0.21288
1521.56177,0.21156
1523.49024,0.20226
1525.41871,0.19908
1527.34718,0.19846
1529.27565,0.19403
1531.20412,0.19413
1533.13258,0.20143
1535.06105,0.20468
1536.98952,0.20743
1538.91799,0.22192
1540.84646,0.23504
1542.77493,0.22398
1544.70340,0.20850
1546.63186,0.19757
1548.56033,0.19262
1550.48880,0.19030
1552.41727,0.18964
1554.34574,0.19285
1556.27421,0.20097
1558.20268,0.20853
1560.13115,0.20173
1562.05961,0.19694
1563.98808,0.19529
1565.91655,0.19236
1567.84502,0.19279
1569.77349,0.19730
1571.70196,0.19792
1573.63043,0.19719
1575.55889,0.19779
1577.48736,0.19502
1579.41583,0.19106
1581.34430,0.18882
1583.27277,0.18795
1585.20124,0.18851
1587.12971,0.18903
1589.05818,0.18823
1590.98664,0.18769
1592.91511,0.18929
1594.84358,0.19015
1596.77205,0.18642
1598.70052,0.18098
1600.62899,0.17831
1602.55746,0.17967
1604.48592,0.18392
1606.41439,0.18753
1608.34286,0.18848
1610.27133,0.18844
1612.19980,0.18924
1614.12827,0.19260
1616.05674,0.19862
1617.98521,0.20004
1619.91367,0.19861
1621.84214,0.20091
1623.77061,0.20235
1625.69908,0.19949
1627.62755,0.19703
1629.55602,0.19483
1631.48449,0.19337
1633.41295,0.19717
1635.34142,0.20694
1637.26989,0.20816
1639.19836,0.20154
1641.12683,0.19815
1643.05530,0.20058
1644.98377,0.21006
1646.91223,0.21816
1648.84070,0.21338
1650.76917,0.21245
1652.69764,0.21982
1654.62611,0.21270
1656.55458,0.20122
1658.48305,0.20204
1660.41152,0.21537
1662.33998,0.22621
1664.26845,0.21671
1666.19692,0.20496
1668.12539,0.20552
1670.05386,0.20990
1671.98233,0.20856
1673.91080,0.20630
1675.83926,0.20187
1677.76773,0.19908
1679.69620,0.20342
1681.62467,0.21337
1683.55314,0.22116
1685.48161,0.21421
1687.41008,0.20644
1689.33855,0.20216
1691.26701,0.19835
1693.19548,0.19947
1695.12395,0.20677
1697.05242,0.21218
1698.98089,0.21274
1700.90936,0.21186
1702.83783,0.20977
1704.76629,0.20887
1706.69476,0.20496
1708.62323,0.19745
1710.55170,0.19310
1712.48017,0.19555
1714.40864,0.20424
1716.33711,0.21084
1718.26558,0.20195
1720.19404,0.19046
1722.12251,0.18776
1724.05098,0.18964
1725.97945,0.19074
1727.90792,0.19102
1729.83639,0.19249
1731.76486,0.19519
1733.69332,0.19688
1735.62179,0.19485
1737.55026,0.19466
1739.47873,0.19778
1741.40720,0.19978
1743.33567,0.19995
1745.26414,0.20150
1747.19261,0.20427
1749.12107,0.20597
1751.04954,0.20250
1752.97801,0.19614
1754.90648,0.19358
1756.83495,0.19330
1758.76342,0.19126
1760.69189,0.18917
1762.62035,0.18768
1764.54882,0.18854
1766.47729,0.19384
1768.40576,0.19982
1770.33423,0.20420
1772.26270,0.20594
1774.19117,0.20178
1776.11964,0.19769
1778.04810,0.19692
1779.97657,0.19716
1781.90504,0.19609
1783.83351,0.19517
1785.76198,0.19452
1787.69045,0.19282
1789.61892,0.19343
1791.54738,0.19843
1793.47585,0.20136
1795.40432,0.20006
1797.33279,0.19939
1799.26126,0.19953
1801.18973,0.19798
1803.11820,0.19443
1805.04666,0.19201
1806.97513,0.19211
1808.90360,0.19308
1810.83207,0.19356
1812.76054,0.19143
1814.68901,0.18644
1816.61748,0.18400
1818.54595,0.18560
1820.47441,0.18624
1822.40288,0.18708
1824.33135,0.19098
1826.25982,0.19482
1828.18829,0.19794
1830.11676,0.19951
1832.04523,0.19616
1833.97369,0.19276
1835.90216,0.19254
1837.83063,0.19165
1839.75910,0.18943
1841.68757,0.19042
1843.61604,0.19450
1845.54451,0.19557
1847.47298,0.19302
1849.40144,0.19161
1851.32991,0.19197
1853.25838,0.19140
1855.18685,0.18929
1857.11532,0.18774
1859.04379,0.18764
1860.97226,0.18796
1862.90072,0.18761
1864.82919,0.18807
1866.75766,0.19171
1868.68613,0.19679
1870.61460,0.19770
1872.54307,0.19389
1874.47154,0.18981
1876.40001,0.18853
1878.32847,0.18887
1880.25694,0.18886
1882.18541,0.18968
1884.11388,0.19191
1886.04235,0.19246
1887.97082,0.19126
1889.89929,0.19163
1891.82775,0.19219
1893.75622,0.19141
1895.68469,0.19113
1897.61316,0.19138
1899.54163,0.19048
1901.47010,0.18823
1903.39857,0.18744
1905.32704,0.18974
1907.25550,0.19261
1909.18397,0.19399
1911.11244,0.19472
1913.04091,0.19572
1914.96938,0.19675
1916.89785,0.19788
1918.82632,0.19730
1920.75478,0.19388
1922.68325,0.19048
1924.61172,0.18874
1926.54019,0.18823
1928.46866,0.18939
1930.39713,0.19248
1932.32560,0.19549
1934.25407,0.19588
1936.18253,0.19366
1938.11100,0.19224
1940.03947,0.19385
1941.96794,0.19503
1943.89641,0.19316
1945.82488,0.19207
1947.75335,0.19333
1949.68181,0.19424
1951.61028,0.19322
1953.53875,0.19108
1955.46722,0.18988
1957.39569,0.19069
1959.32416,0.19227
1961.25263,0.19286
1963.18110,0.19290
1965.10956,0.19436
1967.03803,0.19521
1968.96650,0.19292
1970.89497,0.19055
1972.82344,0.18988
1974.75191,0.19111
1976.68038,0.19681
1978.60884,0.20359
1980.53731,0.20216
1982.46578,0.19542
1984.39425,0.19346
1986.32272,0.19436
1988.25119,0.19369
1990.17966,0.19344
1992.10812,0.19392
1994.03659,0.19342
1995.96506,0.19271
1997.89353,0.19319
1999.82200,0.19372
2001.75047,0.19269
2003.67894,0.19104
2005.60741,0.19057
2007.53587,0.19185
2009.46434,0.19278
2011.39281,0.19243
2013.32128,0.19384
2015.24975,0.19651
2017.17822,0.19615
2019.10669,0.19335
2021.03515,0.19277
2022.96362,0.19531
2024.89209,0.19597
2026.82056,0.19231
2028.74903,0.18993
2030.67750,0.19237
2032.60597,0.19621
2034.53444,0.19734
2036.46290,0.19608
2038.39137,0.19636
2040.31984,0.19825
2042.24831,0.19769
2044.17678,0.19502
2046.10525,0.19309
2048.03372,0.19251
2049.96218,0.19267
2051.89065,0.19265
2053.81912,0.19232
2055.74759,0.19258
2057.67606,0.19382
2059.60453,0.19456
2061.53300,0.19377
2063.46147,0.19302
2065.38993,0.19302
2067.31840,0.19360
2069.24687,0.19551
2071.17534,0.19747
2073.10381,0.19735
2075.03228,0.19657
2076.96075,0.19669
2078.88921,0.19555
2080.81768,0.19292
2082.74615,0.19205
2084.67462,0.19349
2086.60309,0.19537
2088.53156,0.19660
2090.46003,0.19633
2092.38850,0.19562
2094.31696,0.19644
2096.24543,0.19681
2098.17390,0.19517
2100.10237,0.19354
2102.03084,0.19287
2103.95931,0.19285
2105.88778,0.19348
2107.81624,0.19532
2109.74471,0.19736
2111.67318,0.19752
2113.60165,0.19624
2115.53012,0.19515
2117.45859,0.19560
2119.38706,0.19715
2121.31553,0.19869
2123.24399,0.19949
2125.17246,0.19898
2127.10093,0.19816
2129.02940,0.19725
2130.95787,0.19654
2132.88634,0.19898
2134.81481,0.20752
2136.74327,0.21565
2138.67174,0.21202
2140.60021,0.20222
2142.52868,0.19821
2144.45715,0.19884
2146.38562,0.20073
2148.31409,0.20283
2150.24255,0.20239
2152.17102,0.19941
2154.09949,0.19756
2156.02796,0.19779
2157.95643,0.19760
2159.88490,0.19659
2161.81337,0.19590
2163.74184,0.19633
2165.67030,0.19745
2167.59877,0.19687
2169.52724,0.19521
2171.45571,0.19498
2173.38418,0.19514
2175.31265,0.19434
2177.24112,0.19344
2179.16958,0.19310
2181.09805,0.19295
2183.02652,0.19271
2184.95499,0.19304
2186.88346,0.19397
2188.81193,0.19385
2190.74040,0.19305
2192.66887,0.19330
2194.59733,0.19426
2196.52580,0.19569
2198.45427,0.19676
2200.38274,0.19634
2202.31121,0.19595
2204.23968,0.19684
2206.16815,0.19762
2208.09661,0.19757
2210.02508,0.19802
2211.95355,0.19871
2213.88202,0.19846
2215.81049,0.19872
2217.73896,0.20051
2219.66743,0.20181
2221.59590,0.20186
2223.52436,0.20147
2225.45283,0.19999
2227.38130,0.19803
2229.30977,0.19767
2231.23824,0.19889
2233.16671,0.19945
2235.09518,0.19867
2237.02364,0.19844
2238.95211,0.19903
2240.88058,0.19887
2242.80905,0.19772
2244.73752,0.19669
2246.66599,0.19557
2248.59446,0.19442
2250.52293,0.19516
2252.45139,0.19719
2254.37986,0.19842
2256.30833,0.19850
2258.23680,0.19739
2260.16527,0.19537
2262.09374,0.19429
2264.02221,0.19588
2265.95067,0.19881
2267.87914,0.19941
2269.80761,0.19591
2271.73608,0.19185
2273.66455,0.19218
2275.59302,0.19576
2277.52149,0.19811
2279.44996,0.19778
2281.37842,0.19630
2283.30689,0.19494
2285.23536,0.19319
2287.16383,0.19156
2289.09230,0.19123
2291.02077,0.19127
2292.94924,0.19065
2294.87770,0.19057
2296.80617,0.19188
2298.73464,0.19211
2300.66311,0.18880
2302.59158,0.18495
2304.52005,0.18498
2306.44852,0.18684
2308.37699,0.18554
2310.30545,0.18183
2312.23392,0.17851
2314.16239,0.17689
2316.09086,0.17710
2318.01933,0.17444
2319.94780,0.17057
2321.87627,0.17156
2323.80473,0.17099
2325.73320,0.17070
2327.66167,0.17545
2329.59014,0.17416
2331.51861,0.16769
2333.44708,0.16503
2335.37555,0.16178
2337.30401,0.16066
2339.23248,0.17108
2341.16095,0.18332
2343.08942,0.18010
2345.01789,0.16788
2346.94636,0.16624
2348.87483,0.17194
2350.80330,0.17330
2352.73176,0.16397
2354.66023,0.14577
2356.58870,0.13265
2358.51717,0.13296
2360.44564,0.13011
2362.37411,0.11689
2364.30258,0.11520
2366.23104,0.12927
2368.15951,0.14777
2370.08798,0.16620
2372.01645,0.17795
2373.94492,0.18220
2375.87339,0.18382
2377.80186,0.18622
2379.73033,0.18894
2381.65879,0.19091
2383.58726,0.19375
2385.51573,0.19680
2387.44420,0.19820
2389.37267,0.19959
2391.30114,0.20234
2393.22961,0.20416
2395.15807,0.20350
2397.08654,0.20168
2399.01501,0.20020
2400.94348,0.19978
2402.87195,0.20036
2404.80042,0.20206
2406.72889,0.20354
2408.65736,0.20184
2410.58582,0.19856
2412.51429,0.19726
2414.44276,0.19774
2416.37123,0.19862
2418.29970,0.19876
2420.22817,0.19771
2422.15664,0.19698
2424.08510,0.19768
2426.01357,0.19868
2427.94204,0.19898
2429.87051,0.19948
2431.79898,0.19980
2433.72745,0.19896
2435.65592,0.19845
2437.58439,0.19846
2439.51285,0.19769
2441.44132,0.19732
2443.36979,0.19810
2445.29826,0.19852
2447.22673,0.19902
2449.15520,0.20047
2451.08367,0.20047
2453.01213,0.19878
2454.94060,0.19768
2456.86907,0.19667
2458.79754,0.19601
2460.72601,0.19810
2462.65448,0.20122
2464.58295,0.20097
2466.51142,0.19896
2468.43988,0.19934
2470.36835,0.20068
2472.29682,0.20070
2474.22529,0.20086
2476.15376,0.20228
2478.08223,0.20198
2480.01070,0.19920
2481.93916,0.19798
2483.86763,0.19981
2485.79610,0.20264
2487.72457,0.20342
2489.65304,0.20148
2491.58151,0.19842
2493.50998,0.19585
2495.43844,0.19589
2497.36691,0.19700
2499.29538,0.19743
2501.22385,0.19915
2503.15232,0.20097
2505.08079,0.20092
2507.00926,0.20156
2508.93773,0.20351
2510.86619,0.20322
2512.79466,0.20120
2514.72313,0.20062
2516.65160,0.20066
2518.58007,0.20129
2520.50854,0.20359
2522.43701,0.20523
2524.36547,0.20601
2526.29394,0.20717
2528.22241,0.20643
2530.15088,0.20415
2532.07935,0.20276
2534.00782,0.20244
2535.93629,0.20421
2537.86476,0.20645
2539.79322,0.20615
2541.72169,0.20507
2543.65016,0.20472
2545.57863,0.20370
2547.50710,0.20178
2549.43557,0.20030
2551.36404,0.20041
2553.29250,0.20134
2555.22097,0.20191
2557.14944,0.20219
2559.07791,0.20240
2561.00638,0.20319
2562.93485,0.20545
2564.86332,0.20698
2566.79179,0.20530
2568.72025,0.20280
2570.64872,0.20127
2572.57719,0.19975
2574.50566,0.19949
2576.43413,0.20161
2578.36260,0.20458
2580.29107,0.20619
2582.21953,0.20625
2584.14800,0.20657
2586.07647,0.20663
2588.00494,0.20632
2589.93341,0.20731
2591.86188,0.20728
2593.79035,0.20542
2595.71882,0.20424
2597.64728,0.20369
2599.57575,0.20396
2601.50422,0.20570
2603.43269,0.20725
2605.36116,0.20640
2607.28963,0.20448
2609.21810,0.20534
2611.14656,0.20913
2613.07503,0.21292
2615.00350,0.21418
2616.93197,0.21186
2618.86044,0.20736
2620.78891,0.20375
2622.71738,0.20239
2624.64585,0.20258
2626.57431,0.20396
2628.50278,0.20593
2630.43125,0.20727
2632.35972,0.20678
2634.28819,0.20548
2636.21666,0.20623
2638.14513,0.20805
2640.07359,0.20833
2642.00206,0.20723
2643.93053,0.20571
2645.85900,0.20475
2647.78747,0.20516
2649.71594,0.20729
2651.64441,0.21055
2653.57288,0.21093
2655.50134,0.20807
2657.42981,0.20810
2659.35828,0.21089
2661.28675,0.21076
2663.21522,0.20756
2665.14369,0.20451
2667.07216,0.20381
2669.00062,0.20559
2670.92909,0.20702
2672.85756,0.20616
2674.78603,0.20547
2676.71450,0.20707
2678.64297,0.20918
2680.57144,0.21028
2682.49990,0.21018
2684.42837,0.20850
2686.35684,0.20671
2688.28531,0.20572
2690.21378,0.20495
2692.14225,0.20526
2694.07072,0.20787
2695.99919,0.21187
2697.92765,0.21346
2699.85612,0.21153
2701.78459,0.20966
2703.71306,0.20950
2705.64153,0.20911
2707.57000,0.20662
2709.49847,0.20465
2711.42693,0.20664
2713.35540,0.20858
2715.28387,0.20659
2717.21234,0.20440
2719.14081,0.20600
2721.06928,0.21039
2722.99775,0.21451
2724.92622,0.21715
2726.85468,0.21707
2728.78315,0.21353
2730.71162,0.21062
2732.64009,0.21059
2734.56856,0.21128
2736.49703,0.21226
2738.42550,0.21322
2740.35396,0.21319
2742.28243,0.21182
2744.21090,0.21010
2746.13937,0.20988
2748.06784,0.21029
2749.99631,0.21175
2751.92478,0.21547
2753.85325,0.21820
2755.78171,0.21800
2757.71018,0.21519
2759.63865,0.21135
2761.56712,0.21030
2763.49559,0.21143
2765.42406,0.21143
2767.35253,0.21145
2769.28099,0.21348
2771.20946,0.21727
2773.13793,0.22154
2775.06640,0.22300
2776.99487,0.22123
2778.92334,0.21951
2780.85181,0.21720
2782.78028,0.21360
2784.70874,0.21269
2786.63721,0.21576
2788.56568,0.21784
2790.49415,0.21676
2792.42262,0.21601
2794.35109,0.21690
2796.27956,0.21889
2798.20802,0.22078
2800.13649,0.21955
2802.06496,0.21503
2803.99343,0.21124
2805.92190,0.21181
2807.85037,0.21515
2809.77884,0.21790
2811.70731,0.21921
2813.63577,0.21857
2815.56424,0.21763
2817.49271,0.21884
2819.42118,0.21946
2821.34965,0.21860
2823.27812,0.22041
2825.20659,0.22389
2827.13505,0.22455
2829.06352,0.22242
2830.99199,0.22073
2832.92046,0.22011
2834.84893,0.21900
2836.77740,0.21764
2838.70587,0.21736
2840.63433,0.21801
2842.56280,0.21772
2844.49127,0.21691
2846.41974,0.21768
2848.34821,0.21908
2850.27668,0.21931
2852.20515,0.21804
2854.13362,0.21666
2856.06208,0.21731
2857.99055,0.21986
2859.91902,0.22206
2861.84749,0.22271
2863.77596,0.22324
2865.70443,0.22368
2867.63290,0.22130
2869.56136,0.21803
2871.48983,0.21870
2873.41830,0.22153
2875.34677,0.22197
2877.27524,0.22119
2879.20371,0.22194
2881.13218,0.22226
2883.06065,0.22150
2884.98911,0.22206
2886.91758,0.22212
2888.84605,0.21944
2890.77452,0.21756
2892.70299,0.21938
2894.63146,0.22109
2896.55993,0.22013
2898.48839,0.21838
2900.41686,0.21714
2902.34533,0.21511
2904.27380,0.21049
2906.20227,0.20862
2908.13074,0.21308
2910.05921,0.21716
2911.98768,0.21783
2913.91614,0.21822
2915.84461,0.21794
2917.77308,0.21529
2919.70155,0.21417
2921.63002,0.21774
2923.55849,0.22168
2925.48696,0.22155
2927.41542,0.22018
2929.34389,0.22069
2931.27236,0.22038
2933.20083,0.21770
2935.12930,0.21274
2937.05777,0.20855
2938.98624,0.21162
2940.91471,0.21838
2942.84317,0.22110
2944.77164,0.21925
2946.70011,0.21589
2948.62858,0.21611
2950.55705,0.21891
2952.48552,0.22009
2954.41399,0.22027
2956.34245,0.21702
2958.27092,0.21283
2960.19939,0.21534
2962.12786,0.22016
2964.05633,0.22065
2965.98480,0.21698
2967.91327,0.21180
2969.84174,0.21261
2971.77020,0.22033
2973.69867,0.22623
2975.62714,0.22596
2977.55561,0.22187
2979.48408,0.22026
2981.41255,0.22277
2983.34102,0.22531
2985.26948,0.22598
2987.19795,0.22371
2989.12642,0.22276
2991.05489,0.22740
2992.98336,0.23119
2994.91183,0.22983
2996.84030,0.22729
2998.76877,0.22630
3000.69723,0.22731
3002.62570,0.23026
3004.55417,0.23099
3006.48264,0.22723
3008.41111,0.22324
3010.33958,0.21742
3012.26805,0.20303
3014.19651,0.17941
3016.12498,0.15949
3018.05345,0.16671
3019.98192,0.19741
3021.91039,0.22004
3023.83886,0.22568
3025.76733,0.22514
3027.69579,0.22391
3029.62426,0.22551
3031.55273,0.22781
3033.48120,0.22540
3035.40967,0.22052
3037.33814,0.21687
3039.26661,0.21757
3041.19508,0.22294
3043.12354,0.22605
3045.05201,0.22326
3046.98048,0.21904
3048.90895,0.21885
3050.83742,0.22181
3052.76589,0.22283
3054.69436,0.21953
3056.62282,0.21406
3058.55129,0.21427
3060.47976,0.22129
3062.40823,0.22436
3064.33670,0.21935
3066.26517,0.21415
3068.19364,0.21507
3070.12211,0.22016
3072.05057,0.22483
3073.97904,0.22447
3075.90751,0.22015
3077.83598,0.22069
3079.76445,0.22532
3081.69292,0.22515
3083.62139,0.22013
3085.54985,0.21892
3087.47832,0.22560
3089.40679,0.22982
3091.33526,0.22448
3093.26373,0.21527
3095.19220,0.21086
3097.12067,0.21477
3099.04914,0.21950
3100.97760,0.21900
3102.90607,0.21552
3104.83454,0.21654
3106.76301,0.22508
3108.69148,0.23277
3110.61995,0.23244
3112.54842,0.22617
3114.47688,0.22292
3116.40535,0.22489
3118.33382,0.22473
3120.26229,0.22198
3122.19076,0.22317
3124.11923,0.22810
3126.04770,0.23020
3127.97617,0.22771
3129.90463,0.22219
3131.83310,0.21880
3133.76157,0.22219
3135.69004,0.22554
3137.61851,0.22117
3139.54698,0.21519
3141.47545,0.21767
3143.40391,0.22429
3145.33238,0.22665
3147.26085,0.22682
3149.18932,0.22760
3151.11779,0.22824
3153.04626,0.22947
3154.97473,0.22987
3156.90320,0.22769
3158.83166,0.22680
3160.76013,0.22878
3162.68860,0.23134
3164.61707,0.23406
3166.54554,0.23687
3168.47401,0.23978
3170.40248,0.24154
3172.33094,0.24002
3174.25941,0.23718
3176.18788,0.23499
3178.11635,0.23316
3180.04482,0.23553
3181.97329,0.24170
3183.90176,0.24301
3185.83022,0.23852
3187.75869,0.23492
3189.68716,0.23330
3191.61563,0.23229
3193.54410,0.23278
3195.47257,0.23367
3197.40104,0.23375
3199.32951,0.23375
3201.25797,0.23336
3203.18644,0.23162
3205.11491,0.22874
3207.04338,0.22581
3208.97185,0.22464
3210.90032,0.22720
3212.82879,0.23326
3214.75725,0.23886
3216.68572,0.23839
3218.61419,0.23316
3220.54266,0.23101
3222.47113,0.23364
3224.39960,0.23495
3226.32807,0.23250
3228.25654,0.23052
3230.18500,0.23102
3232.11347,0.23120
3234.04194,0.22923
3235.97041,0.22646
3237.89888,0.22466
3239.82735,0.22523
3241.75582,0.22851
3243.68428,0.23207
3245.61275,0.23301
3247.54122,0.23246
3249.46969,0.23332
3251.39816,0.23452
3253.32663,0.23524
3255.25510,0.23599
3257.18357,0.23463
3259.11203,0.23204
3261.04050,0.23131
3262.96897,0.23239
3264.89744,0.23453
3266.82591,0.23734
3268.75438,0.23749
3270.68285,0.23156
3272.61131,0.22522
3274.53978,0.22572
3276.46825,0.22724
3278.39672,0.22410
3280.32519,0.22218
3282.25366,0.22507
3284.18213,0.22947
3286.11060,0.23136
3288.03906,0.23055
3289.96753,0.22841
3291.89600,0.22455
3293.82447,0.22193
3295.75294,0.22381
3297.68141,0.22809
3299.60988,0.22965
3301.53834,0.22675
3303.46681,0.22337
3305.39528,0.22309
3307.32375,0.22635
3309.25222,0.22980
3311.18069,0.22714
3313.10916,0.22102
3315.03763,0.22245
3316.96609,0.22924
3318.89456,0.23109
3320.82303,0.22941
3322.75150,0.22791
3324.67997,0.22579
3326.60844,0.22640
3328.53691,0.23096
3330.46537,0.23473
3332.39384,0.23604
3334.32231,0.23433
3336.25078,0.23068
3338.17925,0.23098
3340.10772,0.23555
3342.03619,0.23840
3343.96466,0.23835
3345.89312,0.23889
3347.82159,0.23845
3349.75006,0.23539
3351.67853,0.23459
3353.60700,0.23658
3355.53547,0.23853
3357.46394,0.23970
3359.39240,0.23715
3361.32087,0.23285
3363.24934,0.23322
3365.17781,0.23655
3367.10628,0.23817
3369.03475,0.23758
3370.96322,0.23420
3372.89168,0.23061
3374.82015,0.23020
3376.74862,0.22985
3378.67709,0.22803
3380.60556,0.22631
3382.53403,0.22438
3384.46250,0.22546
3386.39097,0.22982
3388.31943,0.23164
3390.24790,0.23202
3392.17637,0.23317
3394.10484,0.23160
3396.03331,0.22854
3397.96178,0.22796
3399.89025,0.22804
3401.81871,0.22606
3403.74718,0.22367
3405.67565,0.22478
3407.60412,0.22907
3409.53259,0.23087
3411.46106,0.22737
3413.38953,0.22330
3415.31800,0.22245
3417.24646,0.22054
3419.17493,0.21669
3421.10340,0.21669
3423.03187,0.22004
3424.96034,0.22107
3426.88881,0.21871
3428.81728,0.21815
3430.74574,0.22090
3432.67421,0.22252
3434.60268,0.22231
3436.53115,0.22311
3438.45962,0.22631
3440.38809,0.22988
3442.31656,0.23047
3444.24503,0.22821
3446.17349,0.22707
3448.10196,0.22761
3450.03043,0.22666
3451.95890,0.22381
3453.88737,0.21914
3455.81584,0.21611
3457.74431,0.21606
3459.67277,0.21420
3461.60124,0.21289
3463.52971,0.21423
3465.45818,0.21189
3467.38665,0.20635
3469.31512,0.20477
3471.24359,0.20757
3473.17206,0.20950
3475.10052,0.20747
3477.02899,0.20389
3478.95746,0.20341
3480.88593,0.20592
3482.81440,0.20703
3484.74287,0.20610
3486.67134,0.20610
3488.59980,0.20650
3490.52827,0.20698
3492.45674,0.20957
3494.38521,0.21180
3496.31368,0.20921
3498.24215,0.20253
3500.17062,0.19708
3502.09909,0.19663
3504.02755,0.19779
3505.95602,0.19716
3507.88449,0.19813
3509.81296,0.19961
3511.74143,0.19638
3513.66990,0.18930
3515.59837,0.18416
3517.52683,0.18618
3519.45530,0.19221
3521.38377,0.19521
3523.31224,0.19514
3525.24071,0.19572
3527.16918,0.19518
3529.09765,0.18850
3531.02611,0.18097
3532.95458,0.18032
3534.88305,0.18356
3536.81152,0.18615
3538.73999,0.18840
3540.66846,0.19062
3542.59693,0.19177
3544.52540,0.19085
3546.45386,0.18773
3548.38233,0.18572
3550.31080,0.18631
3552.23927,0.18659
3554.16774,0.18544
3556.09621,0.18345
3558.02468,0.18134
3559.95314,0.18027
3561.88161,0.17981
3563.81008,0.18113
3565.73855,0.18506
3567.66702,0.18523
3569.59549,0.17861
3571.52396,0.17287
3573.45243,0.17333
3575.38089,0.17680
3577.30936,0.17543
3579.23783,0.17102
3581.16630,0.16949
3583.09477,0.17087
3585.02324,0.17353
3586.95171,0.17562
3588.88017,0.17443
3590.80864,0.17226
3592.73711,0.17174
3594.66558,0.17226
3596.59405,0.17420
3598.52252,0.17409
3600.45099,0.16494
3602.37946,0.15495
3604.30792,0.15641
3606.23639,0.16375
3608.16486,0.16716
3610.09333,0.16728
3612.02180,0.16868
3613.95027,0.16905
3615.87874,0.16635
3617.80720,0.16483
3619.73567,0.16650
3621.66414,0.16572
3623.59261,0.16343
3625.52108,0.16407
3627.44955,0.16719
3629.37802,0.16751
3631.30649,0.16348
3633.23495,0.15906
3635.16342,0.15436
3637.09189,0.15065
3639.02036,0.14880
3640.94883,0.14887
3642.87730,0.15063
3644.80577,0.15482
3646.73423,0.16438
3648.66270,0.17379
3650.59117,0.16530
3652.51964,0.15123
3654.44811,0.14480
3656.37658,0.14388
3658.30505,0.14278
3660.23352,0.14051
3662.16198,0.13936
3664.09045,0.14127
3666.01892,0.14840
3667.94739,0.15930
3669.87586,0.16408
3671.80433,0.15956
3673.73280,0.15946
3675.66126,0.16123
3677.58973,0.15458
3679.51820,0.14659
3681.44667,0.14267
3683.37514,0.14307
3685.30361,0.14738
3687.23208,0.15359
3689.16055,0.15592
3691.08901,0.15166
3693.01748,0.14570
3694.94595,0.14152
3696.87442,0.14045
3698.80289,0.14326
3700.73136,0.14879
3702.65983,0.14976
3704.58829,0.14416
3706.51676,0.14034
3708.44523,0.14171
3710.37370,0.14460
3712.30217,0.14344
3714.23064,0.13978
3716.15911,0.13863
3718.08757,0.14118
3720.01604,0.14585
3721.94451,0.15062
3723.87298,0.15194
3725.80145,0.14872
3727.72992,0.14434
3729.65839,0.14286
3731.58686,0.14811
3733.51532,0.15728
3735.44379,0.16104
3737.37226,0.15647
3739.30073,0.15176
3741.22920,0.15424
3743.15767,0.16057
3745.08614,0.16289
3747.01460,0.16293
3748.94307,0.16310
3750.87154,0.16024
3752.80001,0.15168
3754.72848,0.14388
3756.65695,0.14340
3758.58542,0.14803
3760.51389,0.14884
3762.44235,0.14647
3764.37082,0.14611
3766.29929,0.14666
3768.22776,0.14483
3770.15623,0.13945
3772.08470,0.13430
3774.01317,0.13312
3775.94163,0.13394
3777.87010,0.13521
3779.79857,0.13653
3781.72704,0.13632
3783.65551,0.13595
3785.58398,0.13593
3787.51245,0.13377
3789.44092,0.13269
3791.36938,0.13664
3793.29785,0.14114
3795.22632,0.14203
3797.15479,0.14189
3799.08326,0.14497
3801.01173,0.15095
3802.94020,0.14993
3804.86866,0.14344
3806.79713,0.13823
3808.72560,0.13232
3810.65407,0.12850
3812.58254,0.13035
3814.51101,0.13674
3816.43948,0.14285
3818.36795,0.14552
3820.29641,0.14553
3822.22488,0.14037
3824.15335,0.13670
3826.08182,0.13726
3828.01029,0.13652
3829.93876,0.13195
3831.86723,0.12946
3833.79569,0.13499
3835.72416,0.14493
3837.65263,0.15067
3839.58110,0.14566
3841.50957,0.13997
3843.43804,0.13694
3845.36651,0.13114
3847.29498,0.12743
3849.22344,0.13041
3851.15191,0.14093
3853.08038,0.15226
3855.00885,0.14019
3856.93732,0.12583
3858.86579,0.12395
3860.79426,0.13027
3862.72272,0.13712
3864.65119,0.13680
3866.57966,0.13536
3868.50813,0.13869
3870.43660,0.14202
3872.36507,0.14234
3874.29354,0.13909
3876.22200,0.13367
3878.15047,0.13124
3880.07894,0.13076
3882.00741,0.12770
3883.93588,0.12372
3885.86435,0.12151
3887.79282,0.11958
3889.72129,0.12012
3891.64975,0.12539
3893.57822,0.12572
3895.50669,0.12147
3897.43516,0.12295
3899.36363,0.12891
3901.29210,0.12921
3903.22057,0.12258
3905.14903,0.11723
3907.07750,0.11692
3909.00597,0.11756
3910.93444,0.11761
3912.86291,0.11840
3914.79138,0.12028
3916.71985,0.12158
3918.64832,0.11952
3920.57678,0.11630
3922.50525,0.11481
3924.43372,0.11602
3926.36219,0.12128
3928.29066,0.12668
3930.21913,0.12826
3932.14760,0.12431
3934.07606,0.11553
3936.00453,0.10933
3937.93300,0.11036
3939.86147,0.11683
3941.78994,0.12316
3943.71841,0.12338
3945.64688,0.12097
3947.57535,0.12102
3949.50381,0.12139
3951.43228,0.12043
3953.36075,0.11952
3955.28922,0.11963
3957.21769,0.11789
3959.14616,0.11224
3961.07463,0.10970
3963.00309,0.11284
3964.93156,0.11333
3966.86003,0.10979
3968.78850,0.10693
3970.71697,0.10716
3972.64544,0.11014
3974.57391,0.11169
3976.50238,0.11109
3978.43084,0.10960
3980.35931,0.10727
3982.28778,0.10694
3984.21625,0.10811
3986.14472,0.10736
3988.07319,0.10545
3990.00166,0.10426
3991.93012,0.10376
3993.85859,0.10528
3995.78706,0.10954
3997.71553,0.11152
3999.64400,0.10866
4001.57247,0.10520
4003.50094,0.10465
4005.42941,0.10854
4007.35787,0.11440
4009.28634,0.11560
4011.21481,0.11238
4013.14328,0.11111
4015.07175,0.11238
4017.00022,0.11193
4018.92869,0.10798
4020.85715,0.10234
4022.78562,0.09830
4024.71409,0.09749
4026.64256,0.09996
4028.57103,0.10365
4030.49950,0.10336
4032.42797,0.09665
4034.35644,0.08910
4036.28490,0.08997
4038.21337,0.09773
4040.14184,0.10228
4042.07031,0.10434
4043.99878,0.10898
4045.92725,0.11335
4047.85572,0.11319
4049.78418,0.10964
4051.71265,0.10924
4053.64112,0.11171
4055.56959,0.10935
4057.49806,0.10267
4059.42653,0.09702
4061.35500,0.09462
4063.28346,0.09520
4065.21193,0.09536
4067.14040,0.09450
4069.06887,0.09440
4070.99734,0.09276
4072.92581,0.09109
4074.85428,0.09439
4076.78275,0.09982
4078.71121,0.10221
4080.63968,0.10156
4082.56815,0.09997
4084.49662,0.09767
4086.42509,0.09460
4088.35356,0.09238
4090.28203,0.09170
4092.21049,0.09159
4094.13896,0.09098
4096.06743,0.09097
4097.99590,0.09280
4099.92437,0.09439
4101.85284,0.09363
4103.78131,0.09212
4105.70978,0.09346
4107.63824,0.09618
4109.56671,0.09477
4111.49518,0.09001
4113.42365,0.08650
4115.35212,0.08523
4117.28059,0.08741
4119.20906,0.09162
4121.13752,0.09283
4123.06599,0.09188
4124.99446,0.08999
4126.92293,0.08719
4128.85140,0.08583
4130.77987,0.08431
4132.70834,0.08264
4134.63681,0.08488
4136.56527,0.08911
4138.49374,0.08954
4140.42221,0.08755
4142.35068,0.08638
4144.27915,0.08342
4146.20762,0.07906
4148.13609,0.07873
4150.06455,0.08441
4151.99302,0.09121
4153.92149,0.09245
4155.84996,0.08795
4157.77843,0.08325
4159.70690,0.08214
4161.63537,0.08231
4163.56384,0.08109
4165.49230,0.07999
4167.42077,0.07965
4169.34924,0.07948
4171.27771,0.07809
4173.20618,0.07464
4175.13465,0.07270
4177.06312,0.07205
4178.99158,0.06848
4180.92005,0.06564
4182.84852,0.06762
4184.77699,0.07120
4186.70546,0.07319
4188.63393,0.07482
4190.56240,0.07742
4192.49087,0.07672
4194.41933,0.07117
4196.34780,0.06805
4198.27627,0.07029
4200.20474,0.07370
4202.13321,0.07638
4204.06168,0.07779
4205.99015,0.07653
4207.91861,0.07181
4209.84708,0.06486
4211.77555,0.05950
4213.70402,0.05831
4215.63249,0.06012
4217.56096,0.06205
4219.48943,0.06345
4221.41789,0.06572
4223.34636,0.06650
4225.27483,0.06488
4227.20330,0.06729
4229.13177,0.07223
4231.06024,0.07289
4232.98871,0.07317
4234.91718,0.07404
4236.84564,0.07108
4238.77411,0.06803
4240.70258,0.06828
4242.63105,0.06790
4244.55952,0.06357
4246.48799,0.05855
4248.41646,0.05758
4250.34492,0.06101
4252.27339,0.06334
4254.20186,0.06129
4256.13033,0.06131
4258.05880,0.06461
4259.98727,0.06657
4261.91574,0.06587
4263.84421,0.06109
4265.77267,0.05548
4267.70114,0.05447
4269.62961,0.05936
4271.55808,0.06553
4273.48655,0.06705
4275.41502,0.06378
4277.34349,0.05737
4279.27195,0.04998
4281.20042,0.04540
4283.12889,0.04640
4285.05736,0.04954
4286.98583,0.05146
4288.91430,0.05381
4290.84277,0.05294
4292.77124,0.04976
4294.69970,0.04899
4296.62817,0.04637
4298.55664,0.04509
4300.48511,0.05094
4302.41358,0.05504
4304.34205,0.05155
4306.27052,0.04871
4308.19898,0.05133
4310.12745,0.05319
4312.05592,0.05127
4313.98439,0.04930
4315.91286,0.04692
4317.84133,0.04123
4319.76980,0.03789
4321.69827,0.04337
4323.62673,0.05108
4325.55520,0.05289
4327.48367,0.04976
4329.41214,0.04572
4331.34061,0.04398
4333.26908,0.04619
4335.19755,0.04745
4337.12601,0.03869
4339.05448,0.02463
4340.98295,0.02099
4342.91142,0.02929
4344.83989,0.03527
4346.76836,0.03347
4348.69683,0.03152
4350.62530,0.03220
4352.55376,0.03367
4354.48223,0.03386
4356.41070,0.03341
4358.33917,0.03525
4360.26764,0.03361
4362.19611,0.02867
4364.12458,0.02855
4366.05304,0.02932
4367.98151,0.02841
4369.90998,0.02937
4371.83845,0.02982
4373.76692,0.03058
4375.69539,0.03256
4377.62386,0.02936
4379.55232,0.02322
4381.48079,0.02242
4383.40926,0.02478
4385.33773,0.02734
4387.26620,0.03032
4389.19467,0.03140
4391.12314,0.03186
4393.05161,0.03272
4394.98007,0.03137
4396.90854,0.02909
4398.83701,0.03006
4400.76548,0.03276
4402.69395,0.03108
4404.62242,0.02344
4406.55089,0.01573
4408.47935,0.01448
4410.40782,0.01730
4412.33629,0.01691
4414.26476,0.01406
4416.19323,0.01367
4418.12170,0.01573
4420.05017,0.02009
4421.97864,0.02532
4423.90710,0.02581
4425.83557,0.02070
4427.76404,0.01383
4429.69251,0.01023
4431.62098,0.01185
4433.54945,0.01480
4435.47792,0.01842
4437.40638,0.02009
4439.33485,0.01427
4441.26332,0.00647
4443.19179,0.00450
4445.12026,0.00899
4447.04873,0.01752
4448.97720,0.02406
4450.90567,0.02351
4452.83413,0.01685
4454.76260,0.00920
4456.69107,0.00640
4458.61954,0.01119
4460.54801,0.02079
4462.47648,0.02588
4464.40495,0.02132
4466.33341,0.01504
4468.26188,0.01101
4470.19035,0.00620
4472.11882,0.00530
4474.04729,0.01027
4475.97576,0.01330
4477.90423,0.01344
4479.83270,0.01454
4481.76116,0.01433
4483.68963,0.01206
4485.61810,0.00764
4487.54657,0.00307
4489.47504,0.00368
4491.40351,0.00584
4493.33198,0.00687
4495.26044,0.00749
4497.18891,0.00206
4499.11738,-0.00616
4501.04585,-0.00761
4502.97432,-0.00282
4504.90279,0.00657
4506.83126,0.01937
4508.75973,0.02617
4510.68819,0.02216
4512.61666,0.01556
4514.54513,0.01434
4516.47360,0.01774
4518.40207,0.02303
4520.33054,0.02689
4522.25901,0.02234
4524.18747,0.01219
4526.11594,0.00602
4528.04441,0.00504
4529.97288,0.00663
4531.90135,0.00940
4533.82982,0.01265
4535.75829,0.01403
4537.68676,0.01096
4539.61522,0.00497
4541.54369,0.00168
4543.47216,0.00168
4545.40063,-0.00010
4547.32910,-0.00120
4549.25757,0.00320
4551.18604,0.00958
4553.11450,0.01224
4555.04297,0.00970
4556.97144,0.00580
4558.89991,0.00522
4560.82838,0.00550
4562.75685,0.00230
4564.68532,0.00001
4566.61378,0.00034
4568.54225,-0.00428
4570.47072,-0.00886
4572.39919,-0.00612
4574.32766,-0.00833
4576.25613,-0.01765
4578.18460,-0.02038
4580.11307,-0.01591
4582.04153,-0.01093
4583.97000,-0.00685
4585.89847,-0.00391
4587.82694,-0.00238
4589.75541,-0.00422
4591.68388,-0.00662
4593.61235,-0.00082
4595.54081,0.00466
4597.46928,-0.00149
4599.39775,-0.00698
4601.32622,-0.00247
4603.25469,0.00547
4605.18316,0.00810
4607.11163,0.00494
4609.04010,0.00282
4610.96856,0.00291
4612.89703,0.00503
4614.82550,0.00772
4616.75397,0.00613
4618.68244,0.00249
4620.61091,-0.00020
4622.53938,0.00145
4624.46784,0.00707
4626.39631,0.00570
4628.32478,0.00005
4630.25325,0.00163
4632.18172,0.00786
4634.11019,0.01293
4636.03866,0.01549
4637.96713,0.01546
4639.89559,0.01474
4641.82406,0.01602
4643.75253,0.01894
4645.68100,0.01925
4647.60947,0.01689
4649.53794,0.01658
4651.46641,0.01517
4653.39487,0.00870
4655.32334,0.00340
4657.25181,0.00309
4659.18028,0.00533
4661.10875,0.00803
4663.03722,0.00671
4664.96569,0.00084
4666.89416,-0.00297
4668.82262,-0.00377
4670.75109,-0.00435
4672.67956,-0.00322
4674.60803,-0.00014
4676.53650,0.00291
4678.46497,0.00775
4680.39344,0.01484
4682.32190,0.01411
4684.25037,0.00155
4686.17884,-0.00927
4688.10731,-0.01151
4690.03578,-0.01014
4691.96425,-0.00596
4693.89272,-0.00125
4695.82119,-0.00183
4697.74965,-0.00240
4699.67812,0.00266
4701.60659,0.00285
4703.53506,-0.00554
4705.46353,-0.00920
4707.39200,-0.00063
4709.32047,0.01282
4711.24893,0.02324
4713.17740,0.03163
4715.10587,0.03007
4717.03434,0.01218
4718.96281,-0.00323
4720.89128,-0.00824
4722.81975,-0.01294
4724.74821,-0.01286
4726.67668,-0.00777
4728.60515,-0.00449
4730.53362,0.00376
4732.46209,0.01405
4734.39056,0.01454
4736.31903,0.01194
4738.24750,0.01360
4740.17596,0.01004
4742.10443,0.00106
4744.03290,0.00283
4745.96137,0.01837
4747.88984,0.02897
4749.81831,0.02329
4751.74678,0.01517
4753.67524,0.01026
4755.60371,0.00326
4757.53218,0.00220
4759.46065,0.00810
4761.38912,0.01334
4763.31759,0.01751
4765.24606,0.01568
4767.17453,0.00582
4769.10299,-0.00111
4771.03146,-0.00401
4772.95993,-0.00288
4774.88840,0.00569
4776.81687,0.00921
4778.74534,0.00534
4780.67381,0.00341
4782.60227,0.00263
4784.53074,0.00325
4786.45921,0.00627
4788.38768,0.00793
4790.31615,0.00279
4792.24462,-0.00497
4794.17309,-0.00150
4796.10156,0.00745
4798.03002,0.00507
4799.95849,-0.00211
4801.88696,-0.00303
4803.81543,0.00153
4805.74390,0.00792
4807.67237,0.00934
4809.60084,0.00623
4811.52930,0.00823
4813.45777,0.01037
4815.38624,0.00015
4817.31471,-0.01092
4819.24318,-0.00623
4821.17165,0.00593
4823.10012,0.01231
4825.02859,0.01394
4826.95705,0.01623
4828.88552,0.02104
4830.81399,0.02551
4832.74246,0.02389
4834.67093,0.01928
4836.59940,0.01417
4838.52787,0.00575
4840.45633,0.00174
4842.38480,0.00974
4844.31327,0.02205
4846.24174,0.02399
4848.17021,0.01713
4850.09868,0.01537
4852.02715,0.01831
4853.95562,0.01405
4855.88408,0.00167
4857.81255,-0.00943
4859.74102,-0.01690
4861.66949,-0.02126
4863.59796,-0.01917
4865.52643,-0.01182
4867.45490,-0.00819
4869.38336,-0.01162
4871.31183,-0.01174
4873.24030,-0.00440
4875.16877,0.00083
4877.09724,-0.00376
4879.02571,-0.01635
4880.95418,-0.02521
4882.88265,-0.01831
4884.81111,-0.00021
4886.73958,0.01402
4888.66805,0.01663
4890.59652,0.01118
4892.52499,0.00757
4894.45346,0.00784
4896.38193,0.00674
4898.31039,0.00778
4900.23886,0.01717
4902.16733,0.02635
4904.09580,0.02312
4906.02427,0.01535
4907.95274,0.01662
4909.88121,0.02131
4911.80967,0.01685
4913.73814,0.00740
4915.66661,0.00863
4917.59508,0.01998
4919.52355,0.02617
4921.45202,0.02094
4923.38049,0.00825
4925.30896,-0.00490
4927.23742,-0.00622
4929.16589,0.00843
4931.09436,0.02181
4933.02283,0.01674
4934.95130,0.00222
4936.87977,-0.00306
4938.80824,0.00220
4940.73670,0.00858
4942.66517,0.01496
4944.59364,0.02137
4946.52211,0.02356
4948.45058,0.02068
4950.37905,0.01369
4952.30752,0.00805
4954.23599,0.00222
4956.16445,-0.01023
4958.09292,-0.01193
4960.02139,0.00833
4961.94986,0.02420
4963.87833,0.01776
4965.80680,0.00290
4967.73527,-0.00777
4969.66373,-0.00957
4971.59220,0.00036
4973.52067,0.01007
4975.44914,0.00748
4977.37761,0.00143
4979.30608,0.00199
4981.23455,0.00754
4983.16302,0.01461
4985.09148,0.01890
4987.01995,0.02166
4988.94842,0.02281
4990.87689,0.01336
4992.80536,0.00612
4994.73383,0.01520
4996.66230,0.02098
4998.59076,0.01547
5000.51923,0.01469
5002.44770,0.02394
5004.37617,0.03273
5006.30464,0.03174
5008.23311,0.02470
5010.16158,0.01894
5012.09005,0.02061
5014.01851,0.02904
5015.94698,0.03188
5017.87545,0.02317
5019.80392,0.01149
5021.73239,0.00642
5023.66086,0.00967
5025.58933,0.01371
5027.51779,0.01401
5029.44626,0.01552
5031.37473,0.01428
5033.30320,0.00629
5035.23167,0.00848
5037.16014,0.02451
5039.08861,0.02833
5041.01708,0.01038
5042.94554,-0.00459
5044.87401,0.00326
5046.80248,0.01572
5048.73095,0.00881
5050.65942,0.00094
5052.58789,0.00757
5054.51636,0.01133
5056.44482,0.00576
5058.37329,0.00499
5060.30176,0.01725
5062.23023,0.02847
5064.15870,0.02423
5066.08717,0.01449
5068.01564,0.00969
5069.94410,0.00309
5071.87257,-0.00256
5073.80104,0.00369
5075.72951,0.01575
5077.65798,0.02185
5079.58645,0.01530
5081.51492,0.00099
5083.44339,-0.00129
5085.37185,0.01249
5087.30032,0.02138
5089.22879,0.01538
5091.15726,0.00934
5093.08573,0.00835
5095.01420,0.00659
5096.94267,0.00459
5098.87113,0.00389
5100.79960,0.01196
5102.72807,0.02409
5104.65654,0.02444
5106.58501,0.02113
5108.51348,0.02749
5110.44195,0.03380
5112.37042,0.03224
5114.29888,0.02733
5116.22735,0.02008
5118.15582,0.01841
5120.08429,0.02552
5122.01276,0.03266
5123.94123,0.03621
5125.86970,0.03573
5127.79816,0.03166
5129.72663,0.02280
5131.65510,0.01354
5133.58357,0.00753
5135.51204,0.01019
5137.44051,0.02823
5139.36898,0.04209
5141.29745,0.03487
5143.22591,0.01871
5145.15438,0.01241
5147.08285,0.02099
5149.01132,0.03219
5150.93979,0.03034
5152.86826,0.02075
5154.79673,0.02324
5156.72519,0.03143
5158.65366,0.03015
5160.58213,0.02467
5162.51060,0.02138
5164.43907,0.02424
5166.36754,0.03648
5168.29601,0.04662
5170.22448,0.03404
5172.15294,0.01432
5174.08141,0.02140
5176.00988,0.04193
5177.93835,0.04890
5179.86682,0.05009
5181.79529,0.04899
5183.72376,0.03540
5185.65222,0.02755
5187.58069,0.03535
5189.50916,0.03919
5191.43763,0.03457
5193.36610,0.02788
5195.29457,0.02715
5197.22304,0.03383
5199.15151,0.03117
5201.07997,0.01282
5203.00844,-0.00407
5204.93691,-0.00292
5206.86538,0.01556
5208.79385,0.03342
5210.72232,0.04139
5212.65079,0.04091
5214.57925,0.03593
5216.50772,0.03497
5218.43619,0.03818
5220.36466,0.03652
5222.29313,0.03430
5224.22160,0.04217
5226.15007,0.05156
5228.07854,0.04297
5230.00700,0.02325
5231.93547,0.02246
5233.86394,0.04371
5235.79241,0.05757
5237.72088,0.05339
5239.64935,0.03676
5241.57782,0.01388
5243.50628,0.00287
5245.43475,0.01879
5247.36322,0.04446
5249.29169,0.05853
5251.22016,0.05388
5253.14863,0.03640
5255.07710,0.03178
5257.00556,0.04528
5258.93403,0.05085
5260.86250,0.03974
5262.79097,0.03074
5264.71944,0.03925
5266.64791,0.04671
5268.57638,0.03853
5270.50485,0.02739
5272.43331,0.02874
5274.36178,0.03639
5276.29025,0.03734
5278.21872,0.03797
5280.14719,0.04553
5282.07566,0.04963
5284.00413,0.04518
5285.93259,0.04450
5287.86106,0.04486
5289.78953,0.02828
5291.71800,0.00680
5293.64647,0.01122
5295.57494,0.03784
5297.50341,0.06628
5299.43188,0.08928
5301.36034,0.09579
5303.28881,0.07942
5305.21728,0.06116
5307.14575,0.05310
5309.07422,0.04988
5311.00269,0.05138
5312.93116,0.05280
5314.85962,0.04866
5316.78809,0.05006
5318.71656,0.06007
5320.64503,0.06728
5322.57350,0.06336
5324.50197,0.05030
5326.43044,0.03993
5328.35891,0.02828
5330.28737,0.01545
5332.21584,0.01717
5334.14431,0.03612
5336.07278,0.05990
5338.00125,0.06991
5339.92972,0.06076
5341.85819,0.04849
5343.78665,0.04625
5345.71512,0.05451
5347.64359,0.05878
5349.57206,0.05608
5351.50053,0.05529
5353.42900,0.05904
5355.35747,0.05695
5357.28594,0.05979
5359.21440,0.08285
5361.14287,0.09888
5363.07134,0.08336
5364.99981,0.05819
5366.92828,0.04345
5368.85675,0.03245
5370.78522,0.02299
5372.71368,0.02861
5374.64215,0.05462
5376.57062,0.07203
5378.49909,0.05603
5380.42756,0.03528
5382.35603,0.04397
5384.28450,0.07181
5386.21297,0.08047
5388.14143,0.07611
5390.06990,0.07150
5391.99837,0.06300
5393.92684,0.06050
5395.85531,0.05675
5397.78378,0.04343
5399.71225,0.03577
5401.64071,0.04243
5403.56918,0.05480
5405.49765,0.06657
5407.42612,0.08198
5409.35459,0.09378
5411.28306,0.08539
5413.21153,0.05928
5415.13999,0.04639
5417.06846,0.04717
5418.99693,0.04184
5420.92540,0.03802
5422.85387,0.03751
5424.78234,0.03504
5426.71081,0.04082
5428.63928,0.05923
5430.56774,0.07689
5432.49621,0.07910
5434.42468,0.07409
5436.35315,0.06546
5438.28162,0.03820
5440.21009,0.01876
5442.13856,0.04916
5444.06702,0.09713
5445.99549,0.11310
5447.92396,0.10688
5449.85243,0.09872
5451.78090,0.08500
5453.70937,0.07433
5455.63784,0.06999
5457.56631,0.06301
5459.49477,0.06133
5461.42324,0.06575
5463.35171,0.07482
5465.28018,0.09382
5467.20865,0.10980
5469.13712,0.10627
5471.06559,0.07890
5472.99405,0.04352
5474.92252,0.02309
5476.85099,0.03175
5478.77946,0.05909
5480.70793,0.07770
5482.63640,0.07229
5484.56487,0.06348
5486.49334,0.07740
5488.42180,0.09504
5490.35027,0.08450
5492.27874,0.06083
5494.20721,0.05254
5496.13568,0.05704
5498.06415,0.07171
5499.99262,0.09007
5501.92108,0.08500
5503.84955,0.06308
5505.77802,0.06327
5507.70649,0.08918
5509.63496,0.10470
5511.56343,0.09212
5513.49190,0.06446
5515.42037,0.04749
5517.34883,0.05190
5519.27730,0.06388
5521.20577,0.07183
5523.13424,0.07419
5525.06271,0.07286
5526.99118,0.07410
5528.91965,0.07386
5530.84811,0.05014
5532.77658,0.01626
5534.70505,0.01942
5536.63352,0.05350
5538.56199,0.08665
5540.49046,0.11909
5542.41893,0.13762
5544.34740,0.12669
5546.27586,0.11065
5548.20433,0.10808
5550.13280,0.09951
5552.06127,0.07536
5553.98974,0.05613
5555.91821,0.04670
5557.84668,0.03815
5559.77514,0.04079
5561.70361,0.05838
5563.63208,0.07863
5565.56055,0.08808
5567.48902,0.07945
5569.41749,0.06435
5571.34596,0.05763
5573.27443,0.06248
5575.20289,0.07307
5577.13136,0.08091
5579.05983,0.08321
5580.98830,0.08245
5582.91677,0.08367
5584.84524,0.08849
5586.77371,0.09574
5588.70217,0.10244
5590.63064,0.09913
5592.55911,0.07986
5594.48758,0.06176
5596.41605,0.05739
5598.34452,0.05361
5600.27299,0.04722
5602.20145,0.05281
5604.12992,0.06723
5606.05839,0.06669
5607.98686,0.05729
5609.91533,0.05877
5611.84380,0.05674
5613.77227,0.03680
5615.70074,0.02318
5617.62920,0.04717
5619.55767,0.08109
5621.48614,0.07981
5623.41461,0.05525
5625.34308,0.03504
5627.27155,0.03783
5629.20002,0.06211
5631.12848,0.08316
5633.05695,0.09074
5634.98542,0.08341
5636.91389,0.06696
5638.84236,0.05905
5640.77083,0.06736
5642.69930,0.08013
5644.62777,0.07804
5646.55623,0.06963
5648.48470,0.07456
5650.41317,0.07421
5652.34164,0.06141
5654.27011,0.05909
5656.19858,0.05964
5658.12705,0.04575
5660.05551,0.03462
5661.98398,0.04116
5663.91245,0.06346
5665.84092,0.08716
5667.76939,0.09124
5669.69786,0.09215
5671.62633,0.09928
5673.55480,0.09091
5675.48326,0.08062
5677.41173,0.09540
5679.34020,0.12187
5681.26867,0.12763
5683.19714,0.11012
5685.12561,0.09498
5687.05408,0.08232
5688.98254,0.06321
5690.91101,0.05647
5692.83948,0.06769
5694.76795,0.08346
5696.69642,0.09117
5698.62489,0.08226
5700.55336,0.05755
5702.48183,0.03226
5704.41029,0.04250
5706.33876,0.07833
5708.26723,0.08543
5710.19570,0.06828
5712.12417,0.06322
5714.05264,0.05627
5715.98111,0.03629
5717.90957,0.03930
5719.83804,0.07470
5721.76651,0.10600
5723.69498,0.11171
5725.62345,0.10360
5727.55192,0.09023
5729.48039,0.07522
5731.40886,0.07241
5733.33732,0.07999
5735.26579,0.08411
5737.19426,0.07210
5739.12273,0.05708
5741.05120,0.06938
5742.97967,0.09772
5744.90814,0.10399
5746.83660,0.08107
5748.76507,0.05272
5750.69354,0.02787
5752.62201,0.00902
5754.55048,0.00910
5756.47895,0.02484
5758.40742,0.04293
5760.33588,0.05425
5762.26435,0.06384
5764.19282,0.08812
5766.12129,0.11152
5768.04976,0.09925
5769.97823,0.06659
5771.90670,0.04998
5773.83517,0.05178
5775.76363,0.06669
5777.69210,0.07754
5779.62057,0.06311
5781.54904,0.04762
5783.47751,0.05180
5785.40598,0.06199
5787.33445,0.07504
5789.26291,0.08681
5791.19138,0.07465
5793.11985,0.03850
5795.04832,0.01749
5796.97679,0.03521
5798.90526,0.05880
5800.83373,0.07573
5802.76220,0.10307
5804.69066,0.10935
5806.61913,0.08460
5808.54760,0.07628
5810.47607,0.08596
5812.40454,0.08845
5814.33301,0.08014
5816.26148,0.06651
5818.18994,0.05541
5820.11841,0.04302
5822.04688,0.02093
5823.97535,0.01682
5825.90382,0.04913
5827.83229,0.07505
5829.76076,0.07472
5831.68923,0.06659
5833.61769,0.04208
5835.54616,0.02112
5837.47463,0.03794
5839.40310,0.08104
5841.33157,0.11416
5843.26004,0.10529
5845.18851,0.06599
5847.11697,0.03751
5849.04544,0.03381
5850.97391,0.04303
5852.90238,0.06231
5854.83085,0.07713
5856.75932,0.07713
5858.68779,0.07716
5860.61626,0.07198
5862.54472,0.07589
5864.47319,0.11032
5866.40166,0.13561
5868.33013,0.11903
5870.25860,0.07870
5872.18707,0.04445
5874.11554,0.03858
5876.04400,0.05800
5877.97247,0.07988
5879.90094,0.10060
5881.82941,0.12435
5883.75788,0.15477
5885.68635,0.17945
5887.61482,0.17510
5889.54329,0.14879
5891.47175,0.11727
5893.40022,0.09382
5895.32869,0.08338
5897.25716,0.08079
5899.18563,0.08358
5901.11410,0.08500
5903.04257,0.09015
5904.97103,0.10469
5906.89950,0.11870
5908.82797,0.12613
5910.75644,0.11669
5912.68491,0.09569
5914.61338,0.08853
5916.54185,0.08822
5918.47032,0.08974
5920.39878,0.10493
5922.32725,0.10625
5924.25572,0.07753
5926.18419,0.06514
5928.11266,0.09485
5930.04113,0.10782
5931.96960,0.08794
5933.89806,0.10077
5935.82653,0.13358
5937.75500,0.11573
5939.68347,0.06491
5941.61194,0.03240
5943.54041,0.02560
5945.46888,0.03205
5947.39734,0.05655
5949.32581,0.09416
5951.25428,0.10575
5953.18275,0.08548
5955.11122,0.05700
5957.03969,0.03053
5958.96816,0.02776
5960.89663,0.04292
5962.82509,0.05411
5964.75356,0.07403
5966.68203,0.09633
5968.61050,0.09895
5970.53897,0.10289
5972.46744,0.11985
5974.39591,0.12229
5976.32437,0.10364
5978.25284,0.08474
5980.18131,0.08186
5982.10978,0.07219
5984.03825,0.05329
5985.96672,0.07072
5987.89519,0.11816
5989.82366,0.14266
5991.75212,0.12721
5993.68059,0.11699
5995.60906,0.13450
5997.53753,0.13098
5999.46600,0.09149
6001.39447,0.05334
6003.32294,0.04623
6005.25140,0.06362
6007.17987,0.08597
6009.10834,0.10520
6011.03681,0.12358
6012.96528,0.13015
6014.89375,0.09499
6016.82222,0.05738
6018.75069,0.09252
6020.67915,0.15074
6022.60762,0.14116
6024.53609,0.08082
6026.46456,0.03231
6028.39303,0.01835
6030.32150,0.03240
6032.24997,0.06444
6034.17843,0.08451
6036.10690,0.07749
6038.03537,0.07807
6039.96384,0.11174
6041.89231,0.14541
6043.82078,0.14437
6045.74925,0.12955
6047.67772,0.10532
6049.60618,0.07060
6051.53465,0.06209
6053.46312,0.08590
6055.39159,0.10055
6057.32006,0.07989
6059.24853,0.06280
6061.17700,0.07333
6063.10546,0.09383
6065.03393,0.09621
6066.96240,0.06744
6068.89087,0.04140
6070.81934,0.03566
6072.74781,0.02665
6074.67628,0.02251
6076.60475,0.03740
6078.53321,0.04605
6080.46168,0.04051
6082.39015,0.04316
6084.31862,0.06786
6086.24709,0.09032
6088.17556,0.06967
6090.10403,0.04719
6092.03249,0.08501
6093.96096,0.13265
6095.88943,0.13469
6097.81790,0.12770
6099.74637,0.11647
6101.67484,0.09630
6103.60331,0.10072
6105.53177,0.11554
6107.46024,0.10752
6109.38871,0.08091
6111.31718,0.05567
6113.24565,0.04766
6115.17412,0.05930
6117.10259,0.06160
6119.03106,0.04258
6120.95952,0.02873
6122.88799,0.00773
6124.81646,-0.02968
6126.74493,-0.03556
6128.67340,0.01618
6130.60187,0.06883
6132.53034,0.08993
6134.45880,0.10522
6136.38727,0.10547
6138.31574,0.06223
6140.24421,0.00299
6142.17268,-0.01030
6144.10115,0.02580
6146.02962,0.05705
6147.95809,0.06390
6149.88655,0.08217
6151.81502,0.12831
6153.74349,0.15747
6155.67196,0.12723
6157.60043,0.06042
6159.52890,0.03482
6161.45737,0.06710
6163.38583,0.09483
6165.31430,0.10424
6167.24277,0.11430
6169.17124,0.12059
6171.09971,0.10030
6173.02818,0.05700
6174.95665,0.03331
6176.88512,0.03042
6178.81358,0.02900
6180.74205,0.05022
6182.67052,0.08759
6184.59899,0.09203
6186.52746,0.05567
6188.45593,0.02438
6190.38440,0.03015
6192.31286,0.05594
6194.24133,0.08385
6196.16980,0.08746
6198.09827,0.05830
6200.02674,0.06111
6201.95521,0.10555
6203.88368,0.11314
6205.81215,0.10285
6207.74061,0.13070
6209.66908,0.12785
6211.59755,0.06301
6213.52602,0.02636
6215.45449,0.03428
6217.38296,0.03913
6219.31143,0.03327
6221.23989,0.02903
6223.16836,0.02915
6225.09683,0.02413
6227.02530,0.00428
6228.95377,-0.00054
6230.88224,0.04362
6232.81071,0.09072
6234.73918,0.06590
6236.66764,-0.00018
6238.59611,-0.03298
6240.52458,-0.01164
6242.45305,0.01169
6244.38152,0.00101
6246.30999,-0.00047
6248.23846,0.00901
6250.16692,-0.01244
6252.09539,-0.04119
6254.02386,-0.02777
6255.95233,0.01554
6257.88080,0.04723
6259.80927,0.05753
6261.73774,0.06849
6263.66621,0.09716
6265.59467,0.09684
6267.52314,0.04553
6269.45161,0.02494
6271.38008,0.05745
6273.30855,0.11636
6275.23702,0.16785
6277.16549,0.15322
6279.09395,0.09293
6281.02242,0.07222
6282.95089,0.09577
6284.87936,0.11284
6286.80783,0.11387
6288.73630,0.09724
6290.66477,0.08886
6292.59323,0.13436
6294.52170,0.17268
6296.45017,0.13801
6298.37864,0.08280
6300.30711,0.06189
6302.23558,0.07806
6304.16405,0.08852
6306.09252,0.07688
6308.02098,0.08755
6309.94945,0.09101
6311.87792,0.04906
6313.80639,0.00691
6315.73486,-0.00979
6317.66333,-0.00548
6319.59180,0.00790
6321.52026,0.01857
6323.44873,0.03350
6325.37720,0.07490
6327.30567,0.12839
6329.23414,0.17091
6331.16261,0.20390
6333.09108,0.17752
6335.01955,0.08294
6336.94801,0.01445
6338.87648,0.02510
6340.80495,0.07261
6342.73342,0.08587
6344.66189,0.05051
6346.59036,0.02512
6348.51883,0.06715
6350.44729,0.13181
6352.37576,0.12359
6354.30423,0.05640
6356.23270,-0.00201
6358.16117,-0.03311
6360.08964,-0.03125
6362.01811,0.00352
6363.94658,0.06915
6365.87504,0.14173
6367.80351,0.16075
6369.73198,0.14398
6371.66045,0.15355
6373.58892,0.18804
6375.51739,0.18595
6377.44586,0.13369
6379.37432,0.08099
6381.30279,0.05357
6383.23126,0.07351
6385.15973,0.11523
6387.08820,0.10307
6389.01667,0.04787
6390.94514,0.02107
6392.87361,0.06188
6394.80207,0.11762
6396.73054,0.14084
6398.65901,0.13927
6400.58748,0.11430
6402.51595,0.07692
6404.44442,0.05793
6406.37289,0.07292
6408.30135,0.07402
6410.22982,0.02985
6412.15829,0.00972
6414.08676,0.05219
6416.01523,0.08708
6417.94370,0.05576
6419.87217,0.01552
6421.80064,0.04528
6423.72910,0.11167
6425.65757,0.14064
6427.58604,0.10921
6429.51451,0.04971
6431.44298,0.01218
6433.37145,0.01375
6435.29992,0.01736
6437.22838,-0.00143
6439.15685,-0.02011
6441.08532,-0.02474
6443.01379,-0.01425
6444.94226,0.03823
6446.87073,0.08960
6448.79920,0.05787
6450.72766,-0.02541
6452.65613,-0.05454
6454.58460,-0.02794
6456.51307,-0.00005
6458.44154,0.03080
6460.37001,0.06683
6462.29848,0.08425
6464.22695,0.11131
6466.15541,0.16814
6468.08388,0.21094
6470.01235,0.21975
6471.94082,0.19837
6473.86929,0.16563
6475.79776,0.13180
6477.72623,0.03682
6479.65469,-0.09193
6481.58316,-0.11591
6483.51163,-0.04534
6485.44010,0.02332
6487.36857,0.08658
6489.29704,0.12980
6491.22551,0.14206
6493.15398,0.14896
6495.08244,0.14092
6497.01091,0.12712
6498.93938,0.11927
6500.86785,0.09708
6502.79632,0.07639
6504.72479,0.07878
6506.65326,0.08445
6508.58172,0.07634
6510.51019,0.07450
6512.43866,0.09904
6514.36713,0.09832
6516.29560,0.04452
6518.22407,0.01853
6520.15254,0.04046
6522.08101,0.04358
6524.00947,0.03838
6525.93794,0.05952
6527.86641,0.06864
6529.79488,0.08216
6531.72335,0.13946
6533.65182,0.16294
6535.58029,0.10595
6537.50875,0.06048
6539.43722,0.08564
6541.36569,0.13712
6543.29416,0.14264
6545.22263,0.07900
6547.15110,0.01328
6549.07957,0.01327
6551.00804,0.07914
6552.93650,0.12605
6554.86497,0.10851
6556.79344,0.04794
6558.72191,-0.01345
6560.65038,-0.01146
6562.57885,0.04648
6564.50732,0.07995
6566.43578,0.05432
6568.36425,0.01392
6570.29272,0.01233
6572.22119,0.03222
6574.14966,0.01555
6576.07813,-0.00919
6578.00660,0.02961
6579.93507,0.08123
6581.86353,0.07962
6583.79200,0.08865
6585.72047,0.08999
6587.64894,0.02553
6589.57741,-0.04363
6591.50588,-0.06456
6593.43435,-0.04539
6595.36281,-0.01665
6597.29128,0.03780
6599.21975,0.13197
6601.14822,0.17462
6603.07669,0.11376
6605.00516,0.03513
6606.93363,0.00459
6608.86210,0.01437
6610.79056,0.02553
6612.71903,0.02475
6614.64750,0.01349
6616.57597,0.01748
6618.50444,0.03652
6620.43291,0.01173
6622.36138,-0.02178
6624.28984,0.01131
6626.21831,0.06312
6628.14678,0.07595
6630.07525,0.07849
6632.00372,0.12758
6633.93219,0.16712
6635.86066,0.07960
6637.78912,-0.04159
6639.71759,-0.02714
6641.64606,0.04695
6643.57453,0.05118
6645.50300,0.01534
6647.43147,0.00361
6649.35994,-0.01228
6651.28841,-0.03850
6653.21687,-0.07540
6655.14534,-0.12541
6657.07381,-0.14110
6659.00228,-0.08682
6660.93075,-0.00072
6662.85922,0.06018
6664.78769,0.09040
6666.71615,0.10235
6668.64462,0.10511
6670.57309,0.12398
6672.50156,0.15296
6674.43003,0.17207
6676.35850,0.15847
6678.28697,0.09781
6680.21544,0.05101
6682.14390,0.05785
6684.07237,0.07443
6686.00084,0.04687
6687.92931,-0.03079
6689.85778,-0.07423
6691.78625,-0.00891
6693.71472,0.08618
6695.64318,0.11091
6697.57165,0.08147
6699.50012,0.07701
6701.42859,0.10323
6703.35706,0.13637
6705.28553,0.14473
6707.21400,0.13913
6709.14247,0.15766
6711.07093,0.14097
6712.99940,0.03787
6714.92787,-0.07144
6716.85634,-0.07714
6718.78481,-0.00451
6720.71328,0.06809
6722.64175,0.11522
6724.57021,0.10968
6726.49868,0.08404
6728.42715,0.11048
6730.35562,0.13313
6732.28409,0.08094
6734.21256,0.01536
6736.14103,0.00647
6738.06950,0.04826
6739.99796,0.08204
6741.92643,0.08512
6743.85490,0.05663
6745.78337,-0.00425
6747.71184,-0.02230
6749.64031,0.03613
6751.56878,0.04648
6753.49724,-0.03426
6755.42571,-0.07666
6757.35418,-0.04867
6759.28265,-0.02080
6761.21112,0.00472
6763.13959,0.03022
6765.06806,0.05671
6766.99653,0.11931
6768.92499,0.18102
6770.85346,0.16107
6772.78193,0.09238
6774.71040,0.06883
6776.63887,0.08156
6778.56734,0.06982
6780.49581,0.06182
6782.42427,0.07543
6784.35274,0.07274
6786.28121,0.09450
6788.20968,0.19115
6790.13815,0.27925
6792.06662,0.25751
6793.99509,0.17390
6795.92355,0.09884
6797.85202,0.03249
6799.78049,-0.01911
6801.70896,-0.00319
6803.63743,0.05682
6805.56590,0.07969
6807.49437,0.07696
6809.42284,0.07264
6811.35130,0.07152
6813.27977,0.06588
6815.20824,0.06553
6817.13671,0.06621
6819.06518,0.04521
6820.99365,0.05955
6822.92212,0.12066
6824.85058,0.14522
6826.77905,0.13659
6828.70752,0.10979
6830.63599,0.02479
6832.56446,-0.06079
6834.49293,-0.02026
6836.42140,0.12360
6838.34987,0.15458
6840.27833,0.08140
6842.20680,0.08731
6844.13527,0.12100
6846.06374,0.05747
6847.99221,-0.03427
6849.92068,-0.03819
6851.84915,0.00615
6853.77761,0.04811
6855.70608,0.10000
6857.63455,0.08794
6859.56302,-0.00464
6861.49149,-0.05304
6863.41996,-0.00738
6865.34843,0.04589
6867.27690,0.08563
6869.20536,0.13143
6871.13383,0.11377
6873.06230,-0.04135
6874.99077,-0.23290
6876.91924,-0.29692
6878.84771,-0.18524
6880.77618,-0.01444
6882.70464,0.03543
6884.63311,-0.03869
6886.56158,-0.09486
6888.49005,-0.07403
6890.41852,-0.02457
6892.34699,0.03408
6894.27546,0.05778
6896.20393,0.04019
6898.13239,0.01635
6900.06086,-0.01126
6901.98933,-0.02260
6903.91780,-0.01534
6905.84627,0.04164
6907.77474,0.13508
6909.70321,0.14936
6911.63167,0.11536
6913.56014,0.11752
6915.48861,0.12844
6917.41708,0.10456
6919.34555,0.05676
6921.27402,0.02130
6923.20249,-0.02892
6925.13096,-0.11181
6927.05942,-0.17249
6928.98789,-0.16372
6930.91636,-0.10308
6932.84483,-0.01222
6934.77330,0.09843
6936.70177,0.16408
6938.63024,0.15501
6940.55870,0.11600
6942.48717,0.07653
6944.41564,0.04050
6946.34411,0.05909
6948.27258,0.13685
6950.20105,0.17477
6952.12952,0.14614
6954.05799,0.11369
6955.98645,0.09559
6957.91492,0.07559
6959.84339,0.06315
6961.77186,0.02068
6963.70033,-0.08065
6965.62880,-0.16238
6967.55727,-0.12220
6969.48573,0.04196
6971.41420,0.17039
6973.34267,0.17514
6975.27114,0.15699
6977.19961,0.16106
6979.12808,0.17806
6981.05655,0.17347
6982.98501,0.10710
6984.91348,0.03387
6986.84195,-0.01966
6988.77042,-0.02656
6990.69889,0.05152
6992.62736,0.12928
6994.55583,0.10724
6996.48430,0.00767
6998.41276,0.01383
7000.34123,0.14233
7002.26970,0.18053
7004.19817,0.12891
7006.12664,0.05484
7008.05511,-0.05021
7009.98358,-0.11640
7011.91204,-0.06928
7013.84051,0.06201
7015.76898,0.15567
7017.69745,0.18853
7019.62592,0.19447
7021.55439,0.17790
7023.48286,0.10909
7025.41133,-0.00416
7027.33979,-0.05594
7029.26826,-0.03102
7031.19673,-0.03181
7033.12520,-0.03931
7035.05367,-0.00775
7036.98214,0.00287
7038.91061,0.01576
7040.83907,0.13953
7042.76754,0.33966
7044.69601,0.40678
7046.62448,0.27942
7048.55295,0.08408
7050.48142,-0.02060
7052.40989,-0.00279
7054.33836,0.07417
7056.26682,0.15186
7058.19529,0.16948
7060.12376,0.09496
7062.05223,0.00711
7063.98070,-0.01578
7065.90917,0.02798
7067.83764,0.07786
7069.76610,0.09445
7071.69457,0.07519
7073.62304,0.05703
7075.55151,0.04670
7077.47998,0.03446
7079.40845,0.02351
7081.33692,-0.00938
7083.26539,-0.02175
7085.19385,0.05236
7087.12232,0.18052
7089.05079,0.26082
7090.97926,0.24179
7092.90773,0.16553
7094.83620,0.08907
7096.76467,0.07818
7098.69313,0.13649
7100.62160,0.15756
7102.55007,0.11010
7104.47854,0.03323
7106.40701,-0.02299
7108.33548,0.00767
7110.26395,0.10148
7112.19242,0.13319
7114.12088,0.06486
7116.04935,-0.01922
7117.97782,-0.05428
7119.90629,0.03094
7121.83476,0.13743
7123.76323,0.13103
7125.69170,0.07688
7127.62016,0.00306
7129.54863,-0.04596
7131.47710,0.02624
7133.40557,0.08047
7135.33404,0.05282
7137.26251,0.10875
7139.19098,0.20194
7141.11944,0.12746
7143.04791,-0.02690
7144.97638,-0.01873
7146.90485,0.12437
7148.83332,0.20364
7150.76179,0.20400
7152.69026,0.15880
7154.61873,0.02900
7156.54719,-0.13117
7158.47566,-0.17583
7160.40413,-0.09394
7162.33260,-0.02062
7164.26107,-0.05757
7166.18954,-0.12389
7168.11801,-0.13049
7170.04647,-0.08873
7171.97494,-0.02399
7173.90341,-0.05192
7175.83188,-0.14648
7177.76035,-0.09184
7179.68882,0.05371
7181.61729,0.05706
7183.54576,-0.07529
7185.47422,-0.11683
7187.40269,-0.05022
7189.33116,0.00051
7191.25963,0.00058
7193.18810,-0.01520
7195.11657,-0.06628
7197.04504,-0.16210
7198.97350,-0.18742
7200.90197,-0.06170
7202.83044,0.17522
7204.75891,0.40957
7206.68738,0.42723
7208.61585,0.28550
7210.54432,0.13154
7212.47279,-0.02874
7214.40125,-0.19014
7216.32972,-0.24643
7218.25819,-0.12691
7220.18666,-0.02062
7222.11513,-0.01214
7224.04360,-0.01325
7225.97207,-0.00930
7227.90053,-0.07995
7229.82900,-0.16975
7231.75747,-0.11369
7233.68594,0.06683
7235.61441,0.26315
7237.54288,0.37326
7239.47135,0.33827
7241.39982,0.27593
7243.32828,0.22229
7245.25675,0.14355
7247.18522,0.07044
7249.11369,0.02877
7251.04216,0.01905
7252.97063,-0.01093
7254.89910,-0.07327
7256.82756,-0.14667
7258.75603,-0.18162
7260.68450,-0.06551
7262.61297,0.14199
7264.54144,0.11733
7266.46991,-0.06489
7268.39838,-0.10206
7270.32685,-0.03488
7272.25531,0.04487
7274.18378,0.11431
7276.11225,0.04291
7278.04072,-0.09838
7279.96919,-0.06079
7281.89766,0.07019
7283.82613,0.03843
7285.75459,-0.02669
7287.68306,-0.09785
7289.61153,-0.18356
7291.54000,-0.11415
7293.46847,0.03119
7295.39694,0.03714
7297.32541,-0.03701
7299.25387,-0.07019
7301.18234,-0.03417
7303.11081,-0.01778
7305.03928,-0.10939
7306.96775,-0.22002
7308.89622,-0.21273
7310.82469,-0.11020
7312.75316,-0.00263
7314.68162,0.13616
7316.61009,0.29486
7318.53856,0.27557
7320.46703,0.04374
7322.39550,-0.15866
7324.32397,-0.10634
7326.25244,0.05401
7328.18090,0.11786
7330.10937,0.06940
7332.03784,0.04080
7333.96631,0.11983
7335.89478,0.23230
7337.82325,0.30930
7339.75172,0.31628
7341.68019,0.33175
7343.60865,0.42362
7345.53712,0.34960
7347.46559,0.06129
7349.39406,-0.10040
7351.32253,-0.11296
7353.25100,-0.08473
7355.17947,0.08019
7357.10793,0.34934
7359.03640,0.49936
7360.96487,0.49025
7362.89334,0.38173
7364.82181,0.24911
7366.75028,0.22712
7368.67875,0.26042
7370.60722,0.22895
7372.53568,0.13265
7374.46415,-0.03078
7376.39262,-0.11987
7378.32109,-0.02857
7380.24956,0.04717
7382.17803,0.00758
7384.10650,-0.10475
7386.03496,-0.15923
7387.96343,-0.07174
7389.89190,-0.00185
7391.82037,-0.05202
7393.74884,-0.11369
7395.67731,-0.04546
7397.60578,0.13046
7399.53425,0.21226
7401.46271,0.11898
7403.39118,-0.01602
7405.31965,-0.00843
7407.24812,0.14995
7409.17659,0.28128
7411.10506,0.24962
7413.03353,0.16933
7414.96199,0.20176
7416.89046,0.29583
7418.81893,0.23963
7420.74740,0.03720
7422.67587,-0.02250
7424.60434,0.01123
7426.53281,-0.00464
7428.46128,-0.06087
7430.38974,-0.07338
7432.31821,0.00070
7434.24668,0.18598
7436.17515,0.39644
7438.10362,0.42714
7440.03209,0.29893
7441.96056,0.16139
7443.88902,0.09645
7445.81749,0.14518
7447.74596,0.24809
7449.67443,0.27395
7451.60290,0.16067
7453.53137,0.03061
7455.45984,0.00075
7457.38831,0.05287
7459.31677,0.10140
7461.24524,0.09376
7463.17371,0.06323
7465.10218,0.03867
7467.03065,0.08002
7468.95912,0.12906
7470.88759,0.06801
7472.81605,-0.04108
7474.74452,-0.10053
7476.67299,-0.21187
7478.60146,-0.25557
7480.52993,-0.04494
7482.45840,0.19523
7484.38687,0.34167
7486.31533,0.33045
7488.24380,0.14131
7490.17227,0.00422
7492.10074,-0.05207
7494.02921,-0.06385
7495.95768,-0.01080
7497.88615,-0.00672
