399.19301,0.46326
401.12148,-0.85270
403.04995,-0.15023
404.97842,0.13399
406.90689,-0.03075
408.83536,-0.04385
410.76382,0.07543
412.69229,0.06539
414.62076,0.07307
416.54923,0.13629
418.47770,0.13342
420.40617,0.25781
422.33464,0.40560
424.26311,0.20482
426.19157,-0.05570
428.12004,0.04569
430.04851,0.17036
431.97698,-0.03566
433.90545,-0.10491
435.83392,0.03021
437.76239,-0.00719
439.69085,-0.12989
441.61932,-0.06031
443.54779,0.06722
445.47626,0.05545
447.40473,0.07085
449.33320,0.08799
451.26167,0.01593
453.19013,0.01991
455.11860,0.09934
457.04707,0.03955
458.97554,-0.03472
460.90401,0.05894
462.83248,0.05026
464.76095,-0.12920
466.68942,-0.16470
468.61788,-0.03483
470.54635,-0.00173
472.47482,-0.07735
474.40329,0.02073
476.33176,0.11119
478.26023,0.06164
480.18870,0.07181
482.11716,0.12462
484.04563,0.08396
485.97410,0.06469
487.90257,0.14377
489.83104,0.13382
491.75951,0.07690
493.68798,0.14301
495.61645,0.17796
497.54491,0.08469
499.47338,0.09008
501.40185,0.18172
503.33032,0.09392
505.25879,-0.07144
507.18726,-0.05149
509.11573,0.04165
511.04419,0.01631
512.97266,-0.00469
514.90113,0.06390
516.82960,0.07698
518.75807,0.03148
520.68654,0.06837
522.61501,0.12079
524.54348,0.11200
526.47194,0.11954
528.40041,0.13530
530.32888,0.08551
532.25735,0.05986
534.18582,0.10760
536.11429,0.09896
538.04276,0.03703
539.97122,0.06753
541.89969,0.12093
543.82816,0.06256
545.75663,0.02079
547.68510,0.08196
549.61357,0.08957
551.54204,0.01550
553.47051,0.01134
555.39897,0.06712
557.32744,0.06943
559.25591,0.05463
561.18438,0.07941
563.11285,0.08756
565.04132,0.07525
566.96979,0.09062
568.89825,0.09071
570.82672,0.06589
572.75519,0.09139
574.68366,0.12486
576.61213,0.08311
578.54060,0.06031
580.46907,0.11602
582.39754,0.12754
584.32600,0.07134
586.25447,0.06921
588.18294,0.11057
590.11141,0.09350
592.03988,0.05417
593.96835,0.07866
595.89682,0.09896
597.82528,0.06100
599.75375,0.04161
601.68222,0.07082
603.61069,0.10128
605.53916,0.12567
607.46763,0.13278
609.39610,0.09420
611.32456,0.06187
613.25303,0.08609
615.18150,0.10051
617.10997,0.06710
619.03844,0.06585
620.96691,0.09927
622.89538,0.08746
624.82385,0.06442
626.75231,0.08851
628.68078,0.10786
630.60925,0.08652
632.53772,0.07644
634.46619,0.08964
636.39466,0.08187
638.32313,0.07002
640.25159,0.08759
642.18006,0.09359
644.10853,0.07522
646.03700,0.07944
647.96547,0.09504
649.89394,0.09027
651.82241,0.09847
653.75088,0.12160
655.67934,0.10068
657.60781,0.06638
659.53628,0.09075
661.46475,0.11820
663.39322,0.09731
665.32169,0.08464
667.25016,0.12314
669.17862,0.15754
671.10709,0.14109
673.03556,0.12816
674.96403,0.11019
676.89250,0.08410
678.82097,0.09260
680.74944,0.12158
682.67791,0.11081
684.60637,0.08845
686.53484,0.09754
688.46331,0.09444
690.39178,0.07524
692.32025,0.08425
694.24872,0.08713
696.17719,0.06105
698.10565,0.06801
700.03412,0.10870
701.96259,0.10777
703.89106,0.07431
705.81953,0.07963
707.74800,0.10666
709.67647,0.10104
711.60494,0.08537
713.53340,0.09405
715.46187,0.10604
717.39034,0.11025
719.31881,0.12937
721.24728,0.14684
723.17575,0.13289
725.10422,0.11252
727.03268,0.09852
728.96115,0.07902
730.88962,0.08567
732.81809,0.12474
734.74656,0.13082
736.67503,0.10402
738.60350,0.11203
740.53197,0.13864
742.46043,0.12182
744.38890,0.08896
746.31737,0.09507
748.24584,0.11554
750.17431,0.11696
752.10278,0.11655
754.03125,0.12094
755.95971,0.11522
757.88818,0.10951
759.81665,0.11512
761.74512,0.11734
763.67359,0.11904
765.60206,0.12920
767.53053,0.12166
769.45900,0.09742
771.38746,0.09899
773.31593,0.11520
775.24440,0.10094
777.17287,0.08165
779.10134,0.10154
781.02981,0.12340
782.95828,0.11110
784.88674,0.10548
786.81521,0.12606
788.74368,0.13103
790.67215,0.11353
792.60062,0.10763
794.52909,0.11766
796.45756,0.12076
798.38602,0.11067
800.31449,0.09658
802.24296,0.09292
804.17143,0.11315
806.09990,0.13171
808.02837,0.10914
809.95684,0.08391
811.88531,0.10549
813.81377,0.12449
815.74224,0.10386
817.67071,0.09667
819.59918,0.12080
821.52765,0.12503
823.45612,0.10595
825.38459,0.11518
827.31305,0.14311
829.24152,0.14492
831.16999,0.13701
833.09846,0.13907
835.02693,0.13791
836.95540,0.13560
838.88387,0.13547
840.81234,0.12582
842.74080,0.11621
844.66927,0.12576
846.59774,0.13485
848.52621,0.11906
850.45468,0.10866
852.38315,0.12568
854.31162,0.13079
856.24008,0.11637
858.16855,0.12170
860.09702,0.13202
862.02549,0.11543
863.95396,0.10307
865.88243,0.11655
867.81090,0.12522
869.73937,0.11869
871.66783,0.11886
873.59630,0.12591
875.52477,0.12982
877.45324,0.13464
879.38171,0.13111
881.31018,0.11174
883.23865,0.10271
885.16711,0.11832
887.09558,0.12415
889.02405,0.11277
890.95252,0.12469
892.88099,0.14884
894.80946,0.14334
896.73793,0.12943
898.66640,0.13686
900.59486,0.13830
902.52333,0.12169
904.45180,0.11813
906.38027,0.13064
908.30874,0.13567
910.23721,0.13289
912.16568,0.12972
914.09414,0.12183
916.02261,0.11571
917.95108,0.11605
919.87955,0.11230
921.80802,0.11146
923.73649,0.13073
925.66496,0.14907
927.59343,0.13683
929.52189,0.12190
931.45036,0.13311
933.37883,0.13933
935.30730,0.12178
937.23577,0.11300
939.16424,0.12523
941.09271,0.12794
943.02117,0.11644
944.94964,0.11694
946.87811,0.12841
948.80658,0.13225
950.73505,0.12989
952.66352,0.12925
954.59199,0.12954
956.52045,0.13252
958.44892,0.13498
960.37739,0.12585
962.30586,0.11755
964.23433,0.12862
966.16280,0.13982
968.09127,0.13401
970.01974,0.13634
971.94820,0.15215
973.87667,0.14562
975.80514,0.12349
977.73361,0.12616
979.66208,0.14120
981.59055,0.13770
983.51902,0.13029
985.44748,0.13366
987.37595,0.13566
989.30442,0.13302
991.23289,0.13226
993.16136,0.13082
995.08983,0.13125
997.01830,0.13980
998.94677,0.14105
1000.87523,0.12829
1002.80370,0.12669
1004.73217,0.14045
1006.66064,0.13953
1008.58911,0.12523
1010.51758,0.13174
1012.44605,0.14870
1014.37451,0.14188
1016.30298,0.12969
1018.23145,0.13810
1020.15992,0.14725
1022.08839,0.14248
1024.01686,0.13945
1025.94533,0.14262
1027.87380,0.14502
1029.80226,0.14735
1031.73073,0.14399
1033.65920,0.13196
1035.58767,0.12864
1037.51614,0.13996
1039.44461,0.14098
1041.37308,0.12813
1043.30154,0.13095
1045.23001,0.14205
1047.15848,0.13235
1049.08695,0.12325
1051.01542,0.13707
1052.94389,0.14664
1054.87236,0.14170
1056.80083,0.14606
1058.72929,0.15567
1060.65776,0.15010
1062.58623,0.13901
1064.51470,0.14040
1066.44317,0.14568
1068.37164,0.14672
1070.30011,0.15438
1072.22857,0.15763
1074.15704,0.14700
1076.08551,0.14983
1078.01398,0.16222
1079.94245,0.14953
1081.87092,0.13054
1083.79939,0.14056
1085.72786,0.15432
1087.65632,0.14665
1089.58479,0.14773
1091.51326,0.16432
1093.44173,0.16144
1095.37020,0.14273
1097.29867,0.14108
1099.22714,0.15232
1101.15560,0.15898
1103.08407,0.16526
1105.01254,0.16803
1106.94101,0.16142
1108.86948,0.15915
1110.79795,0.16242
1112.72642,0.15481
1114.65489,0.14410
1116.58335,0.14604
1118.51182,0.14447
1120.44029,0.13047
1122.36876,0.13135
1124.29723,0.14893
1126.22570,0.15137
1128.15417,0.13919
1130.08263,0.13647
1132.01110,0.13861
1133.93957,0.13231
1135.86804,0.13026
1137.79651,0.14169
1139.72498,0.15061
1141.65345,0.14929
1143.58191,0.14576
1145.51038,0.14329
1147.43885,0.14543
1149.36732,0.15366
1151.29579,0.15598
1153.22426,0.15016
1155.15273,0.15161
1157.08120,0.16053
1159.00966,0.15753
1160.93813,0.14510
1162.86660,0.14643
1164.79507,0.15607
1166.72354,0.15710
1168.65201,0.15831
1170.58048,0.16511
1172.50894,0.16477
1174.43741,0.15632
1176.36588,0.15366
1178.29435,0.15749
1180.22282,0.15782
1182.15129,0.15544
1184.07976,0.15230
1186.00823,0.14573
1187.93669,0.14378
1189.86516,0.15051
1191.79363,0.15378
1193.72210,0.15175
1195.65057,0.15508
1197.57904,0.15948
1199.50751,0.15506
1201.43597,0.15269
1203.36444,0.15945
1205.29291,0.16077
1207.22138,0.15552
1209.14985,0.15873
1211.07832,0.16534
1213.00679,0.16037
1214.93526,0.15142
1216.86372,0.15108
1218.79219,0.15497
1220.72066,0.15713
1222.64913,0.15829
1224.57760,0.15736
1226.50607,0.15298
1228.43454,0.15165
1230.36300,0.15525
1232.29147,0.15526
1234.21994,0.15286
1236.14841,0.15625
1238.07688,0.16015
1240.00535,0.15659
1241.93382,0.15302
1243.86229,0.15268
1245.79075,0.14635
1247.71922,0.14402
1249.64769,0.15726
1251.57616,0.16471
1253.50463,0.15624
1255.43310,0.15130
1257.36157,0.15378
1259.29003,0.15356
1261.21850,0.15163
1263.14697,0.15217
1265.07544,0.15167
1267.00391,0.15032
1268.93238,0.15300
1270.86085,0.15452
1272.78932,0.15257
1274.71778,0.15683
1276.64625,0.16467
1278.57472,0.16269
1280.50319,0.15528
1282.43166,0.15704
1284.36013,0.16450
1286.28860,0.16587
1288.21706,0.16539
1290.14553,0.16751
1292.07400,0.16305
1294.00247,0.15458
1295.93094,0.15368
1297.85941,0.15545
1299.78788,0.15003
1301.71634,0.13887
1303.64481,0.12715
1305.57328,0.12500
1307.50175,0.13999
1309.43022,0.15652
1311.35869,0.15981
1313.28716,0.16026
1315.21563,0.16617
1317.14409,0.16901
1319.07256,0.16305
1321.00103,0.15797
1322.92950,0.16216
1324.85797,0.16356
1326.78644,0.15792
1328.71491,0.15892
1330.64337,0.16058
1332.57184,0.15541
1334.50031,0.15434
1336.42878,0.15760
1338.35725,0.15779
1340.28572,0.15424
1342.21419,0.15273
1344.14266,0.15353
1346.07112,0.15315
1347.99959,0.15644
1349.92806,0.15908
1351.85653,0.15430
1353.78500,0.15489
1355.71347,0.16543
1357.64194,0.17104
1359.57040,0.16905
1361.49887,0.17184
1363.42734,0.17634
1365.35581,0.17109
1367.28428,0.16604
1369.21275,0.16940
1371.14122,0.17425
1373.06969,0.17659
1374.99815,0.17940
1376.92662,0.17989
1378.85509,0.17561
1380.78356,0.17045
1382.71203,0.16649
1384.64050,0.16387
1386.56897,0.16692
1388.49743,0.17490
1390.42590,0.17630
1392.35437,0.17191
1394.28284,0.17434
1396.21131,0.18262
1398.13978,0.17758
1400.06825,0.16783
1401.99672,0.17121
1403.92518,0.17724
1405.85365,0.17588
1407.78212,0.17592
1409.71059,0.18055
1411.63906,0.17998
1413.56753,0.17373
1415.49600,0.17330
1417.42446,0.18098
1419.35293,0.18516
1421.28140,0.18081
1423.20987,0.17401
1425.13834,0.16751
1427.06681,0.16817
1428.99528,0.17536
1430.92375,0.17754
1432.85221,0.17586
1434.78068,0.18064
1436.70915,0.18319
1438.63762,0.17433
1440.56609,0.17176
1442.49456,0.17713
1444.42303,0.17902
1446.35149,0.17728
1448.27996,0.18026
1450.20843,0.18396
1452.13690,0.18290
1454.06537,0.18606
1455.99384,0.19949
1457.92231,0.20367
1459.85077,0.19395
1461.77924,0.19092
1463.70771,0.18984
1465.63618,0.18514
1467.56465,0.18508
1469.49312,0.19074
1471.42159,0.19397
1473.35006,0.19470
1475.27852,0.19614
1477.20699,0.18860
1479.13546,0.17938
1481.06393,0.18180
1482.99240,0.18806
1484.92087,0.18846
1486.84934,0.19212
1488.77780,0.20262
1490.70627,0.19992
1492.63474,0.18729
1494.56321,0.18333
1496.49168,0.18846
1498.42015,0.19257
1500.34862,0.19556
1502.27709,0.20369
1504.20555,0.21569
1506.13402,0.22702
1508.06249,0.21800
1509.99096,0.19626
1511.91943,0.18380
1513.84790,0.18818
1515.77637,0.20239
1517.70483,0.20727
1519.63330,0.20787
1521.56177,0.21611
1523.49024,0.21078
1525.41871,0.19570
1527.34718,0.18872
1529.27565,0.18912
1531.20412,0.19203
1533.13258,0.19730
1535.06105,0.20070
1536.98952,0.20472
1538.91799,0.22290
1540.84646,0.24432
1542.77493,0.22546
1544.70340,0.20129
1546.63186,0.19428
1548.56033,0.19616
1550.48880,0.19559
1552.41727,0.19816
1554.34574,0.21385
1556.27421,0.23334
1558.20268,0.23795
1560.13115,0.21824
1562.05961,0.20524
1563.98808,0.19624
1565.91655,0.19144
1567.84502,0.19828
1569.77349,0.20639
1571.70196,0.20349
1573.63043,0.20223
1575.55889,0.20636
1577.48736,0.20570
1579.41583,0.20209
1581.34430,0.19849
1583.27277,0.18967
1585.20124,0.18131
1587.12971,0.18214
1589.05818,0.18487
1590.98664,0.18416
1592.91511,0.18831
1594.84358,0.19484
1596.77205,0.19093
1598.70052,0.18205
1600.62899,0.18134
1602.55746,0.18626
1604.48592,0.18910
1606.41439,0.19179
1608.34286,0.19458
1610.27133,0.19246
1612.19980,0.18936
1614.12827,0.19201
1616.05674,0.19771
1617.98521,0.19974
1619.91367,0.20140
1621.84214,0.20313
1623.77061,0.20011
1625.69908,0.19739
1627.62755,0.19734
1629.55602,0.19200
1631.48449,0.18739
1633.41295,0.19705
1635.34142,0.21719
1637.26989,0.21529
1639.19836,0.20379
1641.12683,0.20188
1643.05530,0.20420
1644.98377,0.20772
1646.91223,0.21396
1648.84070,0.21604
1650.76917,0.21658
1652.69764,0.22258
1654.62611,0.21486
1656.55458,0.20011
1658.48305,0.19622
1660.41152,0.20052
1662.33998,0.20144
1664.26845,0.19698
1666.19692,0.20113
1668.12539,0.21277
1670.05386,0.21270
1671.98233,0.20359
1673.91080,0.20445
1675.83926,0.20380
1677.76773,0.19754
1679.69620,0.20156
1681.62467,0.21849
1683.55314,0.23153
1685.48161,0.21906
1687.41008,0.20572
1689.33855,0.19952
1691.26701,0.19703
1693.19548,0.20092
1695.12395,0.20867
1697.05242,0.21409
1698.98089,0.22242
1700.90936,0.22552
1702.83783,0.21372
1704.76629,0.20605
1706.69476,0.20644
1708.62323,0.20205
1710.55170,0.19316
1712.48017,0.19363
1714.40864,0.20880
1716.33711,0.22031
1718.26558,0.20630
1720.19404,0.19457
1722.12251,0.19401
1724.05098,0.19281
1725.97945,0.19046
1727.90792,0.19258
1729.83639,0.19877
1731.76486,0.20690
1733.69332,0.21072
1735.62179,0.20086
1737.55026,0.19484
1739.47873,0.20022
1741.40720,0.20252
1743.33567,0.19391
1745.26414,0.19111
1747.19261,0.19909
1749.12107,0.20092
1751.04954,0.19352
1752.97801,0.19260
1754.90648,0.19588
1756.83495,0.19396
1758.76342,0.18875
1760.69189,0.18951
1762.62035,0.19199
1764.54882,0.19013
1766.47729,0.18969
1768.40576,0.19260
1770.33423,0.19844
1772.26270,0.20530
1774.19117,0.20270
1776.11964,0.19467
1778.04810,0.19284
1779.97657,0.19668
1781.90504,0.19470
1783.83351,0.18779
1785.76198,0.18816
1787.69045,0.19404
1789.61892,0.19678
1791.54738,0.19812
1793.47585,0.20034
1795.40432,0.19697
1797.33279,0.19074
1799.26126,0.18977
1801.18973,0.19254
1803.11820,0.19166
1805.04666,0.18970
1806.97513,0.18973
1808.90360,0.19002
1810.83207,0.19209
1812.76054,0.19515
1814.68901,0.19360
1816.61748,0.18918
1818.54595,0.18800
1820.47441,0.18902
1822.40288,0.18754
1824.33135,0.18675
1826.25982,0.19237
1828.18829,0.19771
1830.11676,0.19416
1832.04523,0.18910
1833.97369,0.19016
1835.90216,0.19105
1837.83063,0.18900
1839.75910,0.19015
1841.68757,0.19541
1843.61604,0.19931
1845.54451,0.19818
1847.47298,0.19381
1849.40144,0.18957
1851.32991,0.18962
1853.25838,0.19180
1855.18685,0.19007
1857.11532,0.18894
1859.04379,0.19351
1860.97226,0.19535
1862.90072,0.19078
1864.82919,0.19099
1866.75766,0.19851
1868.68613,0.19973
1870.61460,0.19188
1872.54307,0.18832
1874.47154,0.18901
1876.40001,0.18750
1878.32847,0.18582
1880.25694,0.18787
1882.18541,0.19081
1884.11388,0.19254
1886.04235,0.19323
1887.97082,0.19275
1889.89929,0.19276
1891.82775,0.19478
1893.75622,0.19509
1895.68469,0.19198
1897.61316,0.19162
1899.54163,0.19524
1901.47010,0.19589
1903.39857,0.19287
1905.32704,0.19354
1907.25550,0.19747
1909.18397,0.19616
1911.11244,0.19184
1913.04091,0.19234
1914.96938,0.19456
1916.89785,0.19372
1918.82632,0.19210
1920.75478,0.19267
1922.68325,0.19391
1924.61172,0.19391
1926.54019,0.19317
1928.46866,0.19233
1930.39713,0.19317
1932.32560,0.19631
1934.25407,0.19609
1936.18253,0.19117
1938.11100,0.19008
1940.03947,0.19325
1941.96794,0.19232
1943.89641,0.19020
1945.82488,0.19237
1947.75335,0.19249
1949.68181,0.18912
1951.61028,0.18846
1953.53875,0.19073
1955.46722,0.19137
1957.39569,0.19087
1959.32416,0.19160
1961.25263,0.19184
1963.18110,0.19167
1965.10956,0.19306
1967.03803,0.19361
1968.96650,0.19289
1970.89497,0.19554
1972.82344,0.19889
1974.75191,0.19593
1976.68038,0.19237
1978.60884,0.19572
1980.53731,0.19753
1982.46578,0.19219
1984.39425,0.18957
1986.32272,0.19327
1988.25119,0.19483
1990.17966,0.19232
1992.10812,0.19129
1994.03659,0.19215
1995.96506,0.19304
1997.89353,0.19522
1999.82200,0.19679
2001.75047,0.19457
2003.67894,0.19207
2005.60741,0.19161
2007.53587,0.19062
2009.46434,0.19098
2011.39281,0.19404
2013.32128,0.19334
2015.24975,0.18855
2017.17822,0.18946
2019.10669,0.19523
2021.03515,0.19529
2022.96362,0.19162
2024.89209,0.19223
2026.82056,0.19434
2028.74903,0.19411
2030.67750,0.19470
2032.60597,0.19570
2034.53444,0.19407
2036.46290,0.19194
2038.39137,0.19188
2040.31984,0.19281
2042.24831,0.19460
2044.17678,0.19727
2046.10525,0.19625
2048.03372,0.19115
2049.96218,0.19060
2051.89065,0.19502
2053.81912,0.19460
2055.74759,0.19088
2057.67606,0.19270
2059.60453,0.19711
2061.53300,0.19685
2063.46147,0.19417
2065.38993,0.19375
2067.31840,0.19377
2069.24687,0.19277
2071.17534,0.19275
2073.10381,0.19334
2075.03228,0.19396
2076.96075,0.19583
2078.88921,0.19733
2080.81768,0.19625
2082.74615,0.19535
2084.67462,0.19668
2086.60309,0.19660
2088.53156,0.19482
2090.46003,0.19647
2092.38850,0.19969
2094.31696,0.19746
2096.24543,0.19326
2098.17390,0.19477
2100.10237,0.19726
2102.03084,0.19492
2103.95931,0.19377
2105.88778,0.19635
2107.81624,0.19648
2109.74471,0.19468
2111.67318,0.19506
2113.60165,0.19559
2115.53012,0.19541
2117.45859,0.19644
2119.38706,0.19707
2121.31553,0.19735
2123.24399,0.20065
2125.17246,0.20270
2127.10093,0.19809
2129.02940,0.19409
2130.95787,0.19654
2132.88634,0.19794
2134.81481,0.19467
2136.74327,0.19571
2138.67174,0.20033
2140.60021,0.19668
2142.52868,0.19011
2144.45715,0.19212
2146.38562,0.19640
2148.31409,0.19596
2150.24255,0.19400
2152.17102,0.19389
2154.09949,0.19555
2156.02796,0.19680
2157.95643,0.19698
2159.88490,0.19732
2161.81337,0.19903
2163.74184,0.20124
2165.67030,0.20070
2167.59877,0.19808
2169.52724,0.19789
2171.45571,0.19946
2173.38418,0.19718
2175.31265,0.19269
2177.24112,0.19338
2179.16958,0.19685
2181.09805,0.19645
2183.02652,0.19607
2184.95499,0.19950
2186.88346,0.20188
2188.81193,0.20144
2190.74040,0.19935
2192.66887,0.19539
2194.59733,0.19326
2196.52580,0.19555
2198.45427,0.19712
2200.38274,0.19483
2202.31121,0.19466
2204.23968,0.19792
2206.16815,0.19817
2208.09661,0.19688
2210.02508,0.19910
2211.95355,0.20100
2213.88202,0.19829
2215.81049,0.19571
2217.73896,0.19739
2219.66743,0.19840
2221.59590,0.19583
2223.52436,0.19437
2225.45283,0.19555
2227.38130,0.19691
2229.30977,0.19906
2231.23824,0.20124
2233.16671,0.20042
2235.09518,0.19950
2237.02364,0.20091
2238.95211,0.20077
2240.88058,0.19942
2242.80905,0.20115
2244.73752,0.20307
2246.66599,0.19992
2248.59446,0.19667
2250.52293,0.19900
2252.45139,0.20022
2254.37986,0.19648
2256.30833,0.19591
2258.23680,0.19989
2260.16527,0.20027
2262.09374,0.19683
2264.02221,0.19568
2265.95067,0.19713
2267.87914,0.19663
2269.80761,0.19377
2271.73608,0.19281
2273.66455,0.19425
2275.59302,0.19629
2277.52149,0.19735
2279.44996,0.19596
2281.37842,0.19493
2283.30689,0.19594
2285.23536,0.19497
2287.16383,0.19117
2289.09230,0.19062
2291.02077,0.19493
2292.94924,0.19663
2294.87770,0.19388
2296.80617,0.19340
2298.73464,0.19266
2300.66311,0.18661
2302.59158,0.18393
2304.52005,0.18808
2306.44852,0.18880
2308.37699,0.18371
2310.30545,0.18136
2312.23392,0.18218
2314.16239,0.18003
2316.09086,0.17767
2318.01933,0.17501
2319.94780,0.16800
2321.87627,0.16664
2323.80473,0.17329
2325.73320,0.17308
2327.66167,0.17072
2329.59014,0.18328
2331.51861,0.19440
2333.44708,0.17343
2335.37555,0.14796
2337.30401,0.15436
2339.23248,0.16093
2341.16095,0.14444
2343.08942,0.14058
2345.01789,0.15546
2346.94636,0.16452
2348.87483,0.16823
2350.80330,0.16924
2352.73176,0.16610
2354.66023,0.16703
2356.58870,0.17277
2358.51717,0.16406
2360.44564,0.14739
2362.37411,0.14722
2364.30258,0.15765
2366.23104,0.16087
2368.15951,0.16514
2370.08798,0.17756
2372.01645,0.17702
2373.94492,0.16567
2375.87339,0.16827
2377.80186,0.17911
2379.73033,0.18273
2381.65879,0.18399
2383.58726,0.18921
2385.51573,0.19497
2387.44420,0.19840
2389.37267,0.20006
2391.30114,0.19967
2393.22961,0.19875
2395.15807,0.19998
2397.08654,0.20074
2399.01501,0.19796
2400.94348,0.19659
2402.87195,0.19943
2404.80042,0.20036
2406.72889,0.19875
2408.65736,0.20045
2410.58582,0.20293
2412.51429,0.19987
2414.44276,0.19705
2416.37123,0.20156
2418.29970,0.20542
2420.22817,0.20230
2422.15664,0.19868
2424.08510,0.19857
2426.01357,0.19859
2427.94204,0.19762
2429.87051,0.19794
2431.79898,0.19929
2433.72745,0.19989
2435.65592,0.20046
2437.58439,0.20063
2439.51285,0.19927
2441.44132,0.19982
2443.36979,0.20107
2445.29826,0.19748
2447.22673,0.19511
2449.15520,0.19992
2451.08367,0.20383
2453.01213,0.20086
2454.94060,0.19724
2456.86907,0.19921
2458.79754,0.20218
2460.72601,0.20094
2462.65448,0.20012
2464.58295,0.20141
2466.51142,0.20101
2468.43988,0.20051
2470.36835,0.20116
2472.29682,0.20140
2474.22529,0.20268
2476.15376,0.20379
2478.08223,0.20178
2480.01070,0.20060
2481.93916,0.20293
2483.86763,0.20332
2485.79610,0.19850
2487.72457,0.19541
2489.65304,0.19910
2491.58151,0.20087
2493.50998,0.19722
2495.43844,0.19689
2497.36691,0.19917
2499.29538,0.19776
2501.22385,0.19574
2503.15232,0.19697
2505.08079,0.19907
2507.00926,0.20093
2508.93773,0.20262
2510.86619,0.20159
2512.79466,0.19998
2514.72313,0.20228
2516.65160,0.20410
2518.58007,0.20231
2520.50854,0.20241
2522.43701,0.20551
2524.36547,0.20633
2526.29394,0.20341
2528.22241,0.20288
2530.15088,0.20614
2532.07935,0.20552
2534.00782,0.20189
2535.93629,0.20182
2537.86476,0.20306
2539.79322,0.20258
2541.72169,0.20255
2543.65016,0.20302
2545.57863,0.20281
2547.50710,0.20356
2549.43557,0.20465
2551.36404,0.20320
2553.29250,0.20209
2555.22097,0.20558
2557.14944,0.20825
2559.07791,0.20526
2561.00638,0.20304
2562.93485,0.20446
2564.86332,0.20341
2566.79179,0.20013
2568.72025,0.20189
2570.64872,0.20661
2572.57719,0.20643
2574.50566,0.20360
2576.43413,0.20363
2578.36260,0.20500
2580.29107,0.20549
2582.21953,0.20587
2584.14800,0.20695
2586.07647,0.20813
2588.00494,0.20826
2589.93341,0.20514
2591.86188,0.19949
2593.79035,0.19820
2595.71882,0.20156
2597.64728,0.20148
2599.57575,0.19892
2601.50422,0.20095
2603.43269,0.20381
2605.36116,0.20184
2607.28963,0.20102
2609.21810,0.20457
2611.14656,0.20557
2613.07503,0.20172
2615.00350,0.19934
2616.93197,0.20196
2618.86044,0.20567
2620.78891,0.20652
2622.71738,0.20379
2624.64585,0.20157
2626.57431,0.20474
2628.50278,0.20800
2630.43125,0.20534
2632.35972,0.20369
2634.28819,0.20859
2636.21666,0.21201
2638.14513,0.20946
2640.07359,0.20853
2642.00206,0.21133
2643.93053,0.20993
2645.85900,0.20385
2647.78747,0.20161
2649.71594,0.20338
2651.64441,0.20392
2653.57288,0.20446
2655.50134,0.20602
2657.42981,0.20678
2659.35828,0.20782
2661.28675,0.20992
2663.21522,0.20984
2665.14369,0.20714
2667.07216,0.20712
2669.00062,0.20873
2670.92909,0.20673
2672.85756,0.20538
2674.78603,0.20866
2676.71450,0.21092
2678.64297,0.20973
2680.57144,0.21047
2682.49990,0.21228
2684.42837,0.20786
2686.35684,0.20213
2688.28531,0.20514
2690.21378,0.21088
2692.14225,0.21141
2694.07072,0.21151
2695.99919,0.21231
2697.92765,0.21002
2699.85612,0.20764
2701.78459,0.20737
2703.71306,0.20787
2705.64153,0.21037
2707.57000,0.21421
2709.49847,0.21440
2711.42693,0.21081
2713.35540,0.21008
2715.28387,0.21219
2717.21234,0.21009
2719.14081,0.20576
2721.06928,0.20706
2722.99775,0.21055
2724.92622,0.20942
2726.85468,0.20882
2728.78315,0.21269
2730.71162,0.21491
2732.64009,0.21442
2734.56856,0.21606
2736.49703,0.21799
2738.42550,0.21756
2740.35396,0.21699
2742.28243,0.21510
2744.21090,0.21145
2746.13937,0.21284
2748.06784,0.21771
2749.99631,0.21533
2751.92478,0.21082
2753.85325,0.21634
2755.78171,0.22252
2757.71018,0.21811
2759.63865,0.21374
2761.56712,0.21750
2763.49559,0.21980
2765.42406,0.21627
2767.35253,0.21372
2769.28099,0.21403
2771.20946,0.21501
2773.13793,0.21711
2775.06640,0.21906
2776.99487,0.22024
2778.92334,0.22312
2780.85181,0.22443
2782.78028,0.22007
2784.70874,0.21671
2786.63721,0.21928
2788.56568,0.22092
2790.49415,0.21761
2792.42262,0.21713
2794.35109,0.22358
2796.27956,0.22645
2798.20802,0.22044
2800.13649,0.21644
2802.06496,0.21816
2803.99343,0.21780
2805.92190,0.21641
2807.85037,0.21886
2809.77884,0.22163
2811.70731,0.22207
2813.63577,0.22118
2815.56424,0.21867
2817.49271,0.21730
2819.42118,0.22007
2821.34965,0.22264
2823.27812,0.22052
2825.20659,0.21866
2827.13505,0.22160
2829.06352,0.22207
2830.99199,0.21836
2832.92046,0.21974
2834.84893,0.22312
2836.77740,0.21988
2838.70587,0.21564
2840.63433,0.21836
2842.56280,0.22294
2844.49127,0.22274
2846.41974,0.22214
2848.34821,0.22403
2850.27668,0.22394
2852.20515,0.22104
2854.13362,0.21832
2856.06208,0.21732
2857.99055,0.21943
2859.91902,0.22318
2861.84749,0.22164
2863.77596,0.21485
2865.70443,0.21478
2867.63290,0.22241
2869.56136,0.22463
2871.48983,0.22099
2873.41830,0.22091
2875.34677,0.22289
2877.27524,0.22038
2879.20371,0.21615
2881.13218,0.21583
2883.06065,0.21656
2884.98911,0.21654
2886.91758,0.21840
2888.84605,0.21999
2890.77452,0.21887
2892.70299,0.21669
2894.63146,0.21392
2896.55993,0.21291
2898.48839,0.21732
2900.41686,0.22189
2902.34533,0.21938
2904.27380,0.21308
2906.20227,0.21165
2908.13074,0.21277
2910.05921,0.20967
2911.98768,0.21099
2913.91614,0.21934
2915.84461,0.21987
2917.77308,0.21317
2919.70155,0.21346
2921.63002,0.21881
2923.55849,0.21801
2925.48696,0.21029
2927.41542,0.20497
2929.34389,0.21080
2931.27236,0.22382
2933.20083,0.22872
2935.12930,0.21878
2937.05777,0.20731
2938.98624,0.21032
2940.91471,0.21895
2942.84317,0.21730
2944.77164,0.21178
2946.70011,0.21004
2948.62858,0.20996
2950.55705,0.21193
2952.48552,0.21727
2954.41399,0.22069
2956.34245,0.21309
2958.27092,0.20472
2960.19939,0.21047
2962.12786,0.21946
2964.05633,0.22081
2965.98480,0.21628
2967.91327,0.20903
2969.84174,0.20688
2971.77020,0.21217
2973.69867,0.21821
2975.62714,0.21723
2977.55561,0.21092
2979.48408,0.21181
2981.41255,0.21800
2983.34102,0.22069
2985.26948,0.22411
2987.19795,0.22485
2989.12642,0.21730
2991.05489,0.21518
2992.98336,0.22679
2994.91183,0.23547
2996.84030,0.22987
2998.76877,0.22359
3000.69723,0.22589
3002.62570,0.22779
3004.55417,0.22519
3006.48264,0.22194
3008.41111,0.21652
3010.33958,0.20538
3012.26805,0.18690
3014.19651,0.15774
3016.12498,0.13103
3018.05345,0.14207
3019.98192,0.18696
3021.91039,0.21789
3023.83886,0.22369
3025.76733,0.22467
3027.69579,0.22369
3029.62426,0.21944
3031.55273,0.22201
3033.48120,0.23045
3035.40967,0.22840
3037.33814,0.21773
3039.26661,0.21642
3041.19508,0.22400
3043.12354,0.22778
3045.05201,0.22563
3046.98048,0.22110
3048.90895,0.21805
3050.83742,0.21993
3052.76589,0.22418
3054.69436,0.22204
3056.62282,0.21380
3058.55129,0.21571
3060.47976,0.22671
3062.40823,0.22880
3064.33670,0.22151
3066.26517,0.21423
3068.19364,0.21250
3070.12211,0.21669
3072.05057,0.22135
3073.97904,0.21880
3075.90751,0.21042
3077.83598,0.20991
3079.76445,0.21965
3081.69292,0.22530
3083.62139,0.21581
3085.54985,0.20400
3087.47832,0.20853
3089.40679,0.22020
3091.33526,0.22367
3093.26373,0.21403
3095.19220,0.20146
3097.12067,0.20683
3099.04914,0.22276
3100.97760,0.22354
3102.90607,0.20945
3104.83454,0.20724
3106.76301,0.22060
3108.69148,0.22455
3110.61995,0.21528
3112.54842,0.21020
3114.47688,0.21649
3116.40535,0.22477
3118.33382,0.22658
3120.26229,0.22220
3122.19076,0.21582
3124.11923,0.21600
3126.04770,0.22183
3127.97617,0.22339
3129.90463,0.22131
3131.83310,0.22335
3133.76157,0.22684
3135.69004,0.22597
3137.61851,0.22509
3139.54698,0.22527
3141.47545,0.22154
3143.40391,0.21936
3145.33238,0.22694
3147.26085,0.23461
3149.18932,0.23066
3151.11779,0.22524
3153.04626,0.22863
3154.97473,0.23089
3156.90320,0.22936
3158.83166,0.23388
3160.76013,0.23801
3162.68860,0.23439
3164.61707,0.23110
3166.54554,0.23195
3168.47401,0.23419
3170.40248,0.23850
3172.33094,0.24246
3174.25941,0.23837
3176.18788,0.23060
3178.11635,0.23059
3180.04482,0.23285
3181.97329,0.22982
3183.90176,0.22940
3185.83022,0.23207
3187.75869,0.22855
3189.68716,0.22335
3191.61563,0.22820
3193.54410,0.23982
3195.47257,0.24274
3197.40104,0.23624
3199.32951,0.23076
3201.25797,0.22565
3203.18644,0.22227
3205.11491,0.22427
3207.04338,0.22560
3208.97185,0.22604
3210.90032,0.23175
3212.82879,0.23726
3214.75725,0.23515
3216.68572,0.23414
3218.61419,0.24030
3220.54266,0.24033
3222.47113,0.23277
3224.39960,0.23499
3226.32807,0.24405
3228.25654,0.24213
3230.18500,0.23249
3232.11347,0.22833
3234.04194,0.22929
3235.97041,0.23082
3237.89888,0.23378
3239.82735,0.23642
3241.75582,0.23481
3243.68428,0.23272
3245.61275,0.23224
3247.54122,0.22865
3249.46969,0.22589
3251.39816,0.22706
3253.32663,0.22400
3255.25510,0.21975
3257.18357,0.22471
3259.11203,0.22970
3261.04050,0.22456
3262.96897,0.22097
3264.89744,0.22673
3266.82591,0.23009
3268.75438,0.22529
3270.68285,0.22146
3272.61131,0.22211
3274.53978,0.22446
3276.46825,0.22820
3278.39672,0.23089
3280.32519,0.23031
3282.25366,0.22875
3284.18213,0.22823
3286.11060,0.22662
3288.03906,0.22434
3289.96753,0.22645
3291.89600,0.22975
3293.82447,0.22622
3295.75294,0.22209
3297.68141,0.22611
3299.60988,0.22864
3301.53834,0.22282
3303.46681,0.22129
3305.39528,0.22824
3307.32375,0.23086
3309.25222,0.22754
3311.18069,0.22795
3313.10916,0.22976
3315.03763,0.22764
3316.96609,0.22614
3318.89456,0.22667
3320.82303,0.22653
3322.75150,0.22834
3324.67997,0.23120
3326.60844,0.22918
3328.53691,0.22689
3330.46537,0.23156
3332.39384,0.23501
3334.32231,0.23055
3336.25078,0.22840
3338.17925,0.23434
3340.10772,0.23742
3342.03619,0.23255
3343.96466,0.22945
3345.89312,0.22963
3347.82159,0.22538
3349.75006,0.22239
3351.67853,0.22780
3353.60700,0.23168
3355.53547,0.22789
3357.46394,0.22546
3359.39240,0.22933
3361.32087,0.23537
3363.24934,0.23913
3365.17781,0.23631
3367.10628,0.22900
3369.03475,0.22814
3370.96322,0.23397
3372.89168,0.23295
3374.82015,0.22561
3376.74862,0.22687
3378.67709,0.23353
3380.60556,0.23281
3382.53403,0.23106
3384.46250,0.23531
3386.39097,0.23679
3388.31943,0.23378
3390.24790,0.23670
3392.17637,0.24279
3394.10484,0.24072
3396.03331,0.23419
3397.96178,0.22842
3399.89025,0.22303
3401.81871,0.22378
3403.74718,0.22939
3405.67565,0.22912
3407.60412,0.22554
3409.53259,0.22797
3411.46106,0.22950
3413.38953,0.22241
3415.31800,0.21806
3417.24646,0.22560
3419.17493,0.23225
3421.10340,0.22853
3423.03187,0.22494
3424.96034,0.22471
3426.88881,0.21975
3428.81728,0.21266
3430.74574,0.21116
3432.67421,0.21166
3434.60268,0.21101
3436.53115,0.21447
3438.45962,0.22016
3440.38809,0.22286
3442.31656,0.22536
3444.24503,0.22614
3446.17349,0.22034
3448.10196,0.21594
3450.03043,0.21891
3451.95890,0.21843
3453.88737,0.20967
3455.81584,0.20530
3457.74431,0.20863
3459.67277,0.20647
3461.60124,0.20068
3463.52971,0.20415
3465.45818,0.21041
3467.38665,0.20703
3469.31512,0.20185
3471.24359,0.20507
3473.17206,0.21027
3475.10052,0.21266
3477.02899,0.21378
3478.95746,0.21183
3480.88593,0.20756
3482.81440,0.20611
3484.74287,0.20563
3486.67134,0.20398
3488.59980,0.20850
3490.52827,0.21475
3492.45674,0.20706
3494.38521,0.19296
3496.31368,0.19545
3498.24215,0.20881
3500.17062,0.20990
3502.09909,0.20104
3504.02755,0.19831
3505.95602,0.20164
3507.88449,0.20255
3509.81296,0.20123
3511.74143,0.19933
3513.66990,0.19461
3515.59837,0.19053
3517.52683,0.18990
3519.45530,0.18883
3521.38377,0.18896
3523.31224,0.19279
3525.24071,0.19494
3527.16918,0.19459
3529.09765,0.19556
3531.02611,0.19268
3532.95458,0.18182
3534.88305,0.17456
3536.81152,0.17843
3538.73999,0.18193
3540.66846,0.17861
3542.59693,0.17649
3544.52540,0.18183
3546.45386,0.18812
3548.38233,0.18846
3550.31080,0.18784
3552.23927,0.18697
3554.16774,0.18416
3556.09621,0.18238
3558.02468,0.17972
3559.95314,0.17526
3561.88161,0.17502
3563.81008,0.17836
3565.73855,0.17923
3567.66702,0.17864
3569.59549,0.17908
3571.52396,0.17595
3573.45243,0.16793
3575.38089,0.16381
3577.30936,0.16802
3579.23783,0.17132
3581.16630,0.17084
3583.09477,0.17213
3585.02324,0.17578
3586.95171,0.17573
3588.88017,0.16876
3590.80864,0.16383
3592.73711,0.16306
3594.66558,0.16486
3596.59405,0.16713
3598.52252,0.16385
3600.45099,0.15975
3602.37946,0.16253
3604.30792,0.16386
3606.23639,0.16126
3608.16486,0.16539
3610.09333,0.17385
3612.02180,0.17307
3613.95027,0.16662
3615.87874,0.16854
3617.80720,0.17523
3619.73567,0.17156
3621.66414,0.16228
3623.59261,0.15763
3625.52108,0.15438
3627.44955,0.15105
3629.37802,0.15168
3631.30649,0.15328
3633.23495,0.15276
3635.16342,0.15477
3637.09189,0.15866
3639.02036,0.15979
3640.94883,0.15939
3642.87730,0.15972
3644.80577,0.15925
3646.73423,0.16281
3648.66270,0.17695
3650.59117,0.17434
3652.51964,0.15478
3654.44811,0.14737
3656.37658,0.15251
3658.30505,0.15305
3660.23352,0.14717
3662.16198,0.14468
3664.09045,0.14390
3666.01892,0.14209
3667.94739,0.14306
3669.87586,0.14701
3671.80433,0.14984
3673.73280,0.15498
3675.66126,0.15741
3677.58973,0.14734
3679.51820,0.14182
3681.44667,0.14525
3683.37514,0.14741
3685.30361,0.14508
3687.23208,0.14805
3689.16055,0.16000
3691.08901,0.15669
3693.01748,0.13957
3694.94595,0.13162
3696.87442,0.13307
3698.80289,0.13368
3700.73136,0.13365
3702.65983,0.13754
3704.58829,0.14121
3706.51676,0.14410
3708.44523,0.14828
3710.37370,0.14929
3712.30217,0.14422
3714.23064,0.14261
3716.15911,0.14163
3718.08757,0.13505
3720.01604,0.13271
3721.94451,0.14260
3723.87298,0.14519
3725.80145,0.13345
3727.72992,0.13270
3729.65839,0.14631
3731.58686,0.15525
3733.51532,0.15086
3735.44379,0.14669
3737.37226,0.14819
3739.30073,0.14507
3741.22920,0.14278
3743.15767,0.14994
3745.08614,0.16256
3747.01460,0.16736
3748.94307,0.16698
3750.87154,0.15911
3752.80001,0.15126
3754.72848,0.15235
3756.65695,0.15369
3758.58542,0.14939
3760.51389,0.14437
3762.44235,0.14396
3764.37082,0.14076
3766.29929,0.13533
3768.22776,0.13844
3770.15623,0.14417
3772.08470,0.14091
3774.01317,0.13452
3775.94163,0.13357
3777.87010,0.13882
3779.79857,0.14305
3781.72704,0.14234
3783.65551,0.13928
3785.58398,0.13521
3787.51245,0.13302
3789.44092,0.13103
3791.36938,0.12813
3793.29785,0.12913
3795.22632,0.13268
3797.15479,0.13282
3799.08326,0.13501
3801.01173,0.14704
3802.94020,0.15391
3804.86866,0.14928
3806.79713,0.14739
3808.72560,0.14480
3810.65407,0.13432
3812.58254,0.12441
3814.51101,0.12566
3816.43948,0.13712
3818.36795,0.14523
3820.29641,0.14830
3822.22488,0.14448
3824.15335,0.13687
3826.08182,0.13222
3828.01029,0.13276
3829.93876,0.13683
3831.86723,0.13973
3833.79569,0.14177
3835.72416,0.14082
3837.65263,0.13150
3839.58110,0.12862
3841.50957,0.13715
3843.43804,0.13620
3845.36651,0.12809
3847.29498,0.12840
3849.22344,0.13610
3851.15191,0.14248
3853.08038,0.14280
3855.00885,0.13939
3856.93732,0.13667
3858.86579,0.13355
3860.79426,0.13010
3862.72272,0.12942
3864.65119,0.13232
3866.57966,0.13704
3868.50813,0.14172
3870.43660,0.13775
3872.36507,0.13243
3874.29354,0.13674
3876.22200,0.13549
3878.15047,0.12683
3880.07894,0.12689
3882.00741,0.13382
3883.93588,0.12932
3885.86435,0.11874
3887.79282,0.11872
3889.72129,0.12682
3891.64975,0.13028
3893.57822,0.12469
3895.50669,0.12124
3897.43516,0.12461
3899.36363,0.13255
3901.29210,0.13975
3903.22057,0.14190
3905.14903,0.13883
3907.07750,0.13463
3909.00597,0.12847
3910.93444,0.12025
3912.86291,0.11953
3914.79138,0.12484
3916.71985,0.12081
3918.64832,0.11282
3920.57678,0.11754
3922.50525,0.12459
3924.43372,0.12106
3926.36219,0.11661
3928.29066,0.12050
3930.21913,0.12429
3932.14760,0.12261
3934.07606,0.12126
3936.00453,0.12278
3937.93300,0.12613
3939.86147,0.12932
3941.78994,0.12769
3943.71841,0.11998
3945.64688,0.11488
3947.57535,0.11703
3949.50381,0.11760
3951.43228,0.11386
3953.36075,0.11470
3955.28922,0.11671
3957.21769,0.11286
3959.14616,0.11004
3961.07463,0.11477
3963.00309,0.12026
3964.93156,0.11884
3966.86003,0.11426
3968.78850,0.11075
3970.71697,0.10740
3972.64544,0.10672
3974.57391,0.10999
3976.50238,0.11225
3978.43084,0.11228
3980.35931,0.11358
3982.28778,0.11347
3984.21625,0.10999
3986.14472,0.10887
3988.07319,0.10818
3990.00166,0.10284
3991.93012,0.10088
3993.85859,0.10753
3995.78706,0.11102
3997.71553,0.10570
3999.64400,0.10362
4001.57247,0.10813
4003.50094,0.10820
4005.42941,0.10362
4007.35787,0.10396
4009.28634,0.10735
4011.21481,0.10549
4013.14328,0.10106
4015.07175,0.10047
4017.00022,0.10407
4018.92869,0.10951
4020.85715,0.10921
4022.78562,0.10087
4024.71409,0.09686
4026.64256,0.10176
4028.57103,0.10490
4030.49950,0.10182
4032.42797,0.10109
4034.35644,0.10526
4036.28490,0.10282
4038.21337,0.09534
4040.14184,0.09569
4042.07031,0.09745
4043.99878,0.09231
4045.92725,0.09214
4047.85572,0.10038
4049.78418,0.10200
4051.71265,0.09739
4053.64112,0.09759
4055.56959,0.09938
4057.49806,0.09869
4059.42653,0.09938
4061.35500,0.09826
4063.28346,0.09260
4065.21193,0.09254
4067.14040,0.09910
4069.06887,0.09883
4070.99734,0.09273
4072.92581,0.09405
4074.85428,0.09976
4076.78275,0.09989
4078.71121,0.09998
4080.63968,0.10401
4082.56815,0.10370
4084.49662,0.09797
4086.42509,0.09476
4088.35356,0.09466
4090.28203,0.09187
4092.21049,0.08731
4094.13896,0.08439
4096.06743,0.08324
4097.99590,0.08575
4099.92437,0.08898
4101.85284,0.08576
4103.78131,0.08071
4105.70978,0.08436
4107.63824,0.09284
4109.56671,0.09486
4111.49518,0.09457
4113.42365,0.09890
4115.35212,0.09800
4117.28059,0.09091
4119.20906,0.09120
4121.13752,0.09545
4123.06599,0.09276
4124.99446,0.08955
4126.92293,0.09332
4128.85140,0.09667
4130.77987,0.09322
4132.70834,0.08790
4134.63681,0.08603
4136.56527,0.08669
4138.49374,0.08743
4140.42221,0.08702
4142.35068,0.08280
4144.27915,0.07760
4146.20762,0.07893
4148.13609,0.08157
4150.06455,0.07994
4151.99302,0.08311
4153.92149,0.08957
4155.84996,0.08505
4157.77843,0.07495
4159.70690,0.07501
4161.63537,0.07958
4163.56384,0.07684
4165.49230,0.07278
4167.42077,0.07572
4169.34924,0.07940
4171.27771,0.07833
4173.20618,0.07881
4175.13465,0.08321
4177.06312,0.08539
4178.99158,0.08198
4180.92005,0.07548
4182.84852,0.06907
4184.77699,0.06698
4186.70546,0.06922
4188.63393,0.06948
4190.56240,0.06997
4192.49087,0.07375
4194.41933,0.07486
4196.34780,0.07468
4198.27627,0.07819
4200.20474,0.08165
4202.13321,0.08048
4204.06168,0.07602
4205.99015,0.07262
4207.91861,0.07159
4209.84708,0.07129
4211.77555,0.07169
4213.70402,0.06926
4215.63249,0.06379
4217.56096,0.06554
4219.48943,0.07209
4221.41789,0.07085
4223.34636,0.06774
4225.27483,0.07231
4227.20330,0.07367
4229.13177,0.06553
4231.06024,0.06439
4232.98871,0.07498
4234.91718,0.07586
4236.84564,0.06514
4238.77411,0.06303
4240.70258,0.06620
4242.63105,0.06149
4244.55952,0.05596
4246.48799,0.05817
4248.41646,0.06314
4250.34492,0.06708
4252.27339,0.06902
4254.20186,0.06577
4256.13033,0.06354
4258.05880,0.06692
4259.98727,0.06635
4261.91574,0.06014
4263.84421,0.05883
4265.77267,0.06186
4267.70114,0.05941
4269.62961,0.05412
4271.55808,0.05782
4273.48655,0.06737
4275.41502,0.06654
4277.34349,0.05764
4279.27195,0.05766
4281.20042,0.06330
4283.12889,0.06067
4285.05736,0.05323
4286.98583,0.05025
4288.91430,0.05201
4290.84277,0.05481
4292.77124,0.05397
4294.69970,0.04868
4296.62817,0.04572
4298.55664,0.04699
4300.48511,0.04399
4302.41358,0.03951
4304.34205,0.04507
4306.27052,0.05096
4308.19898,0.04412
4310.12745,0.03894
4312.05592,0.04694
4313.98439,0.05151
4315.91286,0.04460
4317.84133,0.04349
4319.76980,0.05328
4321.69827,0.05855
4323.62673,0.05520
4325.55520,0.05247
4327.48367,0.05437
4329.41214,0.05695
4331.34061,0.05269
4333.26908,0.04334
4335.19755,0.03980
4337.12601,0.04285
4339.05448,0.04448
4340.98295,0.04100
4342.91142,0.03966
4344.83989,0.04652
4346.76836,0.04579
4348.69683,0.02765
4350.62530,0.01862
4352.55376,0.03063
4354.48223,0.03328
4356.41070,0.02413
4358.33917,0.03329
4360.26764,0.04961
4362.19611,0.04784
4364.12458,0.03856
4366.05304,0.03344
4367.98151,0.03093
4369.90998,0.03075
4371.83845,0.02399
4373.76692,0.00934
4375.69539,0.00562
4377.62386,0.01969
4379.55232,0.03222
4381.48079,0.02974
4383.40926,0.02439
4385.33773,0.02590
4387.26620,0.02446
4389.19467,0.01960
4391.12314,0.02466
4393.05161,0.03381
4394.98007,0.02988
4396.90854,0.02042
4398.83701,0.02230
4400.76548,0.02935
4402.69395,0.02949
4404.62242,0.02615
4406.55089,0.02514
4408.47935,0.02702
4410.40782,0.03084
4412.33629,0.03133
4414.26476,0.02751
4416.19323,0.02976
4418.12170,0.03713
4420.05017,0.03214
4421.97864,0.01707
4423.90710,0.01256
4425.83557,0.01648
4427.76404,0.01121
4429.69251,0.00284
4431.62098,0.00868
4433.54945,0.01933
4435.47792,0.01764
4437.40638,0.01011
4439.33485,0.00718
4441.26332,0.00840
4443.19179,0.01095
4445.12026,0.01209
4447.04873,0.01303
4448.97720,0.01606
4450.90567,0.01728
4452.83413,0.01105
4454.76260,0.00250
4456.69107,0.00365
4458.61954,0.00804
4460.54801,0.00329
4462.47648,0.00144
4464.40495,0.01114
4466.33341,0.01666
4468.26188,0.00905
4470.19035,0.00358
4472.11882,0.00952
4474.04729,0.01313
4475.97576,0.01218
4477.90423,0.01567
4479.83270,0.01514
4481.76116,0.00827
4483.68963,0.00722
4485.61810,0.00822
4487.54657,0.00546
4489.47504,0.00792
4491.40351,0.01399
4493.33198,0.01308
4495.26044,0.01089
4497.18891,0.01646
4499.11738,0.01517
4501.04585,0.00123
4502.97432,-0.00137
4504.90279,0.00690
4506.83126,0.00646
4508.75973,0.00177
4510.68819,0.00280
4512.61666,0.00607
4514.54513,0.00431
4516.47360,-0.00065
4518.40207,-0.00185
4520.33054,0.00284
4522.25901,0.00696
4524.18747,0.00107
4526.11594,-0.00921
4528.04441,-0.01222
4529.97288,-0.00958
4531.90135,-0.00739
4533.82982,-0.00638
4535.75829,-0.00398
4537.68676,0.00212
4539.61522,0.00544
4541.54369,0.00273
4543.47216,0.00675
4545.40063,0.01757
4547.32910,0.01776
4549.25757,0.01013
4551.18604,0.01067
4553.11450,0.01617
4555.04297,0.01376
4556.97144,0.00531
4558.89991,0.00180
4560.82838,0.00647
4562.75685,0.00941
4564.68532,0.00376
4566.61378,-0.00260
4568.54225,-0.00275
4570.47072,0.00166
4572.39919,0.00275
4574.32766,-0.00235
4576.25613,-0.00390
4578.18460,-0.00207
4580.11307,-0.00362
4582.04153,-0.00069
4583.97000,0.01352
4585.89847,0.02322
4587.82694,0.01412
4589.75541,0.00166
4591.68388,0.00384
4593.61235,0.01158
4595.54081,0.01073
4597.46928,0.00949
4599.39775,0.01665
4601.32622,0.02009
4603.25469,0.01013
4605.18316,0.00101
4607.11163,0.00500
4609.04010,0.00765
4610.96856,0.00012
4612.89703,-0.00165
4614.82550,0.00195
4616.75397,-0.00445
4618.68244,-0.01093
4620.61091,-0.00892
4622.53938,-0.00601
4624.46784,0.00123
4626.39631,0.01019
4628.32478,0.01175
4630.25325,0.00999
4632.18172,0.01235
4634.11019,0.01586
4636.03866,0.00596
4637.96713,-0.01137
4639.89559,-0.01052
4641.82406,0.00199
4643.75253,0.00252
4645.68100,-0.00357
4647.60947,-0.00242
4649.53794,0.00096
4651.46641,0.00021
4653.39487,0.00317
4655.32334,0.01118
4657.25181,0.01322
4659.18028,0.00609
4661.10875,-0.00157
4663.03722,0.00025
4664.96569,0.00669
4666.89416,0.00248
4668.82262,-0.01189
4670.75109,-0.01790
4672.67956,-0.00616
4674.60803,0.00883
4676.53650,0.01020
4678.46497,0.00677
4680.39344,0.01602
4682.32190,0.02268
4684.25037,0.00716
4686.17884,-0.00717
4688.10731,0.00157
4690.03578,0.01073
4691.96425,0.00476
4693.89272,0.00418
4695.82119,0.00914
4697.74965,0.00191
4699.67812,-0.00425
4701.60659,0.00306
4703.53506,0.00848
4705.46353,0.00790
4707.39200,0.00666
4709.32047,-0.00078
4711.24893,-0.00795
4713.17740,0.00151
4715.10587,0.01591
4717.03434,0.01252
4718.96281,0.00587
4720.89128,0.01278
4722.81975,0.01417
4724.74821,0.00269
4726.67668,-0.00443
4728.60515,-0.00106
4730.53362,0.00698
4732.46209,0.01040
4734.39056,0.00181
4736.31903,-0.00935
4738.24750,-0.00981
4740.17596,-0.00248
4742.10443,0.00144
4744.03290,0.00385
4745.96137,0.01609
4747.88984,0.02243
4749.81831,0.00854
4751.74678,-0.00027
4753.67524,0.00499
4755.60371,0.00488
4757.53218,-0.00311
4759.46065,-0.00514
4761.38912,0.00073
4763.31759,0.00229
4765.24606,-0.00178
4767.17453,-0.00301
4769.10299,-0.00165
4771.03146,-0.00256
4772.95993,-0.00652
4774.88840,-0.00850
4776.81687,-0.00198
4778.74534,0.00910
4780.67381,0.00684
4782.60227,-0.01100
4784.53074,-0.01700
4786.45921,-0.00445
4788.38768,0.00314
4790.31615,0.00396
4792.24462,0.01397
4794.17309,0.02337
4796.10156,0.01698
4798.03002,0.00874
4799.95849,0.01246
4801.88696,0.01757
4803.81543,0.01458
4805.74390,0.01431
4807.67237,0.01889
4809.60084,0.01181
4811.52930,-0.00541
4813.45777,-0.01680
4815.38624,-0.01434
4817.31471,0.00037
4819.24318,0.01069
4821.17165,0.00519
4823.10012,0.00613
4825.02859,0.03402
4826.95705,0.05459
4828.88552,0.03984
4830.81399,0.02187
4832.74246,0.01503
4834.67093,0.00287
4836.59940,-0.00618
4838.52787,-0.00021
4840.45633,0.00716
4842.38480,0.00290
4844.31327,-0.00219
4846.24174,-0.00029
4848.17021,0.00161
4850.09868,0.00490
4852.02715,0.00937
4853.95562,0.00808
4855.88408,0.00239
4857.81255,-0.00259
4859.74102,-0.00750
4861.66949,-0.01140
4863.59796,-0.00694
4865.52643,-0.00131
4867.45490,-0.00851
4869.38336,-0.01593
4871.31183,-0.00735
4873.24030,0.00035
4875.16877,-0.00852
4877.09724,-0.01324
4879.02571,-0.00060
4880.95418,0.00557
4882.88265,-0.00402
4884.81111,-0.00860
4886.73958,-0.00716
4888.66805,-0.00528
4890.59652,0.00170
4892.52499,0.00890
4894.45346,0.01308
4896.38193,0.01278
4898.31039,0.00311
4900.23886,-0.00565
4902.16733,0.00120
4904.09580,0.01051
4906.02427,0.00253
4907.95274,-0.00797
4909.88121,-0.00426
4911.80967,-0.00074
4913.73814,-0.00371
4915.66661,0.00419
4917.59508,0.01820
4919.52355,0.01606
4921.45202,0.00572
4923.38049,0.00408
4925.30896,-0.00051
4927.23742,-0.00834
4929.16589,-0.00253
4931.09436,0.00544
4933.02283,0.00261
4934.95130,-0.00038
4936.87977,-0.00531
4938.80824,-0.01586
4940.73670,-0.01462
4942.66517,0.00354
4944.59364,0.01052
4946.52211,-0.00210
4948.45058,-0.00439
4950.37905,0.00694
4952.30752,0.00370
4954.23599,-0.00875
4956.16445,-0.00918
4958.09292,-0.00792
4960.02139,-0.01079
4961.94986,-0.00646
4963.87833,-0.00145
4965.80680,0.00012
4967.73527,0.01256
4969.66373,0.02743
4971.59220,0.02455
4973.52067,0.01662
4975.44914,0.01666
4977.37761,0.00865
4979.30608,-0.00760
4981.23455,-0.01054
4983.16302,0.00085
4985.09148,0.00854
4987.01995,0.00513
4988.94842,-0.00119
4990.87689,-0.00280
4992.80536,-0.00157
4994.73383,-0.00088
4996.66230,-0.00307
4998.59076,-0.00678
5000.51923,-0.00305
5002.44770,0.00257
5004.37617,-0.00454
5006.30464,-0.00945
5008.23311,0.00635
5010.16158,0.01640
5012.09005,-0.00609
5014.01851,-0.02552
5015.94698,-0.00717
5017.87545,0.01952
5019.80392,0.02392
5021.73239,0.02128
5023.66086,0.02507
5025.58933,0.02385
5027.51779,0.01273
5029.44626,0.00404
5031.37473,0.00569
5033.30320,0.00799
5035.23167,0.00152
5037.16014,-0.00779
5039.08861,-0.00113
5041.01708,0.02370
5042.94554,0.03432
5044.87401,0.01645
5046.80248,0.00250
5048.73095,0.01446
5050.65942,0.01987
5052.58789,0.00605
5054.51636,0.00838
5056.44482,0.02673
5058.37329,0.02735
5060.30176,0.00644
5062.23023,-0.00540
5064.15870,-0.00033
5066.08717,0.00252
5068.01564,0.00608
5069.94410,0.01580
5071.87257,0.01839
5073.80104,0.01244
5075.72951,0.00544
5077.65798,-0.00418
5079.58645,-0.00623
5081.51492,0.00768
5083.44339,0.01781
5085.37185,0.01608
5087.30032,0.02106
5089.22879,0.03081
5091.15726,0.01988
5093.08573,-0.00253
5095.01420,-0.00407
5096.94267,0.01326
5098.87113,0.02322
5100.79960,0.01981
5102.72807,0.01283
5104.65654,0.00711
5106.58501,0.00895
5108.51348,0.01507
5110.44195,0.01795
5112.37042,0.02336
5114.29888,0.03093
5116.22735,0.03321
5118.15582,0.02882
5120.08429,0.02035
5122.01276,0.01322
5123.94123,0.00759
5125.86970,0.00428
5127.79816,0.01361
5129.72663,0.02900
5131.65510,0.03077
5133.58357,0.02402
5135.51204,0.02118
5137.44051,0.02098
5139.36898,0.02868
5141.29745,0.04072
5143.22591,0.04404
5145.15438,0.04541
5147.08285,0.04686
5149.01132,0.04101
5150.93979,0.03169
5152.86826,0.02499
5154.79673,0.02339
5156.72519,0.02145
5158.65366,0.02130
5160.58213,0.03430
5162.51060,0.04396
5164.43907,0.03032
5166.36754,0.02229
5168.29601,0.04033
5170.22448,0.04478
5172.15294,0.01355
5174.08141,-0.01264
5176.00988,-0.00998
5177.93835,0.00369
5179.86682,0.01767
5181.79529,0.03016
5183.72376,0.03500
5185.65222,0.04005
5187.58069,0.04850
5189.50916,0.04544
5191.43763,0.03671
5193.36610,0.03607
5195.29457,0.03423
5197.22304,0.02495
5199.15151,0.01987
5201.07997,0.02501
5203.00844,0.02972
5204.93691,0.03351
5206.86538,0.04802
5208.79385,0.05646
5210.72232,0.04461
5212.65079,0.03494
5214.57925,0.04149
5216.50772,0.05114
5218.43619,0.05208
5220.36466,0.04699
5222.29313,0.03934
5224.22160,0.03309
5226.15007,0.04133
5228.07854,0.06277
5230.00700,0.07222
5231.93547,0.06692
5233.86394,0.06928
5235.79241,0.07083
5237.72088,0.05235
5239.64935,0.03942
5241.57782,0.04947
5243.50628,0.05193
5245.43475,0.03767
5247.36322,0.04119
5249.29169,0.05971
5251.22016,0.05541
5253.14863,0.03240
5255.07710,0.01659
5257.00556,0.01149
5258.93403,0.01345
5260.86250,0.02666
5262.79097,0.03984
5264.71944,0.04622
5266.64791,0.05520
5268.57638,0.05156
5270.50485,0.03379
5272.43331,0.03643
5274.36178,0.05537
5276.29025,0.04688
5278.21872,0.02499
5280.14719,0.04149
5282.07566,0.06847
5284.00413,0.06017
5285.93259,0.04773
5287.86106,0.06115
5289.78953,0.07552
5291.71800,0.06625
5293.64647,0.04831
5295.57494,0.04245
5297.50341,0.04331
5299.43188,0.03226
5301.36034,0.01703
5303.28881,0.02392
5305.21728,0.04132
5307.14575,0.04510
5309.07422,0.03679
5311.00269,0.03064
5312.93116,0.04730
5314.85962,0.07285
5316.78809,0.06702
5318.71656,0.04839
5320.64503,0.04851
5322.57350,0.04512
5324.50197,0.03152
5326.43044,0.03798
5328.35891,0.05166
5330.28737,0.04098
5332.21584,0.03335
5334.14431,0.05566
5336.07278,0.08094
5338.00125,0.08000
5339.92972,0.05755
5341.85819,0.02723
5343.78665,0.01201
5345.71512,0.04226
5347.64359,0.07365
5349.57206,0.06306
5351.50053,0.04801
5353.42900,0.06672
5355.35747,0.07198
5357.28594,0.04825
5359.21440,0.05275
5361.14287,0.07521
5363.07134,0.06689
5364.99981,0.04120
5366.92828,0.03101
5368.85675,0.04052
5370.78522,0.05679
5372.71368,0.06850
5374.64215,0.07686
5376.57062,0.07178
5378.49909,0.06197
5380.42756,0.06561
5382.35603,0.06628
5384.28450,0.06464
5386.21297,0.06825
5388.14143,0.05663
5390.06990,0.03582
5391.99837,0.03771
5393.92684,0.06608
5395.85531,0.07334
5397.78378,0.05333
5399.71225,0.04621
5401.64071,0.04895
5403.56918,0.04725
5405.49765,0.05808
5407.42612,0.08107
5409.35459,0.08741
5411.28306,0.07469
5413.21153,0.06139
5415.13999,0.04916
5417.06846,0.04521
5418.99693,0.05423
5420.92540,0.05896
5422.85387,0.05961
5424.78234,0.07681
5426.71081,0.09165
5428.63928,0.06890
5430.56774,0.04653
5432.49621,0.06333
5434.42468,0.07359
5436.35315,0.05463
5438.28162,0.05705
5440.21009,0.09215
5442.13856,0.10432
5444.06702,0.07848
5445.99549,0.07156
5447.92396,0.08961
5449.85243,0.09563
5451.78090,0.09294
5453.70937,0.08324
5455.63784,0.06305
5457.56631,0.05065
5459.49477,0.05070
5461.42324,0.04206
5463.35171,0.03504
5465.28018,0.04848
5467.20865,0.05253
5469.13712,0.03522
5471.06559,0.03734
5472.99405,0.06679
5474.92252,0.08041
5476.85099,0.06997
5478.77946,0.07111
5480.70793,0.06815
5482.63640,0.04381
5484.56487,0.03146
5486.49334,0.04798
5488.42180,0.06532
5490.35027,0.06211
5492.27874,0.04062
5494.20721,0.02806
5496.13568,0.05117
5498.06415,0.08223
5499.99262,0.08647
5501.92108,0.07747
5503.84955,0.08064
5505.77802,0.08920
5507.70649,0.07919
5509.63496,0.05732
5511.56343,0.06146
5513.49190,0.08251
5515.42037,0.06647
5517.34883,0.02413
5519.27730,0.01602
5521.20577,0.04298
5523.13424,0.05514
5525.06271,0.04518
5526.99118,0.04527
5528.91965,0.04800
5530.84811,0.04708
5532.77658,0.05610
5534.70505,0.05938
5536.63352,0.05423
5538.56199,0.06318
5540.49046,0.07961
5542.41893,0.08467
5544.34740,0.08573
5546.27586,0.08182
5548.20433,0.05784
5550.13280,0.04955
5552.06127,0.08408
5553.98974,0.09950
5555.91821,0.06222
5557.84668,0.03830
5559.77514,0.06540
5561.70361,0.09313
5563.63208,0.07685
5565.56055,0.04650
5567.48902,0.04004
5569.41749,0.04737
5571.34596,0.05646
5573.27443,0.05768
5575.20289,0.04815
5577.13136,0.06542
5579.05983,0.10607
5580.98830,0.10802
5582.91677,0.08155
5584.84524,0.08178
5586.77371,0.08274
5588.70217,0.05446
5590.63064,0.03797
5592.55911,0.05144
5594.48758,0.05498
5596.41605,0.04539
5598.34452,0.05835
5600.27299,0.08449
5602.20145,0.08942
5604.12992,0.08468
5606.05839,0.08406
5607.98686,0.07793
5609.91533,0.07242
5611.84380,0.07607
5613.77227,0.08241
5615.70074,0.08901
5617.62920,0.10483
5619.55767,0.11646
5621.48614,0.09834
5623.41461,0.07521
5625.34308,0.07357
5627.27155,0.05552
5629.20002,0.01600
5631.12848,0.02068
5633.05695,0.07404
5634.98542,0.09904
5636.91389,0.06276
5638.84236,0.03843
5640.77083,0.05793
5642.69930,0.06313
5644.62777,0.04599
5646.55623,0.04082
5648.48470,0.04082
5650.41317,0.03953
5652.34164,0.04751
5654.27011,0.05052
5656.19858,0.04327
5658.12705,0.04155
5660.05551,0.03747
5661.98398,0.02582
5663.91245,0.03736
5665.84092,0.07472
5667.76939,0.08713
5669.69786,0.07309
5671.62633,0.08881
5673.55480,0.11620
5675.48326,0.09112
5677.41173,0.04487
5679.34020,0.04187
5681.26867,0.05646
5683.19714,0.06089
5685.12561,0.06883
5687.05408,0.07992
5688.98254,0.09035
5690.91101,0.08680
5692.83948,0.05924
5694.76795,0.04991
5696.69642,0.09350
5698.62489,0.13448
5700.55336,0.11498
5702.48183,0.07578
5704.41029,0.06481
5706.33876,0.06216
5708.26723,0.04937
5710.19570,0.05945
5712.12417,0.10111
5714.05264,0.12687
5715.98111,0.11762
5717.90957,0.08959
5719.83804,0.06002
5721.76651,0.05564
5723.69498,0.08641
5725.62345,0.10837
5727.55192,0.07640
5729.48039,0.03765
5731.40886,0.04566
5733.33732,0.06782
5735.26579,0.09450
5737.19426,0.14364
5739.12273,0.15157
5741.05120,0.08173
5742.97967,0.03588
5744.90814,0.06657
5746.83660,0.09002
5748.76507,0.06855
5750.69354,0.07682
5752.62201,0.12653
5754.55048,0.14406
5756.47895,0.12292
5758.40742,0.10126
5760.33588,0.09296
5762.26435,0.09154
5764.19282,0.07676
5766.12129,0.04044
5768.04976,0.03046
5769.97823,0.08429
5771.90670,0.12312
5773.83517,0.08544
5775.76363,0.05344
5777.69210,0.06562
5779.62057,0.05412
5781.54904,0.03241
5783.47751,0.07483
5785.40598,0.13288
5787.33445,0.12203
5789.26291,0.09431
5791.19138,0.11264
5793.11985,0.12900
5795.04832,0.10672
5796.97679,0.06952
5798.90526,0.04464
5800.83373,0.04822
5802.76220,0.06929
5804.69066,0.07682
5806.61913,0.05597
5808.54760,0.03819
5810.47607,0.04828
5812.40454,0.04474
5814.33301,0.02518
5816.26148,0.04677
5818.18994,0.08237
5820.11841,0.06795
5822.04688,0.04589
5823.97535,0.06380
5825.90382,0.08416
5827.83229,0.09144
5829.76076,0.10463
5831.68923,0.11416
5833.61769,0.08950
5835.54616,0.04407
5837.47463,0.03047
5839.40310,0.05865
5841.33157,0.09367
5843.26004,0.11711
5845.18851,0.13227
5847.11697,0.12856
5849.04544,0.10807
5850.97391,0.08826
5852.90238,0.06746
5854.83085,0.07220
5856.75932,0.12026
5858.68779,0.13132
5860.61626,0.06948
5862.54472,0.03449
5864.47319,0.06883
5866.40166,0.10025
5868.33013,0.08700
5870.25860,0.07266
5872.18707,0.08334
5874.11554,0.07981
5876.04400,0.06489
5877.97247,0.07241
5879.90094,0.07830
5881.82941,0.07982
5883.75788,0.10349
5885.68635,0.11062
5887.61482,0.08125
5889.54329,0.07261
5891.47175,0.07723
5893.40022,0.05184
5895.32869,0.03686
5897.25716,0.07318
5899.18563,0.11654
5901.11410,0.12173
5903.04257,0.12942
5904.97103,0.16634
5906.89950,0.15638
5908.82797,0.07862
5910.75644,0.05026
5912.68491,0.09619
5914.61338,0.12534
5916.54185,0.13101
5918.47032,0.13367
5920.39878,0.10722
5922.32725,0.07824
5924.25572,0.08993
5926.18419,0.09838
5928.11266,0.08161
5930.04113,0.09423
5931.96960,0.10492
5933.89806,0.06727
5935.82653,0.04375
5937.75500,0.04762
5939.68347,0.01655
5941.61194,-0.02904
5943.54041,-0.01559
5945.46888,0.03069
5947.39734,0.03938
5949.32581,0.03428
5951.25428,0.05878
5953.18275,0.07405
5955.11122,0.06634
5957.03969,0.07366
5958.96816,0.08698
5960.89663,0.08959
5962.82509,0.10074
5964.75356,0.11075
5966.68203,0.10211
5968.61050,0.09985
5970.53897,0.10125
5972.46744,0.05888
5974.39591,0.00488
5976.32437,-0.00057
5978.25284,0.01374
5980.18131,0.00217
5982.10978,-0.00925
5984.03825,0.03044
5985.96672,0.09301
5987.89519,0.12592
5989.82366,0.13620
5991.75212,0.14403
5993.68059,0.14435
5995.60906,0.12588
5997.53753,0.09681
5999.46600,0.07198
6001.39447,0.08366
6003.32294,0.12908
6005.25140,0.13051
6007.17987,0.09244
6009.10834,0.08938
6011.03681,0.09496
6012.96528,0.07772
6014.89375,0.08739
6016.82222,0.13653
6018.75069,0.14606
6020.67915,0.07762
6022.60762,0.02661
6024.53609,0.04134
6026.46456,0.06311
6028.39303,0.06465
6030.32150,0.05315
6032.24997,0.03738
6034.17843,0.02851
6036.10690,0.01569
6038.03537,0.01116
6039.96384,0.04986
6041.89231,0.10670
6043.82078,0.12414
6045.74925,0.11101
6047.67772,0.11866
6049.60618,0.13838
6051.53465,0.10707
6053.46312,0.03814
6055.39159,0.03455
6057.32006,0.09665
6059.24853,0.10089
6061.17700,0.07529
6063.10546,0.11975
6065.03393,0.17060
6066.96240,0.16600
6068.89087,0.12973
6070.81934,0.08700
6072.74781,0.06819
6074.67628,0.07079
6076.60475,0.05778
6078.53321,0.03686
6080.46168,0.05848
6082.39015,0.11077
6084.31862,0.12445
6086.24709,0.07622
6088.17556,0.04245
6090.10403,0.07954
6092.03249,0.09657
6093.96096,0.06353
6095.88943,0.08332
6097.81790,0.12537
6099.74637,0.09553
6101.67484,0.03779
6103.60331,0.02389
6105.53177,0.02686
6107.46024,0.01755
6109.38871,0.02438
6111.31718,0.03521
6113.24565,0.02344
6115.17412,0.02117
6117.10259,0.02967
6119.03106,0.01196
6120.95952,0.00631
6122.88799,0.04682
6124.81646,0.06790
6126.74493,0.06488
6128.67340,0.11376
6130.60187,0.15861
6132.53034,0.12151
6134.45880,0.08587
6136.38727,0.10820
6138.31574,0.12434
6140.24421,0.08214
6142.17268,0.04006
6144.10115,0.06848
6146.02962,0.10884
6147.95809,0.11210
6149.88655,0.10938
6151.81502,0.12114
6153.74349,0.13538
6155.67196,0.11646
6157.60043,0.05710
6159.52890,0.02358
6161.45737,0.06568
6163.38583,0.09579
6165.31430,0.05296
6167.24277,0.03174
6169.17124,0.07064
6171.09971,0.09188
6173.02818,0.07195
6174.95665,0.09916
6176.88512,0.15784
6178.81358,0.12270
6180.74205,0.02951
6182.67052,0.02703
6184.59899,0.11431
6186.52746,0.15833
6188.45593,0.11509
6190.38440,0.07564
6192.31286,0.07533
6194.24133,0.10149
6196.16980,0.11815
6198.09827,0.08180
6200.02674,0.07108
6201.95521,0.13432
6203.88368,0.14894
6205.81215,0.05860
6207.74061,-0.00801
6209.66908,0.00685
6211.59755,0.00891
6213.52602,-0.01343
6215.45449,0.03271
6217.38296,0.10736
6219.31143,0.10273
6221.23989,0.04692
6223.16836,0.03674
6225.09683,0.06949
6227.02530,0.06969
6228.95377,0.03999
6230.88224,0.02537
6232.81071,0.05608
6234.73918,0.11947
6236.66764,0.14962
6238.59611,0.13246
6240.52458,0.12527
6242.45305,0.13409
6244.38152,0.10327
6246.30999,0.05449
6248.23846,0.07107
6250.16692,0.12739
6252.09539,0.12885
6254.02386,0.13093
6255.95233,0.21322
6257.88080,0.26190
6259.80927,0.18334
6261.73774,0.08564
6263.66621,0.02993
6265.59467,-0.01817
6267.52314,-0.02963
6269.45161,-0.01418
6271.38008,-0.01872
6273.30855,-0.01367
6275.23702,0.03344
6277.16549,0.08346
6279.09395,0.09471
6281.02242,0.07837
6282.95089,0.06804
6284.87936,0.06528
6286.80783,0.06554
6288.73630,0.10528
6290.66477,0.16864
6292.59323,0.16114
6294.52170,0.09551
6296.45017,0.07925
6298.37864,0.10166
6300.30711,0.09977
6302.23558,0.08133
6304.16405,0.04823
6306.09252,0.00845
6308.02098,-0.00908
6309.94945,-0.02604
6311.87792,-0.04955
6313.80639,-0.02701
6315.73486,0.01388
6317.66333,-0.00263
6319.59180,-0.02885
6321.52026,0.02530
6323.44873,0.11553
6325.37720,0.15093
6327.30567,0.15674
6329.23414,0.14605
6331.16261,0.06739
6333.09108,0.00579
6335.01955,0.05694
6336.94801,0.11612
6338.87648,0.09464
6340.80495,0.04458
6342.73342,0.02457
6344.66189,0.05312
6346.59036,0.11664
6348.51883,0.15278
6350.44729,0.12622
6352.37576,0.09442
6354.30423,0.10392
6356.23270,0.09866
6358.16117,0.05441
6360.08964,0.04746
6362.01811,0.11645
6363.94658,0.15698
6365.87504,0.09064
6367.80351,0.04901
6369.73198,0.07908
6371.66045,0.02594
6373.58892,-0.05759
6375.51739,-0.01284
6377.44586,0.07108
6379.37432,0.07734
6381.30279,0.04772
6383.23126,0.08378
6385.15973,0.16056
6387.08820,0.17515
6389.01667,0.15452
6390.94514,0.14407
6392.87361,0.14600
6394.80207,0.14436
6396.73054,0.09286
6398.65901,0.03695
6400.58748,0.07699
6402.51595,0.13149
6404.44442,0.06019
6406.37289,-0.02520
6408.30135,0.01846
6410.22982,0.09374
6412.15829,0.09997
6414.08676,0.08315
6416.01523,0.08999
6417.94370,0.09523
6419.87217,0.09820
6421.80064,0.11279
6423.72910,0.08374
6425.65757,0.01938
6427.58604,0.00149
6429.51451,0.02551
6431.44298,0.04402
6433.37145,0.06901
6435.29992,0.08891
6437.22838,0.04584
6439.15685,0.00354
6441.08532,0.07454
6443.01379,0.19638
6444.94226,0.20682
6446.87073,0.13891
6448.79920,0.13293
6450.72766,0.17072
6452.65613,0.15733
6454.58460,0.12130
6456.51307,0.11918
6458.44154,0.10705
6460.37001,0.06505
6462.29848,0.03191
6464.22695,0.00952
6466.15541,0.01275
6468.08388,0.04890
6470.01235,0.07418
6471.94082,0.09127
6473.86929,0.11150
6475.79776,0.08063
6477.72623,0.00858
6479.65469,-0.01363
6481.58316,0.04662
6483.51163,0.10979
6485.44010,0.10881
6487.36857,0.08096
6489.29704,0.03731
6491.22551,-0.00312
6493.15398,0.03894
6495.08244,0.10110
6497.01091,0.09655
6498.93938,0.10463
6500.86785,0.15505
6502.79632,0.15273
6504.72479,0.12456
6506.65326,0.14350
6508.58172,0.14651
6510.51019,0.07460
6512.43866,0.03913
6514.36713,0.11193
6516.29560,0.14159
6518.22407,0.06632
6520.15254,0.02188
6522.08101,0.05591
6524.00947,0.05590
6525.93794,-0.04244
6527.86641,-0.08173
6529.79488,-0.01308
6531.72335,-0.00024
6533.65182,-0.04712
6535.58029,-0.01896
6537.50875,0.06879
6539.43722,0.13334
6541.36569,0.14305
6543.29416,0.07854
6545.22263,0.01158
6547.15110,0.01863
6549.07957,0.02593
6551.00804,-0.01251
6552.93650,-0.01282
6554.86497,0.01820
6556.79344,-0.01870
6558.72191,-0.08027
6560.65038,-0.01820
6562.57885,0.11053
6564.50732,0.10950
6566.43578,0.00457
6568.36425,-0.00824
6570.29272,0.07603
6572.22119,0.12447
6574.14966,0.11782
6576.07813,0.10914
6578.00660,0.13190
6579.93507,0.18762
6581.86353,0.19002
6583.79200,0.10680
6585.72047,0.05595
6587.64894,0.08604
6589.57741,0.10028
6591.50588,0.06204
6593.43435,0.08036
6595.36281,0.16020
6597.29128,0.13241
6599.21975,0.00017
6601.14822,-0.06795
6603.07669,-0.05336
6605.00516,-0.06305
6606.93363,-0.05654
6608.86210,0.04007
6610.79056,0.13387
6612.71903,0.08852
6614.64750,-0.02756
6616.57597,-0.08213
6618.50444,-0.04056
6620.43291,0.06317
6622.36138,0.11963
6624.28984,0.09885
6626.21831,0.12346
6628.14678,0.17486
6630.07525,0.10235
6632.00372,-0.00961
6633.93219,-0.01232
6635.86066,0.01527
6637.78912,-0.01390
6639.71759,-0.01628
6641.64606,0.03818
6643.57453,0.06116
6645.50300,0.02259
6647.43147,0.01539
6649.35994,0.06300
6651.28841,0.08207
6653.21687,0.05596
6655.14534,0.05190
6657.07381,0.10249
6659.00228,0.12070
6660.93075,0.05726
6662.85922,0.00650
6664.78769,-0.01132
6666.71615,-0.05412
6668.64462,-0.10378
6670.57309,-0.09215
6672.50156,0.02388
6674.43003,0.14973
6676.35850,0.13411
6678.28697,0.04130
6680.21544,0.04436
6682.14390,0.10022
6684.07237,0.07827
6686.00084,0.06830
6687.92931,0.17014
6689.85778,0.22120
6691.78625,0.10810
6693.71472,-0.02182
6695.64318,-0.07160
6697.57165,-0.07515
6699.50012,-0.06703
6701.42859,-0.04428
6703.35706,-0.01132
6705.28553,0.04646
6707.21400,0.09675
6709.14247,0.08404
6711.07093,0.06688
6712.99940,0.08370
6714.92787,0.07672
6716.85634,0.00700
6718.78481,-0.04593
6720.71328,-0.00636
6722.64175,-0.01161
6724.57021,-0.08594
6726.49868,-0.03833
6728.42715,0.07365
6730.35562,0.08417
6732.28409,0.06376
6734.21256,0.10188
6736.14103,0.11068
6738.06950,0.05157
6739.99796,-0.02679
6741.92643,-0.11080
6743.85490,-0.11813
6745.78337,-0.00372
6747.71184,0.08401
6749.64031,0.05710
6751.56878,0.06046
6753.49724,0.13113
6755.42571,0.12407
6757.35418,0.03413
6759.28265,0.03260
6761.21112,0.14339
6763.13959,0.15764
6765.06806,0.09636
6766.99653,0.10316
6768.92499,0.14238
6770.85346,0.12165
6772.78193,0.04904
6774.71040,0.01674
6776.63887,0.06194
6778.56734,0.08655
6780.49581,0.06844
6782.42427,0.05993
6784.35274,0.09281
6786.28121,0.15294
6788.20968,0.13496
6790.13815,0.03429
6792.06662,0.01792
6793.99509,0.11189
6795.92355,0.17286
6797.85202,0.15664
6799.78049,0.15660
6801.70896,0.17322
6803.63743,0.09952
6805.56590,0.02570
6807.49437,0.06132
6809.42284,0.11275
6811.35130,0.09326
6813.27977,0.04669
6815.20824,0.04004
6817.13671,0.07276
6819.06518,0.11099
6820.99365,0.09295
6822.92212,0.04551
6824.85058,0.11018
6826.77905,0.21740
6828.70752,0.20317
6830.63599,0.13584
6832.56446,0.18200
6834.49293,0.23040
6836.42140,0.12046
6838.34987,0.00291
6840.27833,0.00679
6842.20680,0.04057
6844.13527,0.05250
6846.06374,0.05435
6847.99221,0.07442
6849.92068,0.09427
6851.84915,0.04234
6853.77761,-0.07286
6855.70608,-0.14164
6857.63455,-0.06589
6859.56302,0.02818
6861.49149,0.02846
6863.41996,0.02707
6865.34843,0.08263
6867.27690,0.06334
6869.20536,-0.02490
6871.13383,0.02741
6873.06230,0.19270
6874.99077,0.17835
6876.91924,0.04289
6878.84771,0.05927
6880.77618,0.16508
6882.70464,0.12482
6884.63311,0.01792
6886.56158,-0.05941
6888.49005,-0.10450
6890.41852,-0.11139
6892.34699,-0.11016
6894.27546,-0.12276
6896.20393,-0.09488
6898.13239,-0.00089
6900.06086,0.05963
6901.98933,0.05730
6903.91780,0.05165
6905.84627,0.03476
6907.77474,0.00337
6909.70321,0.02902
6911.63167,0.11611
6913.56014,0.16160
6915.48861,0.08132
6917.41708,-0.04822
6919.34555,-0.06107
6921.27402,-0.01398
6923.20249,-0.07166
6925.13096,-0.10400
6927.05942,-0.03172
6928.98789,0.03153
6930.91636,0.06736
6932.84483,0.10062
6934.77330,0.12137
6936.70177,0.16156
6938.63024,0.17895
6940.55870,0.15344
6942.48717,0.16394
6944.41564,0.20816
6946.34411,0.19069
6948.27258,0.05495
6950.20105,-0.03061
6952.12952,0.06524
6954.05799,0.14703
6955.98645,0.08384
6957.91492,0.11330
6959.84339,0.22116
6961.77186,0.16096
6963.70033,-0.01034
6965.62880,-0.08617
6967.55727,-0.02883
6969.48573,0.05736
6971.41420,0.07559
6973.34267,0.02114
6975.27114,0.03768
6977.19961,0.19095
6979.12808,0.26331
6981.05655,0.18684
6982.98501,0.13701
6984.91348,0.15685
6986.84195,0.07174
6988.77042,-0.08966
6990.69889,-0.08671
6992.62736,0.05270
6994.55583,0.12858
6996.48430,0.14940
6998.41276,0.20755
7000.34123,0.21434
7002.26970,0.11401
7004.19817,-0.00203
7006.12664,-0.03637
7008.05511,0.01728
7009.98358,0.06026
7011.91204,0.06506
7013.84051,0.01828
7015.76898,-0.01484
7017.69745,0.05409
7019.62592,0.10181
7021.55439,0.07402
7023.48286,0.12767
7025.41133,0.18964
7027.33979,0.07875
7029.26826,-0.02944
7031.19673,0.07296
7033.12520,0.22613
7035.05367,0.19854
7036.98214,0.00237
7038.91061,-0.10402
7040.83907,-0.01126
7042.76754,0.11652
7044.69601,0.05984
7046.62448,-0.02187
7048.55295,0.06163
7050.48142,0.12846
7052.40989,0.00827
7054.33836,-0.10208
7056.26682,-0.00515
7058.19529,0.09912
7060.12376,0.08756
7062.05223,0.10755
7063.98070,0.16981
7065.90917,0.17851
7067.83764,0.11607
7069.76610,0.03193
7071.69457,0.02433
7073.62304,0.13853
7075.55151,0.14490
7077.47998,-0.05577
7079.40845,-0.20334
7081.33692,-0.09759
7083.26539,0.04011
7085.19385,0.11588
7087.12232,0.21373
7089.05079,0.22944
7090.97926,0.09033
7092.90773,-0.04924
7094.83620,0.01179
7096.76467,0.14008
7098.69313,0.06526
7100.62160,-0.04413
7102.55007,-0.01598
7104.47854,0.01954
7106.40701,0.04592
7108.33548,0.09969
7110.26395,0.11757
7112.19242,0.07472
7114.12088,0.02774
7116.04935,0.01025
7117.97782,0.00860
7119.90629,0.02050
7121.83476,0.03524
7123.76323,0.07511
7125.69170,0.14042
7127.62016,0.14973
7129.54863,0.04770
7131.47710,-0.07325
7133.40557,-0.01866
7135.33404,0.12695
7137.26251,0.16021
7139.19098,0.21667
7141.11944,0.31924
7143.04791,0.20187
7144.97638,-0.05196
7146.90485,-0.12597
7148.83332,-0.04418
7150.76179,0.03914
7152.69026,0.05603
7154.61873,0.02807
7156.54719,0.00034
7158.47566,-0.06484
7160.40413,-0.12545
7162.33260,-0.09332
7164.26107,-0.02249
7166.18954,0.05021
7168.11801,0.14025
7170.04647,0.13497
7171.97494,0.09043
7173.90341,0.10273
7175.83188,0.07287
7177.76035,0.07180
7179.68882,0.11859
7181.61729,0.02673
7183.54576,-0.06239
7185.47422,0.12108
7187.40269,0.29118
7189.33116,0.22759
7191.25963,0.08688
7193.18810,0.08366
7195.11657,0.14807
7197.04504,0.14379
7198.97350,0.08713
7200.90197,0.06096
7202.83044,0.10135
7204.75891,0.15048
7206.68738,0.09656
7208.61585,0.00956
7210.54432,0.00816
7212.47279,0.05593
7214.40125,-0.00933
7216.32972,-0.06370
7218.25819,0.12113
7220.18666,0.16919
7222.11513,0.03839
7224.04360,-0.04415
7225.97207,-0.07339
7227.90053,-0.07695
7229.82900,-0.05220
7231.75747,0.00975
7233.68594,0.08392
7235.61441,0.08414
7237.54288,0.03957
7239.47135,0.09511
7241.39982,0.22354
7243.32828,0.25781
7245.25675,0.19785
7247.18522,0.18859
7249.11369,0.19137
7251.04216,0.09983
7252.97063,-0.05254
7254.89910,-0.11657
7256.82756,-0.06535
7258.75603,0.02666
7260.68450,0.03534
7262.61297,-0.10858
7264.54144,-0.19483
7266.46991,-0.12829
7268.39838,-0.10498
7270.32685,-0.15430
7272.25531,-0.05278
7274.18378,0.16980
7276.11225,0.18201
7278.04072,0.01733
7279.96919,-0.07295
7281.89766,-0.01661
7283.82613,0.02458
7285.75459,0.03380
7287.68306,0.02285
7289.61153,0.01059
7291.54000,0.00672
7293.46847,0.05534
7295.39694,0.14810
7297.32541,0.19574
7299.25387,0.19076
7301.18234,0.13200
7303.11081,0.12510
7305.03928,0.29784
7306.96775,0.37266
7308.89622,0.12366
7310.82469,0.02665
7312.75316,0.24290
7314.68162,0.36246
7316.61009,0.19605
7318.53856,0.04813
7320.46703,0.02375
7322.39550,-0.03257
7324.32397,-0.06776
7326.25244,-0.03076
7328.18090,0.01288
7330.10937,0.01351
7332.03784,-0.00681
7333.96631,-0.02322
7335.89478,0.01758
7337.82325,0.18241
7339.75172,0.35755
7341.68019,0.21616
7343.60865,0.00220
7345.53712,-0.05086
7347.46559,-0.02501
7349.39406,0.05763
7351.32253,0.19825
7353.25100,0.16746
7355.17947,-0.06572
7357.10793,-0.23422
7359.03640,-0.11634
7360.96487,0.06553
7362.89334,0.10453
7364.82181,0.11107
7366.75028,0.15776
7368.67875,0.19968
7370.60722,0.20841
7372.53568,0.22567
7374.46415,0.25305
7376.39262,0.26134
7378.32109,0.19181
7380.24956,-0.03543
7382.17803,-0.21125
7384.10650,-0.02246
7386.03496,0.17612
7387.96343,-0.01837
7389.89190,-0.11712
7391.82037,0.10912
7393.74884,0.21171
7395.67731,0.01652
7397.60578,-0.08953
7399.53425,0.02136
7401.46271,0.13814
7403.39118,0.16876
7405.31965,0.14324
7407.24812,0.16536
7409.17659,0.22544
7411.10506,0.17468
7413.03353,0.04571
7414.96199,-0.01577
7416.89046,0.00835
7418.81893,0.01363
7420.74740,-0.02573
7422.67587,0.02160
7424.60434,0.13689
7426.53281,0.17677
7428.46128,0.08694
7430.38974,0.03036
7432.31821,0.10936
7434.24668,0.13043
7436.17515,0.02294
7438.10362,-0.06796
7440.03209,-0.02987
7441.96056,0.08398
7443.88902,0.13366
7445.81749,0.04675
7447.74596,-0.07194
7449.67443,-0.06435
7451.60290,0.02276
7453.53137,0.03001
7455.45984,0.06052
7457.38831,0.14867
7459.31677,0.13557
7461.24524,0.04910
7463.17371,0.12718
7465.10218,0.24440
7467.03065,0.16807
7468.95912,0.04642
7470.88759,0.07249
7472.81605,0.08040
7474.74452,-0.07341
7476.67299,-0.17408
7478.60146,-0.07715
7480.52993,0.11438
7482.45840,0.22960
7484.38687,0.11210
7486.31533,-0.11933
7488.24380,-0.16104
7490.17227,-0.05168
7492.10074,-0.04667
7494.02921,-0.05636
7495.95768,0.05661
7497.88615,0.19880
