399.19301,1.41873
401.12148,-0.06285
403.04995,0.14255
404.97842,0.14134
406.90689,-0.02326
408.83536,-0.13753
410.76382,-0.12521
412.69229,-0.04581
414.62076,0.04962
416.54923,0.11838
418.47770,0.12907
420.40617,0.06098
422.33464,0.05079
424.26311,0.11223
426.19157,0.10103
428.12004,0.05536
430.04851,0.08266
431.97698,0.11223
433.90545,0.02153
435.83392,-0.09318
437.76239,-0.11861
439.69085,-0.02881
441.61932,0.11589
443.54779,0.18569
445.47626,0.15427
447.40473,0.08420
449.33320,0.05183
451.26167,0.05377
453.19013,0.03247
455.11860,0.01955
457.04707,0.05728
458.97554,0.09366
460.90401,0.07071
462.83248,0.03555
464.76095,0.02920
466.68942,0.05263
468.61788,0.08320
470.54635,0.10509
472.47482,0.13667
474.40329,0.12347
476.33176,0.05646
478.26023,0.04003
480.18870,0.06086
482.11716,0.07196
484.04563,0.06169
485.97410,0.03991
487.90257,0.03233
489.83104,0.07872
491.75951,0.12833
493.68798,0.13454
495.61645,0.14483
497.54491,0.17247
499.47338,0.16924
501.40185,0.10772
503.33032,0.02840
505.25879,0.00160
507.18726,0.01755
509.11573,0.02771
511.04419,0.04378
512.97266,0.08352
514.90113,0.11398
516.82960,0.11297
518.75807,0.10967
520.68654,0.12462
522.61501,0.14635
524.54348,0.14086
526.47194,0.08035
528.40041,0.02864
530.32888,0.02641
532.25735,0.03068
534.18582,0.04038
536.11429,0.08591
538.04276,0.12498
539.97122,0.10996
541.89969,0.07066
543.82816,0.06101
545.75663,0.07832
547.68510,0.08874
549.61357,0.09282
551.54204,0.08868
553.47051,0.06305
555.39897,0.04306
557.32744,0.05898
559.25591,0.08677
561.18438,0.09733
563.11285,0.08883
565.04132,0.07099
566.96979,0.06642
568.89825,0.08364
570.82672,0.10156
572.75519,0.10187
574.68366,0.09011
576.61213,0.07903
578.54060,0.07131
580.46907,0.07539
582.39754,0.08642
584.32600,0.08461
586.25447,0.07315
588.18294,0.06004
590.11141,0.05550
592.03988,0.07533
593.96835,0.10238
595.89682,0.10808
597.82528,0.08146
599.75375,0.04068
601.68222,0.02810
603.61069,0.05034
605.53916,0.07497
607.46763,0.08196
609.39610,0.08204
611.32456,0.09142
613.25303,0.10210
615.18150,0.09435
617.10997,0.08103
619.03844,0.08584
620.96691,0.08531
622.89538,0.07495
624.82385,0.08043
626.75231,0.09238
628.68078,0.09607
630.60925,0.09611
632.53772,0.10414
634.46619,0.12390
636.39466,0.13999
638.32313,0.13294
640.25159,0.10657
642.18006,0.08921
644.10853,0.09523
646.03700,0.11226
647.96547,0.11237
649.89394,0.09413
651.82241,0.09117
653.75088,0.10663
655.67934,0.10791
657.60781,0.08594
659.53628,0.07189
661.46475,0.07509
663.39322,0.07754
665.32169,0.08495
667.25016,0.11155
669.17862,0.13226
671.10709,0.12506
673.03556,0.11689
674.96403,0.11016
676.89250,0.09898
678.82097,0.08401
680.74944,0.08129
682.67791,0.08504
684.60637,0.08255
686.53484,0.08916
688.46331,0.10104
690.39178,0.10293
692.32025,0.10304
694.24872,0.10857
696.17719,0.11146
698.10565,0.10227
700.03412,0.09099
701.96259,0.09398
703.89106,0.10626
705.81953,0.11316
707.74800,0.11100
709.67647,0.10665
711.60494,0.10955
713.53340,0.11683
715.46187,0.11657
717.39034,0.10834
719.31881,0.10469
721.24728,0.11034
723.17575,0.11624
725.10422,0.12170
727.03268,0.13111
728.96115,0.13823
730.88962,0.13519
732.81809,0.11947
734.74656,0.10011
736.67503,0.09519
738.60350,0.10173
740.53197,0.10291
742.46043,0.10326
744.38890,0.11504
746.31737,0.12632
748.24584,0.12018
750.17431,0.11016
752.10278,0.11335
754.03125,0.11980
755.95971,0.11833
757.88818,0.11264
759.81665,0.10820
761.74512,0.10864
763.67359,0.11294
765.60206,0.11380
767.53053,0.10777
769.45900,0.09909
771.38746,0.09880
773.31593,0.10649
775.24440,0.11060
777.17287,0.10839
779.10134,0.10330
781.02981,0.10338
782.95828,0.10810
784.88674,0.11041
786.81521,0.11306
788.74368,0.11551
790.67215,0.11644
792.60062,0.11995
794.52909,0.12087
796.45756,0.11504
798.38602,0.11128
800.31449,0.11549
802.24296,0.12637
804.17143,0.12948
806.09990,0.11754
808.02837,0.10868
809.95684,0.10796
811.88531,0.10521
813.81377,0.10098
815.74224,0.09921
817.67071,0.10187
819.59918,0.10927
821.52765,0.11705
823.45612,0.12140
825.38459,0.12292
827.31305,0.12099
829.24152,0.11824
831.16999,0.11982
833.09846,0.12385
835.02693,0.12817
836.95540,0.13071
838.88387,0.12631
840.81234,0.11751
842.74080,0.11163
844.66927,0.10907
846.59774,0.10583
848.52621,0.10765
850.45468,0.11409
852.38315,0.11461
854.31162,0.11430
856.24008,0.11276
858.16855,0.10595
860.09702,0.10619
862.02549,0.11420
863.95396,0.11716
865.88243,0.11295
867.81090,0.09438
869.73937,0.05957
871.66783,0.05589
873.59630,0.09725
875.52477,0.12935
877.45324,0.13544
879.38171,0.12924
881.31018,0.11828
883.23865,0.11833
885.16711,0.13244
887.09558,0.14385
889.02405,0.14030
890.95252,0.12858
892.88099,0.11959
894.80946,0.11684
896.73793,0.12158
898.66640,0.12974
900.59486,0.13139
902.52333,0.12713
904.45180,0.12475
906.38027,0.12481
908.30874,0.12617
910.23721,0.12836
912.16568,0.13013
914.09414,0.13195
916.02261,0.13348
917.95108,0.12992
919.87955,0.12683
921.80802,0.13317
923.73649,0.13868
925.66496,0.13497
927.59343,0.12893
929.52189,0.12640
931.45036,0.12567
933.37883,0.12769
935.30730,0.13458
937.23577,0.13592
939.16424,0.12605
941.09271,0.11903
943.02117,0.12132
944.94964,0.12268
946.87811,0.11842
948.80658,0.11146
950.73505,0.10924
952.66352,0.11743
954.59199,0.12785
956.52045,0.13038
958.44892,0.12793
960.37739,0.12933
962.30586,0.13588
964.23433,0.13800
966.16280,0.13313
968.09127,0.13225
970.01974,0.13553
971.94820,0.13317
973.87667,0.12786
975.80514,0.12860
977.73361,0.13290
979.66208,0.13166
981.59055,0.12645
983.51902,0.12697
985.44748,0.13491
987.37595,0.14305
989.30442,0.14607
991.23289,0.14447
993.16136,0.14113
995.08983,0.13663
997.01830,0.13460
998.94677,0.13782
1000.87523,0.13805
1002.80370,0.13488
1004.73217,0.13495
1006.66064,0.13696
1008.58911,0.14008
1010.51758,0.14519
1012.44605,0.14959
1014.37451,0.14799
1016.30298,0.14158
1018.23145,0.13737
1020.15992,0.13860
1022.08839,0.14230
1024.01686,0.14272
1025.94533,0.13931
1027.87380,0.13587
1029.80226,0.13270
1031.73073,0.12871
1033.65920,0.12899
1035.58767,0.13411
1037.51614,0.13806
1039.44461,0.14250
1041.37308,0.14453
1043.30154,0.13876
1045.23001,0.13473
1047.15848,0.13338
1049.08695,0.12785
1051.01542,0.12518
1052.94389,0.12811
1054.87236,0.13094
1056.80083,0.12983
1058.72929,0.12795
1060.65776,0.13182
1062.58623,0.13702
1064.51470,0.14074
1066.44317,0.14704
1068.37164,0.15393
1070.30011,0.15518
1072.22857,0.14979
1074.15704,0.14754
1076.08551,0.15123
1078.01398,0.14859
1079.94245,0.14106
1081.87092,0.14174
1083.79939,0.14644
1085.72786,0.14746
1087.65632,0.14928
1089.58479,0.15235
1091.51326,0.15324
1093.44173,0.15464
1095.37020,0.15466
1097.29867,0.14816
1099.22714,0.14097
1101.15560,0.14162
1103.08407,0.14845
1105.01254,0.15330
1106.94101,0.15092
1108.86948,0.14301
1110.79795,0.13911
1112.72642,0.14447
1114.65489,0.14930
1116.58335,0.14523
1118.51182,0.13767
1120.44029,0.13278
1122.36876,0.13059
1124.29723,0.13374
1126.22570,0.14270
1128.15417,0.14801
1130.08263,0.14249
1132.01110,0.13272
1133.93957,0.12786
1135.86804,0.12898
1137.79651,0.13335
1139.72498,0.13755
1141.65345,0.14373
1143.58191,0.15297
1145.51038,0.15770
1147.43885,0.15528
1149.36732,0.14913
1151.29579,0.14462
1153.22426,0.14633
1155.15273,0.15154
1157.08120,0.15543
1159.00966,0.15579
1160.93813,0.15154
1162.86660,0.14404
1164.79507,0.13814
1166.72354,0.13810
1168.65201,0.14401
1170.58048,0.15175
1172.50894,0.15559
1174.43741,0.15226
1176.36588,0.14472
1178.29435,0.14094
1180.22282,0.14374
1182.15129,0.14684
1184.07976,0.14659
1186.00823,0.14621
1187.93669,0.14734
1189.86516,0.15003
1191.79363,0.15431
1193.72210,0.15725
1195.65057,0.15731
1197.57904,0.15790
1199.50751,0.16016
1201.43597,0.15964
1203.36444,0.15534
1205.29291,0.15228
1207.22138,0.15301
1209.14985,0.15391
1211.07832,0.15306
1213.00679,0.15280
1214.93526,0.15340
1216.86372,0.15664
1218.79219,0.16172
1220.72066,0.16000
1222.64913,0.15310
1224.57760,0.15270
1226.50607,0.15807
1228.43454,0.16038
1230.36300,0.15757
1232.29147,0.15397
1234.21994,0.15432
1236.14841,0.15820
1238.07688,0.16194
1240.00535,0.16220
1241.93382,0.15930
1243.86229,0.15735
1245.79075,0.15812
1247.71922,0.15977
1249.64769,0.15872
1251.57616,0.15551
1253.50463,0.15473
1255.43310,0.15522
1257.36157,0.15367
1259.29003,0.15297
1261.21850,0.15519
1263.14697,0.15608
1265.07544,0.15501
1267.00391,0.15481
1268.93238,0.15473
1270.86085,0.15554
1272.78932,0.15922
1274.71778,0.16254
1276.64625,0.16214
1278.57472,0.16034
1280.50319,0.16065
1282.43166,0.16407
1284.36013,0.16734
1286.28860,0.16650
1288.21706,0.16464
1290.14553,0.16589
1292.07400,0.16712
1294.00247,0.16525
1295.93094,0.16411
1297.85941,0.16557
1299.78788,0.16482
1301.71634,0.16038
1303.64481,0.15611
1305.57328,0.15558
1307.50175,0.15926
1309.43022,0.16375
1311.35869,0.16594
1313.28716,0.16526
1315.21563,0.16444
1317.14409,0.16638
1319.07256,0.16762
1321.00103,0.16618
1322.92950,0.16577
1324.85797,0.16772
1326.78644,0.17003
1328.71491,0.17008
1330.64337,0.16802
1332.57184,0.16724
1334.50031,0.16770
1336.42878,0.16520
1338.35725,0.16117
1340.28572,0.16071
1342.21419,0.16729
1344.14266,0.18022
1346.07112,0.18496
1347.99959,0.17405
1349.92806,0.16539
1351.85653,0.16699
1353.78500,0.16783
1355.71347,0.16522
1357.64194,0.16599
1359.57040,0.17268
1361.49887,0.18014
1363.42734,0.18011
1365.35581,0.17314
1367.28428,0.16766
1369.21275,0.16769
1371.14122,0.17212
1373.06969,0.17898
1374.99815,0.18271
1376.92662,0.18043
1378.85509,0.17701
1380.78356,0.17234
1382.71203,0.16814
1384.64050,0.16937
1386.56897,0.17351
1388.49743,0.17403
1390.42590,0.17226
1392.35437,0.17445
1394.28284,0.18167
1396.21131,0.18765
1398.13978,0.18690
1400.06825,0.17847
1401.99672,0.17038
1403.92518,0.16856
1405.85365,0.16848
1407.78212,0.16947
1409.71059,0.17257
1411.63906,0.17366
1413.56753,0.17404
1415.49600,0.17805
1417.42446,0.18475
1419.35293,0.18612
1421.28140,0.18115
1423.20987,0.17867
1425.13834,0.17794
1427.06681,0.17677
1428.99528,0.17634
1430.92375,0.17531
1432.85221,0.17541
1434.78068,0.18154
1436.70915,0.18826
1438.63762,0.18676
1440.56609,0.18354
1442.49456,0.18106
1444.42303,0.17972
1446.35149,0.18114
1448.27996,0.18238
1450.20843,0.18189
1452.13690,0.18401
1454.06537,0.19144
1455.99384,0.20314
1457.92231,0.20531
1459.85077,0.19376
1461.77924,0.18626
1463.70771,0.18481
1465.63618,0.18651
1467.56465,0.18881
1469.49312,0.19438
1471.42159,0.20631
1473.35006,0.21354
1475.27852,0.20432
1477.20699,0.19294
1479.13546,0.18641
1481.06393,0.18344
1482.99240,0.18272
1484.92087,0.18443
1486.84934,0.18875
1488.77780,0.19266
1490.70627,0.18875
1492.63474,0.18163
1494.56321,0.18088
1496.49168,0.18756
1498.42015,0.19518
1500.34862,0.19722
1502.27709,0.19639
1504.20555,0.19992
1506.13402,0.21442
1508.06249,0.21815
1509.99096,0.20104
1511.91943,0.18808
1513.84790,0.18577
1515.77637,0.19268
1517.70483,0.20272
1519.63330,0.21469
1521.56177,0.22488
1523.49024,0.22122
1525.41871,0.21185
1527.34718,0.20162
1529.27565,0.19492
1531.20412,0.19663
1533.13258,0.20300
1535.06105,0.20590
1536.98952,0.20853
1538.91799,0.21858
1540.84646,0.22997
1542.77493,0.22686
1544.70340,0.21472
1546.63186,0.20177
1548.56033,0.19605
1550.48880,0.19749
1552.41727,0.20326
1554.34574,0.21323
1556.27421,0.22746
1558.20268,0.23768
1560.13115,0.21507
1562.05961,0.19619
1563.98808,0.19091
1565.91655,0.18996
1567.84502,0.19262
1569.77349,0.19561
1571.70196,0.19446
1573.63043,0.19715
1575.55889,0.20498
1577.48736,0.20493
1579.41583,0.19884
1581.34430,0.19538
1583.27277,0.19189
1585.20124,0.18675
1587.12971,0.18302
1589.05818,0.18238
1590.98664,0.18479
1592.91511,0.18865
1594.84358,0.18957
1596.77205,0.18673
1598.70052,0.18586
1600.62899,0.18961
1602.55746,0.19249
1604.48592,0.18982
1606.41439,0.18574
1608.34286,0.18524
1610.27133,0.18786
1612.19980,0.19269
1614.12827,0.20014
1616.05674,0.20784
1617.98521,0.20742
1619.91367,0.20306
1621.84214,0.20157
1623.77061,0.19978
1625.69908,0.19793
1627.62755,0.19702
1629.55602,0.19426
1631.48449,0.19391
1633.41295,0.20200
1635.34142,0.21651
1637.26989,0.21653
1639.19836,0.20603
1641.12683,0.19884
1643.05530,0.19659
1644.98377,0.20076
1646.91223,0.20950
1648.84070,0.21541
1650.76917,0.22475
1652.69764,0.24050
1654.62611,0.22781
1656.55458,0.20634
1658.48305,0.19823
1660.41152,0.19960
1662.33998,0.20415
1664.26845,0.20328
1666.19692,0.20325
1668.12539,0.21310
1670.05386,0.22114
1671.98233,0.21315
1673.91080,0.20321
1675.83926,0.19652
1677.76773,0.19433
1679.69620,0.19907
1681.62467,0.21134
1683.55314,0.22692
1685.48161,0.22289
1687.41008,0.20762
1689.33855,0.19826
1691.26701,0.19526
1693.19548,0.19973
1695.12395,0.21041
1697.05242,0.21711
1698.98089,0.21531
1700.90936,0.21031
1702.83783,0.20655
1704.76629,0.20669
1706.69476,0.20557
1708.62323,0.19930
1710.55170,0.19312
1712.48017,0.19277
1714.40864,0.20006
1716.33711,0.20852
1718.26558,0.20430
1720.19404,0.19429
1722.12251,0.18873
1724.05098,0.18659
1725.97945,0.18734
1727.90792,0.19066
1729.83639,0.19456
1731.76486,0.19910
1733.69332,0.20200
1735.62179,0.19946
1737.55026,0.20187
1739.47873,0.20801
1741.40720,0.20603
1743.33567,0.19931
1745.26414,0.19906
1747.19261,0.20431
1749.12107,0.20932
1751.04954,0.20763
1752.97801,0.20138
1754.90648,0.19839
1756.83495,0.19597
1758.76342,0.19284
1760.69189,0.19481
1762.62035,0.19694
1764.54882,0.19381
1766.47729,0.19335
1768.40576,0.19967
1770.33423,0.20859
1772.26270,0.21203
1774.19117,0.20523
1776.11964,0.19757
1778.04810,0.19498
1779.97657,0.19587
1781.90504,0.19712
1783.83351,0.19706
1785.76198,0.19421
1787.69045,0.19165
1789.61892,0.19473
1791.54738,0.20225
1793.47585,0.20494
1795.40432,0.20080
1797.33279,0.19681
1799.26126,0.19532
1801.18973,0.19355
1803.11820,0.19004
1805.04666,0.18755
1806.97513,0.18777
1808.90360,0.19011
1810.83207,0.19204
1812.76054,0.19199
1814.68901,0.19239
1816.61748,0.19256
1818.54595,0.18687
1820.47441,0.18000
1822.40288,0.18340
1824.33135,0.19225
1826.25982,0.19583
1828.18829,0.19862
1830.11676,0.20125
1832.04523,0.19869
1833.97369,0.19552
1835.90216,0.19440
1837.83063,0.19318
1839.75910,0.19209
1841.68757,0.19446
1843.61604,0.19731
1845.54451,0.19359
1847.47298,0.18843
1849.40144,0.18732
1851.32991,0.18878
1853.25838,0.19068
1855.18685,0.19135
1857.11532,0.18961
1859.04379,0.18769
1860.97226,0.18839
1862.90072,0.19041
1864.82919,0.19298
1866.75766,0.19685
1868.68613,0.19734
1870.61460,0.19223
1872.54307,0.18886
1874.47154,0.19014
1876.40001,0.19342
1878.32847,0.19394
1880.25694,0.19220
1882.18541,0.19263
1884.11388,0.19395
1886.04235,0.19418
1887.97082,0.19505
1889.89929,0.19588
1891.82775,0.19559
1893.75622,0.19533
1895.68469,0.19444
1897.61316,0.19214
1899.54163,0.19032
1901.47010,0.19085
1903.39857,0.19240
1905.32704,0.19363
1907.25550,0.19518
1909.18397,0.19527
1911.11244,0.19312
1913.04091,0.19228
1914.96938,0.19458
1916.89785,0.19697
1918.82632,0.19604
1920.75478,0.19541
1922.68325,0.19599
1924.61172,0.19469
1926.54019,0.19365
1928.46866,0.19274
1930.39713,0.19024
1932.32560,0.18959
1934.25407,0.19204
1936.18253,0.19328
1938.11100,0.19285
1940.03947,0.19468
1941.96794,0.19789
1943.89641,0.19864
1945.82488,0.19627
1947.75335,0.19209
1949.68181,0.18872
1951.61028,0.18807
1953.53875,0.18923
1955.46722,0.19070
1957.39569,0.19125
1959.32416,0.19095
1961.25263,0.19116
1963.18110,0.19230
1965.10956,0.19346
1967.03803,0.19325
1968.96650,0.19153
1970.89497,0.18920
1972.82344,0.18818
1974.75191,0.19055
1976.68038,0.19275
1978.60884,0.19100
1980.53731,0.18960
1982.46578,0.19223
1984.39425,0.19488
1986.32272,0.19330
1988.25119,0.19072
1990.17966,0.19172
1992.10812,0.19376
1994.03659,0.19378
1995.96506,0.19284
1997.89353,0.19279
1999.82200,0.19464
2001.75047,0.19649
2003.67894,0.19606
2005.60741,0.19375
2007.53587,0.19231
2009.46434,0.19325
2011.39281,0.19348
2013.32128,0.19127
2015.24975,0.18964
2017.17822,0.19055
2019.10669,0.19171
2021.03515,0.19113
2022.96362,0.19001
2024.89209,0.18928
2026.82056,0.18962
2028.74903,0.19196
2030.67750,0.19364
2032.60597,0.19148
2034.53444,0.18831
2036.46290,0.18841
2038.39137,0.19121
2040.31984,0.19397
2042.24831,0.19495
2044.17678,0.19400
2046.10525,0.19347
2048.03372,0.19427
2049.96218,0.19325
2051.89065,0.19047
2053.81912,0.18971
2055.74759,0.19177
2057.67606,0.19439
2059.60453,0.19547
2061.53300,0.19510
2063.46147,0.19354
2065.38993,0.19241
2067.31840,0.19452
2069.24687,0.19743
2071.17534,0.19696
2073.10381,0.19380
2075.03228,0.19209
2076.96075,0.19274
2078.88921,0.19328
2080.81768,0.19419
2082.74615,0.19628
2084.67462,0.19865
2086.60309,0.20052
2088.53156,0.20053
2090.46003,0.19942
2092.38850,0.19808
2094.31696,0.19609
2096.24543,0.19476
2098.17390,0.19443
2100.10237,0.19449
2102.03084,0.19581
2103.95931,0.19809
2105.88778,0.19886
2107.81624,0.19782
2109.74471,0.19878
2111.67318,0.20196
2113.60165,0.20222
2115.53012,0.19929
2117.45859,0.19742
2119.38706,0.19799
2121.31553,0.19981
2123.24399,0.20119
2125.17246,0.20164
2127.10093,0.20170
2129.02940,0.20079
2130.95787,0.19948
2132.88634,0.19751
2134.81481,0.19029
2136.74327,0.18014
2138.67174,0.17885
2140.60021,0.18795
2142.52868,0.19580
2144.45715,0.19825
2146.38562,0.19987
2148.31409,0.19972
2150.24255,0.19651
2152.17102,0.19457
2154.09949,0.19460
2156.02796,0.19399
2157.95643,0.19431
2159.88490,0.19679
2161.81337,0.19841
2163.74184,0.19739
2165.67030,0.19534
2167.59877,0.19408
2169.52724,0.19433
2171.45571,0.19551
2173.38418,0.19646
2175.31265,0.19705
2177.24112,0.19747
2179.16958,0.19864
2181.09805,0.20139
2183.02652,0.20308
2184.95499,0.20070
2186.88346,0.19694
2188.81193,0.19663
2190.74040,0.19896
2192.66887,0.20008
2194.59733,0.19884
2196.52580,0.19664
2198.45427,0.19491
2200.38274,0.19343
2202.31121,0.19205
2204.23968,0.19112
2206.16815,0.19121
2208.09661,0.19269
2210.02508,0.19408
2211.95355,0.19464
2213.88202,0.19583
2215.81049,0.19724
2217.73896,0.19731
2219.66743,0.19700
2221.59590,0.19703
2223.52436,0.19549
2225.45283,0.19345
2227.38130,0.19429
2229.30977,0.19646
2231.23824,0.19709
2233.16671,0.19639
2235.09518,0.19524
2237.02364,0.19489
2238.95211,0.19631
2240.88058,0.19811
2242.80905,0.19836
2244.73752,0.19718
2246.66599,0.19628
2248.59446,0.19739
2250.52293,0.19954
2252.45139,0.20011
2254.37986,0.19887
2256.30833,0.19707
2258.23680,0.19558
2260.16527,0.19480
2262.09374,0.19445
2264.02221,0.19367
2265.95067,0.19278
2267.87914,0.19307
2269.80761,0.19495
2271.73608,0.19705
2273.66455,0.19702
2275.59302,0.19515
2277.52149,0.19387
2279.44996,0.19380
2281.37842,0.19402
2283.30689,0.19437
2285.23536,0.19553
2287.16383,0.19656
2289.09230,0.19576
2291.02077,0.19293
2292.94924,0.18752
2294.87770,0.18193
2296.80617,0.18359
2298.73464,0.19157
2300.66311,0.19566
2302.59158,0.19352
2304.52005,0.19040
2306.44852,0.18868
2308.37699,0.18695
2310.30545,0.18503
2312.23392,0.18540
2314.16239,0.18656
2316.09086,0.18650
2318.01933,0.18701
2319.94780,0.18735
2321.87627,0.18367
2323.80473,0.17314
2325.73320,0.16166
2327.66167,0.15975
2329.59014,0.17019
2331.51861,0.18639
2333.44708,0.19236
2335.37555,0.18591
2337.30401,0.18481
2339.23248,0.19066
2341.16095,0.19108
2343.08942,0.18912
2345.01789,0.18549
2346.94636,0.17898
2348.87483,0.17651
2350.80330,0.17724
2352.73176,0.17442
2354.66023,0.16834
2356.58870,0.17170
2358.51717,0.17427
2360.44564,0.15521
2362.37411,0.13741
2364.30258,0.14138
2366.23104,0.15171
2368.15951,0.15991
2370.08798,0.16767
2372.01645,0.17095
2373.94492,0.17243
2375.87339,0.17767
2377.80186,0.18405
2379.73033,0.18697
2381.65879,0.18778
2383.58726,0.19116
2385.51573,0.19664
2387.44420,0.19902
2389.37267,0.19781
2391.30114,0.19728
2393.22961,0.19736
2395.15807,0.19566
2397.08654,0.19438
2399.01501,0.19611
2400.94348,0.19884
2402.87195,0.19988
2404.80042,0.19975
2406.72889,0.20002
2408.65736,0.20044
2410.58582,0.20069
2412.51429,0.20136
2414.44276,0.20167
2416.37123,0.19967
2418.29970,0.19680
2420.22817,0.19764
2422.15664,0.20127
2424.08510,0.20293
2426.01357,0.20219
2427.94204,0.20117
2429.87051,0.20071
2431.79898,0.19968
2433.72745,0.19807
2435.65592,0.19731
2437.58439,0.19681
2439.51285,0.19657
2441.44132,0.19811
2443.36979,0.20109
2445.29826,0.20386
2447.22673,0.20476
2449.15520,0.20206
2451.08367,0.19875
2453.01213,0.20065
2454.94060,0.20455
2456.86907,0.20411
2458.79754,0.20225
2460.72601,0.20234
2462.65448,0.20289
2464.58295,0.20356
2466.51142,0.20363
2468.43988,0.20154
2470.36835,0.19847
2472.29682,0.19847
2474.22529,0.20252
2476.15376,0.20532
2478.08223,0.20321
2480.01070,0.19881
2481.93916,0.19725
2483.86763,0.20019
2485.79610,0.20396
2487.72457,0.20466
2489.65304,0.20213
2491.58151,0.19914
2493.50998,0.19786
2495.43844,0.19782
2497.36691,0.19783
2499.29538,0.19747
2501.22385,0.19670
2503.15232,0.19700
2505.08079,0.19990
2507.00926,0.20364
2508.93773,0.20580
2510.86619,0.20573
2512.79466,0.20374
2514.72313,0.20095
2516.65160,0.19841
2518.58007,0.19768
2520.50854,0.20034
2522.43701,0.20379
2524.36547,0.20422
2526.29394,0.20243
2528.22241,0.20168
2530.15088,0.20274
2532.07935,0.20402
2534.00782,0.20441
2535.93629,0.20325
2537.86476,0.20146
2539.79322,0.20080
2541.72169,0.20019
2543.65016,0.19909
2545.57863,0.19918
2547.50710,0.20028
2549.43557,0.20092
2551.36404,0.20064
2553.29250,0.19979
2555.22097,0.19978
2557.14944,0.20052
2559.07791,0.20085
2561.00638,0.20253
2562.93485,0.20460
2564.86332,0.20273
2566.79179,0.19956
2568.72025,0.20035
2570.64872,0.20300
2572.57719,0.20419
2574.50566,0.20420
2576.43413,0.20312
2578.36260,0.20170
2580.29107,0.20140
2582.21953,0.20115
2584.14800,0.20100
2586.07647,0.20310
2588.00494,0.20605
2589.93341,0.20711
2591.86188,0.20562
2593.79035,0.20272
2595.71882,0.20114
2597.64728,0.20095
2599.57575,0.19998
2601.50422,0.19992
2603.43269,0.20152
2605.36116,0.20301
2607.28963,0.20546
2609.21810,0.20225
2611.14656,0.18643
2613.07503,0.17735
2615.00350,0.19128
2616.93197,0.20759
2618.86044,0.20852
2620.78891,0.20382
2622.71738,0.20277
2624.64585,0.20479
2626.57431,0.20642
2628.50278,0.20592
2630.43125,0.20612
2632.35972,0.20689
2634.28819,0.20656
2636.21666,0.20700
2638.14513,0.20936
2640.07359,0.21076
2642.00206,0.20757
2643.93053,0.20339
2645.85900,0.20357
2647.78747,0.20579
2649.71594,0.20608
2651.64441,0.20538
2653.57288,0.20583
2655.50134,0.20649
2657.42981,0.20655
2659.35828,0.20678
2661.28675,0.20714
2663.21522,0.20677
2665.14369,0.20648
2667.07216,0.20763
2669.00062,0.20824
2670.92909,0.20725
2672.85756,0.20671
2674.78603,0.20665
2676.71450,0.20591
2678.64297,0.20505
2680.57144,0.20528
2682.49990,0.20659
2684.42837,0.20745
2686.35684,0.20752
2688.28531,0.20718
2690.21378,0.20565
2692.14225,0.20472
2694.07072,0.20758
2695.99919,0.21203
2697.92765,0.21378
2699.85612,0.21215
2701.78459,0.20930
2703.71306,0.20762
2705.64153,0.20745
2707.57000,0.20864
2709.49847,0.21053
2711.42693,0.21189
2713.35540,0.21335
2715.28387,0.21392
2717.21234,0.21190
2719.14081,0.20955
2721.06928,0.20870
2722.99775,0.20922
2724.92622,0.21095
2726.85468,0.21260
2728.78315,0.21305
2730.71162,0.21361
2732.64009,0.21493
2734.56856,0.21396
2736.49703,0.21029
2738.42550,0.20858
2740.35396,0.20902
2742.28243,0.20784
2744.21090,0.20685
2746.13937,0.20870
2748.06784,0.21097
2749.99631,0.21190
2751.92478,0.21234
2753.85325,0.21304
2755.78171,0.21407
2757.71018,0.21537
2759.63865,0.21741
2761.56712,0.21985
2763.49559,0.22076
2765.42406,0.21924
2767.35253,0.21703
2769.28099,0.21530
2771.20946,0.21452
2773.13793,0.21666
2775.06640,0.21966
2776.99487,0.21948
2778.92334,0.21822
2780.85181,0.21775
2782.78028,0.21712
2784.70874,0.21735
2786.63721,0.21876
2788.56568,0.21911
2790.49415,0.21642
2792.42262,0.21394
2794.35109,0.21432
2796.27956,0.21445
2798.20802,0.21349
2800.13649,0.21256
2802.06496,0.21312
2803.99343,0.21577
2805.92190,0.21738
2807.85037,0.21743
2809.77884,0.21784
2811.70731,0.21929
2813.63577,0.22104
2815.56424,0.22115
2817.49271,0.21994
2819.42118,0.22005
2821.34965,0.22189
2823.27812,0.22171
2825.20659,0.22005
2827.13505,0.22086
2829.06352,0.22185
2830.99199,0.22164
2832.92046,0.22259
2834.84893,0.22417
2836.77740,0.22419
2838.70587,0.22166
2840.63433,0.21885
2842.56280,0.21916
2844.49127,0.22172
2846.41974,0.22381
2848.34821,0.22625
2850.27668,0.22815
2852.20515,0.22602
2854.13362,0.22081
2856.06208,0.21666
2857.99055,0.21714
2859.91902,0.21979
2861.84749,0.22028
2863.77596,0.22171
2865.70443,0.22480
2867.63290,0.22560
2869.56136,0.22571
2871.48983,0.22553
2873.41830,0.22237
2875.34677,0.21824
2877.27524,0.21629
2879.20371,0.21801
2881.13218,0.22158
2883.06065,0.22351
2884.98911,0.22449
2886.91758,0.22481
2888.84605,0.22424
2890.77452,0.22419
2892.70299,0.22366
2894.63146,0.22199
2896.55993,0.21978
2898.48839,0.21729
2900.41686,0.21684
2902.34533,0.22006
2904.27380,0.22433
2906.20227,0.22541
2908.13074,0.22280
2910.05921,0.22019
2911.98768,0.21909
2913.91614,0.21815
2915.84461,0.21747
2917.77308,0.21743
2919.70155,0.21730
2921.63002,0.21646
2923.55849,0.21423
2925.48696,0.21218
2927.41542,0.21357
2929.34389,0.21792
2931.27236,0.22174
2933.20083,0.22138
2935.12930,0.21700
2937.05777,0.21361
2938.98624,0.21322
2940.91471,0.21508
2942.84317,0.21832
2944.77164,0.22045
2946.70011,0.22141
2948.62858,0.22308
2950.55705,0.22442
2952.48552,0.22418
2954.41399,0.22102
2956.34245,0.21497
2958.27092,0.21336
2960.19939,0.21877
2962.12786,0.22465
2964.05633,0.22844
2965.98480,0.22964
2967.91327,0.22744
2969.84174,0.22469
2971.77020,0.22390
2973.69867,0.22591
2975.62714,0.23092
2977.55561,0.23452
2979.48408,0.23250
2981.41255,0.22883
2983.34102,0.22697
2985.26948,0.22508
2987.19795,0.22472
2989.12642,0.22940
2991.05489,0.23594
2992.98336,0.23689
2994.91183,0.23228
2996.84030,0.22900
2998.76877,0.22844
3000.69723,0.22863
3002.62570,0.22968
3004.55417,0.23058
3006.48264,0.22894
3008.41111,0.22499
3010.33958,0.22301
3012.26805,0.22212
3014.19651,0.21575
3016.12498,0.20831
3018.05345,0.21080
3019.98192,0.22067
3021.91039,0.22708
3023.83886,0.22784
3025.76733,0.22768
3027.69579,0.22967
3029.62426,0.23242
3031.55273,0.23281
3033.48120,0.23032
3035.40967,0.22696
3037.33814,0.22568
3039.26661,0.22688
3041.19508,0.22668
3043.12354,0.22343
3045.05201,0.22111
3046.98048,0.22302
3048.90895,0.22585
3050.83742,0.22522
3052.76589,0.22347
3054.69436,0.22295
3056.62282,0.22369
3058.55129,0.22815
3060.47976,0.23319
3062.40823,0.23206
3064.33670,0.22616
3066.26517,0.22025
3068.19364,0.21732
3070.12211,0.21883
3072.05057,0.22284
3073.97904,0.22516
3075.90751,0.22360
3077.83598,0.22091
3079.76445,0.22145
3081.69292,0.22501
3083.62139,0.22646
3085.54985,0.22382
3087.47832,0.22175
3089.40679,0.22376
3091.33526,0.22610
3093.26373,0.22404
3095.19220,0.22227
3097.12067,0.22631
3099.04914,0.23098
3100.97760,0.22996
3102.90607,0.22406
3104.83454,0.21869
3106.76301,0.21859
3108.69148,0.22428
3110.61995,0.22964
3112.54842,0.22949
3114.47688,0.22608
3116.40535,0.22172
3118.33382,0.21916
3120.26229,0.21943
3122.19076,0.21952
3124.11923,0.22082
3126.04770,0.22502
3127.97617,0.22723
3129.90463,0.22389
3131.83310,0.22056
3133.76157,0.22182
3135.69004,0.22418
3137.61851,0.22592
3139.54698,0.22727
3141.47545,0.22889
3143.40391,0.23313
3145.33238,0.23483
3147.26085,0.22988
3149.18932,0.22627
3151.11779,0.22651
3153.04626,0.22487
3154.97473,0.22206
3156.90320,0.22337
3158.83166,0.22978
3160.76013,0.23702
3162.68860,0.24155
3164.61707,0.24064
3166.54554,0.23489
3168.47401,0.23050
3170.40248,0.23032
3172.33094,0.23042
3174.25941,0.22680
3176.18788,0.22386
3178.11635,0.22798
3180.04482,0.23679
3181.97329,0.24397
3183.90176,0.24530
3185.83022,0.24122
3187.75869,0.23621
3189.68716,0.23269
3191.61563,0.23160
3193.54410,0.23451
3195.47257,0.23934
3197.40104,0.24265
3199.32951,0.24143
3201.25797,0.23266
3203.18644,0.22343
3205.11491,0.22467
3207.04338,0.23199
3208.97185,0.23421
3210.90032,0.23174
3212.82879,0.23271
3214.75725,0.23684
3216.68572,0.23493
3218.61419,0.22720
3220.54266,0.22232
3222.47113,0.22406
3224.39960,0.23040
3226.32807,0.23461
3228.25654,0.23250
3230.18500,0.22751
3232.11347,0.22407
3234.04194,0.22423
3235.97041,0.22655
3237.89888,0.22714
3239.82735,0.22512
3241.75582,0.22271
3243.68428,0.22225
3245.61275,0.22315
3247.54122,0.22394
3249.46969,0.22614
3251.39816,0.22733
3253.32663,0.22480
3255.25510,0.22287
3257.18357,0.22365
3259.11203,0.22418
3261.04050,0.22416
3262.96897,0.22705
3264.89744,0.22890
3266.82591,0.22521
3268.75438,0.22332
3270.68285,0.22575
3272.61131,0.22718
3274.53978,0.22652
3276.46825,0.22559
3278.39672,0.22683
3280.32519,0.22756
3282.25366,0.22407
3284.18213,0.22111
3286.11060,0.22239
3288.03906,0.22540
3289.96753,0.22790
3291.89600,0.22807
3293.82447,0.22596
3295.75294,0.22585
3297.68141,0.22841
3299.60988,0.23008
3301.53834,0.23159
3303.46681,0.23157
3305.39528,0.22760
3307.32375,0.22581
3309.25222,0.22728
3311.18069,0.22696
3313.10916,0.22786
3315.03763,0.23291
3316.96609,0.23775
3318.89456,0.23834
3320.82303,0.23581
3322.75150,0.23396
3324.67997,0.23456
3326.60844,0.23750
3328.53691,0.24020
3330.46537,0.23777
3332.39384,0.23120
3334.32231,0.22806
3336.25078,0.23008
3338.17925,0.23318
3340.10772,0.23802
3342.03619,0.24323
3343.96466,0.24413
3345.89312,0.24181
3347.82159,0.23838
3349.75006,0.23604
3351.67853,0.23620
3353.60700,0.23562
3355.53547,0.23165
3357.46394,0.22608
3359.39240,0.22603
3361.32087,0.23450
3363.24934,0.24226
3365.17781,0.24245
3367.10628,0.23919
3369.03475,0.23665
3370.96322,0.23558
3372.89168,0.23589
3374.82015,0.23683
3376.74862,0.23492
3378.67709,0.22793
3380.60556,0.22172
3382.53403,0.22185
3384.46250,0.22688
3386.39097,0.23095
3388.31943,0.23009
3390.24790,0.22894
3392.17637,0.23004
3394.10484,0.23082
3396.03331,0.23381
3397.96178,0.23745
3399.89025,0.23542
3401.81871,0.23028
3403.74718,0.22625
3405.67565,0.22407
3407.60412,0.22582
3409.53259,0.22975
3411.46106,0.23033
3413.38953,0.22879
3415.31800,0.22931
3417.24646,0.23051
3419.17493,0.23094
3421.10340,0.23057
3423.03187,0.22841
3424.96034,0.22533
3426.88881,0.22233
3428.81728,0.21928
3430.74574,0.21720
3432.67421,0.21666
3434.60268,0.21713
3436.53115,0.21815
3438.45962,0.21768
3440.38809,0.21792
3442.31656,0.22225
3444.24503,0.22595
3446.17349,0.22666
3448.10196,0.22658
3450.03043,0.22382
3451.95890,0.21869
3453.88737,0.21555
3455.81584,0.21482
3457.74431,0.21424
3459.67277,0.21376
3461.60124,0.21245
3463.52971,0.20772
3465.45818,0.20290
3467.38665,0.20514
3469.31512,0.21000
3471.24359,0.21063
3473.17206,0.21125
3475.10052,0.21101
3477.02899,0.20761
3478.95746,0.20760
3480.88593,0.20917
3482.81440,0.20446
3484.74287,0.19773
3486.67134,0.19510
3488.59980,0.19535
3490.52827,0.19607
3492.45674,0.19699
3494.38521,0.20046
3496.31368,0.20532
3498.24215,0.20626
3500.17062,0.20297
3502.09909,0.20061
3504.02755,0.20381
3505.95602,0.20769
3507.88449,0.20613
3509.81296,0.20377
3511.74143,0.20213
3513.66990,0.19743
3515.59837,0.19439
3517.52683,0.19444
3519.45530,0.19372
3521.38377,0.19393
3523.31224,0.19336
3525.24071,0.18931
3527.16918,0.18767
3529.09765,0.18913
3531.02611,0.18769
3532.95458,0.18588
3534.88305,0.18700
3536.81152,0.18747
3538.73999,0.18594
3540.66846,0.18638
3542.59693,0.18939
3544.52540,0.19059
3546.45386,0.18821
3548.38233,0.18655
3550.31080,0.18845
3552.23927,0.18853
3554.16774,0.18162
3556.09621,0.17411
3558.02468,0.17120
3559.95314,0.17025
3561.88161,0.17028
3563.81008,0.17566
3565.73855,0.18544
3567.66702,0.18697
3569.59549,0.17869
3571.52396,0.17322
3573.45243,0.17253
3575.38089,0.17278
3577.30936,0.17172
3579.23783,0.16837
3581.16630,0.16493
3583.09477,0.16616
3585.02324,0.17222
3586.95171,0.17783
3588.88017,0.17424
3590.80864,0.16732
3592.73711,0.16642
3594.66558,0.16914
3596.59405,0.17028
3598.52252,0.17127
3600.45099,0.17115
3602.37946,0.16621
3604.30792,0.16082
3606.23639,0.16095
3608.16486,0.16439
3610.09333,0.16474
3612.02180,0.16634
3613.95027,0.16985
3615.87874,0.16688
3617.80720,0.16380
3619.73567,0.16688
3621.66414,0.16616
3623.59261,0.16266
3625.52108,0.16187
3627.44955,0.16382
3629.37802,0.16581
3631.30649,0.16172
3633.23495,0.15509
3635.16342,0.15036
3637.09189,0.14747
3639.02036,0.14633
3640.94883,0.14905
3642.87730,0.15385
3644.80577,0.15706
3646.73423,0.16062
3648.66270,0.16604
3650.59117,0.16282
3652.51964,0.15403
3654.44811,0.14867
3656.37658,0.14779
3658.30505,0.14855
3660.23352,0.14749
3662.16198,0.14713
3664.09045,0.14833
3666.01892,0.14928
3667.94739,0.15292
3669.87586,0.15748
3671.80433,0.15430
3673.73280,0.15130
3675.66126,0.15210
3677.58973,0.15135
3679.51820,0.14959
3681.44667,0.14811
3683.37514,0.14934
3685.30361,0.15487
3687.23208,0.16168
3689.16055,0.16467
3691.08901,0.15990
3693.01748,0.14977
3694.94595,0.14209
3696.87442,0.14014
3698.80289,0.14060
3700.73136,0.14196
3702.65983,0.14207
3704.58829,0.13876
3706.51676,0.13506
3708.44523,0.13339
3710.37370,0.13720
3712.30217,0.14434
3714.23064,0.14631
3716.15911,0.14573
3718.08757,0.14304
3720.01604,0.13511
3721.94451,0.12990
3723.87298,0.13730
3725.80145,0.14616
3727.72992,0.14618
3729.65839,0.14473
3731.58686,0.14888
3733.51532,0.15921
3735.44379,0.16640
3737.37226,0.16080
3739.30073,0.15235
3741.22920,0.14891
3743.15767,0.14897
3745.08614,0.15210
3747.01460,0.15835
3748.94307,0.16441
3750.87154,0.16459
3752.80001,0.15479
3754.72848,0.14535
3756.65695,0.14192
3758.58542,0.14397
3760.51389,0.14352
3762.44235,0.13812
3764.37082,0.13524
3766.29929,0.13844
3768.22776,0.14391
3770.15623,0.14535
3772.08470,0.14036
3774.01317,0.13409
3775.94163,0.13273
3777.87010,0.13775
3779.79857,0.14161
3781.72704,0.13867
3783.65551,0.13464
3785.58398,0.13342
3787.51245,0.13403
3789.44092,0.13310
3791.36938,0.13061
3793.29785,0.13237
3795.22632,0.14082
3797.15479,0.14946
3799.08326,0.15525
3801.01173,0.15929
3802.94020,0.15386
3804.86866,0.14632
3806.79713,0.14359
3808.72560,0.14059
3810.65407,0.13617
3812.58254,0.13360
3814.51101,0.13492
3816.43948,0.13826
3818.36795,0.14045
3820.29641,0.14299
3822.22488,0.14276
3824.15335,0.14017
3826.08182,0.13938
3828.01029,0.13930
3829.93876,0.13790
3831.86723,0.13632
3833.79569,0.13742
3835.72416,0.14231
3837.65263,0.14919
3839.58110,0.15201
3841.50957,0.15200
3843.43804,0.14944
3845.36651,0.14144
3847.29498,0.13511
3849.22344,0.13708
3851.15191,0.14643
3853.08038,0.15115
3855.00885,0.14252
3856.93732,0.13820
3858.86579,0.13626
3860.79426,0.13647
3862.72272,0.14155
3864.65119,0.14375
3866.57966,0.14100
3868.50813,0.14094
3870.43660,0.14031
3872.36507,0.13729
3874.29354,0.13667
3876.22200,0.13907
3878.15047,0.14629
3880.07894,0.15526
3882.00741,0.15072
3883.93588,0.13394
3885.86435,0.12106
3887.79282,0.11781
3889.72129,0.11890
3891.64975,0.12232
3893.57822,0.12236
3895.50669,0.12138
3897.43516,0.12638
3899.36363,0.13412
3901.29210,0.13611
3903.22057,0.13166
3905.14903,0.12433
3907.07750,0.11863
3909.00597,0.11747
3910.93444,0.11962
3912.86291,0.12054
3914.79138,0.11933
3916.71985,0.12163
3918.64832,0.12489
3920.57678,0.12268
3922.50525,0.11943
3924.43372,0.11672
3926.36219,0.11410
3928.29066,0.11356
3930.21913,0.11419
3932.14760,0.11281
3934.07606,0.10990
3936.00453,0.11061
3937.93300,0.11301
3939.86147,0.11490
3941.78994,0.11826
3943.71841,0.11880
3945.64688,0.11635
3947.57535,0.11753
3949.50381,0.12050
3951.43228,0.11865
3953.36075,0.11302
3955.28922,0.11101
3957.21769,0.11534
3959.14616,0.11904
3961.07463,0.11845
3963.00309,0.11609
3964.93156,0.11285
3966.86003,0.11188
3968.78850,0.11460
3970.71697,0.11533
3972.64544,0.11335
3974.57391,0.11239
3976.50238,0.10930
3978.43084,0.10562
3980.35931,0.10826
3982.28778,0.11287
3984.21625,0.11316
3986.14472,0.11247
3988.07319,0.11392
3990.00166,0.11335
3991.93012,0.10776
3993.85859,0.10289
3995.78706,0.10344
3997.71553,0.10706
3999.64400,0.11218
4001.57247,0.11795
4003.50094,0.11829
4005.42941,0.11241
4007.35787,0.10848
4009.28634,0.10814
4011.21481,0.10853
4013.14328,0.11042
4015.07175,0.11209
4017.00022,0.11081
4018.92869,0.10927
4020.85715,0.10936
4022.78562,0.10803
4024.71409,0.10357
4026.64256,0.09824
4028.57103,0.09593
4030.49950,0.09731
4032.42797,0.10209
4034.35644,0.10915
4036.28490,0.11146
4038.21337,0.10726
4040.14184,0.10183
4042.07031,0.09607
4043.99878,0.09337
4045.92725,0.09617
4047.85572,0.09712
4049.78418,0.09375
4051.71265,0.09336
4053.64112,0.09964
4055.56959,0.10447
4057.49806,0.10069
4059.42653,0.09417
4061.35500,0.09063
4063.28346,0.08991
4065.21193,0.09306
4067.14040,0.09684
4069.06887,0.09492
4070.99734,0.09013
4072.92581,0.08799
4074.85428,0.08852
4076.78275,0.09187
4078.71121,0.09667
4080.63968,0.09809
4082.56815,0.09616
4084.49662,0.09551
4086.42509,0.09641
4088.35356,0.09726
4090.28203,0.09541
4092.21049,0.08926
4094.13896,0.08626
4096.06743,0.09031
4097.99590,0.09481
4099.92437,0.09585
4101.85284,0.09558
4103.78131,0.09494
4105.70978,0.09566
4107.63824,0.09972
4109.56671,0.10178
4111.49518,0.09834
4113.42365,0.09217
4115.35212,0.08714
4117.28059,0.08434
4119.20906,0.08128
4121.13752,0.07983
4123.06599,0.08206
4124.99446,0.08532
4126.92293,0.08827
4128.85140,0.09052
4130.77987,0.09110
4132.70834,0.09105
4134.63681,0.09029
4136.56527,0.08536
4138.49374,0.07705
4140.42221,0.07013
4142.35068,0.06724
4144.27915,0.06830
4146.20762,0.07224
4148.13609,0.07818
4150.06455,0.08312
4151.99302,0.08475
4153.92149,0.08526
4155.84996,0.08519
4157.77843,0.08181
4159.70690,0.07799
4161.63537,0.07764
4163.56384,0.07711
4165.49230,0.07531
4167.42077,0.07421
4169.34924,0.07384
4171.27771,0.07550
4173.20618,0.07681
4175.13465,0.07843
4177.06312,0.08508
4178.99158,0.09085
4180.92005,0.08916
4182.84852,0.08188
4184.77699,0.07342
4186.70546,0.06930
4188.63393,0.07115
4190.56240,0.07405
4192.49087,0.07345
4194.41933,0.07152
4196.34780,0.07251
4198.27627,0.07409
4200.20474,0.07341
4202.13321,0.07303
4204.06168,0.07123
4205.99015,0.06768
4207.91861,0.06950
4209.84708,0.07455
4211.77555,0.07542
4213.70402,0.07234
4215.63249,0.06634
4217.56096,0.05974
4219.48943,0.05890
4221.41789,0.06512
4223.34636,0.07056
4225.27483,0.06968
4227.20330,0.06493
4229.13177,0.06202
4231.06024,0.06480
4232.98871,0.06859
4234.91718,0.06878
4236.84564,0.06741
4238.77411,0.06535
4240.70258,0.06172
4242.63105,0.05808
4244.55952,0.05788
4246.48799,0.06060
4248.41646,0.06406
4250.34492,0.06829
4252.27339,0.07043
4254.20186,0.06705
4256.13033,0.06230
4258.05880,0.06332
4259.98727,0.06624
4261.91574,0.06292
4263.84421,0.05574
4265.77267,0.05137
4267.70114,0.05142
4269.62961,0.05215
4271.55808,0.05077
4273.48655,0.04935
4275.41502,0.05079
4277.34349,0.05544
4279.27195,0.06072
4281.20042,0.06422
4283.12889,0.06463
4285.05736,0.05950
4286.98583,0.05014
4288.91430,0.04259
4290.84277,0.04046
4292.77124,0.04330
4294.69970,0.04878
4296.62817,0.05179
4298.55664,0.04867
4300.48511,0.04469
4302.41358,0.04647
4304.34205,0.05261
4306.27052,0.05729
4308.19898,0.05557
4310.12745,0.04973
4312.05592,0.04612
4313.98439,0.04532
4315.91286,0.04679
4317.84133,0.04937
4319.76980,0.04792
4321.69827,0.04136
4323.62673,0.03310
4325.55520,0.02909
4327.48367,0.03402
4329.41214,0.04280
4331.34061,0.04831
4333.26908,0.05091
4335.19755,0.05184
4337.12601,0.04866
4339.05448,0.04178
4340.98295,0.03703
4342.91142,0.03920
4344.83989,0.04348
4346.76836,0.04190
4348.69683,0.03654
4350.62530,0.03425
4352.55376,0.03597
4354.48223,0.03749
4356.41070,0.03698
4358.33917,0.03334
4360.26764,0.02642
4362.19611,0.02129
4364.12458,0.02329
4366.05304,0.03350
4367.98151,0.04149
4369.90998,0.03780
4371.83845,0.03299
4373.76692,0.03540
4375.69539,0.03699
4377.62386,0.03448
4379.55232,0.03388
4381.48079,0.03676
4383.40926,0.03973
4385.33773,0.03875
4387.26620,0.03118
4389.19467,0.02110
4391.12314,0.01823
4393.05161,0.02466
4394.98007,0.02979
4396.90854,0.02490
4398.83701,0.01496
4400.76548,0.01186
4402.69395,0.01892
4404.62242,0.02665
4406.55089,0.02701
4408.47935,0.02144
4410.40782,0.01629
4412.33629,0.01833
4414.26476,0.02525
4416.19323,0.02663
4418.12170,0.02144
4420.05017,0.01785
4421.97864,0.01875
4423.90710,0.01819
4425.83557,0.01242
4427.76404,0.00869
4429.69251,0.00939
4431.62098,0.00740
4433.54945,0.00608
4435.47792,0.01293
4437.40638,0.02230
4439.33485,0.02435
4441.26332,0.01910
4443.19179,0.01427
4445.12026,0.01205
4447.04873,0.01010
4448.97720,0.01186
4450.90567,0.01709
4452.83413,0.01637
4454.76260,0.00973
4456.69107,0.00775
4458.61954,0.01145
4460.54801,0.01290
4462.47648,0.01101
4464.40495,0.01174
4466.33341,0.01635
4468.26188,0.01971
4470.19035,0.01687
4472.11882,0.01091
4474.04729,0.00831
4475.97576,0.00742
4477.90423,0.00732
4479.83270,0.01191
4481.76116,0.01920
4483.68963,0.02221
4485.61810,0.01755
4487.54657,0.01159
4489.47504,0.01045
4491.40351,0.01104
4493.33198,0.01188
4495.26044,0.01450
4497.18891,0.01593
4499.11738,0.01392
4501.04585,0.01016
4502.97432,0.00947
4504.90279,0.01396
4506.83126,0.01641
4508.75973,0.01410
4510.68819,0.01028
4512.61666,0.00409
4514.54513,-0.00119
4516.47360,-0.00068
4518.40207,0.00073
4520.33054,-0.00382
4522.25901,-0.00859
4524.18747,-0.00502
4526.11594,0.00057
4528.04441,-0.00048
4529.97288,-0.00443
4531.90135,-0.00627
4533.82982,-0.00704
4535.75829,-0.00567
4537.68676,-0.00356
4539.61522,-0.00576
4541.54369,-0.00922
4543.47216,-0.00863
4545.40063,-0.00383
4547.32910,0.00081
4549.25757,0.00218
4551.18604,0.00377
4553.11450,0.00509
4555.04297,0.00266
4556.97144,-0.00101
4558.89991,0.00005
4560.82838,0.00624
4562.75685,0.00886
4564.68532,0.00488
4566.61378,-0.00031
4568.54225,-0.00202
4570.47072,0.00296
4572.39919,0.00958
4574.32766,0.01173
4576.25613,0.01470
4578.18460,0.02241
4580.11307,0.02645
4582.04153,0.01653
4583.97000,0.00076
4585.89847,-0.00422
4587.82694,0.00068
4589.75541,0.00720
4591.68388,0.01104
4593.61235,0.00939
4595.54081,0.00474
4597.46928,0.00301
4599.39775,0.00987
4601.32622,0.01801
4603.25469,0.01980
4605.18316,0.01392
4607.11163,0.00733
4609.04010,0.00837
4610.96856,0.01129
4612.89703,0.01009
4614.82550,0.00820
4616.75397,0.00830
4618.68244,0.01228
4620.61091,0.01578
4622.53938,0.01359
4624.46784,0.00352
4626.39631,-0.01052
4628.32478,-0.01217
4630.25325,-0.00274
4632.18172,0.00020
4634.11019,0.00100
4636.03866,0.00568
4637.96713,0.00535
4639.89559,-0.00200
4641.82406,-0.00895
4643.75253,-0.01059
4645.68100,-0.00503
4647.60947,0.00639
4649.53794,0.01888
4651.46641,0.02630
4653.39487,0.02477
4655.32334,0.01667
4657.25181,0.00626
4659.18028,-0.00546
4661.10875,-0.01482
4663.03722,-0.01061
4664.96569,0.00395
4666.89416,0.01252
4668.82262,0.01857
4670.75109,0.02611
4672.67956,0.02292
4674.60803,0.00806
4676.53650,-0.00631
4678.46497,-0.01146
4680.39344,-0.00697
4682.32190,0.00051
4684.25037,0.00283
4686.17884,0.00197
4688.10731,0.00567
4690.03578,0.01315
4691.96425,0.02056
4693.89272,0.02675
4695.82119,0.02776
4697.74965,0.01758
4699.67812,0.00153
4701.60659,-0.00576
4703.53506,-0.00375
4705.46353,-0.00377
4707.39200,-0.00970
4709.32047,-0.01380
4711.24893,-0.00926
4713.17740,-0.00383
4715.10587,-0.00306
4717.03434,0.00067
4718.96281,0.00624
4720.89128,0.00736
4722.81975,0.00746
4724.74821,0.00653
4726.67668,0.00039
4728.60515,-0.00808
4730.53362,-0.01300
4732.46209,-0.00679
4734.39056,0.00938
4736.31903,0.01894
4738.24750,0.01822
4740.17596,0.01858
4742.10443,0.02018
4744.03290,0.01897
4745.96137,0.01438
4747.88984,0.00878
4749.81831,0.00582
4751.74678,0.00560
4753.67524,0.00969
4755.60371,0.01099
4757.53218,0.00331
4759.46065,0.00169
4761.38912,0.01034
4763.31759,0.00862
4765.24606,-0.00942
4767.17453,-0.02173
4769.10299,-0.01706
4771.03146,-0.01272
4772.95993,-0.01432
4774.88840,-0.00894
4776.81687,-0.00136
4778.74534,-0.00220
4780.67381,-0.00445
4782.60227,0.00087
4784.53074,0.00977
4786.45921,0.01463
4788.38768,0.01228
4790.31615,0.00622
4792.24462,0.00433
4794.17309,0.00613
4796.10156,0.00969
4798.03002,0.01346
4799.95849,0.01380
4801.88696,0.01596
4803.81543,0.01963
4805.74390,0.01599
4807.67237,0.00883
4809.60084,0.00517
4811.52930,0.00492
4813.45777,0.00670
4815.38624,0.00948
4817.31471,0.01121
4819.24318,0.00765
4821.17165,0.00223
4823.10012,0.00325
4825.02859,0.00998
4826.95705,0.01641
4828.88552,0.01706
4830.81399,0.01380
4832.74246,0.01027
4834.67093,0.00492
4836.59940,0.00212
4838.52787,0.00430
4840.45633,0.00598
4842.38480,0.00540
4844.31327,0.00176
4846.24174,-0.00763
4848.17021,-0.01750
4850.09868,-0.01394
4852.02715,-0.00094
4853.95562,0.00187
4855.88408,-0.00018
4857.81255,0.00413
4859.74102,0.00456
4861.66949,-0.00178
4863.59796,-0.00683
4865.52643,-0.00795
4867.45490,-0.00269
4869.38336,0.00533
4871.31183,0.00712
4873.24030,0.00211
4875.16877,0.00192
4877.09724,0.01159
4879.02571,0.01802
4880.95418,0.01426
4882.88265,0.00482
4884.81111,-0.00646
4886.73958,-0.01238
4888.66805,-0.00526
4890.59652,0.00590
4892.52499,0.00631
4894.45346,0.00064
4896.38193,-0.00301
4898.31039,-0.00842
4900.23886,-0.01096
4902.16733,-0.00212
4904.09580,0.00367
4906.02427,-0.00055
4907.95274,0.00450
4909.88121,0.01658
4911.80967,0.02090
4913.73814,0.02168
4915.66661,0.01993
4917.59508,0.01373
4919.52355,0.00468
4921.45202,-0.00759
4923.38049,-0.01380
4925.30896,-0.01191
4927.23742,-0.00902
4929.16589,-0.00536
4931.09436,-0.00109
4933.02283,0.00465
4934.95130,0.01194
4936.87977,0.02367
4938.80824,0.03428
4940.73670,0.03194
4942.66517,0.02409
4944.59364,0.01640
4946.52211,0.00678
4948.45058,-0.00093
4950.37905,-0.01006
4952.30752,-0.02106
4954.23599,-0.02592
4956.16445,-0.02457
4958.09292,-0.01850
4960.02139,-0.00684
4961.94986,0.00810
4963.87833,0.02123
4965.80680,0.02633
4967.73527,0.02599
4969.66373,0.02991
4971.59220,0.03379
4973.52067,0.03175
4975.44914,0.02886
4977.37761,0.01950
4979.30608,0.00334
4981.23455,-0.00238
4983.16302,0.00650
4985.09148,0.01555
4987.01995,0.01466
4988.94842,0.00631
4990.87689,-0.00275
4992.80536,-0.00217
4994.73383,0.01117
4996.66230,0.02260
4998.59076,0.01800
5000.51923,0.00767
5002.44770,0.01046
5004.37617,0.01985
5006.30464,0.02279
5008.23311,0.01964
5010.16158,0.01193
5012.09005,0.00615
5014.01851,0.00831
5015.94698,0.01614
5017.87545,0.02289
5019.80392,0.02038
5021.73239,0.00810
5023.66086,-0.00057
5025.58933,0.00311
5027.51779,0.00946
5029.44626,0.01407
5031.37473,0.01780
5033.30320,0.01350
5035.23167,0.00893
5037.16014,0.01263
5039.08861,0.01366
5041.01708,0.00806
5042.94554,0.00200
5044.87401,-0.00125
5046.80248,-0.00016
5048.73095,0.00299
5050.65942,-0.00006
5052.58789,-0.00572
5054.51636,-0.00184
5056.44482,0.00653
5058.37329,0.00988
5060.30176,0.00772
5062.23023,0.00420
5064.15870,-0.00107
5066.08717,-0.00655
5068.01564,-0.00199
5069.94410,0.01025
5071.87257,0.02429
5073.80104,0.03405
5075.72951,0.02715
5077.65798,0.01159
5079.58645,0.00354
5081.51492,-0.00052
5083.44339,-0.00031
5085.37185,0.01512
5087.30032,0.03055
5089.22879,0.02537
5091.15726,0.01881
5093.08573,0.02273
5095.01420,0.02500
5096.94267,0.03000
5098.87113,0.03335
5100.79960,0.02229
5102.72807,0.00689
5104.65654,-0.00211
5106.58501,-0.00256
5108.51348,0.00119
5110.44195,0.00160
5112.37042,0.00393
5114.29888,0.01355
5116.22735,0.02092
5118.15582,0.02097
5120.08429,0.02280
5122.01276,0.03112
5123.94123,0.03737
5125.86970,0.03405
5127.79816,0.02329
5129.72663,0.01312
5131.65510,0.01043
5133.58357,0.01574
5135.51204,0.02191
5137.44051,0.01599
5139.36898,-0.00142
5141.29745,-0.00764
5143.22591,0.00976
5145.15438,0.03716
5147.08285,0.05222
5149.01132,0.04605
5150.93979,0.03357
5152.86826,0.02787
5154.79673,0.02238
5156.72519,0.01717
5158.65366,0.02106
5160.58213,0.03143
5162.51060,0.03984
5164.43907,0.04144
5166.36754,0.03696
5168.29601,0.02850
5170.22448,0.02913
5172.15294,0.04339
5174.08141,0.04823
5176.00988,0.04117
5177.93835,0.03392
5179.86682,0.02095
5181.79529,0.00969
5183.72376,0.01481
5185.65222,0.02904
5187.58069,0.04280
5189.50916,0.05194
5191.43763,0.04694
5193.36610,0.02801
5195.29457,0.01138
5197.22304,0.01248
5199.15151,0.02321
5201.07997,0.02850
5203.00844,0.03502
5204.93691,0.04238
5206.86538,0.04250
5208.79385,0.04276
5210.72232,0.04169
5212.65079,0.03771
5214.57925,0.04366
5216.50772,0.05283
5218.43619,0.05202
5220.36466,0.05815
5222.29313,0.06766
5224.22160,0.04969
5226.15007,0.01682
5228.07854,0.00661
5230.00700,0.01589
5231.93547,0.02480
5233.86394,0.02504
5235.79241,0.02080
5237.72088,0.01903
5239.64935,0.02038
5241.57782,0.02357
5243.50628,0.03083
5245.43475,0.04315
5247.36322,0.05592
5249.29169,0.05736
5251.22016,0.04559
5253.14863,0.04218
5255.07710,0.05327
5257.00556,0.04692
5258.93403,0.01197
5260.86250,-0.01408
5262.79097,0.00210
5264.71944,0.04989
5266.64791,0.07924
5268.57638,0.06746
5270.50485,0.04750
5272.43331,0.04787
5274.36178,0.05454
5276.29025,0.05338
5278.21872,0.05218
5280.14719,0.05009
5282.07566,0.04191
5284.00413,0.03897
5285.93259,0.04586
5287.86106,0.05391
5289.78953,0.05537
5291.71800,0.04502
5293.64647,0.03343
5295.57494,0.04225
5297.50341,0.05800
5299.43188,0.04409
5301.36034,0.02131
5303.28881,0.02908
5305.21728,0.04697
5307.14575,0.05339
5309.07422,0.05853
5311.00269,0.06060
5312.93116,0.05502
5314.85962,0.05661
5316.78809,0.07447
5318.71656,0.08847
5320.64503,0.08221
5322.57350,0.06812
5324.50197,0.05547
5326.43044,0.04390
5328.35891,0.03632
5330.28737,0.03144
5332.21584,0.03367
5334.14431,0.05264
5336.07278,0.08199
5338.00125,0.09654
5339.92972,0.08230
5341.85819,0.06504
5343.78665,0.05547
5345.71512,0.04014
5347.64359,0.02768
5349.57206,0.03001
5351.50053,0.03399
5353.42900,0.02646
5355.35747,0.02872
5357.28594,0.05103
5359.21440,0.06440
5361.14287,0.05794
5363.07134,0.04501
5364.99981,0.04001
5366.92828,0.04417
5368.85675,0.04020
5370.78522,0.03880
5372.71368,0.05669
5374.64215,0.06382
5376.57062,0.04565
5378.49909,0.04107
5380.42756,0.05890
5382.35603,0.07817
5384.28450,0.08073
5386.21297,0.06688
5388.14143,0.05544
5390.06990,0.05045
5391.99837,0.05755
5393.92684,0.07221
5395.85531,0.06450
5397.78378,0.03664
5399.71225,0.01517
5401.64071,0.01875
5403.56918,0.04477
5405.49765,0.06616
5407.42612,0.06639
5409.35459,0.05858
5411.28306,0.06466
5413.21153,0.07711
5415.13999,0.07710
5417.06846,0.06710
5418.99693,0.05455
5420.92540,0.05648
5422.85387,0.07363
5424.78234,0.08899
5426.71081,0.10287
5428.63928,0.10404
5430.56774,0.07933
5432.49621,0.04524
5434.42468,0.01576
5436.35315,0.01301
5438.28162,0.03692
5440.21009,0.05786
5442.13856,0.06537
5444.06702,0.05847
5445.99549,0.03523
5447.92396,0.03019
5449.85243,0.06250
5451.78090,0.08419
5453.70937,0.07462
5455.63784,0.06962
5457.56631,0.08567
5459.49477,0.09516
5461.42324,0.08391
5463.35171,0.06944
5465.28018,0.07122
5467.20865,0.07634
5469.13712,0.06984
5471.06559,0.06784
5472.99405,0.06147
5474.92252,0.03009
5476.85099,0.00954
5478.77946,0.01865
5480.70793,0.02246
5482.63640,0.02224
5484.56487,0.04347
5486.49334,0.06935
5488.42180,0.07435
5490.35027,0.06896
5492.27874,0.06866
5494.20721,0.06859
5496.13568,0.06524
5498.06415,0.06638
5499.99262,0.06714
5501.92108,0.06240
5503.84955,0.06092
5505.77802,0.07261
5507.70649,0.10007
5509.63496,0.10773
5511.56343,0.07439
5513.49190,0.04598
5515.42037,0.05245
5517.34883,0.06046
5519.27730,0.04970
5521.20577,0.03863
5523.13424,0.04386
5525.06271,0.06465
5526.99118,0.08300
5528.91965,0.08848
5530.84811,0.08516
5532.77658,0.07532
5534.70505,0.06812
5536.63352,0.06930
5538.56199,0.07430
5540.49046,0.07969
5542.41893,0.08148
5544.34740,0.08928
5546.27586,0.10558
5548.20433,0.10431
5550.13280,0.08518
5552.06127,0.07337
5553.98974,0.06965
5555.91821,0.06479
5557.84668,0.06406
5559.77514,0.07000
5561.70361,0.08368
5563.63208,0.10175
5565.56055,0.10088
5567.48902,0.07119
5569.41749,0.03592
5571.34596,0.02457
5573.27443,0.04587
5575.20289,0.07530
5577.13136,0.08801
5579.05983,0.08743
5580.98830,0.08286
5582.91677,0.07560
5584.84524,0.06470
5586.77371,0.05416
5588.70217,0.05540
5590.63064,0.06231
5592.55911,0.05513
5594.48758,0.04340
5596.41605,0.04342
5598.34452,0.05158
5600.27299,0.06271
5602.20145,0.07155
5604.12992,0.06921
5606.05839,0.06122
5607.98686,0.05831
5609.91533,0.05517
5611.84380,0.05605
5613.77227,0.06962
5615.70074,0.08058
5617.62920,0.06931
5619.55767,0.03750
5621.48614,0.01598
5623.41461,0.03136
5625.34308,0.07481
5627.27155,0.11068
5629.20002,0.12393
5631.12848,0.12666
5633.05695,0.11387
5634.98542,0.09427
5636.91389,0.09051
5638.84236,0.08072
5640.77083,0.04993
5642.69930,0.03620
5644.62777,0.05501
5646.55623,0.07602
5648.48470,0.08274
5650.41317,0.07883
5652.34164,0.07154
5654.27011,0.07585
5656.19858,0.08305
5658.12705,0.06946
5660.05551,0.04011
5661.98398,0.01697
5663.91245,0.01364
5665.84092,0.03505
5667.76939,0.06733
5669.69786,0.08075
5671.62633,0.07301
5673.55480,0.07424
5675.48326,0.08860
5677.41173,0.09377
5679.34020,0.08399
5681.26867,0.06626
5683.19714,0.04565
5685.12561,0.03496
5687.05408,0.04411
5688.98254,0.06508
5690.91101,0.07992
5692.83948,0.07469
5694.76795,0.06837
5696.69642,0.07724
5698.62489,0.07654
5700.55336,0.07117
5702.48183,0.08043
5704.41029,0.08993
5706.33876,0.08754
5708.26723,0.07718
5710.19570,0.06464
5712.12417,0.04756
5714.05264,0.04274
5715.98111,0.05876
5717.90957,0.06953
5719.83804,0.07526
5721.76651,0.07918
5723.69498,0.07813
5725.62345,0.08563
5727.55192,0.08284
5729.48039,0.05790
5731.40886,0.04970
5733.33732,0.07512
5735.26579,0.11308
5737.19426,0.12773
5739.12273,0.10144
5741.05120,0.06659
5742.97967,0.06037
5744.90814,0.06820
5746.83660,0.06301
5748.76507,0.05152
5750.69354,0.05775
5752.62201,0.07820
5754.55048,0.09239
5756.47895,0.10298
5758.40742,0.10967
5760.33588,0.10192
5762.26435,0.07318
5764.19282,0.03447
5766.12129,0.02803
5768.04976,0.06954
5769.97823,0.11420
5771.90670,0.12259
5773.83517,0.11526
5775.76363,0.11978
5777.69210,0.12593
5779.62057,0.11861
5781.54904,0.10561
5783.47751,0.10391
5785.40598,0.12525
5787.33445,0.17585
5789.26291,0.21314
5791.19138,0.19223
5793.11985,0.14917
5795.04832,0.12675
5796.97679,0.12534
5798.90526,0.13341
5800.83373,0.13699
5802.76220,0.12629
5804.69066,0.10347
5806.61913,0.07711
5808.54760,0.05442
5810.47607,0.04858
5812.40454,0.07524
5814.33301,0.10798
5816.26148,0.09885
5818.18994,0.06210
5820.11841,0.04670
5822.04688,0.05372
5823.97535,0.06462
5825.90382,0.09397
5827.83229,0.12967
5829.76076,0.11434
5831.68923,0.06151
5833.61769,0.04354
5835.54616,0.07150
5837.47463,0.09971
5839.40310,0.10001
5841.33157,0.06889
5843.26004,0.02741
5845.18851,0.03068
5847.11697,0.08144
5849.04544,0.10667
5850.97391,0.09123
5852.90238,0.09387
5854.83085,0.10334
5856.75932,0.08478
5858.68779,0.08529
5860.61626,0.12201
5862.54472,0.13430
5864.47319,0.11694
5866.40166,0.09456
5868.33013,0.06886
5870.25860,0.06145
5872.18707,0.06037
5874.11554,0.02742
5876.04400,-0.00939
5877.97247,0.00406
5879.90094,0.07088
5881.82941,0.13923
5883.75788,0.14909
5885.68635,0.11913
5887.61482,0.08949
5889.54329,0.06832
5891.47175,0.06681
5893.40022,0.07745
5895.32869,0.09186
5897.25716,0.10647
5899.18563,0.10379
5901.11410,0.08649
5903.04257,0.08556
5904.97103,0.09870
5906.89950,0.08174
5908.82797,0.04540
5910.75644,0.03741
5912.68491,0.05830
5914.61338,0.08906
5916.54185,0.10621
5918.47032,0.10439
5920.39878,0.10696
5922.32725,0.10333
5924.25572,0.08318
5926.18419,0.07441
5928.11266,0.06917
5930.04113,0.05492
5931.96960,0.05697
5933.89806,0.08222
5935.82653,0.09785
5937.75500,0.08881
5939.68347,0.09660
5941.61194,0.12475
5943.54041,0.12411
5945.46888,0.10679
5947.39734,0.10644
5949.32581,0.11459
5951.25428,0.13531
5953.18275,0.14682
5955.11122,0.11274
5957.03969,0.08727
5958.96816,0.09699
5960.89663,0.08808
5962.82509,0.06517
5964.75356,0.06151
5966.68203,0.07266
5968.61050,0.07602
5970.53897,0.06029
5972.46744,0.04845
5974.39591,0.05241
5976.32437,0.05573
5978.25284,0.05997
5980.18131,0.06220
5982.10978,0.05520
5984.03825,0.04326
5985.96672,0.02828
5987.89519,0.03154
5989.82366,0.05561
5991.75212,0.05885
5993.68059,0.04142
5995.60906,0.05036
5997.53753,0.08471
5999.46600,0.11050
6001.39447,0.11314
6003.32294,0.10011
6005.25140,0.10939
6007.17987,0.12596
6009.10834,0.09574
6011.03681,0.02960
6012.96528,-0.00875
6014.89375,0.02586
6016.82222,0.09478
6018.75069,0.12845
6020.67915,0.11949
6022.60762,0.09503
6024.53609,0.08287
6026.46456,0.09972
6028.39303,0.13745
6030.32150,0.17494
6032.24997,0.19117
6034.17843,0.18590
6036.10690,0.16284
6038.03537,0.12249
6039.96384,0.09714
6041.89231,0.09224
6043.82078,0.07403
6045.74925,0.05400
6047.67772,0.06838
6049.60618,0.10402
6051.53465,0.12399
6053.46312,0.13036
6055.39159,0.13951
6057.32006,0.14624
6059.24853,0.14022
6061.17700,0.13423
6063.10546,0.12831
6065.03393,0.11469
6066.96240,0.10056
6068.89087,0.08367
6070.81934,0.06059
6072.74781,0.05093
6074.67628,0.08211
6076.60475,0.11798
6078.53321,0.13124
6080.46168,0.12973
6082.39015,0.08860
6084.31862,0.04212
6086.24709,0.03022
6088.17556,0.03037
6090.10403,0.04864
6092.03249,0.08713
6093.96096,0.11142
6095.88943,0.10774
6097.81790,0.09214
6099.74637,0.06568
6101.67484,0.01649
6103.60331,-0.02718
6105.53177,-0.01558
6107.46024,0.03948
6109.38871,0.07834
6111.31718,0.07932
6113.24565,0.06533
6115.17412,0.06453
6117.10259,0.06101
6119.03106,0.03163
6120.95952,0.02852
6122.88799,0.07406
6124.81646,0.11081
6126.74493,0.10818
6128.67340,0.08980
6130.60187,0.07700
6132.53034,0.07081
6134.45880,0.06065
6136.38727,0.04974
6138.31574,0.06382
6140.24421,0.08509
6142.17268,0.08051
6144.10115,0.07223
6146.02962,0.05877
6147.95809,0.02899
6149.88655,0.02038
6151.81502,0.05561
6153.74349,0.09452
6155.67196,0.08631
6157.60043,0.04102
6159.52890,0.00836
6161.45737,0.00596
6163.38583,0.00635
6165.31430,0.00703
6167.24277,0.03931
6169.17124,0.08550
6171.09971,0.08875
6173.02818,0.06753
6174.95665,0.07191
6176.88512,0.07235
6178.81358,0.06120
6180.74205,0.06037
6182.67052,0.06024
6184.59899,0.07484
6186.52746,0.10491
6188.45593,0.12483
6190.38440,0.13076
6192.31286,0.12127
6194.24133,0.10516
6196.16980,0.09831
6198.09827,0.08622
6200.02674,0.05348
6201.95521,0.02485
6203.88368,0.02297
6205.81215,0.02516
6207.74061,0.01726
6209.66908,0.01473
6211.59755,0.00613
6213.52602,-0.01242
6215.45449,-0.00894
6217.38296,0.02381
6219.31143,0.07331
6221.23989,0.11565
6223.16836,0.11828
6225.09683,0.08133
6227.02530,0.01967
6228.95377,-0.03603
6230.88224,-0.02951
6232.81071,0.05066
6234.73918,0.13188
6236.66764,0.15254
6238.59611,0.11331
6240.52458,0.05380
6242.45305,0.03395
6244.38152,0.06416
6246.30999,0.08687
6248.23846,0.06786
6250.16692,0.03957
6252.09539,0.05223
6254.02386,0.09475
6255.95233,0.12704
6257.88080,0.13579
6259.80927,0.11713
6261.73774,0.07432
6263.66621,0.02697
6265.59467,0.00973
6267.52314,0.03948
6269.45161,0.07242
6271.38008,0.08077
6273.30855,0.08153
6275.23702,0.07859
6277.16549,0.06417
6279.09395,0.05048
6281.02242,0.05349
6282.95089,0.06157
6284.87936,0.05881
6286.80783,0.05707
6288.73630,0.03249
6290.66477,-0.03141
6292.59323,-0.06689
6294.52170,-0.04871
6296.45017,-0.01331
6298.37864,0.03239
6300.30711,0.08570
6302.23558,0.09874
6304.16405,0.06868
6306.09252,0.07302
6308.02098,0.10158
6309.94945,0.11515
6311.87792,0.12745
6313.80639,0.10874
6315.73486,0.06994
6317.66333,0.05599
6319.59180,0.03241
6321.52026,-0.01314
6323.44873,-0.01060
6325.37720,0.04555
6327.30567,0.08766
6329.23414,0.08227
6331.16261,0.04255
6333.09108,0.02218
6335.01955,0.06963
6336.94801,0.11245
6338.87648,0.06102
6340.80495,0.00191
6342.73342,0.01011
6344.66189,0.00797
6346.59036,-0.03106
6348.51883,-0.05999
6350.44729,-0.05673
6352.37576,-0.01445
6354.30423,0.05995
6356.23270,0.13247
6358.16117,0.12467
6360.08964,0.05672
6362.01811,0.03565
6363.94658,0.03535
6365.87504,0.02850
6367.80351,0.06240
6369.73198,0.08814
6371.66045,0.06517
6373.58892,0.02400
6375.51739,0.00124
6377.44586,0.02941
6379.37432,0.08275
6381.30279,0.08058
6383.23126,0.02722
6385.15973,0.03185
6387.08820,0.06850
6389.01667,0.07797
6390.94514,0.11049
6392.87361,0.15566
6394.80207,0.11235
6396.73054,0.01451
6398.65901,-0.04423
6400.58748,-0.04134
6402.51595,0.02255
6404.44442,0.09081
6406.37289,0.11624
6408.30135,0.12020
6410.22982,0.08559
6412.15829,0.04805
6414.08676,0.06873
6416.01523,0.08720
6417.94370,0.05884
6419.87217,0.03629
6421.80064,0.04481
6423.72910,0.03467
6425.65757,-0.00818
6427.58604,-0.03930
6429.51451,-0.00109
6431.44298,0.09699
6433.37145,0.14241
6435.29992,0.12101
6437.22838,0.07040
6439.15685,0.01720
6441.08532,0.00806
6443.01379,0.00392
6444.94226,-0.01394
6446.87073,0.00090
6448.79920,0.03409
6450.72766,0.05405
6452.65613,0.04925
6454.58460,0.04274
6456.51307,0.05477
6458.44154,0.05771
6460.37001,0.03592
6462.29848,0.01672
6464.22695,0.05088
6466.15541,0.12387
6468.08388,0.13688
6470.01235,0.05896
6471.94082,-0.02565
6473.86929,-0.05297
6475.79776,-0.02591
6477.72623,0.00798
6479.65469,0.01518
6481.58316,0.02469
6483.51163,0.03585
6485.44010,0.03263
6487.36857,0.03676
6489.29704,0.06458
6491.22551,0.11542
6493.15398,0.14883
6495.08244,0.12396
6497.01091,0.06925
6498.93938,0.01483
6500.86785,-0.02879
6502.79632,-0.03876
6504.72479,-0.01503
6506.65326,0.01218
6508.58172,0.01002
6510.51019,-0.00787
6512.43866,-0.00543
6514.36713,0.01372
6516.29560,0.05722
6518.22407,0.08398
6520.15254,0.03095
6522.08101,-0.02990
6524.00947,-0.02435
6525.93794,0.03180
6527.86641,0.07949
6529.79488,0.04220
6531.72335,-0.03295
6533.65182,-0.03321
6535.58029,0.00979
6537.50875,0.02847
6539.43722,0.02595
6541.36569,0.02394
6543.29416,0.04510
6545.22263,0.06820
6547.15110,0.07816
6549.07957,0.12611
6551.00804,0.18445
6552.93650,0.15874
6554.86497,0.08220
6556.79344,0.05684
6558.72191,0.10146
6560.65038,0.12934
6562.57885,0.09707
6564.50732,0.07628
6566.43578,0.07642
6568.36425,0.03504
6570.29272,0.00308
6572.22119,0.02870
6574.14966,0.05938
6576.07813,0.07436
6578.00660,0.07752
6579.93507,0.04820
6581.86353,-0.02004
6583.79200,-0.06683
6585.72047,-0.02816
6587.64894,0.03100
6589.57741,0.00295
6591.50588,-0.07738
6593.43435,-0.07714
6595.36281,0.02272
6597.29128,0.11715
6599.21975,0.15151
6601.14822,0.12959
6603.07669,0.08889
6605.00516,0.04782
6606.93363,0.02907
6608.86210,0.02701
6610.79056,0.01542
6612.71903,0.03812
6614.64750,0.08683
6616.57597,0.07421
6618.50444,0.02839
6620.43291,0.03361
6622.36138,0.05929
6624.28984,0.07197
6626.21831,0.08902
6628.14678,0.07815
6630.07525,0.04076
6632.00372,0.07360
6633.93219,0.14033
6635.86066,0.11079
6637.78912,0.04485
6639.71759,0.01587
6641.64606,-0.04146
6643.57453,-0.05814
6645.50300,0.01355
6647.43147,0.04093
6649.35994,0.01396
6651.28841,0.02153
6653.21687,0.03521
6655.14534,0.00849
6657.07381,-0.00811
6659.00228,0.02271
6660.93075,0.04537
6662.85922,0.04865
6664.78769,0.05435
6666.71615,0.05542
6668.64462,0.04870
6670.57309,0.01481
6672.50156,-0.03741
6674.43003,-0.03704
6676.35850,0.01520
6678.28697,0.06952
6680.21544,0.10958
6682.14390,0.13811
6684.07237,0.15193
6686.00084,0.15261
6687.92931,0.14757
6689.85778,0.14425
6691.78625,0.14689
6693.71472,0.15185
6695.64318,0.16011
6697.57165,0.17444
6699.50012,0.18053
6701.42859,0.14704
6703.35706,0.09287
6705.28553,0.09186
6707.21400,0.11577
6709.14247,0.05947
6711.07093,-0.03233
6712.99940,-0.03325
6714.92787,0.04230
6716.85634,0.06678
6718.78481,0.04158
6720.71328,0.08661
6722.64175,0.15444
6724.57021,0.09986
6726.49868,-0.03492
6728.42715,-0.08947
6730.35562,0.00541
6732.28409,0.08865
6734.21256,0.03465
6736.14103,-0.04244
6738.06950,-0.06149
6739.99796,-0.02540
6741.92643,0.08027
6743.85490,0.15354
6745.78337,0.14200
6747.71184,0.13939
6749.64031,0.16887
6751.56878,0.14052
6753.49724,0.04127
6755.42571,-0.00726
6757.35418,0.01490
6759.28265,-0.00285
6761.21112,-0.01995
6763.13959,0.03273
6765.06806,0.04707
6766.99653,-0.00436
6768.92499,-0.02858
6770.85346,-0.01032
6772.78193,-0.02837
6774.71040,-0.07499
6776.63887,-0.06185
6778.56734,-0.03138
6780.49581,-0.05898
6782.42427,-0.06440
6784.35274,0.02129
6786.28121,0.10203
6788.20968,0.11603
6790.13815,0.11432
6792.06662,0.08719
6793.99509,0.00682
6795.92355,-0.07030
6797.85202,-0.09822
6799.78049,-0.05595
6801.70896,0.03983
6803.63743,0.10458
6805.56590,0.11370
6807.49437,0.06090
6809.42284,-0.06124
6811.35130,-0.12249
6813.27977,-0.03652
6815.20824,0.03630
6817.13671,0.02839
6819.06518,0.03346
6820.99365,0.07510
6822.92212,0.11797
6824.85058,0.10527
6826.77905,0.01959
6828.70752,-0.08738
6830.63599,-0.08867
6832.56446,0.04169
6834.49293,0.11894
6836.42140,0.00653
6838.34987,-0.09126
6840.27833,-0.01044
6842.20680,0.08653
6844.13527,0.11555
6846.06374,0.14315
6847.99221,0.13964
6849.92068,0.07241
6851.84915,0.05363
6853.77761,0.10260
6855.70608,0.12540
6857.63455,0.08552
6859.56302,0.03117
6861.49149,-0.01782
6863.41996,-0.03991
6865.34843,0.01829
6867.27690,0.13299
6869.20536,0.18201
6871.13383,0.14228
6873.06230,0.08281
6874.99077,0.07515
6876.91924,0.11370
6878.84771,0.12938
6880.77618,0.06216
6882.70464,-0.01758
6884.63311,-0.03650
6886.56158,-0.03808
6888.49005,-0.04562
6890.41852,-0.04126
6892.34699,-0.01232
6894.27546,0.04283
6896.20393,0.08987
6898.13239,0.08691
6900.06086,0.05587
6901.98933,0.04831
6903.91780,0.06773
6905.84627,0.10758
6907.77474,0.12052
6909.70321,0.09050
6911.63167,0.10268
6913.56014,0.17214
6915.48861,0.20378
6917.41708,0.15395
6919.34555,0.08435
6921.27402,0.05135
6923.20249,0.03004
6925.13096,0.00966
6927.05942,-0.01429
6928.98789,-0.03108
6930.91636,-0.02583
6932.84483,-0.01473
6934.77330,-0.02415
6936.70177,-0.00971
6938.63024,0.08252
6940.55870,0.13871
6942.48717,0.07127
6944.41564,0.00838
6946.34411,-0.02187
6948.27258,-0.05140
6950.20105,-0.07641
6952.12952,-0.10340
6954.05799,-0.10798
6955.98645,-0.05734
6957.91492,-0.01769
6959.84339,-0.02369
6961.77186,0.01069
6963.70033,0.10084
6965.62880,0.16745
6967.55727,0.16895
6969.48573,0.10777
6971.41420,0.03170
6973.34267,-0.01710
6975.27114,-0.08154
6977.19961,-0.15329
6979.12808,-0.13101
6981.05655,0.00716
6982.98501,0.15450
6984.91348,0.14544
6986.84195,0.01058
6988.77042,-0.06308
6990.69889,-0.03749
6992.62736,0.00194
6994.55583,0.00337
6996.48430,-0.01622
6998.41276,-0.00490
7000.34123,0.03374
7002.26970,0.04526
7004.19817,0.00944
7006.12664,0.01377
7008.05511,0.09365
7009.98358,0.11541
7011.91204,0.07760
7013.84051,0.07987
7015.76898,0.08398
7017.69745,0.04135
7019.62592,0.00606
7021.55439,0.01425
7023.48286,0.08324
7025.41133,0.16054
7027.33979,0.15824
7029.26826,0.11888
7031.19673,0.10887
7033.12520,0.11219
7035.05367,0.13591
7036.98214,0.15323
7038.91061,0.16032
7040.83907,0.18384
7042.76754,0.16239
7044.69601,0.08263
7046.62448,0.01568
7048.55295,0.00143
7050.48142,0.08046
7052.40989,0.17642
7054.33836,0.19236
7056.26682,0.14799
7058.19529,0.08267
7060.12376,0.04143
7062.05223,0.04375
7063.98070,0.08571
7065.90917,0.15659
7067.83764,0.19731
7069.76610,0.14289
7071.69457,0.05426
7073.62304,0.05248
7075.55151,0.06360
7077.47998,0.01234
7079.40845,-0.02247
7081.33692,0.01303
7083.26539,0.01978
7085.19385,0.00366
7087.12232,0.05891
7089.05079,0.11826
7090.97926,0.07673
7092.90773,0.06503
7094.83620,0.11782
7096.76467,0.05099
7098.69313,-0.09079
7100.62160,-0.09626
7102.55007,-0.01087
7104.47854,0.05990
7106.40701,0.03995
7108.33548,-0.00899
7110.26395,0.02569
7112.19242,0.04328
7114.12088,-0.00118
7116.04935,0.02445
7117.97782,0.11327
7119.90629,0.12102
7121.83476,0.09748
7123.76323,0.06305
7125.69170,-0.02947
7127.62016,-0.07029
7129.54863,0.00568
7131.47710,0.09826
7133.40557,0.12945
7135.33404,0.10810
7137.26251,0.08880
7139.19098,0.06977
7141.11944,0.03443
7143.04791,0.00128
7144.97638,-0.02698
7146.90485,-0.02589
7148.83332,0.02785
7150.76179,0.12470
7152.69026,0.18558
7154.61873,0.11643
7156.54719,0.03615
7158.47566,0.04286
7160.40413,0.02832
7162.33260,-0.06447
7164.26107,-0.12244
7166.18954,-0.06880
7168.11801,0.04258
7170.04647,0.16503
7171.97494,0.26836
7173.90341,0.33317
7175.83188,0.33384
7177.76035,0.22080
7179.68882,0.07707
7181.61729,0.02340
7183.54576,0.07797
7185.47422,0.13231
7187.40269,0.16444
7189.33116,0.18348
7191.25963,0.06834
7193.18810,-0.06889
7195.11657,-0.02103
7197.04504,0.04139
7198.97350,0.00206
7200.90197,-0.01511
7202.83044,0.05293
7204.75891,0.20159
7206.68738,0.28266
7208.61585,0.17227
7210.54432,0.01673
7212.47279,-0.03699
7214.40125,-0.00583
7216.32972,0.03555
7218.25819,-0.01081
7220.18666,-0.12314
7222.11513,-0.17653
7224.04360,-0.14983
7225.97207,-0.11209
7227.90053,-0.11786
7229.82900,-0.07612
7231.75747,0.02533
7233.68594,0.07038
7235.61441,0.08802
7237.54288,0.14238
7239.47135,0.13282
7241.39982,-0.09025
7243.32828,-0.25132
7245.25675,0.02739
7247.18522,0.31133
7249.11369,0.28276
7251.04216,0.14112
7252.97063,0.11986
7254.89910,0.14265
7256.82756,0.15768
7258.75603,0.19705
7260.68450,0.17749
7262.61297,0.06503
7264.54144,0.04019
7266.46991,0.05995
7268.39838,-0.03393
7270.32685,-0.11503
7272.25531,-0.03740
7274.18378,-0.02367
7276.11225,-0.12721
7278.04072,-0.20598
7279.96919,-0.23338
7281.89766,-0.16435
7283.82613,-0.03960
7285.75459,0.04136
7287.68306,0.07078
7289.61153,0.06257
7291.54000,0.02710
7293.46847,0.05686
7295.39694,0.14714
7297.32541,0.20345
7299.25387,0.18767
7301.18234,0.12081
7303.11081,0.13397
7305.03928,0.27345
7306.96775,0.35764
7308.89622,0.25268
7310.82469,0.09372
7312.75316,0.08781
7314.68162,0.20191
7316.61009,0.19879
7318.53856,0.01032
7320.46703,-0.06046
7322.39550,0.01089
7324.32397,0.04913
7326.25244,0.07682
7328.18090,0.13552
7330.10937,0.12904
7332.03784,0.01188
7333.96631,-0.08971
7335.89478,-0.08694
7337.82325,-0.04927
7339.75172,-0.11356
7341.68019,-0.21400
7343.60865,-0.19407
7345.53712,-0.20532
7347.46559,-0.20182
7349.39406,-0.01473
7351.32253,0.20304
7353.25100,0.27175
7355.17947,0.24354
7357.10793,0.17658
7359.03640,0.06747
7360.96487,-0.00130
7362.89334,0.03358
7364.82181,0.10936
7366.75028,0.10237
7368.67875,-0.02719
7370.60722,-0.16157
7372.53568,-0.21768
7374.46415,-0.11711
7376.39262,0.13155
7378.32109,0.25067
7380.24956,0.25715
7382.17803,0.24134
7384.10650,0.18676
7386.03496,0.02148
7387.96343,-0.10133
7389.89190,-0.07176
7391.82037,-0.04641
7393.74884,0.00880
7395.67731,0.09636
7397.60578,-0.00601
7399.53425,-0.18753
7401.46271,-0.21706
7403.39118,-0.16548
7405.31965,-0.17131
7407.24812,-0.12840
7409.17659,0.01711
7411.10506,0.17005
7413.03353,0.24555
7414.96199,0.21325
7416.89046,0.09362
7418.81893,0.01542
7420.74740,0.12628
7422.67587,0.21782
7424.60434,0.21244
7426.53281,0.22046
7428.46128,0.16690
7430.38974,0.06461
7432.31821,0.12677
7434.24668,0.25522
7436.17515,0.28940
7438.10362,0.15371
7440.03209,-0.02674
7441.96056,0.00534
7443.88902,0.11297
7445.81749,0.09336
7447.74596,0.08945
7449.67443,0.21211
7451.60290,0.25542
7453.53137,0.07118
7455.45984,-0.07488
7457.38831,-0.05862
7459.31677,0.04816
7461.24524,0.12226
7463.17371,0.11999
7465.10218,0.15885
7467.03065,0.28072
7468.95912,0.28559
7470.88759,0.12112
7472.81605,0.05087
7474.74452,0.17999
7476.67299,0.35730
7478.60146,0.46482
7480.52993,0.39876
7482.45840,0.19807
7484.38687,0.11418
7486.31533,0.13464
7488.24380,0.08902
7490.17227,0.01554
7492.10074,-0.03300
7494.02921,-0.08756
7495.95768,-0.11845
7497.88615,-0.13166
