399.19301,0.57213
401.12148,0.36540
403.04995,0.30514
404.97842,0.22417
406.90689,0.06908
408.83536,0.01443
410.76382,0.11362
412.69229,0.11737
414.62076,0.00512
416.54923,-0.02000
418.47770,0.05540
420.40617,0.05405
422.33464,0.00060
424.26311,0.01081
426.19157,0.06780
428.12004,0.13272
430.04851,0.14336
431.97698,0.02198
433.90545,-0.06334
435.83392,0.01151
437.76239,0.14833
439.69085,0.22155
441.61932,0.20896
443.54779,0.18435
445.47626,0.12001
447.40473,0.04106
449.33320,0.07028
451.26167,0.13392
453.19013,0.10160
455.11860,0.01252
457.04707,-0.04176
458.97554,-0.04625
460.90401,-0.01542
462.83248,0.02273
464.76095,0.03823
466.68942,0.05062
468.61788,0.08133
470.54635,0.12080
472.47482,0.13005
474.40329,0.10875
476.33176,0.10781
478.26023,0.08654
480.18870,0.09015
482.11716,0.14683
484.04563,0.17083
485.97410,0.12770
487.90257,0.06200
489.83104,0.01648
491.75951,0.00712
493.68798,0.00542
495.61645,0.01138
497.54491,0.03290
499.47338,0.05704
501.40185,0.08228
503.33032,0.10092
505.25879,0.10953
507.18726,0.10981
509.11573,0.11084
511.04419,0.12302
512.97266,0.12598
514.90113,0.10627
516.82960,0.09478
518.75807,0.09217
520.68654,0.06059
522.61501,0.04572
524.54348,0.08766
526.47194,0.11753
528.40041,0.09499
530.32888,0.06922
532.25735,0.06997
534.18582,0.07847
536.11429,0.07903
538.04276,0.06384
539.97122,0.04326
541.89969,0.04755
543.82816,0.05840
545.75663,0.06633
547.68510,0.09166
549.61357,0.10814
551.54204,0.10109
553.47051,0.08909
555.39897,0.07979
557.32744,0.07535
559.25591,0.07925
561.18438,0.08926
563.11285,0.09583
565.04132,0.09512
566.96979,0.08169
568.89825,0.05963
570.82672,0.05818
572.75519,0.08109
574.68366,0.08619
576.61213,0.06813
578.54060,0.06310
580.46907,0.06467
582.39754,0.07023
584.32600,0.08178
586.25447,0.06731
588.18294,0.03882
590.11141,0.04045
592.03988,0.05809
593.96835,0.05792
595.89682,0.05546
597.82528,0.07227
599.75375,0.09578
601.68222,0.10272
603.61069,0.08722
605.53916,0.06056
607.46763,0.04577
609.39610,0.06300
611.32456,0.09810
613.25303,0.12023
615.18150,0.12019
617.10997,0.10995
619.03844,0.10209
620.96691,0.09390
622.89538,0.08815
624.82385,0.09816
626.75231,0.10778
628.68078,0.09555
630.60925,0.08456
632.53772,0.09453
634.46619,0.10353
636.39466,0.09998
638.32313,0.09786
640.25159,0.10611
642.18006,0.12035
644.10853,0.12479
646.03700,0.11130
647.96547,0.09082
649.89394,0.08364
651.82241,0.09601
653.75088,0.10650
655.67934,0.10261
657.60781,0.09509
659.53628,0.09003
661.46475,0.08677
663.39322,0.08745
665.32169,0.09282
667.25016,0.09167
669.17862,0.08144
671.10709,0.08763
673.03556,0.08570
674.96403,0.06396
676.89250,0.05540
678.82097,0.07642
680.74944,0.10159
682.67791,0.11108
684.60637,0.11082
686.53484,0.10991
688.46331,0.11039
690.39178,0.10659
692.32025,0.10017
694.24872,0.11005
696.17719,0.12818
698.10565,0.13118
700.03412,0.12708
701.96259,0.12457
703.89106,0.11851
705.81953,0.11220
707.74800,0.11188
709.67647,0.11689
711.60494,0.12243
713.53340,0.12032
715.46187,0.10798
717.39034,0.09767
719.31881,0.10328
721.24728,0.11958
723.17575,0.12872
725.10422,0.12605
727.03268,0.11596
728.96115,0.11032
730.88962,0.12069
732.81809,0.13106
734.74656,0.12462
736.67503,0.11041
738.60350,0.09961
740.53197,0.10201
742.46043,0.11086
744.38890,0.10621
746.31737,0.09511
748.24584,0.08951
750.17431,0.08897
752.10278,0.09729
754.03125,0.10430
755.95971,0.10265
757.88818,0.10604
759.81665,0.11185
761.74512,0.11055
763.67359,0.10730
765.60206,0.10140
767.53053,0.09315
769.45900,0.09149
771.38746,0.09737
773.31593,0.10548
775.24440,0.11308
777.17287,0.11954
779.10134,0.12195
781.02981,0.11755
782.95828,0.11174
784.88674,0.11015
786.81521,0.10887
788.74368,0.10631
790.67215,0.10960
792.60062,0.11815
794.52909,0.11810
796.45756,0.11181
798.38602,0.11566
800.31449,0.12406
802.24296,0.12606
804.17143,0.12670
806.09990,0.12706
808.02837,0.11906
809.95684,0.10932
811.88531,0.10924
813.81377,0.11178
815.74224,0.11409
817.67071,0.12162
819.59918,0.12794
821.52765,0.12679
823.45612,0.12399
825.38459,0.12210
827.31305,0.11889
829.24152,0.11873
831.16999,0.12465
833.09846,0.13149
835.02693,0.13017
836.95540,0.12651
838.88387,0.13439
840.81234,0.14181
842.74080,0.13188
844.66927,0.11645
846.59774,0.10979
848.52621,0.10670
850.45468,0.10523
852.38315,0.11028
854.31162,0.11884
856.24008,0.12629
858.16855,0.13458
860.09702,0.13921
862.02549,0.13313
863.95396,0.12541
865.88243,0.12457
867.81090,0.11619
869.73937,0.09499
871.66783,0.09377
873.59630,0.11566
875.52477,0.12587
877.45324,0.12810
879.38171,0.13494
881.31018,0.13586
883.23865,0.12726
885.16711,0.11823
887.09558,0.11690
889.02405,0.11857
890.95252,0.11941
892.88099,0.12371
894.80946,0.12788
896.73793,0.12273
898.66640,0.11539
900.59486,0.11953
902.52333,0.13037
904.45180,0.13582
906.38027,0.13379
908.30874,0.12833
910.23721,0.12504
912.16568,0.12675
914.09414,0.12628
916.02261,0.11991
917.95108,0.11613
919.87955,0.11749
921.80802,0.11985
923.73649,0.12442
925.66496,0.13164
927.59343,0.13843
929.52189,0.14188
931.45036,0.13633
933.37883,0.12397
935.30730,0.11542
937.23577,0.11377
939.16424,0.11718
941.09271,0.12280
943.02117,0.12453
944.94964,0.11984
946.87811,0.11631
948.80658,0.12102
950.73505,0.13067
952.66352,0.13723
954.59199,0.13560
956.52045,0.12707
958.44892,0.11963
960.37739,0.12271
962.30586,0.13009
964.23433,0.13201
966.16280,0.13367
968.09127,0.13502
970.01974,0.12906
971.94820,0.12288
973.87667,0.12691
975.80514,0.13384
977.73361,0.13317
979.66208,0.12870
981.59055,0.12698
983.51902,0.12685
985.44748,0.12784
987.37595,0.13336
989.30442,0.14067
991.23289,0.14245
993.16136,0.13703
995.08983,0.12824
997.01830,0.12051
998.94677,0.11956
1000.87523,0.12749
1002.80370,0.13705
1004.73217,0.14060
1006.66064,0.13918
1008.58911,0.13743
1010.51758,0.13572
1012.44605,0.13344
1014.37451,0.13367
1016.30298,0.14042
1018.23145,0.14856
1020.15992,0.15030
1022.08839,0.14739
1024.01686,0.13955
1025.94533,0.12999
1027.87380,0.12809
1029.80226,0.13057
1031.73073,0.12583
1033.65920,0.11706
1035.58767,0.11758
1037.51614,0.12298
1039.44461,0.12575
1041.37308,0.13575
1043.30154,0.15123
1045.23001,0.15620
1047.15848,0.15136
1049.08695,0.14716
1051.01542,0.14286
1052.94389,0.13581
1054.87236,0.13222
1056.80083,0.13585
1058.72929,0.14063
1060.65776,0.14458
1062.58623,0.14790
1064.51470,0.14529
1066.44317,0.14112
1068.37164,0.13814
1070.30011,0.13299
1072.22857,0.13251
1074.15704,0.13662
1076.08551,0.13705
1078.01398,0.13525
1079.94245,0.13563
1081.87092,0.13826
1083.79939,0.14260
1085.72786,0.14706
1087.65632,0.14935
1089.58479,0.15022
1091.51326,0.15084
1093.44173,0.15227
1095.37020,0.15385
1097.29867,0.15470
1099.22714,0.15736
1101.15560,0.16027
1103.08407,0.16054
1105.01254,0.15901
1106.94101,0.15599
1108.86948,0.15337
1110.79795,0.15022
1112.72642,0.14449
1114.65489,0.14156
1116.58335,0.14360
1118.51182,0.14762
1120.44029,0.15074
1122.36876,0.14690
1124.29723,0.14138
1126.22570,0.14355
1128.15417,0.14794
1130.08263,0.14844
1132.01110,0.14489
1133.93957,0.14212
1135.86804,0.14265
1137.79651,0.14094
1139.72498,0.14160
1141.65345,0.15028
1143.58191,0.15692
1145.51038,0.15499
1147.43885,0.15039
1149.36732,0.14849
1151.29579,0.14987
1153.22426,0.15278
1155.15273,0.15517
1157.08120,0.15549
1159.00966,0.15541
1160.93813,0.15702
1162.86660,0.15527
1164.79507,0.14959
1166.72354,0.14764
1168.65201,0.14989
1170.58048,0.15291
1172.50894,0.15701
1174.43741,0.15945
1176.36588,0.15574
1178.29435,0.14908
1180.22282,0.14727
1182.15129,0.15198
1184.07976,0.15531
1186.00823,0.15171
1187.93669,0.14628
1189.86516,0.14657
1191.79363,0.15163
1193.72210,0.15243
1195.65057,0.14863
1197.57904,0.14754
1199.50751,0.14785
1201.43597,0.14840
1203.36444,0.15274
1205.29291,0.15734
1207.22138,0.15724
1209.14985,0.15583
1211.07832,0.15617
1213.00679,0.15589
1214.93526,0.15451
1216.86372,0.15436
1218.79219,0.15612
1220.72066,0.15861
1222.64913,0.15879
1224.57760,0.15608
1226.50607,0.15439
1228.43454,0.15600
1230.36300,0.15819
1232.29147,0.15581
1234.21994,0.15147
1236.14841,0.15191
1238.07688,0.15373
1240.00535,0.15102
1241.93382,0.14660
1243.86229,0.14613
1245.79075,0.14761
1247.71922,0.14759
1249.64769,0.14891
1251.57616,0.15095
1253.50463,0.15059
1255.43310,0.15020
1257.36157,0.15015
1259.29003,0.14756
1261.21850,0.14562
1263.14697,0.14824
1265.07544,0.15275
1267.00391,0.15632
1268.93238,0.15835
1270.86085,0.15852
1272.78932,0.15775
1274.71778,0.15746
1276.64625,0.15893
1278.57472,0.16093
1280.50319,0.15883
1282.43166,0.15565
1284.36013,0.15803
1286.28860,0.16088
1288.21706,0.16010
1290.14553,0.15969
1292.07400,0.15986
1294.00247,0.15900
1295.93094,0.15613
1297.85941,0.15000
1299.78788,0.14119
1301.71634,0.12840
1303.64481,0.11535
1305.57328,0.11903
1307.50175,0.14202
1309.43022,0.16126
1311.35869,0.16722
1313.28716,0.16887
1315.21563,0.16878
1317.14409,0.16723
1319.07256,0.16535
1321.00103,0.16244
1322.92950,0.16008
1324.85797,0.15718
1326.78644,0.15392
1328.71491,0.15359
1330.64337,0.15221
1332.57184,0.15090
1334.50031,0.15387
1336.42878,0.15698
1338.35725,0.15865
1340.28572,0.15441
1342.21419,0.14573
1344.14266,0.13728
1346.07112,0.13308
1347.99959,0.14502
1349.92806,0.16147
1351.85653,0.16428
1353.78500,0.16055
1355.71347,0.15966
1357.64194,0.16274
1359.57040,0.16707
1361.49887,0.17005
1363.42734,0.16920
1365.35581,0.16761
1367.28428,0.16887
1369.21275,0.17029
1371.14122,0.17285
1373.06969,0.17857
1374.99815,0.18174
1376.92662,0.17929
1378.85509,0.17643
1380.78356,0.17349
1382.71203,0.16985
1384.64050,0.16889
1386.56897,0.17078
1388.49743,0.17084
1390.42590,0.17068
1392.35437,0.17547
1394.28284,0.18340
1396.21131,0.18946
1398.13978,0.18847
1400.06825,0.17767
1401.99672,0.16915
1403.92518,0.17194
1405.85365,0.17724
1407.78212,0.17784
1409.71059,0.17867
1411.63906,0.17869
1413.56753,0.17614
1415.49600,0.17630
1417.42446,0.18199
1419.35293,0.18477
1421.28140,0.17840
1423.20987,0.17341
1425.13834,0.17342
1427.06681,0.17494
1428.99528,0.17575
1430.92375,0.17654
1432.85221,0.17909
1434.78068,0.18291
1436.70915,0.18305
1438.63762,0.17674
1440.56609,0.17098
1442.49456,0.16977
1444.42303,0.17284
1446.35149,0.17789
1448.27996,0.18240
1450.20843,0.18439
1452.13690,0.18579
1454.06537,0.18835
1455.99384,0.19314
1457.92231,0.19494
1459.85077,0.18853
1461.77924,0.18579
1463.70771,0.18814
1465.63618,0.18807
1467.56465,0.18282
1469.49312,0.17819
1471.42159,0.17782
1473.35006,0.18366
1475.27852,0.18913
1477.20699,0.18908
1479.13546,0.18721
1481.06393,0.18593
1482.99240,0.18549
1484.92087,0.18821
1486.84934,0.19334
1488.77780,0.19617
1490.70627,0.19505
1492.63474,0.19374
1494.56321,0.19454
1496.49168,0.19671
1498.42015,0.19656
1500.34862,0.19174
1502.27709,0.18665
1504.20555,0.19028
1506.13402,0.20908
1508.06249,0.21115
1509.99096,0.19402
1511.91943,0.18849
1513.84790,0.19008
1515.77637,0.19137
1517.70483,0.19271
1519.63330,0.19780
1521.56177,0.20345
1523.49024,0.20265
1525.41871,0.19841
1527.34718,0.19261
1529.27565,0.18884
1531.20412,0.19160
1533.13258,0.19784
1535.06105,0.20018
1536.98952,0.20470
1538.91799,0.22082
1540.84646,0.23239
1542.77493,0.21646
1544.70340,0.19953
1546.63186,0.19055
1548.56033,0.18869
1550.48880,0.19125
1552.41727,0.19673
1554.34574,0.20526
1556.27421,0.21694
1558.20268,0.22747
1560.13115,0.20860
1562.05961,0.18823
1563.98808,0.18316
1565.91655,0.18695
1567.84502,0.19342
1569.77349,0.19811
1571.70196,0.19969
1573.63043,0.20236
1575.55889,0.20581
1577.48736,0.20191
1579.41583,0.19345
1581.34430,0.18755
1583.27277,0.18558
1585.20124,0.18633
1587.12971,0.18666
1589.05818,0.18458
1590.98664,0.18256
1592.91511,0.18292
1594.84358,0.18433
1596.77205,0.18650
1598.70052,0.18882
1600.62899,0.18911
1602.55746,0.18861
1604.48592,0.18997
1606.41439,0.18971
1608.34286,0.18437
1610.27133,0.17905
1612.19980,0.17906
1614.12827,0.18445
1616.05674,0.19422
1617.98521,0.19914
1619.91367,0.19737
1621.84214,0.19861
1623.77061,0.20292
1625.69908,0.20371
1627.62755,0.20038
1629.55602,0.19677
1631.48449,0.19786
1633.41295,0.20604
1635.34142,0.21830
1637.26989,0.21700
1639.19836,0.20707
1641.12683,0.20162
1643.05530,0.20081
1644.98377,0.20535
1646.91223,0.21462
1648.84070,0.21648
1650.76917,0.21776
1652.69764,0.22795
1654.62611,0.22358
1656.55458,0.20842
1658.48305,0.19946
1660.41152,0.19737
1662.33998,0.19935
1664.26845,0.19816
1666.19692,0.19659
1668.12539,0.19957
1670.05386,0.20294
1671.98233,0.20309
1673.91080,0.20309
1675.83926,0.20001
1677.76773,0.19760
1679.69620,0.20304
1681.62467,0.21309
1683.55314,0.21858
1685.48161,0.21245
1687.41008,0.20570
1689.33855,0.20173
1691.26701,0.19935
1693.19548,0.20124
1695.12395,0.20843
1697.05242,0.21485
1698.98089,0.21607
1700.90936,0.21178
1702.83783,0.20621
1704.76629,0.20446
1706.69476,0.20164
1708.62323,0.19458
1710.55170,0.18891
1712.48017,0.19010
1714.40864,0.19931
1716.33711,0.20902
1718.26558,0.20396
1720.19404,0.19534
1722.12251,0.19470
1724.05098,0.19600
1725.97945,0.19484
1727.90792,0.19471
1729.83639,0.19695
1731.76486,0.20063
1733.69332,0.20481
1735.62179,0.20271
1737.55026,0.19981
1739.47873,0.20078
1741.40720,0.20131
1743.33567,0.19965
1745.26414,0.19982
1747.19261,0.20313
1749.12107,0.20479
1751.04954,0.20123
1752.97801,0.19829
1754.90648,0.19861
1756.83495,0.19804
1758.76342,0.19612
1760.69189,0.19613
1762.62035,0.19317
1764.54882,0.18930
1766.47729,0.19429
1768.40576,0.20459
1770.33423,0.21073
1772.26270,0.20996
1774.19117,0.20292
1776.11964,0.19673
1778.04810,0.19520
1779.97657,0.19579
1781.90504,0.19352
1783.83351,0.18992
1785.76198,0.19034
1787.69045,0.19501
1789.61892,0.20034
1791.54738,0.20233
1793.47585,0.20141
1795.40432,0.20159
1797.33279,0.20162
1799.26126,0.20059
1801.18973,0.19801
1803.11820,0.19453
1805.04666,0.19282
1806.97513,0.19327
1808.90360,0.19509
1810.83207,0.19649
1812.76054,0.19523
1814.68901,0.19231
1816.61748,0.18976
1818.54595,0.18734
1820.47441,0.18562
1822.40288,0.18812
1824.33135,0.19301
1826.25982,0.19519
1828.18829,0.19600
1830.11676,0.19516
1832.04523,0.19281
1833.97369,0.19324
1835.90216,0.19435
1837.83063,0.19182
1839.75910,0.19002
1841.68757,0.19355
1843.61604,0.19720
1845.54451,0.19711
1847.47298,0.19642
1849.40144,0.19468
1851.32991,0.19238
1853.25838,0.19160
1855.18685,0.19137
1857.11532,0.19014
1859.04379,0.18967
1860.97226,0.19060
1862.90072,0.19018
1864.82919,0.19141
1866.75766,0.19836
1868.68613,0.20245
1870.61460,0.19570
1872.54307,0.18933
1874.47154,0.18923
1876.40001,0.19031
1878.32847,0.18886
1880.25694,0.18776
1882.18541,0.18916
1884.11388,0.19044
1886.04235,0.19002
1887.97082,0.19041
1889.89929,0.19222
1891.82775,0.19314
1893.75622,0.19306
1895.68469,0.19227
1897.61316,0.19045
1899.54163,0.18922
1901.47010,0.19058
1903.39857,0.19279
1905.32704,0.19334
1907.25550,0.19338
1909.18397,0.19323
1911.11244,0.19183
1913.04091,0.19023
1914.96938,0.19014
1916.89785,0.19258
1918.82632,0.19607
1920.75478,0.19714
1922.68325,0.19534
1924.61172,0.19320
1926.54019,0.19226
1928.46866,0.19157
1930.39713,0.19088
1932.32560,0.19112
1934.25407,0.19228
1936.18253,0.19301
1938.11100,0.19309
1940.03947,0.19490
1941.96794,0.19841
1943.89641,0.19724
1945.82488,0.19155
1947.75335,0.18921
1949.68181,0.19040
1951.61028,0.19143
1953.53875,0.19229
1955.46722,0.19145
1957.39569,0.18853
1959.32416,0.18799
1961.25263,0.19139
1963.18110,0.19605
1965.10956,0.19952
1967.03803,0.19970
1968.96650,0.19616
1970.89497,0.19186
1972.82344,0.18917
1974.75191,0.18783
1976.68038,0.18797
1978.60884,0.19018
1980.53731,0.19279
1982.46578,0.19315
1984.39425,0.19140
1986.32272,0.19058
1988.25119,0.19242
1990.17966,0.19537
1992.10812,0.19708
1994.03659,0.19747
1995.96506,0.19705
1997.89353,0.19546
1999.82200,0.19474
2001.75047,0.19574
2003.67894,0.19455
2005.60741,0.19079
2007.53587,0.18975
2009.46434,0.19177
2011.39281,0.19314
2013.32128,0.19469
2015.24975,0.19703
2017.17822,0.19726
2019.10669,0.19498
2021.03515,0.19218
2022.96362,0.18971
2024.89209,0.18935
2026.82056,0.19191
2028.74903,0.19433
2030.67750,0.19515
2032.60597,0.19598
2034.53444,0.19679
2036.46290,0.19581
2038.39137,0.19342
2040.31984,0.19150
2042.24831,0.19086
2044.17678,0.19068
2046.10525,0.19026
2048.03372,0.19182
2049.96218,0.19521
2051.89065,0.19586
2053.81912,0.19399
2055.74759,0.19396
2057.67606,0.19591
2059.60453,0.19692
2061.53300,0.19673
2063.46147,0.19666
2065.38993,0.19661
2067.31840,0.19608
2069.24687,0.19403
2071.17534,0.19168
2073.10381,0.19172
2075.03228,0.19263
2076.96075,0.19226
2078.88921,0.19218
2080.81768,0.19388
2082.74615,0.19541
2084.67462,0.19575
2086.60309,0.19623
2088.53156,0.19660
2090.46003,0.19660
2092.38850,0.19554
2094.31696,0.19339
2096.24543,0.19303
2098.17390,0.19367
2100.10237,0.19201
2102.03084,0.19069
2103.95931,0.19270
2105.88778,0.19503
2107.81624,0.19563
2109.74471,0.19577
2111.67318,0.19615
2113.60165,0.19758
2115.53012,0.20088
2117.45859,0.20369
2119.38706,0.20312
2121.31553,0.20083
2123.24399,0.19895
2125.17246,0.19714
2127.10093,0.19630
2129.02940,0.19735
2130.95787,0.19785
2132.88634,0.19583
2134.81481,0.19344
2136.74327,0.19301
2138.67174,0.19371
2140.60021,0.19447
2142.52868,0.19595
2144.45715,0.19679
2146.38562,0.19515
2148.31409,0.19498
2150.24255,0.19920
2152.17102,0.20274
2154.09949,0.20167
2156.02796,0.19919
2157.95643,0.19799
2159.88490,0.19729
2161.81337,0.19714
2163.74184,0.19833
2165.67030,0.19988
2167.59877,0.20011
2169.52724,0.20017
2171.45571,0.20043
2173.38418,0.19922
2175.31265,0.19868
2177.24112,0.19941
2179.16958,0.19841
2181.09805,0.19628
2183.02652,0.19481
2184.95499,0.19462
2186.88346,0.19649
2188.81193,0.19797
2190.74040,0.19668
2192.66887,0.19493
2194.59733,0.19363
2196.52580,0.19323
2198.45427,0.19535
2200.38274,0.19718
2202.31121,0.19724
2204.23968,0.19719
2206.16815,0.19606
2208.09661,0.19389
2210.02508,0.19306
2211.95355,0.19397
2213.88202,0.19599
2215.81049,0.19820
2217.73896,0.19748
2219.66743,0.19359
2221.59590,0.19221
2223.52436,0.19528
2225.45283,0.19760
2227.38130,0.19695
2229.30977,0.19551
2231.23824,0.19461
2233.16671,0.19442
2235.09518,0.19418
2237.02364,0.19459
2238.95211,0.19598
2240.88058,0.19626
2242.80905,0.19698
2244.73752,0.19869
2246.66599,0.19680
2248.59446,0.19327
2250.52293,0.19455
2252.45139,0.19794
2254.37986,0.19778
2256.30833,0.19644
2258.23680,0.19697
2260.16527,0.19776
2262.09374,0.19779
2264.02221,0.19741
2265.95067,0.19679
2267.87914,0.19523
2269.80761,0.19309
2271.73608,0.19234
2273.66455,0.19312
2275.59302,0.19599
2277.52149,0.19943
2279.44996,0.19929
2281.37842,0.19709
2283.30689,0.19641
2285.23536,0.19698
2287.16383,0.19691
2289.09230,0.19435
2291.02077,0.19158
2292.94924,0.19424
2294.87770,0.20028
2296.80617,0.20097
2298.73464,0.19413
2300.66311,0.18602
2302.59158,0.18268
2304.52005,0.18355
2306.44852,0.18511
2308.37699,0.18608
2310.30545,0.18557
2312.23392,0.18285
2314.16239,0.17949
2316.09086,0.17833
2318.01933,0.17989
2319.94780,0.18167
2321.87627,0.18087
2323.80473,0.17655
2325.73320,0.17319
2327.66167,0.17484
2329.59014,0.17701
2331.51861,0.17545
2333.44708,0.16946
2335.37555,0.16396
2337.30401,0.16921
2339.23248,0.17405
2341.16095,0.16267
2343.08942,0.15209
2345.01789,0.15903
2346.94636,0.17087
2348.87483,0.17702
2350.80330,0.17888
2352.73176,0.17760
2354.66023,0.17469
2356.58870,0.17128
2358.51717,0.16524
2360.44564,0.15698
2362.37411,0.14826
2364.30258,0.14230
2366.23104,0.14098
2368.15951,0.14605
2370.08798,0.15773
2372.01645,0.17031
2373.94492,0.17714
2375.87339,0.18024
2377.80186,0.18522
2379.73033,0.19107
2381.65879,0.19428
2383.58726,0.19502
2385.51573,0.19623
2387.44420,0.19841
2389.37267,0.19945
2391.30114,0.19868
2393.22961,0.19715
2395.15807,0.19777
2397.08654,0.20133
2399.01501,0.20258
2400.94348,0.19957
2402.87195,0.19804
2404.80042,0.20038
2406.72889,0.20249
2408.65736,0.20163
2410.58582,0.19930
2412.51429,0.19727
2414.44276,0.19661
2416.37123,0.19815
2418.29970,0.20004
2420.22817,0.20026
2422.15664,0.19995
2424.08510,0.20133
2426.01357,0.20258
2427.94204,0.20103
2429.87051,0.19943
2431.79898,0.19948
2433.72745,0.19928
2435.65592,0.19878
2437.58439,0.19963
2439.51285,0.20133
2441.44132,0.20224
2443.36979,0.20264
2445.29826,0.20241
2447.22673,0.20088
2449.15520,0.20042
2451.08367,0.20390
2453.01213,0.20790
2454.94060,0.20794
2456.86907,0.20564
2458.79754,0.20394
2460.72601,0.20322
2462.65448,0.20282
2464.58295,0.20269
2466.51142,0.20203
2468.43988,0.20031
2470.36835,0.20016
2472.29682,0.20260
2474.22529,0.20394
2476.15376,0.20347
2478.08223,0.20338
2480.01070,0.20201
2481.93916,0.19987
2483.86763,0.19915
2485.79610,0.19853
2487.72457,0.19853
2489.65304,0.20048
2491.58151,0.20213
2493.50998,0.20236
2495.43844,0.20282
2497.36691,0.20450
2499.29538,0.20585
2501.22385,0.20481
2503.15232,0.20385
2505.08079,0.20460
2507.00926,0.20383
2508.93773,0.20243
2510.86619,0.20336
2512.79466,0.20501
2514.72313,0.20602
2516.65160,0.20659
2518.58007,0.20584
2520.50854,0.20373
2522.43701,0.20137
2524.36547,0.19935
2526.29394,0.19747
2528.22241,0.19670
2530.15088,0.19796
2532.07935,0.19896
2534.00782,0.19907
2535.93629,0.19995
2537.86476,0.20130
2539.79322,0.20296
2541.72169,0.20342
2543.65016,0.20169
2545.57863,0.20100
2547.50710,0.20240
2549.43557,0.20311
2551.36404,0.20228
2553.29250,0.20109
2555.22097,0.20023
2557.14944,0.20008
2559.07791,0.19996
2561.00638,0.19946
2562.93485,0.20006
2564.86332,0.20135
2566.79179,0.20087
2568.72025,0.19956
2570.64872,0.20054
2572.57719,0.20256
2574.50566,0.20219
2576.43413,0.20088
2578.36260,0.20138
2580.29107,0.20326
2582.21953,0.20425
2584.14800,0.20447
2586.07647,0.20655
2588.00494,0.20862
2589.93341,0.20657
2591.86188,0.20268
2593.79035,0.20243
2595.71882,0.20530
2597.64728,0.20836
2599.57575,0.21031
2601.50422,0.20900
2603.43269,0.20641
2605.36116,0.20611
2607.28963,0.20664
2609.21810,0.20657
2611.14656,0.20751
2613.07503,0.20852
2615.00350,0.20706
2616.93197,0.20628
2618.86044,0.20855
2620.78891,0.20915
2622.71738,0.20622
2624.64585,0.20442
2626.57431,0.20547
2628.50278,0.20644
2630.43125,0.20674
2632.35972,0.20709
2634.28819,0.20645
2636.21666,0.20530
2638.14513,0.20576
2640.07359,0.20738
2642.00206,0.20794
2643.93053,0.20793
2645.85900,0.20880
2647.78747,0.20965
2649.71594,0.20979
2651.64441,0.21004
2653.57288,0.20991
2655.50134,0.20904
2657.42981,0.20910
2659.35828,0.20999
2661.28675,0.21038
2663.21522,0.21037
2665.14369,0.21019
2667.07216,0.20952
2669.00062,0.20824
2670.92909,0.20771
2672.85756,0.20858
2674.78603,0.20915
2676.71450,0.20879
2678.64297,0.20847
2680.57144,0.20853
2682.49990,0.20868
2684.42837,0.20925
2686.35684,0.21020
2688.28531,0.21020
2690.21378,0.20908
2692.14225,0.20799
2694.07072,0.20734
2695.99919,0.20747
2697.92765,0.20876
2699.85612,0.21057
2701.78459,0.21189
2703.71306,0.21148
2705.64153,0.20833
2707.57000,0.20459
2709.49847,0.20362
2711.42693,0.20537
2713.35540,0.20764
2715.28387,0.20983
2717.21234,0.21217
2719.14081,0.21445
2721.06928,0.21700
2722.99775,0.21796
2724.92622,0.21584
2726.85468,0.21416
2728.78315,0.21413
2730.71162,0.21296
2732.64009,0.21097
2734.56856,0.20951
2736.49703,0.20917
2738.42550,0.21009
2740.35396,0.20978
2742.28243,0.20862
2744.21090,0.21027
2746.13937,0.21370
2748.06784,0.21524
2749.99631,0.21390
2751.92478,0.21186
2753.85325,0.21200
2755.78171,0.21335
2757.71018,0.21362
2759.63865,0.21371
2761.56712,0.21430
2763.49559,0.21428
2765.42406,0.21407
2767.35253,0.21625
2769.28099,0.22111
2771.20946,0.22310
2773.13793,0.21951
2775.06640,0.21690
2776.99487,0.21876
2778.92334,0.21994
2780.85181,0.21832
2782.78028,0.21710
2784.70874,0.21689
2786.63721,0.21651
2788.56568,0.21834
2790.49415,0.22335
2792.42262,0.22566
2794.35109,0.22394
2796.27956,0.22243
2798.20802,0.22004
2800.13649,0.21735
2802.06496,0.21729
2803.99343,0.21701
2805.92190,0.21542
2807.85037,0.21504
2809.77884,0.21617
2811.70731,0.21770
2813.63577,0.21800
2815.56424,0.21692
2817.49271,0.21705
2819.42118,0.21909
2821.34965,0.22079
2823.27812,0.22115
2825.20659,0.21986
2827.13505,0.21800
2829.06352,0.21766
2830.99199,0.21668
2832.92046,0.21557
2834.84893,0.21854
2836.77740,0.22200
2838.70587,0.22126
2840.63433,0.22030
2842.56280,0.22232
2844.49127,0.22334
2846.41974,0.22202
2848.34821,0.22165
2850.27668,0.22210
2852.20515,0.22018
2854.13362,0.21613
2856.06208,0.21438
2857.99055,0.21612
2859.91902,0.21849
2861.84749,0.22023
2863.77596,0.22152
2865.70443,0.22205
2867.63290,0.22271
2869.56136,0.22267
2871.48983,0.21828
2873.41830,0.21310
2875.34677,0.21343
2877.27524,0.21678
2879.20371,0.21920
2881.13218,0.22065
2883.06065,0.22115
2884.98911,0.21988
2886.91758,0.21836
2888.84605,0.21871
2890.77452,0.21954
2892.70299,0.21727
2894.63146,0.21234
2896.55993,0.21083
2898.48839,0.21431
2900.41686,0.21837
2902.34533,0.21968
2904.27380,0.21771
2906.20227,0.21615
2908.13074,0.21740
2910.05921,0.21865
2911.98768,0.21799
2913.91614,0.21256
2915.84461,0.20246
2917.77308,0.19833
2919.70155,0.20361
2921.63002,0.21101
2923.55849,0.21543
2925.48696,0.21055
2927.41542,0.20115
2929.34389,0.20381
2931.27236,0.21596
2933.20083,0.21961
2935.12930,0.21050
2937.05777,0.20080
2938.98624,0.20272
2940.91471,0.21271
2942.84317,0.21847
2944.77164,0.21409
2946.70011,0.20279
2948.62858,0.19922
2950.55705,0.20972
2952.48552,0.22148
2954.41399,0.22162
2956.34245,0.20715
2958.27092,0.19525
2960.19939,0.20180
2962.12786,0.21492
2964.05633,0.22132
2965.98480,0.21932
2967.91327,0.21294
2969.84174,0.21311
2971.77020,0.21977
2973.69867,0.22254
2975.62714,0.21749
2977.55561,0.20795
2979.48408,0.20639
2981.41255,0.21792
2983.34102,0.22856
2985.26948,0.22734
2987.19795,0.21838
2989.12642,0.21475
2991.05489,0.22110
2992.98336,0.22690
2994.91183,0.22687
2996.84030,0.22383
2998.76877,0.22011
3000.69723,0.22006
3002.62570,0.22416
3004.55417,0.22593
3006.48264,0.22005
3008.41111,0.21034
3010.33958,0.20046
3012.26805,0.18092
3014.19651,0.14656
3016.12498,0.12005
3018.05345,0.13339
3019.98192,0.17811
3021.91039,0.21637
3023.83886,0.23448
3025.76733,0.23744
3027.69579,0.23435
3029.62426,0.23439
3031.55273,0.23479
3033.48120,0.23096
3035.40967,0.22536
3037.33814,0.22134
3039.26661,0.22244
3041.19508,0.22820
3043.12354,0.23023
3045.05201,0.22296
3046.98048,0.21265
3048.90895,0.21017
3050.83742,0.21564
3052.76589,0.22035
3054.69436,0.21829
3056.62282,0.21079
3058.55129,0.21151
3060.47976,0.22318
3062.40823,0.22843
3064.33670,0.21955
3066.26517,0.20684
3068.19364,0.20734
3070.12211,0.22130
3072.05057,0.22935
3073.97904,0.22119
3075.90751,0.20968
3077.83598,0.21271
3079.76445,0.22333
3081.69292,0.22299
3083.62139,0.20647
3085.54985,0.18973
3087.47832,0.19349
3089.40679,0.20830
3091.33526,0.21428
3093.26373,0.20677
3095.19220,0.19995
3097.12067,0.20996
3099.04914,0.22263
3100.97760,0.22037
3102.90607,0.20804
3104.83454,0.20438
3106.76301,0.21568
3108.69148,0.22485
3110.61995,0.22231
3112.54842,0.21509
3114.47688,0.21463
3116.40535,0.22263
3118.33382,0.22725
3120.26229,0.22017
3122.19076,0.21133
3124.11923,0.21422
3126.04770,0.22179
3127.97617,0.22323
3129.90463,0.21953
3131.83310,0.21728
3133.76157,0.22083
3135.69004,0.22658
3137.61851,0.22777
3139.54698,0.22325
3141.47545,0.22150
3143.40391,0.22672
3145.33238,0.23129
3147.26085,0.22861
3149.18932,0.22463
3151.11779,0.22741
3153.04626,0.23147
3154.97473,0.23219
3156.90320,0.23315
3158.83166,0.23412
3160.76013,0.23271
3162.68860,0.23248
3164.61707,0.23735
3166.54554,0.24391
3168.47401,0.24780
3170.40248,0.24687
3172.33094,0.24102
3174.25941,0.23662
3176.18788,0.23989
3178.11635,0.24659
3180.04482,0.24775
3181.97329,0.24246
3183.90176,0.23475
3185.83022,0.22540
3187.75869,0.21807
3189.68716,0.21893
3191.61563,0.22570
3193.54410,0.23203
3195.47257,0.23684
3197.40104,0.23904
3199.32951,0.23461
3201.25797,0.22888
3203.18644,0.23162
3205.11491,0.23874
3207.04338,0.23970
3208.97185,0.23603
3210.90032,0.23507
3212.82879,0.23619
3214.75725,0.23703
3216.68572,0.23725
3218.61419,0.23467
3220.54266,0.23237
3222.47113,0.23578
3224.39960,0.24082
3226.32807,0.24047
3228.25654,0.23573
3230.18500,0.23095
3232.11347,0.22872
3234.04194,0.22823
3235.97041,0.22631
3237.89888,0.22592
3239.82735,0.22968
3241.75582,0.23261
3243.68428,0.23278
3245.61275,0.23156
3247.54122,0.23005
3249.46969,0.22931
3251.39816,0.22680
3253.32663,0.22208
3255.25510,0.22116
3257.18357,0.22590
3259.11203,0.22866
3261.04050,0.22696
3262.96897,0.22651
3264.89744,0.22669
3266.82591,0.22597
3268.75438,0.22790
3270.68285,0.23128
3272.61131,0.23181
3274.53978,0.23134
3276.46825,0.23297
3278.39672,0.23413
3280.32519,0.23313
3282.25366,0.23132
3284.18213,0.22888
3286.11060,0.22515
3288.03906,0.22027
3289.96753,0.21781
3291.89600,0.22037
3293.82447,0.22533
3295.75294,0.23101
3297.68141,0.23466
3299.60988,0.23290
3301.53834,0.22902
3303.46681,0.22633
3305.39528,0.22418
3307.32375,0.22335
3309.25222,0.22554
3311.18069,0.22835
3313.10916,0.22887
3315.03763,0.22888
3316.96609,0.22923
3318.89456,0.23006
3320.82303,0.23043
3322.75150,0.22663
3324.67997,0.22176
3326.60844,0.22136
3328.53691,0.22224
3330.46537,0.22098
3332.39384,0.22187
3334.32231,0.22837
3336.25078,0.23498
3338.17925,0.23678
3340.10772,0.23706
3342.03619,0.23715
3343.96466,0.23655
3345.89312,0.23651
3347.82159,0.23476
3349.75006,0.23152
3351.67853,0.23180
3353.60700,0.23375
3355.53547,0.23167
3357.46394,0.22958
3359.39240,0.23266
3361.32087,0.23703
3363.24934,0.23774
3365.17781,0.23555
3367.10628,0.23499
3369.03475,0.23562
3370.96322,0.23409
3372.89168,0.23306
3374.82015,0.23355
3376.74862,0.23135
3378.67709,0.22675
3380.60556,0.22412
3382.53403,0.22601
3384.46250,0.23023
3386.39097,0.23059
3388.31943,0.22632
3390.24790,0.22367
3392.17637,0.22553
3394.10484,0.22747
3396.03331,0.22647
3397.96178,0.22716
3399.89025,0.23013
3401.81871,0.22907
3403.74718,0.22581
3405.67565,0.22816
3407.60412,0.23389
3409.53259,0.23403
3411.46106,0.22971
3413.38953,0.22761
3415.31800,0.22956
3417.24646,0.23332
3419.17493,0.23338
3421.10340,0.22753
3423.03187,0.22007
3424.96034,0.21811
3426.88881,0.22224
3428.81728,0.22355
3430.74574,0.22158
3432.67421,0.22304
3434.60268,0.22316
3436.53115,0.21828
3438.45962,0.21566
3440.38809,0.21585
3442.31656,0.21404
3444.24503,0.21271
3446.17349,0.21619
3448.10196,0.22274
3450.03043,0.22491
3451.95890,0.22186
3453.88737,0.21815
3455.81584,0.21517
3457.74431,0.21295
3459.67277,0.21189
3461.60124,0.21300
3463.52971,0.21437
3465.45818,0.21360
3467.38665,0.21182
3469.31512,0.20963
3471.24359,0.20835
3473.17206,0.20928
3475.10052,0.21079
3477.02899,0.21169
3478.95746,0.21041
3480.88593,0.20395
3482.81440,0.19581
3484.74287,0.19417
3486.67134,0.19820
3488.59980,0.20139
3490.52827,0.20222
3492.45674,0.20188
3494.38521,0.20193
3496.31368,0.20317
3498.24215,0.20140
3500.17062,0.19730
3502.09909,0.19740
3504.02755,0.19881
3505.95602,0.19621
3507.88449,0.19300
3509.81296,0.19140
3511.74143,0.19139
3513.66990,0.19219
3515.59837,0.19165
3517.52683,0.19056
3519.45530,0.19077
3521.38377,0.19241
3523.31224,0.19538
3525.24071,0.19813
3527.16918,0.19844
3529.09765,0.19661
3531.02611,0.19340
3532.95458,0.19015
3534.88305,0.18971
3536.81152,0.19122
3538.73999,0.18919
3540.66846,0.18201
3542.59693,0.17720
3544.52540,0.18116
3546.45386,0.18857
3548.38233,0.19313
3550.31080,0.19345
3552.23927,0.18913
3554.16774,0.18409
3556.09621,0.17970
3558.02468,0.17502
3559.95314,0.17270
3561.88161,0.17403
3563.81008,0.17938
3565.73855,0.18732
3567.66702,0.18850
3569.59549,0.18171
3571.52396,0.17785
3573.45243,0.17716
3575.38089,0.17519
3577.30936,0.17294
3579.23783,0.17175
3581.16630,0.16954
3583.09477,0.16699
3585.02324,0.16808
3586.95171,0.17173
3588.88017,0.16953
3590.80864,0.16615
3592.73711,0.16904
3594.66558,0.17386
3596.59405,0.17263
3598.52252,0.16896
3600.45099,0.16747
3602.37946,0.16295
3604.30792,0.15728
3606.23639,0.15785
3608.16486,0.16400
3610.09333,0.16855
3612.02180,0.16982
3613.95027,0.16927
3615.87874,0.16793
3617.80720,0.16781
3619.73567,0.16564
3621.66414,0.15953
3623.59261,0.15516
3625.52108,0.15649
3627.44955,0.16343
3629.37802,0.16501
3631.30649,0.15708
3633.23495,0.15138
3635.16342,0.14887
3637.09189,0.14833
3639.02036,0.14930
3640.94883,0.15156
3642.87730,0.15456
3644.80577,0.15753
3646.73423,0.15918
3648.66270,0.15790
3650.59117,0.15495
3652.51964,0.15194
3654.44811,0.15070
3656.37658,0.15083
3658.30505,0.14886
3660.23352,0.14677
3662.16198,0.14600
3664.09045,0.14462
3666.01892,0.14269
3667.94739,0.14198
3669.87586,0.14449
3671.80433,0.14948
3673.73280,0.15487
3675.66126,0.15551
3677.58973,0.14843
3679.51820,0.14435
3681.44667,0.14396
3683.37514,0.14372
3685.30361,0.14210
3687.23208,0.14249
3689.16055,0.14794
3691.08901,0.14708
3693.01748,0.14142
3694.94595,0.14215
3696.87442,0.14728
3698.80289,0.15080
3700.73136,0.14960
3702.65983,0.14383
3704.58829,0.13937
3706.51676,0.13991
3708.44523,0.14556
3710.37370,0.15487
3712.30217,0.15799
3714.23064,0.15274
3716.15911,0.14817
3718.08757,0.14413
3720.01604,0.13932
3721.94451,0.13492
3723.87298,0.13203
3725.80145,0.13379
3727.72992,0.13794
3729.65839,0.14043
3731.58686,0.14464
3733.51532,0.15441
3735.44379,0.16357
3737.37226,0.16111
3739.30073,0.15275
3741.22920,0.14765
3743.15767,0.14908
3745.08614,0.15308
3747.01460,0.15433
3748.94307,0.15705
3750.87154,0.15873
3752.80001,0.15546
3754.72848,0.15177
3756.65695,0.14993
3758.58542,0.14800
3760.51389,0.14276
3762.44235,0.13804
3764.37082,0.13615
3766.29929,0.13816
3768.22776,0.14289
3770.15623,0.14168
3772.08470,0.13440
3774.01317,0.12983
3775.94163,0.12822
3777.87010,0.12797
3779.79857,0.13030
3781.72704,0.13321
3783.65551,0.13483
3785.58398,0.13565
3787.51245,0.13489
3789.44092,0.13289
3791.36938,0.13023
3793.29785,0.13019
3795.22632,0.13655
3797.15479,0.14362
3799.08326,0.14426
3801.01173,0.14229
3802.94020,0.14183
3804.86866,0.14197
3806.79713,0.13886
3808.72560,0.13380
3810.65407,0.13322
3812.58254,0.13476
3814.51101,0.13550
3816.43948,0.13697
3818.36795,0.13854
3820.29641,0.14032
3822.22488,0.14198
3824.15335,0.13941
3826.08182,0.13430
3828.01029,0.13106
3829.93876,0.13265
3831.86723,0.13610
3833.79569,0.13699
3835.72416,0.13664
3837.65263,0.13698
3839.58110,0.13647
3841.50957,0.13587
3843.43804,0.13601
3845.36651,0.13519
3847.29498,0.13497
3849.22344,0.13948
3851.15191,0.14826
3853.08038,0.14979
3855.00885,0.13650
3856.93732,0.12938
3858.86579,0.12948
3860.79426,0.13249
3862.72272,0.13369
3864.65119,0.13015
3866.57966,0.12715
3868.50813,0.12518
3870.43660,0.12224
3872.36507,0.12396
3874.29354,0.12856
3876.22200,0.12924
3878.15047,0.12783
3880.07894,0.12783
3882.00741,0.13008
3883.93588,0.13330
3885.86435,0.13098
3887.79282,0.12448
3889.72129,0.12397
3891.64975,0.12621
3893.57822,0.12505
3895.50669,0.12543
3897.43516,0.12707
3899.36363,0.12745
3901.29210,0.12915
3903.22057,0.13076
3905.14903,0.12817
3907.07750,0.12307
3909.00597,0.11877
3910.93444,0.11669
3912.86291,0.11910
3914.79138,0.12498
3916.71985,0.12610
3918.64832,0.12213
3920.57678,0.12260
3922.50525,0.12582
3924.43372,0.12563
3926.36219,0.12386
3928.29066,0.12207
3930.21913,0.11901
3932.14760,0.11908
3934.07606,0.12244
3936.00453,0.12334
3937.93300,0.12103
3939.86147,0.11781
3941.78994,0.11583
3943.71841,0.11533
3945.64688,0.11658
3947.57535,0.11718
3949.50381,0.11394
3951.43228,0.11044
3953.36075,0.11078
3955.28922,0.11289
3957.21769,0.11517
3959.14616,0.11812
3961.07463,0.11924
3963.00309,0.11822
3964.93156,0.11615
3966.86003,0.11406
3968.78850,0.11559
3970.71697,0.11852
3972.64544,0.11899
3974.57391,0.11791
3976.50238,0.11646
3978.43084,0.11433
3980.35931,0.11015
3982.28778,0.10645
3984.21625,0.10584
3986.14472,0.10480
3988.07319,0.10287
3990.00166,0.10324
3991.93012,0.10469
3993.85859,0.10692
3995.78706,0.11141
3997.71553,0.11478
3999.64400,0.11306
4001.57247,0.10935
4003.50094,0.10993
4005.42941,0.11264
4007.35787,0.11142
4009.28634,0.10873
4011.21481,0.10936
4013.14328,0.11000
4015.07175,0.10964
4017.00022,0.11253
4018.92869,0.11486
4020.85715,0.11239
4022.78562,0.11006
4024.71409,0.10945
4026.64256,0.10663
4028.57103,0.10409
4030.49950,0.10365
4032.42797,0.10332
4034.35644,0.10532
4036.28490,0.10719
4038.21337,0.10642
4040.14184,0.10732
4042.07031,0.10723
4043.99878,0.10154
4045.92725,0.09673
4047.85572,0.09895
4049.78418,0.10331
4051.71265,0.10433
4053.64112,0.10339
4055.56959,0.10408
4057.49806,0.10622
4059.42653,0.10721
4061.35500,0.10676
4063.28346,0.10516
4065.21193,0.10031
4067.14040,0.09236
4069.06887,0.08838
4070.99734,0.09279
4072.92581,0.09821
4074.85428,0.09798
4076.78275,0.09406
4078.71121,0.08940
4080.63968,0.08847
4082.56815,0.09367
4084.49662,0.09939
4086.42509,0.09853
4088.35356,0.09180
4090.28203,0.09030
4092.21049,0.09666
4094.13896,0.09881
4096.06743,0.09360
4097.99590,0.09207
4099.92437,0.09701
4101.85284,0.09674
4103.78131,0.08889
4105.70978,0.08486
4107.63824,0.08767
4109.56671,0.09169
4111.49518,0.09303
4113.42365,0.09084
4115.35212,0.09018
4117.28059,0.09459
4119.20906,0.09946
4121.13752,0.09962
4123.06599,0.09481
4124.99446,0.08926
4126.92293,0.08630
4128.85140,0.08466
4130.77987,0.08132
4132.70834,0.07851
4134.63681,0.08174
4136.56527,0.08751
4138.49374,0.08940
4140.42221,0.08857
4142.35068,0.08664
4144.27915,0.08312
4146.20762,0.07871
4148.13609,0.07576
4150.06455,0.07550
4151.99302,0.07491
4153.92149,0.07600
4155.84996,0.08162
4157.77843,0.08348
4159.70690,0.08009
4161.63537,0.07847
4163.56384,0.07789
4165.49230,0.07660
4167.42077,0.07721
4169.34924,0.08004
4171.27771,0.08067
4173.20618,0.07803
4175.13465,0.07744
4177.06312,0.08237
4178.99158,0.08702
4180.92005,0.08256
4182.84852,0.07192
4184.77699,0.06728
4186.70546,0.07226
4188.63393,0.07990
4190.56240,0.08207
4192.49087,0.07703
4194.41933,0.07522
4196.34780,0.07840
4198.27627,0.07623
4200.20474,0.07255
4202.13321,0.07272
4204.06168,0.07205
4205.99015,0.06928
4207.91861,0.06662
4209.84708,0.06781
4211.77555,0.07293
4213.70402,0.07679
4215.63249,0.07476
4217.56096,0.06498
4219.48943,0.05577
4221.41789,0.05814
4223.34636,0.06845
4225.27483,0.07487
4227.20330,0.07325
4229.13177,0.06977
4231.06024,0.07169
4232.98871,0.07587
4234.91718,0.07173
4236.84564,0.06148
4238.77411,0.06009
4240.70258,0.06566
4242.63105,0.06703
4244.55952,0.06847
4246.48799,0.07194
4248.41646,0.07219
4250.34492,0.07031
4252.27339,0.06583
4254.20186,0.05932
4256.13033,0.05758
4258.05880,0.06140
4259.98727,0.06445
4261.91574,0.06229
4263.84421,0.05786
4265.77267,0.05613
4267.70114,0.05737
4269.62961,0.05989
4271.55808,0.05959
4273.48655,0.05617
4275.41502,0.05557
4277.34349,0.05742
4279.27195,0.05929
4281.20042,0.06196
4283.12889,0.06324
4285.05736,0.05844
4286.98583,0.04729
4288.91430,0.04196
4290.84277,0.04716
4292.77124,0.04914
4294.69970,0.04609
4296.62817,0.04947
4298.55664,0.05751
4300.48511,0.05884
4302.41358,0.05214
4304.34205,0.04412
4306.27052,0.03985
4308.19898,0.04165
4310.12745,0.04542
4312.05592,0.04723
4313.98439,0.04773
4315.91286,0.04656
4317.84133,0.04595
4319.76980,0.04605
4321.69827,0.04384
4323.62673,0.04258
4325.55520,0.04419
4327.48367,0.04476
4329.41214,0.04314
4331.34061,0.04227
4333.26908,0.04231
4335.19755,0.04246
4337.12601,0.04402
4339.05448,0.04171
4340.98295,0.03554
4342.91142,0.03469
4344.83989,0.03555
4346.76836,0.03104
4348.69683,0.02727
4350.62530,0.03031
4352.55376,0.03638
4354.48223,0.03879
4356.41070,0.03306
4358.33917,0.02439
4360.26764,0.02508
4362.19611,0.03187
4364.12458,0.03433
4366.05304,0.03550
4367.98151,0.03858
4369.90998,0.04008
4371.83845,0.04002
4373.76692,0.04101
4375.69539,0.04142
4377.62386,0.03775
4379.55232,0.03218
4381.48079,0.02961
4383.40926,0.02998
4385.33773,0.03081
4387.26620,0.03124
4389.19467,0.02969
4391.12314,0.02353
4393.05161,0.01419
4394.98007,0.00898
4396.90854,0.01348
4398.83701,0.02293
4400.76548,0.02799
4402.69395,0.02657
4404.62242,0.02295
4406.55089,0.02096
4408.47935,0.02105
4410.40782,0.02239
4412.33629,0.02415
4414.26476,0.02270
4416.19323,0.01769
4418.12170,0.01607
4420.05017,0.02102
4421.97864,0.02616
4423.90710,0.02532
4425.83557,0.02051
4427.76404,0.01927
4429.69251,0.02502
4431.62098,0.02948
4433.54945,0.02449
4435.47792,0.01660
4437.40638,0.01497
4439.33485,0.01679
4441.26332,0.01573
4443.19179,0.01210
4445.12026,0.00981
4447.04873,0.00858
4448.97720,0.00627
4450.90567,0.00582
4452.83413,0.00792
4454.76260,0.01011
4456.69107,0.01393
4458.61954,0.01947
4460.54801,0.02297
4462.47648,0.02156
4464.40495,0.01544
4466.33341,0.00767
4468.26188,0.00327
4470.19035,0.00598
4472.11882,0.01404
4474.04729,0.02036
4475.97576,0.01962
4477.90423,0.01416
4479.83270,0.00878
4481.76116,0.00589
4483.68963,0.00397
4485.61810,0.00243
4487.54657,0.00528
4489.47504,0.00994
4491.40351,0.00916
4493.33198,0.00433
4495.26044,0.00251
4497.18891,0.00797
4499.11738,0.01531
4501.04585,0.01403
4502.97432,0.00855
4504.90279,0.00808
4506.83126,0.00685
4508.75973,-0.00027
4510.68819,-0.00501
4512.61666,-0.00071
4514.54513,0.00379
4516.47360,0.00321
4518.40207,0.00761
4520.33054,0.01493
4522.25901,0.01581
4524.18747,0.01640
4526.11594,0.01918
4528.04441,0.01707
4529.97288,0.01287
4531.90135,0.01164
4533.82982,0.01040
4535.75829,0.00771
4537.68676,0.00749
4539.61522,0.00922
4541.54369,0.00670
4543.47216,0.00245
4545.40063,0.00471
4547.32910,0.01078
4549.25757,0.01233
4551.18604,0.01108
4553.11450,0.01101
4555.04297,0.01066
4556.97144,0.00758
4558.89991,-0.00001
4560.82838,-0.00550
4562.75685,-0.00340
4564.68532,0.00330
4566.61378,0.00986
4568.54225,0.00941
4570.47072,0.00390
4572.39919,0.00275
4574.32766,0.00478
4576.25613,0.00408
4578.18460,0.00355
4580.11307,0.00183
4582.04153,-0.00734
4583.97000,-0.01501
4585.89847,-0.00840
4587.82694,0.00911
4589.75541,0.02056
4591.68388,0.01889
4593.61235,0.01505
4595.54081,0.01243
4597.46928,0.00545
4599.39775,0.00073
4601.32622,0.00460
4603.25469,0.01099
4605.18316,0.01648
4607.11163,0.01891
4609.04010,0.01522
4610.96856,0.00797
4612.89703,0.00030
4614.82550,-0.00616
4616.75397,-0.01035
4618.68244,-0.01081
4620.61091,-0.00795
4622.53938,-0.00542
4624.46784,-0.00479
4626.39631,-0.00268
4628.32478,0.00397
4630.25325,0.01148
4632.18172,0.01327
4634.11019,0.00697
4636.03866,-0.00094
4637.96713,-0.00148
4639.89559,0.00481
4641.82406,0.00890
4643.75253,0.00473
4645.68100,0.00066
4647.60947,0.00817
4649.53794,0.02031
4651.46641,0.02429
4653.39487,0.02026
4655.32334,0.01741
4657.25181,0.01863
4659.18028,0.01546
4661.10875,0.00771
4663.03722,0.00070
4664.96569,-0.00524
4666.89416,-0.00554
4668.82262,0.00326
4670.75109,0.01580
4672.67956,0.02295
4674.60803,0.02364
4676.53650,0.02156
4678.46497,0.01658
4680.39344,0.01142
4682.32190,0.00833
4684.25037,0.00645
4686.17884,0.00560
4688.10731,0.00297
4690.03578,-0.00021
4691.96425,0.00047
4693.89272,0.00395
4695.82119,0.00647
4697.74965,0.00277
4699.67812,-0.00166
4701.60659,0.00310
4703.53506,0.00785
4705.46353,0.00468
4707.39200,0.00015
4709.32047,-0.00196
4711.24893,-0.00114
4713.17740,0.00211
4715.10587,0.00383
4717.03434,0.00099
4718.96281,-0.00125
4720.89128,0.00578
4722.81975,0.01455
4724.74821,0.01289
4726.67668,0.00884
4728.60515,0.00900
4730.53362,0.00505
4732.46209,-0.00293
4734.39056,-0.00862
4736.31903,-0.00938
4738.24750,-0.00559
4740.17596,-0.00363
4742.10443,-0.00199
4744.03290,0.00512
4745.96137,0.00971
4747.88984,0.00787
4749.81831,0.00778
4751.74678,0.01030
4753.67524,0.00865
4755.60371,0.00542
4757.53218,0.00978
4759.46065,0.01831
4761.38912,0.01791
4763.31759,0.00613
4765.24606,-0.00398
4767.17453,-0.00434
4769.10299,-0.00276
4771.03146,-0.00581
4772.95993,-0.00963
4774.88840,-0.00877
4776.81687,-0.00561
4778.74534,-0.00537
4780.67381,-0.00845
4782.60227,-0.00939
4784.53074,-0.00310
4786.45921,0.00411
4788.38768,0.00995
4790.31615,0.02208
4792.24462,0.03200
4794.17309,0.02977
4796.10156,0.02441
4798.03002,0.01779
4799.95849,0.00451
4801.88696,-0.00105
4803.81543,0.00887
4805.74390,0.01497
4807.67237,0.01298
4809.60084,0.01714
4811.52930,0.02080
4813.45777,0.01083
4815.38624,-0.00429
4817.31471,-0.00967
4819.24318,-0.00394
4821.17165,0.00088
4823.10012,-0.00118
4825.02859,0.00035
4826.95705,0.00966
4828.88552,0.01686
4830.81399,0.01539
4832.74246,0.00245
4834.67093,-0.01207
4836.59940,-0.01142
4838.52787,-0.00282
4840.45633,0.00449
4842.38480,0.01241
4844.31327,0.01216
4846.24174,0.00150
4848.17021,-0.00545
4850.09868,-0.00337
4852.02715,0.00055
4853.95562,0.00129
4855.88408,-0.00158
4857.81255,-0.00449
4859.74102,-0.00642
4861.66949,-0.01146
4863.59796,-0.01552
4865.52643,-0.01126
4867.45490,0.00157
4869.38336,0.01217
4871.31183,0.00930
4873.24030,0.00443
4875.16877,0.01097
4877.09724,0.01552
4879.02571,0.01052
4880.95418,0.00597
4882.88265,0.00815
4884.81111,0.01018
4886.73958,0.00293
4888.66805,-0.00478
4890.59652,0.00103
4892.52499,0.01193
4894.45346,0.01649
4896.38193,0.01744
4898.31039,0.01788
4900.23886,0.01778
4902.16733,0.01368
4904.09580,0.00603
4906.02427,0.00408
4907.95274,0.00808
4909.88121,0.00688
4911.80967,-0.00062
4913.73814,-0.00685
4915.66661,-0.01086
4917.59508,-0.01577
4919.52355,-0.01950
4921.45202,-0.01402
4923.38049,-0.00065
4925.30896,0.00896
4927.23742,0.01033
4929.16589,0.00697
4931.09436,0.00260
4933.02283,-0.00057
4934.95130,0.00035
4936.87977,0.00228
4938.80824,0.00145
4940.73670,0.00280
4942.66517,0.00354
4944.59364,-0.00041
4946.52211,-0.00278
4948.45058,0.00340
4950.37905,0.01406
4952.30752,0.01682
4954.23599,0.01035
4956.16445,0.00444
4958.09292,0.00375
4960.02139,0.00562
4961.94986,0.00702
4963.87833,0.00884
4965.80680,0.01160
4967.73527,0.00977
4969.66373,-0.00293
4971.59220,-0.01596
4973.52067,-0.01372
4975.44914,-0.01008
4977.37761,-0.01765
4979.30608,-0.02178
4981.23455,-0.01998
4983.16302,-0.01720
4985.09148,-0.00809
4987.01995,0.00754
4988.94842,0.01618
4990.87689,0.00852
4992.80536,0.00304
4994.73383,0.01003
4996.66230,0.01517
4998.59076,0.01752
5000.51923,0.02020
5002.44770,0.01688
5004.37617,0.01079
5006.30464,0.00817
5008.23311,0.00702
5010.16158,0.01140
5012.09005,0.01983
5014.01851,0.01216
5015.94698,-0.01155
5017.87545,-0.02429
5019.80392,-0.01313
5021.73239,0.00912
5023.66086,0.02410
5025.58933,0.02514
5027.51779,0.02054
5029.44626,0.02315
5031.37473,0.03053
5033.30320,0.03446
5035.23167,0.03150
5037.16014,0.01792
5039.08861,0.00580
5041.01708,0.00674
5042.94554,0.00883
5044.87401,0.00895
5046.80248,0.01466
5048.73095,0.02046
5050.65942,0.02055
5052.58789,0.01361
5054.51636,0.00358
5056.44482,0.00412
5058.37329,0.01662
5060.30176,0.02541
5062.23023,0.02144
5064.15870,0.01178
5066.08717,0.00386
5068.01564,0.00173
5069.94410,0.00726
5071.87257,0.01029
5073.80104,0.00903
5075.72951,0.01356
5077.65798,0.01927
5079.58645,0.01763
5081.51492,0.01260
5083.44339,0.01020
5085.37185,0.01014
5087.30032,0.01188
5089.22879,0.01586
5091.15726,0.01858
5093.08573,0.01779
5095.01420,0.01115
5096.94267,-0.00249
5098.87113,-0.01003
5100.79960,-0.00714
5102.72807,-0.00219
5104.65654,0.00538
5106.58501,0.00670
5108.51348,0.00091
5110.44195,-0.00075
5112.37042,-0.00202
5114.29888,-0.00270
5116.22735,-0.00586
5118.15582,-0.01755
5120.08429,-0.02396
5122.01276,-0.01503
5123.94123,0.00044
5125.86970,0.01918
5127.79816,0.04089
5129.72663,0.04595
5131.65510,0.02512
5133.58357,0.00136
5135.51204,-0.00116
5137.44051,0.01286
5139.36898,0.01794
5141.29745,0.00534
5143.22591,-0.00284
5145.15438,0.00799
5147.08285,0.01517
5149.01132,0.00280
5150.93979,-0.00497
5152.86826,0.00689
5154.79673,0.01596
5156.72519,0.01230
5158.65366,0.01507
5160.58213,0.02341
5162.51060,0.02928
5164.43907,0.03256
5166.36754,0.02591
5168.29601,0.02135
5170.22448,0.03203
5172.15294,0.04155
5174.08141,0.03809
5176.00988,0.02750
5177.93835,0.01526
5179.86682,0.01277
5181.79529,0.02873
5183.72376,0.04911
5185.65222,0.05862
5187.58069,0.05405
5189.50916,0.03767
5191.43763,0.02180
5193.36610,0.02216
5195.29457,0.03499
5197.22304,0.04131
5199.15151,0.03724
5201.07997,0.03017
5203.00844,0.02307
5204.93691,0.02592
5206.86538,0.04266
5208.79385,0.05104
5210.72232,0.04284
5212.65079,0.03643
5214.57925,0.03597
5216.50772,0.03224
5218.43619,0.02633
5220.36466,0.02232
5222.29313,0.01932
5224.22160,0.01233
5226.15007,0.00057
5228.07854,-0.00022
5230.00700,0.01224
5231.93547,0.02040
5233.86394,0.01849
5235.79241,0.01946
5237.72088,0.03370
5239.64935,0.04899
5241.57782,0.04666
5243.50628,0.03165
5245.43475,0.02582
5247.36322,0.04026
5249.29169,0.05988
5251.22016,0.05758
5253.14863,0.03904
5255.07710,0.03407
5257.00556,0.04553
5258.93403,0.05395
5260.86250,0.05011
5262.79097,0.04202
5264.71944,0.04848
5266.64791,0.06170
5268.57638,0.06459
5270.50485,0.06102
5272.43331,0.04975
5274.36178,0.02614
5276.29025,0.00948
5278.21872,0.01798
5280.14719,0.02776
5282.07566,0.01482
5284.00413,0.00672
5285.93259,0.02749
5287.86106,0.05101
5289.78953,0.05850
5291.71800,0.05405
5293.64647,0.04196
5295.57494,0.03221
5297.50341,0.02921
5299.43188,0.02618
5301.36034,0.02021
5303.28881,0.01955
5305.21728,0.02809
5307.14575,0.03861
5309.07422,0.04461
5311.00269,0.04869
5312.93116,0.05740
5314.85962,0.06745
5316.78809,0.07209
5318.71656,0.06891
5320.64503,0.06099
5322.57350,0.05989
5324.50197,0.06201
5326.43044,0.04838
5328.35891,0.02945
5330.28737,0.02354
5332.21584,0.02298
5334.14431,0.03295
5336.07278,0.05443
5338.00125,0.06577
5339.92972,0.06505
5341.85819,0.06806
5343.78665,0.07513
5345.71512,0.07393
5347.64359,0.06053
5349.57206,0.04896
5351.50053,0.04587
5353.42900,0.03411
5355.35747,0.00945
5357.28594,0.01028
5359.21440,0.04673
5361.14287,0.07588
5363.07134,0.07489
5364.99981,0.07150
5366.92828,0.07563
5368.85675,0.08037
5370.78522,0.09160
5372.71368,0.09505
5374.64215,0.07404
5376.57062,0.05162
5378.49909,0.04564
5380.42756,0.04187
5382.35603,0.04323
5384.28450,0.05760
5386.21297,0.06501
5388.14143,0.05495
5390.06990,0.05032
5391.99837,0.05829
5393.92684,0.07330
5395.85531,0.08673
5397.78378,0.08114
5399.71225,0.05608
5401.64071,0.02679
5403.56918,0.00742
5405.49765,0.01319
5407.42612,0.03560
5409.35459,0.04720
5411.28306,0.04750
5413.21153,0.03964
5415.13999,0.02317
5417.06846,0.02379
5418.99693,0.04407
5420.92540,0.05364
5422.85387,0.04430
5424.78234,0.04284
5426.71081,0.05275
5428.63928,0.05377
5430.56774,0.04477
5432.49621,0.03693
5434.42468,0.04244
5436.35315,0.05486
5438.28162,0.05775
5440.21009,0.05996
5442.13856,0.06061
5444.06702,0.04832
5445.99549,0.03697
5447.92396,0.04637
5449.85243,0.06496
5451.78090,0.06704
5453.70937,0.05608
5455.63784,0.04435
5457.56631,0.02678
5459.49477,0.00995
5461.42324,0.01072
5463.35171,0.02228
5465.28018,0.03351
5467.20865,0.05015
5469.13712,0.07162
5471.06559,0.07888
5472.99405,0.06980
5474.92252,0.06669
5476.85099,0.07375
5478.77946,0.06815
5480.70793,0.05210
5482.63640,0.04440
5484.56487,0.05259
5486.49334,0.07737
5488.42180,0.10887
5490.35027,0.11761
5492.27874,0.08145
5494.20721,0.04196
5496.13568,0.04818
5498.06415,0.07552
5499.99262,0.08879
5501.92108,0.08495
5503.84955,0.07445
5505.77802,0.05796
5507.70649,0.04232
5509.63496,0.04483
5511.56343,0.06077
5513.49190,0.08094
5515.42037,0.09653
5517.34883,0.09434
5519.27730,0.08654
5521.20577,0.08715
5523.13424,0.08787
5525.06271,0.09200
5526.99118,0.10680
5528.91965,0.10546
5530.84811,0.07173
5532.77658,0.04959
5534.70505,0.06478
5536.63352,0.08458
5538.56199,0.09329
5540.49046,0.09552
5542.41893,0.07713
5544.34740,0.05777
5546.27586,0.05862
5548.20433,0.05311
5550.13280,0.04647
5552.06127,0.06432
5553.98974,0.09221
5555.91821,0.09592
5557.84668,0.06790
5559.77514,0.04691
5561.70361,0.05668
5563.63208,0.07835
5565.56055,0.09063
5567.48902,0.08199
5569.41749,0.05850
5571.34596,0.05191
5573.27443,0.07545
5575.20289,0.09518
5577.13136,0.08884
5579.05983,0.07849
5580.98830,0.08323
5582.91677,0.09171
5584.84524,0.08621
5586.77371,0.06830
5588.70217,0.05326
5590.63064,0.04751
5592.55911,0.04896
5594.48758,0.05836
5596.41605,0.06015
5598.34452,0.05442
5600.27299,0.06046
5602.20145,0.07634
5604.12992,0.09383
5606.05839,0.09862
5607.98686,0.09341
5609.91533,0.08855
5611.84380,0.08141
5613.77227,0.09267
5615.70074,0.10428
5617.62920,0.08023
5619.55767,0.06307
5621.48614,0.07116
5623.41461,0.06312
5625.34308,0.05092
5627.27155,0.06351
5629.20002,0.07632
5631.12848,0.06300
5633.05695,0.03387
5634.98542,0.01856
5636.91389,0.03350
5638.84236,0.06333
5640.77083,0.08724
5642.69930,0.09693
5644.62777,0.08937
5646.55623,0.07175
5648.48470,0.05838
5650.41317,0.05535
5652.34164,0.05270
5654.27011,0.03855
5656.19858,0.03145
5658.12705,0.04677
5660.05551,0.06376
5661.98398,0.05926
5663.91245,0.04026
5665.84092,0.03425
5667.76939,0.05097
5669.69786,0.07531
5671.62633,0.08642
5673.55480,0.08704
5675.48326,0.09045
5677.41173,0.08602
5679.34020,0.08841
5681.26867,0.11589
5683.19714,0.14124
5685.12561,0.14418
5687.05408,0.11447
5688.98254,0.07667
5690.91101,0.08205
5692.83948,0.11298
5694.76795,0.12524
5696.69642,0.11198
5698.62489,0.09435
5700.55336,0.09483
5702.48183,0.10289
5704.41029,0.09545
5706.33876,0.07844
5708.26723,0.06665
5710.19570,0.06217
5712.12417,0.07535
5714.05264,0.10443
5715.98111,0.12284
5717.90957,0.11076
5719.83804,0.07530
5721.76651,0.05103
5723.69498,0.04622
5725.62345,0.04608
5727.55192,0.04608
5729.48039,0.04876
5731.40886,0.06587
5733.33732,0.09304
5735.26579,0.11996
5737.19426,0.14465
5739.12273,0.14316
5741.05120,0.10545
5742.97967,0.08010
5744.90814,0.10331
5746.83660,0.13333
5748.76507,0.12039
5750.69354,0.08319
5752.62201,0.06942
5754.55048,0.08399
5756.47895,0.08616
5758.40742,0.07080
5760.33588,0.07280
5762.26435,0.07491
5764.19282,0.04763
5766.12129,0.02743
5768.04976,0.03540
5769.97823,0.05126
5771.90670,0.06735
5773.83517,0.07699
5775.76363,0.08192
5777.69210,0.09148
5779.62057,0.08966
5781.54904,0.07967
5783.47751,0.07678
5785.40598,0.05890
5787.33445,0.04044
5789.26291,0.05233
5791.19138,0.06598
5793.11985,0.06593
5795.04832,0.04901
5796.97679,0.02382
5798.90526,0.03396
5800.83373,0.06670
5802.76220,0.08039
5804.69066,0.07220
5806.61913,0.05528
5808.54760,0.05294
5810.47607,0.07046
5812.40454,0.08491
5814.33301,0.08160
5816.26148,0.06112
5818.18994,0.04760
5820.11841,0.07102
5822.04688,0.11432
5823.97535,0.13780
5825.90382,0.12484
5827.83229,0.09188
5829.76076,0.08607
5831.68923,0.11604
5833.61769,0.12693
5835.54616,0.10578
5837.47463,0.08919
5839.40310,0.08145
5841.33157,0.09939
5843.26004,0.14397
5845.18851,0.15569
5847.11697,0.13326
5849.04544,0.11637
5850.97391,0.09116
5852.90238,0.05538
5854.83085,0.04338
5856.75932,0.05993
5858.68779,0.08052
5860.61626,0.08076
5862.54472,0.06423
5864.47319,0.06808
5866.40166,0.09468
5868.33013,0.10396
5870.25860,0.09531
5872.18707,0.09261
5874.11554,0.08735
5876.04400,0.07301
5877.97247,0.06072
5879.90094,0.05746
5881.82941,0.06514
5883.75788,0.07886
5885.68635,0.10410
5887.61482,0.11627
5889.54329,0.08039
5891.47175,0.04602
5893.40022,0.05524
5895.32869,0.07098
5897.25716,0.07306
5899.18563,0.08023
5901.11410,0.08881
5903.04257,0.07548
5904.97103,0.05941
5906.89950,0.07828
5908.82797,0.09682
5910.75644,0.07614
5912.68491,0.05519
5914.61338,0.05213
5916.54185,0.04735
5918.47032,0.03746
5920.39878,0.03084
5922.32725,0.02983
5924.25572,0.04108
5926.18419,0.07241
5928.11266,0.09548
5930.04113,0.08863
5931.96960,0.07047
5933.89806,0.06210
5935.82653,0.07099
5937.75500,0.08600
5939.68347,0.08828
5941.61194,0.07447
5943.54041,0.06309
5945.46888,0.06099
5947.39734,0.06439
5949.32581,0.06349
5951.25428,0.03987
5953.18275,0.02676
5955.11122,0.04239
5957.03969,0.03741
5958.96816,0.01548
5960.89663,0.01998
5962.82509,0.03297
5964.75356,0.03875
5966.68203,0.05160
5968.61050,0.06028
5970.53897,0.06170
5972.46744,0.07717
5974.39591,0.08683
5976.32437,0.06501
5978.25284,0.03612
5980.18131,0.02690
5982.10978,0.04997
5984.03825,0.09714
5985.96672,0.10979
5987.89519,0.06964
5989.82366,0.03543
5991.75212,0.02855
5993.68059,0.04263
5995.60906,0.06955
5997.53753,0.08456
5999.46600,0.07911
6001.39447,0.06358
6003.32294,0.06556
6005.25140,0.08773
6007.17987,0.10148
6009.10834,0.11292
6011.03681,0.12145
6012.96528,0.10159
6014.89375,0.07311
6016.82222,0.06272
6018.75069,0.06019
6020.67915,0.07304
6022.60762,0.10374
6024.53609,0.12250
6026.46456,0.12368
6028.39303,0.12934
6030.32150,0.14441
6032.24997,0.15190
6034.17843,0.15014
6036.10690,0.14516
6038.03537,0.14433
6039.96384,0.15374
6041.89231,0.13703
6043.82078,0.07292
6045.74925,0.02514
6047.67772,0.02576
6049.60618,0.04756
6051.53465,0.08548
6053.46312,0.11369
6055.39159,0.08981
6057.32006,0.04306
6059.24853,0.02299
6061.17700,0.04413
6063.10546,0.09359
6065.03393,0.12368
6066.96240,0.12051
6068.89087,0.10097
6070.81934,0.08623
6072.74781,0.09581
6074.67628,0.10284
6076.60475,0.09543
6078.53321,0.09192
6080.46168,0.08657
6082.39015,0.09536
6084.31862,0.12203
6086.24709,0.12758
6088.17556,0.10667
6090.10403,0.08719
6092.03249,0.06677
6093.96096,0.04939
6095.88943,0.07496
6097.81790,0.13115
6099.74637,0.14875
6101.67484,0.10526
6103.60331,0.05431
6105.53177,0.05396
6107.46024,0.09237
6109.38871,0.11493
6111.31718,0.11406
6113.24565,0.11043
6115.17412,0.11808
6117.10259,0.13605
6119.03106,0.13883
6120.95952,0.12334
6122.88799,0.09933
6124.81646,0.07827
6126.74493,0.07934
6128.67340,0.07952
6130.60187,0.05177
6132.53034,0.04202
6134.45880,0.07118
6136.38727,0.08085
6138.31574,0.05088
6140.24421,0.01045
6142.17268,0.00878
6144.10115,0.07832
6146.02962,0.13184
6147.95809,0.11111
6149.88655,0.07260
6151.81502,0.07324
6153.74349,0.10337
6155.67196,0.11796
6157.60043,0.12142
6159.52890,0.13820
6161.45737,0.15162
6163.38583,0.13271
6165.31430,0.10999
6167.24277,0.12108
6169.17124,0.13456
6171.09971,0.13489
6173.02818,0.14056
6174.95665,0.14924
6176.88512,0.14070
6178.81358,0.10410
6180.74205,0.07424
6182.67052,0.06474
6184.59899,0.05172
6186.52746,0.07031
6188.45593,0.15109
6190.38440,0.19430
6192.31286,0.14482
6194.24133,0.09713
6196.16980,0.10479
6198.09827,0.11640
6200.02674,0.10213
6201.95521,0.08771
6203.88368,0.09517
6205.81215,0.09320
6207.74061,0.04305
6209.66908,-0.02704
6211.59755,-0.06719
6213.52602,-0.06401
6215.45449,-0.01112
6217.38296,0.06468
6219.31143,0.10898
6221.23989,0.11606
6223.16836,0.11398
6225.09683,0.14001
6227.02530,0.16871
6228.95377,0.12572
6230.88224,0.07918
6232.81071,0.13462
6234.73918,0.18282
6236.66764,0.15774
6238.59611,0.14032
6240.52458,0.14650
6242.45305,0.16049
6244.38152,0.16401
6246.30999,0.11556
6248.23846,0.06342
6250.16692,0.09599
6252.09539,0.17323
6254.02386,0.19034
6255.95233,0.15367
6257.88080,0.13708
6259.80927,0.13795
6261.73774,0.09758
6263.66621,0.02418
6265.59467,-0.02503
6267.52314,-0.03198
6269.45161,-0.00891
6271.38008,0.04484
6273.30855,0.10339
6275.23702,0.13335
6277.16549,0.13636
6279.09395,0.10833
6281.02242,0.07810
6282.95089,0.08629
6284.87936,0.10324
6286.80783,0.08098
6288.73630,0.04238
6290.66477,0.02848
6292.59323,0.01924
6294.52170,0.00750
6296.45017,0.03546
6298.37864,0.10157
6300.30711,0.14997
6302.23558,0.15849
6304.16405,0.15530
6306.09252,0.15920
6308.02098,0.17533
6309.94945,0.18809
6311.87792,0.18391
6313.80639,0.15671
6315.73486,0.09482
6317.66333,0.03944
6319.59180,0.03742
6321.52026,0.04910
6323.44873,0.03577
6325.37720,0.00818
6327.30567,-0.00825
6329.23414,0.03101
6331.16261,0.09743
6333.09108,0.13322
6335.01955,0.15138
6336.94801,0.15100
6338.87648,0.12108
6340.80495,0.08788
6342.73342,0.09988
6344.66189,0.15699
6346.59036,0.19290
6348.51883,0.19101
6350.44729,0.15759
6352.37576,0.07499
6354.30423,0.01317
6356.23270,0.00769
6358.16117,0.01790
6360.08964,0.03345
6362.01811,0.03295
6363.94658,-0.01369
6365.87504,-0.06370
6367.80351,-0.07001
6369.73198,-0.04522
6371.66045,0.01120
6373.58892,0.07634
6375.51739,0.07728
6377.44586,0.05284
6379.37432,0.06742
6381.30279,0.08680
6383.23126,0.07344
6385.15973,0.04030
6387.08820,0.03556
6389.01667,0.06417
6390.94514,0.08630
6392.87361,0.10631
6394.80207,0.12719
6396.73054,0.12536
6398.65901,0.12214
6400.58748,0.12835
6402.51595,0.11619
6404.44442,0.08606
6406.37289,0.04042
6408.30135,-0.02478
6410.22982,-0.02670
6412.15829,0.05599
6414.08676,0.11865
6416.01523,0.11521
6417.94370,0.06671
6419.87217,0.02820
6421.80064,0.01467
6423.72910,0.02663
6425.65757,0.07233
6427.58604,0.11218
6429.51451,0.13943
6431.44298,0.14337
6433.37145,0.12472
6435.29992,0.12964
6437.22838,0.11264
6439.15685,0.04440
6441.08532,-0.00928
6443.01379,-0.01278
6444.94226,0.03582
6446.87073,0.07746
6448.79920,0.06947
6450.72766,0.04285
6452.65613,0.05665
6454.58460,0.11763
6456.51307,0.12257
6458.44154,0.03332
6460.37001,-0.02772
6462.29848,-0.00784
6464.22695,0.04200
6466.15541,0.06334
6468.08388,0.03621
6470.01235,-0.01063
6471.94082,-0.03991
6473.86929,-0.04018
6475.79776,-0.01811
6477.72623,0.02160
6479.65469,0.05741
6481.58316,0.08934
6483.51163,0.11758
6485.44010,0.08771
6487.36857,0.01885
6489.29704,0.00569
6491.22551,0.05501
6493.15398,0.10727
6495.08244,0.14141
6497.01091,0.14403
6498.93938,0.12345
6500.86785,0.10300
6502.79632,0.07207
6504.72479,0.05849
6506.65326,0.09029
6508.58172,0.11239
6510.51019,0.09359
6512.43866,0.07060
6514.36713,0.05138
6516.29560,0.03063
6518.22407,0.03367
6520.15254,0.05092
6522.08101,0.04803
6524.00947,0.01592
6525.93794,-0.02370
6527.86641,-0.03215
6529.79488,-0.02484
6531.72335,-0.01980
6533.65182,0.01214
6535.58029,0.06974
6537.50875,0.13171
6539.43722,0.15622
6541.36569,0.12069
6543.29416,0.09956
6545.22263,0.10913
6547.15110,0.06923
6549.07957,0.00415
6551.00804,0.00163
6552.93650,0.04617
6554.86497,0.07677
6556.79344,0.05601
6558.72191,-0.00296
6560.65038,-0.01792
6562.57885,0.05660
6564.50732,0.16860
6566.43578,0.19395
6568.36425,0.10854
6570.29272,0.01980
6572.22119,0.01020
6574.14966,0.05540
6576.07813,0.05013
6578.00660,0.00957
6579.93507,0.04448
6581.86353,0.13173
6583.79200,0.17342
6585.72047,0.10192
6587.64894,-0.03245
6589.57741,-0.06944
6591.50588,0.01442
6593.43435,0.08230
6595.36281,0.06174
6597.29128,0.00174
6599.21975,-0.06737
6601.14822,-0.10783
6603.07669,-0.06753
6605.00516,0.01882
6606.93363,0.09426
6608.86210,0.12365
6610.79056,0.10665
6612.71903,0.08943
6614.64750,0.08886
6616.57597,0.07995
6618.50444,0.07836
6620.43291,0.07361
6622.36138,0.04402
6624.28984,0.05827
6626.21831,0.12226
6628.14678,0.13544
6630.07525,0.11279
6632.00372,0.11291
6633.93219,0.09975
6635.86066,0.07481
6637.78912,0.04686
6639.71759,0.02641
6641.64606,0.02967
6643.57453,0.04454
6645.50300,0.08812
6647.43147,0.12392
6649.35994,0.08867
6651.28841,0.06459
6653.21687,0.12620
6655.14534,0.21907
6657.07381,0.25683
6659.00228,0.18883
6660.93075,0.04612
6662.85922,-0.03673
6664.78769,-0.02108
6666.71615,0.00826
6668.64462,0.04487
6670.57309,0.07806
6672.50156,0.05140
6674.43003,0.04337
6676.35850,0.08303
6678.28697,0.06462
6680.21544,-0.01179
6682.14390,-0.03776
6684.07237,0.02750
6686.00084,0.09126
6687.92931,0.04941
6689.85778,-0.06482
6691.78625,-0.09793
6693.71472,-0.04201
6695.64318,0.00899
6697.57165,0.04765
6699.50012,0.10107
6701.42859,0.13728
6703.35706,0.14523
6705.28553,0.14283
6707.21400,0.13474
6709.14247,0.10500
6711.07093,0.05307
6712.99940,-0.00195
6714.92787,-0.01588
6716.85634,0.02797
6718.78481,0.04413
6720.71328,0.01291
6722.64175,0.00520
6724.57021,0.01607
6726.49868,0.00836
6728.42715,-0.04016
6730.35562,-0.07009
6732.28409,-0.00554
6734.21256,0.05501
6736.14103,0.04395
6738.06950,0.06989
6739.99796,0.13688
6741.92643,0.11635
6743.85490,0.02367
6745.78337,-0.02288
6747.71184,-0.01423
6749.64031,-0.01463
6751.56878,-0.01727
6753.49724,0.02516
6755.42571,0.04987
6757.35418,0.01326
6759.28265,-0.03104
6761.21112,-0.03213
6763.13959,0.03565
6765.06806,0.12444
6766.99653,0.12772
6768.92499,0.03241
6770.85346,-0.04959
6772.78193,-0.04292
6774.71040,0.00935
6776.63887,0.06948
6778.56734,0.14926
6780.49581,0.20611
6782.42427,0.17971
6784.35274,0.10917
6786.28121,0.05486
6788.20968,0.00884
6790.13815,-0.04681
6792.06662,-0.06111
6793.99509,0.00658
6795.92355,0.06693
6797.85202,0.03239
6799.78049,-0.03464
6801.70896,-0.02791
6803.63743,0.03727
6805.56590,0.07854
6807.49437,0.09558
6809.42284,0.09431
6811.35130,0.03036
6813.27977,-0.08301
6815.20824,-0.12050
6817.13671,-0.04396
6819.06518,0.00563
6820.99365,-0.02035
6822.92212,-0.03423
6824.85058,-0.02008
6826.77905,-0.01886
6828.70752,0.01759
6830.63599,0.08338
6832.56446,0.09679
6834.49293,0.06058
6836.42140,0.03959
6838.34987,0.08043
6840.27833,0.14163
6842.20680,0.17359
6844.13527,0.15844
6846.06374,0.12653
6847.99221,0.17794
6849.92068,0.27414
6851.84915,0.26779
6853.77761,0.21216
6855.70608,0.15703
6857.63455,0.08600
6859.56302,0.02652
6861.49149,0.01818
6863.41996,0.06437
6865.34843,0.11116
6867.27690,0.13115
6869.20536,0.14817
6871.13383,0.15853
6873.06230,0.13768
6874.99077,0.08290
6876.91924,0.00228
6878.84771,-0.03617
6880.77618,0.00466
6882.70464,0.01847
6884.63311,0.01594
6886.56158,0.06055
6888.49005,0.10023
6890.41852,0.07712
6892.34699,-0.00126
6894.27546,-0.05747
6896.20393,-0.01281
6898.13239,0.08016
6900.06086,0.06494
6901.98933,-0.00548
6903.91780,0.02493
6905.84627,0.14908
6907.77474,0.25874
6909.70321,0.28991
6911.63167,0.27820
6913.56014,0.28199
6915.48861,0.23809
6917.41708,0.13854
6919.34555,0.08441
6921.27402,0.10191
6923.20249,0.12618
6925.13096,0.12159
6927.05942,0.08523
6928.98789,0.06413
6930.91636,0.10904
6932.84483,0.13376
6934.77330,0.11134
6936.70177,0.13650
6938.63024,0.21074
6940.55870,0.26007
6942.48717,0.25527
6944.41564,0.24963
6946.34411,0.22728
6948.27258,0.12274
6950.20105,-0.01643
6952.12952,-0.06897
6954.05799,-0.03453
6955.98645,0.01199
6957.91492,0.03151
6959.84339,0.00460
6961.77186,-0.01057
6963.70033,0.01588
6965.62880,0.03521
6967.55727,0.03210
6969.48573,0.00222
6971.41420,-0.03691
6973.34267,-0.04689
6975.27114,-0.02044
6977.19961,0.02325
6979.12808,0.03568
6981.05655,0.00882
6982.98501,-0.00726
6984.91348,-0.03862
6986.84195,-0.10900
6988.77042,-0.14345
6990.69889,-0.13283
6992.62736,-0.12907
6994.55583,-0.16359
6996.48430,-0.18566
6998.41276,-0.09216
7000.34123,0.03673
7002.26970,0.03703
7004.19817,-0.04180
7006.12664,-0.03697
7008.05511,0.06898
7009.98358,0.10125
7011.91204,0.05296
7013.84051,0.06804
7015.76898,0.12288
7017.69745,0.12361
7019.62592,0.10850
7021.55439,0.10009
7023.48286,0.11061
7025.41133,0.13858
7027.33979,0.10954
7029.26826,0.07328
7031.19673,0.11056
7033.12520,0.08387
7035.05367,-0.03068
7036.98214,-0.10694
7038.91061,-0.14340
7040.83907,-0.11564
7042.76754,-0.01674
7044.69601,0.00832
7046.62448,-0.03048
7048.55295,0.00837
7050.48142,0.09403
7052.40989,0.12561
7054.33836,0.08621
7056.26682,0.04726
7058.19529,0.07708
7060.12376,0.11930
7062.05223,0.10915
7063.98070,0.08972
7065.90917,0.11604
7067.83764,0.20413
7069.76610,0.34784
7071.69457,0.35143
7073.62304,0.12088
7075.55151,-0.05184
7077.47998,-0.04195
7079.40845,0.02150
7081.33692,0.03436
7083.26539,0.02163
7085.19385,0.04267
7087.12232,0.10934
7089.05079,0.12832
7090.97926,0.02877
7092.90773,-0.07563
7094.83620,-0.04345
7096.76467,0.06721
7098.69313,0.07025
7100.62160,-0.00643
7102.55007,-0.01124
7104.47854,0.02778
7106.40701,0.04093
7108.33548,0.04342
7110.26395,0.13899
7112.19242,0.32949
7114.12088,0.40263
7116.04935,0.27989
7117.97782,0.14154
7119.90629,0.10734
7121.83476,0.09589
7123.76323,0.09056
7125.69170,0.07279
7127.62016,0.04542
7129.54863,0.02237
7131.47710,-0.00637
7133.40557,0.02099
7135.33404,0.10087
7137.26251,0.18566
7139.19098,0.27886
7141.11944,0.31378
7143.04791,0.24742
7144.97638,0.14547
7146.90485,0.06242
7148.83332,-0.00949
7150.76179,-0.06274
7152.69026,-0.08003
7154.61873,-0.04267
7156.54719,0.02485
7158.47566,0.03798
7160.40413,0.01815
7162.33260,0.05675
7164.26107,0.12087
7166.18954,0.15104
7168.11801,0.19354
7170.04647,0.26105
7171.97494,0.29854
7173.90341,0.28874
7175.83188,0.19861
7177.76035,0.03355
7179.68882,-0.06040
7181.61729,-0.04871
7183.54576,0.00334
7185.47422,0.07969
7187.40269,0.07026
7189.33116,-0.03621
7191.25963,-0.04835
7193.18810,0.02299
7195.11657,0.01057
7197.04504,-0.01274
7198.97350,0.03834
7200.90197,0.09764
7202.83044,0.11644
7204.75891,0.09826
7206.68738,0.05354
7208.61585,0.02089
7210.54432,0.02079
7212.47279,-0.00116
7214.40125,-0.09860
7216.32972,-0.20240
7218.25819,-0.14577
7220.18666,-0.00949
7222.11513,0.03597
7224.04360,0.04558
7225.97207,0.06778
7227.90053,0.05118
7229.82900,-0.04715
7231.75747,-0.15575
7233.68594,-0.10717
7235.61441,0.03837
7237.54288,0.11915
7239.47135,0.09248
7241.39982,0.08771
7243.32828,0.22987
7245.25675,0.30836
7247.18522,0.16999
7249.11369,-0.00395
7251.04216,-0.02155
7252.97063,0.09909
7254.89910,0.15055
7256.82756,0.12876
7258.75603,0.07725
7260.68450,0.02298
7262.61297,0.08975
7264.54144,0.19933
7266.46991,0.24854
7268.39838,0.26355
7270.32685,0.21039
7272.25531,0.07063
7274.18378,-0.04435
7276.11225,-0.03188
7278.04072,0.11297
7279.96919,0.23013
7281.89766,0.06412
7283.82613,-0.13459
7285.75459,-0.12064
7287.68306,0.00035
7289.61153,0.10994
7291.54000,0.21375
7293.46847,0.30158
7295.39694,0.31395
7297.32541,0.25819
7299.25387,0.18304
7301.18234,0.06446
7303.11081,-0.09415
7305.03928,-0.15845
7306.96775,-0.02974
7308.89622,0.12107
7310.82469,0.14289
7312.75316,0.20053
7314.68162,0.30827
7316.61009,0.32789
7318.53856,0.20641
7320.46703,0.09701
7322.39550,0.08762
7324.32397,0.14723
7326.25244,0.24007
7328.18090,0.30268
7330.10937,0.18431
7332.03784,-0.00578
7333.96631,-0.03999
7335.89478,0.00401
7337.82325,0.03625
7339.75172,0.11044
7341.68019,0.15850
7343.60865,0.18847
7345.53712,0.24505
7347.46559,0.16702
7349.39406,-0.04417
7351.32253,-0.12444
7353.25100,-0.02200
7355.17947,0.09403
7357.10793,0.12821
7359.03640,0.06835
7360.96487,0.06445
7362.89334,0.08373
7364.82181,0.06450
7366.75028,0.13416
7368.67875,0.17953
7370.60722,0.08380
7372.53568,-0.04881
7374.46415,-0.15938
7376.39262,-0.18860
7378.32109,-0.18852
7380.24956,-0.19476
7382.17803,-0.12846
7384.10650,-0.06023
7386.03496,-0.09472
7387.96343,-0.14407
7389.89190,-0.11941
7391.82037,-0.03035
7393.74884,0.07772
7395.67731,0.16273
7397.60578,0.20958
7399.53425,0.17613
7401.46271,0.09094
7403.39118,0.10614
7405.31965,0.19290
7407.24812,0.14866
7409.17659,0.08193
7411.10506,-0.00359
7413.03353,-0.17218
7414.96199,-0.31372
7416.89046,-0.35820
7418.81893,-0.25623
7420.74740,-0.04883
7422.67587,0.09649
7424.60434,0.10304
7426.53281,0.01189
7428.46128,-0.02309
7430.38974,0.09250
7432.31821,0.19368
7434.24668,0.18479
7436.17515,0.23935
7438.10362,0.38011
7440.03209,0.35547
7441.96056,0.18410
7443.88902,0.09623
7445.81749,0.04076
7447.74596,-0.06288
7449.67443,-0.08275
7451.60290,0.00540
7453.53137,-0.00919
7455.45984,-0.15339
7457.38831,-0.28684
7459.31677,-0.32628
7461.24524,-0.22468
7463.17371,-0.05320
7465.10218,0.00897
7467.03065,0.00145
7468.95912,0.10412
7470.88759,0.20762
7472.81605,0.16366
7474.74452,0.06402
7476.67299,0.03221
7478.60146,0.09884
7480.52993,0.08157
7482.45840,-0.07353
7484.38687,-0.17407
7486.31533,-0.14253
7488.24380,0.00520
7490.17227,0.09714
7492.10074,0.06312
7494.02921,0.02051
7495.95768,-0.03716
7497.88615,-0.15535
