399.19301,-0.11083
401.12148,-0.23715
403.04995,-0.09909
404.97842,0.02430
406.90689,0.11889
408.83536,0.14787
410.76382,0.15138
412.69229,0.16394
414.62076,0.11179
416.54923,0.05669
418.47770,0.03219
420.40617,-0.01474
422.33464,-0.00990
424.26311,0.03096
426.19157,0.02435
428.12004,-0.01040
430.04851,-0.02881
431.97698,-0.02529
433.90545,-0.00648
435.83392,0.02234
437.76239,0.05040
439.69085,0.05971
441.61932,0.02115
443.54779,-0.04771
445.47626,-0.07201
447.40473,-0.02685
449.33320,0.04565
451.26167,0.10291
453.19013,0.13576
455.11860,0.13732
457.04707,0.07731
458.97554,-0.00047
460.90401,-0.01152
462.83248,0.04168
464.76095,0.11022
466.68942,0.12363
468.61788,0.11268
470.54635,0.11950
472.47482,0.09819
474.40329,0.05610
476.33176,0.10282
478.26023,0.14738
480.18870,0.14653
482.11716,0.15820
484.04563,0.19354
485.97410,0.19902
487.90257,0.16993
489.83104,0.14884
491.75951,0.14015
493.68798,0.12434
495.61645,0.12506
497.54491,0.14287
499.47338,0.13436
501.40185,0.08373
503.33032,0.04564
505.25879,0.05330
507.18726,0.05834
509.11573,0.05277
511.04419,0.05884
512.97266,0.05794
514.90113,0.04996
516.82960,0.06089
518.75807,0.06895
520.68654,0.05053
522.61501,0.04511
524.54348,0.08734
526.47194,0.12140
528.40041,0.09929
530.32888,0.08046
532.25735,0.08176
534.18582,0.07295
536.11429,0.06112
538.04276,0.05996
539.97122,0.06673
541.89969,0.07119
543.82816,0.06333
545.75663,0.05791
547.68510,0.07558
549.61357,0.15730
551.54204,0.40920
553.47051,0.64661
555.39897,0.51041
557.32744,0.19116
559.25591,0.07312
561.18438,0.09812
563.11285,0.12232
565.04132,0.12306
566.96979,0.11455
568.89825,0.09806
570.82672,0.07422
572.75519,0.06844
574.68366,0.08122
576.61213,0.09214
578.54060,0.08797
580.46907,0.07454
582.39754,0.06300
584.32600,0.05762
586.25447,0.05757
588.18294,0.06680
590.11141,0.09102
592.03988,0.11024
593.96835,0.10474
595.89682,0.08641
597.82528,0.07120
599.75375,0.05708
601.68222,0.04100
603.61069,0.04575
605.53916,0.07973
607.46763,0.10640
609.39610,0.10079
611.32456,0.08420
613.25303,0.08611
615.18150,0.10194
617.10997,0.11292
619.03844,0.11587
620.96691,0.10937
622.89538,0.10149
624.82385,0.09666
626.75231,0.08162
628.68078,0.06925
630.60925,0.08190
632.53772,0.10276
634.46619,0.10698
636.39466,0.09997
638.32313,0.09874
640.25159,0.10918
642.18006,0.11543
644.10853,0.10136
646.03700,0.08392
647.96547,0.08577
649.89394,0.10321
651.82241,0.11983
653.75088,0.12899
655.67934,0.12451
657.60781,0.10902
659.53628,0.10501
661.46475,0.10995
663.39322,0.10506
665.32169,0.09379
667.25016,0.08343
669.17862,0.09128
671.10709,0.10518
673.03556,0.09955
674.96403,0.09229
676.89250,0.09673
678.82097,0.09356
680.74944,0.08856
682.67791,0.09865
684.60637,0.10109
686.53484,0.08332
688.46331,0.06873
690.39178,0.07174
692.32025,0.08292
694.24872,0.09352
696.17719,0.10292
698.10565,0.10814
700.03412,0.10781
701.96259,0.10184
703.89106,0.09052
705.81953,0.08752
707.74800,0.09901
709.67647,0.10532
711.60494,0.10164
713.53340,0.10745
715.46187,0.12187
717.39034,0.13030
719.31881,0.13147
721.24728,0.12573
723.17575,0.11873
725.10422,0.11868
727.03268,0.11761
728.96115,0.10690
730.88962,0.09648
732.81809,0.09639
734.74656,0.10175
736.67503,0.11025
738.60350,0.11961
740.53197,0.12191
742.46043,0.11959
744.38890,0.11759
746.31737,0.11753
748.24584,0.12124
750.17431,0.12104
752.10278,0.11085
754.03125,0.10357
755.95971,0.10959
757.88818,0.11861
759.81665,0.12061
761.74512,0.12209
763.67359,0.12566
765.60206,0.12180
767.53053,0.11528
769.45900,0.11478
771.38746,0.11667
773.31593,0.12172
775.24440,0.12468
777.17287,0.11583
779.10134,0.10584
781.02981,0.10513
782.95828,0.10794
784.88674,0.11172
786.81521,0.11319
788.74368,0.10579
790.67215,0.09866
792.60062,0.10109
794.52909,0.10537
796.45756,0.10421
798.38602,0.09946
800.31449,0.09645
802.24296,0.10241
804.17143,0.11361
806.09990,0.11905
808.02837,0.11650
809.95684,0.11294
811.88531,0.11787
813.81377,0.12890
815.74224,0.13307
817.67071,0.12767
819.59918,0.12161
821.52765,0.11846
823.45612,0.11544
825.38459,0.11571
827.31305,0.12081
829.24152,0.12410
831.16999,0.12341
833.09846,0.12139
835.02693,0.12050
836.95540,0.12166
838.88387,0.12203
840.81234,0.11882
842.74080,0.11434
844.66927,0.11314
846.59774,0.11427
848.52621,0.11520
850.45468,0.11577
852.38315,0.11690
854.31162,0.12146
856.24008,0.12503
858.16855,0.12175
860.09702,0.11778
862.02549,0.12022
863.95396,0.12043
865.88243,0.11005
867.81090,0.10488
869.73937,0.11445
871.66783,0.12405
873.59630,0.12788
875.52477,0.12934
877.45324,0.12621
879.38171,0.12202
881.31018,0.12289
883.23865,0.12649
885.16711,0.12563
887.09558,0.11711
889.02405,0.10551
890.95252,0.09847
892.88099,0.10261
894.80946,0.11572
896.73793,0.13133
898.66640,0.14595
900.59486,0.15039
902.52333,0.14340
904.45180,0.13754
906.38027,0.13407
908.30874,0.12982
910.23721,0.13119
912.16568,0.13604
914.09414,0.13823
916.02261,0.13783
917.95108,0.13325
919.87955,0.12626
921.80802,0.11795
923.73649,0.11223
925.66496,0.11786
927.59343,0.12595
929.52189,0.12499
931.45036,0.12322
933.37883,0.12307
935.30730,0.12091
937.23577,0.12346
939.16424,0.13091
941.09271,0.13545
943.02117,0.13613
944.94964,0.13858
946.87811,0.13875
948.80658,0.12914
950.73505,0.12082
952.66352,0.12364
954.59199,0.13218
956.52045,0.13602
958.44892,0.12983
960.37739,0.12014
962.30586,0.11790
964.23433,0.12445
966.16280,0.12925
968.09127,0.12855
970.01974,0.12950
971.94820,0.13088
973.87667,0.12858
975.80514,0.12909
977.73361,0.13431
979.66208,0.13715
981.59055,0.13476
983.51902,0.12986
985.44748,0.12676
987.37595,0.12636
989.30442,0.12743
991.23289,0.12888
993.16136,0.13110
995.08983,0.13544
997.01830,0.13665
998.94677,0.13187
1000.87523,0.12814
1002.80370,0.12776
1004.73217,0.12934
1006.66064,0.13590
1008.58911,0.14140
1010.51758,0.13858
1012.44605,0.13442
1014.37451,0.13283
1016.30298,0.13203
1018.23145,0.13459
1020.15992,0.13944
1022.08839,0.14155
1024.01686,0.14056
1025.94533,0.13898
1027.87380,0.13765
1029.80226,0.13635
1031.73073,0.13445
1033.65920,0.13361
1035.58767,0.13722
1037.51614,0.14412
1039.44461,0.14774
1041.37308,0.14543
1043.30154,0.13999
1045.23001,0.13475
1047.15848,0.13478
1049.08695,0.14327
1051.01542,0.15057
1052.94389,0.14963
1054.87236,0.15052
1056.80083,0.15243
1058.72929,0.14743
1060.65776,0.14409
1062.58623,0.14672
1064.51470,0.14819
1066.44317,0.14690
1068.37164,0.14945
1070.30011,0.15739
1072.22857,0.16154
1074.15704,0.15679
1076.08551,0.15051
1078.01398,0.15105
1079.94245,0.15777
1081.87092,0.16451
1083.79939,0.16603
1085.72786,0.15937
1087.65632,0.14776
1089.58479,0.13979
1091.51326,0.14112
1093.44173,0.14746
1095.37020,0.14803
1097.29867,0.14544
1099.22714,0.14920
1101.15560,0.15076
1103.08407,0.14667
1105.01254,0.14948
1106.94101,0.15695
1108.86948,0.15714
1110.79795,0.15120
1112.72642,0.15065
1114.65489,0.15420
1116.58335,0.15025
1118.51182,0.14635
1120.44029,0.15048
1122.36876,0.15357
1124.29723,0.15125
1126.22570,0.14744
1128.15417,0.14596
1130.08263,0.14412
1132.01110,0.14050
1133.93957,0.14132
1135.86804,0.14652
1137.79651,0.14890
1139.72498,0.15042
1141.65345,0.15449
1143.58191,0.15332
1145.51038,0.14755
1147.43885,0.14756
1149.36732,0.15273
1151.29579,0.15431
1153.22426,0.15226
1155.15273,0.15320
1157.08120,0.15468
1159.00966,0.15310
1160.93813,0.15214
1162.86660,0.15027
1164.79507,0.14440
1166.72354,0.14105
1168.65201,0.14432
1170.58048,0.14965
1172.50894,0.15471
1174.43741,0.15790
1176.36588,0.15688
1178.29435,0.15376
1180.22282,0.15136
1182.15129,0.15122
1184.07976,0.15437
1186.00823,0.15753
1187.93669,0.15807
1189.86516,0.15832
1191.79363,0.15843
1193.72210,0.15693
1195.65057,0.15577
1197.57904,0.15730
1199.50751,0.16000
1201.43597,0.16208
1203.36444,0.16284
1205.29291,0.16030
1207.22138,0.15487
1209.14985,0.15003
1211.07832,0.14816
1213.00679,0.14908
1214.93526,0.15053
1216.86372,0.15064
1218.79219,0.15073
1220.72066,0.15283
1222.64913,0.15579
1224.57760,0.15725
1226.50607,0.15710
1228.43454,0.15585
1230.36300,0.15423
1232.29147,0.15327
1234.21994,0.15242
1236.14841,0.15279
1238.07688,0.15549
1240.00535,0.15615
1241.93382,0.15180
1243.86229,0.14680
1245.79075,0.14515
1247.71922,0.14776
1249.64769,0.15300
1251.57616,0.15555
1253.50463,0.15715
1255.43310,0.16180
1257.36157,0.16201
1259.29003,0.15350
1261.21850,0.14868
1263.14697,0.15454
1265.07544,0.15793
1267.00391,0.15141
1268.93238,0.14524
1270.86085,0.14771
1272.78932,0.15218
1274.71778,0.15082
1276.64625,0.14970
1278.57472,0.15334
1280.50319,0.15592
1282.43166,0.15667
1284.36013,0.15882
1286.28860,0.15822
1288.21706,0.15503
1290.14553,0.15429
1292.07400,0.15340
1294.00247,0.15111
1295.93094,0.15091
1297.85941,0.15087
1299.78788,0.14306
1301.71634,0.12441
1303.64481,0.10593
1305.57328,0.10926
1307.50175,0.13729
1309.43022,0.16125
1311.35869,0.16696
1313.28716,0.16714
1315.21563,0.16706
1317.14409,0.16615
1319.07256,0.16432
1321.00103,0.15935
1322.92950,0.15599
1324.85797,0.15581
1326.78644,0.15483
1328.71491,0.15309
1330.64337,0.14909
1332.57184,0.14668
1334.50031,0.14929
1336.42878,0.15081
1338.35725,0.15194
1340.28572,0.15086
1342.21419,0.14687
1344.14266,0.14841
1346.07112,0.15184
1347.99959,0.15331
1349.92806,0.15391
1351.85653,0.15200
1353.78500,0.15030
1355.71347,0.15163
1357.64194,0.15392
1359.57040,0.15648
1361.49887,0.16148
1363.42734,0.16599
1365.35581,0.16643
1367.28428,0.16563
1369.21275,0.16526
1371.14122,0.16789
1373.06969,0.17470
1374.99815,0.17815
1376.92662,0.17396
1378.85509,0.17186
1380.78356,0.17407
1382.71203,0.17409
1384.64050,0.17219
1386.56897,0.17166
1388.49743,0.17282
1390.42590,0.17528
1392.35437,0.17880
1394.28284,0.18113
1396.21131,0.18108
1398.13978,0.17943
1400.06825,0.17404
1401.99672,0.16963
1403.92518,0.16969
1405.85365,0.16900
1407.78212,0.16818
1409.71059,0.17119
1411.63906,0.17409
1413.56753,0.17690
1415.49600,0.18237
1417.42446,0.18824
1419.35293,0.19003
1421.28140,0.18737
1423.20987,0.18428
1425.13834,0.17960
1427.06681,0.17634
1428.99528,0.17759
1430.92375,0.17978
1432.85221,0.18203
1434.78068,0.18542
1436.70915,0.18712
1438.63762,0.18421
1440.56609,0.17974
1442.49456,0.17617
1444.42303,0.17629
1446.35149,0.18020
1448.27996,0.18141
1450.20843,0.17908
1452.13690,0.18119
1454.06537,0.18988
1455.99384,0.20130
1457.92231,0.20283
1459.85077,0.19344
1461.77924,0.18853
1463.70771,0.18779
1465.63618,0.18522
1467.56465,0.18325
1469.49312,0.18806
1471.42159,0.19611
1473.35006,0.19544
1475.27852,0.18832
1477.20699,0.18595
1479.13546,0.18613
1481.06393,0.18545
1482.99240,0.18510
1484.92087,0.18870
1486.84934,0.19518
1488.77780,0.19703
1490.70627,0.19050
1492.63474,0.18600
1494.56321,0.18854
1496.49168,0.19479
1498.42015,0.19458
1500.34862,0.18792
1502.27709,0.18482
1504.20555,0.18785
1506.13402,0.19900
1508.06249,0.21125
1509.99096,0.20942
1511.91943,0.20231
1513.84790,0.19763
1515.77637,0.20060
1517.70483,0.20661
1519.63330,0.20875
1521.56177,0.20865
1523.49024,0.20550
1525.41871,0.20129
1527.34718,0.19582
1529.27565,0.19189
1531.20412,0.19518
1533.13258,0.20240
1535.06105,0.20371
1536.98952,0.20436
1538.91799,0.21193
1540.84646,0.21817
1542.77493,0.21352
1544.70340,0.20406
1546.63186,0.19419
1548.56033,0.19072
1550.48880,0.19335
1552.41727,0.19810
1554.34574,0.20460
1556.27421,0.21513
1558.20268,0.22590
1560.13115,0.21360
1562.05961,0.20082
1563.98808,0.19643
1565.91655,0.19496
1567.84502,0.19616
1569.77349,0.19527
1571.70196,0.19092
1573.63043,0.19137
1575.55889,0.19575
1577.48736,0.19557
1579.41583,0.19175
1581.34430,0.18906
1583.27277,0.18815
1585.20124,0.18789
1587.12971,0.18725
1589.05818,0.18561
1590.98664,0.18273
1592.91511,0.18159
1594.84358,0.18289
1596.77205,0.18448
1598.70052,0.18702
1600.62899,0.18861
1602.55746,0.18666
1604.48592,0.18455
1606.41439,0.18425
1608.34286,0.18531
1610.27133,0.18782
1612.19980,0.19130
1614.12827,0.19764
1616.05674,0.20644
1617.98521,0.20756
1619.91367,0.20280
1621.84214,0.20066
1623.77061,0.20046
1625.69908,0.20103
1627.62755,0.20041
1629.55602,0.19681
1631.48449,0.19580
1633.41295,0.20212
1635.34142,0.21406
1637.26989,0.21418
1639.19836,0.20441
1641.12683,0.19856
1643.05530,0.20056
1644.98377,0.21226
1646.91223,0.22325
1648.84070,0.21891
1650.76917,0.21974
1652.69764,0.23117
1654.62611,0.22234
1656.55458,0.20546
1658.48305,0.19691
1660.41152,0.19710
1662.33998,0.20060
1664.26845,0.19624
1666.19692,0.19383
1668.12539,0.20226
1670.05386,0.21272
1671.98233,0.21357
1673.91080,0.21125
1675.83926,0.20821
1677.76773,0.20564
1679.69620,0.20695
1681.62467,0.21429
1683.55314,0.22593
1685.48161,0.22164
1687.41008,0.20779
1689.33855,0.19946
1691.26701,0.19551
1693.19548,0.19577
1695.12395,0.20077
1697.05242,0.20664
1698.98089,0.20839
1700.90936,0.20804
1702.83783,0.20748
1704.76629,0.20615
1706.69476,0.20306
1708.62323,0.19912
1710.55170,0.19624
1712.48017,0.19850
1714.40864,0.20814
1716.33711,0.21714
1718.26558,0.21174
1720.19404,0.20105
1722.12251,0.19413
1724.05098,0.18992
1725.97945,0.18887
1727.90792,0.19049
1729.83639,0.19386
1731.76486,0.20081
1733.69332,0.20846
1735.62179,0.20504
1737.55026,0.19920
1739.47873,0.20059
1741.40720,0.20576
1743.33567,0.20674
1745.26414,0.20508
1747.19261,0.20537
1749.12107,0.20521
1751.04954,0.19872
1752.97801,0.19160
1754.90648,0.19078
1756.83495,0.19319
1758.76342,0.19473
1760.69189,0.19721
1762.62035,0.19767
1764.54882,0.19304
1766.47729,0.18999
1768.40576,0.19347
1770.33423,0.20267
1772.26270,0.20726
1774.19117,0.20050
1776.11964,0.19520
1778.04810,0.19619
1779.97657,0.19854
1781.90504,0.19680
1783.83351,0.19262
1785.76198,0.19040
1787.69045,0.19113
1789.61892,0.19360
1791.54738,0.19568
1793.47585,0.19507
1795.40432,0.19297
1797.33279,0.19278
1799.26126,0.19569
1801.18973,0.19700
1803.11820,0.19434
1805.04666,0.19203
1806.97513,0.19142
1808.90360,0.19184
1810.83207,0.19216
1812.76054,0.19072
1814.68901,0.18909
1816.61748,0.18681
1818.54595,0.18132
1820.47441,0.17844
1822.40288,0.18318
1824.33135,0.19116
1826.25982,0.19840
1828.18829,0.20277
1830.11676,0.20012
1832.04523,0.19328
1833.97369,0.19078
1835.90216,0.19196
1837.83063,0.19111
1839.75910,0.18930
1841.68757,0.19169
1843.61604,0.19640
1845.54451,0.19716
1847.47298,0.19506
1849.40144,0.19200
1851.32991,0.18858
1853.25838,0.18720
1855.18685,0.18688
1857.11532,0.18636
1859.04379,0.18794
1860.97226,0.19075
1862.90072,0.19211
1864.82919,0.19481
1866.75766,0.19947
1868.68613,0.19984
1870.61460,0.19528
1872.54307,0.19287
1874.47154,0.19303
1876.40001,0.19294
1878.32847,0.19253
1880.25694,0.19264
1882.18541,0.19278
1884.11388,0.19193
1886.04235,0.19147
1887.97082,0.19341
1889.89929,0.19491
1891.82775,0.19414
1893.75622,0.19383
1895.68469,0.19430
1897.61316,0.19385
1899.54163,0.19301
1901.47010,0.19257
1903.39857,0.19190
1905.32704,0.19175
1907.25550,0.19254
1909.18397,0.19297
1911.11244,0.19233
1913.04091,0.19134
1914.96938,0.19132
1916.89785,0.19155
1918.82632,0.19090
1920.75478,0.19173
1922.68325,0.19437
1924.61172,0.19526
1926.54019,0.19391
1928.46866,0.19338
1930.39713,0.19492
1932.32560,0.19662
1934.25407,0.19673
1936.18253,0.19487
1938.11100,0.19178
1940.03947,0.19129
1941.96794,0.19511
1943.89641,0.19739
1945.82488,0.19501
1947.75335,0.19081
1949.68181,0.18711
1951.61028,0.18619
1953.53875,0.18873
1955.46722,0.19262
1957.39569,0.19458
1959.32416,0.19430
1961.25263,0.19369
1963.18110,0.19310
1965.10956,0.19360
1967.03803,0.19518
1968.96650,0.19576
1970.89497,0.19464
1972.82344,0.19289
1974.75191,0.19166
1976.68038,0.19082
1978.60884,0.19158
1980.53731,0.19370
1982.46578,0.19313
1984.39425,0.19091
1986.32272,0.19108
1988.25119,0.19321
1990.17966,0.19514
1992.10812,0.19521
1994.03659,0.19433
1995.96506,0.19450
1997.89353,0.19451
1999.82200,0.19288
2001.75047,0.19119
2003.67894,0.19112
2005.60741,0.19218
2007.53587,0.19417
2009.46434,0.19548
2011.39281,0.19417
2013.32128,0.19302
2015.24975,0.19415
2017.17822,0.19534
2019.10669,0.19524
2021.03515,0.19458
2022.96362,0.19414
2024.89209,0.19403
2026.82056,0.19346
2028.74903,0.19330
2030.67750,0.19511
2032.60597,0.19698
2034.53444,0.19625
2036.46290,0.19501
2038.39137,0.19581
2040.31984,0.19579
2042.24831,0.19421
2044.17678,0.19362
2046.10525,0.19345
2048.03372,0.19394
2049.96218,0.19551
2051.89065,0.19680
2053.81912,0.19795
2055.74759,0.19784
2057.67606,0.19453
2059.60453,0.19107
2061.53300,0.19088
2063.46147,0.19251
2065.38993,0.19328
2067.31840,0.19303
2069.24687,0.19328
2071.17534,0.19443
2073.10381,0.19672
2075.03228,0.19886
2076.96075,0.19763
2078.88921,0.19358
2080.81768,0.19052
2082.74615,0.19034
2084.67462,0.19271
2086.60309,0.19511
2088.53156,0.19498
2090.46003,0.19299
2092.38850,0.19109
2094.31696,0.19059
2096.24543,0.19237
2098.17390,0.19601
2100.10237,0.19908
2102.03084,0.19928
2103.95931,0.19810
2105.88778,0.19778
2107.81624,0.19793
2109.74471,0.19787
2111.67318,0.19669
2113.60165,0.19454
2115.53012,0.19369
2117.45859,0.19470
2119.38706,0.19661
2121.31553,0.19816
2123.24399,0.19820
2125.17246,0.19823
2127.10093,0.19883
2129.02940,0.19873
2130.95787,0.19816
2132.88634,0.19531
2134.81481,0.18893
2136.74327,0.18453
2138.67174,0.18776
2140.60021,0.19519
2142.52868,0.19897
2144.45715,0.19873
2146.38562,0.19866
2148.31409,0.19954
2150.24255,0.20114
2152.17102,0.20172
2154.09949,0.19935
2156.02796,0.19651
2157.95643,0.19569
2159.88490,0.19621
2161.81337,0.19725
2163.74184,0.19848
2165.67030,0.19902
2167.59877,0.19838
2169.52724,0.19783
2171.45571,0.19781
2173.38418,0.19686
2175.31265,0.19652
2177.24112,0.19792
2179.16958,0.19811
2181.09805,0.19633
2183.02652,0.19560
2184.95499,0.19663
2186.88346,0.19661
2188.81193,0.19634
2190.74040,0.19815
2192.66887,0.19982
2194.59733,0.19943
2196.52580,0.19841
2198.45427,0.19798
2200.38274,0.19750
2202.31121,0.19690
2204.23968,0.19637
2206.16815,0.19666
2208.09661,0.19867
2210.02508,0.20017
2211.95355,0.19964
2213.88202,0.19861
2215.81049,0.19891
2217.73896,0.20035
2219.66743,0.20066
2221.59590,0.19981
2223.52436,0.19951
2225.45283,0.19880
2227.38130,0.19706
2229.30977,0.19645
2231.23824,0.19867
2233.16671,0.20242
2235.09518,0.20350
2237.02364,0.20128
2238.95211,0.19888
2240.88058,0.19779
2242.80905,0.19852
2244.73752,0.19957
2246.66599,0.19988
2248.59446,0.20066
2250.52293,0.20097
2252.45139,0.19937
2254.37986,0.19699
2256.30833,0.19514
2258.23680,0.19499
2260.16527,0.19706
2262.09374,0.19906
2264.02221,0.19884
2265.95067,0.19749
2267.87914,0.19713
2269.80761,0.19789
2271.73608,0.19850
2273.66455,0.19884
2275.59302,0.19906
2277.52149,0.19788
2279.44996,0.19530
2281.37842,0.19490
2283.30689,0.19729
2285.23536,0.19915
2287.16383,0.19903
2289.09230,0.19790
2291.02077,0.19759
2292.94924,0.19670
2294.87770,0.19512
2296.80617,0.19552
2298.73464,0.19451
2300.66311,0.19140
2302.59158,0.18987
2304.52005,0.18905
2306.44852,0.18773
2308.37699,0.18494
2310.30545,0.18153
2312.23392,0.18045
2314.16239,0.17874
2316.09086,0.17438
2318.01933,0.17009
2319.94780,0.16519
2321.87627,0.16019
2323.80473,0.15843
2325.73320,0.15840
2327.66167,0.15950
2329.59014,0.16395
2331.51861,0.16621
2333.44708,0.16185
2335.37555,0.16015
2337.30401,0.16272
2339.23248,0.16011
2341.16095,0.15658
2343.08942,0.15954
2345.01789,0.15915
2346.94636,0.15561
2348.87483,0.15865
2350.80330,0.16452
2352.73176,0.16091
2354.66023,0.14732
2356.58870,0.14416
2358.51717,0.14290
2360.44564,0.13579
2362.37411,0.14464
2364.30258,0.16001
2366.23104,0.16881
2368.15951,0.17138
2370.08798,0.17048
2372.01645,0.17215
2373.94492,0.17698
2375.87339,0.18311
2377.80186,0.18820
2379.73033,0.19097
2381.65879,0.19253
2383.58726,0.19387
2385.51573,0.19544
2387.44420,0.19795
2389.37267,0.19988
2391.30114,0.19888
2393.22961,0.19696
2395.15807,0.19733
2397.08654,0.19927
2399.01501,0.19975
2400.94348,0.19850
2402.87195,0.19838
2404.80042,0.20044
2406.72889,0.20202
2408.65736,0.20024
2410.58582,0.19681
2412.51429,0.19576
2414.44276,0.19774
2416.37123,0.19986
2418.29970,0.19969
2420.22817,0.19858
2422.15664,0.19895
2424.08510,0.20025
2426.01357,0.19989
2427.94204,0.19810
2429.87051,0.19844
2431.79898,0.20052
2433.72745,0.20001
2435.65592,0.19766
2437.58439,0.19736
2439.51285,0.19922
2441.44132,0.20102
2443.36979,0.20163
2445.29826,0.20168
2447.22673,0.20109
2449.15520,0.19892
2451.08367,0.19563
2453.01213,0.19391
2454.94060,0.19629
2456.86907,0.19961
2458.79754,0.20012
2460.72601,0.19939
2462.65448,0.19917
2464.58295,0.19961
2466.51142,0.20016
2468.43988,0.20072
2470.36835,0.20154
2472.29682,0.20183
2474.22529,0.20162
2476.15376,0.20155
2478.08223,0.20215
2480.01070,0.20406
2481.93916,0.20602
2483.86763,0.20613
2485.79610,0.20451
2487.72457,0.20287
2489.65304,0.20228
2491.58151,0.20213
2493.50998,0.20217
2495.43844,0.20332
2497.36691,0.20534
2499.29538,0.20563
2501.22385,0.20308
2503.15232,0.20024
2505.08079,0.19844
2507.00926,0.19739
2508.93773,0.19729
2510.86619,0.19812
2512.79466,0.19966
2514.72313,0.20106
2516.65160,0.20151
2518.58007,0.20128
2520.50854,0.20028
2522.43701,0.19905
2524.36547,0.19964
2526.29394,0.20108
2528.22241,0.20076
2530.15088,0.19976
2532.07935,0.19971
2534.00782,0.20047
2535.93629,0.20143
2537.86476,0.20197
2539.79322,0.20187
2541.72169,0.20138
2543.65016,0.20194
2545.57863,0.20377
2547.50710,0.20445
2549.43557,0.20249
2551.36404,0.19997
2553.29250,0.20039
2555.22097,0.20339
2557.14944,0.20571
2559.07791,0.20682
2561.00638,0.20724
2562.93485,0.20659
2564.86332,0.20478
2566.79179,0.20251
2568.72025,0.20171
2570.64872,0.20269
2572.57719,0.20413
2574.50566,0.20576
2576.43413,0.20717
2578.36260,0.20740
2580.29107,0.20604
2582.21953,0.20371
2584.14800,0.20221
2586.07647,0.20290
2588.00494,0.20495
2589.93341,0.20685
2591.86188,0.20778
2593.79035,0.20780
2595.71882,0.20712
2597.64728,0.20543
2599.57575,0.20396
2601.50422,0.20439
2603.43269,0.20578
2605.36116,0.20682
2607.28963,0.20684
2609.21810,0.20346
2611.14656,0.19912
2613.07503,0.19960
2615.00350,0.20156
2616.93197,0.20084
2618.86044,0.19998
2620.78891,0.20064
2622.71738,0.20231
2624.64585,0.20440
2626.57431,0.20650
2628.50278,0.20762
2630.43125,0.20778
2632.35972,0.20777
2634.28819,0.20760
2636.21666,0.20750
2638.14513,0.20772
2640.07359,0.20882
2642.00206,0.20983
2643.93053,0.20929
2645.85900,0.20754
2647.78747,0.20550
2649.71594,0.20618
2651.64441,0.20920
2653.57288,0.21032
2655.50134,0.20961
2657.42981,0.20829
2659.35828,0.20757
2661.28675,0.20877
2663.21522,0.21017
2665.14369,0.21047
2667.07216,0.21059
2669.00062,0.21092
2670.92909,0.21031
2672.85756,0.20956
2674.78603,0.21023
2676.71450,0.21034
2678.64297,0.20949
2680.57144,0.20881
2682.49990,0.20833
2684.42837,0.20959
2686.35684,0.21237
2688.28531,0.21348
2690.21378,0.21199
2692.14225,0.21021
2694.07072,0.20971
2695.99919,0.20893
2697.92765,0.20751
2699.85612,0.20855
2701.78459,0.21120
2703.71306,0.21013
2705.64153,0.20573
2707.57000,0.20384
2709.49847,0.20646
2711.42693,0.21025
2713.35540,0.21222
2715.28387,0.21254
2717.21234,0.21286
2719.14081,0.21390
2721.06928,0.21370
2722.99775,0.21124
2724.92622,0.20937
2726.85468,0.21041
2728.78315,0.21238
2730.71162,0.21185
2732.64009,0.21013
2734.56856,0.21118
2736.49703,0.21470
2738.42550,0.21716
2740.35396,0.21729
2742.28243,0.21607
2744.21090,0.21521
2746.13937,0.21697
2748.06784,0.21965
2749.99631,0.21946
2751.92478,0.21722
2753.85325,0.21544
2755.78171,0.21565
2757.71018,0.21673
2759.63865,0.21521
2761.56712,0.21329
2763.49559,0.21449
2765.42406,0.21584
2767.35253,0.21602
2769.28099,0.21674
2771.20946,0.21808
2773.13793,0.22017
2775.06640,0.22094
2776.99487,0.21828
2778.92334,0.21538
2780.85181,0.21553
2782.78028,0.21737
2784.70874,0.21739
2786.63721,0.21485
2788.56568,0.21271
2790.49415,0.21352
2792.42262,0.21631
2794.35109,0.21741
2796.27956,0.21716
2798.20802,0.21972
2800.13649,0.22245
2802.06496,0.22157
2803.99343,0.22075
2805.92190,0.22196
2807.85037,0.22243
2809.77884,0.22212
2811.70731,0.22217
2813.63577,0.22023
2815.56424,0.21589
2817.49271,0.21340
2819.42118,0.21446
2821.34965,0.21560
2823.27812,0.21553
2825.20659,0.21653
2827.13505,0.21823
2829.06352,0.22047
2830.99199,0.22309
2832.92046,0.22212
2834.84893,0.21772
2836.77740,0.21573
2838.70587,0.21917
2840.63433,0.22392
2842.56280,0.22374
2844.49127,0.21917
2846.41974,0.21606
2848.34821,0.21753
2850.27668,0.22049
2852.20515,0.22097
2854.13362,0.21993
2856.06208,0.22004
2857.99055,0.22051
2859.91902,0.22025
2861.84749,0.22234
2863.77596,0.22633
2865.70443,0.22616
2867.63290,0.22128
2869.56136,0.21864
2871.48983,0.21967
2873.41830,0.21864
2875.34677,0.21671
2877.27524,0.21697
2879.20371,0.21776
2881.13218,0.21776
2883.06065,0.21571
2884.98911,0.21436
2886.91758,0.21665
2888.84605,0.22005
2890.77452,0.22254
2892.70299,0.22166
2894.63146,0.21684
2896.55993,0.21417
2898.48839,0.21540
2900.41686,0.21649
2902.34533,0.21629
2904.27380,0.21363
2906.20227,0.21094
2908.13074,0.21397
2910.05921,0.21863
2911.98768,0.21748
2913.91614,0.21009
2915.84461,0.20177
2917.77308,0.20070
2919.70155,0.20605
2921.63002,0.21079
2923.55849,0.21212
2925.48696,0.20879
2927.41542,0.20739
2929.34389,0.21293
2931.27236,0.21611
2933.20083,0.21215
2935.12930,0.20507
2937.05777,0.20018
2938.98624,0.20478
2940.91471,0.21459
2942.84317,0.21906
2944.77164,0.21524
2946.70011,0.20519
2948.62858,0.20240
2950.55705,0.21195
2952.48552,0.21927
2954.41399,0.21579
2956.34245,0.20187
2958.27092,0.19291
2960.19939,0.20449
2962.12786,0.22126
2964.05633,0.22389
2965.98480,0.21339
2967.91327,0.20366
2969.84174,0.20798
2971.77020,0.21843
2973.69867,0.22335
2975.62714,0.21997
2977.55561,0.20821
2979.48408,0.20531
2981.41255,0.21717
2983.34102,0.22544
2985.26948,0.22358
2987.19795,0.21656
2989.12642,0.21382
2991.05489,0.21924
2992.98336,0.22427
2994.91183,0.22515
2996.84030,0.22284
2998.76877,0.22068
3000.69723,0.22190
3002.62570,0.22192
3004.55417,0.21888
3006.48264,0.21519
3008.41111,0.20942
3010.33958,0.19652
3012.26805,0.16930
3014.19651,0.12839
3016.12498,0.09819
3018.05345,0.11472
3019.98192,0.16802
3021.91039,0.20889
3023.83886,0.22275
3025.76733,0.22332
3027.69579,0.22036
3029.62426,0.22099
3031.55273,0.22408
3033.48120,0.22557
3035.40967,0.22609
3037.33814,0.22464
3039.26661,0.22072
3041.19508,0.21812
3043.12354,0.21870
3045.05201,0.21765
3046.98048,0.21301
3048.90895,0.21273
3050.83742,0.21763
3052.76589,0.21970
3054.69436,0.21574
3056.62282,0.20862
3058.55129,0.20994
3060.47976,0.22122
3062.40823,0.22794
3064.33670,0.22038
3066.26517,0.20601
3068.19364,0.20649
3070.12211,0.22057
3072.05057,0.22656
3073.97904,0.21936
3075.90751,0.20921
3077.83598,0.20844
3079.76445,0.21650
3081.69292,0.22015
3083.62139,0.20803
3085.54985,0.19222
3087.47832,0.19928
3089.40679,0.22065
3091.33526,0.22668
3093.26373,0.21243
3095.19220,0.19979
3097.12067,0.20516
3099.04914,0.21599
3100.97760,0.21546
3102.90607,0.20417
3104.83454,0.20026
3106.76301,0.21143
3108.69148,0.22234
3110.61995,0.22029
3112.54842,0.20895
3114.47688,0.20640
3116.40535,0.21573
3118.33382,0.22026
3120.26229,0.21420
3122.19076,0.20791
3124.11923,0.21157
3126.04770,0.22054
3127.97617,0.22370
3129.90463,0.21811
3131.83310,0.21548
3133.76157,0.22309
3135.69004,0.22925
3137.61851,0.22677
3139.54698,0.22201
3141.47545,0.22244
3143.40391,0.22744
3145.33238,0.22941
3147.26085,0.22495
3149.18932,0.22241
3151.11779,0.22797
3153.04626,0.23311
3154.97473,0.23194
3156.90320,0.23083
3158.83166,0.23424
3160.76013,0.23749
3162.68860,0.23650
3164.61707,0.23409
3166.54554,0.23418
3168.47401,0.23610
3170.40248,0.23789
3172.33094,0.23995
3174.25941,0.24262
3176.18788,0.24448
3178.11635,0.24434
3180.04482,0.24238
3181.97329,0.23814
3183.90176,0.23388
3185.83022,0.23350
3187.75869,0.23514
3189.68716,0.23465
3191.61563,0.23338
3193.54410,0.23700
3195.47257,0.24233
3197.40104,0.24035
3199.32951,0.23497
3201.25797,0.23473
3203.18644,0.23647
3205.11491,0.23485
3207.04338,0.23288
3208.97185,0.23212
3210.90032,0.22894
3212.82879,0.22760
3214.75725,0.23279
3216.68572,0.23589
3218.61419,0.23239
3220.54266,0.23045
3222.47113,0.23268
3224.39960,0.23248
3226.32807,0.23016
3228.25654,0.23082
3230.18500,0.23192
3232.11347,0.23132
3234.04194,0.22952
3235.97041,0.22672
3237.89888,0.22557
3239.82735,0.22753
3241.75582,0.23124
3243.68428,0.23429
3245.61275,0.23517
3247.54122,0.23293
3249.46969,0.22982
3251.39816,0.23062
3253.32663,0.23281
3255.25510,0.23233
3257.18357,0.23182
3259.11203,0.23219
3261.04050,0.23176
3262.96897,0.23025
3264.89744,0.22770
3266.82591,0.22477
3268.75438,0.22330
3270.68285,0.22718
3272.61131,0.23496
3274.53978,0.23776
3276.46825,0.23331
3278.39672,0.22882
3280.32519,0.22839
3282.25366,0.22888
3284.18213,0.22777
3286.11060,0.22697
3288.03906,0.23044
3289.96753,0.23659
3291.89600,0.23784
3293.82447,0.23284
3295.75294,0.22797
3297.68141,0.22860
3299.60988,0.23157
3301.53834,0.23041
3303.46681,0.22568
3305.39528,0.22242
3307.32375,0.22323
3309.25222,0.22389
3311.18069,0.22261
3313.10916,0.22417
3315.03763,0.22750
3316.96609,0.22862
3318.89456,0.22778
3320.82303,0.22750
3322.75150,0.22938
3324.67997,0.23174
3326.60844,0.23237
3328.53691,0.23069
3330.46537,0.22943
3332.39384,0.23148
3334.32231,0.23288
3336.25078,0.23169
3338.17925,0.23199
3340.10772,0.23267
3342.03619,0.23238
3343.96466,0.23434
3345.89312,0.23776
3347.82159,0.23949
3349.75006,0.23920
3351.67853,0.23949
3353.60700,0.24231
3355.53547,0.24347
3357.46394,0.23805
3359.39240,0.22999
3361.32087,0.22689
3363.24934,0.23016
3365.17781,0.23294
3367.10628,0.23127
3369.03475,0.23093
3370.96322,0.23253
3372.89168,0.23141
3374.82015,0.22855
3376.74862,0.22651
3378.67709,0.22682
3380.60556,0.23001
3382.53403,0.23429
3384.46250,0.23278
3386.39097,0.22340
3388.31943,0.21675
3390.24790,0.21882
3392.17637,0.22385
3394.10484,0.22698
3396.03331,0.22983
3397.96178,0.23391
3399.89025,0.23853
3401.81871,0.24041
3403.74718,0.23530
3405.67565,0.22638
3407.60412,0.22212
3409.53259,0.22302
3411.46106,0.22240
3413.38953,0.22199
3415.31800,0.22534
3417.24646,0.22694
3419.17493,0.22523
3421.10340,0.22429
3423.03187,0.22428
3424.96034,0.22433
3426.88881,0.22483
3428.81728,0.22639
3430.74574,0.22848
3432.67421,0.22856
3434.60268,0.22673
3436.53115,0.22488
3438.45962,0.22205
3440.38809,0.21865
3442.31656,0.21843
3444.24503,0.22189
3446.17349,0.22390
3448.10196,0.21984
3450.03043,0.21506
3451.95890,0.21616
3453.88737,0.21833
3455.81584,0.21763
3457.74431,0.21650
3459.67277,0.21420
3461.60124,0.21062
3463.52971,0.20903
3465.45818,0.20971
3467.38665,0.21121
3469.31512,0.21259
3471.24359,0.21184
3473.17206,0.21154
3475.10052,0.21510
3477.02899,0.21888
3478.95746,0.21990
3480.88593,0.21710
3482.81440,0.21139
3484.74287,0.20815
3486.67134,0.20798
3488.59980,0.20825
3490.52827,0.20754
3492.45674,0.20222
3494.38521,0.19389
3496.31368,0.18956
3498.24215,0.19059
3500.17062,0.19437
3502.09909,0.19681
3504.02755,0.19573
3505.95602,0.19473
3507.88449,0.19387
3509.81296,0.19058
3511.74143,0.18699
3513.66990,0.18611
3515.59837,0.18930
3517.52683,0.19525
3519.45530,0.19956
3521.38377,0.20055
3523.31224,0.19926
3525.24071,0.19758
3527.16918,0.19618
3529.09765,0.19187
3531.02611,0.18602
3532.95458,0.18379
3534.88305,0.18402
3536.81152,0.18330
3538.73999,0.18254
3540.66846,0.18293
3542.59693,0.18427
3544.52540,0.18597
3546.45386,0.18597
3548.38233,0.18566
3550.31080,0.18717
3552.23927,0.18698
3554.16774,0.18166
3556.09621,0.17392
3558.02468,0.16893
3559.95314,0.16963
3561.88161,0.17480
3563.81008,0.18106
3565.73855,0.18263
3567.66702,0.17484
3569.59549,0.16789
3571.52396,0.16870
3573.45243,0.17472
3575.38089,0.18073
3577.30936,0.17981
3579.23783,0.17341
3581.16630,0.17060
3583.09477,0.17378
3585.02324,0.17749
3586.95171,0.17632
3588.88017,0.16921
3590.80864,0.16431
3592.73711,0.16429
3594.66558,0.16461
3596.59405,0.16405
3598.52252,0.16457
3600.45099,0.16533
3602.37946,0.16549
3604.30792,0.16639
3606.23639,0.16834
3608.16486,0.16709
3610.09333,0.16379
3612.02180,0.16451
3613.95027,0.16613
3615.87874,0.16710
3617.80720,0.16953
3619.73567,0.16851
3621.66414,0.16103
3623.59261,0.15343
3625.52108,0.15044
3627.44955,0.15467
3629.37802,0.16116
3631.30649,0.16271
3633.23495,0.16356
3635.16342,0.15881
3637.09189,0.15024
3639.02036,0.14834
3640.94883,0.15212
3642.87730,0.15547
3644.80577,0.15892
3646.73423,0.16634
3648.66270,0.17508
3650.59117,0.17032
3652.51964,0.16052
3654.44811,0.15591
3656.37658,0.15108
3658.30505,0.14317
3660.23352,0.13804
3662.16198,0.13716
3664.09045,0.14001
3666.01892,0.14661
3667.94739,0.15433
3669.87586,0.15617
3671.80433,0.15418
3673.73280,0.15837
3675.66126,0.16024
3677.58973,0.15307
3679.51820,0.14839
3681.44667,0.14574
3683.37514,0.14326
3685.30361,0.14446
3687.23208,0.15201
3689.16055,0.16115
3691.08901,0.15705
3693.01748,0.14352
3694.94595,0.13643
3696.87442,0.13832
3698.80289,0.14153
3700.73136,0.14064
3702.65983,0.13754
3704.58829,0.13657
3706.51676,0.13795
3708.44523,0.14115
3710.37370,0.14514
3712.30217,0.14553
3714.23064,0.14092
3716.15911,0.13747
3718.08757,0.13952
3720.01604,0.14473
3721.94451,0.14736
3723.87298,0.14664
3725.80145,0.14522
3727.72992,0.14265
3729.65839,0.13953
3731.58686,0.14089
3733.51532,0.14931
3735.44379,0.15670
3737.37226,0.15628
3739.30073,0.15346
3741.22920,0.15259
3743.15767,0.15487
3745.08614,0.15947
3747.01460,0.16354
3748.94307,0.16488
3750.87154,0.15778
3752.80001,0.14603
3754.72848,0.14169
3756.65695,0.14339
3758.58542,0.14372
3760.51389,0.13692
3762.44235,0.13148
3764.37082,0.13268
3766.29929,0.13537
3768.22776,0.13725
3770.15623,0.13901
3772.08470,0.13638
3774.01317,0.13075
3775.94163,0.12747
3777.87010,0.13044
3779.79857,0.13710
3781.72704,0.14076
3783.65551,0.14159
3785.58398,0.13919
3787.51245,0.13509
3789.44092,0.13305
3791.36938,0.13168
3793.29785,0.13065
3795.22632,0.13250
3797.15479,0.13671
3799.08326,0.13959
3801.01173,0.14020
3802.94020,0.14067
3804.86866,0.14361
3806.79713,0.14634
3808.72560,0.14138
3810.65407,0.13307
3812.58254,0.13084
3814.51101,0.13585
3816.43948,0.14171
3818.36795,0.14309
3820.29641,0.14094
3822.22488,0.13488
3824.15335,0.13088
3826.08182,0.13133
3828.01029,0.13490
3829.93876,0.13755
3831.86723,0.13597
3833.79569,0.13465
3835.72416,0.13621
3837.65263,0.13738
3839.58110,0.13988
3841.50957,0.14133
3843.43804,0.13636
3845.36651,0.12881
3847.29498,0.12637
3849.22344,0.13158
3851.15191,0.14334
3853.08038,0.15337
3855.00885,0.14485
3856.93732,0.13457
3858.86579,0.13183
3860.79426,0.13483
3862.72272,0.13930
3864.65119,0.13833
3866.57966,0.13752
3868.50813,0.14283
3870.43660,0.13992
3872.36507,0.12674
3874.29354,0.12180
3876.22200,0.12406
3878.15047,0.12710
3880.07894,0.12799
3882.00741,0.12580
3883.93588,0.12559
3885.86435,0.12590
3887.79282,0.12510
3889.72129,0.12769
3891.64975,0.13229
3893.57822,0.13034
3895.50669,0.12417
3897.43516,0.12110
3899.36363,0.12361
3901.29210,0.12973
3903.22057,0.13133
3905.14903,0.12607
3907.07750,0.12428
3909.00597,0.12610
3910.93444,0.12428
3912.86291,0.12165
3914.79138,0.12366
3916.71985,0.12392
3918.64832,0.11894
3920.57678,0.11613
3922.50525,0.11580
3924.43372,0.11589
3926.36219,0.11884
3928.29066,0.12232
3930.21913,0.12287
3932.14760,0.12245
3934.07606,0.12206
3936.00453,0.12170
3937.93300,0.12044
3939.86147,0.11719
3941.78994,0.11584
3943.71841,0.11687
3945.64688,0.11715
3947.57535,0.11600
3949.50381,0.11198
3951.43228,0.10859
3953.36075,0.11036
3955.28922,0.11330
3957.21769,0.11175
3959.14616,0.10888
3961.07463,0.10953
3963.00309,0.11099
3964.93156,0.11128
3966.86003,0.11275
3968.78850,0.11438
3970.71697,0.11303
3972.64544,0.11161
3974.57391,0.11290
3976.50238,0.11246
3978.43084,0.10849
3980.35931,0.10483
3982.28778,0.10581
3984.21625,0.11066
3986.14472,0.11315
3988.07319,0.11382
3990.00166,0.11386
3991.93012,0.10854
3993.85859,0.10280
3995.78706,0.10424
3997.71553,0.10841
3999.64400,0.10783
4001.57247,0.10433
4003.50094,0.10558
4005.42941,0.11043
4007.35787,0.11318
4009.28634,0.11432
4011.21481,0.11366
4013.14328,0.11027
4015.07175,0.10792
4017.00022,0.10774
4018.92869,0.10547
4020.85715,0.10138
4022.78562,0.10064
4024.71409,0.10215
4026.64256,0.10154
4028.57103,0.10030
4030.49950,0.09913
4032.42797,0.09817
4034.35644,0.09932
4036.28490,0.09901
4038.21337,0.09543
4040.14184,0.09333
4042.07031,0.09450
4043.99878,0.09565
4045.92725,0.09591
4047.85572,0.09684
4049.78418,0.09723
4051.71265,0.09735
4053.64112,0.09903
4055.56959,0.10086
4057.49806,0.10140
4059.42653,0.10091
4061.35500,0.09863
4063.28346,0.09729
4065.21193,0.10072
4067.14040,0.10361
4069.06887,0.10102
4070.99734,0.09822
4072.92581,0.09929
4074.85428,0.10118
4076.78275,0.10168
4078.71121,0.09992
4080.63968,0.09597
4082.56815,0.09391
4084.49662,0.09322
4086.42509,0.09044
4088.35356,0.08883
4090.28203,0.09113
4092.21049,0.09329
4094.13896,0.09122
4096.06743,0.08631
4097.99590,0.08364
4099.92437,0.08559
4101.85284,0.08967
4103.78131,0.09256
4105.70978,0.09153
4107.63824,0.08956
4109.56671,0.09266
4111.49518,0.09708
4113.42365,0.09718
4115.35212,0.09482
4117.28059,0.09158
4119.20906,0.08495
4121.13752,0.07649
4123.06599,0.07320
4124.99446,0.07512
4126.92293,0.07926
4128.85140,0.08556
4130.77987,0.09014
4132.70834,0.09116
4134.63681,0.09296
4136.56527,0.09586
4138.49374,0.09541
4140.42221,0.09162
4142.35068,0.08703
4144.27915,0.08214
4146.20762,0.07745
4148.13609,0.07442
4150.06455,0.07413
4151.99302,0.07613
4153.92149,0.07853
4155.84996,0.07844
4157.77843,0.07930
4159.70690,0.08398
4161.63537,0.08380
4163.56384,0.07821
4165.49230,0.07571
4167.42077,0.07603
4169.34924,0.07670
4171.27771,0.07642
4173.20618,0.07417
4175.13465,0.07194
4177.06312,0.07019
4178.99158,0.06859
4180.92005,0.06845
4182.84852,0.07031
4184.77699,0.07397
4186.70546,0.07874
4188.63393,0.08112
4190.56240,0.07810
4192.49087,0.07093
4194.41933,0.06363
4196.34780,0.06202
4198.27627,0.06561
4200.20474,0.06715
4202.13321,0.06550
4204.06168,0.06309
4205.99015,0.06080
4207.91861,0.06295
4209.84708,0.07015
4211.77555,0.07110
4213.70402,0.06282
4215.63249,0.05875
4217.56096,0.06263
4219.48943,0.06788
4221.41789,0.07366
4223.34636,0.07745
4225.27483,0.07577
4227.20330,0.07188
4229.13177,0.06860
4231.06024,0.06610
4232.98871,0.06475
4234.91718,0.06437
4236.84564,0.06287
4238.77411,0.05813
4240.70258,0.05473
4242.63105,0.05855
4244.55952,0.06567
4246.48799,0.06834
4248.41646,0.06594
4250.34492,0.06407
4252.27339,0.06556
4254.20186,0.06724
4256.13033,0.06613
4258.05880,0.06358
4259.98727,0.06047
4261.91574,0.05817
4263.84421,0.05972
4265.77267,0.06330
4267.70114,0.06459
4269.62961,0.06210
4271.55808,0.06014
4273.48655,0.06392
4275.41502,0.06790
4277.34349,0.06590
4279.27195,0.06396
4281.20042,0.06418
4283.12889,0.06001
4285.05736,0.05314
4286.98583,0.05024
4288.91430,0.05160
4290.84277,0.05150
4292.77124,0.04708
4294.69970,0.04441
4296.62817,0.04547
4298.55664,0.04509
4300.48511,0.04364
4302.41358,0.04306
4304.34205,0.04245
4306.27052,0.04319
4308.19898,0.04619
4310.12745,0.04754
4312.05592,0.04526
4313.98439,0.04296
4315.91286,0.04311
4317.84133,0.04413
4319.76980,0.04303
4321.69827,0.04047
4323.62673,0.04151
4325.55520,0.04531
4327.48367,0.04529
4329.41214,0.04152
4331.34061,0.03788
4333.26908,0.03504
4335.19755,0.03309
4337.12601,0.03182
4339.05448,0.03325
4340.98295,0.03611
4342.91142,0.03447
4344.83989,0.03260
4346.76836,0.03294
4348.69683,0.03256
4350.62530,0.03586
4352.55376,0.03881
4354.48223,0.03591
4356.41070,0.03369
4358.33917,0.03378
4360.26764,0.03399
4362.19611,0.03553
4364.12458,0.03632
4366.05304,0.03351
4367.98151,0.02681
4369.90998,0.02051
4371.83845,0.02128
4373.76692,0.02765
4375.69539,0.03195
4377.62386,0.03064
4379.55232,0.02839
4381.48079,0.02865
4383.40926,0.02964
4385.33773,0.03015
4387.26620,0.02886
4389.19467,0.02758
4391.12314,0.02888
4393.05161,0.03093
4394.98007,0.03321
4396.90854,0.03475
4398.83701,0.03138
4400.76548,0.02574
4402.69395,0.02472
4404.62242,0.02537
4406.55089,0.02422
4408.47935,0.02447
4410.40782,0.02458
4412.33629,0.02363
4414.26476,0.02509
4416.19323,0.02607
4418.12170,0.02472
4420.05017,0.02358
4421.97864,0.02056
4423.90710,0.01503
4425.83557,0.00850
4427.76404,0.00322
4429.69251,0.00299
4431.62098,0.00508
4433.54945,0.00655
4435.47792,0.01110
4437.40638,0.01915
4439.33485,0.02443
4441.26332,0.02186
4443.19179,0.01497
4445.12026,0.01036
4447.04873,0.00829
4448.97720,0.00966
4450.90567,0.01621
4452.83413,0.02275
4454.76260,0.02329
4456.69107,0.01724
4458.61954,0.01110
4460.54801,0.01182
4462.47648,0.01759
4464.40495,0.02112
4466.33341,0.01854
4468.26188,0.01349
4470.19035,0.01284
4472.11882,0.01547
4474.04729,0.01168
4475.97576,0.00841
4477.90423,0.01860
4479.83270,0.02776
4481.76116,0.02091
4483.68963,0.00806
4485.61810,0.00233
4487.54657,0.00106
4489.47504,0.00109
4491.40351,0.00578
4493.33198,0.00933
4495.26044,0.00708
4497.18891,0.00479
4499.11738,0.00569
4501.04585,0.00881
4502.97432,0.01076
4504.90279,0.00764
4506.83126,0.00277
4508.75973,0.00069
4510.68819,0.00064
4512.61666,0.00079
4514.54513,-0.00170
4516.47360,-0.00418
4518.40207,-0.00421
4520.33054,-0.00560
4522.25901,-0.00407
4524.18747,0.00335
4526.11594,0.00699
4528.04441,0.00503
4529.97288,0.00664
4531.90135,0.01122
4533.82982,0.01421
4535.75829,0.02012
4537.68676,0.02555
4539.61522,0.01926
4541.54369,0.00717
4543.47216,0.00216
4545.40063,0.00532
4547.32910,0.01220
4549.25757,0.01527
4551.18604,0.00959
4553.11450,0.00160
4555.04297,-0.00229
4556.97144,-0.00330
4558.89991,-0.00159
4560.82838,0.00272
4562.75685,0.00585
4564.68532,0.00746
4566.61378,0.01057
4568.54225,0.01098
4570.47072,0.00281
4572.39919,-0.00955
4574.32766,-0.01645
4576.25613,-0.01301
4578.18460,-0.00364
4580.11307,0.00438
4582.04153,0.00755
4583.97000,0.00420
4585.89847,0.00139
4587.82694,0.00773
4589.75541,0.01220
4591.68388,0.00585
4593.61235,0.00147
4595.54081,0.00332
4597.46928,0.00409
4599.39775,0.00546
4601.32622,0.00917
4603.25469,0.01329
4605.18316,0.01724
4607.11163,0.01760
4609.04010,0.01148
4610.96856,0.00309
4612.89703,-0.00075
4614.82550,-0.00013
4616.75397,0.00243
4618.68244,0.00536
4620.61091,0.00045
4622.53938,-0.00979
4624.46784,-0.01032
4626.39631,-0.00210
4628.32478,0.00511
4630.25325,0.00882
4632.18172,0.01007
4634.11019,0.00970
4636.03866,0.00849
4637.96713,0.00520
4639.89559,0.00127
4641.82406,0.00255
4643.75253,0.00623
4645.68100,0.00577
4647.60947,0.00336
4649.53794,0.00087
4651.46641,-0.00090
4653.39487,-0.00002
4655.32334,0.00154
4657.25181,0.00493
4659.18028,0.01244
4661.10875,0.01500
4663.03722,0.01104
4664.96569,0.01005
4666.89416,0.01492
4668.82262,0.01629
4670.75109,0.00669
4672.67956,-0.00275
4674.60803,-0.00332
4676.53650,-0.00339
4678.46497,-0.00876
4680.39344,-0.01172
4682.32190,-0.00568
4684.25037,0.00351
4686.17884,0.00867
4688.10731,0.00616
4690.03578,-0.00176
4691.96425,-0.00527
4693.89272,-0.00130
4695.82119,0.00286
4697.74965,0.00399
4699.67812,0.00590
4701.60659,0.00608
4703.53506,0.00455
4705.46353,0.00743
4707.39200,0.01289
4709.32047,0.01493
4711.24893,0.00922
4713.17740,0.00177
4715.10587,0.00094
4717.03434,0.00162
4718.96281,-0.00173
4720.89128,-0.00508
4722.81975,-0.00654
4724.74821,-0.00952
4726.67668,-0.00697
4728.60515,0.00547
4730.53362,0.01387
4732.46209,0.01074
4734.39056,0.00460
4736.31903,0.00421
4738.24750,0.00675
4740.17596,0.00240
4742.10443,-0.00577
4744.03290,-0.00368
4745.96137,0.00375
4747.88984,0.00536
4749.81831,0.00849
4751.74678,0.01156
4753.67524,0.01072
4755.60371,0.01531
4757.53218,0.01838
4759.46065,0.01296
4761.38912,0.00929
4763.31759,0.01095
4765.24606,0.01496
4767.17453,0.01648
4769.10299,0.01519
4771.03146,0.01627
4772.95993,0.01536
4774.88840,0.01143
4776.81687,0.01121
4778.74534,0.01080
4780.67381,0.00569
4782.60227,0.00500
4784.53074,0.01098
4786.45921,0.01254
4788.38768,0.00752
4790.31615,0.00491
4792.24462,0.01281
4794.17309,0.02122
4796.10156,0.01538
4798.03002,0.00534
4799.95849,0.00289
4801.88696,0.00456
4803.81543,0.00494
4805.74390,0.00218
4807.67237,0.00017
4809.60084,-0.00079
4811.52930,-0.00614
4813.45777,-0.00811
4815.38624,-0.00086
4817.31471,0.00204
4819.24318,-0.00338
4821.17165,-0.00841
4823.10012,-0.01297
4825.02859,-0.02129
4826.95705,-0.02447
4828.88552,-0.01210
4830.81399,0.00639
4832.74246,0.01442
4834.67093,0.00701
4836.59940,-0.00330
4838.52787,-0.00394
4840.45633,0.00442
4842.38480,0.01233
4844.31327,0.01090
4846.24174,0.00503
4848.17021,-0.00062
4850.09868,-0.00503
4852.02715,-0.00396
4853.95562,0.00073
4855.88408,0.00131
4857.81255,0.00109
4859.74102,0.00749
4861.66949,0.01543
4863.59796,0.00877
4865.52643,-0.00743
4867.45490,-0.00746
4869.38336,0.00699
4871.31183,0.01686
4873.24030,0.01592
4875.16877,0.01040
4877.09724,0.01234
4879.02571,0.01362
4880.95418,0.00880
4882.88265,0.00422
4884.81111,0.00624
4886.73958,0.01259
4888.66805,0.01694
4890.59652,0.01524
4892.52499,0.00454
4894.45346,-0.00601
4896.38193,-0.00714
4898.31039,-0.00123
4900.23886,0.00955
4902.16733,0.01732
4904.09580,0.01638
4906.02427,0.01238
4907.95274,0.00939
4909.88121,0.00508
4911.80967,-0.00177
4913.73814,-0.00555
4915.66661,-0.00072
4917.59508,0.00554
4919.52355,0.00312
4921.45202,-0.00105
4923.38049,0.00174
4925.30896,0.00803
4927.23742,0.01236
4929.16589,0.01081
4931.09436,0.00385
4933.02283,-0.00575
4934.95130,-0.01336
4936.87977,-0.00661
4938.80824,0.00977
4940.73670,0.01499
4942.66517,0.01383
4944.59364,0.01506
4946.52211,0.01413
4948.45058,0.01321
4950.37905,0.01272
4952.30752,0.01025
4954.23599,0.00315
4956.16445,-0.00781
4958.09292,-0.01455
4960.02139,-0.01453
4961.94986,-0.00987
4963.87833,-0.00005
4965.80680,0.00813
4967.73527,0.00800
4969.66373,0.00780
4971.59220,0.01119
4973.52067,0.00981
4975.44914,0.00467
4977.37761,0.00726
4979.30608,0.01247
4981.23455,0.00695
4983.16302,-0.00430
4985.09148,-0.00957
4987.01995,-0.00640
4988.94842,-0.00363
4990.87689,-0.00620
4992.80536,-0.00859
4994.73383,-0.00568
4996.66230,0.00152
4998.59076,0.00453
5000.51923,-0.00141
5002.44770,-0.00951
5004.37617,-0.01046
5006.30464,-0.00441
5008.23311,-0.00488
5010.16158,-0.01026
5012.09005,-0.01014
5014.01851,-0.00355
5015.94698,0.00990
5017.87545,0.02609
5019.80392,0.03469
5021.73239,0.02933
5023.66086,0.01329
5025.58933,0.00230
5027.51779,0.00433
5029.44626,0.00921
5031.37473,0.00946
5033.30320,0.00633
5035.23167,-0.00033
5037.16014,-0.00286
5039.08861,0.00147
5041.01708,0.00064
5042.94554,-0.00686
5044.87401,-0.00956
5046.80248,-0.00608
5048.73095,-0.00817
5050.65942,-0.01687
5052.58789,-0.01523
5054.51636,0.00125
5056.44482,0.01109
5058.37329,0.00533
5060.30176,0.00551
5062.23023,0.01435
5064.15870,0.01638
5066.08717,0.01609
5068.01564,0.01920
5069.94410,0.01866
5071.87257,0.00300
5073.80104,-0.02204
5075.72951,-0.02798
5077.65798,-0.00996
5079.58645,0.00626
5081.51492,0.00928
5083.44339,0.00180
5085.37185,-0.00618
5087.30032,0.00579
5089.22879,0.03129
5091.15726,0.03965
5093.08573,0.03222
5095.01420,0.03179
5096.94267,0.03375
5098.87113,0.03089
5100.79960,0.03010
5102.72807,0.02272
5104.65654,0.01139
5106.58501,0.01710
5108.51348,0.03620
5110.44195,0.04283
5112.37042,0.02972
5114.29888,0.01688
5116.22735,0.01190
5118.15582,0.00666
5120.08429,0.00874
5122.01276,0.01743
5123.94123,0.01278
5125.86970,-0.00071
5127.79816,-0.00219
5129.72663,0.00462
5131.65510,0.00726
5133.58357,0.01220
5135.51204,0.01959
5137.44051,0.01458
5139.36898,-0.00487
5141.29745,-0.02097
5143.22591,-0.01733
5145.15438,-0.00782
5147.08285,-0.00087
5149.01132,0.01591
5150.93979,0.03464
5152.86826,0.04455
5154.79673,0.04752
5156.72519,0.04849
5158.65366,0.04429
5160.58213,0.03033
5162.51060,0.01892
5164.43907,0.01853
5166.36754,0.01828
5168.29601,0.01243
5170.22448,0.01030
5172.15294,0.01492
5174.08141,0.02041
5176.00988,0.02353
5177.93835,0.02418
5179.86682,0.02736
5181.79529,0.03319
5183.72376,0.03157
5185.65222,0.01876
5187.58069,0.01411
5189.50916,0.02491
5191.43763,0.03055
5193.36610,0.02988
5195.29457,0.03235
5197.22304,0.03096
5199.15151,0.03149
5201.07997,0.04210
5203.00844,0.04507
5204.93691,0.02553
5206.86538,-0.00031
5208.79385,-0.00533
5210.72232,0.00699
5212.65079,0.02287
5214.57925,0.03676
5216.50772,0.04181
5218.43619,0.03110
5220.36466,0.01812
5222.29313,0.01815
5224.22160,0.01691
5226.15007,0.01127
5228.07854,0.01552
5230.00700,0.02151
5231.93547,0.02742
5233.86394,0.04329
5235.79241,0.06069
5237.72088,0.05766
5239.64935,0.03662
5241.57782,0.03080
5243.50628,0.04909
5245.43475,0.06803
5247.36322,0.06939
5249.29169,0.05314
5251.22016,0.03893
5253.14863,0.03656
5255.07710,0.03580
5257.00556,0.02882
5258.93403,0.02207
5260.86250,0.02816
5262.79097,0.03764
5264.71944,0.02836
5266.64791,0.01563
5268.57638,0.02443
5270.50485,0.04291
5272.43331,0.04507
5274.36178,0.03684
5276.29025,0.04195
5278.21872,0.04700
5280.14719,0.03160
5282.07566,0.01802
5284.00413,0.02327
5285.93259,0.03118
5287.86106,0.02838
5289.78953,0.03014
5291.71800,0.04526
5293.64647,0.04984
5295.57494,0.04403
5297.50341,0.05244
5299.43188,0.07122
5301.36034,0.07990
5303.28881,0.07341
5305.21728,0.05494
5307.14575,0.03997
5309.07422,0.03806
5311.00269,0.04240
5312.93116,0.05351
5314.85962,0.06341
5316.78809,0.06060
5318.71656,0.04927
5320.64503,0.04257
5322.57350,0.04515
5324.50197,0.04971
5326.43044,0.05312
5328.35891,0.05517
5330.28737,0.05629
5332.21584,0.05982
5334.14431,0.06736
5336.07278,0.07634
5338.00125,0.08349
5339.92972,0.08281
5341.85819,0.07729
5343.78665,0.07587
5345.71512,0.06767
5347.64359,0.04884
5349.57206,0.03446
5351.50053,0.02747
5353.42900,0.03165
5355.35747,0.05414
5357.28594,0.07165
5359.21440,0.06458
5361.14287,0.05559
5363.07134,0.06327
5364.99981,0.06487
5366.92828,0.05571
5368.85675,0.05913
5370.78522,0.07027
5372.71368,0.07209
5374.64215,0.06650
5376.57062,0.05872
5378.49909,0.04511
5380.42756,0.02558
5382.35603,0.01468
5384.28450,0.02804
5386.21297,0.05445
5388.14143,0.06077
5390.06990,0.04783
5391.99837,0.03799
5393.92684,0.03963
5395.85531,0.05218
5397.78378,0.06003
5399.71225,0.04603
5401.64071,0.02794
5403.56918,0.03461
5405.49765,0.05855
5407.42612,0.07836
5409.35459,0.09155
5411.28306,0.09904
5413.21153,0.09603
5415.13999,0.07901
5417.06846,0.05894
5418.99693,0.04939
5420.92540,0.05351
5422.85387,0.05797
5424.78234,0.04616
5426.71081,0.03289
5428.63928,0.04029
5430.56774,0.05090
5432.49621,0.04536
5434.42468,0.04152
5436.35315,0.05076
5438.28162,0.06133
5440.21009,0.07793
5442.13856,0.09844
5444.06702,0.10391
5445.99549,0.08747
5447.92396,0.05601
5449.85243,0.03680
5451.78090,0.04684
5453.70937,0.05934
5455.63784,0.05790
5457.56631,0.06538
5459.49477,0.07700
5461.42324,0.06728
5463.35171,0.04495
5465.28018,0.02807
5467.20865,0.03221
5469.13712,0.05944
5471.06559,0.07113
5472.99405,0.05095
5474.92252,0.04139
5476.85099,0.05958
5478.77946,0.07443
5480.70793,0.07272
5482.63640,0.05738
5484.56487,0.04171
5486.49334,0.03075
5488.42180,0.03211
5490.35027,0.05838
5492.27874,0.08744
5494.20721,0.08676
5496.13568,0.07024
5498.06415,0.06751
5499.99262,0.07306
5501.92108,0.06471
5503.84955,0.05276
5505.77802,0.05799
5507.70649,0.07329
5509.63496,0.08392
5511.56343,0.08542
5513.49190,0.08049
5515.42037,0.07998
5517.34883,0.08686
5519.27730,0.09693
5521.20577,0.09364
5523.13424,0.07126
5525.06271,0.05987
5526.99118,0.06426
5528.91965,0.06132
5530.84811,0.06347
5532.77658,0.08306
5534.70505,0.09232
5536.63352,0.08143
5538.56199,0.07307
5540.49046,0.07336
5542.41893,0.07595
5544.34740,0.08186
5546.27586,0.08503
5548.20433,0.08275
5550.13280,0.08291
5552.06127,0.07633
5553.98974,0.06251
5555.91821,0.05860
5557.84668,0.06214
5559.77514,0.06542
5561.70361,0.06717
5563.63208,0.06549
5565.56055,0.06405
5567.48902,0.05825
5569.41749,0.04454
5571.34596,0.04192
5573.27443,0.05665
5575.20289,0.07167
5577.13136,0.08206
5579.05983,0.09085
5580.98830,0.09935
5582.91677,0.09956
5584.84524,0.08991
5586.77371,0.09147
5588.70217,0.10006
5590.63064,0.09216
5592.55911,0.08169
5594.48758,0.08262
5596.41605,0.07899
5598.34452,0.06992
5600.27299,0.06653
5602.20145,0.06312
5604.12992,0.05489
5606.05839,0.05009
5607.98686,0.05305
5609.91533,0.05847
5611.84380,0.05803
5613.77227,0.04204
5615.70074,0.02593
5617.62920,0.02509
5619.55767,0.03393
5621.48614,0.05693
5623.41461,0.07668
5625.34308,0.07827
5627.27155,0.09203
5629.20002,0.10914
5631.12848,0.09987
5633.05695,0.08796
5634.98542,0.09230
5636.91389,0.10429
5638.84236,0.11154
5640.77083,0.09783
5642.69930,0.07632
5644.62777,0.07197
5646.55623,0.07458
5648.48470,0.06876
5650.41317,0.06674
5652.34164,0.06743
5654.27011,0.05375
5656.19858,0.05364
5658.12705,0.08527
5660.05551,0.10545
5661.98398,0.10196
5663.91245,0.10107
5665.84092,0.09485
5667.76939,0.07722
5669.69786,0.06678
5671.62633,0.07327
5673.55480,0.08337
5675.48326,0.08269
5677.41173,0.08605
5679.34020,0.09831
5681.26867,0.10120
5683.19714,0.09548
5685.12561,0.08809
5687.05408,0.08340
5688.98254,0.07200
5690.91101,0.04943
5692.83948,0.04651
5694.76795,0.07738
5696.69642,0.12108
5698.62489,0.13997
5700.55336,0.11915
5702.48183,0.09901
5704.41029,0.10127
5706.33876,0.10286
5708.26723,0.09624
5710.19570,0.09137
5712.12417,0.08797
5714.05264,0.07575
5715.98111,0.05959
5717.90957,0.05994
5719.83804,0.07193
5721.76651,0.07391
5723.69498,0.06595
5725.62345,0.05796
5727.55192,0.05474
5729.48039,0.06213
5731.40886,0.07185
5733.33732,0.07087
5735.26579,0.06482
5737.19426,0.06110
5739.12273,0.07186
5741.05120,0.09949
5742.97967,0.10679
5744.90814,0.08326
5746.83660,0.06138
5748.76507,0.05661
5750.69354,0.05616
5752.62201,0.05680
5754.55048,0.07448
5756.47895,0.09921
5758.40742,0.10570
5760.33588,0.09874
5762.26435,0.10435
5764.19282,0.11672
5766.12129,0.10074
5768.04976,0.07486
5769.97823,0.06001
5771.90670,0.04466
5773.83517,0.05306
5775.76363,0.07587
5777.69210,0.06881
5779.62057,0.05889
5781.54904,0.06499
5783.47751,0.05596
5785.40598,0.05702
5787.33445,0.09511
5789.26291,0.13408
5791.19138,0.14696
5793.11985,0.13677
5795.04832,0.12509
5796.97679,0.11582
5798.90526,0.10869
5800.83373,0.11049
5802.76220,0.09293
5804.69066,0.05788
5806.61913,0.05175
5808.54760,0.07551
5810.47607,0.09527
5812.40454,0.09984
5814.33301,0.09980
5816.26148,0.10565
5818.18994,0.11808
5820.11841,0.10938
5822.04688,0.07270
5823.97535,0.04533
5825.90382,0.04028
5827.83229,0.06479
5829.76076,0.11505
5831.68923,0.14275
5833.61769,0.12774
5835.54616,0.10015
5837.47463,0.08538
5839.40310,0.08370
5841.33157,0.07974
5843.26004,0.07443
5845.18851,0.08116
5847.11697,0.09627
5849.04544,0.10159
5850.97391,0.07808
5852.90238,0.05202
5854.83085,0.05429
5856.75932,0.07244
5858.68779,0.08909
5860.61626,0.09905
5862.54472,0.09736
5864.47319,0.09003
5866.40166,0.09970
5868.33013,0.11898
5870.25860,0.12182
5872.18707,0.12358
5874.11554,0.13631
5876.04400,0.14080
5877.97247,0.13180
5879.90094,0.12558
5881.82941,0.11883
5883.75788,0.10171
5885.68635,0.09683
5887.61482,0.10550
5889.54329,0.08979
5891.47175,0.06067
5893.40022,0.05815
5895.32869,0.07349
5897.25716,0.08305
5899.18563,0.08205
5901.11410,0.07937
5903.04257,0.09071
5904.97103,0.09377
5906.89950,0.05799
5908.82797,0.03066
5910.75644,0.05267
5912.68491,0.06748
5914.61338,0.05025
5916.54185,0.04031
5918.47032,0.05186
5920.39878,0.06563
5922.32725,0.06434
5924.25572,0.06910
5926.18419,0.09740
5928.11266,0.12347
5930.04113,0.12958
5931.96960,0.13555
5933.89806,0.14520
5935.82653,0.12778
5937.75500,0.08887
5939.68347,0.07201
5941.61194,0.09240
5943.54041,0.11064
5945.46888,0.10996
5947.39734,0.12341
5949.32581,0.14377
5951.25428,0.14182
5953.18275,0.13392
5955.11122,0.14312
5957.03969,0.15806
5958.96816,0.15816
5960.89663,0.13365
5962.82509,0.09061
5964.75356,0.05153
5966.68203,0.03931
5968.61050,0.05192
5970.53897,0.06506
5972.46744,0.07835
5974.39591,0.08683
5976.32437,0.07439
5978.25284,0.04886
5980.18131,0.02228
5982.10978,0.03016
5984.03825,0.08339
5985.96672,0.12651
5987.89519,0.14361
5989.82366,0.16365
5991.75212,0.17158
5993.68059,0.14675
5995.60906,0.10271
5997.53753,0.06650
5999.46600,0.06444
6001.39447,0.08595
6003.32294,0.08448
6005.25140,0.04684
6007.17987,0.01939
6009.10834,0.03283
6011.03681,0.04903
6012.96528,0.05238
6014.89375,0.06982
6016.82222,0.07412
6018.75069,0.05533
6020.67915,0.06687
6022.60762,0.09637
6024.53609,0.09071
6026.46456,0.05917
6028.39303,0.05618
6030.32150,0.07703
6032.24997,0.07309
6034.17843,0.06099
6036.10690,0.05781
6038.03537,0.05478
6039.96384,0.06999
6041.89231,0.08914
6043.82078,0.06989
6045.74925,0.03473
6047.67772,0.04193
6049.60618,0.08375
6051.53465,0.10640
6053.46312,0.11527
6055.39159,0.13633
6057.32006,0.14431
6059.24853,0.12878
6061.17700,0.12886
6063.10546,0.13822
6065.03393,0.12111
6066.96240,0.08970
6068.89087,0.07478
6070.81934,0.08134
6072.74781,0.07169
6074.67628,0.04497
6076.60475,0.03871
6078.53321,0.04224
6080.46168,0.04367
6082.39015,0.05147
6084.31862,0.04943
6086.24709,0.02223
6088.17556,-0.00411
6090.10403,0.00096
6092.03249,0.04770
6093.96096,0.11062
6095.88943,0.12024
6097.81790,0.07823
6099.74637,0.06535
6101.67484,0.07289
6103.60331,0.04063
6105.53177,0.02095
6107.46024,0.05627
6109.38871,0.09178
6111.31718,0.10101
6113.24565,0.09921
6115.17412,0.09539
6117.10259,0.09665
6119.03106,0.11627
6120.95952,0.13933
6122.88799,0.12588
6124.81646,0.07981
6126.74493,0.04277
6128.67340,0.05583
6130.60187,0.10049
6132.53034,0.12130
6134.45880,0.10932
6136.38727,0.07997
6138.31574,0.04598
6140.24421,0.02765
6142.17268,0.02654
6144.10115,0.01979
6146.02962,0.02443
6147.95809,0.06275
6149.88655,0.10061
6151.81502,0.12131
6153.74349,0.13343
6155.67196,0.11596
6157.60043,0.09117
6159.52890,0.06948
6161.45737,0.02874
6163.38583,0.00797
6165.31430,0.01082
6167.24277,0.01978
6169.17124,0.04990
6171.09971,0.07388
6173.02818,0.09341
6174.95665,0.13712
6176.88512,0.17960
6178.81358,0.20161
6180.74205,0.18037
6182.67052,0.11301
6184.59899,0.06277
6186.52746,0.05311
6188.45593,0.05651
6190.38440,0.05552
6192.31286,0.04488
6194.24133,0.03211
6196.16980,0.03028
6198.09827,0.01299
6200.02674,-0.03514
6201.95521,-0.05925
6203.88368,-0.03404
6205.81215,-0.00552
6207.74061,-0.00959
6209.66908,-0.02316
6211.59755,0.01764
6213.52602,0.09266
6215.45449,0.12023
6217.38296,0.09934
6219.31143,0.08617
6221.23989,0.09342
6223.16836,0.09411
6225.09683,0.08573
6227.02530,0.10329
6228.95377,0.14013
6230.88224,0.16160
6232.81071,0.15815
6234.73918,0.13792
6236.66764,0.11769
6238.59611,0.10107
6240.52458,0.09568
6242.45305,0.09808
6244.38152,0.06259
6246.30999,0.00050
6248.23846,-0.00663
6250.16692,0.05027
6252.09539,0.09468
6254.02386,0.09497
6255.95233,0.08841
6257.88080,0.08573
6259.80927,0.07150
6261.73774,0.07052
6263.66621,0.08832
6265.59467,0.10954
6267.52314,0.14265
6269.45161,0.15531
6271.38008,0.15349
6273.30855,0.15718
6275.23702,0.11401
6277.16549,0.04694
6279.09395,0.03038
6281.02242,0.02752
6282.95089,0.01138
6284.87936,0.02827
6286.80783,0.06682
6288.73630,0.08016
6290.66477,0.07652
6292.59323,0.08195
6294.52170,0.08944
6296.45017,0.08059
6298.37864,0.05831
6300.30711,0.03696
6302.23558,0.02394
6304.16405,0.00783
6306.09252,-0.01778
6308.02098,-0.01542
6309.94945,0.02059
6311.87792,0.04377
6313.80639,0.06399
6315.73486,0.08201
6317.66333,0.06691
6319.59180,0.05181
6321.52026,0.05439
6323.44873,0.05194
6325.37720,0.04586
6327.30567,0.04898
6329.23414,0.06851
6331.16261,0.07741
6333.09108,0.06239
6335.01955,0.03802
6336.94801,0.00839
6338.87648,-0.00632
6340.80495,0.01116
6342.73342,0.06670
6344.66189,0.13025
6346.59036,0.15738
6348.51883,0.17822
6350.44729,0.17340
6352.37576,0.10019
6354.30423,0.05091
6356.23270,0.06431
6358.16117,0.08576
6360.08964,0.08797
6362.01811,0.06540
6363.94658,0.02264
6365.87504,0.02466
6367.80351,0.10851
6369.73198,0.17583
6371.66045,0.13298
6373.58892,0.06194
6375.51739,0.07224
6377.44586,0.09673
6379.37432,0.09363
6381.30279,0.09408
6383.23126,0.09786
6385.15973,0.08127
6387.08820,0.02374
6389.01667,-0.03412
6390.94514,-0.01047
6392.87361,0.08257
6394.80207,0.12045
6396.73054,0.07527
6398.65901,0.02290
6400.58748,0.02054
6402.51595,0.05060
6404.44442,0.03309
6406.37289,-0.02182
6408.30135,-0.05128
6410.22982,-0.05904
6412.15829,-0.02639
6414.08676,0.03597
6416.01523,0.04231
6417.94370,-0.00029
6419.87217,0.01422
6421.80064,0.07955
6423.72910,0.08894
6425.65757,0.03634
6427.58604,0.01765
6429.51451,0.04666
6431.44298,0.07403
6433.37145,0.07119
6435.29992,0.05096
6437.22838,0.04269
6439.15685,0.03724
6441.08532,0.01758
6443.01379,0.00713
6444.94226,0.03436
6446.87073,0.06776
6448.79920,0.05614
6450.72766,0.00579
6452.65613,-0.02142
6454.58460,0.00384
6456.51307,0.06847
6458.44154,0.12797
6460.37001,0.13679
6462.29848,0.12058
6464.22695,0.12031
6466.15541,0.10820
6468.08388,0.04585
6470.01235,0.00643
6471.94082,0.04096
6473.86929,0.02770
6475.79776,-0.02662
6477.72623,-0.01884
6479.65469,0.02291
6481.58316,0.07834
6483.51163,0.12853
6485.44010,0.13513
6487.36857,0.11479
6489.29704,0.09531
6491.22551,0.08731
6493.15398,0.09030
6495.08244,0.08753
6497.01091,0.06545
6498.93938,0.02660
6500.86785,-0.02818
6502.79632,-0.07125
6504.72479,-0.07149
6506.65326,-0.04667
6508.58172,-0.02207
6510.51019,0.01710
6512.43866,0.05295
6514.36713,0.02574
6516.29560,-0.03012
6518.22407,-0.05519
6520.15254,-0.04737
6522.08101,-0.01788
6524.00947,0.00869
6525.93794,0.02624
6527.86641,0.03866
6529.79488,0.04039
6531.72335,0.05105
6533.65182,0.05294
6535.58029,0.02372
6537.50875,0.02980
6539.43722,0.09005
6541.36569,0.12387
6543.29416,0.08998
6545.22263,0.01432
6547.15110,-0.03604
6549.07957,-0.02877
6551.00804,0.01892
6552.93650,0.05016
6554.86497,0.04174
6556.79344,0.02382
6558.72191,-0.00361
6560.65038,-0.02575
6562.57885,-0.02282
6564.50732,-0.00407
6566.43578,0.04650
6568.36425,0.11825
6570.29272,0.15449
6572.22119,0.11556
6574.14966,0.06327
6576.07813,0.05673
6578.00660,0.04756
6579.93507,0.04634
6581.86353,0.09764
6583.79200,0.09219
6585.72047,-0.02332
6587.64894,-0.09723
6589.57741,-0.03806
6591.50588,0.08610
6593.43435,0.15047
6595.36281,0.09155
6597.29128,0.03171
6599.21975,0.05803
6601.14822,0.10030
6603.07669,0.07682
6605.00516,0.01615
6606.93363,-0.00380
6608.86210,0.06427
6610.79056,0.15635
6612.71903,0.14458
6614.64750,0.03771
6616.57597,-0.01507
6618.50444,0.03885
6620.43291,0.10890
6622.36138,0.13070
6624.28984,0.10438
6626.21831,0.05890
6628.14678,0.01472
6630.07525,-0.03080
6632.00372,-0.06335
6633.93219,-0.04853
6635.86066,-0.00122
6637.78912,0.02978
6639.71759,0.02463
6641.64606,0.02105
6643.57453,0.07409
6645.50300,0.11309
6647.43147,0.06342
6649.35994,0.02595
6651.28841,0.04740
6653.21687,0.07389
6655.14534,0.07490
6657.07381,0.06664
6659.00228,0.08621
6660.93075,0.11758
6662.85922,0.11161
6664.78769,0.05426
6666.71615,0.03042
6668.64462,0.10763
6670.57309,0.17120
6672.50156,0.15214
6674.43003,0.13665
6676.35850,0.12079
6678.28697,0.05517
6680.21544,-0.01673
6682.14390,-0.05466
6684.07237,-0.06190
6686.00084,-0.06903
6687.92931,-0.07951
6689.85778,-0.04431
6691.78625,-0.01023
6693.71472,-0.01856
6695.64318,-0.04402
6697.57165,-0.08605
6699.50012,-0.09701
6701.42859,-0.00926
6703.35706,0.11126
6705.28553,0.13345
6707.21400,0.06762
6709.14247,0.02579
6711.07093,0.03337
6712.99940,0.04067
6714.92787,0.02990
6716.85634,0.00980
6718.78481,-0.01836
6720.71328,-0.01850
6722.64175,0.01560
6724.57021,0.05118
6726.49868,0.09427
6728.42715,0.11773
6730.35562,0.08681
6732.28409,0.03511
6734.21256,-0.00716
6736.14103,-0.02996
6738.06950,-0.02473
6739.99796,-0.01814
6741.92643,-0.03873
6743.85490,-0.06056
6745.78337,-0.03790
6747.71184,0.03103
6749.64031,0.10611
6751.56878,0.15567
6753.49724,0.17059
6755.42571,0.15405
6757.35418,0.09027
6759.28265,-0.01486
6761.21112,-0.08161
6763.13959,-0.05824
6765.06806,0.02992
6766.99653,0.12012
6768.92499,0.13414
6770.85346,0.06490
6772.78193,0.03167
6774.71040,0.06297
6776.63887,0.03721
6778.56734,-0.01408
6780.49581,-0.01034
6782.42427,0.02771
6784.35274,0.08828
6786.28121,0.14231
6788.20968,0.13874
6790.13815,0.09254
6792.06662,0.06023
6793.99509,0.03783
6795.92355,0.02173
6797.85202,0.04417
6799.78049,0.05761
6801.70896,0.04116
6803.63743,0.07395
6805.56590,0.09375
6807.49437,0.03182
6809.42284,-0.02730
6811.35130,-0.01180
6813.27977,0.06470
6815.20824,0.08846
6817.13671,0.03884
6819.06518,-0.01554
6820.99365,-0.05767
6822.92212,-0.02718
6824.85058,0.07168
6826.77905,0.14303
6828.70752,0.16981
6830.63599,0.14651
6832.56446,0.11745
6834.49293,0.12924
6836.42140,0.11378
6838.34987,0.05619
6840.27833,0.04164
6842.20680,0.05858
6844.13527,0.06185
6846.06374,0.05740
6847.99221,0.08573
6849.92068,0.13454
6851.84915,0.14029
6853.77761,0.10604
6855.70608,0.07140
6857.63455,0.10449
6859.56302,0.17742
6861.49149,0.17369
6863.41996,0.08288
6865.34843,0.01103
6867.27690,0.02152
6869.20536,0.09267
6871.13383,0.12613
6873.06230,0.08809
6874.99077,0.06377
6876.91924,0.06298
6878.84771,0.06259
6880.77618,0.09086
6882.70464,0.10639
6884.63311,0.06816
6886.56158,0.02253
6888.49005,0.00973
6890.41852,0.04224
6892.34699,0.10280
6894.27546,0.08417
6896.20393,-0.04520
6898.13239,-0.10186
6900.06086,-0.01299
6901.98933,0.01050
6903.91780,-0.09813
6905.84627,-0.18619
6907.77474,-0.13452
6909.70321,0.00423
6911.63167,0.12293
6913.56014,0.16049
6915.48861,0.10093
6917.41708,-0.01894
6919.34555,-0.08586
6921.27402,-0.02917
6923.20249,0.03842
6925.13096,0.02965
6927.05942,0.00278
6928.98789,0.00842
6930.91636,0.01632
6932.84483,0.02955
6934.77330,0.06242
6936.70177,0.10652
6938.63024,0.14296
6940.55870,0.10135
6942.48717,0.03440
6944.41564,0.02744
6946.34411,0.01719
6948.27258,-0.05266
6950.20105,-0.11677
6952.12952,-0.05999
6954.05799,0.04352
6955.98645,-0.00917
6957.91492,-0.14607
6959.84339,-0.17165
6961.77186,-0.05914
6963.70033,0.04649
6965.62880,0.05650
6967.55727,0.07204
6969.48573,0.17214
6971.41420,0.22719
6973.34267,0.16191
6975.27114,0.07774
6977.19961,0.02249
6979.12808,0.02332
6981.05655,0.11828
6982.98501,0.24500
6984.91348,0.28601
6986.84195,0.18744
6988.77042,0.03994
6990.69889,-0.01378
6992.62736,-0.02011
6994.55583,-0.06322
6996.48430,-0.07504
6998.41276,0.00177
7000.34123,0.09339
7002.26970,0.17892
7004.19817,0.24263
7006.12664,0.22575
7008.05511,0.16842
7009.98358,0.12090
7011.91204,0.07841
7013.84051,0.06657
7015.76898,0.07641
7017.69745,0.13935
7019.62592,0.24129
7021.55439,0.24060
7023.48286,0.14906
7025.41133,0.08984
7027.33979,0.07934
7029.26826,0.12029
7031.19673,0.20726
7033.12520,0.27592
7035.05367,0.25829
7036.98214,0.15344
7038.91061,0.03997
7040.83907,-0.05275
7042.76754,-0.13457
7044.69601,-0.17927
7046.62448,-0.18908
7048.55295,-0.19052
7050.48142,-0.12381
7052.40989,0.02199
7054.33836,0.10676
7056.26682,0.10723
7058.19529,0.16282
7060.12376,0.22358
7062.05223,0.18067
7063.98070,0.08446
7065.90917,0.03204
7067.83764,0.02169
7069.76610,0.02653
7071.69457,0.01935
7073.62304,0.01429
7075.55151,0.04424
7077.47998,0.08256
7079.40845,0.07450
7081.33692,-0.02988
7083.26539,-0.09766
7085.19385,-0.10766
7087.12232,-0.16647
7089.05079,-0.16552
7090.97926,-0.05084
7092.90773,0.07147
7094.83620,0.11523
7096.76467,0.04540
7098.69313,-0.01118
7100.62160,0.04407
7102.55007,0.04426
7104.47854,-0.04991
7106.40701,-0.06143
7108.33548,0.06270
7110.26395,0.12591
7112.19242,0.02074
7114.12088,-0.08699
7116.04935,-0.02722
7117.97782,0.17636
7119.90629,0.30393
7121.83476,0.24665
7123.76323,0.15049
7125.69170,0.13355
7127.62016,0.18744
7129.54863,0.25952
7131.47710,0.25528
7133.40557,0.11872
7135.33404,-0.02379
7137.26251,-0.08088
7139.19098,-0.08811
7141.11944,-0.04347
7143.04791,0.04151
7144.97638,0.10804
7146.90485,0.09040
7148.83332,0.05684
7150.76179,0.12334
7152.69026,0.20830
7154.61873,0.15366
7156.54719,0.03083
7158.47566,-0.03732
7160.40413,-0.05315
7162.33260,-0.06586
7164.26107,-0.06259
7166.18954,-0.02978
7168.11801,-0.03514
7170.04647,-0.01841
7171.97494,0.07164
7173.90341,0.13995
7175.83188,0.12528
7177.76035,0.01956
7179.68882,-0.04542
7181.61729,0.04207
7183.54576,0.21230
7185.47422,0.28980
7187.40269,0.23218
7189.33116,0.12227
7191.25963,0.08157
7193.18810,0.09238
7195.11657,0.03593
7197.04504,-0.08102
7198.97350,-0.12594
7200.90197,-0.03374
7202.83044,0.13828
7204.75891,0.27001
7206.68738,0.21182
7208.61585,0.09130
7210.54432,0.00945
7212.47279,-0.06404
7214.40125,-0.14211
7216.32972,-0.19717
7218.25819,-0.10297
7220.18666,0.07106
7222.11513,0.12771
7224.04360,0.10782
7225.97207,0.08654
7227.90053,0.05436
7229.82900,-0.01800
7231.75747,-0.04821
7233.68594,0.00925
7235.61441,0.07470
7237.54288,0.14680
7239.47135,0.18839
7241.39982,0.10292
7243.32828,-0.03489
7245.25675,-0.08329
7247.18522,-0.13214
7249.11369,-0.19955
7251.04216,-0.18209
7252.97063,-0.02160
7254.89910,0.10501
7256.82756,0.12272
7258.75603,0.13407
7260.68450,0.14754
7262.61297,0.17375
7264.54144,0.23956
7266.46991,0.23404
7268.39838,0.08693
7270.32685,-0.10469
7272.25531,-0.14153
7274.18378,-0.00678
7276.11225,0.07232
7278.04072,0.08335
7279.96919,0.17185
7281.89766,0.28742
7283.82613,0.26150
7285.75459,0.14290
7287.68306,0.05923
7289.61153,0.11331
7291.54000,0.24732
7293.46847,0.32229
7295.39694,0.26009
7297.32541,0.10994
7299.25387,0.09622
7301.18234,0.18211
7303.11081,0.12632
7305.03928,0.00503
7306.96775,0.05465
7308.89622,0.20051
7310.82469,0.25323
7312.75316,0.23774
7314.68162,0.17842
7316.61009,0.08310
7318.53856,0.02222
7320.46703,-0.01632
7322.39550,-0.03804
7324.32397,0.00019
7326.25244,0.06224
7328.18090,0.11559
7330.10937,0.17002
7332.03784,0.16330
7333.96631,0.09374
7335.89478,0.05156
7337.82325,0.03862
7339.75172,-0.03224
7341.68019,-0.15693
7343.60865,-0.19460
7345.53712,-0.14127
7347.46559,-0.10614
7349.39406,-0.14612
7351.32253,-0.10027
7353.25100,0.07621
7355.17947,0.18141
7357.10793,0.19878
7359.03640,0.32323
7360.96487,0.39245
7362.89334,0.28319
7364.82181,0.19855
7366.75028,0.16008
7368.67875,0.10708
7370.60722,0.01618
7372.53568,-0.07808
7374.46415,-0.12518
7376.39262,-0.07047
7378.32109,0.06411
7380.24956,0.16072
7382.17803,0.14084
7384.10650,0.05605
7386.03496,-0.00950
7387.96343,-0.01373
7389.89190,0.00974
7391.82037,0.06493
7393.74884,0.13439
7395.67731,0.07681
7397.60578,-0.02829
7399.53425,-0.03578
7401.46271,-0.03758
7403.39118,-0.00327
7405.31965,0.11375
7407.24812,0.07679
7409.17659,-0.04853
7411.10506,-0.00612
7413.03353,0.08382
7414.96199,0.07499
7416.89046,0.05865
7418.81893,0.05819
7420.74740,0.00362
7422.67587,-0.00575
7424.60434,0.02989
7426.53281,0.00352
7428.46128,-0.08256
7430.38974,-0.03704
7432.31821,0.19548
7434.24668,0.34839
7436.17515,0.28345
7438.10362,0.13519
7440.03209,0.11061
7441.96056,0.24081
7443.88902,0.31109
7445.81749,0.21853
7447.74596,0.10683
7449.67443,0.01614
7451.60290,-0.09952
7453.53137,-0.13854
7455.45984,-0.06831
7457.38831,0.01481
7459.31677,0.10456
7461.24524,0.22324
7463.17371,0.29143
7465.10218,0.23622
7467.03065,0.04169
7468.95912,-0.13826
7470.88759,-0.13491
7472.81605,0.03400
7474.74452,0.16482
7476.67299,0.12292
7478.60146,-0.02320
7480.52993,-0.04918
7482.45840,0.02080
7484.38687,-0.00620
7486.31533,-0.08717
7488.24380,-0.09783
7490.17227,-0.05811
7492.10074,0.04380
7494.02921,0.22662
7495.95768,0.39282
7497.88615,0.49388
