399.19301,0.98975
401.12148,0.09425
403.04995,-0.22609
404.97842,-0.27433
406.90689,-0.17140
408.83536,0.03101
410.76382,0.26165
412.69229,0.36334
414.62076,0.25004
416.54923,-0.00397
418.47770,-0.16205
420.40617,-0.04938
422.33464,0.09060
424.26311,0.15425
426.19157,0.15228
428.12004,0.13082
430.04851,0.11481
431.97698,0.13754
433.90545,0.15651
435.83392,0.13551
437.76239,0.12381
439.69085,0.10179
441.61932,0.02996
443.54779,-0.02213
445.47626,0.03224
447.40473,0.08281
449.33320,0.02449
451.26167,-0.05703
453.19013,-0.04162
455.11860,0.05620
457.04707,0.10725
458.97554,0.08663
460.90401,0.06317
462.83248,0.03925
464.76095,0.02727
466.68942,0.01007
468.61788,-0.03629
470.54635,-0.02946
472.47482,0.07662
474.40329,0.12387
476.33176,0.09505
478.26023,0.11596
480.18870,0.14149
482.11716,0.16666
484.04563,0.19705
485.97410,0.21970
487.90257,0.25429
489.83104,0.24042
491.75951,0.15845
493.68798,0.12258
495.61645,0.13913
497.54491,0.14614
499.47338,0.14744
501.40185,0.14128
503.33032,0.13447
505.25879,0.15146
507.18726,0.16111
509.11573,0.12756
511.04419,0.08295
512.97266,0.06356
514.90113,0.06389
516.82960,0.05473
518.75807,0.03609
520.68654,0.02197
522.61501,0.01686
524.54348,0.05172
526.47194,0.11081
528.40041,0.11806
530.32888,0.07523
532.25735,0.02272
534.18582,-0.00963
536.11429,-0.00238
538.04276,0.02808
539.97122,0.07637
541.89969,0.12478
543.82816,0.11807
545.75663,0.10569
547.68510,0.13581
549.61357,0.15182
551.54204,0.20731
553.47051,0.30851
555.39897,0.30046
557.32744,0.21395
559.25591,0.18557
561.18438,0.20240
563.11285,0.21590
565.04132,0.20062
566.96979,0.16651
568.89825,0.14780
570.82672,0.14910
572.75519,0.15805
574.68366,0.14542
576.61213,0.11029
578.54060,0.08614
580.46907,0.08452
582.39754,0.09523
584.32600,0.10674
586.25447,0.13025
588.18294,0.15471
590.11141,0.16249
592.03988,0.16689
593.96835,0.15620
595.89682,0.11894
597.82528,0.08360
599.75375,0.08042
601.68222,0.10087
603.61069,0.11432
605.53916,0.10546
607.46763,0.08864
609.39610,0.08929
611.32456,0.09877
613.25303,0.10388
615.18150,0.11026
617.10997,0.11402
619.03844,0.11902
620.96691,0.13072
622.89538,0.12875
624.82385,0.11191
626.75231,0.10813
628.68078,0.12261
630.60925,0.14065
632.53772,0.15309
634.46619,0.15191
636.39466,0.13829
638.32313,0.12633
640.25159,0.12341
642.18006,0.11811
644.10853,0.10707
646.03700,0.10709
647.96547,0.12535
649.89394,0.14610
651.82241,0.15672
653.75088,0.16002
655.67934,0.15893
657.60781,0.16151
659.53628,0.16896
661.46475,0.16393
663.39322,0.14754
665.32169,0.14457
667.25016,0.16206
669.17862,0.15357
671.10709,0.12491
673.03556,0.12538
674.96403,0.13774
676.89250,0.13936
678.82097,0.13503
680.74944,0.13791
682.67791,0.14503
684.60637,0.14322
686.53484,0.12844
688.46331,0.10843
690.39178,0.10232
692.32025,0.11370
694.24872,0.12265
696.17719,0.12165
698.10565,0.12212
700.03412,0.12526
701.96259,0.12125
703.89106,0.11352
705.81953,0.11776
707.74800,0.17639
709.67647,0.32422
711.60494,0.44658
713.53340,0.38480
715.46187,0.22859
717.39034,0.15244
719.31881,0.14183
721.24728,0.13760
723.17575,0.13847
725.10422,0.14467
727.03268,0.15302
728.96115,0.15930
730.88962,0.15201
732.81809,0.13693
734.74656,0.13486
736.67503,0.14022
738.60350,0.14179
740.53197,0.13897
742.46043,0.13584
744.38890,0.13783
746.31737,0.13614
748.24584,0.13065
750.17431,0.12920
752.10278,0.13378
754.03125,0.14607
755.95971,0.15687
757.88818,0.15234
759.81665,0.13459
761.74512,0.12422
763.67359,0.12795
765.60206,0.13190
767.53053,0.13255
769.45900,0.13203
771.38746,0.13056
773.31593,0.13091
775.24440,0.13493
777.17287,0.13759
779.10134,0.13438
781.02981,0.13497
782.95828,0.14355
784.88674,0.15210
786.81521,0.15801
788.74368,0.16124
790.67215,0.16072
792.60062,0.15137
794.52909,0.13517
796.45756,0.13269
798.38602,0.14727
800.31449,0.15824
802.24296,0.15987
804.17143,0.16453
806.09990,0.17033
808.02837,0.16162
809.95684,0.14384
811.88531,0.13730
813.81377,0.14557
815.74224,0.15806
817.67071,0.16107
819.59918,0.15484
821.52765,0.15521
823.45612,0.15813
825.38459,0.15212
827.31305,0.14941
829.24152,0.15320
831.16999,0.15081
833.09846,0.13822
835.02693,0.12372
836.95540,0.12435
838.88387,0.13916
840.81234,0.15037
842.74080,0.15154
844.66927,0.14687
846.59774,0.14552
848.52621,0.14878
850.45468,0.14848
852.38315,0.14414
854.31162,0.13846
856.24008,0.13448
858.16855,0.13770
860.09702,0.14648
862.02549,0.15251
863.95396,0.14978
865.88243,0.13934
867.81090,0.12339
869.73937,0.11330
871.66783,0.12349
873.59630,0.14021
875.52477,0.14786
877.45324,0.15213
879.38171,0.15380
881.31018,0.15098
883.23865,0.14624
885.16711,0.13717
887.09558,0.12457
889.02405,0.11604
890.95252,0.12016
892.88099,0.13934
894.80946,0.15478
896.73793,0.15224
898.66640,0.15196
900.59486,0.16394
902.52333,0.16993
904.45180,0.16575
906.38027,0.15913
908.30874,0.15226
910.23721,0.15084
912.16568,0.15389
914.09414,0.15258
916.02261,0.14943
917.95108,0.14934
919.87955,0.15254
921.80802,0.16054
923.73649,0.16264
925.66496,0.15042
927.59343,0.14005
929.52189,0.14158
931.45036,0.14369
933.37883,0.14440
935.30730,0.15184
937.23577,0.15904
939.16424,0.15572
941.09271,0.14694
943.02117,0.14342
944.94964,0.14742
946.87811,0.14931
948.80658,0.14762
950.73505,0.15292
952.66352,0.16196
954.59199,0.16345
956.52045,0.15939
958.44892,0.15993
960.37739,0.16695
962.30586,0.17013
964.23433,0.16465
966.16280,0.15834
968.09127,0.15591
970.01974,0.15529
971.94820,0.15371
973.87667,0.15301
975.80514,0.15677
977.73361,0.16217
979.66208,0.16702
981.59055,0.16914
983.51902,0.16318
985.44748,0.15672
987.37595,0.15914
989.30442,0.16001
991.23289,0.15293
993.16136,0.14613
995.08983,0.13941
997.01830,0.13351
998.94677,0.13674
1000.87523,0.14758
1002.80370,0.15726
1004.73217,0.15898
1006.66064,0.15147
1008.58911,0.14284
1010.51758,0.14341
1012.44605,0.14617
1014.37451,0.13734
1016.30298,0.12676
1018.23145,0.12982
1020.15992,0.14022
1022.08839,0.14619
1024.01686,0.14699
1025.94533,0.14375
1027.87380,0.14152
1029.80226,0.14613
1031.73073,0.14971
1033.65920,0.15208
1035.58767,0.15733
1037.51614,0.15986
1039.44461,0.16441
1041.37308,0.17142
1043.30154,0.17139
1045.23001,0.16801
1047.15848,0.16864
1049.08695,0.17480
1051.01542,0.18390
1052.94389,0.18726
1054.87236,0.18248
1056.80083,0.17711
1058.72929,0.17904
1060.65776,0.18679
1062.58623,0.18462
1064.51470,0.17087
1066.44317,0.16444
1068.37164,0.16857
1070.30011,0.17165
1072.22857,0.17348
1074.15704,0.18315
1076.08551,0.19588
1078.01398,0.19775
1079.94245,0.18815
1081.87092,0.17534
1083.79939,0.16500
1085.72786,0.15628
1087.65632,0.14600
1089.58479,0.14551
1091.51326,0.16145
1093.44173,0.17073
1095.37020,0.15934
1097.29867,0.14891
1099.22714,0.15699
1101.15560,0.17110
1103.08407,0.17615
1105.01254,0.17468
1106.94101,0.17449
1108.86948,0.17466
1110.79795,0.17202
1112.72642,0.17294
1114.65489,0.18040
1116.58335,0.18615
1118.51182,0.18661
1120.44029,0.18575
1122.36876,0.18570
1124.29723,0.18512
1126.22570,0.18476
1128.15417,0.18281
1130.08263,0.17485
1132.01110,0.16660
1133.93957,0.16533
1135.86804,0.17057
1137.79651,0.17712
1139.72498,0.17643
1141.65345,0.16819
1143.58191,0.16550
1145.51038,0.17371
1147.43885,0.17813
1149.36732,0.16947
1151.29579,0.15957
1153.22426,0.15894
1155.15273,0.16288
1157.08120,0.16604
1159.00966,0.17065
1160.93813,0.17629
1162.86660,0.17836
1164.79507,0.17399
1166.72354,0.16695
1168.65201,0.16475
1170.58048,0.16914
1172.50894,0.17561
1174.43741,0.17686
1176.36588,0.17161
1178.29435,0.16649
1180.22282,0.16674
1182.15129,0.17014
1184.07976,0.17183
1186.00823,0.17092
1187.93669,0.16830
1189.86516,0.16960
1191.79363,0.17379
1193.72210,0.17421
1195.65057,0.17554
1197.57904,0.17640
1199.50751,0.17214
1201.43597,0.17028
1203.36444,0.17272
1205.29291,0.17379
1207.22138,0.17393
1209.14985,0.17471
1211.07832,0.17585
1213.00679,0.18045
1214.93526,0.18600
1216.86372,0.18579
1218.79219,0.18216
1220.72066,0.17963
1222.64913,0.17776
1224.57760,0.17683
1226.50607,0.17611
1228.43454,0.17230
1230.36300,0.17008
1232.29147,0.17257
1234.21994,0.17293
1236.14841,0.17096
1238.07688,0.16942
1240.00535,0.16546
1241.93382,0.15982
1243.86229,0.15718
1245.79075,0.15830
1247.71922,0.16056
1249.64769,0.16209
1251.57616,0.16118
1253.50463,0.16027
1255.43310,0.16211
1257.36157,0.16257
1259.29003,0.16053
1261.21850,0.16202
1263.14697,0.16727
1265.07544,0.16739
1267.00391,0.15994
1268.93238,0.15360
1270.86085,0.15669
1272.78932,0.16571
1274.71778,0.16905
1276.64625,0.16882
1278.57472,0.17312
1280.50319,0.17486
1282.43166,0.17140
1284.36013,0.17151
1286.28860,0.17263
1288.21706,0.17205
1290.14553,0.17491
1292.07400,0.17615
1294.00247,0.17191
1295.93094,0.16766
1297.85941,0.16186
1299.78788,0.14679
1301.71634,0.12031
1303.64481,0.09650
1305.57328,0.10161
1307.50175,0.13544
1309.43022,0.16335
1311.35869,0.17049
1313.28716,0.17075
1315.21563,0.17169
1317.14409,0.17275
1319.07256,0.17198
1321.00103,0.16984
1322.92950,0.16752
1324.85797,0.15935
1326.78644,0.15025
1328.71491,0.15247
1330.64337,0.15851
1332.57184,0.16204
1334.50031,0.16440
1336.42878,0.16101
1338.35725,0.15648
1340.28572,0.15272
1342.21419,0.15362
1344.14266,0.16305
1346.07112,0.16551
1347.99959,0.16132
1349.92806,0.16165
1351.85653,0.16123
1353.78500,0.15850
1355.71347,0.15793
1357.64194,0.16155
1359.57040,0.16934
1361.49887,0.17786
1363.42734,0.18101
1365.35581,0.17898
1367.28428,0.17881
1369.21275,0.18195
1371.14122,0.18568
1373.06969,0.19054
1374.99815,0.19512
1376.92662,0.19528
1378.85509,0.19373
1380.78356,0.19199
1382.71203,0.19008
1384.64050,0.19054
1386.56897,0.19150
1388.49743,0.18861
1390.42590,0.18438
1392.35437,0.18433
1394.28284,0.19136
1396.21131,0.19820
1398.13978,0.19547
1400.06825,0.19018
1401.99672,0.19040
1403.92518,0.19161
1405.85365,0.18878
1407.78212,0.18562
1409.71059,0.18560
1411.63906,0.18704
1413.56753,0.18866
1415.49600,0.19162
1417.42446,0.19524
1419.35293,0.19250
1421.28140,0.18295
1423.20987,0.17637
1425.13834,0.17811
1427.06681,0.18618
1428.99528,0.19385
1430.92375,0.19707
1432.85221,0.19787
1434.78068,0.19859
1436.70915,0.19634
1438.63762,0.19408
1440.56609,0.19644
1442.49456,0.19882
1444.42303,0.19841
1446.35149,0.19759
1448.27996,0.19882
1450.20843,0.20085
1452.13690,0.19991
1454.06537,0.19850
1455.99384,0.20638
1457.92231,0.21614
1459.85077,0.20860
1461.77924,0.20213
1463.70771,0.20070
1465.63618,0.19800
1467.56465,0.19473
1469.49312,0.19540
1471.42159,0.20001
1473.35006,0.20331
1475.27852,0.20132
1477.20699,0.19727
1479.13546,0.19287
1481.06393,0.18982
1482.99240,0.19044
1484.92087,0.19687
1486.84934,0.20762
1488.77780,0.21393
1490.70627,0.20725
1492.63474,0.19909
1494.56321,0.19749
1496.49168,0.19813
1498.42015,0.19729
1500.34862,0.20034
1502.27709,0.20722
1504.20555,0.21446
1506.13402,0.22202
1508.06249,0.21775
1509.99096,0.20751
1511.91943,0.20577
1513.84790,0.20877
1515.77637,0.21246
1517.70483,0.21744
1519.63330,0.22390
1521.56177,0.22822
1523.49024,0.22556
1525.41871,0.21935
1527.34718,0.21041
1529.27565,0.20177
1531.20412,0.19911
1533.13258,0.20458
1535.06105,0.21228
1536.98952,0.21896
1538.91799,0.22984
1540.84646,0.23597
1542.77493,0.22624
1544.70340,0.21377
1546.63186,0.20508
1548.56033,0.20176
1550.48880,0.20050
1552.41727,0.20037
1554.34574,0.20276
1556.27421,0.20620
1558.20268,0.20640
1560.13115,0.19966
1562.05961,0.19760
1563.98808,0.19833
1565.91655,0.19793
1567.84502,0.19913
1569.77349,0.20202
1571.70196,0.19934
1573.63043,0.19721
1575.55889,0.20162
1577.48736,0.20252
1579.41583,0.19701
1581.34430,0.19268
1583.27277,0.18958
1585.20124,0.18814
1587.12971,0.18865
1589.05818,0.19005
1590.98664,0.19245
1592.91511,0.19661
1594.84358,0.20198
1596.77205,0.20489
1598.70052,0.20386
1600.62899,0.20192
1602.55746,0.20134
1604.48592,0.20069
1606.41439,0.19865
1608.34286,0.19673
1610.27133,0.19609
1612.19980,0.19759
1614.12827,0.20350
1616.05674,0.21285
1617.98521,0.21519
1619.91367,0.21209
1621.84214,0.21093
1623.77061,0.20986
1625.69908,0.20917
1627.62755,0.20922
1629.55602,0.20683
1631.48449,0.20486
1633.41295,0.20990
1635.34142,0.22162
1637.26989,0.22177
1639.19836,0.21381
1641.12683,0.21055
1643.05530,0.21171
1644.98377,0.21440
1646.91223,0.21334
1648.84070,0.20838
1650.76917,0.20933
1652.69764,0.22141
1654.62611,0.22575
1656.55458,0.21562
1658.48305,0.21031
1660.41152,0.21354
1662.33998,0.21823
1664.26845,0.21601
1666.19692,0.21542
1668.12539,0.22139
1670.05386,0.22479
1671.98233,0.22159
1673.91080,0.21883
1675.83926,0.21323
1677.76773,0.20824
1679.69620,0.21154
1681.62467,0.22309
1683.55314,0.23478
1685.48161,0.22720
1687.41008,0.21645
1689.33855,0.21361
1691.26701,0.21162
1693.19548,0.20994
1695.12395,0.21367
1697.05242,0.22338
1698.98089,0.22970
1700.90936,0.22453
1702.83783,0.21662
1704.76629,0.21488
1706.69476,0.21354
1708.62323,0.20753
1710.55170,0.20254
1712.48017,0.20198
1714.40864,0.20426
1716.33711,0.20954
1718.26558,0.21206
1720.19404,0.20523
1722.12251,0.19750
1724.05098,0.19480
1725.97945,0.19674
1727.90792,0.20022
1729.83639,0.20453
1731.76486,0.20782
1733.69332,0.20722
1735.62179,0.20467
1737.55026,0.20491
1739.47873,0.20667
1741.40720,0.20805
1743.33567,0.20882
1745.26414,0.20995
1747.19261,0.21242
1749.12107,0.21303
1751.04954,0.20762
1752.97801,0.20191
1754.90648,0.20060
1756.83495,0.20200
1758.76342,0.20328
1760.69189,0.20450
1762.62035,0.20535
1764.54882,0.20461
1766.47729,0.20381
1768.40576,0.20642
1770.33423,0.21483
1772.26270,0.21878
1774.19117,0.21052
1776.11964,0.20454
1778.04810,0.20443
1779.97657,0.20402
1781.90504,0.20131
1783.83351,0.20035
1785.76198,0.20048
1787.69045,0.19995
1789.61892,0.20134
1791.54738,0.20479
1793.47585,0.20549
1795.40432,0.20362
1797.33279,0.20365
1799.26126,0.20452
1801.18973,0.20235
1803.11820,0.19848
1805.04666,0.19674
1806.97513,0.19783
1808.90360,0.20058
1810.83207,0.20277
1812.76054,0.20283
1814.68901,0.20087
1816.61748,0.19657
1818.54595,0.19259
1820.47441,0.19355
1822.40288,0.19845
1824.33135,0.20295
1826.25982,0.20578
1828.18829,0.20792
1830.11676,0.20727
1832.04523,0.20458
1833.97369,0.20442
1835.90216,0.20598
1837.83063,0.20607
1839.75910,0.20593
1841.68757,0.20818
1843.61604,0.21032
1845.54451,0.20961
1847.47298,0.20867
1849.40144,0.20650
1851.32991,0.20201
1853.25838,0.19803
1855.18685,0.19624
1857.11532,0.19746
1859.04379,0.19908
1860.97226,0.19750
1862.90072,0.19507
1864.82919,0.19427
1866.75766,0.19642
1868.68613,0.20098
1870.61460,0.20218
1872.54307,0.20028
1874.47154,0.19857
1876.40001,0.19773
1878.32847,0.19813
1880.25694,0.19935
1882.18541,0.20063
1884.11388,0.20165
1886.04235,0.20314
1887.97082,0.20669
1889.89929,0.20827
1891.82775,0.20462
1893.75622,0.20213
1895.68469,0.20250
1897.61316,0.20155
1899.54163,0.19942
1901.47010,0.19869
1903.39857,0.19962
1905.32704,0.20063
1907.25550,0.19963
1909.18397,0.19616
1911.11244,0.19550
1913.04091,0.20083
1914.96938,0.20677
1916.89785,0.20870
1918.82632,0.20768
1920.75478,0.20727
1922.68325,0.20713
1924.61172,0.20464
1926.54019,0.20148
1928.46866,0.19979
1930.39713,0.19904
1932.32560,0.19906
1934.25407,0.19915
1936.18253,0.19794
1938.11100,0.19731
1940.03947,0.19978
1941.96794,0.20267
1943.89641,0.20172
1945.82488,0.19828
1947.75335,0.19557
1949.68181,0.19434
1951.61028,0.19421
1953.53875,0.19501
1955.46722,0.19786
1957.39569,0.20164
1959.32416,0.20175
1961.25263,0.19847
1963.18110,0.19714
1965.10956,0.19914
1967.03803,0.20059
1968.96650,0.19868
1970.89497,0.19617
1972.82344,0.19627
1974.75191,0.19989
1976.68038,0.20442
1978.60884,0.20489
1980.53731,0.20078
1982.46578,0.19726
1984.39425,0.19819
1986.32272,0.20048
1988.25119,0.20072
1990.17966,0.20083
1992.10812,0.20194
1994.03659,0.20357
1995.96506,0.20527
1997.89353,0.20460
1999.82200,0.20295
2001.75047,0.20434
2003.67894,0.20673
2005.60741,0.20734
2007.53587,0.20567
2009.46434,0.20148
2011.39281,0.19890
2013.32128,0.19940
2015.24975,0.19989
2017.17822,0.19990
2019.10669,0.19811
2021.03515,0.19605
2022.96362,0.19809
2024.89209,0.20164
2026.82056,0.20238
2028.74903,0.20041
2030.67750,0.19853
2032.60597,0.19852
2034.53444,0.19911
2036.46290,0.20032
2038.39137,0.20147
2040.31984,0.20080
2042.24831,0.19932
2044.17678,0.19766
2046.10525,0.19658
2048.03372,0.19770
2049.96218,0.19925
2051.89065,0.19918
2053.81912,0.19981
2055.74759,0.20125
2057.67606,0.20156
2059.60453,0.20298
2061.53300,0.20468
2063.46147,0.20310
2065.38993,0.20016
2067.31840,0.19870
2069.24687,0.19822
2071.17534,0.19874
2073.10381,0.20107
2075.03228,0.20213
2076.96075,0.19927
2078.88921,0.19695
2080.81768,0.19916
2082.74615,0.20314
2084.67462,0.20538
2086.60309,0.20557
2088.53156,0.20478
2090.46003,0.20484
2092.38850,0.20637
2094.31696,0.20687
2096.24543,0.20643
2098.17390,0.20756
2100.10237,0.20782
2102.03084,0.20499
2103.95931,0.20262
2105.88778,0.20276
2107.81624,0.20356
2109.74471,0.20414
2111.67318,0.20382
2113.60165,0.20261
2115.53012,0.20211
2117.45859,0.20110
2119.38706,0.19963
2121.31553,0.20097
2123.24399,0.20335
2125.17246,0.20366
2127.10093,0.20411
2129.02940,0.20480
2130.95787,0.20471
2132.88634,0.20906
2134.81481,0.21685
2136.74327,0.21649
2138.67174,0.20684
2140.60021,0.19949
2142.52868,0.19958
2144.45715,0.20285
2146.38562,0.20507
2148.31409,0.20612
2150.24255,0.20694
2152.17102,0.20579
2154.09949,0.20277
2156.02796,0.20082
2157.95643,0.20160
2159.88490,0.20454
2161.81337,0.20567
2163.74184,0.20329
2165.67030,0.20260
2167.59877,0.20559
2169.52724,0.20807
2171.45571,0.20805
2173.38418,0.20635
2175.31265,0.20489
2177.24112,0.20489
2179.16958,0.20626
2181.09805,0.20844
2183.02652,0.20884
2184.95499,0.20723
2186.88346,0.20530
2188.81193,0.20327
2190.74040,0.20182
2192.66887,0.20125
2194.59733,0.20135
2196.52580,0.20200
2198.45427,0.20152
2200.38274,0.19861
2202.31121,0.19762
2204.23968,0.20196
2206.16815,0.20596
2208.09661,0.20526
2210.02508,0.20316
2211.95355,0.20260
2213.88202,0.20281
2215.81049,0.20296
2217.73896,0.20304
2219.66743,0.20279
2221.59590,0.20266
2223.52436,0.20200
2225.45283,0.20048
2227.38130,0.20078
2229.30977,0.20364
2231.23824,0.20742
2233.16671,0.21056
2235.09518,0.20973
2237.02364,0.20432
2238.95211,0.19998
2240.88058,0.20049
2242.80905,0.20270
2244.73752,0.20314
2246.66599,0.20368
2248.59446,0.20573
2250.52293,0.20738
2252.45139,0.20720
2254.37986,0.20519
2256.30833,0.20450
2258.23680,0.20617
2260.16527,0.20625
2262.09374,0.20494
2264.02221,0.20527
2265.95067,0.20618
2267.87914,0.20553
2269.80761,0.20334
2271.73608,0.20079
2273.66455,0.19911
2275.59302,0.19894
2277.52149,0.19904
2279.44996,0.19880
2281.37842,0.20073
2283.30689,0.20360
2285.23536,0.20308
2287.16383,0.19998
2289.09230,0.19739
2291.02077,0.19633
2292.94924,0.19699
2294.87770,0.19784
2296.80617,0.19551
2298.73464,0.19119
2300.66311,0.18927
2302.59158,0.18980
2304.52005,0.19018
2306.44852,0.18796
2308.37699,0.18400
2310.30545,0.18275
2312.23392,0.18541
2314.16239,0.18799
2316.09086,0.18733
2318.01933,0.18437
2319.94780,0.17958
2321.87627,0.17449
2323.80473,0.17360
2325.73320,0.17646
2327.66167,0.17975
2329.59014,0.18023
2331.51861,0.17430
2333.44708,0.16698
2335.37555,0.16440
2337.30401,0.16700
2339.23248,0.16936
2341.16095,0.16459
2343.08942,0.16291
2345.01789,0.16972
2346.94636,0.17236
2348.87483,0.16770
2350.80330,0.15792
2352.73176,0.14644
2354.66023,0.14046
2356.58870,0.14225
2358.51717,0.14009
2360.44564,0.12600
2362.37411,0.13241
2364.30258,0.16042
2366.23104,0.16581
2368.15951,0.16082
2370.08798,0.17022
2372.01645,0.18266
2373.94492,0.18580
2375.87339,0.18318
2377.80186,0.18611
2379.73033,0.19441
2381.65879,0.20097
2383.58726,0.20393
2385.51573,0.20459
2387.44420,0.20425
2389.37267,0.20332
2391.30114,0.20270
2393.22961,0.20346
2395.15807,0.20409
2397.08654,0.20279
2399.01501,0.20137
2400.94348,0.20168
2402.87195,0.20181
2404.80042,0.20155
2406.72889,0.20210
2408.65736,0.20235
2410.58582,0.20221
2412.51429,0.20217
2414.44276,0.20151
2416.37123,0.20145
2418.29970,0.20433
2420.22817,0.20918
2422.15664,0.21189
2424.08510,0.21105
2426.01357,0.20930
2427.94204,0.20762
2429.87051,0.20518
2431.79898,0.20306
2433.72745,0.20276
2435.65592,0.20416
2437.58439,0.20595
2439.51285,0.20651
2441.44132,0.20485
2443.36979,0.20135
2445.29826,0.19801
2447.22673,0.19778
2449.15520,0.20170
2451.08367,0.20630
2453.01213,0.20793
2454.94060,0.20605
2456.86907,0.20260
2458.79754,0.20201
2460.72601,0.20427
2462.65448,0.20560
2464.58295,0.20668
2466.51142,0.20928
2468.43988,0.21071
2470.36835,0.20941
2472.29682,0.20981
2474.22529,0.21197
2476.15376,0.21133
2478.08223,0.20818
2480.01070,0.20449
2481.93916,0.20234
2483.86763,0.20315
2485.79610,0.20459
2487.72457,0.20359
2489.65304,0.20180
2491.58151,0.20171
2493.50998,0.20180
2495.43844,0.20233
2497.36691,0.20316
2499.29538,0.20294
2501.22385,0.20378
2503.15232,0.20570
2505.08079,0.20566
2507.00926,0.20385
2508.93773,0.20251
2510.86619,0.20241
2512.79466,0.20317
2514.72313,0.20475
2516.65160,0.20852
2518.58007,0.21200
2520.50854,0.21013
2522.43701,0.20598
2524.36547,0.20565
2526.29394,0.20766
2528.22241,0.20902
2530.15088,0.21075
2532.07935,0.21104
2534.00782,0.20758
2535.93629,0.20463
2537.86476,0.20572
2539.79322,0.20875
2541.72169,0.21015
2543.65016,0.20892
2545.57863,0.20680
2547.50710,0.20557
2549.43557,0.20598
2551.36404,0.20784
2553.29250,0.20898
2555.22097,0.20812
2557.14944,0.20729
2559.07791,0.20652
2561.00638,0.20622
2562.93485,0.20835
2564.86332,0.21010
2566.79179,0.21083
2568.72025,0.21289
2570.64872,0.21278
2572.57719,0.20813
2574.50566,0.20464
2576.43413,0.20631
2578.36260,0.20912
2580.29107,0.20939
2582.21953,0.20899
2584.14800,0.20919
2586.07647,0.20788
2588.00494,0.20544
2589.93341,0.20500
2591.86188,0.20699
2593.79035,0.20821
2595.71882,0.20628
2597.64728,0.20371
2599.57575,0.20421
2601.50422,0.20730
2603.43269,0.20916
2605.36116,0.20884
2607.28963,0.21034
2609.21810,0.21499
2611.14656,0.21673
2613.07503,0.21264
2615.00350,0.20891
2616.93197,0.20861
2618.86044,0.20931
2620.78891,0.21045
2622.71738,0.21100
2624.64585,0.21030
2626.57431,0.21054
2628.50278,0.21245
2630.43125,0.21473
2632.35972,0.21579
2634.28819,0.21493
2636.21666,0.21288
2638.14513,0.21136
2640.07359,0.21278
2642.00206,0.21601
2643.93053,0.21730
2645.85900,0.21542
2647.78747,0.21152
2649.71594,0.20783
2651.64441,0.20640
2653.57288,0.20839
2655.50134,0.21171
2657.42981,0.21199
2659.35828,0.20944
2661.28675,0.20851
2663.21522,0.21175
2665.14369,0.21488
2667.07216,0.21230
2669.00062,0.20788
2670.92909,0.20718
2672.85756,0.20762
2674.78603,0.20757
2676.71450,0.20912
2678.64297,0.21103
2680.57144,0.21121
2682.49990,0.21149
2684.42837,0.21284
2686.35684,0.21223
2688.28531,0.20950
2690.21378,0.20801
2692.14225,0.20974
2694.07072,0.21340
2695.99919,0.21481
2697.92765,0.21417
2699.85612,0.21421
2701.78459,0.21202
2703.71306,0.20756
2705.64153,0.20615
2707.57000,0.20840
2709.49847,0.21091
2711.42693,0.21237
2713.35540,0.21293
2715.28387,0.21242
2717.21234,0.21209
2719.14081,0.21285
2721.06928,0.21293
2722.99775,0.21202
2724.92622,0.21268
2726.85468,0.21475
2728.78315,0.21516
2730.71162,0.21336
2732.64009,0.21112
2734.56856,0.21026
2736.49703,0.21213
2738.42550,0.21485
2740.35396,0.21526
2742.28243,0.21524
2744.21090,0.21756
2746.13937,0.21968
2748.06784,0.21987
2749.99631,0.21896
2751.92478,0.21804
2753.85325,0.21831
2755.78171,0.21776
2757.71018,0.21597
2759.63865,0.21637
2761.56712,0.21840
2763.49559,0.21854
2765.42406,0.21621
2767.35253,0.21455
2769.28099,0.21704
2771.20946,0.22071
2773.13793,0.21926
2775.06640,0.21545
2776.99487,0.21539
2778.92334,0.21713
2780.85181,0.21792
2782.78028,0.21801
2784.70874,0.21885
2786.63721,0.22237
2788.56568,0.22634
2790.49415,0.22836
2792.42262,0.22772
2794.35109,0.22468
2796.27956,0.22341
2798.20802,0.22496
2800.13649,0.22614
2802.06496,0.22607
2803.99343,0.22466
2805.92190,0.22289
2807.85037,0.22310
2809.77884,0.22486
2811.70731,0.22689
2813.63577,0.22856
2815.56424,0.22757
2817.49271,0.22354
2819.42118,0.22081
2821.34965,0.22201
2823.27812,0.22423
2825.20659,0.22451
2827.13505,0.22254
2829.06352,0.22009
2830.99199,0.22092
2832.92046,0.22406
2834.84893,0.22518
2836.77740,0.22486
2838.70587,0.22316
2840.63433,0.21988
2842.56280,0.21932
2844.49127,0.22161
2846.41974,0.22302
2848.34821,0.22528
2850.27668,0.22915
2852.20515,0.23009
2854.13362,0.22894
2856.06208,0.22852
2857.99055,0.22714
2859.91902,0.22470
2861.84749,0.22109
2863.77596,0.21831
2865.70443,0.22070
2867.63290,0.22555
2869.56136,0.22732
2871.48983,0.22570
2873.41830,0.22350
2875.34677,0.22167
2877.27524,0.22040
2879.20371,0.22183
2881.13218,0.22453
2883.06065,0.22309
2884.98911,0.21969
2886.91758,0.22145
2888.84605,0.22461
2890.77452,0.22314
2892.70299,0.21819
2894.63146,0.21158
2896.55993,0.20929
2898.48839,0.21346
2900.41686,0.21828
2902.34533,0.22165
2904.27380,0.21965
2906.20227,0.21255
2908.13074,0.21005
2910.05921,0.21207
2911.98768,0.21307
2913.91614,0.20849
2915.84461,0.19777
2917.77308,0.19645
2919.70155,0.20764
2921.63002,0.21483
2923.55849,0.20724
2925.48696,0.18720
2927.41542,0.18041
2929.34389,0.19671
2931.27236,0.21097
2933.20083,0.21476
2935.12930,0.21116
2937.05777,0.20276
2938.98624,0.20499
2940.91471,0.21557
2942.84317,0.21924
2944.77164,0.21110
2946.70011,0.19475
2948.62858,0.19164
2950.55705,0.20687
2952.48552,0.21667
2954.41399,0.21368
2956.34245,0.20173
2958.27092,0.19336
2960.19939,0.20461
2962.12786,0.21997
2964.05633,0.21957
2965.98480,0.20688
2967.91327,0.19636
2969.84174,0.20162
2971.77020,0.21477
2973.69867,0.22265
2975.62714,0.22055
2977.55561,0.20563
2979.48408,0.19588
2981.41255,0.20505
2983.34102,0.21867
2985.26948,0.22141
2987.19795,0.21072
2989.12642,0.20340
2991.05489,0.21165
2992.98336,0.22127
2994.91183,0.22261
2996.84030,0.21784
2998.76877,0.21383
3000.69723,0.21858
3002.62570,0.22448
3004.55417,0.22231
3006.48264,0.21421
3008.41111,0.20272
3010.33958,0.18361
3012.26805,0.14869
3014.19651,0.10217
3016.12498,0.07413
3018.05345,0.10029
3019.98192,0.16358
3021.91039,0.20961
3023.83886,0.22511
3025.76733,0.22558
3027.69579,0.22055
3029.62426,0.21945
3031.55273,0.22510
3033.48120,0.23116
3035.40967,0.23029
3037.33814,0.22258
3039.26661,0.22040
3041.19508,0.22777
3043.12354,0.23147
3045.05201,0.22430
3046.98048,0.21545
3048.90895,0.21869
3050.83742,0.22985
3052.76589,0.23142
3054.69436,0.21784
3056.62282,0.20034
3058.55129,0.20040
3060.47976,0.21821
3062.40823,0.22733
3064.33670,0.21285
3066.26517,0.18963
3068.19364,0.18660
3070.12211,0.20389
3072.05057,0.21674
3073.97904,0.21142
3075.90751,0.19680
3077.83598,0.19927
3079.76445,0.21679
3081.69292,0.22119
3083.62139,0.20775
3085.54985,0.19622
3087.47832,0.20355
3089.40679,0.22017
3091.33526,0.22450
3093.26373,0.20983
3095.19220,0.19790
3097.12067,0.20914
3099.04914,0.22482
3100.97760,0.22207
3102.90607,0.20408
3104.83454,0.19756
3106.76301,0.21513
3108.69148,0.23103
3110.61995,0.22110
3112.54842,0.19790
3114.47688,0.19354
3116.40535,0.20818
3118.33382,0.21810
3120.26229,0.21687
3122.19076,0.21480
3124.11923,0.21912
3126.04770,0.22224
3127.97617,0.21760
3129.90463,0.20896
3131.83310,0.20988
3133.76157,0.22508
3135.69004,0.23584
3137.61851,0.22857
3139.54698,0.21559
3141.47545,0.21579
3143.40391,0.22443
3145.33238,0.22679
3147.26085,0.22448
3149.18932,0.22566
3151.11779,0.22876
3153.04626,0.23013
3154.97473,0.23138
3156.90320,0.23007
3158.83166,0.22550
3160.76013,0.22393
3162.68860,0.22828
3164.61707,0.23301
3166.54554,0.23305
3168.47401,0.23082
3170.40248,0.22846
3172.33094,0.22704
3174.25941,0.22906
3176.18788,0.23235
3178.11635,0.23436
3180.04482,0.23597
3181.97329,0.23511
3183.90176,0.23196
3185.83022,0.23081
3187.75869,0.23059
3189.68716,0.22892
3191.61563,0.22960
3193.54410,0.23297
3195.47257,0.23474
3197.40104,0.23520
3199.32951,0.23418
3201.25797,0.23241
3203.18644,0.23116
3205.11491,0.22757
3207.04338,0.22418
3208.97185,0.22722
3210.90032,0.23540
3212.82879,0.24126
3214.75725,0.23937
3216.68572,0.23109
3218.61419,0.22409
3220.54266,0.22342
3222.47113,0.22755
3224.39960,0.22776
3226.32807,0.22025
3228.25654,0.21773
3230.18500,0.22370
3232.11347,0.22878
3234.04194,0.23048
3235.97041,0.22911
3237.89888,0.22686
3239.82735,0.22682
3241.75582,0.22683
3243.68428,0.22672
3245.61275,0.22803
3247.54122,0.22521
3249.46969,0.21837
3251.39816,0.21769
3253.32663,0.22644
3255.25510,0.23570
3257.18357,0.23784
3259.11203,0.23610
3261.04050,0.23190
3262.96897,0.22239
3264.89744,0.21215
3266.82591,0.20705
3268.75438,0.20859
3270.68285,0.21571
3272.61131,0.22255
3274.53978,0.22732
3276.46825,0.23214
3278.39672,0.23197
3280.32519,0.22560
3282.25366,0.21984
3284.18213,0.21792
3286.11060,0.21702
3288.03906,0.21506
3289.96753,0.21368
3291.89600,0.21404
3293.82447,0.21631
3295.75294,0.21900
3297.68141,0.22021
3299.60988,0.22048
3301.53834,0.22137
3303.46681,0.22389
3305.39528,0.22615
3307.32375,0.22625
3309.25222,0.22434
3311.18069,0.21955
3313.10916,0.21447
3315.03763,0.21515
3316.96609,0.22063
3318.89456,0.22435
3320.82303,0.22444
3322.75150,0.22343
3324.67997,0.22215
3326.60844,0.22178
3328.53691,0.22417
3330.46537,0.22834
3332.39384,0.23272
3334.32231,0.23616
3336.25078,0.23670
3338.17925,0.23345
3340.10772,0.23089
3342.03619,0.23212
3343.96466,0.23286
3345.89312,0.23217
3347.82159,0.23191
3349.75006,0.23058
3351.67853,0.22903
3353.60700,0.22970
3355.53547,0.23063
3357.46394,0.22998
3359.39240,0.22892
3361.32087,0.22758
3363.24934,0.22870
3365.17781,0.23417
3367.10628,0.23776
3369.03475,0.23525
3370.96322,0.23122
3372.89168,0.22895
3374.82015,0.22461
3376.74862,0.21944
3378.67709,0.22187
3380.60556,0.22851
3382.53403,0.22839
3384.46250,0.22475
3386.39097,0.22525
3388.31943,0.22460
3390.24790,0.21917
3392.17637,0.21626
3394.10484,0.21771
3396.03331,0.21862
3397.96178,0.21977
3399.89025,0.22238
3401.81871,0.22223
3403.74718,0.21813
3405.67565,0.21528
3407.60412,0.21816
3409.53259,0.22410
3411.46106,0.22681
3413.38953,0.22685
3415.31800,0.22625
3417.24646,0.22473
3419.17493,0.22490
3421.10340,0.22319
3423.03187,0.21664
3424.96034,0.21273
3426.88881,0.21578
3428.81728,0.22342
3430.74574,0.23004
3432.67421,0.23131
3434.60268,0.22824
3436.53115,0.22391
3438.45962,0.22033
3440.38809,0.21594
3442.31656,0.20972
3444.24503,0.20772
3446.17349,0.21125
3448.10196,0.21186
3450.03043,0.21002
3451.95890,0.21076
3453.88737,0.20975
3455.81584,0.20585
3457.74431,0.20510
3459.67277,0.20965
3461.60124,0.21578
3463.52971,0.21588
3465.45818,0.20648
3467.38665,0.19500
3469.31512,0.18973
3471.24359,0.19182
3473.17206,0.19930
3475.10052,0.20855
3477.02899,0.21303
3478.95746,0.20935
3480.88593,0.20148
3482.81440,0.19592
3484.74287,0.19565
3486.67134,0.19734
3488.59980,0.19430
3490.52827,0.18840
3492.45674,0.18852
3494.38521,0.19368
3496.31368,0.19750
3498.24215,0.19970
3500.17062,0.19978
3502.09909,0.19628
3504.02755,0.19356
3505.95602,0.19470
3507.88449,0.19729
3509.81296,0.19957
3511.74143,0.19927
3513.66990,0.19728
3515.59837,0.19536
3517.52683,0.19164
3519.45530,0.18921
3521.38377,0.19143
3523.31224,0.19350
3525.24071,0.19583
3527.16918,0.20116
3529.09765,0.20016
3531.02611,0.19318
3532.95458,0.18909
3534.88305,0.18445
3536.81152,0.18007
3538.73999,0.18116
3540.66846,0.18297
3542.59693,0.18111
3544.52540,0.17933
3546.45386,0.18176
3548.38233,0.18414
3550.31080,0.18584
3552.23927,0.18806
3554.16774,0.18606
3556.09621,0.18111
3558.02468,0.17699
3559.95314,0.17477
3561.88161,0.17606
3563.81008,0.18151
3565.73855,0.18938
3567.66702,0.18839
3569.59549,0.17574
3571.52396,0.16906
3573.45243,0.17180
3575.38089,0.17386
3577.30936,0.17292
3579.23783,0.17504
3581.16630,0.17723
3583.09477,0.17602
3585.02324,0.17673
3586.95171,0.18017
3588.88017,0.17696
3590.80864,0.16984
3592.73711,0.16916
3594.66558,0.17337
3596.59405,0.17039
3598.52252,0.16182
3600.45099,0.15914
3602.37946,0.16068
3604.30792,0.16269
3606.23639,0.16776
3608.16486,0.17301
3610.09333,0.17501
3612.02180,0.17479
3613.95027,0.17188
3615.87874,0.17023
3617.80720,0.17129
3619.73567,0.16741
3621.66414,0.15804
3623.59261,0.15263
3625.52108,0.15246
3627.44955,0.15537
3629.37802,0.15917
3631.30649,0.15806
3633.23495,0.15212
3635.16342,0.14523
3637.09189,0.14286
3639.02036,0.14415
3640.94883,0.14406
3642.87730,0.14426
3644.80577,0.14951
3646.73423,0.16142
3648.66270,0.17432
3650.59117,0.17026
3652.51964,0.16043
3654.44811,0.15835
3656.37658,0.15889
3658.30505,0.15609
3660.23352,0.15304
3662.16198,0.15103
3664.09045,0.14701
3666.01892,0.14333
3667.94739,0.14692
3669.87586,0.15521
3671.80433,0.15611
3673.73280,0.15596
3675.66126,0.15946
3677.58973,0.15547
3679.51820,0.14598
3681.44667,0.13898
3683.37514,0.13733
3685.30361,0.14070
3687.23208,0.14682
3689.16055,0.15208
3691.08901,0.15442
3693.01748,0.15369
3694.94595,0.14947
3696.87442,0.14522
3698.80289,0.14480
3700.73136,0.14560
3702.65983,0.14117
3704.58829,0.13383
3706.51676,0.13256
3708.44523,0.13825
3710.37370,0.14282
3712.30217,0.13993
3714.23064,0.13619
3716.15911,0.13675
3718.08757,0.14133
3720.01604,0.14300
3721.94451,0.13693
3723.87298,0.13359
3725.80145,0.13605
3727.72992,0.13805
3729.65839,0.14252
3731.58686,0.15011
3733.51532,0.15492
3735.44379,0.15604
3737.37226,0.15519
3739.30073,0.14920
3741.22920,0.14203
3743.15767,0.14240
3745.08614,0.15596
3747.01460,0.16600
3748.94307,0.16939
3750.87154,0.17423
3752.80001,0.17122
3754.72848,0.16133
3756.65695,0.15239
3758.58542,0.14767
3760.51389,0.14734
3762.44235,0.14488
3764.37082,0.13916
3766.29929,0.13356
3768.22776,0.13038
3770.15623,0.13289
3772.08470,0.13895
3774.01317,0.14006
3775.94163,0.13542
3777.87010,0.13145
3779.79857,0.13334
3781.72704,0.13485
3783.65551,0.13311
3785.58398,0.13453
3787.51245,0.13911
3789.44092,0.14062
3791.36938,0.13927
3793.29785,0.14215
3795.22632,0.14774
3797.15479,0.14689
3799.08326,0.14387
3801.01173,0.14110
3802.94020,0.13413
3804.86866,0.13107
3806.79713,0.13288
3808.72560,0.13464
3810.65407,0.13451
3812.58254,0.13433
3814.51101,0.13446
3816.43948,0.13490
3818.36795,0.13962
3820.29641,0.14650
3822.22488,0.14638
3824.15335,0.14298
3826.08182,0.14295
3828.01029,0.14470
3829.93876,0.14311
3831.86723,0.13700
3833.79569,0.13437
3835.72416,0.14034
3837.65263,0.15091
3839.58110,0.15643
3841.50957,0.15281
3843.43804,0.14463
3845.36651,0.13680
3847.29498,0.13252
3849.22344,0.13141
3851.15191,0.13221
3853.08038,0.13069
3855.00885,0.13030
3856.93732,0.13749
3858.86579,0.14052
3860.79426,0.13359
3862.72272,0.12363
3864.65119,0.12038
3866.57966,0.12351
3868.50813,0.13237
3870.43660,0.14313
3872.36507,0.14264
3874.29354,0.13448
3876.22200,0.12907
3878.15047,0.13056
3880.07894,0.13457
3882.00741,0.13191
3883.93588,0.12712
3885.86435,0.12877
3887.79282,0.13369
3889.72129,0.13751
3891.64975,0.13989
3893.57822,0.13635
3895.50669,0.12984
3897.43516,0.12874
3899.36363,0.13388
3901.29210,0.13714
3903.22057,0.13469
3905.14903,0.12726
3907.07750,0.11979
3909.00597,0.11676
3910.93444,0.11551
3912.86291,0.11514
3914.79138,0.11568
3916.71985,0.11374
3918.64832,0.11266
3920.57678,0.11785
3922.50525,0.12471
3924.43372,0.12482
3926.36219,0.11681
3928.29066,0.10888
3930.21913,0.10650
3932.14760,0.10995
3934.07606,0.11577
3936.00453,0.12064
3937.93300,0.12222
3939.86147,0.12040
3941.78994,0.11847
3943.71841,0.11907
3945.64688,0.12262
3947.57535,0.12731
3949.50381,0.13103
3951.43228,0.13088
3953.36075,0.12629
3955.28922,0.12206
3957.21769,0.11927
3959.14616,0.11311
3961.07463,0.10428
3963.00309,0.10055
3964.93156,0.10791
3966.86003,0.12004
3968.78850,0.12143
3970.71697,0.11169
3972.64544,0.10752
3974.57391,0.11299
3976.50238,0.11706
3978.43084,0.11729
3980.35931,0.11896
3982.28778,0.12036
3984.21625,0.11876
3986.14472,0.11566
3988.07319,0.11110
3990.00166,0.10671
3991.93012,0.10817
3993.85859,0.11542
3995.78706,0.11933
3997.71553,0.11575
3999.64400,0.11006
4001.57247,0.10753
4003.50094,0.10876
4005.42941,0.11011
4007.35787,0.10967
4009.28634,0.10831
4011.21481,0.10561
4013.14328,0.10466
4015.07175,0.10825
4017.00022,0.11161
4018.92869,0.11174
4020.85715,0.10982
4022.78562,0.10602
4024.71409,0.10301
4026.64256,0.10288
4028.57103,0.10416
4030.49950,0.10790
4032.42797,0.11164
4034.35644,0.11094
4036.28490,0.11151
4038.21337,0.11431
4040.14184,0.11186
4042.07031,0.10912
4043.99878,0.11310
4045.92725,0.11840
4047.85572,0.11941
4049.78418,0.11494
4051.71265,0.10847
4053.64112,0.10744
4055.56959,0.11305
4057.49806,0.11910
4059.42653,0.11797
4061.35500,0.11125
4063.28346,0.10845
4065.21193,0.11023
4067.14040,0.11061
4069.06887,0.10806
4070.99734,0.10527
4072.92581,0.10303
4074.85428,0.10121
4076.78275,0.10235
4078.71121,0.10606
4080.63968,0.10644
4082.56815,0.10088
4084.49662,0.09569
4086.42509,0.09427
4088.35356,0.09248
4090.28203,0.09326
4092.21049,0.10079
4094.13896,0.10592
4096.06743,0.10268
4097.99590,0.09739
4099.92437,0.09554
4101.85284,0.09999
4103.78131,0.10790
4105.70978,0.11158
4107.63824,0.10816
4109.56671,0.10078
4111.49518,0.09818
4113.42365,0.10271
4115.35212,0.10483
4117.28059,0.10238
4119.20906,0.10270
4121.13752,0.10470
4123.06599,0.10138
4124.99446,0.09427
4126.92293,0.09136
4128.85140,0.09406
4130.77987,0.09494
4132.70834,0.09253
4134.63681,0.09318
4136.56527,0.09672
4138.49374,0.09642
4140.42221,0.09140
4142.35068,0.09041
4144.27915,0.09747
4146.20762,0.10335
4148.13609,0.10290
4150.06455,0.10143
4151.99302,0.09970
4153.92149,0.09376
4155.84996,0.08608
4157.77843,0.08463
4159.70690,0.08858
4161.63537,0.08782
4163.56384,0.08152
4165.49230,0.07840
4167.42077,0.08014
4169.34924,0.08374
4171.27771,0.08848
4173.20618,0.08868
4175.13465,0.08223
4177.06312,0.07987
4178.99158,0.08476
4180.92005,0.08585
4182.84852,0.07818
4184.77699,0.06940
4186.70546,0.07076
4188.63393,0.08209
4190.56240,0.08881
4192.49087,0.08794
4194.41933,0.09231
4196.34780,0.09790
4198.27627,0.09106
4200.20474,0.08103
4202.13321,0.07927
4204.06168,0.07974
4205.99015,0.07958
4207.91861,0.08083
4209.84708,0.08321
4211.77555,0.08352
4213.70402,0.07954
4215.63249,0.07686
4217.56096,0.08079
4219.48943,0.08823
4221.41789,0.09191
4223.34636,0.08605
4225.27483,0.07287
4227.20330,0.06567
4229.13177,0.07163
4231.06024,0.07950
4232.98871,0.07944
4234.91718,0.07405
4236.84564,0.06588
4238.77411,0.05851
4240.70258,0.05883
4242.63105,0.06515
4244.55952,0.07049
4246.48799,0.07168
4248.41646,0.07076
4250.34492,0.07078
4252.27339,0.06855
4254.20186,0.06192
4256.13033,0.05752
4258.05880,0.06029
4259.98727,0.06345
4261.91574,0.06329
4263.84421,0.06508
4265.77267,0.06597
4267.70114,0.06246
4269.62961,0.06013
4271.55808,0.06055
4273.48655,0.05794
4275.41502,0.05483
4277.34349,0.05929
4279.27195,0.06590
4281.20042,0.06983
4283.12889,0.07214
4285.05736,0.06834
4286.98583,0.06316
4288.91430,0.06232
4290.84277,0.06251
4292.77124,0.06626
4294.69970,0.07167
4296.62817,0.07093
4298.55664,0.06709
4300.48511,0.06593
4302.41358,0.06622
4304.34205,0.06825
4306.27052,0.07150
4308.19898,0.06852
4310.12745,0.06264
4312.05592,0.06406
4313.98439,0.06334
4315.91286,0.05204
4317.84133,0.04584
4319.76980,0.05405
4321.69827,0.06196
4323.62673,0.05735
4325.55520,0.04557
4327.48367,0.03743
4329.41214,0.03724
4331.34061,0.04393
4333.26908,0.05282
4335.19755,0.05714
4337.12601,0.05360
4339.05448,0.04537
4340.98295,0.04168
4342.91142,0.04682
4344.83989,0.05110
4346.76836,0.05031
4348.69683,0.05108
4350.62530,0.05475
4352.55376,0.05784
4354.48223,0.05185
4356.41070,0.03940
4358.33917,0.03748
4360.26764,0.04203
4362.19611,0.04176
4364.12458,0.04313
4366.05304,0.04707
4367.98151,0.04663
4369.90998,0.04345
4371.83845,0.04417
4373.76692,0.05098
4375.69539,0.05351
4377.62386,0.04447
4379.55232,0.03244
4381.48079,0.02377
4383.40926,0.02157
4385.33773,0.02674
4387.26620,0.03671
4389.19467,0.04893
4391.12314,0.05022
4393.05161,0.03844
4394.98007,0.03382
4396.90854,0.03840
4398.83701,0.04077
4400.76548,0.04244
4402.69395,0.04124
4404.62242,0.03560
4406.55089,0.03543
4408.47935,0.04114
4410.40782,0.04214
4412.33629,0.03701
4414.26476,0.03392
4416.19323,0.03524
4418.12170,0.03567
4420.05017,0.03153
4421.97864,0.02927
4423.90710,0.03486
4425.83557,0.04204
4427.76404,0.04290
4429.69251,0.03830
4431.62098,0.03490
4433.54945,0.03088
4435.47792,0.02570
4437.40638,0.02678
4439.33485,0.03161
4441.26332,0.03615
4443.19179,0.03913
4445.12026,0.03748
4447.04873,0.03519
4448.97720,0.03841
4450.90567,0.04618
4452.83413,0.05038
4454.76260,0.04382
4456.69107,0.03315
4458.61954,0.02804
4460.54801,0.02784
4462.47648,0.03247
4464.40495,0.03785
4466.33341,0.03465
4468.26188,0.02608
4470.19035,0.02040
4472.11882,0.01879
4474.04729,0.02112
4475.97576,0.02488
4477.90423,0.02434
4479.83270,0.02418
4481.76116,0.03060
4483.68963,0.03397
4485.61810,0.02665
4487.54657,0.01835
4489.47504,0.01692
4491.40351,0.01838
4493.33198,0.02044
4495.26044,0.02441
4497.18891,0.02562
4499.11738,0.02315
4501.04585,0.02417
4502.97432,0.02461
4504.90279,0.02180
4506.83126,0.02421
4508.75973,0.02958
4510.68819,0.02866
4512.61666,0.01914
4514.54513,0.00956
4516.47360,0.01090
4518.40207,0.01974
4520.33054,0.02409
4522.25901,0.02061
4524.18747,0.01584
4526.11594,0.01865
4528.04441,0.02838
4529.97288,0.03003
4531.90135,0.01796
4533.82982,0.00448
4535.75829,0.00012
4537.68676,0.00392
4539.61522,0.01027
4541.54369,0.01435
4543.47216,0.01296
4545.40063,0.01302
4547.32910,0.01738
4549.25757,0.01839
4551.18604,0.01701
4553.11450,0.01654
4555.04297,0.01542
4556.97144,0.01814
4558.89991,0.02513
4560.82838,0.02301
4562.75685,0.01147
4564.68532,0.00528
4566.61378,0.00691
4568.54225,0.00667
4570.47072,0.00123
4572.39919,-0.00082
4574.32766,0.00319
4576.25613,0.00901
4578.18460,0.01465
4580.11307,0.01245
4582.04153,0.00477
4583.97000,0.00563
4585.89847,0.01478
4587.82694,0.02230
4589.75541,0.02354
4591.68388,0.02438
4593.61235,0.02961
4595.54081,0.03016
4597.46928,0.02207
4599.39775,0.01357
4601.32622,0.01057
4603.25469,0.01689
4605.18316,0.02781
4607.11163,0.02739
4609.04010,0.01719
4610.96856,0.01028
4612.89703,0.00503
4614.82550,0.00251
4616.75397,0.00837
4618.68244,0.01362
4620.61091,0.01143
4622.53938,0.00789
4624.46784,0.00968
4626.39631,0.01879
4628.32478,0.02647
4630.25325,0.02507
4632.18172,0.01808
4634.11019,0.00796
4636.03866,-0.00322
4637.96713,-0.00986
4639.89559,-0.00666
4641.82406,0.00354
4643.75253,0.01074
4645.68100,0.01365
4647.60947,0.01432
4649.53794,0.01247
4651.46641,0.01339
4653.39487,0.01911
4655.32334,0.02165
4657.25181,0.01575
4659.18028,0.00732
4661.10875,0.00656
4663.03722,0.01281
4664.96569,0.01183
4666.89416,0.00064
4668.82262,-0.00512
4670.75109,0.00482
4672.67956,0.02007
4674.60803,0.02456
4676.53650,0.01759
4678.46497,0.00896
4680.39344,0.00643
4682.32190,0.00771
4684.25037,0.00613
4686.17884,0.00606
4688.10731,0.00900
4690.03578,0.00875
4691.96425,0.00851
4693.89272,0.01057
4695.82119,0.01358
4697.74965,0.02101
4699.67812,0.02820
4701.60659,0.02213
4703.53506,0.00722
4705.46353,0.00457
4707.39200,0.01377
4709.32047,0.01326
4711.24893,0.00117
4713.17740,-0.00453
4715.10587,-0.00015
4717.03434,0.00599
4718.96281,0.01179
4720.89128,0.01173
4722.81975,0.00163
4724.74821,-0.00699
4726.67668,-0.00701
4728.60515,-0.00286
4730.53362,0.00340
4732.46209,0.00741
4734.39056,0.00514
4736.31903,-0.00134
4738.24750,-0.00762
4740.17596,-0.00714
4742.10443,-0.00171
4744.03290,0.00655
4745.96137,0.01906
4747.88984,0.02004
4749.81831,0.00103
4751.74678,-0.01287
4753.67524,-0.00819
4755.60371,-0.00155
4757.53218,0.00057
4759.46065,0.00709
4761.38912,0.01029
4763.31759,0.00272
4765.24606,0.00409
4767.17453,0.02194
4769.10299,0.03370
4771.03146,0.03253
4772.95993,0.02975
4774.88840,0.02388
4776.81687,0.01141
4778.74534,0.00370
4780.67381,0.00441
4782.60227,0.00436
4784.53074,0.00877
4786.45921,0.01994
4788.38768,0.02242
4790.31615,0.01111
4792.24462,-0.00389
4794.17309,-0.01232
4796.10156,-0.01484
4798.03002,-0.01800
4799.95849,-0.01816
4801.88696,-0.01765
4803.81543,-0.02189
4805.74390,-0.01745
4807.67237,0.00301
4809.60084,0.01952
4811.52930,0.01660
4813.45777,0.00698
4815.38624,0.00360
4817.31471,0.00342
4819.24318,0.00406
4821.17165,0.01014
4823.10012,0.02538
4825.02859,0.03816
4826.95705,0.02921
4828.88552,0.00415
4830.81399,-0.01129
4832.74246,-0.00391
4834.67093,0.01816
4836.59940,0.03299
4838.52787,0.02439
4840.45633,0.00006
4842.38480,-0.01594
4844.31327,-0.01323
4846.24174,-0.00376
4848.17021,0.00679
4850.09868,0.01986
4852.02715,0.02449
4853.95562,0.01817
4855.88408,0.01099
4857.81255,0.00346
4859.74102,0.00130
4861.66949,0.01245
4863.59796,0.01934
4865.52643,0.01582
4867.45490,0.01752
4869.38336,0.01950
4871.31183,0.00599
4873.24030,-0.01236
4875.16877,-0.00672
4877.09724,0.01609
4879.02571,0.02703
4880.95418,0.02026
4882.88265,0.00697
4884.81111,0.00502
4886.73958,0.01424
4888.66805,0.02216
4890.59652,0.03037
4892.52499,0.03141
4894.45346,0.01843
4896.38193,0.00303
4898.31039,-0.00188
4900.23886,0.00930
4902.16733,0.02665
4904.09580,0.03022
4906.02427,0.01740
4907.95274,0.00989
4909.88121,0.01569
4911.80967,0.01565
4913.73814,0.00268
4915.66661,-0.00581
4917.59508,0.00124
4919.52355,0.01556
4921.45202,0.02651
4923.38049,0.03486
4925.30896,0.03915
4927.23742,0.03646
4929.16589,0.02851
4931.09436,0.01433
4933.02283,0.00242
4934.95130,-0.00084
4936.87977,-0.00122
4938.80824,-0.00162
4940.73670,-0.00437
4942.66517,-0.00692
4944.59364,-0.00401
4946.52211,0.00215
4948.45058,0.01190
4950.37905,0.02247
4952.30752,0.02000
4954.23599,0.00306
4956.16445,-0.01241
4958.09292,-0.02021
4960.02139,-0.02322
4961.94986,-0.01654
4963.87833,-0.00155
4965.80680,0.00587
4967.73527,0.00100
4969.66373,-0.00211
4971.59220,0.01308
4973.52067,0.03098
4975.44914,0.02477
4977.37761,0.01703
4979.30608,0.02511
4981.23455,0.02650
4983.16302,0.01879
4985.09148,0.01657
4987.01995,0.01745
4988.94842,0.00887
4990.87689,-0.00605
4992.80536,-0.00604
4994.73383,0.00999
4996.66230,0.01551
4998.59076,0.00421
5000.51923,0.00365
5002.44770,0.02384
5004.37617,0.03745
5006.30464,0.03715
5008.23311,0.03745
5010.16158,0.03371
5012.09005,0.03528
5014.01851,0.04896
5015.94698,0.04552
5017.87545,0.02054
5019.80392,0.00116
5021.73239,-0.00627
5023.66086,-0.00704
5025.58933,-0.00379
5027.51779,0.00410
5029.44626,0.02005
5031.37473,0.03055
5033.30320,0.02274
5035.23167,0.00467
5037.16014,-0.01070
5039.08861,-0.01381
5041.01708,-0.00442
5042.94554,0.00911
5044.87401,0.02473
5046.80248,0.04047
5048.73095,0.03807
5050.65942,0.01652
5052.58789,0.00155
5054.51636,0.00115
5056.44482,0.00500
5058.37329,0.00769
5060.30176,0.01727
5062.23023,0.02980
5064.15870,0.02412
5066.08717,0.00629
5068.01564,-0.00050
5069.94410,0.00619
5071.87257,0.01781
5073.80104,0.02598
5075.72951,0.02387
5077.65798,0.01698
5079.58645,0.01298
5081.51492,0.01692
5083.44339,0.02837
5085.37185,0.03395
5087.30032,0.02541
5089.22879,0.01009
5091.15726,0.00744
5093.08573,0.02322
5095.01420,0.04052
5096.94267,0.04452
5098.87113,0.03514
5100.79960,0.02973
5102.72807,0.03957
5104.65654,0.05855
5106.58501,0.06918
5108.51348,0.05929
5110.44195,0.03932
5112.37042,0.02243
5114.29888,0.01539
5116.22735,0.02291
5118.15582,0.03734
5120.08429,0.03878
5122.01276,0.02611
5123.94123,0.01330
5125.86970,0.00381
5127.79816,-0.00103
5129.72663,-0.00291
5131.65510,-0.00253
5133.58357,0.00174
5135.51204,0.00720
5137.44051,0.01202
5139.36898,0.01471
5141.29745,0.01808
5143.22591,0.02188
5145.15438,0.02293
5147.08285,0.02680
5149.01132,0.03378
5150.93979,0.03518
5152.86826,0.03517
5154.79673,0.04505
5156.72519,0.05160
5158.65366,0.04340
5160.58213,0.04330
5162.51060,0.05520
5164.43907,0.05972
5166.36754,0.05585
5168.29601,0.04826
5170.22448,0.04516
5172.15294,0.04972
5174.08141,0.04690
5176.00988,0.03654
5177.93835,0.02826
5179.86682,0.02351
5181.79529,0.03012
5183.72376,0.04699
5185.65222,0.05218
5187.58069,0.04556
5189.50916,0.04722
5191.43763,0.04778
5193.36610,0.03367
5195.29457,0.02156
5197.22304,0.02743
5199.15151,0.04673
5201.07997,0.06423
5203.00844,0.06918
5204.93691,0.07092
5206.86538,0.08470
5208.79385,0.09422
5210.72232,0.08085
5212.65079,0.06182
5214.57925,0.05069
5216.50772,0.04085
5218.43619,0.03817
5220.36466,0.04403
5222.29313,0.04373
5224.22160,0.04478
5226.15007,0.05133
5228.07854,0.05185
5230.00700,0.05431
5231.93547,0.05659
5233.86394,0.04484
5235.79241,0.03328
5237.72088,0.03806
5239.64935,0.04823
5241.57782,0.05546
5243.50628,0.06446
5245.43475,0.06199
5247.36322,0.04280
5249.29169,0.03789
5251.22016,0.05249
5253.14863,0.05897
5255.07710,0.05790
5257.00556,0.06960
5258.93403,0.08576
5260.86250,0.07479
5262.79097,0.04482
5264.71944,0.02927
5266.64791,0.02318
5268.57638,0.02638
5270.50485,0.03683
5272.43331,0.03354
5274.36178,0.02573
5276.29025,0.03071
5278.21872,0.04022
5280.14719,0.03952
5282.07566,0.03229
5284.00413,0.02302
5285.93259,0.01714
5287.86106,0.02911
5289.78953,0.05067
5291.71800,0.06082
5293.64647,0.05554
5295.57494,0.05193
5297.50341,0.05789
5299.43188,0.05900
5301.36034,0.05363
5303.28881,0.04531
5305.21728,0.03481
5307.14575,0.03716
5309.07422,0.04469
5311.00269,0.04399
5312.93116,0.04765
5314.85962,0.04966
5316.78809,0.04844
5318.71656,0.05434
5320.64503,0.05951
5322.57350,0.06676
5324.50197,0.07327
5326.43044,0.06703
5328.35891,0.05388
5330.28737,0.04400
5332.21584,0.04698
5334.14431,0.06219
5336.07278,0.07261
5338.00125,0.06830
5339.92972,0.06541
5341.85819,0.07939
5343.78665,0.08928
5345.71512,0.07117
5347.64359,0.05198
5349.57206,0.05611
5351.50053,0.06721
5353.42900,0.06974
5355.35747,0.06868
5357.28594,0.06967
5359.21440,0.07008
5361.14287,0.07336
5363.07134,0.08025
5364.99981,0.07184
5366.92828,0.05891
5368.85675,0.06163
5370.78522,0.06862
5372.71368,0.07702
5374.64215,0.07474
5376.57062,0.05320
5378.49909,0.04230
5380.42756,0.04291
5382.35603,0.03720
5384.28450,0.03504
5386.21297,0.05976
5388.14143,0.09263
5390.06990,0.10451
5391.99837,0.10476
5393.92684,0.11484
5395.85531,0.12921
5397.78378,0.12116
5399.71225,0.09627
5401.64071,0.08062
5403.56918,0.08588
5405.49765,0.09570
5407.42612,0.09404
5409.35459,0.09335
5411.28306,0.09983
5413.21153,0.09692
5415.13999,0.07782
5417.06846,0.05549
5418.99693,0.03622
5420.92540,0.02750
5422.85387,0.04116
5424.78234,0.06707
5426.71081,0.08058
5428.63928,0.07358
5430.56774,0.06679
5432.49621,0.07020
5434.42468,0.06741
5436.35315,0.05068
5438.28162,0.04005
5440.21009,0.05157
5442.13856,0.06569
5444.06702,0.06034
5445.99549,0.04580
5447.92396,0.03674
5449.85243,0.03589
5451.78090,0.04257
5453.70937,0.05052
5455.63784,0.05067
5457.56631,0.04480
5459.49477,0.03990
5461.42324,0.05549
5463.35171,0.09898
5465.28018,0.13305
5467.20865,0.13517
5469.13712,0.10982
5471.06559,0.06945
5472.99405,0.03974
5474.92252,0.04305
5476.85099,0.07119
5478.77946,0.09320
5480.70793,0.10303
5482.63640,0.10530
5484.56487,0.09852
5486.49334,0.08522
5488.42180,0.07439
5490.35027,0.06217
5492.27874,0.04990
5494.20721,0.06224
5496.13568,0.09092
5498.06415,0.10218
5499.99262,0.09150
5501.92108,0.07763
5503.84955,0.06046
5505.77802,0.03750
5507.70649,0.01992
5509.63496,0.01477
5511.56343,0.02925
5513.49190,0.06047
5515.42037,0.09274
5517.34883,0.11153
5519.27730,0.10505
5521.20577,0.07773
5523.13424,0.05151
5525.06271,0.05260
5526.99118,0.07769
5528.91965,0.10037
5530.84811,0.09935
5532.77658,0.07209
5534.70505,0.05146
5536.63352,0.05920
5538.56199,0.07898
5540.49046,0.10683
5542.41893,0.13356
5544.34740,0.12296
5546.27586,0.07878
5548.20433,0.04695
5550.13280,0.03985
5552.06127,0.04218
5553.98974,0.03741
5555.91821,0.00987
5557.84668,-0.00741
5559.77514,0.02028
5561.70361,0.06681
5563.63208,0.09990
5565.56055,0.10806
5567.48902,0.09643
5569.41749,0.07816
5571.34596,0.06774
5573.27443,0.07131
5575.20289,0.06946
5577.13136,0.05221
5579.05983,0.04153
5580.98830,0.04645
5582.91677,0.05639
5584.84524,0.07626
5586.77371,0.10530
5588.70217,0.12744
5590.63064,0.13459
5592.55911,0.12954
5594.48758,0.11434
5596.41605,0.08554
5598.34452,0.05689
5600.27299,0.04633
5602.20145,0.06385
5604.12992,0.09904
5606.05839,0.10303
5607.98686,0.07994
5609.91533,0.08344
5611.84380,0.10822
5613.77227,0.12963
5615.70074,0.15122
5617.62920,0.15992
5619.55767,0.13985
5621.48614,0.10735
5623.41461,0.08349
5625.34308,0.06846
5627.27155,0.06387
5629.20002,0.08199
5631.12848,0.10683
5633.05695,0.10066
5634.98542,0.06243
5636.91389,0.03872
5638.84236,0.04804
5640.77083,0.06185
5642.69930,0.07530
5644.62777,0.08763
5646.55623,0.08029
5648.48470,0.07015
5650.41317,0.07801
5652.34164,0.09019
5654.27011,0.08995
5656.19858,0.06963
5658.12705,0.04491
5660.05551,0.05797
5661.98398,0.11260
5663.91245,0.14408
5665.84092,0.12254
5667.76939,0.09463
5669.69786,0.08382
5671.62633,0.07640
5673.55480,0.08191
5675.48326,0.08805
5677.41173,0.06220
5679.34020,0.02658
5681.26867,0.01841
5683.19714,0.04482
5685.12561,0.08962
5687.05408,0.12934
5688.98254,0.12801
5690.91101,0.08852
5692.83948,0.07512
5694.76795,0.09677
5696.69642,0.10769
5698.62489,0.08815
5700.55336,0.07482
5702.48183,0.10644
5704.41029,0.13929
5706.33876,0.12726
5708.26723,0.11528
5710.19570,0.14995
5712.12417,0.18196
5714.05264,0.16699
5715.98111,0.14644
5717.90957,0.13392
5719.83804,0.10410
5721.76651,0.06211
5723.69498,0.03013
5725.62345,0.02584
5727.55192,0.04819
5729.48039,0.07316
5731.40886,0.07998
5733.33732,0.08255
5735.26579,0.10482
5737.19426,0.12566
5739.12273,0.12221
5741.05120,0.11552
5742.97967,0.11073
5744.90814,0.10312
5746.83660,0.10103
5748.76507,0.09782
5750.69354,0.08421
5752.62201,0.07892
5754.55048,0.09197
5756.47895,0.10625
5758.40742,0.10734
5760.33588,0.09071
5762.26435,0.06742
5764.19282,0.06272
5766.12129,0.08596
5768.04976,0.10667
5769.97823,0.10617
5771.90670,0.09815
5773.83517,0.08115
5775.76363,0.05678
5777.69210,0.05159
5779.62057,0.07853
5781.54904,0.10903
5783.47751,0.11255
5785.40598,0.09844
5787.33445,0.09839
5789.26291,0.12930
5791.19138,0.16408
5793.11985,0.16127
5795.04832,0.12064
5796.97679,0.07578
5798.90526,0.06044
5800.83373,0.06277
5802.76220,0.05338
5804.69066,0.05992
5806.61913,0.08226
5808.54760,0.07919
5810.47607,0.07049
5812.40454,0.07101
5814.33301,0.07164
5816.26148,0.07336
5818.18994,0.07258
5820.11841,0.06439
5822.04688,0.06526
5823.97535,0.09506
5825.90382,0.11935
5827.83229,0.10813
5829.76076,0.07964
5831.68923,0.06475
5833.61769,0.08121
5835.54616,0.11333
5837.47463,0.11946
5839.40310,0.09765
5841.33157,0.10152
5843.26004,0.12812
5845.18851,0.13453
5847.11697,0.15017
5849.04544,0.19392
5850.97391,0.20862
5852.90238,0.17031
5854.83085,0.12663
5856.75932,0.11879
5858.68779,0.12310
5860.61626,0.10241
5862.54472,0.08960
5864.47319,0.12596
5866.40166,0.17141
5868.33013,0.16896
5870.25860,0.12698
5872.18707,0.07733
5874.11554,0.04914
5876.04400,0.07227
5877.97247,0.10868
5879.90094,0.10481
5881.82941,0.09696
5883.75788,0.11698
5885.68635,0.12283
5887.61482,0.10576
5889.54329,0.11370
5891.47175,0.13702
5893.40022,0.13280
5895.32869,0.12091
5897.25716,0.14849
5899.18563,0.18714
5901.11410,0.17361
5903.04257,0.13184
5904.97103,0.10847
5906.89950,0.10407
5908.82797,0.12089
5910.75644,0.12404
5912.68491,0.08496
5914.61338,0.06615
5916.54185,0.09728
5918.47032,0.12270
5920.39878,0.13138
5922.32725,0.15211
5924.25572,0.16120
5926.18419,0.12253
5928.11266,0.08116
5930.04113,0.09897
5931.96960,0.13808
5933.89806,0.14888
5935.82653,0.14456
5937.75500,0.12678
5939.68347,0.10083
5941.61194,0.09902
5943.54041,0.10149
5945.46888,0.09001
5947.39734,0.09892
5949.32581,0.11657
5951.25428,0.11779
5953.18275,0.11857
5955.11122,0.11604
5957.03969,0.08662
5958.96816,0.01111
5960.89663,-0.04941
5962.82509,-0.01750
5964.75356,0.05282
5966.68203,0.09560
5968.61050,0.11984
5970.53897,0.11914
5972.46744,0.07991
5974.39591,0.06100
5976.32437,0.08727
5978.25284,0.09917
5980.18131,0.08052
5982.10978,0.08665
5984.03825,0.12988
5985.96672,0.14493
5987.89519,0.14803
5989.82366,0.18246
5991.75212,0.18246
5993.68059,0.13427
5995.60906,0.09783
5997.53753,0.08581
5999.46600,0.08809
6001.39447,0.10032
6003.32294,0.10056
6005.25140,0.09066
6007.17987,0.10487
6009.10834,0.13196
6011.03681,0.12220
6012.96528,0.07501
6014.89375,0.05650
6016.82222,0.07977
6018.75069,0.07236
6020.67915,0.02990
6022.60762,0.01421
6024.53609,0.03108
6026.46456,0.06230
6028.39303,0.09590
6030.32150,0.12123
6032.24997,0.12767
6034.17843,0.10452
6036.10690,0.09018
6038.03537,0.09783
6039.96384,0.08547
6041.89231,0.08360
6043.82078,0.12624
6045.74925,0.18285
6047.67772,0.22848
6049.60618,0.23897
6051.53465,0.20533
6053.46312,0.16218
6055.39159,0.14121
6057.32006,0.13887
6059.24853,0.11987
6061.17700,0.06440
6063.10546,0.02407
6065.03393,0.02694
6066.96240,0.01996
6068.89087,-0.00349
6070.81934,-0.00666
6072.74781,0.03162
6074.67628,0.09301
6076.60475,0.12213
6078.53321,0.10756
6080.46168,0.08157
6082.39015,0.06558
6084.31862,0.06374
6086.24709,0.06381
6088.17556,0.06545
6090.10403,0.09207
6092.03249,0.12449
6093.96096,0.12715
6095.88943,0.10223
6097.81790,0.06310
6099.74637,0.04056
6101.67484,0.04172
6103.60331,0.07110
6105.53177,0.15402
6107.46024,0.22233
6109.38871,0.20999
6111.31718,0.16670
6113.24565,0.12835
6115.17412,0.09618
6117.10259,0.07975
6119.03106,0.09191
6120.95952,0.12626
6122.88799,0.14856
6124.81646,0.13023
6126.74493,0.08929
6128.67340,0.09190
6130.60187,0.14553
6132.53034,0.15737
6134.45880,0.08881
6136.38727,0.03432
6138.31574,0.04119
6140.24421,0.04963
6142.17268,0.05991
6144.10115,0.08297
6146.02962,0.08144
6147.95809,0.06454
6149.88655,0.05132
6151.81502,0.03598
6153.74349,0.01853
6155.67196,0.01334
6157.60043,0.01963
6159.52890,0.02108
6161.45737,0.01952
6163.38583,0.04528
6165.31430,0.09855
6167.24277,0.12494
6169.17124,0.11824
6171.09971,0.11964
6173.02818,0.12906
6174.95665,0.12259
6176.88512,0.10175
6178.81358,0.08088
6180.74205,0.07795
6182.67052,0.08756
6184.59899,0.06589
6186.52746,0.01768
6188.45593,0.02173
6190.38440,0.10229
6192.31286,0.19360
6194.24133,0.21756
6196.16980,0.17157
6198.09827,0.12603
6200.02674,0.09841
6201.95521,0.08595
6203.88368,0.08677
6205.81215,0.08623
6207.74061,0.10674
6209.66908,0.13083
6211.59755,0.11808
6213.52602,0.11046
6215.45449,0.11644
6217.38296,0.08835
6219.31143,0.03367
6221.23989,0.00093
6223.16836,0.00916
6225.09683,0.03122
6227.02530,0.03117
6228.95377,0.01660
6230.88224,0.03783
6232.81071,0.06754
6234.73918,0.00982
6236.66764,-0.06326
6238.59611,-0.05873
6240.52458,-0.03458
6242.45305,-0.01378
6244.38152,0.02959
6246.30999,0.05931
6248.23846,0.07484
6250.16692,0.09911
6252.09539,0.10607
6254.02386,0.08877
6255.95233,0.09426
6257.88080,0.12897
6259.80927,0.12776
6261.73774,0.08552
6263.66621,0.08569
6265.59467,0.16356
6267.52314,0.22829
6269.45161,0.22283
6271.38008,0.18485
6273.30855,0.12709
6275.23702,0.07690
6277.16549,0.06886
6279.09395,0.06645
6281.02242,0.05731
6282.95089,0.06363
6284.87936,0.07917
6286.80783,0.08279
6288.73630,0.06844
6290.66477,0.06094
6292.59323,0.06433
6294.52170,0.08204
6296.45017,0.12817
6298.37864,0.15107
6300.30711,0.14237
6302.23558,0.14779
6304.16405,0.13784
6306.09252,0.10021
6308.02098,0.09412
6309.94945,0.12656
6311.87792,0.13483
6313.80639,0.10575
6315.73486,0.07891
6317.66333,0.07575
6319.59180,0.08156
6321.52026,0.05495
6323.44873,-0.01234
6325.37720,-0.03673
6327.30567,0.03122
6329.23414,0.08980
6331.16261,0.08261
6333.09108,0.07389
6335.01955,0.07451
6336.94801,0.08101
6338.87648,0.09392
6340.80495,0.10887
6342.73342,0.14634
6344.66189,0.19855
6346.59036,0.20149
6348.51883,0.14596
6350.44729,0.09965
6352.37576,0.07937
6354.30423,0.08500
6356.23270,0.13987
6358.16117,0.20347
6360.08964,0.16860
6362.01811,0.05230
6363.94658,0.04778
6365.87504,0.19469
6367.80351,0.22609
6369.73198,0.08584
6371.66045,0.02290
6373.58892,0.06260
6375.51739,0.06340
6377.44586,0.02931
6379.37432,0.02453
6381.30279,0.07224
6383.23126,0.13368
6385.15973,0.15625
6387.08820,0.15527
6389.01667,0.12960
6390.94514,0.03256
6392.87361,-0.07712
6394.80207,-0.05693
6396.73054,0.03764
6398.65901,0.11054
6400.58748,0.15717
6402.51595,0.14184
6404.44442,0.06239
6406.37289,0.02863
6408.30135,0.07821
6410.22982,0.09861
6412.15829,0.08823
6414.08676,0.10013
6416.01523,0.08697
6417.94370,0.05604
6419.87217,0.08164
6421.80064,0.13324
6423.72910,0.13987
6425.65757,0.10913
6427.58604,0.09670
6429.51451,0.11294
6431.44298,0.09964
6433.37145,0.04751
6435.29992,0.01654
6437.22838,0.01605
6439.15685,0.01858
6441.08532,0.02328
6443.01379,0.05589
6444.94226,0.09442
6446.87073,0.08691
6448.79920,0.06547
6450.72766,0.09845
6452.65613,0.11737
6454.58460,0.02838
6456.51307,-0.06751
6458.44154,-0.05087
6460.37001,0.02559
6462.29848,0.07648
6464.22695,0.08528
6466.15541,0.08008
6468.08388,0.08419
6470.01235,0.10890
6471.94082,0.12451
6473.86929,0.11044
6475.79776,0.08797
6477.72623,0.06752
6479.65469,0.04055
6481.58316,0.01370
6483.51163,0.04446
6485.44010,0.11153
6487.36857,0.12587
6489.29704,0.08483
6491.22551,0.05862
6493.15398,0.07746
6495.08244,0.10550
6497.01091,0.11945
6498.93938,0.13091
6500.86785,0.13531
6502.79632,0.10718
6504.72479,0.06773
6506.65326,0.07635
6508.58172,0.12881
6510.51019,0.17340
6512.43866,0.22951
6514.36713,0.29425
6516.29560,0.31986
6518.22407,0.28964
6520.15254,0.19286
6522.08101,0.09456
6524.00947,0.04736
6525.93794,-0.01607
6527.86641,-0.07488
6529.79488,-0.04788
6531.72335,0.03085
6533.65182,0.08611
6535.58029,0.08697
6537.50875,0.08448
6539.43722,0.13082
6541.36569,0.14278
6543.29416,0.06540
6545.22263,0.01500
6547.15110,0.04888
6549.07957,0.10040
6551.00804,0.12949
6552.93650,0.14819
6554.86497,0.13792
6556.79344,0.10029
6558.72191,0.07905
6560.65038,0.09886
6562.57885,0.14663
6564.50732,0.16874
6566.43578,0.16898
6568.36425,0.18730
6570.29272,0.17303
6572.22119,0.09219
6574.14966,0.00463
6576.07813,-0.03789
6578.00660,0.00893
6579.93507,0.11862
6581.86353,0.15238
6583.79200,0.12793
6585.72047,0.12289
6587.64894,0.10215
6589.57741,0.11172
6591.50588,0.17388
6593.43435,0.20749
6595.36281,0.18452
6597.29128,0.14842
6599.21975,0.10442
6601.14822,0.07112
6603.07669,0.06762
6605.00516,0.08844
6606.93363,0.14097
6608.86210,0.15805
6610.79056,0.12011
6612.71903,0.07948
6614.64750,0.02176
6616.57597,-0.02035
6618.50444,-0.00625
6620.43291,0.02178
6622.36138,0.05979
6624.28984,0.10892
6626.21831,0.09816
6628.14678,0.00149
6630.07525,-0.06504
6632.00372,-0.04659
6633.93219,-0.01241
6635.86066,0.01058
6637.78912,0.00443
6639.71759,-0.00282
6641.64606,0.04497
6643.57453,0.12303
6645.50300,0.15978
6647.43147,0.16106
6649.35994,0.18311
6651.28841,0.19648
6653.21687,0.17240
6655.14534,0.16153
6657.07381,0.15323
6659.00228,0.09666
6660.93075,0.07395
6662.85922,0.15455
6664.78769,0.24641
6666.71615,0.26100
6668.64462,0.21105
6670.57309,0.12796
6672.50156,0.10018
6674.43003,0.15690
6676.35850,0.13539
6678.28697,0.03454
6680.21544,0.02175
6682.14390,0.08370
6684.07237,0.09823
6686.00084,0.08946
6687.92931,0.10116
6689.85778,0.06136
6691.78625,-0.04130
6693.71472,-0.11525
6695.64318,-0.09301
6697.57165,-0.01454
6699.50012,-0.00256
6701.42859,-0.07535
6703.35706,-0.07698
6705.28553,0.05731
6707.21400,0.15957
6709.14247,0.15879
6711.07093,0.12412
6712.99940,0.11311
6714.92787,0.13059
6716.85634,0.13117
6718.78481,0.11442
6720.71328,0.09543
6722.64175,0.09195
6724.57021,0.11400
6726.49868,0.11508
6728.42715,0.07703
6730.35562,0.04713
6732.28409,0.05720
6734.21256,0.05931
6736.14103,0.03243
6738.06950,0.02925
6739.99796,0.07879
6741.92643,0.14023
6743.85490,0.15290
6745.78337,0.15076
6747.71184,0.14340
6749.64031,0.07460
6751.56878,0.02540
6753.49724,0.06287
6755.42571,0.11130
6757.35418,0.14199
6759.28265,0.12766
6761.21112,0.04850
6763.13959,-0.01687
6765.06806,-0.01992
6766.99653,0.06943
6768.92499,0.18936
6770.85346,0.21112
6772.78193,0.16891
6774.71040,0.13864
6776.63887,0.06194
6778.56734,-0.02758
6780.49581,-0.01740
6782.42427,0.05526
6784.35274,0.08901
6786.28121,0.09368
6788.20968,0.09942
6790.13815,0.08346
6792.06662,0.07010
6793.99509,0.08204
6795.92355,0.06949
6797.85202,0.04416
6799.78049,0.06703
6801.70896,0.13594
6803.63743,0.16452
6805.56590,0.09294
6807.49437,0.00078
6809.42284,-0.03722
6811.35130,-0.01559
6813.27977,-0.00457
6815.20824,-0.04220
6817.13671,-0.00610
6819.06518,0.07709
6820.99365,0.13680
6822.92212,0.26369
6824.85058,0.40978
6826.77905,0.43482
6828.70752,0.30023
6830.63599,0.09954
6832.56446,-0.00311
6834.49293,0.01767
6836.42140,0.09026
6838.34987,0.09196
6840.27833,0.01754
6842.20680,-0.03028
6844.13527,0.01316
6846.06374,0.11137
6847.99221,0.19584
6849.92068,0.20814
6851.84915,0.14423
6853.77761,0.07914
6855.70608,0.06001
6857.63455,0.09197
6859.56302,0.12261
6861.49149,0.09888
6863.41996,0.03697
6865.34843,-0.01737
6867.27690,-0.03089
6869.20536,-0.01485
6871.13383,0.00851
6873.06230,0.03939
6874.99077,0.03022
6876.91924,-0.02127
6878.84771,-0.03861
6880.77618,-0.01755
6882.70464,-0.01442
6884.63311,0.03436
6886.56158,0.11924
6888.49005,0.10689
6890.41852,0.02623
6892.34699,0.02746
6894.27546,0.11712
6896.20393,0.17802
6898.13239,0.13974
6900.06086,0.04691
6901.98933,-0.02981
6903.91780,-0.04582
6905.84627,-0.01027
6907.77474,0.00217
6909.70321,0.00404
6911.63167,0.04001
6913.56014,0.05857
6915.48861,0.02818
6917.41708,0.00524
6919.34555,-0.00102
6921.27402,-0.00011
6923.20249,0.04576
6925.13096,0.10329
6927.05942,0.08918
6928.98789,0.00772
6930.91636,-0.04375
6932.84483,-0.03227
6934.77330,-0.02945
6936.70177,-0.04016
6938.63024,-0.01641
6940.55870,0.04203
6942.48717,0.07472
6944.41564,0.10325
6946.34411,0.15611
6948.27258,0.15134
6950.20105,0.10634
6952.12952,0.13328
6954.05799,0.21361
6955.98645,0.22520
6957.91492,0.14486
6959.84339,0.08163
6961.77186,0.05292
6963.70033,0.03443
6965.62880,0.06385
6967.55727,0.15136
6969.48573,0.25769
6971.41420,0.29010
6973.34267,0.19838
6975.27114,0.09476
6977.19961,0.06678
6979.12808,0.07979
6981.05655,0.12269
6982.98501,0.18935
6984.91348,0.22125
6986.84195,0.17670
6988.77042,0.07439
6990.69889,-0.01770
6992.62736,-0.02705
6994.55583,0.02263
6996.48430,0.04581
6998.41276,0.03315
7000.34123,0.05889
7002.26970,0.08376
7004.19817,0.00246
7006.12664,-0.07058
7008.05511,0.01429
7009.98358,0.07429
7011.91204,0.02508
7013.84051,0.01967
7015.76898,0.08784
7017.69745,0.15669
7019.62592,0.20406
7021.55439,0.17299
7023.48286,0.09826
7025.41133,0.08256
7027.33979,0.09754
7029.26826,0.13512
7031.19673,0.21407
7033.12520,0.24022
7035.05367,0.15552
7036.98214,0.10146
7038.91061,0.11634
7040.83907,0.08273
7042.76754,0.02051
7044.69601,-0.01037
7046.62448,-0.04535
7048.55295,0.03594
7050.48142,0.24693
7052.40989,0.34356
7054.33836,0.21153
7056.26682,0.00002
7058.19529,-0.10122
7060.12376,-0.08139
7062.05223,-0.08627
7063.98070,-0.07796
7065.90917,0.02421
7067.83764,0.08978
7069.76610,0.03790
7071.69457,0.00232
7073.62304,0.01453
7075.55151,0.00552
7077.47998,0.04473
7079.40845,0.07330
7081.33692,0.00643
7083.26539,0.00240
7085.19385,0.06091
7087.12232,0.13918
7089.05079,0.21207
7090.97926,0.15554
7092.90773,0.02945
7094.83620,-0.00471
7096.76467,0.02716
7098.69313,0.02714
7100.62160,0.05065
7102.55007,0.09721
7104.47854,0.10568
7106.40701,0.11387
7108.33548,0.09753
7110.26395,0.05380
7112.19242,0.05410
7114.12088,0.13901
7116.04935,0.32536
7117.97782,0.46623
7119.90629,0.42406
7121.83476,0.34652
7123.76323,0.25988
7125.69170,0.16956
7127.62016,0.15364
7129.54863,0.15901
7131.47710,0.17106
7133.40557,0.20366
7135.33404,0.14223
7137.26251,0.05222
7139.19098,0.06715
7141.11944,0.06255
7143.04791,-0.03984
7144.97638,-0.11619
7146.90485,-0.07314
7148.83332,0.05835
7150.76179,0.13232
7152.69026,0.04298
7154.61873,-0.08404
7156.54719,-0.15952
7158.47566,-0.18788
7160.40413,-0.13291
7162.33260,-0.06314
7164.26107,0.02590
7166.18954,0.15146
7168.11801,0.18311
7170.04647,0.10916
7171.97494,0.10487
7173.90341,0.23906
7175.83188,0.27731
7177.76035,0.08821
7179.68882,-0.05663
7181.61729,-0.07575
7183.54576,-0.12154
7185.47422,-0.10539
7187.40269,0.01892
7189.33116,0.11326
7191.25963,0.13118
7193.18810,0.11105
7195.11657,0.09898
7197.04504,0.09322
7198.97350,0.08601
7200.90197,0.08539
7202.83044,0.05255
7204.75891,0.00821
7206.68738,-0.00397
7208.61585,-0.01794
7210.54432,0.00285
7212.47279,0.00708
7214.40125,-0.01606
7216.32972,0.07104
7218.25819,0.19704
7220.18666,0.20092
7222.11513,0.15280
7224.04360,0.08046
7225.97207,0.03240
7227.90053,0.06109
7229.82900,0.14409
7231.75747,0.21189
7233.68594,0.19345
7235.61441,0.14943
7237.54288,0.10614
7239.47135,0.06714
7241.39982,0.05228
7243.32828,0.05562
7245.25675,0.08377
7247.18522,0.12569
7249.11369,0.16520
7251.04216,0.24590
7252.97063,0.33017
7254.89910,0.21619
7256.82756,0.00809
7258.75603,-0.16783
7260.68450,-0.26563
7262.61297,-0.21522
7264.54144,-0.10024
7266.46991,-0.03911
7268.39838,0.07966
7270.32685,0.33740
7272.25531,0.39347
7274.18378,0.08655
7276.11225,-0.05931
7278.04072,0.03492
7279.96919,0.13652
7281.89766,0.08130
7283.82613,-0.02557
7285.75459,-0.06823
7287.68306,-0.04007
7289.61153,0.06759
7291.54000,0.22547
7293.46847,0.32509
7295.39694,0.27200
7297.32541,0.07075
7299.25387,-0.08075
7301.18234,-0.04386
7303.11081,0.05354
7305.03928,0.05255
7306.96775,0.04507
7308.89622,0.09039
7310.82469,0.14930
7312.75316,0.23060
7314.68162,0.16964
7316.61009,0.00197
7318.53856,0.01503
7320.46703,0.09808
7322.39550,0.11563
7324.32397,0.22391
7326.25244,0.36732
7328.18090,0.30336
7330.10937,0.05550
7332.03784,-0.04361
7333.96631,-0.04489
7335.89478,-0.07605
7337.82325,-0.04116
7339.75172,0.12610
7341.68019,0.24936
7343.60865,0.24520
7345.53712,0.09688
7347.46559,-0.00251
7349.39406,0.10295
7351.32253,0.18857
7353.25100,0.11454
7355.17947,-0.00649
7357.10793,-0.10636
7359.03640,-0.18699
7360.96487,-0.08038
7362.89334,0.16801
7364.82181,0.26185
7366.75028,0.24652
7368.67875,0.20415
7370.60722,0.09713
7372.53568,0.00129
7374.46415,0.02314
7376.39262,0.15520
7378.32109,0.17808
7380.24956,0.13418
7382.17803,0.18879
7384.10650,0.29207
7386.03496,0.24071
7387.96343,0.05440
7389.89190,-0.08043
7391.82037,-0.11375
7393.74884,-0.05375
7395.67731,0.06135
7397.60578,0.17606
7399.53425,0.28181
7401.46271,0.36203
7403.39118,0.36498
7405.31965,0.34697
7407.24812,0.41439
7409.17659,0.39814
7411.10506,0.14951
7413.03353,-0.10687
7414.96199,-0.14112
7416.89046,0.02335
7418.81893,0.24130
7420.74740,0.37198
7422.67587,0.34021
7424.60434,0.23453
7426.53281,0.18663
7428.46128,0.21261
7430.38974,0.24834
7432.31821,0.22734
7434.24668,0.12911
7436.17515,0.01197
7438.10362,0.00433
7440.03209,0.11519
7441.96056,0.21094
7443.88902,0.10883
7445.81749,-0.09297
7447.74596,-0.12640
7449.67443,0.02734
7451.60290,0.22186
7453.53137,0.26303
7455.45984,0.12061
7457.38831,-0.10512
7459.31677,-0.37254
7461.24524,-0.49093
7463.17371,-0.40991
7465.10218,-0.22449
7467.03065,0.06634
7468.95912,0.25604
7470.88759,0.18142
7472.81605,0.08930
7474.74452,0.17113
7476.67299,0.15524
7478.60146,-0.07495
7480.52993,-0.22007
7482.45840,-0.05201
7484.38687,0.15969
7486.31533,0.14414
7488.24380,-0.00185
7490.17227,-0.12083
7492.10074,-0.22814
7494.02921,-0.22737
7495.95768,-0.05104
7497.88615,0.14360
