399.19301,12.73478
401.12148,1.60214
403.04995,0.42758
404.97842,0.09196
406.90689,-0.00903
408.83536,0.01127
410.76382,0.10634
412.69229,0.11076
414.62076,-0.01969
416.54923,-0.18584
418.47770,-0.22405
420.40617,-0.07994
422.33464,0.09849
424.26311,0.23115
426.19157,0.23974
428.12004,0.15156
430.04851,0.02574
431.97698,-0.10034
433.90545,-0.15847
435.83392,-0.13943
437.76239,-0.07926
439.69085,-0.04485
441.61932,-0.08892
443.54779,-0.12794
445.47626,-0.11672
447.40473,-0.13179
449.33320,-0.10476
451.26167,0.02653
453.19013,0.15156
455.11860,0.18613
457.04707,0.12758
458.97554,0.08722
460.90401,0.16328
462.83248,0.19280
464.76095,0.11386
466.68942,0.06819
468.61788,0.08272
470.54635,0.09468
472.47482,-0.03487
474.40329,-0.30135
476.33176,-0.20085
478.26023,0.01531
480.18870,0.07171
482.11716,0.02657
484.04563,-0.01097
485.97410,0.00759
487.90257,0.07161
489.83104,0.15172
491.75951,0.19892
493.68798,0.19539
495.61645,0.17260
497.54491,0.14105
499.47338,0.14058
501.40185,0.17739
503.33032,0.17977
505.25879,0.14867
507.18726,0.13435
509.11573,0.13004
511.04419,0.12089
512.97266,0.12418
514.90113,0.13406
516.82960,0.10319
518.75807,0.04783
520.68654,0.04601
522.61501,0.08761
524.54348,0.12564
526.47194,0.14226
528.40041,0.12276
530.32888,0.07825
532.25735,0.05278
534.18582,0.06070
536.11429,0.07788
538.04276,0.09714
539.97122,0.11865
541.89969,0.12137
543.82816,0.09880
545.75663,0.07794
547.68510,0.07032
549.61357,0.06166
551.54204,0.04833
553.47051,0.06136
555.39897,0.10934
557.32744,0.13180
559.25591,0.11160
561.18438,0.09836
563.11285,0.09562
565.04132,0.08974
566.96979,0.11098
568.89825,0.16858
570.82672,0.19484
572.75519,0.15542
574.68366,0.10316
576.61213,0.08565
578.54060,0.10009
580.46907,0.11054
582.39754,0.09388
584.32600,0.07248
586.25447,0.05549
588.18294,0.04294
590.11141,0.05504
592.03988,0.09020
593.96835,0.11134
595.89682,0.09509
597.82528,0.07042
599.75375,0.07635
601.68222,0.10617
603.61069,0.12666
605.53916,0.12052
607.46763,0.11285
609.39610,0.12072
611.32456,0.11881
613.25303,0.11329
615.18150,0.12858
617.10997,0.13799
619.03844,0.11933
620.96691,0.10597
622.89538,0.11886
624.82385,0.13216
626.75231,0.12476
628.68078,0.10627
630.60925,0.08976
632.53772,0.07594
634.46619,0.07993
636.39466,0.10238
638.32313,0.11967
640.25159,0.12812
642.18006,0.13224
644.10853,0.13712
646.03700,0.14244
647.96547,0.12953
649.89394,0.10327
651.82241,0.09803
653.75088,0.11196
655.67934,0.11303
657.60781,0.09337
659.53628,0.07650
661.46475,0.08630
663.39322,0.10782
665.32169,0.11154
667.25016,0.10329
669.17862,0.11401
671.10709,0.12218
673.03556,0.12196
674.96403,0.13063
676.89250,0.13349
678.82097,0.12732
680.74944,0.13034
682.67791,0.13355
684.60637,0.12847
686.53484,0.12526
688.46331,0.12598
690.39178,0.12925
692.32025,0.13390
694.24872,0.13054
696.17719,0.12347
698.10565,0.12584
700.03412,0.12597
701.96259,0.11690
703.89106,0.11832
705.81953,0.13376
707.74800,0.14201
709.67647,0.14320
711.60494,0.15176
713.53340,0.15369
715.46187,0.14295
717.39034,0.13765
719.31881,0.13807
721.24728,0.13509
723.17575,0.12758
725.10422,0.12627
727.03268,0.13347
728.96115,0.12915
730.88962,0.11431
732.81809,0.11290
734.74656,0.12528
736.67503,0.13419
738.60350,0.13080
740.53197,0.12002
742.46043,0.11357
744.38890,0.11102
746.31737,0.11596
748.24584,0.13158
750.17431,0.14081
752.10278,0.13586
754.03125,0.12796
755.95971,0.12611
757.88818,0.12464
759.81665,0.11784
761.74512,0.11558
763.67359,0.12385
765.60206,0.13124
767.53053,0.13341
769.45900,0.13471
771.38746,0.13258
773.31593,0.13075
775.24440,0.13566
777.17287,0.14707
779.10134,0.15334
781.02981,0.14294
782.95828,0.12643
784.88674,0.12001
786.81521,0.12384
788.74368,0.15807
790.67215,0.23029
792.60062,0.24977
794.52909,0.18122
796.45756,0.13330
798.38602,0.14212
800.31449,0.15734
802.24296,0.15928
804.17143,0.15458
806.09990,0.14595
808.02837,0.13335
809.95684,0.12679
811.88531,0.13126
813.81377,0.14247
815.74224,0.15386
817.67071,0.15842
819.59918,0.14968
821.52765,0.13410
823.45612,0.12454
825.38459,0.12159
827.31305,0.11931
829.24152,0.12177
831.16999,0.13435
833.09846,0.14132
835.02693,0.13761
836.95540,0.13855
838.88387,0.14248
840.81234,0.14394
842.74080,0.14215
844.66927,0.13257
846.59774,0.12664
848.52621,0.13454
850.45468,0.14212
852.38315,0.14397
854.31162,0.14481
856.24008,0.14128
858.16855,0.13288
860.09702,0.12246
862.02549,0.11869
863.95396,0.12649
865.88243,0.13156
867.81090,0.12483
869.73937,0.11682
871.66783,0.11904
873.59630,0.12935
875.52477,0.13660
877.45324,0.13835
879.38171,0.13300
881.31018,0.12163
883.23865,0.12013
885.16711,0.13053
887.09558,0.13719
889.02405,0.13109
890.95252,0.12286
892.88099,0.12685
894.80946,0.13515
896.73793,0.13878
898.66640,0.13778
900.59486,0.13119
902.52333,0.12918
904.45180,0.13660
906.38027,0.13801
908.30874,0.12930
910.23721,0.12546
912.16568,0.13202
914.09414,0.14193
916.02261,0.14955
917.95108,0.15115
919.87955,0.14408
921.80802,0.13102
923.73649,0.12363
925.66496,0.12618
927.59343,0.12741
929.52189,0.12599
931.45036,0.12919
933.37883,0.13478
935.30730,0.14073
937.23577,0.14578
939.16424,0.14305
941.09271,0.13065
943.02117,0.11754
944.94964,0.11459
946.87811,0.12220
948.80658,0.12921
950.73505,0.12972
952.66352,0.12956
954.59199,0.13443
956.52045,0.13870
958.44892,0.13611
960.37739,0.13488
962.30586,0.13905
964.23433,0.14250
966.16280,0.14491
968.09127,0.14794
970.01974,0.14813
971.94820,0.14130
973.87667,0.13393
975.80514,0.13395
977.73361,0.13585
979.66208,0.13477
981.59055,0.13491
983.51902,0.13990
985.44748,0.14608
987.37595,0.15012
989.30442,0.15458
991.23289,0.15993
993.16136,0.16225
995.08983,0.15940
997.01830,0.15351
998.94677,0.14476
1000.87523,0.13480
1002.80370,0.13345
1004.73217,0.14027
1006.66064,0.13810
1008.58911,0.12759
1010.51758,0.12756
1012.44605,0.13490
1014.37451,0.13998
1016.30298,0.14451
1018.23145,0.14644
1020.15992,0.14827
1022.08839,0.15015
1024.01686,0.14812
1025.94533,0.14685
1027.87380,0.14608
1029.80226,0.13986
1031.73073,0.13221
1033.65920,0.13103
1035.58767,0.13460
1037.51614,0.14068
1039.44461,0.15097
1041.37308,0.15835
1043.30154,0.15402
1045.23001,0.14415
1047.15848,0.13821
1049.08695,0.13758
1051.01542,0.14408
1052.94389,0.15381
1054.87236,0.15485
1056.80083,0.14994
1058.72929,0.15137
1060.65776,0.15519
1062.58623,0.15378
1064.51470,0.15109
1066.44317,0.15294
1068.37164,0.16281
1070.30011,0.17246
1072.22857,0.17029
1074.15704,0.16297
1076.08551,0.15854
1078.01398,0.15711
1079.94245,0.16110
1081.87092,0.16590
1083.79939,0.16195
1085.72786,0.15073
1087.65632,0.14394
1089.58479,0.14795
1091.51326,0.15658
1093.44173,0.16202
1095.37020,0.16271
1097.29867,0.16221
1099.22714,0.16596
1101.15560,0.17039
1103.08407,0.16827
1105.01254,0.16466
1106.94101,0.16416
1108.86948,0.16121
1110.79795,0.15383
1112.72642,0.14734
1114.65489,0.14760
1116.58335,0.15418
1118.51182,0.16113
1120.44029,0.16098
1122.36876,0.15418
1124.29723,0.15202
1126.22570,0.15442
1128.15417,0.15162
1130.08263,0.14476
1132.01110,0.14131
1133.93957,0.14305
1135.86804,0.14326
1137.79651,0.13902
1139.72498,0.13829
1141.65345,0.14394
1143.58191,0.14732
1145.51038,0.14494
1147.43885,0.14155
1149.36732,0.14106
1151.29579,0.14517
1153.22426,0.15001
1155.15273,0.15182
1157.08120,0.15185
1159.00966,0.15149
1160.93813,0.15380
1162.86660,0.15921
1164.79507,0.16223
1166.72354,0.16073
1168.65201,0.15652
1170.58048,0.15140
1172.50894,0.14924
1174.43741,0.15108
1176.36588,0.15298
1178.29435,0.15296
1180.22282,0.15164
1182.15129,0.15165
1184.07976,0.15747
1186.00823,0.16806
1187.93669,0.17360
1189.86516,0.16666
1191.79363,0.15614
1193.72210,0.15673
1195.65057,0.16374
1197.57904,0.16400
1199.50751,0.16094
1201.43597,0.16153
1203.36444,0.16329
1205.29291,0.16368
1207.22138,0.16098
1209.14985,0.15596
1211.07832,0.15361
1213.00679,0.15522
1214.93526,0.15682
1216.86372,0.15555
1218.79219,0.15386
1220.72066,0.15478
1222.64913,0.15666
1224.57760,0.15653
1226.50607,0.15560
1228.43454,0.15761
1230.36300,0.16054
1232.29147,0.15799
1234.21994,0.15017
1236.14841,0.14510
1238.07688,0.14737
1240.00535,0.15295
1241.93382,0.15555
1243.86229,0.15351
1245.79075,0.14929
1247.71922,0.14568
1249.64769,0.14584
1251.57616,0.15054
1253.50463,0.15524
1255.43310,0.15629
1257.36157,0.15430
1259.29003,0.15174
1261.21850,0.15209
1263.14697,0.15401
1265.07544,0.15443
1267.00391,0.15672
1268.93238,0.16074
1270.86085,0.16363
1272.78932,0.16494
1274.71778,0.16252
1276.64625,0.15881
1278.57472,0.15792
1280.50319,0.15831
1282.43166,0.15922
1284.36013,0.16163
1286.28860,0.16273
1288.21706,0.16205
1290.14553,0.16154
1292.07400,0.15864
1294.00247,0.15320
1295.93094,0.15035
1297.85941,0.15121
1299.78788,0.14793
1301.71634,0.13575
1303.64481,0.12231
1305.57328,0.12200
1307.50175,0.13801
1309.43022,0.15151
1311.35869,0.15321
1313.28716,0.15247
1315.21563,0.15240
1317.14409,0.15379
1319.07256,0.15859
1321.00103,0.16394
1322.92950,0.16462
1324.85797,0.15806
1326.78644,0.15162
1328.71491,0.15080
1330.64337,0.14810
1332.57184,0.14475
1334.50031,0.14720
1336.42878,0.14960
1338.35725,0.14905
1340.28572,0.14608
1342.21419,0.14517
1344.14266,0.15143
1346.07112,0.15501
1347.99959,0.15013
1349.92806,0.14621
1351.85653,0.14806
1353.78500,0.15025
1355.71347,0.15010
1357.64194,0.15119
1359.57040,0.15368
1361.49887,0.15512
1363.42734,0.15676
1365.35581,0.15808
1367.28428,0.15735
1369.21275,0.15836
1371.14122,0.16330
1373.06969,0.16729
1374.99815,0.16572
1376.92662,0.16042
1378.85509,0.15772
1380.78356,0.16059
1382.71203,0.16467
1384.64050,0.16726
1386.56897,0.16975
1388.49743,0.16972
1390.42590,0.16820
1392.35437,0.16814
1394.28284,0.16893
1396.21131,0.17146
1398.13978,0.17232
1400.06825,0.16768
1401.99672,0.16500
1403.92518,0.16796
1405.85365,0.16947
1407.78212,0.16775
1409.71059,0.16885
1411.63906,0.17118
1413.56753,0.17005
1415.49600,0.16665
1417.42446,0.16415
1419.35293,0.16539
1421.28140,0.16944
1423.20987,0.17229
1425.13834,0.17248
1427.06681,0.17139
1428.99528,0.17029
1430.92375,0.16815
1432.85221,0.16695
1434.78068,0.16891
1436.70915,0.17137
1438.63762,0.17049
1440.56609,0.16867
1442.49456,0.16873
1444.42303,0.17000
1446.35149,0.16873
1448.27996,0.16326
1450.20843,0.15999
1452.13690,0.16433
1454.06537,0.17323
1455.99384,0.18224
1457.92231,0.18339
1459.85077,0.17710
1461.77924,0.17484
1463.70771,0.17622
1465.63618,0.17680
1467.56465,0.17730
1469.49312,0.18016
1471.42159,0.18319
1473.35006,0.18213
1475.27852,0.17827
1477.20699,0.17755
1479.13546,0.17914
1481.06393,0.17798
1482.99240,0.17542
1484.92087,0.17616
1486.84934,0.17776
1488.77780,0.17499
1490.70627,0.17004
1492.63474,0.16858
1494.56321,0.16876
1496.49168,0.17017
1498.42015,0.17302
1500.34862,0.17423
1502.27709,0.17579
1504.20555,0.17820
1506.13402,0.17886
1508.06249,0.17908
1509.99096,0.17770
1511.91943,0.17618
1513.84790,0.17894
1515.77637,0.18334
1517.70483,0.18464
1519.63330,0.18562
1521.56177,0.18677
1523.49024,0.18497
1525.41871,0.18276
1527.34718,0.17924
1529.27565,0.17515
1531.20412,0.17588
1533.13258,0.18296
1535.06105,0.18583
1536.98952,0.18193
1538.91799,0.18199
1540.84646,0.19172
1542.77493,0.19237
1544.70340,0.18288
1546.63186,0.17415
1548.56033,0.17089
1550.48880,0.17151
1552.41727,0.17066
1554.34574,0.16747
1556.27421,0.16570
1558.20268,0.17083
1560.13115,0.18109
1562.05961,0.18148
1563.98808,0.17802
1565.91655,0.17507
1567.84502,0.17538
1569.77349,0.17649
1571.70196,0.17709
1573.63043,0.18036
1575.55889,0.18099
1577.48736,0.17244
1579.41583,0.16750
1581.34430,0.16972
1583.27277,0.17403
1585.20124,0.17686
1587.12971,0.17616
1589.05818,0.17332
1590.98664,0.17101
1592.91511,0.17013
1594.84358,0.17130
1596.77205,0.17190
1598.70052,0.17079
1600.62899,0.17041
1602.55746,0.17118
1604.48592,0.17206
1606.41439,0.17150
1608.34286,0.17043
1610.27133,0.17254
1612.19980,0.17770
1614.12827,0.18189
1616.05674,0.18151
1617.98521,0.17840
1619.91367,0.17875
1621.84214,0.18073
1623.77061,0.18084
1625.69908,0.18060
1627.62755,0.18124
1629.55602,0.17990
1631.48449,0.17852
1633.41295,0.18076
1635.34142,0.18567
1637.26989,0.18660
1639.19836,0.18315
1641.12683,0.17885
1643.05530,0.17712
1644.98377,0.18159
1646.91223,0.19135
1648.84070,0.19400
1650.76917,0.19085
1652.69764,0.19080
1654.62611,0.18980
1656.55458,0.18396
1658.48305,0.17958
1660.41152,0.17784
1662.33998,0.17865
1664.26845,0.17984
1666.19692,0.18154
1668.12539,0.18653
1670.05386,0.19292
1671.98233,0.19470
1673.91080,0.19157
1675.83926,0.18526
1677.76773,0.18065
1679.69620,0.17995
1681.62467,0.18458
1683.55314,0.19495
1685.48161,0.19854
1687.41008,0.19504
1689.33855,0.19289
1691.26701,0.19095
1693.19548,0.19138
1695.12395,0.19658
1697.05242,0.19963
1698.98089,0.19632
1700.90936,0.19213
1702.83783,0.18802
1704.76629,0.18433
1706.69476,0.18229
1708.62323,0.18119
1710.55170,0.18045
1712.48017,0.17991
1714.40864,0.17923
1716.33711,0.18196
1718.26558,0.18490
1720.19404,0.18130
1722.12251,0.17778
1724.05098,0.17497
1725.97945,0.17292
1727.90792,0.17580
1729.83639,0.18208
1731.76486,0.18358
1733.69332,0.17785
1735.62179,0.17483
1737.55026,0.17748
1739.47873,0.17969
1741.40720,0.17680
1743.33567,0.17214
1745.26414,0.17212
1747.19261,0.17621
1749.12107,0.18236
1751.04954,0.18642
1752.97801,0.18427
1754.90648,0.18062
1756.83495,0.17888
1758.76342,0.17897
1760.69189,0.17897
1762.62035,0.17587
1764.54882,0.17155
1766.47729,0.17043
1768.40576,0.17394
1770.33423,0.18029
1772.26270,0.18465
1774.19117,0.18457
1776.11964,0.18331
1778.04810,0.18207
1779.97657,0.18094
1781.90504,0.17998
1783.83351,0.17787
1785.76198,0.17421
1787.69045,0.17206
1789.61892,0.17339
1791.54738,0.17638
1793.47585,0.17753
1795.40432,0.17575
1797.33279,0.17305
1799.26126,0.17184
1801.18973,0.17187
1803.11820,0.17276
1805.04666,0.17512
1806.97513,0.17631
1808.90360,0.17569
1810.83207,0.17524
1812.76054,0.17470
1814.68901,0.17395
1816.61748,0.17394
1818.54595,0.17564
1820.47441,0.17799
1822.40288,0.17961
1824.33135,0.17979
1826.25982,0.17799
1828.18829,0.17653
1830.11676,0.17616
1832.04523,0.17512
1833.97369,0.17481
1835.90216,0.17641
1837.83063,0.17706
1839.75910,0.17461
1841.68757,0.17184
1843.61604,0.17322
1845.54451,0.17737
1847.47298,0.17809
1849.40144,0.17688
1851.32991,0.17695
1853.25838,0.17888
1855.18685,0.18014
1857.11532,0.17764
1859.04379,0.17282
1860.97226,0.17113
1862.90072,0.17519
1864.82919,0.17994
1866.75766,0.18150
1868.68613,0.18054
1870.61460,0.17716
1872.54307,0.17478
1874.47154,0.17604
1876.40001,0.17797
1878.32847,0.17701
1880.25694,0.17506
1882.18541,0.17473
1884.11388,0.17482
1886.04235,0.17481
1887.97082,0.17534
1889.89929,0.17658
1891.82775,0.17842
1893.75622,0.17967
1895.68469,0.17980
1897.61316,0.17930
1899.54163,0.17726
1901.47010,0.17413
1903.39857,0.17372
1905.32704,0.17639
1907.25550,0.17889
1909.18397,0.18007
1911.11244,0.17943
1913.04091,0.17762
1914.96938,0.17664
1916.89785,0.17678
1918.82632,0.17683
1920.75478,0.17706
1922.68325,0.17901
1924.61172,0.17974
1926.54019,0.17704
1928.46866,0.17471
1930.39713,0.17440
1932.32560,0.17505
1934.25407,0.17691
1936.18253,0.17857
1938.11100,0.17912
1940.03947,0.18123
1941.96794,0.18460
1943.89641,0.18548
1945.82488,0.18400
1947.75335,0.18116
1949.68181,0.17903
1951.61028,0.17978
1953.53875,0.18002
1955.46722,0.17850
1957.39569,0.17858
1959.32416,0.18035
1961.25263,0.18196
1963.18110,0.18234
1965.10956,0.18107
1967.03803,0.17891
1968.96650,0.17718
1970.89497,0.17666
1972.82344,0.17733
1974.75191,0.17891
1976.68038,0.17666
1978.60884,0.16896
1980.53731,0.16775
1982.46578,0.17483
1984.39425,0.17819
1986.32272,0.17795
1988.25119,0.17786
1990.17966,0.17646
1992.10812,0.17536
1994.03659,0.17644
1995.96506,0.17792
1997.89353,0.17788
1999.82200,0.17676
2001.75047,0.17626
2003.67894,0.17693
2005.60741,0.17703
2007.53587,0.17624
2009.46434,0.17682
2011.39281,0.17918
2013.32128,0.18135
2015.24975,0.18186
2017.17822,0.18107
2019.10669,0.17952
2021.03515,0.17780
2022.96362,0.17680
2024.89209,0.17680
2026.82056,0.17764
2028.74903,0.17777
2030.67750,0.17692
2032.60597,0.17852
2034.53444,0.18223
2036.46290,0.18328
2038.39137,0.18173
2040.31984,0.18017
2042.24831,0.17999
2044.17678,0.18189
2046.10525,0.18441
2048.03372,0.18639
2049.96218,0.18765
2051.89065,0.18721
2053.81912,0.18361
2055.74759,0.17767
2057.67606,0.17346
2059.60453,0.17302
2061.53300,0.17461
2063.46147,0.17657
2065.38993,0.17799
2067.31840,0.17832
2069.24687,0.17774
2071.17534,0.17755
2073.10381,0.17872
2075.03228,0.18006
2076.96075,0.18072
2078.88921,0.18080
2080.81768,0.18070
2082.74615,0.18197
2084.67462,0.18421
2086.60309,0.18449
2088.53156,0.18267
2090.46003,0.18088
2092.38850,0.17943
2094.31696,0.17831
2096.24543,0.17820
2098.17390,0.18004
2100.10237,0.18272
2102.03084,0.18240
2103.95931,0.17913
2105.88778,0.17726
2107.81624,0.17819
2109.74471,0.17921
2111.67318,0.17842
2113.60165,0.17695
2115.53012,0.17618
2117.45859,0.17627
2119.38706,0.17708
2121.31553,0.17889
2123.24399,0.18093
2125.17246,0.18232
2127.10093,0.18351
2129.02940,0.18321
2130.95787,0.18018
2132.88634,0.17692
2134.81481,0.17690
2136.74327,0.18030
2138.67174,0.18364
2140.60021,0.18345
2142.52868,0.18059
2144.45715,0.17989
2146.38562,0.18171
2148.31409,0.18235
2150.24255,0.18240
2152.17102,0.18248
2154.09949,0.18069
2156.02796,0.17739
2157.95643,0.17385
2159.88490,0.17208
2161.81337,0.17486
2163.74184,0.17929
2165.67030,0.18064
2167.59877,0.18113
2169.52724,0.18347
2171.45571,0.18465
2173.38418,0.18236
2175.31265,0.17938
2177.24112,0.17868
2179.16958,0.18020
2181.09805,0.18016
2183.02652,0.17686
2184.95499,0.17585
2186.88346,0.17857
2188.81193,0.17895
2190.74040,0.17686
2192.66887,0.17746
2194.59733,0.17880
2196.52580,0.17831
2198.45427,0.17886
2200.38274,0.18029
2202.31121,0.18009
2204.23968,0.17829
2206.16815,0.17673
2208.09661,0.17518
2210.02508,0.17255
2211.95355,0.17224
2213.88202,0.17613
2215.81049,0.17975
2217.73896,0.17997
2219.66743,0.17891
2221.59590,0.17849
2223.52436,0.17890
2225.45283,0.17987
2227.38130,0.17977
2229.30977,0.17939
2231.23824,0.18070
2233.16671,0.18131
2235.09518,0.18021
2237.02364,0.17886
2238.95211,0.17692
2240.88058,0.17613
2242.80905,0.17775
2244.73752,0.17891
2246.66599,0.17782
2248.59446,0.17576
2250.52293,0.17441
2252.45139,0.17410
2254.37986,0.17428
2256.30833,0.17566
2258.23680,0.17849
2260.16527,0.17945
2262.09374,0.17770
2264.02221,0.17650
2265.95067,0.17668
2267.87914,0.17748
2269.80761,0.17761
2271.73608,0.17589
2273.66455,0.17462
2275.59302,0.17565
2277.52149,0.17743
2279.44996,0.17848
2281.37842,0.17771
2283.30689,0.17559
2285.23536,0.17449
2287.16383,0.17405
2289.09230,0.17288
2291.02077,0.17100
2292.94924,0.16899
2294.87770,0.16786
2296.80617,0.16827
2298.73464,0.16965
2300.66311,0.16799
2302.59158,0.16108
2304.52005,0.15226
2306.44852,0.14581
2308.37699,0.14586
2310.30545,0.14941
2312.23392,0.14803
2314.16239,0.14357
2316.09086,0.13923
2318.01933,0.13093
2319.94780,0.12167
2321.87627,0.11555
2323.80473,0.10924
2325.73320,0.10581
2327.66167,0.10421
2329.59014,0.09487
2331.51861,0.08481
2333.44708,0.09028
2335.37555,0.10661
2337.30401,0.11451
2339.23248,0.10409
2341.16095,0.08414
2343.08942,0.07064
2345.01789,0.08162
2346.94636,0.11118
2348.87483,0.13269
2350.80330,0.13588
2352.73176,0.12231
2354.66023,0.10657
2356.58870,0.09617
2358.51717,0.08162
2360.44564,0.06812
2362.37411,0.06065
2364.30258,0.06998
2366.23104,0.09374
2368.15951,0.10760
2370.08798,0.11233
2372.01645,0.11885
2373.94492,0.12687
2375.87339,0.13387
2377.80186,0.14252
2379.73033,0.15531
2381.65879,0.16743
2383.58726,0.17503
2385.51573,0.17893
2387.44420,0.18048
2389.37267,0.18145
2391.30114,0.18265
2393.22961,0.18245
2395.15807,0.18037
2397.08654,0.17903
2399.01501,0.17953
2400.94348,0.17971
2402.87195,0.17961
2404.80042,0.18113
2406.72889,0.18262
2408.65736,0.18305
2410.58582,0.18402
2412.51429,0.18402
2414.44276,0.18159
2416.37123,0.17822
2418.29970,0.17682
2420.22817,0.17951
2422.15664,0.18337
2424.08510,0.18340
2426.01357,0.18078
2427.94204,0.18059
2429.87051,0.18070
2431.79898,0.17884
2433.72745,0.17948
2435.65592,0.18211
2437.58439,0.18264
2439.51285,0.18014
2441.44132,0.17643
2443.36979,0.17556
2445.29826,0.17863
2447.22673,0.18219
2449.15520,0.18336
2451.08367,0.18068
2453.01213,0.17457
2454.94060,0.17055
2456.86907,0.17226
2458.79754,0.17629
2460.72601,0.17907
2462.65448,0.18053
2464.58295,0.18140
2466.51142,0.18272
2468.43988,0.18358
2470.36835,0.18121
2472.29682,0.17849
2474.22529,0.17997
2476.15376,0.18263
2478.08223,0.18228
2480.01070,0.18028
2481.93916,0.17895
2483.86763,0.17932
2485.79610,0.18123
2487.72457,0.18176
2489.65304,0.18077
2491.58151,0.18043
2493.50998,0.18032
2495.43844,0.18049
2497.36691,0.18008
2499.29538,0.17863
2501.22385,0.17858
2503.15232,0.17972
2505.08079,0.18072
2507.00926,0.18141
2508.93773,0.18058
2510.86619,0.17961
2512.79466,0.18107
2514.72313,0.18327
2516.65160,0.18257
2518.58007,0.17850
2520.50854,0.17567
2522.43701,0.17819
2524.36547,0.18353
2526.29394,0.18616
2528.22241,0.18495
2530.15088,0.18321
2532.07935,0.18232
2534.00782,0.18239
2535.93629,0.18387
2537.86476,0.18400
2539.79322,0.18206
2541.72169,0.18121
2543.65016,0.18204
2545.57863,0.18241
2547.50710,0.18101
2549.43557,0.17991
2551.36404,0.17989
2553.29250,0.17944
2555.22097,0.17991
2557.14944,0.18184
2559.07791,0.18343
2561.00638,0.18390
2562.93485,0.18466
2564.86332,0.18619
2566.79179,0.18680
2568.72025,0.18702
2570.64872,0.18755
2572.57719,0.18731
2574.50566,0.18602
2576.43413,0.18321
2578.36260,0.17967
2580.29107,0.17800
2582.21953,0.17916
2584.14800,0.18149
2586.07647,0.18182
2588.00494,0.18093
2589.93341,0.18207
2591.86188,0.18423
2593.79035,0.18569
2595.71882,0.18494
2597.64728,0.18222
2599.57575,0.18084
2601.50422,0.18079
2603.43269,0.18163
2605.36116,0.18523
2607.28963,0.18752
2609.21810,0.18284
2611.14656,0.17666
2613.07503,0.17662
2615.00350,0.18142
2616.93197,0.18645
2618.86044,0.18806
2620.78891,0.18617
2622.71738,0.18371
2624.64585,0.18316
2626.57431,0.18350
2628.50278,0.18308
2630.43125,0.18456
2632.35972,0.18787
2634.28819,0.19017
2636.21666,0.19217
2638.14513,0.19185
2640.07359,0.18729
2642.00206,0.18447
2643.93053,0.18710
2645.85900,0.19183
2647.78747,0.19590
2649.71594,0.19702
2651.64441,0.19339
2653.57288,0.18760
2655.50134,0.18369
2657.42981,0.18317
2659.35828,0.18481
2661.28675,0.18541
2663.21522,0.18371
2665.14369,0.18247
2667.07216,0.18394
2669.00062,0.18657
2670.92909,0.18890
2672.85756,0.19242
2674.78603,0.19568
2676.71450,0.19438
2678.64297,0.18964
2680.57144,0.18598
2682.49990,0.18565
2684.42837,0.18843
2686.35684,0.19157
2688.28531,0.19227
2690.21378,0.19143
2692.14225,0.19033
2694.07072,0.18839
2695.99919,0.18689
2697.92765,0.18715
2699.85612,0.18744
2701.78459,0.18694
2703.71306,0.18714
2705.64153,0.18841
2707.57000,0.18943
2709.49847,0.18951
2711.42693,0.18868
2713.35540,0.18771
2715.28387,0.18851
2717.21234,0.19136
2719.14081,0.19293
2721.06928,0.19152
2722.99775,0.19031
2724.92622,0.19081
2726.85468,0.19236
2728.78315,0.19435
2730.71162,0.19345
2732.64009,0.18863
2734.56856,0.18438
2736.49703,0.18469
2738.42550,0.18713
2740.35396,0.18798
2742.28243,0.18938
2744.21090,0.19315
2746.13937,0.19612
2748.06784,0.19519
2749.99631,0.19285
2751.92478,0.19207
2753.85325,0.19084
2755.78171,0.19000
2757.71018,0.19109
2759.63865,0.19043
2761.56712,0.18934
2763.49559,0.19299
2765.42406,0.19792
2767.35253,0.19739
2769.28099,0.19233
2771.20946,0.18926
2773.13793,0.19109
2775.06640,0.19458
2776.99487,0.19609
2778.92334,0.19601
2780.85181,0.19733
2782.78028,0.19891
2784.70874,0.19755
2786.63721,0.19453
2788.56568,0.19249
2790.49415,0.19321
2792.42262,0.19607
2794.35109,0.19835
2796.27956,0.20001
2798.20802,0.20089
2800.13649,0.19846
2802.06496,0.19476
2803.99343,0.19409
2805.92190,0.19494
2807.85037,0.19433
2809.77884,0.19448
2811.70731,0.19807
2813.63577,0.20112
2815.56424,0.20091
2817.49271,0.20043
2819.42118,0.19916
2821.34965,0.19587
2823.27812,0.19459
2825.20659,0.19761
2827.13505,0.20174
2829.06352,0.20326
2830.99199,0.20117
2832.92046,0.19860
2834.84893,0.19880
2836.77740,0.19885
2838.70587,0.19698
2840.63433,0.19639
2842.56280,0.19681
2844.49127,0.19647
2846.41974,0.19650
2848.34821,0.19784
2850.27668,0.19929
2852.20515,0.19802
2854.13362,0.19475
2856.06208,0.19424
2857.99055,0.19759
2859.91902,0.20104
2861.84749,0.20084
2863.77596,0.19713
2865.70443,0.19343
2867.63290,0.19335
2869.56136,0.19727
2871.48983,0.20161
2873.41830,0.20047
2875.34677,0.19384
2877.27524,0.19187
2879.20371,0.19592
2881.13218,0.19628
2883.06065,0.19341
2884.98911,0.19256
2886.91758,0.19328
2888.84605,0.19271
2890.77452,0.18963
2892.70299,0.18665
2894.63146,0.18602
2896.55993,0.18913
2898.48839,0.19433
2900.41686,0.19688
2902.34533,0.19499
2904.27380,0.19022
2906.20227,0.18808
2908.13074,0.19031
2910.05921,0.19234
2911.98768,0.19333
2913.91614,0.19242
2915.84461,0.18892
2917.77308,0.18868
2919.70155,0.19342
2921.63002,0.19795
2923.55849,0.19827
2925.48696,0.19147
2927.41542,0.18368
2929.34389,0.18459
2931.27236,0.19120
2933.20083,0.19551
2935.12930,0.19085
2937.05777,0.18147
2938.98624,0.18153
2940.91471,0.18811
2942.84317,0.19076
2944.77164,0.18856
2946.70011,0.18368
2948.62858,0.18480
2950.55705,0.19379
2952.48552,0.20020
2954.41399,0.19782
2956.34245,0.18682
2958.27092,0.17905
2960.19939,0.18367
2962.12786,0.19242
2964.05633,0.19654
2965.98480,0.19169
2967.91327,0.18488
2969.84174,0.18953
2971.77020,0.19982
2973.69867,0.20336
2975.62714,0.19855
2977.55561,0.18999
2979.48408,0.18724
2981.41255,0.19154
2983.34102,0.19576
2985.26948,0.19727
2987.19795,0.19409
2989.12642,0.19120
2991.05489,0.19420
2992.98336,0.19642
2994.91183,0.19555
2996.84030,0.19581
2998.76877,0.19828
3000.69723,0.20247
3002.62570,0.20540
3004.55417,0.20457
3006.48264,0.20120
3008.41111,0.19523
3010.33958,0.18228
3012.26805,0.15860
3014.19651,0.12574
3016.12498,0.10091
3018.05345,0.11308
3019.98192,0.15498
3021.91039,0.18675
3023.83886,0.19813
3025.76733,0.19885
3027.69579,0.19351
3029.62426,0.19139
3031.55273,0.19695
3033.48120,0.20384
3035.40967,0.20430
3037.33814,0.19993
3039.26661,0.20256
3041.19508,0.21259
3043.12354,0.21474
3045.05201,0.20415
3046.98048,0.19234
3048.90895,0.18815
3050.83742,0.18905
3052.76589,0.19108
3054.69436,0.19151
3056.62282,0.18682
3058.55129,0.18378
3060.47976,0.18889
3062.40823,0.19436
3064.33670,0.19091
3066.26517,0.18183
3068.19364,0.18150
3070.12211,0.18989
3072.05057,0.19618
3073.97904,0.19612
3075.90751,0.19135
3077.83598,0.19224
3079.76445,0.19857
3081.69292,0.19859
3083.62139,0.18889
3085.54985,0.17983
3087.47832,0.18430
3089.40679,0.19446
3091.33526,0.19584
3093.26373,0.18711
3095.19220,0.18128
3097.12067,0.18857
3099.04914,0.19702
3100.97760,0.19452
3102.90607,0.18480
3104.83454,0.18245
3106.76301,0.19186
3108.69148,0.19914
3110.61995,0.19428
3112.54842,0.18314
3114.47688,0.17992
3116.40535,0.18410
3118.33382,0.18524
3120.26229,0.18234
3122.19076,0.17973
3124.11923,0.18161
3126.04770,0.18613
3127.97617,0.18933
3129.90463,0.19221
3131.83310,0.19812
3133.76157,0.20455
3135.69004,0.20469
3137.61851,0.19902
3139.54698,0.19148
3141.47545,0.18661
3143.40391,0.18905
3145.33238,0.19690
3147.26085,0.20201
3149.18932,0.19981
3151.11779,0.19826
3153.04626,0.20119
3154.97473,0.20060
3156.90320,0.19789
3158.83166,0.20065
3160.76013,0.20604
3162.68860,0.20647
3164.61707,0.20402
3166.54554,0.20812
3168.47401,0.21666
3170.40248,0.21789
3172.33094,0.21028
3174.25941,0.20542
3176.18788,0.20852
3178.11635,0.21023
3180.04482,0.20918
3181.97329,0.21214
3183.90176,0.21385
3185.83022,0.20788
3187.75869,0.20005
3189.68716,0.19666
3191.61563,0.19727
3193.54410,0.20039
3195.47257,0.20426
3197.40104,0.20648
3199.32951,0.20579
3201.25797,0.20325
3203.18644,0.20198
3205.11491,0.20224
3207.04338,0.20148
3208.97185,0.19977
3210.90032,0.20021
3212.82879,0.20576
3214.75725,0.21265
3216.68572,0.21320
3218.61419,0.20980
3220.54266,0.20737
3222.47113,0.20465
3224.39960,0.20407
3226.32807,0.20648
3228.25654,0.20372
3230.18500,0.19401
3232.11347,0.18855
3234.04194,0.19199
3235.97041,0.19695
3237.89888,0.20154
3239.82735,0.20602
3241.75582,0.20455
3243.68428,0.19961
3245.61275,0.19904
3247.54122,0.19962
3249.46969,0.19739
3251.39816,0.19487
3253.32663,0.19385
3255.25510,0.19543
3257.18357,0.19871
3259.11203,0.19997
3261.04050,0.19848
3262.96897,0.19890
3264.89744,0.20233
3266.82591,0.20121
3268.75438,0.19508
3270.68285,0.19363
3272.61131,0.19599
3274.53978,0.19354
3276.46825,0.18843
3278.39672,0.18760
3280.32519,0.19146
3282.25366,0.19634
3284.18213,0.19890
3286.11060,0.19852
3288.03906,0.19619
3289.96753,0.19546
3291.89600,0.19717
3293.82447,0.19620
3295.75294,0.19521
3297.68141,0.19847
3299.60988,0.20146
3301.53834,0.20252
3303.46681,0.20154
3305.39528,0.19706
3307.32375,0.19403
3309.25222,0.19644
3311.18069,0.19846
3313.10916,0.19505
3315.03763,0.19238
3316.96609,0.19435
3318.89456,0.19490
3320.82303,0.19295
3322.75150,0.19395
3324.67997,0.19738
3326.60844,0.19974
3328.53691,0.20356
3330.46537,0.20780
3332.39384,0.20590
3334.32231,0.20056
3336.25078,0.19703
3338.17925,0.19504
3340.10772,0.19555
3342.03619,0.20077
3343.96466,0.20870
3345.89312,0.21216
3347.82159,0.20868
3349.75006,0.20180
3351.67853,0.19466
3353.60700,0.19017
3355.53547,0.18927
3357.46394,0.19120
3359.39240,0.19411
3361.32087,0.19441
3363.24934,0.19322
3365.17781,0.19425
3367.10628,0.19625
3369.03475,0.19963
3370.96322,0.20375
3372.89168,0.20499
3374.82015,0.20526
3376.74862,0.20572
3378.67709,0.20618
3380.60556,0.20516
3382.53403,0.19841
3384.46250,0.19013
3386.39097,0.18764
3388.31943,0.19015
3390.24790,0.19369
3392.17637,0.19654
3394.10484,0.19719
3396.03331,0.19547
3397.96178,0.19489
3399.89025,0.19449
3401.81871,0.19246
3403.74718,0.19093
3405.67565,0.18703
3407.60412,0.18201
3409.53259,0.18291
3411.46106,0.18779
3413.38953,0.19225
3415.31800,0.19538
3417.24646,0.19296
3419.17493,0.18564
3421.10340,0.18469
3423.03187,0.19132
3424.96034,0.19391
3426.88881,0.18925
3428.81728,0.18387
3430.74574,0.18493
3432.67421,0.19185
3434.60268,0.19659
3436.53115,0.19533
3438.45962,0.19367
3440.38809,0.19597
3442.31656,0.19634
3444.24503,0.19089
3446.17349,0.18620
3448.10196,0.18591
3450.03043,0.18692
3451.95890,0.18674
3453.88737,0.18235
3455.81584,0.17746
3457.74431,0.17831
3459.67277,0.18090
3461.60124,0.18138
3463.52971,0.18132
3465.45818,0.18308
3467.38665,0.18728
3469.31512,0.18911
3471.24359,0.18623
3473.17206,0.18416
3475.10052,0.18323
3477.02899,0.18174
3478.95746,0.18438
3480.88593,0.18725
3482.81440,0.18262
3484.74287,0.17531
3486.67134,0.17186
3488.59980,0.17204
3490.52827,0.17412
3492.45674,0.17524
3494.38521,0.17393
3496.31368,0.17295
3498.24215,0.17095
3500.17062,0.16867
3502.09909,0.16993
3504.02755,0.16975
3505.95602,0.16589
3507.88449,0.16333
3509.81296,0.16346
3511.74143,0.16356
3513.66990,0.16262
3515.59837,0.16179
3517.52683,0.16295
3519.45530,0.16689
3521.38377,0.16873
3523.31224,0.16719
3525.24071,0.16813
3527.16918,0.17083
3529.09765,0.16881
3531.02611,0.16147
3532.95458,0.15667
3534.88305,0.16030
3536.81152,0.16612
3538.73999,0.16620
3540.66846,0.16304
3542.59693,0.16027
3544.52540,0.15915
3546.45386,0.15834
3548.38233,0.15417
3550.31080,0.14824
3552.23927,0.14524
3554.16774,0.14773
3556.09621,0.15197
3558.02468,0.15240
3559.95314,0.15247
3561.88161,0.15759
3563.81008,0.16250
3565.73855,0.16388
3567.66702,0.16136
3569.59549,0.15493
3571.52396,0.15225
3573.45243,0.15452
3575.38089,0.15647
3577.30936,0.15521
3579.23783,0.15191
3581.16630,0.14933
3583.09477,0.14994
3585.02324,0.15258
3586.95171,0.15201
3588.88017,0.14765
3590.80864,0.14783
3592.73711,0.15311
3594.66558,0.15657
3596.59405,0.15421
3598.52252,0.14888
3600.45099,0.14307
3602.37946,0.13992
3604.30792,0.14086
3606.23639,0.14512
3608.16486,0.14736
3610.09333,0.14119
3612.02180,0.13562
3613.95027,0.13803
3615.87874,0.14204
3617.80720,0.14374
3619.73567,0.14152
3621.66414,0.13484
3623.59261,0.13101
3625.52108,0.13310
3627.44955,0.13857
3629.37802,0.13788
3631.30649,0.13001
3633.23495,0.12735
3635.16342,0.12828
3637.09189,0.12761
3639.02036,0.12691
3640.94883,0.12816
3642.87730,0.13019
3644.80577,0.13330
3646.73423,0.13929
3648.66270,0.14414
3650.59117,0.13667
3652.51964,0.12778
3654.44811,0.12643
3656.37658,0.12986
3658.30505,0.13232
3660.23352,0.13399
3662.16198,0.13484
3664.09045,0.13124
3666.01892,0.12616
3667.94739,0.12291
3669.87586,0.12335
3671.80433,0.13146
3673.73280,0.13989
3675.66126,0.13709
3677.58973,0.12463
3679.51820,0.11860
3681.44667,0.11780
3683.37514,0.11675
3685.30361,0.11711
3687.23208,0.12450
3689.16055,0.13247
3691.08901,0.12892
3693.01748,0.12566
3694.94595,0.12643
3696.87442,0.12632
3698.80289,0.12348
3700.73136,0.11971
3702.65983,0.11854
3704.58829,0.11645
3706.51676,0.11303
3708.44523,0.11691
3710.37370,0.13061
3712.30217,0.13655
3714.23064,0.12836
3716.15911,0.12106
3718.08757,0.11950
3720.01604,0.12150
3721.94451,0.12298
3723.87298,0.12212
3725.80145,0.11993
3727.72992,0.12132
3729.65839,0.12783
3731.58686,0.13364
3733.51532,0.13372
3735.44379,0.13178
3737.37226,0.13065
3739.30073,0.12776
3741.22920,0.12458
3743.15767,0.12554
3745.08614,0.13232
3747.01460,0.13372
3748.94307,0.13044
3750.87154,0.12749
3752.80001,0.12399
3754.72848,0.12073
3756.65695,0.11857
3758.58542,0.12000
3760.51389,0.12350
3762.44235,0.12480
3764.37082,0.12581
3766.29929,0.12578
3768.22776,0.12348
3770.15623,0.12065
3772.08470,0.11702
3774.01317,0.11458
3775.94163,0.11590
3777.87010,0.11827
3779.79857,0.11921
3781.72704,0.12140
3783.65551,0.12332
3785.58398,0.12241
3787.51245,0.11945
3789.44092,0.11644
3791.36938,0.11734
3793.29785,0.12094
3795.22632,0.12064
3797.15479,0.11718
3799.08326,0.11737
3801.01173,0.12144
3802.94020,0.12297
3804.86866,0.12259
3806.79713,0.12378
3808.72560,0.12390
3810.65407,0.12284
3812.58254,0.12187
3814.51101,0.12025
3816.43948,0.11823
3818.36795,0.11785
3820.29641,0.11615
3822.22488,0.11047
3824.15335,0.10836
3826.08182,0.11169
3828.01029,0.11676
3829.93876,0.11927
3831.86723,0.11764
3833.79569,0.11307
3835.72416,0.11197
3837.65263,0.11788
3839.58110,0.12187
3841.50957,0.12128
3843.43804,0.12182
3845.36651,0.12327
3847.29498,0.12265
3849.22344,0.11904
3851.15191,0.11594
3853.08038,0.11492
3855.00885,0.10890
3856.93732,0.10496
3858.86579,0.10894
3860.79426,0.11873
3862.72272,0.12455
3864.65119,0.11981
3866.57966,0.11875
3868.50813,0.12360
3870.43660,0.12248
3872.36507,0.11593
3874.29354,0.11212
3876.22200,0.11622
3878.15047,0.12391
3880.07894,0.12466
3882.00741,0.12109
3883.93588,0.12203
3885.86435,0.12034
3887.79282,0.11499
3889.72129,0.11206
3891.64975,0.11053
3893.57822,0.10958
3895.50669,0.10977
3897.43516,0.11232
3899.36363,0.11958
3901.29210,0.12784
3903.22057,0.12820
3905.14903,0.12037
3907.07750,0.11083
3909.00597,0.10397
3910.93444,0.10003
3912.86291,0.09670
3914.79138,0.09676
3916.71985,0.10170
3918.64832,0.10359
3920.57678,0.10372
3922.50525,0.10805
3924.43372,0.11133
3926.36219,0.10961
3928.29066,0.10762
3930.21913,0.10903
3932.14760,0.11203
3934.07606,0.11218
3936.00453,0.10971
3937.93300,0.10667
3939.86147,0.10581
3941.78994,0.10794
3943.71841,0.10807
3945.64688,0.10561
3947.57535,0.10619
3949.50381,0.11106
3951.43228,0.11322
3953.36075,0.11106
3955.28922,0.11149
3957.21769,0.11464
3959.14616,0.11399
3961.07463,0.10844
3963.00309,0.10508
3964.93156,0.10625
3966.86003,0.10340
3968.78850,0.09748
3970.71697,0.09927
3972.64544,0.10620
3974.57391,0.10659
3976.50238,0.09919
3978.43084,0.09522
3980.35931,0.10076
3982.28778,0.10709
3984.21625,0.10685
3986.14472,0.10490
3988.07319,0.10406
3990.00166,0.10052
3991.93012,0.09630
3993.85859,0.09440
3995.78706,0.09221
3997.71553,0.09176
3999.64400,0.09542
4001.57247,0.09938
4003.50094,0.09858
4005.42941,0.09335
4007.35787,0.09126
4009.28634,0.09656
4011.21481,0.10290
4013.14328,0.10236
4015.07175,0.09870
4017.00022,0.09996
4018.92869,0.10365
4020.85715,0.10362
4022.78562,0.09985
4024.71409,0.09803
4026.64256,0.10127
4028.57103,0.10175
4030.49950,0.09588
4032.42797,0.09245
4034.35644,0.09329
4036.28490,0.09207
4038.21337,0.08869
4040.14184,0.08703
4042.07031,0.08911
4043.99878,0.09294
4045.92725,0.09517
4047.85572,0.09606
4049.78418,0.09591
4051.71265,0.09484
4053.64112,0.09474
4055.56959,0.09469
4057.49806,0.09281
4059.42653,0.09069
4061.35500,0.09134
4063.28346,0.09570
4065.21193,0.09790
4067.14040,0.09554
4069.06887,0.09507
4070.99734,0.09370
4072.92581,0.08848
4074.85428,0.08625
4076.78275,0.08586
4078.71121,0.08357
4080.63968,0.08224
4082.56815,0.08218
4084.49662,0.08275
4086.42509,0.08681
4088.35356,0.09128
4090.28203,0.08933
4092.21049,0.08433
4094.13896,0.08097
4096.06743,0.08007
4097.99590,0.08445
4099.92437,0.08968
4101.85284,0.08738
4103.78131,0.08007
4105.70978,0.07623
4107.63824,0.07843
4109.56671,0.08260
4111.49518,0.08654
4113.42365,0.09062
4115.35212,0.08990
4117.28059,0.08341
4119.20906,0.07993
4121.13752,0.08239
4123.06599,0.08355
4124.99446,0.08163
4126.92293,0.08249
4128.85140,0.08452
4130.77987,0.08268
4132.70834,0.07691
4134.63681,0.06962
4136.56527,0.06737
4138.49374,0.07329
4140.42221,0.07991
4142.35068,0.08291
4144.27915,0.08528
4146.20762,0.08657
4148.13609,0.08675
4150.06455,0.08468
4151.99302,0.07924
4153.92149,0.07650
4155.84996,0.07753
4157.77843,0.07800
4159.70690,0.07690
4161.63537,0.07585
4163.56384,0.07700
4165.49230,0.08093
4167.42077,0.08513
4169.34924,0.08547
4171.27771,0.08317
4173.20618,0.08104
4175.13465,0.07960
4177.06312,0.07892
4178.99158,0.07501
4180.92005,0.06813
4182.84852,0.06572
4184.77699,0.06995
4186.70546,0.07609
4188.63393,0.07784
4190.56240,0.07427
4192.49087,0.07339
4194.41933,0.07521
4196.34780,0.07090
4198.27627,0.06689
4200.20474,0.07352
4202.13321,0.08111
4204.06168,0.07770
4205.99015,0.06938
4207.91861,0.06782
4209.84708,0.07097
4211.77555,0.07155
4213.70402,0.07254
4215.63249,0.07442
4217.56096,0.07220
4219.48943,0.07073
4221.41789,0.07354
4223.34636,0.07419
4225.27483,0.06959
4227.20330,0.06387
4229.13177,0.06203
4231.06024,0.06521
4232.98871,0.06916
4234.91718,0.06812
4236.84564,0.06298
4238.77411,0.05919
4240.70258,0.05657
4242.63105,0.05233
4244.55952,0.04843
4246.48799,0.04915
4248.41646,0.05506
4250.34492,0.06257
4252.27339,0.06738
4254.20186,0.06888
4256.13033,0.06926
4258.05880,0.06977
4259.98727,0.07332
4261.91574,0.07511
4263.84421,0.06820
4265.77267,0.06229
4267.70114,0.06486
4269.62961,0.06774
4271.55808,0.06158
4273.48655,0.05008
4275.41502,0.04768
4277.34349,0.05216
4279.27195,0.04971
4281.20042,0.04453
4283.12889,0.04596
4285.05736,0.05236
4286.98583,0.05835
4288.91430,0.05783
4290.84277,0.05324
4292.77124,0.05336
4294.69970,0.05731
4296.62817,0.06204
4298.55664,0.06474
4300.48511,0.06074
4302.41358,0.05509
4304.34205,0.05485
4306.27052,0.05546
4308.19898,0.04924
4310.12745,0.04233
4312.05592,0.04674
4313.98439,0.05895
4315.91286,0.06600
4317.84133,0.06486
4319.76980,0.05976
4321.69827,0.05246
4323.62673,0.04828
4325.55520,0.04806
4327.48367,0.04340
4329.41214,0.04062
4331.34061,0.04986
4333.26908,0.05725
4335.19755,0.05246
4337.12601,0.04725
4339.05448,0.04582
4340.98295,0.04496
4342.91142,0.04651
4344.83989,0.04548
4346.76836,0.04034
4348.69683,0.04126
4350.62530,0.05048
4352.55376,0.05603
4354.48223,0.05004
4356.41070,0.04160
4358.33917,0.03938
4360.26764,0.03870
4362.19611,0.03659
4364.12458,0.03534
4366.05304,0.03451
4367.98151,0.03433
4369.90998,0.03679
4371.83845,0.04308
4373.76692,0.05191
4375.69539,0.05612
4377.62386,0.05191
4379.55232,0.04532
4381.48079,0.04121
4383.40926,0.03956
4385.33773,0.04079
4387.26620,0.04634
4389.19467,0.05096
4391.12314,0.04684
4393.05161,0.03836
4394.98007,0.03311
4396.90854,0.03020
4398.83701,0.03110
4400.76548,0.03981
4402.69395,0.04373
4404.62242,0.03366
4406.55089,0.02723
4408.47935,0.03081
4410.40782,0.03260
4412.33629,0.03582
4414.26476,0.04515
4416.19323,0.04931
4418.12170,0.04454
4420.05017,0.04000
4421.97864,0.03512
4423.90710,0.02865
4425.83557,0.02749
4427.76404,0.03087
4429.69251,0.03451
4431.62098,0.03531
4433.54945,0.03113
4435.47792,0.02863
4437.40638,0.03133
4439.33485,0.02888
4441.26332,0.02039
4443.19179,0.02045
4445.12026,0.02712
4447.04873,0.02801
4448.97720,0.02622
4450.90567,0.02774
4452.83413,0.03038
4454.76260,0.03090
4456.69107,0.02961
4458.61954,0.02522
4460.54801,0.01743
4462.47648,0.01464
4464.40495,0.02092
4466.33341,0.03073
4468.26188,0.03593
4470.19035,0.03074
4472.11882,0.02181
4474.04729,0.01808
4475.97576,0.01706
4477.90423,0.01466
4479.83270,0.01441
4481.76116,0.01813
4483.68963,0.01684
4485.61810,0.01124
4487.54657,0.01767
4489.47504,0.03263
4491.40351,0.03448
4493.33198,0.02225
4495.26044,0.01437
4497.18891,0.01460
4499.11738,0.01379
4501.04585,0.00979
4502.97432,0.00707
4504.90279,0.01065
4506.83126,0.01752
4508.75973,0.01952
4510.68819,0.01974
4512.61666,0.02412
4514.54513,0.02742
4516.47360,0.02229
4518.40207,0.01172
4520.33054,0.00717
4522.25901,0.01145
4524.18747,0.01648
4526.11594,0.02139
4528.04441,0.02633
4529.97288,0.02438
4531.90135,0.01900
4533.82982,0.02090
4535.75829,0.02695
4537.68676,0.02577
4539.61522,0.01874
4541.54369,0.01711
4543.47216,0.01993
4545.40063,0.01832
4547.32910,0.01591
4549.25757,0.01932
4551.18604,0.02628
4553.11450,0.03213
4555.04297,0.02923
4556.97144,0.01807
4558.89991,0.01436
4560.82838,0.01891
4562.75685,0.01828
4564.68532,0.01468
4566.61378,0.01394
4568.54225,0.01517
4570.47072,0.01926
4572.39919,0.02015
4574.32766,0.01487
4576.25613,0.01139
4578.18460,0.00957
4580.11307,0.00756
4582.04153,0.01116
4583.97000,0.01538
4585.89847,0.01148
4587.82694,0.00383
4589.75541,-0.00297
4591.68388,-0.00626
4593.61235,-0.00022
4595.54081,0.00941
4597.46928,0.01255
4599.39775,0.01348
4601.32622,0.01623
4603.25469,0.01473
4605.18316,0.00999
4607.11163,0.01309
4609.04010,0.02125
4610.96856,0.01818
4612.89703,0.00651
4614.82550,0.00375
4616.75397,0.01209
4618.68244,0.01921
4620.61091,0.01650
4622.53938,0.00665
4624.46784,0.00021
4626.39631,0.00394
4628.32478,0.01103
4630.25325,0.01157
4632.18172,0.00349
4634.11019,-0.00704
4636.03866,-0.01028
4637.96713,-0.00246
4639.89559,0.00916
4641.82406,0.01459
4643.75253,0.01192
4645.68100,0.00822
4647.60947,0.00966
4649.53794,0.01196
4651.46641,0.01339
4653.39487,0.01791
4655.32334,0.01987
4657.25181,0.01514
4659.18028,0.01407
4661.10875,0.02083
4663.03722,0.02419
4664.96569,0.02050
4666.89416,0.01985
4668.82262,0.03000
4670.75109,0.03902
4672.67956,0.03350
4674.60803,0.02077
4676.53650,0.00719
4678.46497,-0.00408
4680.39344,-0.00583
4682.32190,-0.00118
4684.25037,-0.00322
4686.17884,-0.00901
4688.10731,-0.00058
4690.03578,0.01431
4691.96425,0.01379
4693.89272,0.00086
4695.82119,-0.00876
4697.74965,-0.00556
4699.67812,0.00756
4701.60659,0.01391
4703.53506,0.00612
4705.46353,-0.00207
4707.39200,-0.00495
4709.32047,-0.00846
4711.24893,-0.01173
4713.17740,-0.00822
4715.10587,0.00393
4717.03434,0.01289
4718.96281,0.00706
4720.89128,-0.00030
4722.81975,0.00405
4724.74821,0.00475
4726.67668,-0.00308
4728.60515,-0.00655
4730.53362,-0.00626
4732.46209,-0.00306
4734.39056,0.00170
4736.31903,0.00170
4738.24750,0.00147
4740.17596,0.00346
4742.10443,-0.00046
4744.03290,-0.01008
4745.96137,-0.01245
4747.88984,0.00018
4749.81831,0.01252
4751.74678,0.01407
4753.67524,0.01125
4755.60371,0.00475
4757.53218,0.00336
4759.46065,0.00865
4761.38912,0.00725
4763.31759,0.00242
4765.24606,0.00562
4767.17453,0.01660
4769.10299,0.02932
4771.03146,0.03049
4772.95993,0.01764
4774.88840,0.00875
4776.81687,0.01093
4778.74534,0.01310
4780.67381,0.00733
4782.60227,0.00511
4784.53074,0.01645
4786.45921,0.02471
4788.38768,0.01796
4790.31615,0.00829
4792.24462,0.00530
4794.17309,0.00582
4796.10156,0.00502
4798.03002,0.00260
4799.95849,0.00268
4801.88696,0.00466
4803.81543,0.00575
4805.74390,0.00765
4807.67237,0.01072
4809.60084,0.01483
4811.52930,0.01630
4813.45777,0.01141
4815.38624,0.00595
4817.31471,0.00474
4819.24318,0.00596
4821.17165,0.00942
4823.10012,0.01220
4825.02859,0.00613
4826.95705,0.00122
4828.88552,0.01447
4830.81399,0.03025
4832.74246,0.02638
4834.67093,0.01273
4836.59940,0.00597
4838.52787,0.00195
4840.45633,-0.00305
4842.38480,-0.00748
4844.31327,-0.01210
4846.24174,-0.01438
4848.17021,-0.01450
4850.09868,-0.00949
4852.02715,0.00135
4853.95562,0.00809
4855.88408,0.00926
4857.81255,0.00941
4859.74102,0.01130
4861.66949,0.01503
4863.59796,0.01536
4865.52643,0.01388
4867.45490,0.01703
4869.38336,0.01673
4871.31183,0.00543
4873.24030,-0.00586
4875.16877,-0.00966
4877.09724,-0.00617
4879.02571,0.00617
4880.95418,0.01850
4882.88265,0.01793
4884.81111,0.00646
4886.73958,-0.00170
4888.66805,-0.00084
4890.59652,0.00396
4892.52499,0.00802
4894.45346,0.00753
4896.38193,0.00638
4898.31039,0.01447
4900.23886,0.02098
4902.16733,0.01019
4904.09580,-0.00193
4906.02427,0.00315
4907.95274,0.01506
4909.88121,0.01563
4911.80967,0.00663
4913.73814,0.00510
4915.66661,0.01180
4917.59508,0.01330
4919.52355,0.00848
4921.45202,0.00789
4923.38049,0.00617
4925.30896,-0.00575
4927.23742,-0.01688
4929.16589,-0.02160
4931.09436,-0.01957
4933.02283,-0.00766
4934.95130,0.00845
4936.87977,0.01893
4938.80824,0.02066
4940.73670,0.01635
4942.66517,0.00893
4944.59364,0.00705
4946.52211,0.01243
4948.45058,0.01932
4950.37905,0.02343
4952.30752,0.02001
4954.23599,0.01140
4956.16445,0.00063
4958.09292,-0.00969
4960.02139,-0.01843
4961.94986,-0.01889
4963.87833,-0.00374
4965.80680,0.01163
4967.73527,0.01347
4969.66373,0.00167
4971.59220,-0.01415
4973.52067,-0.01902
4975.44914,-0.01184
4977.37761,-0.00023
4979.30608,0.00678
4981.23455,0.01550
4983.16302,0.02544
4985.09148,0.01327
4987.01995,-0.00714
4988.94842,-0.00828
4990.87689,0.00060
4992.80536,0.01203
4994.73383,0.02154
4996.66230,0.01282
4998.59076,-0.00099
5000.51923,0.00722
5002.44770,0.02770
5004.37617,0.03905
5006.30464,0.03978
5008.23311,0.03342
5010.16158,0.02636
5012.09005,0.01922
5014.01851,0.01178
5015.94698,0.01540
5017.87545,0.02220
5019.80392,0.01831
5021.73239,0.01015
5023.66086,0.00139
5025.58933,-0.00753
5027.51779,-0.01119
5029.44626,-0.01102
5031.37473,-0.01449
5033.30320,-0.01795
5035.23167,-0.00881
5037.16014,0.00817
5039.08861,0.02194
5041.01708,0.03438
5042.94554,0.03948
5044.87401,0.03328
5046.80248,0.03193
5048.73095,0.03953
5050.65942,0.04250
5052.58789,0.03933
5054.51636,0.03780
5056.44482,0.03247
5058.37329,0.01515
5060.30176,-0.00326
5062.23023,-0.00585
5064.15870,0.00972
5066.08717,0.02658
5068.01564,0.02876
5069.94410,0.02572
5071.87257,0.03003
5073.80104,0.04000
5075.72951,0.04345
5077.65798,0.03212
5079.58645,0.02162
5081.51492,0.01955
5083.44339,0.01536
5085.37185,0.01178
5087.30032,0.01584
5089.22879,0.02378
5091.15726,0.02362
5093.08573,0.02084
5095.01420,0.02970
5096.94267,0.03738
5098.87113,0.03286
5100.79960,0.03364
5102.72807,0.05098
5104.65654,0.06427
5106.58501,0.05610
5108.51348,0.03627
5110.44195,0.01872
5112.37042,0.01460
5114.29888,0.02348
5116.22735,0.02723
5118.15582,0.02154
5120.08429,0.02406
5122.01276,0.03488
5123.94123,0.03167
5125.86970,0.01599
5127.79816,0.01695
5129.72663,0.03172
5131.65510,0.02765
5133.58357,0.00981
5135.51204,0.00376
5137.44051,0.00722
5139.36898,0.00559
5141.29745,0.01619
5143.22591,0.06545
5145.15438,0.10858
5147.08285,0.10572
5149.01132,0.09171
5150.93979,0.06608
5152.86826,0.02094
5154.79673,0.00548
5156.72519,0.02865
5158.65366,0.04858
5160.58213,0.04636
5162.51060,0.02812
5164.43907,0.01863
5166.36754,0.01863
5168.29601,0.00994
5170.22448,0.01234
5172.15294,0.02999
5174.08141,0.03399
5176.00988,0.02500
5177.93835,0.01848
5179.86682,0.02176
5181.79529,0.02631
5183.72376,0.01669
5185.65222,0.01128
5187.58069,0.02881
5189.50916,0.04461
5191.43763,0.03929
5193.36610,0.02342
5195.29457,0.01664
5197.22304,0.02624
5199.15151,0.03171
5201.07997,0.02187
5203.00844,0.01957
5204.93691,0.02760
5206.86538,0.03102
5208.79385,0.03202
5210.72232,0.03340
5212.65079,0.03780
5214.57925,0.04578
5216.50772,0.05423
5218.43619,0.06241
5220.36466,0.06298
5222.29313,0.05686
5224.22160,0.05036
5226.15007,0.03485
5228.07854,0.02227
5230.00700,0.03456
5231.93547,0.04917
5233.86394,0.04510
5235.79241,0.03723
5237.72088,0.03314
5239.64935,0.03205
5241.57782,0.03626
5243.50628,0.04179
5245.43475,0.04042
5247.36322,0.03262
5249.29169,0.03052
5251.22016,0.04220
5253.14863,0.06645
5255.07710,0.08301
5257.00556,0.06841
5258.93403,0.04864
5260.86250,0.04742
5262.79097,0.04390
5264.71944,0.03474
5266.64791,0.03564
5268.57638,0.03908
5270.50485,0.04484
5272.43331,0.05303
5274.36178,0.05599
5276.29025,0.06233
5278.21872,0.07005
5280.14719,0.06182
5282.07566,0.04701
5284.00413,0.04513
5285.93259,0.05294
5287.86106,0.05676
5289.78953,0.05430
5291.71800,0.05542
5293.64647,0.06383
5295.57494,0.07230
5297.50341,0.07553
5299.43188,0.06846
5301.36034,0.05566
5303.28881,0.05308
5305.21728,0.05685
5307.14575,0.05225
5309.07422,0.04190
5311.00269,0.03588
5312.93116,0.03758
5314.85962,0.04227
5316.78809,0.04845
5318.71656,0.06511
5320.64503,0.08180
5322.57350,0.07587
5324.50197,0.05088
5326.43044,0.02918
5328.35891,0.02891
5330.28737,0.04754
5332.21584,0.07310
5334.14431,0.09188
5336.07278,0.08341
5338.00125,0.05221
5339.92972,0.03911
5341.85819,0.05039
5343.78665,0.05290
5345.71512,0.04486
5347.64359,0.04284
5349.57206,0.04285
5351.50053,0.04925
5353.42900,0.05799
5355.35747,0.06015
5357.28594,0.06265
5359.21440,0.05964
5361.14287,0.05071
5363.07134,0.04464
5364.99981,0.04158
5366.92828,0.05081
5368.85675,0.06269
5370.78522,0.04861
5372.71368,0.02509
5374.64215,0.02862
5376.57062,0.05007
5378.49909,0.05910
5380.42756,0.06232
5382.35603,0.06703
5384.28450,0.06112
5386.21297,0.04816
5388.14143,0.04256
5390.06990,0.04590
5391.99837,0.06207
5393.92684,0.07576
5395.85531,0.05203
5397.78378,0.01522
5399.71225,0.01458
5401.64071,0.02910
5403.56918,0.02200
5405.49765,0.01659
5407.42612,0.02968
5409.35459,0.04163
5411.28306,0.06105
5413.21153,0.10222
5415.13999,0.11994
5417.06846,0.09002
5418.99693,0.05142
5420.92540,0.04380
5422.85387,0.06066
5424.78234,0.06727
5426.71081,0.05817
5428.63928,0.04603
5430.56774,0.03144
5432.49621,0.01722
5434.42468,0.01535
5436.35315,0.03398
5438.28162,0.05937
5440.21009,0.06991
5442.13856,0.06309
5444.06702,0.05885
5445.99549,0.05948
5447.92396,0.05612
5449.85243,0.06025
5451.78090,0.06812
5453.70937,0.06585
5455.63784,0.06650
5457.56631,0.07470
5459.49477,0.07217
5461.42324,0.05120
5463.35171,0.01835
5465.28018,0.01189
5467.20865,0.04963
5469.13712,0.08213
5471.06559,0.08337
5472.99405,0.08490
5474.92252,0.09471
5476.85099,0.09151
5478.77946,0.07573
5480.70793,0.07107
5482.63640,0.07844
5484.56487,0.06775
5486.49334,0.03863
5488.42180,0.03090
5490.35027,0.04805
5492.27874,0.06324
5494.20721,0.07406
5496.13568,0.07848
5498.06415,0.07201
5499.99262,0.04862
5501.92108,0.00961
5503.84955,-0.00548
5505.77802,0.03151
5507.70649,0.08511
5509.63496,0.10795
5511.56343,0.09908
5513.49190,0.07359
5515.42037,0.04656
5517.34883,0.02836
5519.27730,0.02269
5521.20577,0.03289
5523.13424,0.04849
5525.06271,0.04353
5526.99118,0.02034
5528.91965,0.00549
5530.84811,0.00765
5532.77658,0.02822
5534.70505,0.06512
5536.63352,0.09737
5538.56199,0.09366
5540.49046,0.05146
5542.41893,0.01741
5544.34740,0.02471
5546.27586,0.05028
5548.20433,0.06948
5550.13280,0.07796
5552.06127,0.07841
5553.98974,0.09012
5555.91821,0.10674
5557.84668,0.10398
5559.77514,0.09639
5561.70361,0.07985
5563.63208,0.05863
5565.56055,0.05999
5567.48902,0.05597
5569.41749,0.03622
5571.34596,0.03354
5573.27443,0.04431
5575.20289,0.05255
5577.13136,0.06655
5579.05983,0.08565
5580.98830,0.09695
5582.91677,0.09624
5584.84524,0.09164
5586.77371,0.08115
5588.70217,0.05097
5590.63064,0.02175
5592.55911,0.02029
5594.48758,0.02754
5596.41605,0.03328
5598.34452,0.05922
5600.27299,0.09177
5602.20145,0.09044
5604.12992,0.06178
5606.05839,0.04296
5607.98686,0.04509
5609.91533,0.05629
5611.84380,0.07561
5613.77227,0.09212
5615.70074,0.09821
5617.62920,0.10340
5619.55767,0.09175
5621.48614,0.06690
5623.41461,0.05998
5625.34308,0.08304
5627.27155,0.12194
5629.20002,0.13141
5631.12848,0.10191
5633.05695,0.06934
5634.98542,0.06167
5636.91389,0.08897
5638.84236,0.12079
5640.77083,0.11995
5642.69930,0.09799
5644.62777,0.08014
5646.55623,0.06882
5648.48470,0.05671
5650.41317,0.05732
5652.34164,0.06869
5654.27011,0.06153
5656.19858,0.06716
5658.12705,0.11255
5660.05551,0.14613
5661.98398,0.13969
5663.91245,0.11067
5665.84092,0.08432
5667.76939,0.08680
5669.69786,0.09029
5671.62633,0.07216
5673.55480,0.07717
5675.48326,0.10605
5677.41173,0.11643
5679.34020,0.11587
5681.26867,0.12063
5683.19714,0.12385
5685.12561,0.11762
5687.05408,0.10480
5688.98254,0.09982
5690.91101,0.09657
5692.83948,0.08100
5694.76795,0.06789
5696.69642,0.06957
5698.62489,0.08556
5700.55336,0.10873
5702.48183,0.11546
5704.41029,0.10370
5706.33876,0.08713
5708.26723,0.06360
5710.19570,0.04966
5712.12417,0.06720
5714.05264,0.09673
5715.98111,0.10763
5717.90957,0.09665
5719.83804,0.07231
5721.76651,0.04392
5723.69498,0.03327
5725.62345,0.04982
5727.55192,0.06956
5729.48039,0.07141
5731.40886,0.06028
5733.33732,0.06100
5735.26579,0.07969
5737.19426,0.08014
5739.12273,0.06059
5741.05120,0.05194
5742.97967,0.06034
5744.90814,0.08141
5746.83660,0.09676
5748.76507,0.08920
5750.69354,0.06444
5752.62201,0.05249
5754.55048,0.07757
5756.47895,0.09599
5758.40742,0.07605
5760.33588,0.06353
5762.26435,0.08010
5764.19282,0.09658
5766.12129,0.10118
5768.04976,0.10258
5769.97823,0.09068
5771.90670,0.05524
5773.83517,0.02449
5775.76363,0.02368
5777.69210,0.05745
5779.62057,0.10326
5781.54904,0.12330
5783.47751,0.11873
5785.40598,0.09562
5787.33445,0.06214
5789.26291,0.04914
5791.19138,0.06044
5793.11985,0.08212
5795.04832,0.11144
5796.97679,0.13534
5798.90526,0.13156
5800.83373,0.09956
5802.76220,0.07131
5804.69066,0.07493
5806.61913,0.08493
5808.54760,0.07350
5810.47607,0.05875
5812.40454,0.05250
5814.33301,0.04848
5816.26148,0.06171
5818.18994,0.10448
5820.11841,0.13849
5822.04688,0.12946
5823.97535,0.10304
5825.90382,0.07901
5827.83229,0.05171
5829.76076,0.01877
5831.68923,-0.00889
5833.61769,0.00580
5835.54616,0.05613
5837.47463,0.07632
5839.40310,0.06770
5841.33157,0.07623
5843.26004,0.08651
5845.18851,0.06593
5847.11697,0.04738
5849.04544,0.07800
5850.97391,0.11679
5852.90238,0.10190
5854.83085,0.07555
5856.75932,0.09759
5858.68779,0.13074
5860.61626,0.12202
5862.54472,0.09401
5864.47319,0.07554
5866.40166,0.05890
5868.33013,0.04454
5870.25860,0.04765
5872.18707,0.06129
5874.11554,0.06849
5876.04400,0.08049
5877.97247,0.11230
5879.90094,0.14670
5881.82941,0.16161
5883.75788,0.15397
5885.68635,0.13027
5887.61482,0.10520
5889.54329,0.09733
5891.47175,0.09995
5893.40022,0.10194
5895.32869,0.10680
5897.25716,0.09572
5899.18563,0.05162
5901.11410,0.01030
5903.04257,0.01853
5904.97103,0.04750
5906.89950,0.06141
5908.82797,0.09238
5910.75644,0.13387
5912.68491,0.14460
5914.61338,0.12345
5916.54185,0.08919
5918.47032,0.07468
5920.39878,0.08459
5922.32725,0.07805
5924.25572,0.05668
5926.18419,0.06473
5928.11266,0.09099
5930.04113,0.08961
5931.96960,0.07893
5933.89806,0.09159
5935.82653,0.10271
5937.75500,0.11089
5939.68347,0.13471
5941.61194,0.13805
5943.54041,0.11360
5945.46888,0.09894
5947.39734,0.08783
5949.32581,0.06400
5951.25428,0.05556
5953.18275,0.07516
5955.11122,0.09032
5957.03969,0.09745
5958.96816,0.10358
5960.89663,0.10780
5962.82509,0.12152
5964.75356,0.13241
5966.68203,0.12938
5968.61050,0.11898
5970.53897,0.12203
5972.46744,0.15475
5974.39591,0.16522
5976.32437,0.12374
5978.25284,0.09033
5980.18131,0.08189
5982.10978,0.06357
5984.03825,0.04721
5985.96672,0.06857
5987.89519,0.10429
5989.82366,0.09109
5991.75212,0.03163
5993.68059,0.00153
5995.60906,0.03618
5997.53753,0.07168
5999.46600,0.06204
6001.39447,0.05655
6003.32294,0.07884
6005.25140,0.07772
6007.17987,0.04622
6009.10834,0.02749
6011.03681,0.04764
6012.96528,0.08753
6014.89375,0.10905
6016.82222,0.11726
6018.75069,0.11788
6020.67915,0.11243
6022.60762,0.12482
6024.53609,0.13495
6026.46456,0.10802
6028.39303,0.05522
6030.32150,0.00641
6032.24997,-0.00576
6034.17843,0.04079
6036.10690,0.09852
6038.03537,0.11294
6039.96384,0.08769
6041.89231,0.04658
6043.82078,0.02826
6045.74925,0.03840
6047.67772,0.05909
6049.60618,0.09267
6051.53465,0.12854
6053.46312,0.13786
6055.39159,0.09239
6057.32006,0.01143
6059.24853,-0.00619
6061.17700,0.07271
6063.10546,0.13388
6065.03393,0.12008
6066.96240,0.10076
6068.89087,0.10677
6070.81934,0.10972
6072.74781,0.09117
6074.67628,0.07301
6076.60475,0.06802
6078.53321,0.07095
6080.46168,0.07909
6082.39015,0.08332
6084.31862,0.09289
6086.24709,0.10801
6088.17556,0.11047
6090.10403,0.11280
6092.03249,0.11596
6093.96096,0.10793
6095.88943,0.11380
6097.81790,0.12202
6099.74637,0.09022
6101.67484,0.05000
6103.60331,0.03705
6105.53177,0.03554
6107.46024,0.04336
6109.38871,0.04584
6111.31718,0.03471
6113.24565,0.04929
6115.17412,0.06964
6117.10259,0.05993
6119.03106,0.06533
6120.95952,0.09504
6122.88799,0.10030
6124.81646,0.10635
6126.74493,0.15714
6128.67340,0.20962
6130.60187,0.18796
6132.53034,0.09985
6134.45880,0.02697
6136.38727,0.01973
6138.31574,0.03236
6140.24421,0.02311
6142.17268,0.03982
6144.10115,0.09898
6146.02962,0.13593
6147.95809,0.13372
6149.88655,0.11148
6151.81502,0.07203
6153.74349,0.04300
6155.67196,0.04375
6157.60043,0.04920
6159.52890,0.04555
6161.45737,0.05191
6163.38583,0.08851
6165.31430,0.11797
6167.24277,0.08813
6169.17124,0.03817
6171.09971,0.02880
6173.02818,0.03207
6174.95665,0.02353
6176.88512,0.06145
6178.81358,0.15277
6180.74205,0.21066
6182.67052,0.19356
6184.59899,0.14598
6186.52746,0.09876
6188.45593,0.05243
6190.38440,0.00904
6192.31286,-0.01422
6194.24133,0.00765
6196.16980,0.04244
6198.09827,0.03956
6200.02674,0.01769
6201.95521,0.00363
6203.88368,0.01554
6205.81215,0.07540
6207.74061,0.14785
6209.66908,0.18803
6211.59755,0.16567
6213.52602,0.09794
6215.45449,0.05205
6217.38296,0.05109
6219.31143,0.07045
6221.23989,0.07427
6223.16836,0.04351
6225.09683,0.01072
6227.02530,0.00916
6228.95377,0.03092
6230.88224,0.05041
6232.81071,0.05329
6234.73918,0.05044
6236.66764,0.04129
6238.59611,0.00903
6240.52458,-0.00369
6242.45305,0.04782
6244.38152,0.11132
6246.30999,0.14241
6248.23846,0.13371
6250.16692,0.08732
6252.09539,0.05113
6254.02386,0.07785
6255.95233,0.12480
6257.88080,0.12517
6259.80927,0.12686
6261.73774,0.15662
6263.66621,0.19433
6265.59467,0.23897
6267.52314,0.22693
6269.45161,0.15943
6271.38008,0.12335
6273.30855,0.12416
6275.23702,0.09243
6277.16549,0.05744
6279.09395,0.08538
6281.02242,0.11106
6282.95089,0.10236
6284.87936,0.10284
6286.80783,0.11101
6288.73630,0.09238
6290.66477,0.05887
6292.59323,0.05748
6294.52170,0.06284
6296.45017,0.04072
6298.37864,0.02792
6300.30711,0.04194
6302.23558,0.05172
6304.16405,0.04269
6306.09252,0.01936
6308.02098,0.01074
6309.94945,0.05407
6311.87792,0.12682
6313.80639,0.17049
6315.73486,0.14590
6317.66333,0.09655
6319.59180,0.07210
6321.52026,0.03425
6323.44873,0.00009
6325.37720,0.02109
6327.30567,0.06913
6329.23414,0.11041
6331.16261,0.13401
6333.09108,0.10509
6335.01955,0.03350
6336.94801,0.00411
6338.87648,0.00714
6340.80495,-0.00636
6342.73342,0.01353
6344.66189,0.06651
6346.59036,0.08024
6348.51883,0.07827
6350.44729,0.09418
6352.37576,0.07635
6354.30423,0.03912
6356.23270,0.02436
6358.16117,0.02650
6360.08964,0.04872
6362.01811,0.07836
6363.94658,0.08592
6365.87504,0.09674
6367.80351,0.13414
6369.73198,0.19398
6371.66045,0.24737
6373.58892,0.22106
6375.51739,0.14618
6377.44586,0.07868
6379.37432,0.03594
6381.30279,0.03098
6383.23126,0.01954
6385.15973,0.00763
6387.08820,0.00060
6389.01667,-0.02850
6390.94514,-0.01241
6392.87361,0.06162
6394.80207,0.08787
6396.73054,0.08397
6398.65901,0.13195
6400.58748,0.17264
6402.51595,0.14025
6404.44442,0.10038
6406.37289,0.08337
6408.30135,0.06195
6410.22982,0.06381
6412.15829,0.07134
6414.08676,0.03730
6416.01523,0.02878
6417.94370,0.08439
6419.87217,0.12487
6421.80064,0.12398
6423.72910,0.12782
6425.65757,0.11728
6427.58604,0.05053
6429.51451,-0.02768
6431.44298,-0.03790
6433.37145,0.04332
6435.29992,0.12280
6437.22838,0.11680
6439.15685,0.10325
6441.08532,0.15623
6443.01379,0.18126
6444.94226,0.11858
6446.87073,0.06658
6448.79920,0.04189
6450.72766,-0.00885
6452.65613,-0.03405
6454.58460,0.01288
6456.51307,0.08341
6458.44154,0.14246
6460.37001,0.18714
6462.29848,0.17726
6464.22695,0.09463
6466.15541,-0.00283
6468.08388,-0.01370
6470.01235,0.05393
6471.94082,0.08302
6473.86929,0.04356
6475.79776,-0.04980
6477.72623,-0.09241
6479.65469,0.00444
6481.58316,0.13748
6483.51163,0.20523
6485.44010,0.20220
6487.36857,0.15075
6489.29704,0.10598
6491.22551,0.12298
6493.15398,0.19316
6495.08244,0.25157
6497.01091,0.23652
6498.93938,0.16563
6500.86785,0.10856
6502.79632,0.09987
6504.72479,0.11523
6506.65326,0.11061
6508.58172,0.10831
6510.51019,0.14438
6512.43866,0.15275
6514.36713,0.10450
6516.29560,0.07359
6518.22407,0.08460
6520.15254,0.11397
6522.08101,0.15138
6524.00947,0.16603
6525.93794,0.15092
6527.86641,0.12686
6529.79488,0.10461
6531.72335,0.10092
6533.65182,0.10080
6535.58029,0.12586
6537.50875,0.19185
6539.43722,0.20855
6541.36569,0.14497
6543.29416,0.08693
6545.22263,0.08652
6547.15110,0.13171
6549.07957,0.18338
6551.00804,0.17960
6552.93650,0.13419
6554.86497,0.09047
6556.79344,0.05446
6558.72191,0.06697
6560.65038,0.13110
6562.57885,0.15604
6564.50732,0.09341
6566.43578,0.06262
6568.36425,0.14755
6570.29272,0.20787
6572.22119,0.14632
6574.14966,0.06515
6576.07813,0.06337
6578.00660,0.08029
6579.93507,0.04166
6581.86353,0.01720
6583.79200,0.03912
6585.72047,0.04638
6587.64894,0.06342
6589.57741,0.10143
6591.50588,0.11417
6593.43435,0.12301
6595.36281,0.14316
6597.29128,0.13373
6599.21975,0.08159
6601.14822,0.01264
6603.07669,0.00422
6605.00516,0.04169
6606.93363,0.03905
6608.86210,0.01868
6610.79056,0.02865
6612.71903,0.01431
6614.64750,-0.01593
6616.57597,-0.03869
6618.50444,-0.09176
6620.43291,-0.08348
6622.36138,-0.00755
6624.28984,0.00620
6626.21831,-0.03153
6628.14678,-0.06933
6630.07525,-0.05734
6632.00372,0.05765
6633.93219,0.17654
6635.86066,0.18671
6637.78912,0.15322
6639.71759,0.16597
6641.64606,0.16110
6643.57453,0.11926
6645.50300,0.13436
6647.43147,0.21722
6649.35994,0.26176
6651.28841,0.23808
6653.21687,0.14968
6655.14534,-0.01333
6657.07381,-0.13398
6659.00228,-0.08517
6660.93075,0.03194
6662.85922,0.08926
6664.78769,0.09850
6666.71615,0.10127
6668.64462,0.07922
6670.57309,0.04049
6672.50156,0.05220
6674.43003,0.11249
6676.35850,0.14047
6678.28697,0.13355
6680.21544,0.11847
6682.14390,0.07785
6684.07237,0.04219
6686.00084,0.04321
6687.92931,0.04226
6689.85778,0.01673
6691.78625,-0.01964
6693.71472,-0.03708
6695.64318,-0.01074
6697.57165,0.03565
6699.50012,0.06075
6701.42859,0.08083
6703.35706,0.11909
6705.28553,0.11949
6707.21400,0.06080
6709.14247,0.04121
6711.07093,0.07521
6712.99940,0.10623
6714.92787,0.10784
6716.85634,0.06243
6718.78481,0.00726
6720.71328,0.00402
6722.64175,0.02778
6724.57021,-0.00005
6726.49868,-0.03246
6728.42715,0.02759
6730.35562,0.08324
6732.28409,-0.00012
6734.21256,-0.11278
6736.14103,-0.11956
6738.06950,-0.03927
6739.99796,0.04594
6741.92643,0.07754
6743.85490,0.08357
6745.78337,0.12729
6747.71184,0.20039
6749.64031,0.20274
6751.56878,0.11923
6753.49724,0.02549
6755.42571,-0.05474
6757.35418,-0.07019
6759.28265,-0.03288
6761.21112,-0.02398
6763.13959,-0.01392
6765.06806,0.00002
6766.99653,0.04144
6768.92499,0.14400
6770.85346,0.17624
6772.78193,0.12339
6774.71040,0.11697
6776.63887,0.14887
6778.56734,0.11898
6780.49581,0.05482
6782.42427,0.08616
6784.35274,0.14772
6786.28121,0.07793
6788.20968,-0.01310
6790.13815,0.03086
6792.06662,0.12423
6793.99509,0.16002
6795.92355,0.17686
6797.85202,0.18078
6799.78049,0.16432
6801.70896,0.11505
6803.63743,0.04928
6805.56590,0.03621
6807.49437,0.05894
6809.42284,0.06484
6811.35130,0.04230
6813.27977,0.05427
6815.20824,0.14745
6817.13671,0.19347
6819.06518,0.11725
6820.99365,0.03594
6822.92212,0.02425
6824.85058,0.04144
6826.77905,0.04889
6828.70752,0.03570
6830.63599,0.01715
6832.56446,0.04139
6834.49293,0.13919
6836.42140,0.25620
6838.34987,0.22992
6840.27833,0.08373
6842.20680,-0.02731
6844.13527,-0.05778
6846.06374,-0.03005
6847.99221,-0.00439
6849.92068,-0.02166
6851.84915,-0.00848
6853.77761,0.07702
6855.70608,0.19129
6857.63455,0.22240
6859.56302,0.16786
6861.49149,0.10976
6863.41996,0.08613
6865.34843,0.10417
6867.27690,0.11057
6869.20536,0.05372
6871.13383,-0.02144
6873.06230,-0.03750
6874.99077,0.05347
6876.91924,0.17758
6878.84771,0.17960
6880.77618,-0.00045
6882.70464,-0.14039
6884.63311,-0.07024
6886.56158,0.06869
6888.49005,0.10166
6890.41852,0.09073
6892.34699,0.10240
6894.27546,0.10115
6896.20393,0.08429
6898.13239,0.08490
6900.06086,0.11207
6901.98933,0.11761
6903.91780,0.13059
6905.84627,0.20256
6907.77474,0.24404
6909.70321,0.20925
6911.63167,0.15446
6913.56014,0.13078
6915.48861,0.13963
6917.41708,0.11831
6919.34555,0.06807
6921.27402,0.07977
6923.20249,0.10606
6925.13096,0.06180
6927.05942,-0.01003
6928.98789,-0.01493
6930.91636,0.05126
6932.84483,0.08279
6934.77330,0.06450
6936.70177,0.03680
6938.63024,0.00249
6940.55870,0.00280
6942.48717,0.07486
6944.41564,0.19568
6946.34411,0.28605
6948.27258,0.29667
6950.20105,0.29597
6952.12952,0.22262
6954.05799,0.00662
6955.98645,-0.15206
6957.91492,-0.10350
6959.84339,0.06036
6961.77186,0.20262
6963.70033,0.22214
6965.62880,0.19194
6967.55727,0.19812
6969.48573,0.18504
6971.41420,0.07300
6973.34267,-0.07430
6975.27114,-0.12629
6977.19961,-0.09695
6979.12808,-0.08140
6981.05655,-0.02399
6982.98501,0.11830
6984.91348,0.22598
6986.84195,0.23609
6988.77042,0.17745
6990.69889,0.11656
6992.62736,0.12064
6994.55583,0.16927
6996.48430,0.25433
6998.41276,0.34454
7000.34123,0.34015
7002.26970,0.24267
7004.19817,0.15310
7006.12664,0.17095
7008.05511,0.22667
7009.98358,0.16895
7011.91204,0.09251
7013.84051,0.10436
7015.76898,0.13118
7017.69745,0.10697
7019.62592,0.06612
7021.55439,0.02009
7023.48286,-0.03878
7025.41133,-0.05371
7027.33979,0.01154
7029.26826,0.12773
7031.19673,0.22670
7033.12520,0.29645
7035.05367,0.25789
7036.98214,0.11016
7038.91061,0.06543
7040.83907,0.08087
7042.76754,-0.01516
7044.69601,-0.10268
7046.62448,-0.04835
7048.55295,-0.03525
7050.48142,-0.08085
7052.40989,-0.10540
7054.33836,-0.13083
7056.26682,-0.07293
7058.19529,0.04967
7060.12376,0.11699
7062.05223,0.14239
7063.98070,0.10288
7065.90917,0.06049
7067.83764,0.10734
7069.76610,0.20304
7071.69457,0.23838
7073.62304,0.23151
7075.55151,0.25515
7077.47998,0.22895
7079.40845,0.10348
7081.33692,0.00451
7083.26539,0.03841
7085.19385,0.06577
7087.12232,0.01135
7089.05079,-0.03300
7090.97926,-0.01939
7092.90773,-0.01983
7094.83620,-0.00773
7096.76467,0.12636
7098.69313,0.25754
7100.62160,0.20680
7102.55007,0.16072
7104.47854,0.26369
7106.40701,0.30529
7108.33548,0.09778
7110.26395,-0.13388
7112.19242,-0.21975
7114.12088,-0.20249
7116.04935,-0.19181
7117.97782,-0.22693
7119.90629,-0.17596
7121.83476,-0.00255
7123.76323,0.16634
7125.69170,0.22099
7127.62016,0.17866
7129.54863,0.16393
7131.47710,0.18460
7133.40557,0.15549
7135.33404,0.08747
7137.26251,0.04550
7139.19098,0.04713
7141.11944,0.09667
7143.04791,0.14987
7144.97638,0.10103
7146.90485,0.03820
7148.83332,0.06521
7150.76179,0.10907
7152.69026,0.16792
7154.61873,0.13736
7156.54719,-0.01632
7158.47566,-0.06767
7160.40413,0.01292
7162.33260,0.11443
7164.26107,0.19277
7166.18954,0.15062
7168.11801,0.01376
7170.04647,-0.05060
7171.97494,-0.09535
7173.90341,-0.12372
7175.83188,-0.00352
7177.76035,0.21834
7179.68882,0.36047
7181.61729,0.28961
7183.54576,0.06927
7185.47422,0.02078
7187.40269,0.18631
7189.33116,0.32557
7191.25963,0.29692
7193.18810,0.20253
7195.11657,0.16187
7197.04504,0.18930
7198.97350,0.19102
7200.90197,0.10295
7202.83044,0.00498
7204.75891,0.04648
7206.68738,0.17273
7208.61585,0.19512
7210.54432,0.17712
7212.47279,0.15965
7214.40125,0.11581
7216.32972,0.09442
7218.25819,0.14157
7220.18666,0.16999
7222.11513,0.16720
7224.04360,0.19084
7225.97207,0.29617
7227.90053,0.44386
7229.82900,0.45320
7231.75747,0.29990
7233.68594,0.24376
7235.61441,0.29377
7237.54288,0.25773
7239.47135,0.10940
7241.39982,-0.04045
7243.32828,-0.13358
7245.25675,-0.14698
7247.18522,-0.12640
7249.11369,-0.06938
7251.04216,0.02439
7252.97063,0.05469
7254.89910,-0.00469
7256.82756,-0.02482
7258.75603,0.04027
7260.68450,0.16418
7262.61297,0.19265
7264.54144,0.02855
7266.46991,-0.17117
7268.39838,-0.32203
7270.32685,-0.43315
7272.25531,-0.34625
7274.18378,-0.08980
7276.11225,0.05312
7278.04072,0.07473
7279.96919,0.06698
7281.89766,0.02115
7283.82613,-0.05820
7285.75459,-0.04628
7287.68306,0.03752
7289.61153,0.12220
7291.54000,0.26902
7293.46847,0.44686
7295.39694,0.48441
7297.32541,0.33442
7299.25387,0.13866
7301.18234,-0.02035
7303.11081,-0.09201
7305.03928,0.02478
7306.96775,0.18603
7308.89622,0.23109
7310.82469,0.26830
7312.75316,0.20703
7314.68162,0.05905
7316.61009,0.04254
7318.53856,0.05832
7320.46703,-0.06073
7322.39550,-0.11187
7324.32397,-0.03509
7326.25244,0.00941
7328.18090,0.06358
7330.10937,0.12797
7332.03784,0.10923
7333.96631,0.10142
7335.89478,0.14195
7337.82325,0.18937
7339.75172,0.14636
7341.68019,0.00575
7343.60865,-0.00362
7345.53712,0.14213
7347.46559,0.27145
7349.39406,0.21756
7351.32253,0.16386
7353.25100,0.28413
7355.17947,0.41936
7357.10793,0.36657
7359.03640,0.07271
7360.96487,-0.15216
7362.89334,-0.16547
7364.82181,-0.19245
7366.75028,-0.18188
7368.67875,-0.04265
7370.60722,0.05369
7372.53568,0.01836
7374.46415,-0.14543
7376.39262,-0.27425
7378.32109,-0.15927
7380.24956,0.01778
7382.17803,0.04218
7384.10650,-0.07367
7386.03496,-0.18530
7387.96343,-0.20424
7389.89190,-0.15421
7391.82037,-0.08979
7393.74884,-0.05715
7395.67731,-0.15002
7397.60578,-0.20184
7399.53425,-0.04900
7401.46271,0.10121
7403.39118,0.12107
7405.31965,0.08673
7407.24812,0.05406
7409.17659,0.09406
7411.10506,0.22382
7413.03353,0.33480
7414.96199,0.34133
7416.89046,0.25356
7418.81893,0.13591
7420.74740,0.06545
7422.67587,0.03364
7424.60434,0.02681
7426.53281,0.00215
7428.46128,-0.04822
7430.38974,-0.08931
7432.31821,-0.14330
7434.24668,-0.11758
7436.17515,-0.04942
7438.10362,-0.09922
7440.03209,-0.11360
7441.96056,0.04924
7443.88902,0.22236
7445.81749,0.19205
7447.74596,0.07867
7449.67443,0.06230
7451.60290,0.04565
7453.53137,-0.02974
7455.45984,-0.07955
7457.38831,-0.00231
7459.31677,0.20035
7461.24524,0.22084
7463.17371,0.10410
7465.10218,0.14012
7467.03065,0.23973
7468.95912,0.21001
7470.88759,0.06915
7472.81605,-0.01598
7474.74452,0.05065
7476.67299,0.18062
7478.60146,0.31243
7480.52993,0.34987
7482.45840,0.22740
7484.38687,0.12273
7486.31533,0.03240
7488.24380,-0.07363
7490.17227,-0.05045
7492.10074,0.04734
7494.02921,0.01922
7495.95768,-0.08984
7497.88615,-0.11420
