399.19301,2.21926
401.12148,0.03553
403.04995,-0.33419
404.97842,-0.18759
406.90689,-0.03305
408.83536,0.04659
410.76382,0.14758
412.69229,0.22173
414.62076,0.16478
416.54923,0.04205
418.47770,-0.13546
420.40617,-0.23338
422.33464,-0.15878
424.26311,-0.08980
426.19157,-0.03613
428.12004,0.01084
430.04851,0.01742
431.97698,0.01611
433.90545,0.02222
435.83392,-0.00585
437.76239,-0.03930
439.69085,-0.01986
441.61932,0.03853
443.54779,0.06721
445.47626,0.07151
447.40473,0.12230
449.33320,0.15085
451.26167,0.11749
453.19013,0.10540
455.11860,0.11365
457.04707,0.06618
458.97554,0.00045
460.90401,0.00655
462.83248,0.04816
464.76095,0.05075
466.68942,0.01730
468.61788,0.00176
470.54635,0.32195
472.47482,2.64982
474.40329,5.73993
476.33176,3.72534
478.26023,0.97446
480.18870,0.11317
482.11716,0.02887
484.04563,-0.01151
485.97410,0.02611
487.90257,0.05754
489.83104,0.06351
491.75951,0.06123
493.68798,0.05479
495.61645,0.06065
497.54491,0.06234
499.47338,0.01341
501.40185,-0.04221
503.33032,-0.03002
505.25879,0.01762
507.18726,0.02341
509.11573,0.01123
511.04419,0.01870
512.97266,0.03378
514.90113,0.03755
516.82960,0.02342
518.75807,0.02494
520.68654,0.07720
522.61501,0.12866
524.54348,0.11404
526.47194,0.08401
528.40041,0.07451
530.32888,0.05591
532.25735,0.04482
534.18582,0.05952
536.11429,0.07506
538.04276,0.07003
539.97122,0.06688
541.89969,0.08670
543.82816,0.12037
545.75663,0.14528
547.68510,0.14765
549.61357,0.15250
551.54204,0.18667
553.47051,0.22188
555.39897,0.21865
557.32744,0.17376
559.25591,0.13188
561.18438,0.12762
563.11285,0.13479
565.04132,0.13177
566.96979,0.13392
568.89825,0.13706
570.82672,0.12975
572.75519,0.14156
574.68366,0.17358
576.61213,0.15969
578.54060,0.10105
580.46907,0.06212
582.39754,0.06217
584.32600,0.09382
586.25447,0.14064
588.18294,0.16037
590.11141,0.15000
592.03988,0.14091
593.96835,0.12550
595.89682,0.09798
597.82528,0.08922
599.75375,0.11163
601.68222,0.13593
603.61069,0.13930
605.53916,0.13187
607.46763,0.12176
609.39610,0.10946
611.32456,0.10051
613.25303,0.09380
615.18150,0.08678
617.10997,0.08533
619.03844,0.08610
620.96691,0.09279
622.89538,0.10660
624.82385,0.10867
626.75231,0.10410
628.68078,0.11394
630.60925,0.14351
632.53772,0.17406
634.46619,0.17265
636.39466,0.14797
638.32313,0.13209
640.25159,0.12100
642.18006,0.10627
644.10853,0.10633
646.03700,0.11124
647.96547,0.09119
649.89394,0.06496
651.82241,0.06773
653.75088,0.08973
655.67934,0.11300
657.60781,0.13121
659.53628,0.13491
661.46475,0.12909
663.39322,0.12591
665.32169,0.13057
667.25016,0.14815
669.17862,0.15745
671.10709,0.13751
673.03556,0.10907
674.96403,0.08802
676.89250,0.09238
678.82097,0.10301
680.74944,0.10267
682.67791,0.11355
684.60637,0.13254
686.53484,0.13512
688.46331,0.11936
690.39178,0.10542
692.32025,0.10995
694.24872,0.12260
696.17719,0.13121
698.10565,0.13339
700.03412,0.13140
701.96259,0.13226
703.89106,0.13179
705.81953,0.12991
707.74800,0.13245
709.67647,0.12984
711.60494,0.12371
713.53340,0.12641
715.46187,0.13079
717.39034,0.13096
719.31881,0.13322
721.24728,0.14144
723.17575,0.14623
725.10422,0.13846
727.03268,0.13330
728.96115,0.13653
730.88962,0.13922
732.81809,0.14096
734.74656,0.13235
736.67503,0.11550
738.60350,0.11204
740.53197,0.12321
742.46043,0.13265
744.38890,0.13507
746.31737,0.13331
748.24584,0.13167
750.17431,0.13514
752.10278,0.14161
754.03125,0.14578
755.95971,0.14256
757.88818,0.12874
759.81665,0.11804
761.74512,0.12670
763.67359,0.13942
765.60206,0.14305
767.53053,0.15147
769.45900,0.15407
771.38746,0.13776
773.31593,0.12938
775.24440,0.13732
777.17287,0.13569
779.10134,0.12131
781.02981,0.11047
782.95828,0.11276
784.88674,0.13068
786.81521,0.14308
788.74368,0.12716
790.67215,0.10683
792.60062,0.11385
794.52909,0.13492
796.45756,0.14403
798.38602,0.14146
800.31449,0.13275
802.24296,0.12392
804.17143,0.12865
806.09990,0.14448
808.02837,0.14922
809.95684,0.13816
811.88531,0.12952
813.81377,0.13026
815.74224,0.12573
817.67071,0.10810
819.59918,0.09632
821.52765,0.10443
823.45612,0.11907
825.38459,0.12455
827.31305,0.12499
829.24152,0.13063
831.16999,0.14334
833.09846,0.15391
835.02693,0.14380
836.95540,0.11682
838.88387,0.10071
840.81234,0.10340
842.74080,0.10905
844.66927,0.11493
846.59774,0.13133
848.52621,0.14349
850.45468,0.13831
852.38315,0.13552
854.31162,0.13732
856.24008,0.12864
858.16855,0.11833
860.09702,0.11755
862.02549,0.12102
863.95396,0.12226
865.88243,0.12628
867.81090,0.13148
869.73937,0.12718
871.66783,0.12605
873.59630,0.14508
875.52477,0.16465
877.45324,0.15607
879.38171,0.13274
881.31018,0.12408
883.23865,0.12886
885.16711,0.13265
887.09558,0.13122
889.02405,0.12796
890.95252,0.12468
892.88099,0.12051
894.80946,0.11767
896.73793,0.12216
898.66640,0.13614
900.59486,0.15070
902.52333,0.15317
904.45180,0.14036
906.38027,0.12791
908.30874,0.13011
910.23721,0.13998
912.16568,0.14454
914.09414,0.14015
916.02261,0.13776
917.95108,0.14209
919.87955,0.14531
921.80802,0.14893
923.73649,0.15060
925.66496,0.14409
927.59343,0.13418
929.52189,0.12671
931.45036,0.12627
933.37883,0.13452
935.30730,0.14219
937.23577,0.13853
939.16424,0.13039
941.09271,0.12845
943.02117,0.13058
944.94964,0.13742
946.87811,0.14792
948.80658,0.15121
950.73505,0.14581
952.66352,0.13588
954.59199,0.12409
956.52045,0.11873
958.44892,0.12189
960.37739,0.12744
962.30586,0.13154
964.23433,0.13201
966.16280,0.13233
968.09127,0.13606
970.01974,0.13504
971.94820,0.12872
973.87667,0.13400
975.80514,0.14778
977.73361,0.15256
979.66208,0.15011
981.59055,0.14702
983.51902,0.14758
985.44748,0.15007
987.37595,0.14373
989.30442,0.13201
991.23289,0.13105
993.16136,0.14305
995.08983,0.15280
997.01830,0.15156
998.94677,0.14383
1000.87523,0.13384
1002.80370,0.12613
1004.73217,0.12693
1006.66064,0.13437
1008.58911,0.14326
1010.51758,0.15418
1012.44605,0.16129
1014.37451,0.15672
1016.30298,0.14582
1018.23145,0.13773
1020.15992,0.13798
1022.08839,0.14269
1024.01686,0.13806
1025.94533,0.12974
1027.87380,0.13610
1029.80226,0.14513
1031.73073,0.14087
1033.65920,0.13638
1035.58767,0.13944
1037.51614,0.14310
1039.44461,0.14349
1041.37308,0.14179
1043.30154,0.13989
1045.23001,0.14088
1047.15848,0.14582
1049.08695,0.14740
1051.01542,0.14276
1052.94389,0.14003
1054.87236,0.14254
1056.80083,0.14545
1058.72929,0.14702
1060.65776,0.14787
1062.58623,0.14981
1064.51470,0.15294
1066.44317,0.15365
1068.37164,0.15405
1070.30011,0.15517
1072.22857,0.15860
1074.15704,0.16853
1076.08551,0.17348
1078.01398,0.16366
1079.94245,0.15177
1081.87092,0.14905
1083.79939,0.14997
1085.72786,0.14960
1087.65632,0.14935
1089.58479,0.14722
1091.51326,0.14754
1093.44173,0.15585
1095.37020,0.16032
1097.29867,0.15420
1099.22714,0.14900
1101.15560,0.15139
1103.08407,0.15800
1105.01254,0.16198
1106.94101,0.15603
1108.86948,0.14373
1110.79795,0.13872
1112.72642,0.14591
1114.65489,0.15529
1116.58335,0.15228
1118.51182,0.14272
1120.44029,0.14446
1122.36876,0.14935
1124.29723,0.14521
1126.22570,0.14022
1128.15417,0.13815
1130.08263,0.13531
1132.01110,0.13680
1133.93957,0.14606
1135.86804,0.15484
1137.79651,0.15461
1139.72498,0.14845
1141.65345,0.15013
1143.58191,0.16141
1145.51038,0.16755
1147.43885,0.16560
1149.36732,0.16012
1151.29579,0.15099
1153.22426,0.14724
1155.15273,0.15548
1157.08120,0.16389
1159.00966,0.16183
1160.93813,0.15584
1162.86660,0.15455
1164.79507,0.15695
1166.72354,0.15953
1168.65201,0.15834
1170.58048,0.15369
1172.50894,0.15167
1174.43741,0.15236
1176.36588,0.15252
1178.29435,0.15475
1180.22282,0.15739
1182.15129,0.15227
1184.07976,0.14494
1186.00823,0.14668
1187.93669,0.15413
1189.86516,0.15619
1191.79363,0.14954
1193.72210,0.14586
1195.65057,0.14922
1197.57904,0.14977
1199.50751,0.14816
1201.43597,0.14881
1203.36444,0.15005
1205.29291,0.15376
1207.22138,0.15860
1209.14985,0.15862
1211.07832,0.15792
1213.00679,0.16030
1214.93526,0.15874
1216.86372,0.15236
1218.79219,0.14939
1220.72066,0.15176
1222.64913,0.15454
1224.57760,0.15688
1226.50607,0.16057
1228.43454,0.16286
1230.36300,0.16143
1232.29147,0.15750
1234.21994,0.15164
1236.14841,0.14832
1238.07688,0.15063
1240.00535,0.15102
1241.93382,0.14792
1243.86229,0.14847
1245.79075,0.15124
1247.71922,0.15316
1249.64769,0.15619
1251.57616,0.15557
1253.50463,0.14948
1255.43310,0.14732
1257.36157,0.14905
1259.29003,0.14732
1261.21850,0.14301
1263.14697,0.14099
1265.07544,0.14257
1267.00391,0.14195
1268.93238,0.13792
1270.86085,0.13939
1272.78932,0.14792
1274.71778,0.15578
1276.64625,0.16014
1278.57472,0.16317
1280.50319,0.16192
1282.43166,0.15511
1284.36013,0.15007
1286.28860,0.14907
1288.21706,0.15048
1290.14553,0.15547
1292.07400,0.15949
1294.00247,0.15781
1295.93094,0.15300
1297.85941,0.14773
1299.78788,0.14000
1301.71634,0.12620
1303.64481,0.11063
1305.57328,0.11101
1307.50175,0.13407
1309.43022,0.15737
1311.35869,0.16493
1313.28716,0.16320
1315.21563,0.15828
1317.14409,0.15449
1319.07256,0.15446
1321.00103,0.15528
1322.92950,0.15575
1324.85797,0.15365
1326.78644,0.14791
1328.71491,0.14279
1330.64337,0.13838
1332.57184,0.13756
1334.50031,0.14286
1336.42878,0.14744
1338.35725,0.15095
1340.28572,0.15347
1342.21419,0.16614
1344.14266,0.19909
1346.07112,0.21553
1347.99959,0.19014
1349.92806,0.15845
1351.85653,0.14683
1353.78500,0.14618
1355.71347,0.14817
1357.64194,0.15062
1359.57040,0.15234
1361.49887,0.15531
1363.42734,0.16001
1365.35581,0.16288
1367.28428,0.16323
1369.21275,0.16241
1371.14122,0.16341
1373.06969,0.16765
1374.99815,0.17132
1376.92662,0.17239
1378.85509,0.17268
1380.78356,0.17000
1382.71203,0.16500
1384.64050,0.16438
1386.56897,0.16811
1388.49743,0.16889
1390.42590,0.16736
1392.35437,0.16717
1394.28284,0.16677
1396.21131,0.16721
1398.13978,0.16912
1400.06825,0.16938
1401.99672,0.16858
1403.92518,0.16687
1405.85365,0.16623
1407.78212,0.16796
1409.71059,0.16807
1411.63906,0.16610
1413.56753,0.16585
1415.49600,0.17048
1417.42446,0.17718
1419.35293,0.17739
1421.28140,0.17305
1423.20987,0.17219
1425.13834,0.17139
1427.06681,0.16777
1428.99528,0.16606
1430.92375,0.16645
1432.85221,0.16678
1434.78068,0.16916
1436.70915,0.17039
1438.63762,0.16801
1440.56609,0.16821
1442.49456,0.17123
1444.42303,0.17408
1446.35149,0.17603
1448.27996,0.17719
1450.20843,0.17642
1452.13690,0.17403
1454.06537,0.17343
1455.99384,0.17746
1457.92231,0.17897
1459.85077,0.17366
1461.77924,0.17364
1463.70771,0.17880
1465.63618,0.17736
1467.56465,0.17116
1469.49312,0.17265
1471.42159,0.18102
1473.35006,0.18695
1475.27852,0.18419
1477.20699,0.17896
1479.13546,0.17456
1481.06393,0.17103
1482.99240,0.16809
1484.92087,0.16760
1486.84934,0.17310
1488.77780,0.18221
1490.70627,0.18188
1492.63474,0.17458
1494.56321,0.17204
1496.49168,0.17500
1498.42015,0.17817
1500.34862,0.17746
1502.27709,0.17344
1504.20555,0.17272
1506.13402,0.18777
1508.06249,0.19988
1509.99096,0.18677
1511.91943,0.17704
1513.84790,0.17511
1515.77637,0.17777
1517.70483,0.18637
1519.63330,0.19748
1521.56177,0.20018
1523.49024,0.19447
1525.41871,0.19012
1527.34718,0.18193
1529.27565,0.17220
1531.20412,0.17030
1533.13258,0.17623
1535.06105,0.17994
1536.98952,0.17816
1538.91799,0.17701
1540.84646,0.18260
1542.77493,0.18623
1544.70340,0.18342
1546.63186,0.18149
1548.56033,0.18082
1550.48880,0.17916
1552.41727,0.17949
1554.34574,0.18372
1556.27421,0.18843
1558.20268,0.18805
1560.13115,0.17772
1562.05961,0.17249
1563.98808,0.17323
1565.91655,0.17623
1567.84502,0.17894
1569.77349,0.17941
1571.70196,0.17789
1573.63043,0.17973
1575.55889,0.18381
1577.48736,0.18147
1579.41583,0.17580
1581.34430,0.17314
1583.27277,0.17322
1585.20124,0.17166
1587.12971,0.16743
1589.05818,0.16536
1590.98664,0.16593
1592.91511,0.16597
1594.84358,0.16610
1596.77205,0.16820
1598.70052,0.17121
1600.62899,0.17263
1602.55746,0.17114
1604.48592,0.16939
1606.41439,0.16896
1608.34286,0.16888
1610.27133,0.17099
1612.19980,0.17543
1614.12827,0.18012
1616.05674,0.18289
1617.98521,0.17970
1619.91367,0.17586
1621.84214,0.17620
1623.77061,0.17855
1625.69908,0.17920
1627.62755,0.17866
1629.55602,0.17686
1631.48449,0.17563
1633.41295,0.17904
1635.34142,0.18564
1637.26989,0.18414
1639.19836,0.17823
1641.12683,0.17612
1643.05530,0.18046
1644.98377,0.19093
1646.91223,0.19904
1648.84070,0.19462
1650.76917,0.18769
1652.69764,0.18281
1654.62611,0.17853
1656.55458,0.17472
1658.48305,0.17412
1660.41152,0.17771
1662.33998,0.18255
1664.26845,0.18294
1666.19692,0.18211
1668.12539,0.18610
1670.05386,0.18972
1671.98233,0.18633
1673.91080,0.18307
1675.83926,0.18294
1677.76773,0.18521
1679.69620,0.18927
1681.62467,0.19654
1683.55314,0.20727
1685.48161,0.20710
1687.41008,0.19811
1689.33855,0.19249
1691.26701,0.18934
1693.19548,0.18848
1695.12395,0.19285
1697.05242,0.19949
1698.98089,0.20124
1700.90936,0.19766
1702.83783,0.19221
1704.76629,0.18942
1706.69476,0.18766
1708.62323,0.18399
1710.55170,0.18174
1712.48017,0.18320
1714.40864,0.18646
1716.33711,0.18853
1718.26558,0.18466
1720.19404,0.17949
1722.12251,0.17699
1724.05098,0.17487
1725.97945,0.17259
1727.90792,0.17179
1729.83639,0.17271
1731.76486,0.17398
1733.69332,0.17597
1735.62179,0.17813
1737.55026,0.17950
1739.47873,0.18024
1741.40720,0.18021
1743.33567,0.18192
1745.26414,0.18448
1747.19261,0.18474
1749.12107,0.18427
1751.04954,0.18276
1752.97801,0.17852
1754.90648,0.17617
1756.83495,0.17669
1758.76342,0.17659
1760.69189,0.17523
1762.62035,0.17316
1764.54882,0.17155
1766.47729,0.17304
1768.40576,0.17902
1770.33423,0.18533
1772.26270,0.18193
1774.19117,0.17212
1776.11964,0.17026
1778.04810,0.17644
1779.97657,0.18414
1781.90504,0.18571
1783.83351,0.18136
1785.76198,0.17730
1787.69045,0.17777
1789.61892,0.18247
1791.54738,0.18609
1793.47585,0.18285
1795.40432,0.17979
1797.33279,0.18062
1799.26126,0.17928
1801.18973,0.17534
1803.11820,0.17449
1805.04666,0.17570
1806.97513,0.17583
1808.90360,0.17543
1810.83207,0.17643
1812.76054,0.17747
1814.68901,0.17727
1816.61748,0.17378
1818.54595,0.16514
1820.47441,0.15853
1822.40288,0.16135
1824.33135,0.17138
1826.25982,0.17969
1828.18829,0.18209
1830.11676,0.18076
1832.04523,0.17830
1833.97369,0.17758
1835.90216,0.17787
1837.83063,0.17642
1839.75910,0.17362
1841.68757,0.17201
1843.61604,0.17098
1845.54451,0.17019
1847.47298,0.17178
1849.40144,0.17493
1851.32991,0.17755
1853.25838,0.17729
1855.18685,0.17450
1857.11532,0.17312
1859.04379,0.17355
1860.97226,0.17361
1862.90072,0.17508
1864.82919,0.17839
1866.75766,0.17997
1868.68613,0.18017
1870.61460,0.18030
1872.54307,0.17869
1874.47154,0.17756
1876.40001,0.17881
1878.32847,0.17990
1880.25694,0.17993
1882.18541,0.18035
1884.11388,0.17976
1886.04235,0.17930
1887.97082,0.18185
1889.89929,0.18411
1891.82775,0.18327
1893.75622,0.18102
1895.68469,0.17808
1897.61316,0.17629
1899.54163,0.17639
1901.47010,0.17569
1903.39857,0.17375
1905.32704,0.17265
1907.25550,0.17320
1909.18397,0.17580
1911.11244,0.17898
1913.04091,0.18053
1914.96938,0.18075
1916.89785,0.18013
1918.82632,0.18009
1920.75478,0.18172
1922.68325,0.18200
1924.61172,0.17856
1926.54019,0.17507
1928.46866,0.17485
1930.39713,0.17682
1932.32560,0.17884
1934.25407,0.17954
1936.18253,0.17876
1938.11100,0.17801
1940.03947,0.17892
1941.96794,0.17961
1943.89641,0.17685
1945.82488,0.17416
1947.75335,0.17541
1949.68181,0.17752
1951.61028,0.17793
1953.53875,0.17807
1955.46722,0.17753
1957.39569,0.17580
1959.32416,0.17496
1961.25263,0.17683
1963.18110,0.18024
1965.10956,0.18124
1967.03803,0.17942
1968.96650,0.17823
1970.89497,0.17874
1972.82344,0.17980
1974.75191,0.17956
1976.68038,0.17826
1978.60884,0.17812
1980.53731,0.17821
1982.46578,0.17716
1984.39425,0.17648
1986.32272,0.17735
1988.25119,0.17852
1990.17966,0.17827
1992.10812,0.17686
1994.03659,0.17595
1995.96506,0.17527
1997.89353,0.17442
1999.82200,0.17513
2001.75047,0.17590
2003.67894,0.17478
2005.60741,0.17444
2007.53587,0.17562
2009.46434,0.17578
2011.39281,0.17515
2013.32128,0.17619
2015.24975,0.17725
2017.17822,0.17663
2019.10669,0.17856
2021.03515,0.18424
2022.96362,0.18729
2024.89209,0.18382
2026.82056,0.17885
2028.74903,0.17688
2030.67750,0.17557
2032.60597,0.17413
2034.53444,0.17546
2036.46290,0.17957
2038.39137,0.18318
2040.31984,0.18388
2042.24831,0.18191
2044.17678,0.17982
2046.10525,0.17922
2048.03372,0.17930
2049.96218,0.17918
2051.89065,0.17788
2053.81912,0.17593
2055.74759,0.17645
2057.67606,0.17899
2059.60453,0.18060
2061.53300,0.18062
2063.46147,0.17966
2065.38993,0.17974
2067.31840,0.18108
2069.24687,0.18120
2071.17534,0.18003
2073.10381,0.17828
2075.03228,0.17627
2076.96075,0.17621
2078.88921,0.17724
2080.81768,0.17610
2082.74615,0.17572
2084.67462,0.17853
2086.60309,0.18073
2088.53156,0.18074
2090.46003,0.18057
2092.38850,0.18062
2094.31696,0.17900
2096.24543,0.17715
2098.17390,0.17875
2100.10237,0.18169
2102.03084,0.18276
2103.95931,0.18287
2105.88778,0.18252
2107.81624,0.18061
2109.74471,0.17852
2111.67318,0.17954
2113.60165,0.18309
2115.53012,0.18565
2117.45859,0.18432
2119.38706,0.18059
2121.31553,0.18035
2123.24399,0.18300
2125.17246,0.18250
2127.10093,0.17980
2129.02940,0.17832
2130.95787,0.17736
2132.88634,0.17614
2134.81481,0.17547
2136.74327,0.17590
2138.67174,0.17733
2140.60021,0.17975
2142.52868,0.18252
2144.45715,0.18310
2146.38562,0.18054
2148.31409,0.17871
2150.24255,0.18057
2152.17102,0.18329
2154.09949,0.18295
2156.02796,0.17945
2157.95643,0.17571
2159.88490,0.17501
2161.81337,0.17683
2163.74184,0.17815
2165.67030,0.18003
2167.59877,0.18252
2169.52724,0.18197
2171.45571,0.17953
2173.38418,0.17918
2175.31265,0.18042
2177.24112,0.18076
2179.16958,0.18133
2181.09805,0.18313
2183.02652,0.18421
2184.95499,0.18333
2186.88346,0.18147
2188.81193,0.18079
2190.74040,0.18087
2192.66887,0.17911
2194.59733,0.17661
2196.52580,0.17768
2198.45427,0.18095
2200.38274,0.18057
2202.31121,0.17762
2204.23968,0.17667
2206.16815,0.17724
2208.09661,0.17672
2210.02508,0.17551
2211.95355,0.17567
2213.88202,0.17698
2215.81049,0.17853
2217.73896,0.17939
2219.66743,0.17832
2221.59590,0.17700
2223.52436,0.17700
2225.45283,0.17796
2227.38130,0.17965
2229.30977,0.18033
2231.23824,0.17968
2233.16671,0.17958
2235.09518,0.18021
2237.02364,0.18014
2238.95211,0.17849
2240.88058,0.17754
2242.80905,0.17881
2244.73752,0.18001
2246.66599,0.17977
2248.59446,0.17894
2250.52293,0.17733
2252.45139,0.17398
2254.37986,0.17218
2256.30833,0.17484
2258.23680,0.17772
2260.16527,0.17744
2262.09374,0.17556
2264.02221,0.17334
2265.95067,0.17201
2267.87914,0.17212
2269.80761,0.17248
2271.73608,0.17381
2273.66455,0.17721
2275.59302,0.17955
2277.52149,0.17870
2279.44996,0.17721
2281.37842,0.17509
2283.30689,0.17244
2285.23536,0.17267
2287.16383,0.17379
2289.09230,0.17203
2291.02077,0.16952
2292.94924,0.16892
2294.87770,0.16885
2296.80617,0.16806
2298.73464,0.16890
2300.66311,0.17058
2302.59158,0.16767
2304.52005,0.15918
2306.44852,0.15091
2308.37699,0.14800
2310.30545,0.14725
2312.23392,0.14540
2314.16239,0.14375
2316.09086,0.13993
2318.01933,0.13274
2319.94780,0.12437
2321.87627,0.11581
2323.80473,0.11230
2325.73320,0.11628
2327.66167,0.11642
2329.59014,0.11070
2331.51861,0.11339
2333.44708,0.12214
2335.37555,0.12218
2337.30401,0.11239
2339.23248,0.09741
2341.16095,0.08354
2343.08942,0.08523
2345.01789,0.10249
2346.94636,0.11837
2348.87483,0.12390
2350.80330,0.11718
2352.73176,0.10255
2354.66023,0.09049
2356.58870,0.08354
2358.51717,0.07417
2360.44564,0.05807
2362.37411,0.05995
2364.30258,0.09036
2366.23104,0.10994
2368.15951,0.10378
2370.08798,0.09957
2372.01645,0.10824
2373.94492,0.12141
2375.87339,0.13349
2377.80186,0.14462
2379.73033,0.15493
2381.65879,0.16162
2383.58726,0.16546
2385.51573,0.17039
2387.44420,0.17567
2389.37267,0.17802
2391.30114,0.17839
2393.22961,0.17835
2395.15807,0.17777
2397.08654,0.17763
2399.01501,0.17805
2400.94348,0.17953
2402.87195,0.18284
2404.80042,0.18490
2406.72889,0.18329
2408.65736,0.18108
2410.58582,0.18039
2412.51429,0.17936
2414.44276,0.17879
2416.37123,0.17981
2418.29970,0.18079
2420.22817,0.18138
2422.15664,0.18222
2424.08510,0.18394
2426.01357,0.18489
2427.94204,0.18285
2429.87051,0.18021
2431.79898,0.17940
2433.72745,0.17894
2435.65592,0.17769
2437.58439,0.17737
2439.51285,0.17856
2441.44132,0.17908
2443.36979,0.17863
2445.29826,0.17843
2447.22673,0.17806
2449.15520,0.17736
2451.08367,0.17731
2453.01213,0.17847
2454.94060,0.18045
2456.86907,0.18154
2458.79754,0.18082
2460.72601,0.17954
2462.65448,0.17829
2464.58295,0.17750
2466.51142,0.17916
2468.43988,0.18076
2470.36835,0.17830
2472.29682,0.17623
2474.22529,0.17885
2476.15376,0.18232
2478.08223,0.18351
2480.01070,0.18372
2481.93916,0.18312
2483.86763,0.18068
2485.79610,0.17854
2487.72457,0.17895
2489.65304,0.17948
2491.58151,0.17822
2493.50998,0.17746
2495.43844,0.17746
2497.36691,0.17845
2499.29538,0.18170
2501.22385,0.18248
2503.15232,0.17987
2505.08079,0.18075
2507.00926,0.18497
2508.93773,0.18702
2510.86619,0.18672
2512.79466,0.18578
2514.72313,0.18333
2516.65160,0.18003
2518.58007,0.17855
2520.50854,0.17907
2522.43701,0.17988
2524.36547,0.18088
2526.29394,0.18213
2528.22241,0.18266
2530.15088,0.18329
2532.07935,0.18424
2534.00782,0.18320
2535.93629,0.18073
2537.86476,0.17895
2539.79322,0.17772
2541.72169,0.17774
2543.65016,0.18020
2545.57863,0.18316
2547.50710,0.18358
2549.43557,0.18233
2551.36404,0.18141
2553.29250,0.18109
2555.22097,0.18225
2557.14944,0.18418
2559.07791,0.18487
2561.00638,0.18391
2562.93485,0.18134
2564.86332,0.17809
2566.79179,0.17734
2568.72025,0.18035
2570.64872,0.18370
2572.57719,0.18486
2574.50566,0.18395
2576.43413,0.18195
2578.36260,0.18199
2580.29107,0.18484
2582.21953,0.18563
2584.14800,0.18456
2586.07647,0.18544
2588.00494,0.18564
2589.93341,0.18438
2591.86188,0.18312
2593.79035,0.18050
2595.71882,0.17844
2597.64728,0.17872
2599.57575,0.18104
2601.50422,0.18625
2603.43269,0.19129
2605.36116,0.19138
2607.28963,0.18791
2609.21810,0.18518
2611.14656,0.18419
2613.07503,0.18445
2615.00350,0.18508
2616.93197,0.18459
2618.86044,0.18312
2620.78891,0.18253
2622.71738,0.18440
2624.64585,0.18584
2626.57431,0.18448
2628.50278,0.18349
2630.43125,0.18304
2632.35972,0.18175
2634.28819,0.18157
2636.21666,0.18240
2638.14513,0.18165
2640.07359,0.18063
2642.00206,0.18257
2643.93053,0.18516
2645.85900,0.18528
2647.78747,0.18503
2649.71594,0.18797
2651.64441,0.19300
2653.57288,0.19401
2655.50134,0.19021
2657.42981,0.18773
2659.35828,0.18780
2661.28675,0.18699
2663.21522,0.18507
2665.14369,0.18450
2667.07216,0.18749
2669.00062,0.19112
2670.92909,0.19110
2672.85756,0.18959
2674.78603,0.18858
2676.71450,0.18796
2678.64297,0.18870
2680.57144,0.18973
2682.49990,0.18906
2684.42837,0.18730
2686.35684,0.18547
2688.28531,0.18396
2690.21378,0.18417
2692.14225,0.18632
2694.07072,0.18906
2695.99919,0.19084
2697.92765,0.19110
2699.85612,0.19113
2701.78459,0.19061
2703.71306,0.18849
2705.64153,0.18658
2707.57000,0.18597
2709.49847,0.18526
2711.42693,0.18414
2713.35540,0.18367
2715.28387,0.18546
2717.21234,0.18869
2719.14081,0.18976
2721.06928,0.18917
2722.99775,0.18842
2724.92622,0.18661
2726.85468,0.18530
2728.78315,0.18618
2730.71162,0.18748
2732.64009,0.18879
2734.56856,0.19290
2736.49703,0.19833
2738.42550,0.19930
2740.35396,0.19583
2742.28243,0.19380
2744.21090,0.19480
2746.13937,0.19479
2748.06784,0.19191
2749.99631,0.18914
2751.92478,0.19006
2753.85325,0.19323
2755.78171,0.19408
2757.71018,0.19228
2759.63865,0.19265
2761.56712,0.19580
2763.49559,0.19650
2765.42406,0.19460
2767.35253,0.19086
2769.28099,0.18528
2771.20946,0.18406
2773.13793,0.18869
2775.06640,0.19338
2776.99487,0.19548
2778.92334,0.19695
2780.85181,0.19866
2782.78028,0.19799
2784.70874,0.19559
2786.63721,0.19294
2788.56568,0.18910
2790.49415,0.18705
2792.42262,0.18785
2794.35109,0.18864
2796.27956,0.18897
2798.20802,0.18889
2800.13649,0.19059
2802.06496,0.19546
2803.99343,0.19903
2805.92190,0.19902
2807.85037,0.19890
2809.77884,0.19898
2811.70731,0.19718
2813.63577,0.19618
2815.56424,0.19720
2817.49271,0.19815
2819.42118,0.19907
2821.34965,0.19876
2823.27812,0.19805
2825.20659,0.20066
2827.13505,0.20366
2829.06352,0.20425
2830.99199,0.20509
2832.92046,0.20394
2834.84893,0.19969
2836.77740,0.19849
2838.70587,0.20075
2840.63433,0.19915
2842.56280,0.19345
2844.49127,0.19084
2846.41974,0.19127
2848.34821,0.19192
2850.27668,0.19446
2852.20515,0.19770
2854.13362,0.19972
2856.06208,0.20117
2857.99055,0.20093
2859.91902,0.19876
2861.84749,0.19728
2863.77596,0.19548
2865.70443,0.19223
2867.63290,0.19029
2869.56136,0.19130
2871.48983,0.19403
2873.41830,0.19633
2875.34677,0.19786
2877.27524,0.19762
2879.20371,0.19649
2881.13218,0.19755
2883.06065,0.19830
2884.98911,0.19677
2886.91758,0.19591
2888.84605,0.19641
2890.77452,0.19608
2892.70299,0.19398
2894.63146,0.19111
2896.55993,0.19193
2898.48839,0.19648
2900.41686,0.19669
2902.34533,0.19125
2904.27380,0.18518
2906.20227,0.18329
2908.13074,0.18778
2910.05921,0.19189
2911.98768,0.19011
2913.91614,0.18406
2915.84461,0.17742
2917.77308,0.17725
2919.70155,0.18398
2921.63002,0.18843
2923.55849,0.18731
2925.48696,0.18613
2927.41542,0.19067
2929.34389,0.19750
2931.27236,0.20049
2933.20083,0.19988
2935.12930,0.19243
2937.05777,0.18266
2938.98624,0.18490
2940.91471,0.19397
2942.84317,0.19688
2944.77164,0.19132
2946.70011,0.17968
2948.62858,0.17615
2950.55705,0.18705
2952.48552,0.19561
2954.41399,0.19190
2956.34245,0.17912
2958.27092,0.17053
2960.19939,0.17864
2962.12786,0.19184
2964.05633,0.19441
2965.98480,0.18579
2967.91327,0.17597
2969.84174,0.17843
2971.77020,0.18950
2973.69867,0.19591
2975.62714,0.19317
2977.55561,0.18438
2979.48408,0.18265
2981.41255,0.19351
2983.34102,0.20419
2985.26948,0.20370
2987.19795,0.19276
2989.12642,0.18587
2991.05489,0.19377
2992.98336,0.20550
2994.91183,0.20813
2996.84030,0.20307
2998.76877,0.19882
3000.69723,0.19864
3002.62570,0.19929
3004.55417,0.19659
3006.48264,0.18935
3008.41111,0.18261
3010.33958,0.17567
3012.26805,0.15745
3014.19651,0.12547
3016.12498,0.10086
3018.05345,0.11378
3019.98192,0.15817
3021.91039,0.19354
3023.83886,0.20359
3025.76733,0.20118
3027.69579,0.19701
3029.62426,0.19635
3031.55273,0.19932
3033.48120,0.20251
3035.40967,0.20502
3037.33814,0.20520
3039.26661,0.20252
3041.19508,0.20086
3043.12354,0.20122
3045.05201,0.19762
3046.98048,0.18949
3048.90895,0.18794
3050.83742,0.19462
3052.76589,0.19769
3054.69436,0.19205
3056.62282,0.18456
3058.55129,0.18935
3060.47976,0.20353
3062.40823,0.20768
3064.33670,0.19846
3066.26517,0.18723
3068.19364,0.18780
3070.12211,0.19939
3072.05057,0.20373
3073.97904,0.19214
3075.90751,0.17903
3077.83598,0.18196
3079.76445,0.19285
3081.69292,0.19469
3083.62139,0.18343
3085.54985,0.17099
3087.47832,0.17379
3089.40679,0.18483
3091.33526,0.18618
3093.26373,0.17596
3095.19220,0.17154
3097.12067,0.18409
3099.04914,0.19967
3100.97760,0.19960
3102.90607,0.18294
3104.83454,0.17483
3106.76301,0.18818
3108.69148,0.20220
3110.61995,0.19884
3112.54842,0.18646
3114.47688,0.18580
3116.40535,0.19547
3118.33382,0.19824
3120.26229,0.19217
3122.19076,0.18870
3124.11923,0.19489
3126.04770,0.20203
3127.97617,0.20035
3129.90463,0.19357
3131.83310,0.19284
3133.76157,0.20169
3135.69004,0.21070
3137.61851,0.21145
3139.54698,0.20402
3141.47545,0.19605
3143.40391,0.19299
3145.33238,0.19164
3147.26085,0.19088
3149.18932,0.19267
3151.11779,0.19441
3153.04626,0.19285
3154.97473,0.19140
3156.90320,0.19320
3158.83166,0.19489
3160.76013,0.19481
3162.68860,0.19714
3164.61707,0.20321
3166.54554,0.20847
3168.47401,0.21233
3170.40248,0.21507
3172.33094,0.21353
3174.25941,0.21020
3176.18788,0.20999
3178.11635,0.21114
3180.04482,0.21033
3181.97329,0.20854
3183.90176,0.20459
3185.83022,0.19741
3187.75869,0.19300
3189.68716,0.19747
3191.61563,0.20618
3193.54410,0.20857
3195.47257,0.20551
3197.40104,0.20466
3199.32951,0.20357
3201.25797,0.19951
3203.18644,0.19888
3205.11491,0.20094
3207.04338,0.19988
3208.97185,0.19934
3210.90032,0.20198
3212.82879,0.20545
3214.75725,0.20777
3216.68572,0.20801
3218.61419,0.20454
3220.54266,0.19744
3222.47113,0.19425
3224.39960,0.19561
3226.32807,0.19541
3228.25654,0.19548
3230.18500,0.19558
3232.11347,0.19159
3234.04194,0.18767
3235.97041,0.19126
3237.89888,0.19974
3239.82735,0.20380
3241.75582,0.20330
3243.68428,0.20202
3245.61275,0.19913
3247.54122,0.19599
3249.46969,0.19349
3251.39816,0.19415
3253.32663,0.20090
3255.25510,0.20636
3257.18357,0.20506
3259.11203,0.20196
3261.04050,0.20086
3262.96897,0.19939
3264.89744,0.19515
3266.82591,0.19101
3268.75438,0.19084
3270.68285,0.19265
3272.61131,0.19368
3274.53978,0.19669
3276.46825,0.20213
3278.39672,0.20492
3280.32519,0.20192
3282.25366,0.19674
3284.18213,0.19455
3286.11060,0.19437
3288.03906,0.19321
3289.96753,0.19210
3291.89600,0.19541
3293.82447,0.20045
3295.75294,0.19928
3297.68141,0.19683
3299.60988,0.19876
3301.53834,0.19732
3303.46681,0.19134
3305.39528,0.18906
3307.32375,0.19198
3309.25222,0.19678
3311.18069,0.20019
3313.10916,0.20031
3315.03763,0.19922
3316.96609,0.19791
3318.89456,0.19678
3320.82303,0.19828
3322.75150,0.20214
3324.67997,0.20672
3326.60844,0.20747
3328.53691,0.20219
3330.46537,0.20144
3332.39384,0.20825
3334.32231,0.21017
3336.25078,0.20463
3338.17925,0.19929
3340.10772,0.19666
3342.03619,0.19872
3343.96466,0.20444
3345.89312,0.20636
3347.82159,0.20575
3349.75006,0.20737
3351.67853,0.20619
3353.60700,0.19905
3355.53547,0.19340
3357.46394,0.19403
3359.39240,0.19644
3361.32087,0.19754
3363.24934,0.19705
3365.17781,0.19612
3367.10628,0.19547
3369.03475,0.19482
3370.96322,0.19571
3372.89168,0.19775
3374.82015,0.19882
3376.74862,0.19616
3378.67709,0.19005
3380.60556,0.18532
3382.53403,0.18465
3384.46250,0.18835
3386.39097,0.19478
3388.31943,0.20008
3390.24790,0.20108
3392.17637,0.19686
3394.10484,0.19328
3396.03331,0.19720
3397.96178,0.20267
3399.89025,0.20005
3401.81871,0.19207
3403.74718,0.18719
3405.67565,0.18776
3407.60412,0.19132
3409.53259,0.19289
3411.46106,0.18864
3413.38953,0.18586
3415.31800,0.19085
3417.24646,0.19876
3419.17493,0.20464
3421.10340,0.20582
3423.03187,0.20146
3424.96034,0.19388
3426.88881,0.18917
3428.81728,0.19067
3430.74574,0.19389
3432.67421,0.19607
3434.60268,0.19559
3436.53115,0.19131
3438.45962,0.18548
3440.38809,0.18113
3442.31656,0.18208
3444.24503,0.18613
3446.17349,0.18801
3448.10196,0.18760
3450.03043,0.18593
3451.95890,0.18414
3453.88737,0.18058
3455.81584,0.17507
3457.74431,0.17501
3459.67277,0.18222
3461.60124,0.18829
3463.52971,0.18796
3465.45818,0.18353
3467.38665,0.18026
3469.31512,0.18133
3471.24359,0.18253
3473.17206,0.17971
3475.10052,0.17715
3477.02899,0.17876
3478.95746,0.18056
3480.88593,0.17720
3482.81440,0.17143
3484.74287,0.16975
3486.67134,0.17042
3488.59980,0.16806
3490.52827,0.16439
3492.45674,0.16452
3494.38521,0.16590
3496.31368,0.16501
3498.24215,0.16650
3500.17062,0.17162
3502.09909,0.17557
3504.02755,0.17637
3505.95602,0.17533
3507.88449,0.17274
3509.81296,0.16852
3511.74143,0.16694
3513.66990,0.17086
3515.59837,0.17629
3517.52683,0.17891
3519.45530,0.17825
3521.38377,0.17487
3523.31224,0.16910
3525.24071,0.16597
3527.16918,0.16850
3529.09765,0.17001
3531.02611,0.16473
3532.95458,0.15548
3534.88305,0.14982
3536.81152,0.15250
3538.73999,0.15746
3540.66846,0.15674
3542.59693,0.15463
3544.52540,0.15934
3546.45386,0.16609
3548.38233,0.16450
3550.31080,0.15904
3552.23927,0.15862
3554.16774,0.16068
3556.09621,0.15945
3558.02468,0.15518
3559.95314,0.15055
3561.88161,0.15282
3563.81008,0.16191
3565.73855,0.16775
3567.66702,0.16673
3569.59549,0.16219
3571.52396,0.15531
3573.45243,0.14705
3575.38089,0.14085
3577.30936,0.14078
3579.23783,0.14618
3581.16630,0.14883
3583.09477,0.14303
3585.02324,0.13628
3586.95171,0.13766
3588.88017,0.14179
3590.80864,0.14236
3592.73711,0.14365
3594.66558,0.14607
3596.59405,0.14668
3598.52252,0.14342
3600.45099,0.13655
3602.37946,0.13243
3604.30792,0.13268
3606.23639,0.13305
3608.16486,0.13593
3610.09333,0.14315
3612.02180,0.14810
3613.95027,0.14479
3615.87874,0.13681
3617.80720,0.13605
3619.73567,0.14214
3621.66414,0.14133
3623.59261,0.13544
3625.52108,0.13203
3627.44955,0.13985
3629.37802,0.15562
3631.30649,0.14868
3633.23495,0.13281
3635.16342,0.12613
3637.09189,0.12621
3639.02036,0.12697
3640.94883,0.12666
3642.87730,0.12691
3644.80577,0.12951
3646.73423,0.13362
3648.66270,0.13795
3650.59117,0.13667
3652.51964,0.13151
3654.44811,0.12894
3656.37658,0.12819
3658.30505,0.12572
3660.23352,0.12242
3662.16198,0.12194
3664.09045,0.12432
3666.01892,0.12565
3667.94739,0.12428
3669.87586,0.12105
3671.80433,0.11829
3673.73280,0.11934
3675.66126,0.12431
3677.58973,0.12600
3679.51820,0.12432
3681.44667,0.12492
3683.37514,0.12865
3685.30361,0.13242
3687.23208,0.13516
3689.16055,0.13351
3691.08901,0.12522
3693.01748,0.12061
3694.94595,0.12125
3696.87442,0.12378
3698.80289,0.12547
3700.73136,0.12455
3702.65983,0.12331
3704.58829,0.12379
3706.51676,0.12268
3708.44523,0.12207
3710.37370,0.12940
3712.30217,0.13634
3714.23064,0.13309
3716.15911,0.12753
3718.08757,0.12416
3720.01604,0.12487
3721.94451,0.12557
3723.87298,0.12261
3725.80145,0.12113
3727.72992,0.12466
3729.65839,0.13070
3731.58686,0.13582
3733.51532,0.13678
3735.44379,0.13499
3737.37226,0.12995
3739.30073,0.12204
3741.22920,0.11900
3743.15767,0.12640
3745.08614,0.13989
3747.01460,0.14236
3748.94307,0.13753
3750.87154,0.12886
3752.80001,0.11667
3754.72848,0.11123
3756.65695,0.11430
3758.58542,0.12159
3760.51389,0.12659
3762.44235,0.12833
3764.37082,0.12668
3766.29929,0.11996
3768.22776,0.11632
3770.15623,0.12199
3772.08470,0.12895
3774.01317,0.13080
3775.94163,0.12896
3777.87010,0.12611
3779.79857,0.12537
3781.72704,0.12569
3783.65551,0.12351
3785.58398,0.12048
3787.51245,0.11870
3789.44092,0.11636
3791.36938,0.11628
3793.29785,0.11878
3795.22632,0.11641
3797.15479,0.11053
3799.08326,0.11160
3801.01173,0.12023
3802.94020,0.12641
3804.86866,0.12528
3806.79713,0.11894
3808.72560,0.11247
3810.65407,0.11231
3812.58254,0.11520
3814.51101,0.12045
3816.43948,0.13016
3818.36795,0.13775
3820.29641,0.13746
3822.22488,0.12797
3824.15335,0.11840
3826.08182,0.11221
3828.01029,0.10722
3829.93876,0.10270
3831.86723,0.10284
3833.79569,0.11520
3835.72416,0.13396
3837.65263,0.14005
3839.58110,0.12795
3841.50957,0.11797
3843.43804,0.11502
3845.36651,0.11366
3847.29498,0.11319
3849.22344,0.11537
3851.15191,0.11986
3853.08038,0.11953
3855.00885,0.11125
3856.93732,0.10945
3858.86579,0.11290
3860.79426,0.11684
3862.72272,0.12147
3864.65119,0.12752
3866.57966,0.12560
3868.50813,0.11392
3870.43660,0.10436
3872.36507,0.10413
3874.29354,0.10544
3876.22200,0.10561
3878.15047,0.10760
3880.07894,0.11342
3882.00741,0.11565
3883.93588,0.11250
3885.86435,0.11270
3887.79282,0.11484
3889.72129,0.11542
3891.64975,0.11469
3893.57822,0.11098
3895.50669,0.10696
3897.43516,0.10597
3899.36363,0.10970
3901.29210,0.11587
3903.22057,0.12030
3905.14903,0.12277
3907.07750,0.12036
3909.00597,0.11333
3910.93444,0.10742
3912.86291,0.10695
3914.79138,0.10900
3916.71985,0.10882
3918.64832,0.10973
3920.57678,0.11340
3922.50525,0.11445
3924.43372,0.11275
3926.36219,0.11299
3928.29066,0.11524
3930.21913,0.11572
3932.14760,0.11474
3934.07606,0.11123
3936.00453,0.10383
3937.93300,0.09983
3939.86147,0.10409
3941.78994,0.11024
3943.71841,0.10961
3945.64688,0.10420
3947.57535,0.10239
3949.50381,0.10648
3951.43228,0.10871
3953.36075,0.10229
3955.28922,0.09195
3957.21769,0.08786
3959.14616,0.08970
3961.07463,0.09097
3963.00309,0.09214
3964.93156,0.09293
3966.86003,0.09442
3968.78850,0.09858
3970.71697,0.10205
3972.64544,0.10420
3974.57391,0.10464
3976.50238,0.10123
3978.43084,0.09650
3980.35931,0.09523
3982.28778,0.09774
3984.21625,0.10021
3986.14472,0.10168
3988.07319,0.10326
3990.00166,0.10373
3991.93012,0.10321
3993.85859,0.10458
3995.78706,0.10477
3997.71553,0.09901
3999.64400,0.09250
4001.57247,0.09219
4003.50094,0.09548
4005.42941,0.09678
4007.35787,0.09620
4009.28634,0.09605
4011.21481,0.09599
4013.14328,0.09341
4015.07175,0.09063
4017.00022,0.09274
4018.92869,0.09495
4020.85715,0.09208
4022.78562,0.09103
4024.71409,0.09606
4026.64256,0.10273
4028.57103,0.10832
4030.49950,0.10943
4032.42797,0.10456
4034.35644,0.09822
4036.28490,0.09359
4038.21337,0.09161
4040.14184,0.08996
4042.07031,0.08849
4043.99878,0.09101
4045.92725,0.09582
4047.85572,0.09891
4049.78418,0.09975
4051.71265,0.09776
4053.64112,0.09147
4055.56959,0.08598
4057.49806,0.08903
4059.42653,0.09427
4061.35500,0.09296
4063.28346,0.09084
4065.21193,0.09226
4067.14040,0.09421
4069.06887,0.09412
4070.99734,0.09032
4072.92581,0.08647
4074.85428,0.08628
4076.78275,0.08626
4078.71121,0.08758
4080.63968,0.09424
4082.56815,0.09823
4084.49662,0.09663
4086.42509,0.09718
4088.35356,0.09639
4090.28203,0.09157
4092.21049,0.08822
4094.13896,0.08598
4096.06743,0.08703
4097.99590,0.09172
4099.92437,0.09090
4101.85284,0.08451
4103.78131,0.08281
4105.70978,0.08567
4107.63824,0.08389
4109.56671,0.07756
4111.49518,0.07537
4113.42365,0.08113
4115.35212,0.08810
4117.28059,0.08845
4119.20906,0.08519
4121.13752,0.08351
4123.06599,0.08350
4124.99446,0.08616
4126.92293,0.08980
4128.85140,0.08804
4130.77987,0.08138
4132.70834,0.07770
4134.63681,0.08107
4136.56527,0.08888
4138.49374,0.09431
4140.42221,0.09270
4142.35068,0.08808
4144.27915,0.08622
4146.20762,0.08439
4148.13609,0.07913
4150.06455,0.07529
4151.99302,0.07710
4153.92149,0.08263
4155.84996,0.08507
4157.77843,0.08128
4159.70690,0.07953
4161.63537,0.08328
4163.56384,0.08595
4165.49230,0.08578
4167.42077,0.08499
4169.34924,0.08262
4171.27771,0.07745
4173.20618,0.07263
4175.13465,0.07228
4177.06312,0.07661
4178.99158,0.08339
4180.92005,0.08992
4182.84852,0.09258
4184.77699,0.08893
4186.70546,0.08031
4188.63393,0.07328
4190.56240,0.07364
4192.49087,0.07748
4194.41933,0.07767
4196.34780,0.07640
4198.27627,0.08009
4200.20474,0.08638
4202.13321,0.08632
4204.06168,0.07802
4205.99015,0.07252
4207.91861,0.07536
4209.84708,0.07496
4211.77555,0.06759
4213.70402,0.06329
4215.63249,0.06511
4217.56096,0.06864
4219.48943,0.07139
4221.41789,0.06847
4223.34636,0.05655
4225.27483,0.04691
4227.20330,0.04798
4229.13177,0.05520
4231.06024,0.06474
4232.98871,0.07112
4234.91718,0.06975
4236.84564,0.06570
4238.77411,0.06566
4240.70258,0.06779
4242.63105,0.06725
4244.55952,0.06476
4246.48799,0.06449
4248.41646,0.06405
4250.34492,0.05685
4252.27339,0.04980
4254.20186,0.05300
4256.13033,0.06096
4258.05880,0.06449
4259.98727,0.06439
4261.91574,0.06589
4263.84421,0.06690
4265.77267,0.06337
4267.70114,0.06016
4269.62961,0.06000
4271.55808,0.05612
4273.48655,0.04984
4275.41502,0.04808
4277.34349,0.04945
4279.27195,0.05201
4281.20042,0.05273
4283.12889,0.05202
4285.05736,0.05606
4286.98583,0.06246
4288.91430,0.06436
4290.84277,0.05836
4292.77124,0.04902
4294.69970,0.04807
4296.62817,0.05678
4298.55664,0.06351
4300.48511,0.06415
4302.41358,0.06305
4304.34205,0.05860
4306.27052,0.04927
4308.19898,0.04143
4310.12745,0.04089
4312.05592,0.04358
4313.98439,0.04525
4315.91286,0.04630
4317.84133,0.04559
4319.76980,0.04698
4321.69827,0.05237
4323.62673,0.05505
4325.55520,0.05339
4327.48367,0.05401
4329.41214,0.05728
4331.34061,0.05689
4333.26908,0.05655
4335.19755,0.05807
4337.12601,0.05290
4339.05448,0.04176
4340.98295,0.03450
4342.91142,0.03626
4344.83989,0.04210
4346.76836,0.04421
4348.69683,0.04252
4350.62530,0.04157
4352.55376,0.04107
4354.48223,0.03911
4356.41070,0.04150
4358.33917,0.04879
4360.26764,0.04898
4362.19611,0.04207
4364.12458,0.03781
4366.05304,0.03668
4367.98151,0.04063
4369.90998,0.04798
4371.83845,0.05041
4373.76692,0.04797
4375.69539,0.04468
4377.62386,0.04409
4379.55232,0.04391
4381.48079,0.03738
4383.40926,0.02734
4385.33773,0.02557
4387.26620,0.03174
4389.19467,0.03344
4391.12314,0.03556
4393.05161,0.04527
4394.98007,0.04846
4396.90854,0.04129
4398.83701,0.03815
4400.76548,0.03938
4402.69395,0.03519
4404.62242,0.02710
4406.55089,0.02548
4408.47935,0.03091
4410.40782,0.03306
4412.33629,0.03283
4414.26476,0.03225
4416.19323,0.02630
4418.12170,0.02101
4420.05017,0.02426
4421.97864,0.02924
4423.90710,0.02631
4425.83557,0.02226
4427.76404,0.02541
4429.69251,0.02934
4431.62098,0.02951
4433.54945,0.03202
4435.47792,0.03724
4437.40638,0.03882
4439.33485,0.03802
4441.26332,0.03522
4443.19179,0.02967
4445.12026,0.02661
4447.04873,0.02589
4448.97720,0.02221
4450.90567,0.01587
4452.83413,0.01126
4454.76260,0.01194
4456.69107,0.01762
4458.61954,0.02374
4460.54801,0.02495
4462.47648,0.01898
4464.40495,0.01465
4466.33341,0.01786
4468.26188,0.01870
4470.19035,0.01426
4472.11882,0.01640
4474.04729,0.02680
4475.97576,0.03167
4477.90423,0.02872
4479.83270,0.02395
4481.76116,0.01967
4483.68963,0.02019
4485.61810,0.02378
4487.54657,0.02918
4489.47504,0.03376
4491.40351,0.02999
4493.33198,0.02542
4495.26044,0.02850
4497.18891,0.03045
4499.11738,0.02522
4501.04585,0.01522
4502.97432,0.01005
4504.90279,0.01345
4506.83126,0.01179
4508.75973,0.01073
4510.68819,0.02129
4512.61666,0.03064
4514.54513,0.03200
4516.47360,0.02752
4518.40207,0.02123
4520.33054,0.01657
4522.25901,0.01061
4524.18747,0.00693
4526.11594,0.01393
4528.04441,0.02650
4529.97288,0.02918
4531.90135,0.02119
4533.82982,0.01369
4535.75829,0.00795
4537.68676,0.00349
4539.61522,0.00800
4541.54369,0.01926
4543.47216,0.02424
4545.40063,0.01890
4547.32910,0.00579
4549.25757,-0.00936
4551.18604,-0.01335
4553.11450,-0.00105
4555.04297,0.01161
4556.97144,0.00724
4558.89991,-0.00487
4560.82838,-0.00408
4562.75685,0.00211
4564.68532,0.00081
4566.61378,0.00233
4568.54225,0.00926
4570.47072,0.01370
4572.39919,0.01696
4574.32766,0.02231
4576.25613,0.02794
4578.18460,0.02794
4580.11307,0.01902
4582.04153,0.00655
4583.97000,0.00077
4585.89847,0.00678
4587.82694,0.01833
4589.75541,0.02364
4591.68388,0.01878
4593.61235,0.01273
4595.54081,0.01338
4597.46928,0.01462
4599.39775,0.00923
4601.32622,0.00544
4603.25469,0.01041
4605.18316,0.01413
4607.11163,0.01001
4609.04010,0.00654
4610.96856,0.00826
4612.89703,0.01028
4614.82550,0.00788
4616.75397,0.00485
4618.68244,0.00774
4620.61091,0.00998
4622.53938,0.00472
4624.46784,0.00046
4626.39631,0.00161
4628.32478,0.00183
4630.25325,0.00095
4632.18172,0.00428
4634.11019,0.00718
4636.03866,0.00255
4637.96713,-0.00177
4639.89559,0.00204
4641.82406,0.01068
4643.75253,0.01592
4645.68100,0.01733
4647.60947,0.01993
4649.53794,0.01775
4651.46641,0.01083
4653.39487,0.00554
4655.32334,0.00160
4657.25181,-0.00135
4659.18028,-0.00396
4661.10875,-0.00701
4663.03722,-0.01178
4664.96569,-0.01040
4666.89416,0.00308
4668.82262,0.01276
4670.75109,0.00749
4672.67956,0.00280
4674.60803,0.01018
4676.53650,0.01669
4678.46497,0.01457
4680.39344,0.01159
4682.32190,0.00856
4684.25037,-0.00096
4686.17884,-0.01155
4688.10731,-0.01019
4690.03578,-0.00021
4691.96425,0.00612
4693.89272,0.01067
4695.82119,0.01879
4697.74965,0.02108
4699.67812,0.01593
4701.60659,0.01831
4703.53506,0.02088
4705.46353,0.00998
4707.39200,-0.00012
4709.32047,-0.00166
4711.24893,0.00196
4713.17740,0.01221
4715.10587,0.01498
4717.03434,0.00089
4718.96281,-0.01625
4720.89128,-0.02655
4722.81975,-0.02449
4724.74821,-0.01339
4726.67668,-0.00931
4728.60515,-0.00773
4730.53362,0.00189
4732.46209,0.00822
4734.39056,0.00495
4736.31903,0.00224
4738.24750,0.00029
4740.17596,-0.00646
4742.10443,-0.00752
4744.03290,0.00008
4745.96137,0.00095
4747.88984,-0.00742
4749.81831,-0.01291
4751.74678,-0.01117
4753.67524,-0.00572
4755.60371,0.00088
4757.53218,0.00422
4759.46065,0.00029
4761.38912,-0.00595
4763.31759,-0.00766
4765.24606,-0.00522
4767.17453,0.00049
4769.10299,0.00635
4771.03146,0.01131
4772.95993,0.01802
4774.88840,0.01723
4776.81687,0.00899
4778.74534,0.00533
4780.67381,0.00226
4782.60227,-0.00124
4784.53074,0.00140
4786.45921,0.00581
4788.38768,0.00699
4790.31615,0.00619
4792.24462,0.01108
4794.17309,0.01946
4796.10156,0.01775
4798.03002,0.01226
4799.95849,0.00675
4801.88696,-0.00482
4803.81543,-0.00520
4805.74390,0.00951
4807.67237,0.01464
4809.60084,0.00849
4811.52930,0.00555
4813.45777,0.00574
4815.38624,0.00714
4817.31471,0.01052
4819.24318,0.01210
4821.17165,0.01468
4823.10012,0.01859
4825.02859,0.02013
4826.95705,0.02236
4828.88552,0.02279
4830.81399,0.01731
4832.74246,0.01081
4834.67093,0.00722
4836.59940,0.00978
4838.52787,0.01425
4840.45633,0.00592
4842.38480,-0.01346
4844.31327,-0.02418
4846.24174,-0.01763
4848.17021,-0.00678
4850.09868,0.00164
4852.02715,0.00957
4853.95562,0.01229
4855.88408,0.01577
4857.81255,0.01884
4859.74102,0.01124
4861.66949,0.00511
4863.59796,0.01175
4865.52643,0.01608
4867.45490,0.00591
4869.38336,0.00179
4871.31183,0.01601
4873.24030,0.01985
4875.16877,0.00184
4877.09724,-0.01025
4879.02571,-0.00634
4880.95418,-0.00086
4882.88265,0.00486
4884.81111,0.01274
4886.73958,0.01517
4888.66805,0.01101
4890.59652,0.00391
4892.52499,-0.00546
4894.45346,-0.00929
4896.38193,-0.00500
4898.31039,-0.00641
4900.23886,-0.01527
4902.16733,-0.01754
4904.09580,-0.01321
4906.02427,-0.01180
4907.95274,-0.01051
4909.88121,-0.00691
4911.80967,0.00124
4913.73814,0.01492
4915.66661,0.01733
4917.59508,0.00548
4919.52355,-0.00473
4921.45202,-0.00869
4923.38049,-0.00904
4925.30896,-0.00668
4927.23742,0.00099
4929.16589,0.00689
4931.09436,-0.00338
4933.02283,-0.01630
4934.95130,-0.01594
4936.87977,-0.01198
4938.80824,-0.00461
4940.73670,0.00747
4942.66517,0.01814
4944.59364,0.02507
4946.52211,0.02420
4948.45058,0.01994
4950.37905,0.02151
4952.30752,0.02517
4954.23599,0.02160
4956.16445,0.01828
4958.09292,0.02486
4960.02139,0.02961
4961.94986,0.02029
4963.87833,0.00555
4965.80680,0.00600
4967.73527,0.02062
4969.66373,0.02600
4971.59220,0.01922
4973.52067,0.01480
4975.44914,0.01173
4977.37761,0.00283
4979.30608,-0.00147
4981.23455,0.00920
4983.16302,0.02249
4985.09148,0.02506
4987.01995,0.02049
4988.94842,0.02085
4990.87689,0.02560
4992.80536,0.02384
4994.73383,0.02399
4996.66230,0.02985
4998.59076,0.02668
5000.51923,0.02069
5002.44770,0.02527
5004.37617,0.03075
5006.30464,0.02214
5008.23311,0.00575
5010.16158,-0.00231
5012.09005,-0.00140
5014.01851,0.00359
5015.94698,0.01101
5017.87545,0.00661
5019.80392,-0.00854
5021.73239,-0.00864
5023.66086,0.00273
5025.58933,0.01000
5027.51779,0.01678
5029.44626,0.01688
5031.37473,0.00581
5033.30320,0.00329
5035.23167,0.02710
5037.16014,0.05099
5039.08861,0.04190
5041.01708,0.01362
5042.94554,-0.00731
5044.87401,-0.00198
5046.80248,0.02941
5048.73095,0.05241
5050.65942,0.05371
5052.58789,0.05054
5054.51636,0.04388
5056.44482,0.03348
5058.37329,0.02967
5060.30176,0.02692
5062.23023,0.02363
5064.15870,0.02594
5066.08717,0.02747
5068.01564,0.02805
5069.94410,0.02760
5071.87257,0.02216
5073.80104,0.01459
5075.72951,0.01456
5077.65798,0.02385
5079.58645,0.02655
5081.51492,0.02336
5083.44339,0.02107
5085.37185,0.01026
5087.30032,0.00378
5089.22879,0.01676
5091.15726,0.03029
5093.08573,0.03303
5095.01420,0.03558
5096.94267,0.03818
5098.87113,0.03184
5100.79960,0.02362
5102.72807,0.02317
5104.65654,0.01911
5106.58501,0.00841
5108.51348,0.00501
5110.44195,0.01227
5112.37042,0.02844
5114.29888,0.04790
5116.22735,0.05539
5118.15582,0.04596
5120.08429,0.03793
5122.01276,0.04171
5123.94123,0.03718
5125.86970,0.02633
5127.79816,0.03720
5129.72663,0.05110
5131.65510,0.04180
5133.58357,0.03357
5135.51204,0.03361
5137.44051,0.01725
5139.36898,-0.00388
5141.29745,0.00262
5143.22591,0.03002
5145.15438,0.04553
5147.08285,0.04258
5149.01132,0.03915
5150.93979,0.03502
5152.86826,0.01857
5154.79673,0.00284
5156.72519,0.00485
5158.65366,0.01692
5160.58213,0.02548
5162.51060,0.02670
5164.43907,0.02592
5166.36754,0.02321
5168.29601,0.01336
5170.22448,0.00869
5172.15294,0.02050
5174.08141,0.03643
5176.00988,0.04777
5177.93835,0.05385
5179.86682,0.04688
5181.79529,0.03167
5183.72376,0.02659
5185.65222,0.03530
5187.58069,0.04446
5189.50916,0.04673
5191.43763,0.04679
5193.36610,0.04882
5195.29457,0.05160
5197.22304,0.04896
5199.15151,0.04566
5201.07997,0.04854
5203.00844,0.04486
5204.93691,0.03251
5206.86538,0.03210
5208.79385,0.05101
5210.72232,0.07086
5212.65079,0.07865
5214.57925,0.06874
5216.50772,0.04725
5218.43619,0.04295
5220.36466,0.05858
5222.29313,0.06266
5224.22160,0.05710
5226.15007,0.05927
5228.07854,0.06517
5230.00700,0.06414
5231.93547,0.05241
5233.86394,0.03979
5235.79241,0.03548
5237.72088,0.04010
5239.64935,0.05202
5241.57782,0.06429
5243.50628,0.06148
5245.43475,0.04206
5247.36322,0.04093
5249.29169,0.05606
5251.22016,0.04755
5253.14863,0.03527
5255.07710,0.04719
5257.00556,0.06411
5258.93403,0.06753
5260.86250,0.06166
5262.79097,0.06261
5264.71944,0.07170
5266.64791,0.07077
5268.57638,0.05948
5270.50485,0.03879
5272.43331,0.01742
5274.36178,0.01637
5276.29025,0.03076
5278.21872,0.03887
5280.14719,0.02627
5282.07566,0.00921
5284.00413,0.01690
5285.93259,0.03694
5287.86106,0.04498
5289.78953,0.04720
5291.71800,0.05680
5293.64647,0.07564
5295.57494,0.08642
5297.50341,0.07195
5299.43188,0.05510
5301.36034,0.05384
5303.28881,0.04424
5305.21728,0.03253
5307.14575,0.03640
5309.07422,0.03071
5311.00269,0.01997
5312.93116,0.03181
5314.85962,0.04987
5316.78809,0.05913
5318.71656,0.06205
5320.64503,0.05859
5322.57350,0.05059
5324.50197,0.02956
5326.43044,0.01353
5328.35891,0.03277
5330.28737,0.05993
5332.21584,0.07494
5334.14431,0.08452
5336.07278,0.06813
5338.00125,0.02351
5339.92972,-0.00677
5341.85819,-0.00999
5343.78665,0.00813
5345.71512,0.04043
5347.64359,0.05912
5349.57206,0.05752
5351.50053,0.04841
5353.42900,0.04542
5355.35747,0.04267
5357.28594,0.04230
5359.21440,0.05474
5361.14287,0.06248
5363.07134,0.05988
5364.99981,0.05938
5366.92828,0.04334
5368.85675,0.01658
5370.78522,0.01472
5372.71368,0.03511
5374.64215,0.05749
5376.57062,0.06106
5378.49909,0.03994
5380.42756,0.02570
5382.35603,0.02899
5384.28450,0.03104
5386.21297,0.01495
5388.14143,0.01014
5390.06990,0.03026
5391.99837,0.03585
5393.92684,0.02719
5395.85531,0.03833
5397.78378,0.04855
5399.71225,0.04810
5401.64071,0.05782
5403.56918,0.06961
5405.49765,0.06909
5407.42612,0.06669
5409.35459,0.07664
5411.28306,0.09509
5413.21153,0.09559
5415.13999,0.07058
5417.06846,0.04779
5418.99693,0.04214
5420.92540,0.04761
5422.85387,0.04599
5424.78234,0.03358
5426.71081,0.04045
5428.63928,0.08195
5430.56774,0.11492
5432.49621,0.11921
5434.42468,0.11872
5436.35315,0.11372
5438.28162,0.09806
5440.21009,0.08969
5442.13856,0.10145
5444.06702,0.12399
5445.99549,0.13728
5447.92396,0.11422
5449.85243,0.06700
5451.78090,0.04898
5453.70937,0.06326
5455.63784,0.07306
5457.56631,0.06961
5459.49477,0.06392
5461.42324,0.06059
5463.35171,0.07118
5465.28018,0.08617
5467.20865,0.08074
5469.13712,0.05988
5471.06559,0.04416
5472.99405,0.04469
5474.92252,0.05378
5476.85099,0.04929
5478.77946,0.04844
5480.70793,0.07179
5482.63640,0.09664
5484.56487,0.09722
5486.49334,0.07507
5488.42180,0.05131
5490.35027,0.04409
5492.27874,0.05746
5494.20721,0.07853
5496.13568,0.09134
5498.06415,0.08795
5499.99262,0.06279
5501.92108,0.04109
5503.84955,0.03651
5505.77802,0.03460
5507.70649,0.04677
5509.63496,0.07015
5511.56343,0.08272
5513.49190,0.08776
5515.42037,0.09480
5517.34883,0.10178
5519.27730,0.09783
5521.20577,0.08999
5523.13424,0.08512
5525.06271,0.07539
5526.99118,0.07537
5528.91965,0.08365
5530.84811,0.07537
5532.77658,0.05891
5534.70505,0.03896
5536.63352,0.01775
5538.56199,0.02391
5540.49046,0.04728
5542.41893,0.05915
5544.34740,0.07086
5546.27586,0.07851
5548.20433,0.05348
5550.13280,0.00860
5552.06127,-0.01194
5553.98974,0.00871
5555.91821,0.04038
5557.84668,0.04607
5559.77514,0.03537
5561.70361,0.03649
5563.63208,0.04587
5565.56055,0.06154
5567.48902,0.08069
5569.41749,0.07764
5571.34596,0.04985
5573.27443,0.02336
5575.20289,0.01864
5577.13136,0.02623
5579.05983,0.02644
5580.98830,0.02534
5582.91677,0.04560
5584.84524,0.08419
5586.77371,0.11029
5588.70217,0.09926
5590.63064,0.06517
5592.55911,0.04676
5594.48758,0.05970
5596.41605,0.07798
5598.34452,0.07310
5600.27299,0.05836
5602.20145,0.05026
5604.12992,0.04866
5606.05839,0.04511
5607.98686,0.03461
5609.91533,0.03789
5611.84380,0.05648
5613.77227,0.05935
5615.70074,0.03990
5617.62920,0.04217
5619.55767,0.07645
5621.48614,0.08514
5623.41461,0.07266
5625.34308,0.07918
5627.27155,0.08823
5629.20002,0.08468
5631.12848,0.07494
5633.05695,0.06849
5634.98542,0.07635
5636.91389,0.08360
5638.84236,0.07057
5640.77083,0.04879
5642.69930,0.04594
5644.62777,0.07276
5646.55623,0.09637
5648.48470,0.09610
5650.41317,0.09445
5652.34164,0.09657
5654.27011,0.09850
5656.19858,0.10411
5658.12705,0.10797
5660.05551,0.09487
5661.98398,0.07601
5663.91245,0.07259
5665.84092,0.06749
5667.76939,0.05886
5669.69786,0.05922
5671.62633,0.06271
5673.55480,0.07074
5675.48326,0.06835
5677.41173,0.04813
5679.34020,0.04534
5681.26867,0.05975
5683.19714,0.06977
5685.12561,0.07495
5687.05408,0.06675
5688.98254,0.04414
5690.91101,0.02574
5692.83948,0.02208
5694.76795,0.02113
5696.69642,0.02291
5698.62489,0.04868
5700.55336,0.08547
5702.48183,0.09936
5704.41029,0.08646
5706.33876,0.07722
5708.26723,0.08849
5710.19570,0.09034
5712.12417,0.06851
5714.05264,0.06257
5715.98111,0.07985
5717.90957,0.08181
5719.83804,0.07913
5721.76651,0.08355
5723.69498,0.07410
5725.62345,0.05967
5727.55192,0.05023
5729.48039,0.05073
5731.40886,0.06540
5733.33732,0.08585
5735.26579,0.10507
5737.19426,0.11676
5739.12273,0.11954
5741.05120,0.10310
5742.97967,0.09130
5744.90814,0.10928
5746.83660,0.11029
5748.76507,0.07896
5750.69354,0.06188
5752.62201,0.06921
5754.55048,0.07736
5756.47895,0.08208
5758.40742,0.07999
5760.33588,0.07600
5762.26435,0.10279
5764.19282,0.14126
5766.12129,0.13944
5768.04976,0.11474
5769.97823,0.09643
5771.90670,0.08508
5773.83517,0.08011
5775.76363,0.07962
5777.69210,0.08398
5779.62057,0.10213
5781.54904,0.13923
5783.47751,0.17947
5785.40598,0.18415
5787.33445,0.13598
5789.26291,0.08579
5791.19138,0.08394
5793.11985,0.10428
5795.04832,0.10047
5796.97679,0.08424
5798.90526,0.09388
5800.83373,0.12072
5802.76220,0.13875
5804.69066,0.15164
5806.61913,0.15224
5808.54760,0.12141
5810.47607,0.07880
5812.40454,0.04636
5814.33301,0.01941
5816.26148,0.01301
5818.18994,0.04243
5820.11841,0.07144
5822.04688,0.07120
5823.97535,0.06121
5825.90382,0.06164
5827.83229,0.07125
5829.76076,0.07225
5831.68923,0.06721
5833.61769,0.08604
5835.54616,0.10825
5837.47463,0.09775
5839.40310,0.08919
5841.33157,0.10121
5843.26004,0.10685
5845.18851,0.09414
5847.11697,0.06526
5849.04544,0.05328
5850.97391,0.07500
5852.90238,0.09622
5854.83085,0.10093
5856.75932,0.10225
5858.68779,0.10626
5860.61626,0.08954
5862.54472,0.07851
5864.47319,0.10979
5866.40166,0.10547
5868.33013,0.01776
5870.25860,-0.05752
5872.18707,-0.04466
5874.11554,0.01822
5876.04400,0.07302
5877.97247,0.10928
5879.90094,0.11773
5881.82941,0.09883
5883.75788,0.08801
5885.68635,0.08609
5887.61482,0.07590
5889.54329,0.06887
5891.47175,0.07739
5893.40022,0.09993
5895.32869,0.11792
5897.25716,0.11670
5899.18563,0.11004
5901.11410,0.11598
5903.04257,0.13037
5904.97103,0.14263
5906.89950,0.13649
5908.82797,0.08736
5910.75644,0.04730
5912.68491,0.08070
5914.61338,0.12846
5916.54185,0.11919
5918.47032,0.07281
5920.39878,0.03465
5922.32725,0.01637
5924.25572,0.02797
5926.18419,0.07807
5928.11266,0.12086
5930.04113,0.11736
5931.96960,0.08366
5933.89806,0.04681
5935.82653,0.03567
5937.75500,0.06927
5939.68347,0.11061
5941.61194,0.10657
5943.54041,0.07729
5945.46888,0.06514
5947.39734,0.07389
5949.32581,0.09470
5951.25428,0.11914
5953.18275,0.13222
5955.11122,0.10247
5957.03969,0.07708
5958.96816,0.12955
5960.89663,0.17409
5962.82509,0.14693
5964.75356,0.13476
5966.68203,0.13562
5968.61050,0.09827
5970.53897,0.07998
5972.46744,0.10254
5974.39591,0.10643
5976.32437,0.07761
5978.25284,0.05451
5980.18131,0.05880
5982.10978,0.06392
5984.03825,0.05464
5985.96672,0.06123
5987.89519,0.09149
5989.82366,0.11637
5991.75212,0.11721
5993.68059,0.09362
5995.60906,0.07016
5997.53753,0.06218
5999.46600,0.05547
6001.39447,0.04374
6003.32294,0.02629
6005.25140,0.03630
6007.17987,0.07540
6009.10834,0.08294
6011.03681,0.07136
6012.96528,0.07072
6014.89375,0.07751
6016.82222,0.12192
6018.75069,0.19074
6020.67915,0.20700
6022.60762,0.16729
6024.53609,0.10719
6026.46456,0.05598
6028.39303,0.07350
6030.32150,0.12800
6032.24997,0.10629
6034.17843,0.04127
6036.10690,0.04081
6038.03537,0.08438
6039.96384,0.10144
6041.89231,0.09870
6043.82078,0.08509
6045.74925,0.04816
6047.67772,0.02534
6049.60618,0.05469
6051.53465,0.07663
6053.46312,0.05119
6055.39159,0.04733
6057.32006,0.07581
6059.24853,0.06815
6061.17700,0.05018
6063.10546,0.08424
6065.03393,0.13673
6066.96240,0.13795
6068.89087,0.11127
6070.81934,0.12220
6072.74781,0.14948
6074.67628,0.13483
6076.60475,0.10291
6078.53321,0.08813
6080.46168,0.06635
6082.39015,0.05668
6084.31862,0.09908
6086.24709,0.17599
6088.17556,0.21938
6090.10403,0.19625
6092.03249,0.14393
6093.96096,0.09434
6095.88943,0.08170
6097.81790,0.10363
6099.74637,0.09318
6101.67484,0.04439
6103.60331,-0.00176
6105.53177,-0.03667
6107.46024,-0.04213
6109.38871,0.00337
6111.31718,0.06782
6113.24565,0.10139
6115.17412,0.08683
6117.10259,0.03893
6119.03106,0.00537
6120.95952,0.01706
6122.88799,0.03746
6124.81646,0.05032
6126.74493,0.07387
6128.67340,0.07793
6130.60187,0.04852
6132.53034,0.04163
6134.45880,0.05786
6136.38727,0.05238
6138.31574,0.03538
6140.24421,0.05078
6142.17268,0.10457
6144.10115,0.15456
6146.02962,0.14864
6147.95809,0.10954
6149.88655,0.11788
6151.81502,0.15332
6153.74349,0.12935
6155.67196,0.08698
6157.60043,0.06612
6159.52890,0.02503
6161.45737,-0.00986
6163.38583,0.01685
6165.31430,0.08591
6167.24277,0.14551
6169.17124,0.14915
6171.09971,0.11201
6173.02818,0.11582
6174.95665,0.14613
6176.88512,0.12307
6178.81358,0.05999
6180.74205,0.01395
6182.67052,0.00057
6184.59899,0.02532
6186.52746,0.07240
6188.45593,0.08820
6190.38440,0.07912
6192.31286,0.07761
6194.24133,0.10037
6196.16980,0.16007
6198.09827,0.18469
6200.02674,0.14604
6201.95521,0.09620
6203.88368,0.06045
6205.81215,0.06824
6207.74061,0.10652
6209.66908,0.12992
6211.59755,0.12917
6213.52602,0.11992
6215.45449,0.13423
6217.38296,0.15614
6219.31143,0.11818
6221.23989,0.06288
6223.16836,0.07338
6225.09683,0.11003
6227.02530,0.11429
6228.95377,0.09413
6230.88224,0.08320
6232.81071,0.10641
6234.73918,0.09935
6236.66764,0.03457
6238.59611,-0.01223
6240.52458,-0.02062
6242.45305,-0.00632
6244.38152,0.03868
6246.30999,0.04486
6248.23846,-0.01037
6250.16692,-0.00632
6252.09539,0.06185
6254.02386,0.07669
6255.95233,0.05006
6257.88080,0.03421
6259.80927,0.03173
6261.73774,0.04327
6263.66621,0.04381
6265.59467,0.00383
6267.52314,-0.01652
6269.45161,0.02547
6271.38008,0.07843
6273.30855,0.15359
6275.23702,0.24001
6277.16549,0.21967
6279.09395,0.13097
6281.02242,0.07921
6282.95089,0.03982
6284.87936,0.01440
6286.80783,0.04270
6288.73630,0.07790
6290.66477,0.06773
6292.59323,0.02921
6294.52170,0.00499
6296.45017,0.00472
6298.37864,-0.00215
6300.30711,-0.01002
6302.23558,0.00598
6304.16405,0.03360
6306.09252,0.06999
6308.02098,0.10348
6309.94945,0.09837
6311.87792,0.06736
6313.80639,0.04592
6315.73486,0.01099
6317.66333,-0.03096
6319.59180,-0.03017
6321.52026,-0.01157
6323.44873,-0.02692
6325.37720,-0.02676
6327.30567,0.04339
6329.23414,0.10089
6331.16261,0.07726
6333.09108,0.04239
6335.01955,0.05967
6336.94801,0.11580
6338.87648,0.15993
6340.80495,0.16600
6342.73342,0.13162
6344.66189,0.09741
6346.59036,0.10589
6348.51883,0.11065
6350.44729,0.10232
6352.37576,0.11748
6354.30423,0.12478
6356.23270,0.09211
6358.16117,0.04333
6360.08964,0.02829
6362.01811,0.05572
6363.94658,0.08349
6365.87504,0.04995
6367.80351,-0.01812
6369.73198,-0.01510
6371.66045,0.04090
6373.58892,0.08694
6375.51739,0.09583
6377.44586,0.05258
6379.37432,0.02015
6381.30279,0.03077
6383.23126,0.03265
6385.15973,0.03657
6387.08820,0.07594
6389.01667,0.10753
6390.94514,0.11069
6392.87361,0.09531
6394.80207,0.05914
6396.73054,0.05870
6398.65901,0.10583
6400.58748,0.13541
6402.51595,0.12816
6404.44442,0.09442
6406.37289,0.08028
6408.30135,0.11949
6410.22982,0.11680
6412.15829,0.03392
6414.08676,-0.04305
6416.01523,-0.08357
6417.94370,-0.07718
6419.87217,0.00395
6421.80064,0.06672
6423.72910,0.03889
6425.65757,-0.00219
6427.58604,0.00178
6429.51451,-0.00288
6431.44298,-0.03271
6433.37145,-0.02890
6435.29992,0.02680
6437.22838,0.07852
6439.15685,0.07359
6441.08532,0.04065
6443.01379,-0.00281
6444.94226,-0.03742
6446.87073,0.00035
6448.79920,0.07526
6450.72766,0.07568
6452.65613,0.01925
6454.58460,0.02310
6456.51307,0.09610
6458.44154,0.15856
6460.37001,0.17258
6462.29848,0.14553
6464.22695,0.09315
6466.15541,0.02500
6468.08388,-0.01378
6470.01235,0.00133
6471.94082,0.02898
6473.86929,0.10100
6475.79776,0.21890
6477.72623,0.27114
6479.65469,0.22297
6481.58316,0.14471
6483.51163,0.09614
6485.44010,0.04731
6487.36857,-0.01145
6489.29704,0.00757
6491.22551,0.09537
6493.15398,0.12499
6495.08244,0.11143
6497.01091,0.11042
6498.93938,0.09948
6500.86785,0.08295
6502.79632,0.05751
6504.72479,0.04345
6506.65326,0.05724
6508.58172,0.05151
6510.51019,0.04891
6512.43866,0.10781
6514.36713,0.21392
6516.29560,0.29147
6518.22407,0.23608
6520.15254,0.12498
6522.08101,0.07647
6524.00947,0.05376
6525.93794,0.04900
6527.86641,0.08742
6529.79488,0.11228
6531.72335,0.10421
6533.65182,0.12458
6535.58029,0.19948
6537.50875,0.25578
6539.43722,0.22241
6541.36569,0.12300
6543.29416,0.05571
6545.22263,0.06664
6547.15110,0.08671
6549.07957,0.07303
6551.00804,0.05621
6552.93650,0.04360
6554.86497,0.00275
6556.79344,-0.02742
6558.72191,0.00180
6560.65038,0.04621
6562.57885,0.03057
6564.50732,-0.03413
6566.43578,-0.01834
6568.36425,0.09377
6570.29272,0.14160
6572.22119,0.09877
6574.14966,0.06058
6576.07813,0.04680
6578.00660,0.03095
6579.93507,0.01372
6581.86353,0.05926
6583.79200,0.14235
6585.72047,0.15313
6587.64894,0.12842
6589.57741,0.10909
6591.50588,0.06339
6593.43435,0.01549
6595.36281,0.04733
6597.29128,0.13906
6599.21975,0.23578
6601.14822,0.30059
6603.07669,0.25520
6605.00516,0.14519
6606.93363,0.06073
6608.86210,0.02218
6610.79056,0.02890
6612.71903,0.03997
6614.64750,0.04639
6616.57597,0.10508
6618.50444,0.19365
6620.43291,0.23052
6622.36138,0.20700
6624.28984,0.17367
6626.21831,0.16060
6628.14678,0.13356
6630.07525,0.05263
6632.00372,-0.06280
6633.93219,-0.14641
6635.86066,-0.13741
6637.78912,-0.07206
6639.71759,-0.02766
6641.64606,-0.01080
6643.57453,-0.00539
6645.50300,0.01895
6647.43147,0.07541
6649.35994,0.09490
6651.28841,0.02354
6653.21687,-0.04230
6655.14534,0.02716
6657.07381,0.15394
6659.00228,0.16647
6660.93075,0.12341
6662.85922,0.10310
6664.78769,0.08452
6666.71615,0.08245
6668.64462,0.09816
6670.57309,0.11540
6672.50156,0.13451
6674.43003,0.11465
6676.35850,0.05734
6678.28697,0.04038
6680.21544,0.07792
6682.14390,0.11942
6684.07237,0.14380
6686.00084,0.11906
6687.92931,0.02252
6689.85778,-0.04224
6691.78625,-0.00465
6693.71472,0.06130
6695.64318,0.10412
6697.57165,0.09593
6699.50012,0.03389
6701.42859,-0.04210
6703.35706,-0.08621
6705.28553,-0.04736
6707.21400,0.07997
6709.14247,0.15747
6711.07093,0.09647
6712.99940,0.02587
6714.92787,0.04019
6716.85634,0.08385
6718.78481,0.10592
6720.71328,0.12078
6722.64175,0.11985
6724.57021,0.07936
6726.49868,0.03090
6728.42715,0.02367
6730.35562,0.04179
6732.28409,0.01988
6734.21256,-0.01150
6736.14103,0.00532
6738.06950,0.03670
6739.99796,0.08752
6741.92643,0.14279
6743.85490,0.12458
6745.78337,0.07547
6747.71184,0.05537
6749.64031,0.03734
6751.56878,0.03195
6753.49724,0.10968
6755.42571,0.23608
6757.35418,0.32306
6759.28265,0.31278
6761.21112,0.18165
6763.13959,0.08230
6765.06806,0.08656
6766.99653,0.07642
6768.92499,0.02617
6770.85346,-0.00528
6772.78193,-0.01842
6774.71040,-0.01679
6776.63887,-0.02243
6778.56734,-0.04388
6780.49581,-0.06681
6782.42427,-0.08989
6784.35274,-0.04849
6786.28121,0.04509
6788.20968,0.03544
6790.13815,-0.07309
6792.06662,-0.02663
6793.99509,0.14115
6795.92355,0.14770
6797.85202,0.06615
6799.78049,0.02646
6801.70896,-0.02089
6803.63743,-0.02701
6805.56590,0.02687
6807.49437,0.05326
6809.42284,0.03705
6811.35130,-0.04354
6813.27977,-0.10911
6815.20824,-0.03055
6817.13671,0.06132
6819.06518,0.05688
6820.99365,0.07610
6822.92212,0.15120
6824.85058,0.16706
6826.77905,0.10553
6828.70752,0.03028
6830.63599,-0.01098
6832.56446,0.03294
6834.49293,0.14174
6836.42140,0.16468
6838.34987,0.09421
6840.27833,0.07115
6842.20680,0.07553
6844.13527,0.08356
6846.06374,0.07808
6847.99221,-0.00135
6849.92068,-0.07251
6851.84915,-0.04291
6853.77761,0.00829
6855.70608,0.02313
6857.63455,-0.01644
6859.56302,-0.06594
6861.49149,-0.04965
6863.41996,0.01077
6865.34843,-0.00476
6867.27690,-0.07236
6869.20536,-0.09343
6871.13383,-0.07482
6873.06230,-0.07556
6874.99077,-0.09966
6876.91924,-0.03825
6878.84771,0.08413
6880.77618,0.12429
6882.70464,0.12660
6884.63311,0.12668
6886.56158,0.08757
6888.49005,0.04477
6890.41852,0.00521
6892.34699,-0.05928
6894.27546,-0.08600
6896.20393,-0.04758
6898.13239,0.04133
6900.06086,0.13726
6901.98933,0.14088
6903.91780,0.07788
6905.84627,0.04487
6907.77474,-0.00407
6909.70321,-0.04053
6911.63167,-0.00574
6913.56014,0.00727
6915.48861,0.01990
6917.41708,0.07576
6919.34555,0.08175
6921.27402,0.07016
6923.20249,0.07868
6925.13096,0.08196
6927.05942,0.10629
6928.98789,0.12560
6930.91636,0.10277
6932.84483,0.11155
6934.77330,0.16784
6936.70177,0.16091
6938.63024,0.13200
6940.55870,0.23162
6942.48717,0.36417
6944.41564,0.34312
6946.34411,0.16276
6948.27258,-0.05900
6950.20105,-0.17367
6952.12952,-0.13028
6954.05799,-0.03610
6955.98645,-0.07750
6957.91492,-0.17321
6959.84339,-0.11320
6961.77186,0.05280
6963.70033,0.13494
6965.62880,0.12501
6967.55727,0.11233
6969.48573,0.08921
6971.41420,0.04316
6973.34267,0.06323
6975.27114,0.11502
6977.19961,0.13414
6979.12808,0.16259
6981.05655,0.16165
6982.98501,0.13160
6984.91348,0.08519
6986.84195,-0.06277
6988.77042,-0.21904
6990.69889,-0.23469
6992.62736,-0.20519
6994.55583,-0.16787
6996.48430,-0.05460
6998.41276,0.04486
7000.34123,0.05297
7002.26970,0.06982
7004.19817,0.12964
7006.12664,0.17291
7008.05511,0.16929
7009.98358,0.14958
7011.91204,0.11876
7013.84051,0.10771
7015.76898,0.14992
7017.69745,0.21094
7019.62592,0.28164
7021.55439,0.33119
7023.48286,0.26295
7025.41133,0.09531
7027.33979,-0.03776
7029.26826,-0.10609
7031.19673,-0.13853
7033.12520,-0.11197
7035.05367,-0.00961
7036.98214,0.04409
7038.91061,0.03112
7040.83907,0.05116
7042.76754,0.09168
7044.69601,0.10370
7046.62448,0.03403
7048.55295,-0.06944
7050.48142,-0.05144
7052.40989,0.03627
7054.33836,0.06121
7056.26682,0.02630
7058.19529,0.07642
7060.12376,0.18173
7062.05223,0.14459
7063.98070,-0.00294
7065.90917,-0.05583
7067.83764,0.02276
7069.76610,0.13504
7071.69457,0.16300
7073.62304,0.06745
7075.55151,-0.02730
7077.47998,0.00607
7079.40845,0.13170
7081.33692,0.21428
7083.26539,0.25045
7085.19385,0.28115
7087.12232,0.21747
7089.05079,0.02666
7090.97926,-0.18847
7092.90773,-0.31788
7094.83620,-0.28441
7096.76467,-0.12373
7098.69313,0.04602
7100.62160,0.14901
7102.55007,0.23289
7104.47854,0.30300
7106.40701,0.32629
7108.33548,0.30672
7110.26395,0.26471
7112.19242,0.24345
7114.12088,0.32114
7116.04935,0.46705
7117.97782,0.48591
7119.90629,0.27531
7121.83476,0.00386
7123.76323,-0.14672
7125.69170,-0.12196
7127.62016,-0.03977
7129.54863,0.02355
7131.47710,0.10455
7133.40557,0.11896
7135.33404,0.04680
7137.26251,-0.02555
7139.19098,-0.11305
7141.11944,-0.19703
7143.04791,-0.20362
7144.97638,-0.16643
7146.90485,-0.16601
7148.83332,-0.10336
7150.76179,0.06828
7152.69026,0.22301
7154.61873,0.28855
7156.54719,0.31819
7158.47566,0.31463
7160.40413,0.24129
7162.33260,0.20472
7164.26107,0.16780
7166.18954,-0.05066
7168.11801,-0.21165
7170.04647,-0.08027
7171.97494,0.12508
7173.90341,0.14559
7175.83188,-0.00059
7177.76035,-0.07652
7179.68882,0.00046
7181.61729,0.06654
7183.54576,0.09579
7185.47422,0.09107
7187.40269,-0.00656
7189.33116,-0.11166
7191.25963,-0.17367
7193.18810,-0.19262
7195.11657,-0.12410
7197.04504,-0.00358
7198.97350,0.07361
7200.90197,0.09331
7202.83044,0.11090
7204.75891,0.13785
7206.68738,0.08602
7208.61585,0.00744
7210.54432,0.03925
7212.47279,0.19159
7214.40125,0.34052
7216.32972,0.34033
7218.25819,0.22424
7220.18666,0.19292
7222.11513,0.15552
7224.04360,0.07606
7225.97207,0.10181
7227.90053,0.25905
7229.82900,0.41773
7231.75747,0.40620
7233.68594,0.24052
7235.61441,0.14971
7237.54288,0.20217
7239.47135,0.22710
7241.39982,0.07590
7243.32828,-0.02898
7245.25675,0.05683
7247.18522,0.11942
7249.11369,0.17909
7251.04216,0.24854
7252.97063,0.20032
7254.89910,0.12061
7256.82756,0.12190
7258.75603,0.14556
7260.68450,0.17420
7262.61297,0.20855
7264.54144,0.18730
7266.46991,0.10883
7268.39838,0.07503
7270.32685,0.09394
7272.25531,0.06578
7274.18378,0.08043
7276.11225,0.14263
7278.04072,0.11132
7279.96919,0.09036
7281.89766,0.15602
7283.82613,0.13594
7285.75459,-0.01394
7287.68306,-0.21254
7289.61153,-0.29096
7291.54000,-0.16218
7293.46847,0.03882
7295.39694,0.17272
7297.32541,0.22705
7299.25387,0.25009
7301.18234,0.17412
7303.11081,-0.02033
7305.03928,-0.11050
7306.96775,0.00786
7308.89622,0.13893
7310.82469,0.09849
7312.75316,-0.05713
7314.68162,-0.20107
7316.61009,-0.16679
7318.53856,0.03283
7320.46703,0.19815
7322.39550,0.28275
7324.32397,0.31940
7326.25244,0.26814
7328.18090,0.11176
7330.10937,-0.01114
7332.03784,-0.04750
7333.96631,-0.00695
7335.89478,0.09076
7337.82325,0.09287
7339.75172,0.02042
7341.68019,0.20408
7343.60865,0.45243
7345.53712,0.54396
7347.46559,0.49724
7349.39406,0.33432
7351.32253,0.21097
7353.25100,0.26357
7355.17947,0.32092
7357.10793,0.18614
7359.03640,0.07695
7360.96487,0.23746
7362.89334,0.30284
7364.82181,0.09877
7366.75028,-0.13961
7368.67875,-0.18451
7370.60722,-0.03453
7372.53568,0.17315
7374.46415,0.31951
7376.39262,0.25630
7378.32109,0.15285
7380.24956,0.07977
7382.17803,0.07208
7384.10650,0.17783
7386.03496,0.18624
7387.96343,0.08053
7389.89190,0.04528
7391.82037,0.03553
7393.74884,-0.02448
7395.67731,-0.07376
7397.60578,0.03598
7399.53425,0.18127
7401.46271,0.12388
7403.39118,-0.02688
7405.31965,-0.03470
7407.24812,0.04906
7409.17659,0.11945
7411.10506,0.12120
7413.03353,0.06349
7414.96199,0.01054
7416.89046,0.00164
7418.81893,0.09753
7420.74740,0.24322
7422.67587,0.30804
7424.60434,0.25890
7426.53281,0.12825
7428.46128,0.01860
7430.38974,0.03213
7432.31821,0.11668
7434.24668,0.12568
7436.17515,0.06296
7438.10362,0.06705
7440.03209,0.24957
7441.96056,0.44063
7443.88902,0.40262
7445.81749,0.26340
7447.74596,0.18589
7449.67443,0.21856
7451.60290,0.24619
7453.53137,0.02389
7455.45984,-0.21532
7457.38831,-0.24248
7459.31677,-0.14746
7461.24524,-0.13032
7463.17371,-0.11255
7465.10218,0.05591
7467.03065,0.25886
7468.95912,0.36086
7470.88759,0.27890
7472.81605,0.04378
7474.74452,-0.06949
7476.67299,-0.02153
7478.60146,0.06627
7480.52993,0.14589
7482.45840,0.13410
7484.38687,0.03190
7486.31533,-0.01040
7488.24380,0.07710
7490.17227,0.16460
7492.10074,0.13519
7494.02921,0.11320
7495.95768,0.13008
7497.88615,0.13302
