399.19301,19.97964
401.12148,1.11038
403.04995,0.09191
404.97842,0.07592
406.90689,0.13093
408.83536,0.10462
410.76382,-0.04375
412.69229,-0.13056
414.62076,-0.05774
416.54923,-0.04701
418.47770,-0.09758
420.40617,-0.04166
422.33464,0.07828
424.26311,0.13518
426.19157,0.09741
428.12004,0.00213
430.04851,-0.07680
431.97698,-0.12877
433.90545,-0.13678
435.83392,-0.05341
437.76239,0.00749
439.69085,0.04444
441.61932,0.07487
443.54779,0.06416
445.47626,0.04356
447.40473,0.08269
449.33320,0.15198
451.26167,0.17941
453.19013,0.19346
455.11860,0.15692
457.04707,0.09122
458.97554,0.10265
460.90401,0.15609
462.83248,0.19003
464.76095,0.21598
466.68942,0.20711
468.61788,0.16076
470.54635,0.14005
472.47482,0.08287
474.40329,-0.11230
476.33176,-0.14035
478.26023,0.01297
480.18870,0.14318
482.11716,0.19992
484.04563,0.20537
485.97410,0.16337
487.90257,0.12021
489.83104,0.13577
491.75951,0.16041
493.68798,0.15395
495.61645,0.19539
497.54491,0.26655
499.47338,0.25959
501.40185,0.17536
503.33032,0.10512
505.25879,0.10788
507.18726,0.14163
509.11573,0.13623
511.04419,0.08927
512.97266,0.06386
514.90113,0.10469
516.82960,0.17059
518.75807,0.17087
520.68654,0.12729
522.61501,0.09880
524.54348,0.08146
526.47194,0.08504
528.40041,0.11355
530.32888,0.13545
532.25735,0.11789
534.18582,0.06987
536.11429,0.03644
538.04276,0.02713
539.97122,0.04082
541.89969,0.08978
543.82816,0.12687
545.75663,0.11949
547.68510,0.10558
549.61357,0.09358
551.54204,0.03636
553.47051,-0.04925
555.39897,-0.04104
557.32744,0.05686
559.25591,0.10846
561.18438,0.08925
563.11285,0.07628
565.04132,0.11426
566.96979,0.15084
568.89825,0.15278
570.82672,0.15620
572.75519,0.14785
574.68366,0.11476
576.61213,0.10023
578.54060,0.10630
580.46907,0.09818
582.39754,0.08649
584.32600,0.09011
586.25447,0.10508
588.18294,0.12287
590.11141,0.13976
592.03988,0.15594
593.96835,0.16240
595.89682,0.15232
597.82528,0.12763
599.75375,0.10268
601.68222,0.09649
603.61069,0.10820
605.53916,0.11944
607.46763,0.12444
609.39610,0.12211
611.32456,0.11100
613.25303,0.09812
615.18150,0.08713
617.10997,0.09070
619.03844,0.10644
620.96691,0.11022
622.89538,0.10705
624.82385,0.10372
626.75231,0.10023
628.68078,0.10365
630.60925,0.09479
632.53772,0.08225
634.46619,0.10876
636.39466,0.14340
638.32313,0.13988
640.25159,0.11150
642.18006,0.09143
644.10853,0.08932
646.03700,0.09730
647.96547,0.11570
649.89394,0.13779
651.82241,0.14215
653.75088,0.12190
655.67934,0.10162
657.60781,0.10696
659.53628,0.12899
661.46475,0.14059
663.39322,0.12436
665.32169,0.09480
667.25016,0.08083
669.17862,0.09992
671.10709,0.11919
673.03556,0.12366
674.96403,0.11801
676.89250,0.11195
678.82097,0.11797
680.74944,0.13088
682.67791,0.13962
684.60637,0.13755
686.53484,0.12945
688.46331,0.12616
690.39178,0.12435
692.32025,0.11969
694.24872,0.11350
696.17719,0.11302
698.10565,0.12171
700.03412,0.13213
701.96259,0.13371
703.89106,0.12561
705.81953,0.12427
707.74800,0.12948
709.67647,0.13450
711.60494,0.14312
713.53340,0.14126
715.46187,0.12529
717.39034,0.11875
719.31881,0.12631
721.24728,0.13167
723.17575,0.13261
725.10422,0.13717
727.03268,0.14076
728.96115,0.13459
730.88962,0.12511
732.81809,0.11875
734.74656,0.11455
736.67503,0.11947
738.60350,0.13178
740.53197,0.13542
742.46043,0.12532
744.38890,0.11846
746.31737,0.12666
748.24584,0.13717
750.17431,0.14370
752.10278,0.15465
754.03125,0.16308
755.95971,0.15336
757.88818,0.13250
759.81665,0.12147
761.74512,0.12313
763.67359,0.12117
765.60206,0.11388
767.53053,0.11552
769.45900,0.12422
771.38746,0.12812
773.31593,0.12665
775.24440,0.12703
777.17287,0.12907
779.10134,0.13109
781.02981,0.13248
782.95828,0.12697
784.88674,0.12221
786.81521,0.12222
788.74368,0.08898
790.67215,0.02518
792.60062,0.01555
794.52909,0.07349
796.45756,0.11444
798.38602,0.12041
800.31449,0.12377
802.24296,0.12931
804.17143,0.13524
806.09990,0.13936
808.02837,0.13853
809.95684,0.13954
811.88531,0.14354
813.81377,0.14085
815.74224,0.13755
817.67071,0.14260
819.59918,0.14415
821.52765,0.13913
823.45612,0.14149
825.38459,0.15008
827.31305,0.14812
829.24152,0.13511
831.16999,0.12427
833.09846,0.12169
835.02693,0.12933
836.95540,0.13512
838.88387,0.12893
840.81234,0.12805
842.74080,0.13805
844.66927,0.14679
846.59774,0.15094
848.52621,0.14458
850.45468,0.13052
852.38315,0.12928
854.31162,0.14018
856.24008,0.14515
858.16855,0.14621
860.09702,0.15097
862.02549,0.15377
863.95396,0.14762
865.88243,0.13874
867.81090,0.14234
869.73937,0.16078
871.66783,0.17524
873.59630,0.16753
875.52477,0.14841
877.45324,0.13979
879.38171,0.13834
881.31018,0.13160
883.23865,0.12899
885.16711,0.14287
887.09558,0.15828
889.02405,0.15337
890.95252,0.13712
892.88099,0.13482
894.80946,0.14447
896.73793,0.14922
898.66640,0.14987
900.59486,0.14957
902.52333,0.14490
904.45180,0.13863
906.38027,0.13526
908.30874,0.13290
910.23721,0.12971
912.16568,0.12641
914.09414,0.12745
916.02261,0.13569
917.95108,0.14401
919.87955,0.14923
921.80802,0.15314
923.73649,0.15104
925.66496,0.14507
927.59343,0.14679
929.52189,0.15371
931.45036,0.15119
933.37883,0.13799
935.30730,0.12889
937.23577,0.13354
939.16424,0.14248
941.09271,0.14519
943.02117,0.14527
944.94964,0.14704
946.87811,0.14960
948.80658,0.15471
950.73505,0.16032
952.66352,0.15949
954.59199,0.15658
956.52045,0.15472
958.44892,0.14616
960.37739,0.13733
962.30586,0.13686
964.23433,0.13820
966.16280,0.13716
968.09127,0.13489
970.01974,0.13358
971.94820,0.13660
973.87667,0.14191
975.80514,0.14714
977.73361,0.15198
979.66208,0.15246
981.59055,0.15056
983.51902,0.15317
985.44748,0.15752
987.37595,0.15553
989.30442,0.14835
991.23289,0.14506
993.16136,0.14732
995.08983,0.15092
997.01830,0.15305
998.94677,0.15057
1000.87523,0.14405
1002.80370,0.14002
1004.73217,0.14353
1006.66064,0.15077
1008.58911,0.15403
1010.51758,0.15164
1012.44605,0.15362
1014.37451,0.15951
1016.30298,0.15405
1018.23145,0.14546
1020.15992,0.14724
1022.08839,0.15090
1024.01686,0.14913
1025.94533,0.13752
1027.87380,0.11928
1029.80226,0.11936
1031.73073,0.14529
1033.65920,0.17068
1035.58767,0.17780
1037.51614,0.16682
1039.44461,0.15087
1041.37308,0.14329
1043.30154,0.14201
1045.23001,0.14606
1047.15848,0.15180
1049.08695,0.15126
1051.01542,0.14869
1052.94389,0.14853
1054.87236,0.14962
1056.80083,0.15502
1058.72929,0.16364
1060.65776,0.16673
1062.58623,0.16517
1064.51470,0.16788
1066.44317,0.17239
1068.37164,0.17146
1070.30011,0.16793
1072.22857,0.16408
1074.15704,0.16023
1076.08551,0.16153
1078.01398,0.16617
1079.94245,0.16633
1081.87092,0.16334
1083.79939,0.16153
1085.72786,0.16011
1087.65632,0.15686
1089.58479,0.14928
1091.51326,0.14389
1093.44173,0.14688
1095.37020,0.15350
1097.29867,0.16282
1099.22714,0.17123
1101.15560,0.17201
1103.08407,0.16814
1105.01254,0.16115
1106.94101,0.14962
1108.86948,0.14319
1110.79795,0.15162
1112.72642,0.16833
1114.65489,0.17986
1116.58335,0.17840
1118.51182,0.17028
1120.44029,0.16388
1122.36876,0.15617
1124.29723,0.15005
1126.22570,0.15089
1128.15417,0.15322
1130.08263,0.15381
1132.01110,0.15619
1133.93957,0.16081
1135.86804,0.16195
1137.79651,0.15645
1139.72498,0.15077
1141.65345,0.15062
1143.58191,0.15379
1145.51038,0.15609
1147.43885,0.15790
1149.36732,0.16013
1151.29579,0.15827
1153.22426,0.15446
1155.15273,0.15539
1157.08120,0.15853
1159.00966,0.16127
1160.93813,0.16528
1162.86660,0.16839
1164.79507,0.16751
1166.72354,0.16416
1168.65201,0.15989
1170.58048,0.15684
1172.50894,0.15806
1174.43741,0.16007
1176.36588,0.15888
1178.29435,0.15708
1180.22282,0.15689
1182.15129,0.15783
1184.07976,0.16284
1186.00823,0.17352
1187.93669,0.18187
1189.86516,0.17902
1191.79363,0.16844
1193.72210,0.16193
1195.65057,0.16312
1197.57904,0.16581
1199.50751,0.16266
1201.43597,0.15534
1203.36444,0.15245
1205.29291,0.15268
1207.22138,0.15203
1209.14985,0.15345
1211.07832,0.15974
1213.00679,0.16662
1214.93526,0.16665
1216.86372,0.16309
1218.79219,0.16322
1220.72066,0.16736
1222.64913,0.17172
1224.57760,0.17159
1226.50607,0.16634
1228.43454,0.16018
1230.36300,0.15921
1232.29147,0.16320
1234.21994,0.16336
1236.14841,0.15887
1238.07688,0.15646
1240.00535,0.15570
1241.93382,0.15561
1243.86229,0.15647
1245.79075,0.15328
1247.71922,0.14809
1249.64769,0.14890
1251.57616,0.15278
1253.50463,0.15418
1255.43310,0.15583
1257.36157,0.15619
1259.29003,0.14975
1261.21850,0.14408
1263.14697,0.14762
1265.07544,0.15324
1267.00391,0.15566
1268.93238,0.15768
1270.86085,0.15958
1272.78932,0.15904
1274.71778,0.15508
1276.64625,0.15254
1278.57472,0.15517
1280.50319,0.15498
1282.43166,0.14996
1284.36013,0.15054
1286.28860,0.15327
1288.21706,0.15281
1290.14553,0.15505
1292.07400,0.15585
1294.00247,0.15192
1295.93094,0.14750
1297.85941,0.14043
1299.78788,0.12534
1301.71634,0.09978
1303.64481,0.07757
1305.57328,0.08779
1307.50175,0.12934
1309.43022,0.16223
1311.35869,0.17094
1313.28716,0.17053
1315.21563,0.16727
1317.14409,0.16518
1319.07256,0.16321
1321.00103,0.15633
1322.92950,0.15250
1324.85797,0.15189
1326.78644,0.14811
1328.71491,0.14483
1330.64337,0.13993
1332.57184,0.13669
1334.50031,0.14207
1336.42878,0.14390
1338.35725,0.13909
1340.28572,0.13403
1342.21419,0.13266
1344.14266,0.14123
1346.07112,0.14729
1347.99959,0.14401
1349.92806,0.14296
1351.85653,0.14534
1353.78500,0.14759
1355.71347,0.14889
1357.64194,0.15104
1359.57040,0.15761
1361.49887,0.16465
1363.42734,0.16483
1365.35581,0.16179
1367.28428,0.16227
1369.21275,0.16466
1371.14122,0.16724
1373.06969,0.17213
1374.99815,0.17580
1376.92662,0.17407
1378.85509,0.17234
1380.78356,0.17237
1382.71203,0.17255
1384.64050,0.17606
1386.56897,0.18119
1388.49743,0.18051
1390.42590,0.17824
1392.35437,0.18042
1394.28284,0.18421
1396.21131,0.18477
1398.13978,0.18281
1400.06825,0.17914
1401.99672,0.17596
1403.92518,0.17660
1405.85365,0.17701
1407.78212,0.17370
1409.71059,0.17234
1411.63906,0.17574
1413.56753,0.17960
1415.49600,0.18105
1417.42446,0.18320
1419.35293,0.18792
1421.28140,0.18917
1423.20987,0.18586
1425.13834,0.18198
1427.06681,0.18032
1428.99528,0.17938
1430.92375,0.17893
1432.85221,0.18250
1434.78068,0.19038
1436.70915,0.19490
1438.63762,0.18937
1440.56609,0.18322
1442.49456,0.18028
1444.42303,0.18125
1446.35149,0.18632
1448.27996,0.19031
1450.20843,0.19273
1452.13690,0.19642
1454.06537,0.20144
1455.99384,0.21348
1457.92231,0.22082
1459.85077,0.20801
1461.77924,0.19975
1463.70771,0.19732
1465.63618,0.19111
1467.56465,0.18550
1469.49312,0.18791
1471.42159,0.19614
1473.35006,0.20089
1475.27852,0.19760
1477.20699,0.19527
1479.13546,0.19467
1481.06393,0.19104
1482.99240,0.18549
1484.92087,0.18488
1486.84934,0.19174
1488.77780,0.20169
1490.70627,0.20248
1492.63474,0.19673
1494.56321,0.19689
1496.49168,0.20299
1498.42015,0.20386
1500.34862,0.19700
1502.27709,0.19453
1504.20555,0.20462
1506.13402,0.22311
1508.06249,0.21874
1509.99096,0.20539
1511.91943,0.20259
1513.84790,0.20684
1515.77637,0.21339
1517.70483,0.21265
1519.63330,0.20853
1521.56177,0.20798
1523.49024,0.20419
1525.41871,0.19996
1527.34718,0.19752
1529.27565,0.19723
1531.20412,0.20124
1533.13258,0.20645
1535.06105,0.20527
1536.98952,0.20332
1538.91799,0.21132
1540.84646,0.22464
1542.77493,0.22010
1544.70340,0.20745
1546.63186,0.19747
1548.56033,0.19392
1550.48880,0.19668
1552.41727,0.20463
1554.34574,0.21284
1556.27421,0.22028
1558.20268,0.23090
1560.13115,0.21676
1562.05961,0.19704
1563.98808,0.19059
1565.91655,0.18941
1567.84502,0.19029
1569.77349,0.19478
1571.70196,0.19769
1573.63043,0.19809
1575.55889,0.19874
1577.48736,0.19386
1579.41583,0.18649
1581.34430,0.18343
1583.27277,0.18251
1585.20124,0.18152
1587.12971,0.18041
1589.05818,0.17734
1590.98664,0.17627
1592.91511,0.18047
1594.84358,0.18123
1596.77205,0.17528
1598.70052,0.17241
1600.62899,0.17701
1602.55746,0.18251
1604.48592,0.18467
1606.41439,0.18681
1608.34286,0.18758
1610.27133,0.18457
1612.19980,0.18270
1614.12827,0.18474
1616.05674,0.18955
1617.98521,0.19324
1619.91367,0.19591
1621.84214,0.20124
1623.77061,0.20168
1625.69908,0.19415
1627.62755,0.19037
1629.55602,0.19035
1631.48449,0.19036
1633.41295,0.19356
1635.34142,0.20239
1637.26989,0.20694
1639.19836,0.20191
1641.12683,0.19540
1643.05530,0.19449
1644.98377,0.20520
1646.91223,0.22256
1648.84070,0.22356
1650.76917,0.21764
1652.69764,0.21670
1654.62611,0.21096
1656.55458,0.20268
1658.48305,0.19993
1660.41152,0.20626
1662.33998,0.21599
1664.26845,0.21023
1666.19692,0.19919
1668.12539,0.19935
1670.05386,0.20352
1671.98233,0.20207
1673.91080,0.20149
1675.83926,0.20211
1677.76773,0.20248
1679.69620,0.20412
1681.62467,0.20965
1683.55314,0.22025
1685.48161,0.22111
1687.41008,0.21179
1689.33855,0.20321
1691.26701,0.19680
1693.19548,0.19491
1695.12395,0.19936
1697.05242,0.20787
1698.98089,0.21195
1700.90936,0.20920
1702.83783,0.20640
1704.76629,0.20493
1706.69476,0.20021
1708.62323,0.19525
1710.55170,0.19304
1712.48017,0.19223
1714.40864,0.19625
1716.33711,0.20838
1718.26558,0.21129
1720.19404,0.19895
1722.12251,0.18974
1724.05098,0.18561
1725.97945,0.18274
1727.90792,0.18361
1729.83639,0.18993
1731.76486,0.19725
1733.69332,0.19924
1735.62179,0.19342
1737.55026,0.18995
1739.47873,0.19119
1741.40720,0.19354
1743.33567,0.19575
1745.26414,0.20092
1747.19261,0.20771
1749.12107,0.20786
1751.04954,0.19788
1752.97801,0.18970
1754.90648,0.18831
1756.83495,0.18848
1758.76342,0.18870
1760.69189,0.18956
1762.62035,0.18705
1764.54882,0.18315
1766.47729,0.18441
1768.40576,0.19227
1770.33423,0.20152
1772.26270,0.20399
1774.19117,0.19994
1776.11964,0.19586
1778.04810,0.19330
1779.97657,0.19227
1781.90504,0.19028
1783.83351,0.18659
1785.76198,0.18416
1787.69045,0.18680
1789.61892,0.19636
1791.54738,0.20757
1793.47585,0.20748
1795.40432,0.19932
1797.33279,0.19320
1799.26126,0.19034
1801.18973,0.19048
1803.11820,0.19097
1805.04666,0.18983
1806.97513,0.18945
1808.90360,0.18903
1810.83207,0.18457
1812.76054,0.18083
1814.68901,0.18399
1816.61748,0.18887
1818.54595,0.18994
1820.47441,0.18957
1822.40288,0.19103
1824.33135,0.19337
1826.25982,0.19491
1828.18829,0.19535
1830.11676,0.19217
1832.04523,0.18798
1833.97369,0.18836
1835.90216,0.19049
1837.83063,0.18985
1839.75910,0.18828
1841.68757,0.19070
1843.61604,0.19540
1845.54451,0.19425
1847.47298,0.18937
1849.40144,0.18673
1851.32991,0.18569
1853.25838,0.18470
1855.18685,0.18432
1857.11532,0.18444
1859.04379,0.18441
1860.97226,0.18511
1862.90072,0.18603
1864.82919,0.18660
1866.75766,0.18907
1868.68613,0.19229
1870.61460,0.19112
1872.54307,0.18853
1874.47154,0.18742
1876.40001,0.18578
1878.32847,0.18438
1880.25694,0.18455
1882.18541,0.18559
1884.11388,0.18710
1886.04235,0.18802
1887.97082,0.18916
1889.89929,0.18931
1891.82775,0.18611
1893.75622,0.18284
1895.68469,0.18208
1897.61316,0.18388
1899.54163,0.18591
1901.47010,0.18575
1903.39857,0.18530
1905.32704,0.18653
1907.25550,0.18913
1909.18397,0.19191
1911.11244,0.19286
1913.04091,0.19192
1914.96938,0.18995
1916.89785,0.18833
1918.82632,0.18806
1920.75478,0.18736
1922.68325,0.18540
1924.61172,0.18323
1926.54019,0.18292
1928.46866,0.18467
1930.39713,0.18723
1932.32560,0.18908
1934.25407,0.18865
1936.18253,0.18921
1938.11100,0.19266
1940.03947,0.19526
1941.96794,0.19584
1943.89641,0.19504
1945.82488,0.19253
1947.75335,0.18891
1949.68181,0.18673
1951.61028,0.18738
1953.53875,0.18814
1955.46722,0.18737
1957.39569,0.18713
1959.32416,0.18754
1961.25263,0.18739
1963.18110,0.18717
1965.10956,0.18602
1967.03803,0.18514
1968.96650,0.18692
1970.89497,0.18730
1972.82344,0.18455
1974.75191,0.18220
1976.68038,0.18239
1978.60884,0.18553
1980.53731,0.18716
1982.46578,0.18526
1984.39425,0.18679
1986.32272,0.19061
1988.25119,0.19006
1990.17966,0.18857
1992.10812,0.18938
1994.03659,0.18963
1995.96506,0.18882
1997.89353,0.18892
1999.82200,0.18949
2001.75047,0.18885
2003.67894,0.18803
2005.60741,0.18810
2007.53587,0.18955
2009.46434,0.19124
2011.39281,0.18998
2013.32128,0.18801
2015.24975,0.18929
2017.17822,0.18965
2019.10669,0.18511
2021.03515,0.18157
2022.96362,0.18243
2024.89209,0.18455
2026.82056,0.18699
2028.74903,0.18960
2030.67750,0.19117
2032.60597,0.19124
2034.53444,0.19036
2036.46290,0.18894
2038.39137,0.18649
2040.31984,0.18588
2042.24831,0.18910
2044.17678,0.19125
2046.10525,0.19000
2048.03372,0.18815
2049.96218,0.18670
2051.89065,0.18579
2053.81912,0.18503
2055.74759,0.18358
2057.67606,0.18316
2059.60453,0.18394
2061.53300,0.18341
2063.46147,0.18320
2065.38993,0.18489
2067.31840,0.18662
2069.24687,0.18861
2071.17534,0.19044
2073.10381,0.19136
2075.03228,0.19179
2076.96075,0.19048
2078.88921,0.18795
2080.81768,0.18671
2082.74615,0.18769
2084.67462,0.18931
2086.60309,0.19022
2088.53156,0.19124
2090.46003,0.19191
2092.38850,0.19199
2094.31696,0.19290
2096.24543,0.19402
2098.17390,0.19422
2100.10237,0.19425
2102.03084,0.19279
2103.95931,0.18890
2105.88778,0.18632
2107.81624,0.18703
2109.74471,0.18834
2111.67318,0.18906
2113.60165,0.19026
2115.53012,0.19143
2117.45859,0.19146
2119.38706,0.19034
2121.31553,0.18942
2123.24399,0.19009
2125.17246,0.19054
2127.10093,0.18928
2129.02940,0.18854
2130.95787,0.18981
2132.88634,0.19195
2134.81481,0.19388
2136.74327,0.19443
2138.67174,0.19291
2140.60021,0.18971
2142.52868,0.18589
2144.45715,0.18370
2146.38562,0.18344
2148.31409,0.18482
2150.24255,0.18768
2152.17102,0.18899
2154.09949,0.18843
2156.02796,0.18818
2157.95643,0.18828
2159.88490,0.18888
2161.81337,0.18951
2163.74184,0.18860
2165.67030,0.18738
2167.59877,0.18654
2169.52724,0.18529
2171.45571,0.18637
2173.38418,0.18993
2175.31265,0.19197
2177.24112,0.19125
2179.16958,0.19024
2181.09805,0.19011
2183.02652,0.18780
2184.95499,0.18459
2186.88346,0.18523
2188.81193,0.18723
2190.74040,0.18573
2192.66887,0.18275
2194.59733,0.18260
2196.52580,0.18659
2198.45427,0.19212
2200.38274,0.19402
2202.31121,0.19181
2204.23968,0.18993
2206.16815,0.18950
2208.09661,0.18670
2210.02508,0.18370
2211.95355,0.18626
2213.88202,0.18992
2215.81049,0.18931
2217.73896,0.18791
2219.66743,0.18832
2221.59590,0.18821
2223.52436,0.18770
2225.45283,0.18855
2227.38130,0.18914
2229.30977,0.18858
2231.23824,0.18811
2233.16671,0.18769
2235.09518,0.18741
2237.02364,0.18868
2238.95211,0.19010
2240.88058,0.18981
2242.80905,0.18915
2244.73752,0.18913
2246.66599,0.19102
2248.59446,0.19413
2250.52293,0.19543
2252.45139,0.19452
2254.37986,0.19247
2256.30833,0.19062
2258.23680,0.19020
2260.16527,0.19089
2262.09374,0.19281
2264.02221,0.19488
2265.95067,0.19379
2267.87914,0.18927
2269.80761,0.18548
2271.73608,0.18664
2273.66455,0.19043
2275.59302,0.19132
2277.52149,0.18881
2279.44996,0.18582
2281.37842,0.18483
2283.30689,0.18636
2285.23536,0.18966
2287.16383,0.19176
2289.09230,0.18906
2291.02077,0.18390
2292.94924,0.18023
2294.87770,0.17840
2296.80617,0.18020
2298.73464,0.18500
2300.66311,0.18684
2302.59158,0.18562
2304.52005,0.18552
2306.44852,0.18595
2308.37699,0.18497
2310.30545,0.18161
2312.23392,0.17718
2314.16239,0.17577
2316.09086,0.17660
2318.01933,0.17573
2319.94780,0.17472
2321.87627,0.17617
2323.80473,0.17947
2325.73320,0.18054
2327.66167,0.17406
2329.59014,0.16739
2331.51861,0.17010
2333.44708,0.17530
2335.37555,0.18053
2337.30401,0.19146
2339.23248,0.19887
2341.16095,0.19371
2343.08942,0.18638
2345.01789,0.18396
2346.94636,0.17977
2348.87483,0.16998
2350.80330,0.15790
2352.73176,0.15295
2354.66023,0.15699
2356.58870,0.15097
2358.51717,0.14214
2360.44564,0.15746
2362.37411,0.18812
2364.30258,0.21017
2366.23104,0.20973
2368.15951,0.19371
2370.08798,0.17870
2372.01645,0.17079
2373.94492,0.17120
2375.87339,0.17899
2377.80186,0.18614
2379.73033,0.18739
2381.65879,0.18677
2383.58726,0.18761
2385.51573,0.18849
2387.44420,0.18888
2389.37267,0.18995
2391.30114,0.19115
2393.22961,0.19144
2395.15807,0.19201
2397.08654,0.19299
2399.01501,0.19175
2400.94348,0.18939
2402.87195,0.18994
2404.80042,0.19134
2406.72889,0.19023
2408.65736,0.19000
2410.58582,0.19287
2412.51429,0.19404
2414.44276,0.19231
2416.37123,0.19225
2418.29970,0.19333
2420.22817,0.19289
2422.15664,0.19143
2424.08510,0.19041
2426.01357,0.19110
2427.94204,0.19121
2429.87051,0.18904
2431.79898,0.18696
2433.72745,0.18602
2435.65592,0.18612
2437.58439,0.18732
2439.51285,0.18888
2441.44132,0.19008
2443.36979,0.19133
2445.29826,0.19284
2447.22673,0.19291
2449.15520,0.19082
2451.08367,0.18349
2453.01213,0.16871
2454.94060,0.15925
2456.86907,0.16759
2458.79754,0.18386
2460.72601,0.19264
2462.65448,0.19433
2464.58295,0.19444
2466.51142,0.19288
2468.43988,0.18930
2470.36835,0.18595
2472.29682,0.18595
2474.22529,0.18834
2476.15376,0.19006
2478.08223,0.19099
2480.01070,0.19195
2481.93916,0.19114
2483.86763,0.18773
2485.79610,0.18547
2487.72457,0.18559
2489.65304,0.18646
2491.58151,0.18636
2493.50998,0.18506
2495.43844,0.18546
2497.36691,0.18829
2499.29538,0.19104
2501.22385,0.19077
2503.15232,0.18830
2505.08079,0.18819
2507.00926,0.19198
2508.93773,0.19518
2510.86619,0.19316
2512.79466,0.18851
2514.72313,0.18740
2516.65160,0.19106
2518.58007,0.19460
2520.50854,0.19482
2522.43701,0.19340
2524.36547,0.19239
2526.29394,0.19201
2528.22241,0.19174
2530.15088,0.19265
2532.07935,0.19423
2534.00782,0.19311
2535.93629,0.19066
2537.86476,0.19110
2539.79322,0.19226
2541.72169,0.19071
2543.65016,0.18857
2545.57863,0.18833
2547.50710,0.18975
2549.43557,0.19190
2551.36404,0.19375
2553.29250,0.19413
2555.22097,0.19381
2557.14944,0.19390
2559.07791,0.19307
2561.00638,0.19141
2562.93485,0.19122
2564.86332,0.19171
2566.79179,0.19125
2568.72025,0.19200
2570.64872,0.19378
2572.57719,0.19459
2574.50566,0.19450
2576.43413,0.19254
2578.36260,0.19037
2580.29107,0.19029
2582.21953,0.19013
2584.14800,0.18968
2586.07647,0.18916
2588.00494,0.18654
2589.93341,0.18606
2591.86188,0.19069
2593.79035,0.19518
2595.71882,0.19781
2597.64728,0.19891
2599.57575,0.19645
2601.50422,0.19271
2603.43269,0.19162
2605.36116,0.19324
2607.28963,0.19529
2609.21810,0.19662
2611.14656,0.19687
2613.07503,0.19352
2615.00350,0.18896
2616.93197,0.18932
2618.86044,0.19248
2620.78891,0.19391
2622.71738,0.19308
2624.64585,0.19154
2626.57431,0.19237
2628.50278,0.19559
2630.43125,0.19822
2632.35972,0.19934
2634.28819,0.19924
2636.21666,0.19731
2638.14513,0.19598
2640.07359,0.19659
2642.00206,0.19584
2643.93053,0.19455
2645.85900,0.19543
2647.78747,0.19667
2649.71594,0.19726
2651.64441,0.19896
2653.57288,0.20099
2655.50134,0.20073
2657.42981,0.19841
2659.35828,0.19634
2661.28675,0.19640
2663.21522,0.19777
2665.14369,0.19754
2667.07216,0.19597
2669.00062,0.19592
2670.92909,0.19816
2672.85756,0.19993
2674.78603,0.19829
2676.71450,0.19504
2678.64297,0.19395
2680.57144,0.19554
2682.49990,0.19721
2684.42837,0.19627
2686.35684,0.19543
2688.28531,0.19814
2690.21378,0.20001
2692.14225,0.19779
2694.07072,0.19547
2695.99919,0.19636
2697.92765,0.19929
2699.85612,0.20039
2701.78459,0.19783
2703.71306,0.19419
2705.64153,0.19158
2707.57000,0.19076
2709.49847,0.19306
2711.42693,0.19751
2713.35540,0.20060
2715.28387,0.20127
2717.21234,0.20094
2719.14081,0.20085
2721.06928,0.20150
2722.99775,0.20051
2724.92622,0.19672
2726.85468,0.19438
2728.78315,0.19571
2730.71162,0.19838
2732.64009,0.19951
2734.56856,0.19830
2736.49703,0.19735
2738.42550,0.19657
2740.35396,0.19538
2742.28243,0.19842
2744.21090,0.20391
2746.13937,0.20596
2748.06784,0.20574
2749.99631,0.20581
2751.92478,0.20500
2753.85325,0.20102
2755.78171,0.19655
2757.71018,0.19665
2759.63865,0.19910
2761.56712,0.19857
2763.49559,0.19723
2765.42406,0.19871
2767.35253,0.19863
2769.28099,0.19545
2771.20946,0.19560
2773.13793,0.19875
2775.06640,0.20012
2776.99487,0.20127
2778.92334,0.20232
2780.85181,0.20128
2782.78028,0.19983
2784.70874,0.19991
2786.63721,0.20068
2788.56568,0.20071
2790.49415,0.20073
2792.42262,0.20099
2794.35109,0.20191
2796.27956,0.20447
2798.20802,0.20620
2800.13649,0.20490
2802.06496,0.20183
2803.99343,0.20082
2805.92190,0.20534
2807.85037,0.21151
2809.77884,0.21387
2811.70731,0.21405
2813.63577,0.21312
2815.56424,0.20953
2817.49271,0.20428
2819.42118,0.20075
2821.34965,0.20162
2823.27812,0.20373
2825.20659,0.20246
2827.13505,0.20015
2829.06352,0.20236
2830.99199,0.20797
2832.92046,0.21002
2834.84893,0.20720
2836.77740,0.20544
2838.70587,0.20733
2840.63433,0.20913
2842.56280,0.20941
2844.49127,0.21075
2846.41974,0.21177
2848.34821,0.21022
2850.27668,0.20779
2852.20515,0.20512
2854.13362,0.20356
2856.06208,0.20443
2857.99055,0.20685
2859.91902,0.20912
2861.84749,0.20641
2863.77596,0.19878
2865.70443,0.19400
2867.63290,0.19476
2869.56136,0.19747
2871.48983,0.19839
2873.41830,0.19650
2875.34677,0.19485
2877.27524,0.19684
2879.20371,0.20085
2881.13218,0.20102
2883.06065,0.19511
2884.98911,0.19016
2886.91758,0.19274
2888.84605,0.19922
2890.77452,0.20388
2892.70299,0.20325
2894.63146,0.19671
2896.55993,0.19389
2898.48839,0.20066
2900.41686,0.20788
2902.34533,0.20505
2904.27380,0.19080
2906.20227,0.18035
2908.13074,0.18718
2910.05921,0.19897
2911.98768,0.20061
2913.91614,0.19179
2915.84461,0.18119
2917.77308,0.18205
2919.70155,0.19373
2921.63002,0.20360
2923.55849,0.20224
2925.48696,0.18752
2927.41542,0.17725
2929.34389,0.18497
2931.27236,0.19757
2933.20083,0.20176
2935.12930,0.18982
2937.05777,0.17193
2938.98624,0.17545
2940.91471,0.19376
2942.84317,0.20055
2944.77164,0.19023
2946.70011,0.17137
2948.62858,0.16595
2950.55705,0.18140
2952.48552,0.19706
2954.41399,0.19814
2956.34245,0.18189
2958.27092,0.16809
2960.19939,0.17832
2962.12786,0.19459
2964.05633,0.19766
2965.98480,0.19099
2967.91327,0.18380
2969.84174,0.18874
2971.77020,0.20075
2973.69867,0.20507
2975.62714,0.19768
2977.55561,0.18174
2979.48408,0.17495
2981.41255,0.18408
2983.34102,0.19615
2985.26948,0.20456
2987.19795,0.20418
2989.12642,0.20043
2991.05489,0.20387
2992.98336,0.20848
2994.91183,0.20767
2996.84030,0.20163
2998.76877,0.19705
3000.69723,0.20120
3002.62570,0.20630
3004.55417,0.20322
3006.48264,0.19532
3008.41111,0.18611
3010.33958,0.16626
3012.26805,0.12664
3014.19651,0.08127
3016.12498,0.05963
3018.05345,0.08573
3019.98192,0.14410
3021.91039,0.18867
3023.83886,0.20692
3025.76733,0.21028
3027.69579,0.20422
3029.62426,0.20150
3031.55273,0.20846
3033.48120,0.21512
3035.40967,0.21257
3037.33814,0.20468
3039.26661,0.20305
3041.19508,0.20722
3043.12354,0.20747
3045.05201,0.20125
3046.98048,0.19366
3048.90895,0.19412
3050.83742,0.20072
3052.76589,0.20209
3054.69436,0.19387
3056.62282,0.18148
3058.55129,0.18021
3060.47976,0.19020
3062.40823,0.19637
3064.33670,0.19028
3066.26517,0.17881
3068.19364,0.18284
3070.12211,0.19614
3072.05057,0.19711
3073.97904,0.18706
3075.90751,0.17747
3077.83598,0.18207
3079.76445,0.19556
3081.69292,0.19502
3083.62139,0.17570
3085.54985,0.16071
3087.47832,0.17132
3089.40679,0.19209
3091.33526,0.19688
3093.26373,0.18208
3095.19220,0.17094
3097.12067,0.18420
3099.04914,0.20411
3100.97760,0.20572
3102.90607,0.18781
3104.83454,0.17675
3106.76301,0.19000
3108.69148,0.20632
3110.61995,0.20388
3112.54842,0.18960
3114.47688,0.18744
3116.40535,0.19851
3118.33382,0.20174
3120.26229,0.19134
3122.19076,0.18333
3124.11923,0.19337
3126.04770,0.20748
3127.97617,0.20652
3129.90463,0.19751
3131.83310,0.19866
3133.76157,0.21098
3135.69004,0.21729
3137.61851,0.21081
3139.54698,0.20207
3141.47545,0.20052
3143.40391,0.20269
3145.33238,0.20576
3147.26085,0.20834
3149.18932,0.20498
3151.11779,0.20054
3153.04626,0.20173
3154.97473,0.20466
3156.90320,0.20668
3158.83166,0.20980
3160.76013,0.21174
3162.68860,0.21204
3164.61707,0.21510
3166.54554,0.22031
3168.47401,0.22253
3170.40248,0.22178
3172.33094,0.21926
3174.25941,0.21472
3176.18788,0.21417
3178.11635,0.21596
3180.04482,0.21252
3181.97329,0.21009
3183.90176,0.21433
3185.83022,0.21935
3187.75869,0.22214
3189.68716,0.22431
3191.61563,0.22439
3193.54410,0.22384
3195.47257,0.22339
3197.40104,0.21963
3199.32951,0.21453
3201.25797,0.21133
3203.18644,0.21050
3205.11491,0.21097
3207.04338,0.21100
3208.97185,0.21325
3210.90032,0.22050
3212.82879,0.22795
3214.75725,0.22853
3216.68572,0.22297
3218.61419,0.21931
3220.54266,0.22119
3222.47113,0.22338
3224.39960,0.21830
3226.32807,0.20950
3228.25654,0.20663
3230.18500,0.20788
3232.11347,0.21108
3234.04194,0.21673
3235.97041,0.21926
3237.89888,0.21585
3239.82735,0.21006
3241.75582,0.20637
3243.68428,0.20543
3245.61275,0.20648
3247.54122,0.20933
3249.46969,0.21257
3251.39816,0.21236
3253.32663,0.20970
3255.25510,0.21160
3257.18357,0.21443
3259.11203,0.21169
3261.04050,0.20821
3262.96897,0.20853
3264.89744,0.21153
3266.82591,0.21413
3268.75438,0.21518
3270.68285,0.21619
3272.61131,0.21498
3274.53978,0.21219
3276.46825,0.21445
3278.39672,0.21756
3280.32519,0.21215
3282.25366,0.20207
3284.18213,0.19769
3286.11060,0.20245
3288.03906,0.21137
3289.96753,0.21657
3291.89600,0.21568
3293.82447,0.21563
3295.75294,0.21817
3297.68141,0.21605
3299.60988,0.20992
3301.53834,0.20877
3303.46681,0.21433
3305.39528,0.21770
3307.32375,0.21502
3309.25222,0.21152
3311.18069,0.21040
3313.10916,0.20982
3315.03763,0.20653
3316.96609,0.20379
3318.89456,0.20746
3320.82303,0.21435
3322.75150,0.21848
3324.67997,0.22134
3326.60844,0.22504
3328.53691,0.22488
3330.46537,0.22173
3332.39384,0.22221
3334.32231,0.22342
3336.25078,0.22169
3338.17925,0.21805
3340.10772,0.21455
3342.03619,0.21591
3343.96466,0.21943
3345.89312,0.21995
3347.82159,0.22111
3349.75006,0.22449
3351.67853,0.22533
3353.60700,0.22090
3355.53547,0.21608
3357.46394,0.21532
3359.39240,0.21429
3361.32087,0.21118
3363.24934,0.21057
3365.17781,0.21202
3367.10628,0.21125
3369.03475,0.20933
3370.96322,0.20890
3372.89168,0.21035
3374.82015,0.21285
3376.74862,0.21189
3378.67709,0.20807
3380.60556,0.20971
3382.53403,0.21710
3384.46250,0.22191
3386.39097,0.22139
3388.31943,0.21954
3390.24790,0.21792
3392.17637,0.21705
3394.10484,0.21886
3396.03331,0.22204
3397.96178,0.22220
3399.89025,0.21946
3401.81871,0.21863
3403.74718,0.21762
3405.67565,0.21224
3407.60412,0.20693
3409.53259,0.20644
3411.46106,0.20829
3413.38953,0.20919
3415.31800,0.20985
3417.24646,0.20976
3419.17493,0.20687
3421.10340,0.20429
3423.03187,0.20557
3424.96034,0.20580
3426.88881,0.20058
3428.81728,0.19489
3430.74574,0.19258
3432.67421,0.19091
3434.60268,0.19270
3436.53115,0.20218
3438.45962,0.21015
3440.38809,0.20909
3442.31656,0.20598
3444.24503,0.20629
3446.17349,0.20977
3448.10196,0.21227
3450.03043,0.20773
3451.95890,0.20094
3453.88737,0.19853
3455.81584,0.19769
3457.74431,0.19482
3459.67277,0.19098
3461.60124,0.18868
3463.52971,0.18940
3465.45818,0.19303
3467.38665,0.19606
3469.31512,0.19458
3471.24359,0.19419
3473.17206,0.19799
3475.10052,0.19775
3477.02899,0.19261
3478.95746,0.18950
3480.88593,0.18941
3482.81440,0.18793
3484.74287,0.18384
3486.67134,0.18165
3488.59980,0.18381
3490.52827,0.18541
3492.45674,0.18283
3494.38521,0.18147
3496.31368,0.18382
3498.24215,0.18553
3500.17062,0.18527
3502.09909,0.18337
3504.02755,0.18062
3505.95602,0.17962
3507.88449,0.18214
3509.81296,0.18620
3511.74143,0.18559
3513.66990,0.17922
3515.59837,0.17356
3517.52683,0.17228
3519.45530,0.17389
3521.38377,0.17527
3523.31224,0.17359
3525.24071,0.17298
3527.16918,0.17653
3529.09765,0.17766
3531.02611,0.17557
3532.95458,0.17729
3534.88305,0.18173
3536.81152,0.18104
3538.73999,0.17494
3540.66846,0.16902
3542.59693,0.16582
3544.52540,0.16540
3546.45386,0.16693
3548.38233,0.16940
3550.31080,0.17132
3552.23927,0.17177
3554.16774,0.16991
3556.09621,0.16649
3558.02468,0.16257
3559.95314,0.15905
3561.88161,0.15871
3563.81008,0.16285
3565.73855,0.16935
3567.66702,0.17170
3569.59549,0.16954
3571.52396,0.17025
3573.45243,0.17282
3575.38089,0.17119
3577.30936,0.16361
3579.23783,0.15398
3581.16630,0.14877
3583.09477,0.15386
3585.02324,0.16651
3586.95171,0.17419
3588.88017,0.16698
3590.80864,0.15823
3592.73711,0.15832
3594.66558,0.16144
3596.59405,0.15750
3598.52252,0.14950
3600.45099,0.14565
3602.37946,0.14768
3604.30792,0.15363
3606.23639,0.16030
3608.16486,0.16215
3610.09333,0.15802
3612.02180,0.15420
3613.95027,0.15458
3615.87874,0.15927
3617.80720,0.16416
3619.73567,0.15860
3621.66414,0.14650
3623.59261,0.14425
3625.52108,0.15229
3627.44955,0.16230
3629.37802,0.15952
3631.30649,0.15017
3633.23495,0.14920
3635.16342,0.15052
3637.09189,0.15048
3639.02036,0.14866
3640.94883,0.14409
3642.87730,0.13958
3644.80577,0.14015
3646.73423,0.15186
3648.66270,0.16699
3650.59117,0.15875
3652.51964,0.14668
3654.44811,0.14559
3656.37658,0.14676
3658.30505,0.14150
3660.23352,0.13493
3662.16198,0.13190
3664.09045,0.13076
3666.01892,0.13366
3667.94739,0.14321
3669.87586,0.14952
3671.80433,0.14358
3673.73280,0.14356
3675.66126,0.15453
3677.58973,0.15175
3679.51820,0.13889
3681.44667,0.13194
3683.37514,0.13113
3685.30361,0.13412
3687.23208,0.14237
3689.16055,0.15180
3691.08901,0.14703
3693.01748,0.13216
3694.94595,0.12313
3696.87442,0.12385
3698.80289,0.12782
3700.73136,0.13104
3702.65983,0.13345
3704.58829,0.13320
3706.51676,0.13336
3708.44523,0.13857
3710.37370,0.14623
3712.30217,0.14377
3714.23064,0.13541
3716.15911,0.13281
3718.08757,0.13390
3720.01604,0.13331
3721.94451,0.12873
3723.87298,0.12500
3725.80145,0.12781
3727.72992,0.13142
3729.65839,0.12995
3731.58686,0.12935
3733.51532,0.13434
3735.44379,0.13865
3737.37226,0.14085
3739.30073,0.14043
3741.22920,0.13651
3743.15767,0.13747
3745.08614,0.14930
3747.01460,0.15735
3748.94307,0.16108
3750.87154,0.16095
3752.80001,0.15008
3754.72848,0.14050
3756.65695,0.13413
3758.58542,0.12888
3760.51389,0.12702
3762.44235,0.12796
3764.37082,0.13131
3766.29929,0.13512
3768.22776,0.13559
3770.15623,0.13394
3772.08470,0.13146
3774.01317,0.12767
3775.94163,0.12423
3777.87010,0.12558
3779.79857,0.12996
3781.72704,0.12958
3783.65551,0.12782
3785.58398,0.12692
3787.51245,0.12502
3789.44092,0.12378
3791.36938,0.12233
3793.29785,0.12154
3795.22632,0.12465
3797.15479,0.13129
3799.08326,0.13961
3801.01173,0.14362
3802.94020,0.13436
3804.86866,0.12532
3806.79713,0.12377
3808.72560,0.12216
3810.65407,0.11882
3812.58254,0.11844
3814.51101,0.12358
3816.43948,0.13219
3818.36795,0.13801
3820.29641,0.14211
3822.22488,0.13900
3824.15335,0.12925
3826.08182,0.12259
3828.01029,0.12209
3829.93876,0.12371
3831.86723,0.12318
3833.79569,0.12476
3835.72416,0.13079
3837.65263,0.13547
3839.58110,0.13145
3841.50957,0.12259
3843.43804,0.11581
3845.36651,0.11391
3847.29498,0.11908
3849.22344,0.12743
3851.15191,0.12995
3853.08038,0.12016
3855.00885,0.11274
3856.93732,0.11502
3858.86579,0.11979
3860.79426,0.12978
3862.72272,0.14322
3864.65119,0.14506
3866.57966,0.13736
3868.50813,0.13781
3870.43660,0.14071
3872.36507,0.13454
3874.29354,0.12701
3876.22200,0.12378
3878.15047,0.12317
3880.07894,0.12160
3882.00741,0.11912
3883.93588,0.11953
3885.86435,0.12416
3887.79282,0.12674
3889.72129,0.12239
3891.64975,0.11315
3893.57822,0.10582
3895.50669,0.10550
3897.43516,0.11239
3899.36363,0.12430
3901.29210,0.13033
3903.22057,0.12650
3905.14903,0.12193
3907.07750,0.11805
3909.00597,0.11451
3910.93444,0.11298
3912.86291,0.11287
3914.79138,0.11224
3916.71985,0.10949
3918.64832,0.10619
3920.57678,0.10411
3922.50525,0.10290
3924.43372,0.10343
3926.36219,0.10886
3928.29066,0.11784
3930.21913,0.12206
3932.14760,0.11901
3934.07606,0.11592
3936.00453,0.11449
3937.93300,0.11271
3939.86147,0.11351
3941.78994,0.11736
3943.71841,0.11681
3945.64688,0.11279
3947.57535,0.11124
3949.50381,0.10788
3951.43228,0.10265
3953.36075,0.10164
3955.28922,0.10472
3957.21769,0.10813
3959.14616,0.10943
3961.07463,0.11035
3963.00309,0.11072
3964.93156,0.10888
3966.86003,0.10714
3968.78850,0.10586
3970.71697,0.10566
3972.64544,0.10864
3974.57391,0.11101
3976.50238,0.10881
3978.43084,0.10448
3980.35931,0.10154
3982.28778,0.10013
3984.21625,0.09826
3986.14472,0.09740
3988.07319,0.10291
3990.00166,0.11439
3991.93012,0.12161
3993.85859,0.12126
3995.78706,0.11973
3997.71553,0.11764
3999.64400,0.11572
4001.57247,0.11458
4003.50094,0.11116
4005.42941,0.10722
4007.35787,0.10470
4009.28634,0.10219
4011.21481,0.09949
4013.14328,0.09939
4015.07175,0.10046
4017.00022,0.09933
4018.92869,0.10103
4020.85715,0.10735
4022.78562,0.11256
4024.71409,0.11034
4026.64256,0.10054
4028.57103,0.09544
4030.49950,0.10156
4032.42797,0.10877
4034.35644,0.10791
4036.28490,0.10287
4038.21337,0.09894
4040.14184,0.09598
4042.07031,0.09462
4043.99878,0.09437
4045.92725,0.09473
4047.85572,0.09716
4049.78418,0.09864
4051.71265,0.09597
4053.64112,0.09282
4055.56959,0.09218
4057.49806,0.09236
4059.42653,0.09220
4061.35500,0.09335
4063.28346,0.09663
4065.21193,0.09849
4067.14040,0.09736
4069.06887,0.09610
4070.99734,0.09827
4072.92581,0.10372
4074.85428,0.10674
4076.78275,0.10415
4078.71121,0.09884
4080.63968,0.09472
4082.56815,0.09273
4084.49662,0.09095
4086.42509,0.08918
4088.35356,0.08927
4090.28203,0.09014
4092.21049,0.09152
4094.13896,0.09551
4096.06743,0.09833
4097.99590,0.09565
4099.92437,0.09163
4101.85284,0.09000
4103.78131,0.08911
4105.70978,0.09085
4107.63824,0.09620
4109.56671,0.09890
4111.49518,0.09471
4113.42365,0.08650
4115.35212,0.08384
4117.28059,0.08985
4119.20906,0.09285
4121.13752,0.08811
4123.06599,0.08608
4124.99446,0.08877
4126.92293,0.08904
4128.85140,0.08767
4130.77987,0.08579
4132.70834,0.08326
4134.63681,0.08437
4136.56527,0.08781
4138.49374,0.08968
4140.42221,0.09048
4142.35068,0.08884
4144.27915,0.08368
4146.20762,0.07818
4148.13609,0.07759
4150.06455,0.08339
4151.99302,0.08809
4153.92149,0.08761
4155.84996,0.08618
4157.77843,0.08483
4159.70690,0.08270
4161.63537,0.08080
4163.56384,0.08016
4165.49230,0.08056
4167.42077,0.08251
4169.34924,0.08738
4171.27771,0.09083
4173.20618,0.08664
4175.13465,0.07929
4177.06312,0.07635
4178.99158,0.07638
4180.92005,0.07860
4182.84852,0.08225
4184.77699,0.08164
4186.70546,0.07765
4188.63393,0.07731
4190.56240,0.07961
4192.49087,0.07996
4194.41933,0.08281
4196.34780,0.08854
4198.27627,0.08809
4200.20474,0.07889
4202.13321,0.07159
4204.06168,0.07329
4205.99015,0.07642
4207.91861,0.07599
4209.84708,0.07329
4211.77555,0.06881
4213.70402,0.06768
4215.63249,0.07117
4217.56096,0.07195
4219.48943,0.07158
4221.41789,0.07821
4223.34636,0.08743
4225.27483,0.08820
4227.20330,0.07992
4229.13177,0.07176
4231.06024,0.06777
4232.98871,0.06374
4234.91718,0.06240
4236.84564,0.06811
4238.77411,0.07315
4240.70258,0.07352
4242.63105,0.07416
4244.55952,0.07296
4246.48799,0.06745
4248.41646,0.06353
4250.34492,0.06416
4252.27339,0.06493
4254.20186,0.06388
4256.13033,0.06444
4258.05880,0.06664
4259.98727,0.06622
4261.91574,0.06275
4263.84421,0.06156
4265.77267,0.06527
4267.70114,0.06724
4269.62961,0.06348
4271.55808,0.05884
4273.48655,0.05469
4275.41502,0.05471
4277.34349,0.06342
4279.27195,0.07157
4281.20042,0.07115
4283.12889,0.06601
4285.05736,0.06130
4286.98583,0.05655
4288.91430,0.04837
4290.84277,0.04122
4292.77124,0.04508
4294.69970,0.05577
4296.62817,0.05747
4298.55664,0.05051
4300.48511,0.04897
4302.41358,0.05502
4304.34205,0.06116
4306.27052,0.06222
4308.19898,0.05525
4310.12745,0.04630
4312.05592,0.04543
4313.98439,0.04876
4315.91286,0.05006
4317.84133,0.05313
4319.76980,0.05768
4321.69827,0.05638
4323.62673,0.05061
4325.55520,0.04921
4327.48367,0.05271
4329.41214,0.05600
4331.34061,0.05735
4333.26908,0.05667
4335.19755,0.05150
4337.12601,0.04153
4339.05448,0.03818
4340.98295,0.04781
4342.91142,0.05475
4344.83989,0.05105
4346.76836,0.04500
4348.69683,0.03685
4350.62530,0.03303
4352.55376,0.04011
4354.48223,0.04600
4356.41070,0.04400
4358.33917,0.03981
4360.26764,0.03856
4362.19611,0.04311
4364.12458,0.05111
4366.05304,0.05399
4367.98151,0.04739
4369.90998,0.03609
4371.83845,0.02836
4373.76692,0.02829
4375.69539,0.03190
4377.62386,0.03763
4379.55232,0.04504
4381.48079,0.04586
4383.40926,0.04178
4385.33773,0.04224
4387.26620,0.04242
4389.19467,0.03857
4391.12314,0.03703
4393.05161,0.03877
4394.98007,0.04014
4396.90854,0.03781
4398.83701,0.03490
4400.76548,0.03702
4402.69395,0.04138
4404.62242,0.04280
4406.55089,0.04046
4408.47935,0.03991
4410.40782,0.04410
4412.33629,0.04618
4414.26476,0.04159
4416.19323,0.03574
4418.12170,0.03415
4420.05017,0.03224
4421.97864,0.02888
4423.90710,0.02963
4425.83557,0.03109
4427.76404,0.03029
4429.69251,0.02977
4431.62098,0.02761
4433.54945,0.02501
4435.47792,0.02419
4437.40638,0.02278
4439.33485,0.02357
4441.26332,0.02527
4443.19179,0.02322
4445.12026,0.02135
4447.04873,0.02091
4448.97720,0.02097
4450.90567,0.02418
4452.83413,0.03149
4454.76260,0.03817
4456.69107,0.03611
4458.61954,0.02598
4460.54801,0.01914
4462.47648,0.02250
4464.40495,0.02667
4466.33341,0.02215
4468.26188,0.01664
4470.19035,0.02057
4472.11882,0.03245
4474.04729,0.04143
4475.97576,0.03689
4477.90423,0.02163
4479.83270,0.01294
4481.76116,0.01839
4483.68963,0.02653
4485.61810,0.02969
4487.54657,0.02769
4489.47504,0.02030
4491.40351,0.01241
4493.33198,0.00993
4495.26044,0.01118
4497.18891,0.01139
4499.11738,0.01247
4501.04585,0.01676
4502.97432,0.01936
4504.90279,0.01892
4506.83126,0.02014
4508.75973,0.02310
4510.68819,0.02336
4512.61666,0.02035
4514.54513,0.01553
4516.47360,0.01142
4518.40207,0.01384
4520.33054,0.01826
4522.25901,0.01297
4524.18747,0.00385
4526.11594,0.00273
4528.04441,0.00787
4529.97288,0.01352
4531.90135,0.01502
4533.82982,0.01357
4535.75829,0.01617
4537.68676,0.02117
4539.61522,0.02421
4541.54369,0.02683
4543.47216,0.02884
4545.40063,0.02818
4547.32910,0.02626
4549.25757,0.02547
4551.18604,0.02318
4553.11450,0.02179
4555.04297,0.02298
4556.97144,0.01812
4558.89991,0.01093
4560.82838,0.01154
4562.75685,0.01801
4564.68532,0.02087
4566.61378,0.01375
4568.54225,0.00635
4570.47072,0.00678
4572.39919,0.00790
4574.32766,0.00587
4576.25613,0.00409
4578.18460,0.00258
4580.11307,0.00006
4582.04153,0.00073
4583.97000,0.00769
4585.89847,0.01738
4587.82694,0.02106
4589.75541,0.01502
4591.68388,0.01317
4593.61235,0.02156
4595.54081,0.02598
4597.46928,0.02243
4599.39775,0.01491
4601.32622,0.00569
4603.25469,0.00023
4605.18316,0.00036
4607.11163,0.00681
4609.04010,0.01724
4610.96856,0.02426
4612.89703,0.02494
4614.82550,0.01772
4616.75397,0.00764
4618.68244,0.00755
4620.61091,0.01358
4622.53938,0.01204
4624.46784,0.00551
4626.39631,0.00142
4628.32478,-0.00002
4630.25325,0.00290
4632.18172,0.00810
4634.11019,0.00667
4636.03866,0.00247
4637.96713,0.00375
4639.89559,0.00663
4641.82406,0.01370
4643.75253,0.02585
4645.68100,0.03032
4647.60947,0.02161
4649.53794,0.01059
4651.46641,0.01111
4653.39487,0.01528
4655.32334,0.00821
4657.25181,-0.00586
4659.18028,-0.01323
4661.10875,-0.00558
4663.03722,0.00753
4664.96569,0.01214
4666.89416,0.00969
4668.82262,0.01268
4670.75109,0.02575
4672.67956,0.03376
4674.60803,0.02856
4676.53650,0.02108
4678.46497,0.01677
4680.39344,0.00853
4682.32190,-0.00450
4684.25037,-0.01159
4686.17884,-0.00952
4688.10731,-0.00319
4690.03578,0.00629
4691.96425,0.01559
4693.89272,0.02088
4695.82119,0.02233
4697.74965,0.01655
4699.67812,0.00630
4701.60659,0.00094
4703.53506,-0.00208
4705.46353,-0.00539
4707.39200,-0.00678
4709.32047,-0.00949
4711.24893,-0.01158
4713.17740,-0.01240
4715.10587,-0.01207
4717.03434,-0.00211
4718.96281,0.00900
4720.89128,0.01090
4722.81975,0.01487
4724.74821,0.01618
4726.67668,0.00443
4728.60515,-0.00228
4730.53362,0.00502
4732.46209,0.00586
4734.39056,-0.00529
4736.31903,-0.00491
4738.24750,0.01507
4740.17596,0.03502
4742.10443,0.03493
4744.03290,0.01917
4745.96137,0.01045
4747.88984,0.01050
4749.81831,0.00774
4751.74678,0.00896
4753.67524,0.01445
4755.60371,0.00755
4757.53218,-0.00847
4759.46065,-0.01468
4761.38912,-0.01307
4763.31759,-0.00694
4765.24606,0.00473
4767.17453,0.00614
4769.10299,-0.00169
4771.03146,-0.00034
4772.95993,0.00804
4774.88840,0.00989
4776.81687,0.00414
4778.74534,0.00095
4780.67381,0.00374
4782.60227,0.01187
4784.53074,0.01882
4786.45921,0.01358
4788.38768,0.00229
4790.31615,-0.00647
4792.24462,-0.00852
4794.17309,-0.00197
4796.10156,0.00550
4798.03002,0.01014
4799.95849,0.01099
4801.88696,0.01066
4803.81543,0.01323
4805.74390,0.01347
4807.67237,0.01496
4809.60084,0.02016
4811.52930,0.01569
4813.45777,0.00809
4815.38624,0.01127
4817.31471,0.01608
4819.24318,0.01270
4821.17165,0.00929
4823.10012,0.01352
4825.02859,0.01741
4826.95705,0.01201
4828.88552,0.00461
4830.81399,0.00385
4832.74246,0.00258
4834.67093,-0.00836
4836.59940,-0.01112
4838.52787,0.00592
4840.45633,0.01585
4842.38480,0.00470
4844.31327,-0.00976
4846.24174,-0.01309
4848.17021,-0.00652
4850.09868,0.00234
4852.02715,0.00334
4853.95562,-0.00489
4855.88408,-0.00621
4857.81255,0.00515
4859.74102,0.01454
4861.66949,0.00977
4863.59796,-0.00335
4865.52643,-0.01197
4867.45490,-0.00951
4869.38336,0.00724
4871.31183,0.02801
4873.24030,0.03851
4875.16877,0.03762
4877.09724,0.02749
4879.02571,0.01753
4880.95418,0.01760
4882.88265,0.02467
4884.81111,0.03401
4886.73958,0.04150
4888.66805,0.03908
4890.59652,0.02531
4892.52499,0.01127
4894.45346,0.00482
4896.38193,0.00374
4898.31039,0.00352
4900.23886,0.00524
4902.16733,0.00772
4904.09580,0.00286
4906.02427,-0.00417
4907.95274,-0.00485
4909.88121,-0.00545
4911.80967,-0.01340
4913.73814,-0.02290
4915.66661,-0.01810
4917.59508,-0.00113
4919.52355,0.00944
4921.45202,0.00845
4923.38049,0.00460
4925.30896,0.00201
4927.23742,-0.00224
4929.16589,-0.00837
4931.09436,-0.01090
4933.02283,-0.00636
4934.95130,0.00360
4936.87977,0.01210
4938.80824,0.01458
4940.73670,0.01491
4942.66517,0.01193
4944.59364,0.00467
4946.52211,-0.00016
4948.45058,0.00156
4950.37905,0.00728
4952.30752,0.01222
4954.23599,0.01540
4956.16445,0.01722
4958.09292,0.01899
4960.02139,0.02347
4961.94986,0.02947
4963.87833,0.02874
4965.80680,0.02203
4967.73527,0.01909
4969.66373,0.01409
4971.59220,0.01171
4973.52067,0.02726
4975.44914,0.04093
4977.37761,0.02931
4979.30608,0.00917
4981.23455,-0.00031
4983.16302,0.00343
4985.09148,0.01490
4987.01995,0.01982
4988.94842,0.01385
4990.87689,0.00806
4992.80536,0.00663
4994.73383,0.00128
4996.66230,-0.00559
4998.59076,-0.00418
5000.51923,0.00240
5002.44770,0.00995
5004.37617,0.01620
5006.30464,0.01904
5008.23311,0.01940
5010.16158,0.01619
5012.09005,0.00902
5014.01851,0.00018
5015.94698,-0.00168
5017.87545,0.00808
5019.80392,0.01297
5021.73239,0.00720
5023.66086,0.00449
5025.58933,0.00712
5027.51779,0.01597
5029.44626,0.02758
5031.37473,0.03059
5033.30320,0.02902
5035.23167,0.02811
5037.16014,0.02658
5039.08861,0.02177
5041.01708,0.01094
5042.94554,0.00688
5044.87401,0.00582
5046.80248,-0.00708
5048.73095,-0.00530
5050.65942,0.01994
5052.58789,0.03262
5054.51636,0.02546
5056.44482,0.01419
5058.37329,0.00788
5060.30176,0.01428
5062.23023,0.02062
5064.15870,0.01733
5066.08717,0.02179
5068.01564,0.03298
5069.94410,0.03984
5071.87257,0.04167
5073.80104,0.03235
5075.72951,0.02112
5077.65798,0.02524
5079.58645,0.03499
5081.51492,0.03377
5083.44339,0.02951
5085.37185,0.03516
5087.30032,0.05252
5089.22879,0.07007
5091.15726,0.07091
5093.08573,0.05919
5095.01420,0.05130
5096.94267,0.05444
5098.87113,0.06014
5100.79960,0.05658
5102.72807,0.04376
5104.65654,0.02854
5106.58501,0.01832
5108.51348,0.01375
5110.44195,0.01800
5112.37042,0.02827
5114.29888,0.02513
5116.22735,0.01370
5118.15582,0.02006
5120.08429,0.03668
5122.01276,0.03624
5123.94123,0.02192
5125.86970,0.01625
5127.79816,0.02442
5129.72663,0.03158
5131.65510,0.03243
5133.58357,0.03639
5135.51204,0.03737
5137.44051,0.02640
5139.36898,0.02527
5141.29745,0.04344
5143.22591,0.04960
5145.15438,0.03458
5147.08285,0.02447
5149.01132,0.03026
5150.93979,0.03912
5152.86826,0.04096
5154.79673,0.04282
5156.72519,0.04781
5158.65366,0.04631
5160.58213,0.04193
5162.51060,0.04568
5164.43907,0.05465
5166.36754,0.06098
5168.29601,0.06166
5170.22448,0.05941
5172.15294,0.05588
5174.08141,0.04941
5176.00988,0.05036
5177.93835,0.05963
5179.86682,0.05892
5181.79529,0.04517
5183.72376,0.02930
5185.65222,0.01854
5187.58069,0.02137
5189.50916,0.03804
5191.43763,0.04731
5193.36610,0.03721
5195.29457,0.03490
5197.22304,0.05387
5199.15151,0.06230
5201.07997,0.05414
5203.00844,0.05826
5204.93691,0.07676
5206.86538,0.08533
5208.79385,0.06774
5210.72232,0.03621
5212.65079,0.01125
5214.57925,0.00807
5216.50772,0.03214
5218.43619,0.06247
5220.36466,0.06631
5222.29313,0.05396
5224.22160,0.05210
5226.15007,0.05662
5228.07854,0.06174
5230.00700,0.06992
5231.93547,0.07382
5233.86394,0.06401
5235.79241,0.04086
5237.72088,0.02657
5239.64935,0.03159
5241.57782,0.04058
5243.50628,0.04980
5245.43475,0.05433
5247.36322,0.04869
5249.29169,0.04870
5251.22016,0.05500
5253.14863,0.04947
5255.07710,0.03283
5257.00556,0.02107
5258.93403,0.03128
5260.86250,0.05927
5262.79097,0.07102
5264.71944,0.05837
5266.64791,0.04946
5268.57638,0.05856
5270.50485,0.07242
5272.43331,0.06607
5274.36178,0.04809
5276.29025,0.04299
5278.21872,0.04553
5280.14719,0.04316
5282.07566,0.04682
5284.00413,0.05605
5285.93259,0.04752
5287.86106,0.02586
5289.78953,0.01756
5291.71800,0.02671
5293.64647,0.03353
5295.57494,0.02806
5297.50341,0.01699
5299.43188,0.01484
5301.36034,0.02590
5303.28881,0.03609
5305.21728,0.03326
5307.14575,0.02262
5309.07422,0.02631
5311.00269,0.04576
5312.93116,0.06083
5314.85962,0.06798
5316.78809,0.06921
5318.71656,0.06237
5320.64503,0.05115
5322.57350,0.04452
5324.50197,0.04239
5326.43044,0.03200
5328.35891,0.01763
5330.28737,0.01497
5332.21584,0.02438
5334.14431,0.04717
5336.07278,0.07446
5338.00125,0.07824
5339.92972,0.06354
5341.85819,0.07176
5343.78665,0.09836
5345.71512,0.09649
5347.64359,0.06103
5349.57206,0.02993
5351.50053,0.02779
5353.42900,0.04536
5355.35747,0.04865
5357.28594,0.03844
5359.21440,0.03929
5361.14287,0.04899
5363.07134,0.04981
5364.99981,0.04914
5366.92828,0.05707
5368.85675,0.06561
5370.78522,0.07439
5372.71368,0.09010
5374.64215,0.11154
5376.57062,0.11970
5378.49909,0.10163
5380.42756,0.07387
5382.35603,0.05815
5384.28450,0.07406
5386.21297,0.10377
5388.14143,0.10186
5390.06990,0.07882
5391.99837,0.05836
5393.92684,0.04005
5395.85531,0.01857
5397.78378,0.00515
5399.71225,0.02003
5401.64071,0.04513
5403.56918,0.06228
5405.49765,0.08327
5407.42612,0.10066
5409.35459,0.09893
5411.28306,0.07291
5413.21153,0.04069
5415.13999,0.03234
5417.06846,0.03945
5418.99693,0.03084
5420.92540,0.00762
5422.85387,0.01552
5424.78234,0.05169
5426.71081,0.07381
5428.63928,0.07403
5430.56774,0.06102
5432.49621,0.04576
5434.42468,0.02276
5436.35315,-0.00531
5438.28162,-0.01199
5440.21009,0.00764
5442.13856,0.04487
5444.06702,0.07119
5445.99549,0.06562
5447.92396,0.05515
5449.85243,0.05092
5451.78090,0.04260
5453.70937,0.04730
5455.63784,0.06599
5457.56631,0.07176
5459.49477,0.05598
5461.42324,0.04660
5463.35171,0.06029
5465.28018,0.06200
5467.20865,0.03386
5469.13712,0.02175
5471.06559,0.04799
5472.99405,0.07265
5474.92252,0.07593
5476.85099,0.07849
5478.77946,0.09033
5480.70793,0.09620
5482.63640,0.09433
5484.56487,0.09134
5486.49334,0.08093
5488.42180,0.06969
5490.35027,0.07423
5492.27874,0.07689
5494.20721,0.05549
5496.13568,0.04158
5498.06415,0.05455
5499.99262,0.06307
5501.92108,0.05210
5503.84955,0.04414
5505.77802,0.04660
5507.70649,0.05952
5509.63496,0.07522
5511.56343,0.06639
5513.49190,0.04844
5515.42037,0.06270
5517.34883,0.09254
5519.27730,0.09909
5521.20577,0.07586
5523.13424,0.05916
5525.06271,0.07945
5526.99118,0.10085
5528.91965,0.08701
5530.84811,0.05994
5532.77658,0.05285
5534.70505,0.05258
5536.63352,0.05213
5538.56199,0.07683
5540.49046,0.10047
5542.41893,0.09638
5544.34740,0.10685
5546.27586,0.12957
5548.20433,0.11086
5550.13280,0.06387
5552.06127,0.03882
5553.98974,0.04356
5555.91821,0.04955
5557.84668,0.04234
5559.77514,0.03900
5561.70361,0.04642
5563.63208,0.05427
5565.56055,0.06683
5567.48902,0.08132
5569.41749,0.09383
5571.34596,0.11176
5573.27443,0.11717
5575.20289,0.09001
5577.13136,0.05463
5579.05983,0.05630
5580.98830,0.08176
5582.91677,0.08435
5584.84524,0.07473
5586.77371,0.06871
5588.70217,0.08409
5590.63064,0.11743
5592.55911,0.11671
5594.48758,0.07338
5596.41605,0.02598
5598.34452,0.01178
5600.27299,0.03506
5602.20145,0.06105
5604.12992,0.06306
5606.05839,0.06177
5607.98686,0.08228
5609.91533,0.11530
5611.84380,0.13446
5613.77227,0.11960
5615.70074,0.08541
5617.62920,0.04654
5619.55767,0.01854
5621.48614,0.01370
5623.41461,0.01386
5625.34308,0.01771
5627.27155,0.02873
5629.20002,0.03969
5631.12848,0.06012
5633.05695,0.08653
5634.98542,0.09090
5636.91389,0.09048
5638.84236,0.11674
5640.77083,0.12573
5642.69930,0.09614
5644.62777,0.06692
5646.55623,0.06031
5648.48470,0.07775
5650.41317,0.10692
5652.34164,0.12010
5654.27011,0.11392
5656.19858,0.10763
5658.12705,0.09472
5660.05551,0.07026
5661.98398,0.06378
5663.91245,0.08850
5665.84092,0.11653
5667.76939,0.12352
5669.69786,0.11580
5671.62633,0.10605
5673.55480,0.08889
5675.48326,0.06213
5677.41173,0.04625
5679.34020,0.05677
5681.26867,0.07556
5683.19714,0.08064
5685.12561,0.06702
5687.05408,0.03175
5688.98254,-0.00156
5690.91101,0.00505
5692.83948,0.03574
5694.76795,0.05147
5696.69642,0.06642
5698.62489,0.09177
5700.55336,0.09168
5702.48183,0.07255
5704.41029,0.06788
5706.33876,0.08311
5708.26723,0.09881
5710.19570,0.10489
5712.12417,0.11168
5714.05264,0.11452
5715.98111,0.10825
5717.90957,0.09250
5719.83804,0.07192
5721.76651,0.05596
5723.69498,0.06063
5725.62345,0.09204
5727.55192,0.10500
5729.48039,0.08082
5731.40886,0.06994
5733.33732,0.09216
5735.26579,0.12411
5737.19426,0.13297
5739.12273,0.11021
5741.05120,0.09014
5742.97967,0.08471
5744.90814,0.07931
5746.83660,0.07591
5748.76507,0.08499
5750.69354,0.12724
5752.62201,0.18012
5754.55048,0.18558
5756.47895,0.14751
5758.40742,0.10053
5760.33588,0.05136
5762.26435,0.01737
5764.19282,0.02410
5766.12129,0.04434
5768.04976,0.04244
5769.97823,0.03316
5771.90670,0.04998
5773.83517,0.08427
5775.76363,0.09518
5777.69210,0.07366
5779.62057,0.05623
5781.54904,0.07947
5783.47751,0.11732
5785.40598,0.12758
5787.33445,0.11978
5789.26291,0.10745
5791.19138,0.08264
5793.11985,0.06167
5795.04832,0.06560
5796.97679,0.08625
5798.90526,0.10023
5800.83373,0.08456
5802.76220,0.04720
5804.69066,0.03047
5806.61913,0.04755
5808.54760,0.07161
5810.47607,0.08752
5812.40454,0.08281
5814.33301,0.04943
5816.26148,0.01434
5818.18994,0.01808
5820.11841,0.07278
5822.04688,0.12363
5823.97535,0.11640
5825.90382,0.09765
5827.83229,0.11999
5829.76076,0.14048
5831.68923,0.12151
5833.61769,0.11735
5835.54616,0.15130
5837.47463,0.16439
5839.40310,0.15014
5841.33157,0.14573
5843.26004,0.13200
5845.18851,0.10569
5847.11697,0.09278
5849.04544,0.09220
5850.97391,0.10510
5852.90238,0.11857
5854.83085,0.11410
5856.75932,0.09158
5858.68779,0.05841
5860.61626,0.04967
5862.54472,0.08616
5864.47319,0.10843
5866.40166,0.09397
5868.33013,0.10699
5870.25860,0.14213
5872.18707,0.13855
5874.11554,0.10317
5876.04400,0.09641
5877.97247,0.12376
5879.90094,0.13455
5881.82941,0.12314
5883.75788,0.10331
5885.68635,0.07619
5887.61482,0.06290
5889.54329,0.07405
5891.47175,0.08658
5893.40022,0.08288
5895.32869,0.07050
5897.25716,0.07491
5899.18563,0.08782
5901.11410,0.07656
5903.04257,0.06697
5904.97103,0.09233
5906.89950,0.11023
5908.82797,0.09259
5910.75644,0.09584
5912.68491,0.13955
5914.61338,0.15737
5916.54185,0.10880
5918.47032,0.04322
5920.39878,0.03342
5922.32725,0.08343
5924.25572,0.14251
5926.18419,0.15263
5928.11266,0.12837
5930.04113,0.12084
5931.96960,0.11855
5933.89806,0.10476
5935.82653,0.07522
5937.75500,0.03342
5939.68347,0.02212
5941.61194,0.06398
5943.54041,0.09829
5945.46888,0.08491
5947.39734,0.06315
5949.32581,0.06195
5951.25428,0.07875
5953.18275,0.09980
5955.11122,0.11408
5957.03969,0.12553
5958.96816,0.14448
5960.89663,0.14817
5962.82509,0.12806
5964.75356,0.13083
5966.68203,0.14111
5968.61050,0.09728
5970.53897,0.03598
5972.46744,0.01938
5974.39591,0.02665
5976.32437,0.03795
5978.25284,0.04871
5980.18131,0.04616
5982.10978,0.05070
5984.03825,0.07328
5985.96672,0.10058
5987.89519,0.11438
5989.82366,0.09106
5991.75212,0.05777
5993.68059,0.05497
5995.60906,0.08209
5997.53753,0.11634
5999.46600,0.10910
6001.39447,0.06632
6003.32294,0.03699
6005.25140,0.02310
6007.17987,0.01704
6009.10834,0.00822
6011.03681,0.01205
6012.96528,0.04407
6014.89375,0.07001
6016.82222,0.09130
6018.75069,0.12171
6020.67915,0.12823
6022.60762,0.09274
6024.53609,0.06152
6026.46456,0.06302
6028.39303,0.07078
6030.32150,0.07040
6032.24997,0.05664
6034.17843,0.04233
6036.10690,0.06931
6038.03537,0.13600
6039.96384,0.17201
6041.89231,0.14311
6043.82078,0.09064
6045.74925,0.06179
6047.67772,0.05906
6049.60618,0.04955
6051.53465,0.02066
6053.46312,-0.00297
6055.39159,0.00574
6057.32006,0.03531
6059.24853,0.04987
6061.17700,0.06132
6063.10546,0.07219
6065.03393,0.07970
6066.96240,0.08966
6068.89087,0.06487
6070.81934,0.01709
6072.74781,-0.00169
6074.67628,0.00804
6076.60475,0.03885
6078.53321,0.07890
6080.46168,0.10673
6082.39015,0.12199
6084.31862,0.11812
6086.24709,0.08708
6088.17556,0.05320
6090.10403,0.06196
6092.03249,0.09260
6093.96096,0.09018
6095.88943,0.07788
6097.81790,0.07050
6099.74637,0.04384
6101.67484,0.01786
6103.60331,0.02437
6105.53177,0.05304
6107.46024,0.07252
6109.38871,0.07000
6111.31718,0.07183
6113.24565,0.10194
6115.17412,0.13394
6117.10259,0.14030
6119.03106,0.13202
6120.95952,0.11053
6122.88799,0.05747
6124.81646,0.00588
6126.74493,-0.00278
6128.67340,0.01699
6130.60187,0.03777
6132.53034,0.03745
6134.45880,0.02529
6136.38727,0.03888
6138.31574,0.06960
6140.24421,0.07158
6142.17268,0.04911
6144.10115,0.03804
6146.02962,0.02520
6147.95809,-0.00963
6149.88655,-0.05101
6151.81502,-0.03255
6153.74349,0.06818
6155.67196,0.15695
6157.60043,0.18074
6159.52890,0.15370
6161.45737,0.12004
6163.38583,0.12117
6165.31430,0.10298
6167.24277,0.03839
6169.17124,-0.00638
6171.09971,-0.02318
6173.02818,-0.02448
6174.95665,0.02911
6176.88512,0.09869
6178.81358,0.10127
6180.74205,0.05167
6182.67052,-0.00669
6184.59899,-0.04742
6186.52746,-0.05369
6188.45593,-0.04882
6190.38440,-0.02647
6192.31286,0.03827
6194.24133,0.08620
6196.16980,0.05773
6198.09827,0.01603
6200.02674,0.03890
6201.95521,0.07862
6203.88368,0.07399
6205.81215,0.02490
6207.74061,-0.02243
6209.66908,-0.00313
6211.59755,0.08423
6213.52602,0.16686
6215.45449,0.16626
6217.38296,0.09182
6219.31143,0.07112
6221.23989,0.13572
6223.16836,0.18588
6225.09683,0.16282
6227.02530,0.13324
6228.95377,0.15342
6230.88224,0.17717
6232.81071,0.15150
6234.73918,0.10428
6236.66764,0.07659
6238.59611,0.06500
6240.52458,0.04643
6242.45305,0.02448
6244.38152,0.03830
6246.30999,0.06718
6248.23846,0.05420
6250.16692,0.04015
6252.09539,0.08371
6254.02386,0.13558
6255.95233,0.15148
6257.88080,0.12262
6259.80927,0.07590
6261.73774,0.08163
6263.66621,0.11594
6265.59467,0.10398
6267.52314,0.09927
6269.45161,0.12933
6271.38008,0.12578
6273.30855,0.09003
6275.23702,0.05747
6277.16549,0.04303
6279.09395,0.05229
6281.02242,0.03942
6282.95089,-0.01301
6284.87936,-0.02852
6286.80783,0.03573
6288.73630,0.09771
6290.66477,0.08797
6292.59323,0.06705
6294.52170,0.07605
6296.45017,0.08331
6298.37864,0.07856
6300.30711,0.05600
6302.23558,0.04303
6304.16405,0.08517
6306.09252,0.11695
6308.02098,0.08493
6309.94945,0.03492
6311.87792,0.01551
6313.80639,0.04297
6315.73486,0.07804
6317.66333,0.08755
6319.59180,0.07392
6321.52026,0.05789
6323.44873,0.06714
6325.37720,0.07020
6327.30567,0.03757
6329.23414,0.01504
6331.16261,0.03156
6333.09108,0.04699
6335.01955,0.07908
6336.94801,0.13675
6338.87648,0.13847
6340.80495,0.06291
6342.73342,-0.00904
6344.66189,-0.01745
6346.59036,0.02187
6348.51883,0.09792
6350.44729,0.16827
6352.37576,0.12787
6354.30423,0.04797
6356.23270,0.03475
6358.16117,0.04554
6360.08964,0.02679
6362.01811,-0.00938
6363.94658,-0.02791
6365.87504,-0.00948
6367.80351,0.00069
6369.73198,-0.01604
6371.66045,-0.00386
6373.58892,0.03479
6375.51739,0.07119
6377.44586,0.10956
6379.37432,0.13926
6381.30279,0.14451
6383.23126,0.09730
6385.15973,0.01977
6387.08820,-0.01461
6389.01667,0.00447
6390.94514,0.04627
6392.87361,0.05727
6394.80207,0.05476
6396.73054,0.09653
6398.65901,0.14067
6400.58748,0.13040
6402.51595,0.08461
6404.44442,0.07989
6406.37289,0.09010
6408.30135,0.02275
6410.22982,-0.04355
6412.15829,-0.00215
6414.08676,0.06473
6416.01523,0.07280
6417.94370,0.06870
6419.87217,0.09604
6421.80064,0.11187
6423.72910,0.08477
6425.65757,0.04341
6427.58604,0.03713
6429.51451,0.09971
6431.44298,0.22005
6433.37145,0.28841
6435.29992,0.23873
6437.22838,0.12679
6439.15685,0.04593
6441.08532,0.00272
6443.01379,-0.02312
6444.94226,0.01126
6446.87073,0.09617
6448.79920,0.15586
6450.72766,0.13740
6452.65613,0.08162
6454.58460,0.05336
6456.51307,0.06730
6458.44154,0.10482
6460.37001,0.11136
6462.29848,0.07230
6464.22695,0.05636
6466.15541,0.09690
6468.08388,0.12052
6470.01235,0.08221
6471.94082,0.00878
6473.86929,-0.03488
6475.79776,0.03406
6477.72623,0.15708
6479.65469,0.22911
6481.58316,0.23572
6483.51163,0.15891
6485.44010,0.06232
6487.36857,0.01554
6489.29704,-0.00066
6491.22551,0.02032
6493.15398,0.08500
6495.08244,0.13541
6497.01091,0.14867
6498.93938,0.10767
6500.86785,0.04388
6502.79632,0.05074
6504.72479,0.11006
6506.65326,0.14438
6508.58172,0.14705
6510.51019,0.14087
6512.43866,0.10225
6514.36713,0.03364
6516.29560,-0.01479
6518.22407,-0.03262
6520.15254,-0.05553
6522.08101,-0.08157
6524.00947,-0.07850
6525.93794,-0.04434
6527.86641,0.01808
6529.79488,0.07770
6531.72335,0.09724
6533.65182,0.08288
6535.58029,0.04458
6537.50875,-0.00158
6539.43722,-0.03603
6541.36569,-0.03056
6543.29416,0.02066
6545.22263,0.06372
6547.15110,0.07531
6549.07957,0.07369
6551.00804,0.05549
6552.93650,0.04441
6554.86497,0.06285
6556.79344,0.05879
6558.72191,0.01192
6560.65038,-0.04079
6562.57885,-0.06018
6564.50732,-0.04240
6566.43578,-0.02512
6568.36425,0.04543
6570.29272,0.19143
6572.22119,0.25892
6574.14966,0.18384
6576.07813,0.10488
6578.00660,0.12202
6579.93507,0.17149
6581.86353,0.16158
6583.79200,0.09671
6585.72047,0.04912
6587.64894,0.06039
6589.57741,0.10533
6591.50588,0.12217
6593.43435,0.09272
6595.36281,0.07823
6597.29128,0.09107
6599.21975,0.10396
6601.14822,0.12185
6603.07669,0.12151
6605.00516,0.11513
6606.93363,0.11949
6608.86210,0.08109
6610.79056,0.03625
6612.71903,0.08812
6614.64750,0.15465
6616.57597,0.14184
6618.50444,0.13060
6620.43291,0.13398
6622.36138,0.07918
6624.28984,0.00140
6626.21831,-0.00515
6628.14678,0.03960
6630.07525,0.05370
6632.00372,0.03975
6633.93219,0.00863
6635.86066,-0.05865
6637.78912,-0.10044
6639.71759,-0.05984
6641.64606,0.00847
6643.57453,0.06196
6645.50300,0.12736
6647.43147,0.15665
6649.35994,0.11030
6651.28841,0.08874
6653.21687,0.12918
6655.14534,0.15380
6657.07381,0.12156
6659.00228,0.10280
6660.93075,0.14402
6662.85922,0.18718
6664.78769,0.16909
6666.71615,0.08462
6668.64462,-0.00101
6670.57309,-0.02560
6672.50156,-0.00286
6674.43003,0.04712
6676.35850,0.10101
6678.28697,0.09853
6680.21544,0.04445
6682.14390,0.03366
6684.07237,0.08842
6686.00084,0.11407
6687.92931,0.05917
6689.85778,-0.02696
6691.78625,-0.08790
6693.71472,-0.07858
6695.64318,0.03440
6697.57165,0.16449
6699.50012,0.22588
6701.42859,0.24315
6703.35706,0.21452
6705.28553,0.17710
6707.21400,0.12795
6709.14247,0.02837
6711.07093,-0.02538
6712.99940,0.01109
6714.92787,0.07816
6716.85634,0.11650
6718.78481,0.09248
6720.71328,0.03972
6722.64175,0.02731
6724.57021,0.04813
6726.49868,0.07942
6728.42715,0.12820
6730.35562,0.15115
6732.28409,0.11078
6734.21256,0.04200
6736.14103,-0.02819
6738.06950,-0.09022
6739.99796,-0.14262
6741.92643,-0.16271
6743.85490,-0.12292
6745.78337,-0.02486
6747.71184,0.12269
6749.64031,0.23462
6751.56878,0.23428
6753.49724,0.16417
6755.42571,0.09778
6757.35418,0.06584
6759.28265,0.06873
6761.21112,0.09488
6763.13959,0.11273
6765.06806,0.12125
6766.99653,0.10790
6768.92499,0.05858
6770.85346,0.02747
6772.78193,0.05724
6774.71040,0.10452
6776.63887,0.08930
6778.56734,0.03902
6780.49581,0.04284
6782.42427,0.06307
6784.35274,0.05520
6786.28121,0.06390
6788.20968,0.07951
6790.13815,0.04543
6792.06662,-0.01625
6793.99509,-0.01067
6795.92355,0.04037
6797.85202,0.04604
6799.78049,0.02084
6801.70896,0.02621
6803.63743,0.04549
6805.56590,-0.00744
6807.49437,-0.10310
6809.42284,-0.10221
6811.35130,0.03628
6813.27977,0.16994
6815.20824,0.18683
6817.13671,0.12550
6819.06518,0.07353
6820.99365,0.03579
6822.92212,-0.00861
6824.85058,0.01141
6826.77905,0.05052
6828.70752,-0.00977
6830.63599,-0.06596
6832.56446,-0.00767
6834.49293,0.07130
6836.42140,0.11270
6838.34987,0.12403
6840.27833,0.12342
6842.20680,0.14135
6844.13527,0.15245
6846.06374,0.11730
6847.99221,0.03713
6849.92068,-0.04562
6851.84915,-0.03347
6853.77761,0.07358
6855.70608,0.15974
6857.63455,0.12938
6859.56302,0.04007
6861.49149,-0.02723
6863.41996,-0.03932
6865.34843,-0.02155
6867.27690,0.00355
6869.20536,0.05948
6871.13383,0.16461
6873.06230,0.26292
6874.99077,0.27166
6876.91924,0.26807
6878.84771,0.26980
6880.77618,0.14768
6882.70464,0.00902
6884.63311,-0.02867
6886.56158,-0.03724
6888.49005,-0.03703
6890.41852,-0.04436
6892.34699,-0.04137
6894.27546,0.03485
6896.20393,0.10667
6898.13239,0.08197
6900.06086,0.03458
6901.98933,-0.00003
6903.91780,-0.06849
6905.84627,-0.12080
6907.77474,-0.06704
6909.70321,0.04519
6911.63167,0.12587
6913.56014,0.18155
6915.48861,0.19544
6917.41708,0.08485
6919.34555,-0.08466
6921.27402,-0.14377
6923.20249,-0.11462
6925.13096,-0.02904
6927.05942,0.08108
6928.98789,0.09589
6930.91636,0.03539
6932.84483,0.02202
6934.77330,0.03541
6936.70177,0.02414
6938.63024,-0.00980
6940.55870,-0.02062
6942.48717,0.00715
6944.41564,0.06302
6946.34411,0.13051
6948.27258,0.12385
6950.20105,0.09465
6952.12952,0.15841
6954.05799,0.22442
6955.98645,0.15826
6957.91492,0.07189
6959.84339,0.08677
6961.77186,0.14300
6963.70033,0.14487
6965.62880,0.10892
6967.55727,0.08313
6969.48573,0.05525
6971.41420,0.04920
6973.34267,0.05325
6975.27114,-0.05007
6977.19961,-0.12737
6979.12808,-0.03387
6981.05655,0.08629
6982.98501,0.13551
6984.91348,0.13361
6986.84195,0.11157
6988.77042,0.13520
6990.69889,0.16157
6992.62736,0.15510
6994.55583,0.19132
6996.48430,0.21013
6998.41276,0.16453
7000.34123,0.17368
7002.26970,0.15601
7004.19817,0.07264
7006.12664,0.07481
7008.05511,0.15868
7009.98358,0.17137
7011.91204,0.07739
7013.84051,0.01078
7015.76898,0.10212
7017.69745,0.20950
7019.62592,0.17536
7021.55439,0.07099
7023.48286,0.03790
7025.41133,0.09827
7027.33979,0.15495
7029.26826,0.11738
7031.19673,0.09019
7033.12520,0.13594
7035.05367,0.15289
7036.98214,0.14167
7038.91061,0.14900
7040.83907,0.14212
7042.76754,0.11938
7044.69601,0.12132
7046.62448,0.10967
7048.55295,0.05407
7050.48142,0.00931
7052.40989,-0.02200
7054.33836,-0.02147
7056.26682,0.04707
7058.19529,0.10707
7060.12376,0.10412
7062.05223,0.09599
7063.98070,0.08850
7065.90917,0.05855
7067.83764,0.04590
7069.76610,0.07714
7071.69457,0.10243
7073.62304,0.09896
7075.55151,0.07706
7077.47998,0.07106
7079.40845,0.10668
7081.33692,0.09151
7083.26539,-0.02332
7085.19385,-0.12488
7087.12232,-0.13568
7089.05079,-0.06083
7090.97926,0.01941
7092.90773,0.05456
7094.83620,0.02612
7096.76467,-0.00977
7098.69313,0.01297
7100.62160,0.09288
7102.55007,0.23157
7104.47854,0.37358
7106.40701,0.34449
7108.33548,0.14220
7110.26395,-0.05707
7112.19242,-0.14149
7114.12088,-0.07733
7116.04935,-0.02353
7117.97782,-0.09366
7119.90629,-0.02818
7121.83476,0.18959
7123.76323,0.23757
7125.69170,0.11930
7127.62016,0.01986
7129.54863,-0.00553
7131.47710,0.05344
7133.40557,0.13919
7135.33404,0.16800
7137.26251,0.12342
7139.19098,0.06402
7141.11944,0.08498
7143.04791,0.09440
7144.97638,0.11440
7146.90485,0.22462
7148.83332,0.23822
7150.76179,0.10482
7152.69026,-0.10788
7154.61873,-0.24951
7156.54719,-0.20788
7158.47566,-0.09789
7160.40413,-0.02812
7162.33260,-0.02454
7164.26107,0.05655
7166.18954,0.22617
7168.11801,0.28408
7170.04647,0.20071
7171.97494,0.06602
7173.90341,-0.06019
7175.83188,-0.15377
7177.76035,-0.14868
7179.68882,-0.02224
7181.61729,0.14953
7183.54576,0.27717
7185.47422,0.26125
7187.40269,0.08926
7189.33116,-0.11492
7191.25963,-0.19550
7193.18810,-0.12357
7195.11657,0.00260
7197.04504,0.07272
7198.97350,0.06602
7200.90197,0.05133
7202.83044,0.09112
7204.75891,0.15928
7206.68738,0.10719
7208.61585,0.02044
7210.54432,-0.00019
7212.47279,0.00847
7214.40125,0.03651
7216.32972,0.10873
7218.25819,0.18911
7220.18666,0.17341
7222.11513,0.06810
7224.04360,-0.06731
7225.97207,-0.17844
7227.90053,-0.15988
7229.82900,-0.01163
7231.75747,0.08207
7233.68594,0.10120
7235.61441,0.20149
7237.54288,0.30826
7239.47135,0.30719
7241.39982,0.26486
7243.32828,0.22602
7245.25675,0.17495
7247.18522,0.15387
7249.11369,0.19199
7251.04216,0.31655
7252.97063,0.47147
7254.89910,0.39660
7256.82756,0.22766
7258.75603,0.17234
7260.68450,0.17320
7262.61297,0.15897
7264.54144,0.18455
7266.46991,0.17891
7268.39838,0.16004
7270.32685,0.14403
7272.25531,0.05627
7274.18378,0.08709
7276.11225,0.26812
7278.04072,0.36814
7279.96919,0.23127
7281.89766,0.05278
7283.82613,0.05281
7285.75459,0.06350
7287.68306,0.00904
7289.61153,-0.01133
7291.54000,0.05386
7293.46847,0.10840
7295.39694,0.01601
7297.32541,-0.03188
7299.25387,0.15896
7301.18234,0.32961
7303.11081,0.23360
7305.03928,-0.01668
7306.96775,-0.20858
7308.89622,-0.22459
7310.82469,-0.15110
7312.75316,-0.12682
7314.68162,-0.12314
7316.61009,-0.13474
7318.53856,-0.10276
7320.46703,0.03025
7322.39550,0.14436
7324.32397,0.14988
7326.25244,0.14518
7328.18090,0.15051
7330.10937,0.06186
7332.03784,-0.04634
7333.96631,-0.05144
7335.89478,0.01006
7337.82325,0.09624
7339.75172,0.21755
7341.68019,0.29972
7343.60865,0.26039
7345.53712,0.12274
7347.46559,-0.02535
7349.39406,-0.01843
7351.32253,0.16065
7353.25100,0.23446
7355.17947,0.11886
7357.10793,-0.01324
7359.03640,-0.11383
7360.96487,-0.13683
7362.89334,0.00676
7364.82181,0.17305
7366.75028,0.14170
7368.67875,-0.03059
7370.60722,-0.05795
7372.53568,0.14473
7374.46415,0.44291
7376.39262,0.46039
7378.32109,0.29861
7380.24956,0.26794
7382.17803,0.22452
7384.10650,0.12282
7386.03496,0.18679
7387.96343,0.27594
7389.89190,0.16052
7391.82037,0.03237
7393.74884,0.00294
7395.67731,0.03464
7397.60578,0.13398
7399.53425,0.19456
7401.46271,0.09366
7403.39118,-0.06859
7405.31965,-0.06929
7407.24812,-0.02949
7409.17659,-0.09467
7411.10506,-0.15375
7413.03353,-0.11295
7414.96199,0.02283
7416.89046,0.15768
7418.81893,0.19264
7420.74740,0.14688
7422.67587,0.05019
7424.60434,-0.01344
7426.53281,-0.01485
7428.46128,-0.03667
7430.38974,-0.06386
7432.31821,0.03145
7434.24668,0.22982
7436.17515,0.35247
7438.10362,0.28290
7440.03209,0.14070
7441.96056,0.00845
7443.88902,-0.11538
7445.81749,-0.14676
7447.74596,-0.10310
7449.67443,-0.07722
7451.60290,-0.06731
7453.53137,-0.02388
7455.45984,0.01359
7457.38831,0.03454
7459.31677,0.12219
7461.24524,0.25579
7463.17371,0.30157
7465.10218,0.25839
7467.03065,0.20361
7468.95912,0.27167
7470.88759,0.35166
7472.81605,0.27138
7474.74452,0.24404
7476.67299,0.35949
7478.60146,0.46375
7480.52993,0.38907
7482.45840,0.16716
7484.38687,0.13367
7486.31533,0.22191
7488.24380,0.23022
7490.17227,0.23371
7492.10074,0.22123
7494.02921,0.14937
7495.95768,0.10210
7497.88615,0.13661
