399.19301,1.00195
401.12148,-0.41012
403.04995,-0.46024
404.97842,-0.21896
406.90689,-0.15650
408.83536,-0.30036
410.76382,-0.28820
412.69229,-0.12295
414.62076,-0.09689
416.54923,-0.17608
418.47770,-0.11372
420.40617,0.16078
422.33464,0.38192
424.26311,0.45813
426.19157,0.33228
428.12004,0.14511
430.04851,0.02018
431.97698,0.03655
433.90545,0.12030
435.83392,0.11458
437.76239,0.07274
439.69085,0.08170
441.61932,0.07821
443.54779,0.02547
445.47626,0.04759
447.40473,0.12901
449.33320,0.17669
451.26167,0.16379
453.19013,0.13067
455.11860,0.09681
457.04707,0.05038
458.97554,0.06249
460.90401,0.13280
462.83248,0.18429
464.76095,0.21127
466.68942,0.18947
468.61788,0.08918
470.54635,-0.01160
472.47482,-0.00324
474.40329,0.14108
476.33176,0.22257
478.26023,0.21416
480.18870,0.19263
482.11716,0.16579
484.04563,0.14154
485.97410,0.12198
487.90257,0.10132
489.83104,0.09436
491.75951,0.11018
493.68798,0.13442
495.61645,0.13289
497.54491,0.11068
499.47338,0.11617
501.40185,0.16369
503.33032,0.18312
505.25879,0.13680
507.18726,0.10089
509.11573,0.09164
511.04419,0.06065
512.97266,0.04779
514.90113,0.09237
516.82960,0.14039
518.75807,0.14301
520.68654,0.13324
522.61501,0.12004
524.54348,0.08907
526.47194,0.06316
528.40041,0.06230
530.32888,0.06806
532.25735,0.05080
534.18582,0.04094
536.11429,0.06564
538.04276,0.09466
539.97122,0.11824
541.89969,0.11871
543.82816,0.09549
545.75663,0.06136
547.68510,0.01716
549.61357,0.02528
551.54204,0.10126
553.47051,0.16356
555.39897,0.17426
557.32744,0.14699
559.25591,0.09091
561.18438,0.02809
563.11285,0.01877
565.04132,0.07975
566.96979,0.14755
568.89825,0.17109
570.82672,0.15107
572.75519,0.11682
574.68366,0.10329
576.61213,0.11097
578.54060,0.11830
580.46907,0.11653
582.39754,0.10134
584.32600,0.08792
586.25447,0.10367
588.18294,0.13998
590.11141,0.15110
592.03988,0.10810
593.96835,0.05821
595.89682,0.04342
597.82528,0.04895
599.75375,0.07641
601.68222,0.11133
603.61069,0.12157
605.53916,0.11142
607.46763,0.09511
609.39610,0.08230
611.32456,0.08115
613.25303,0.08670
615.18150,0.09768
617.10997,0.11764
619.03844,0.13426
620.96691,0.13426
622.89538,0.11637
624.82385,0.10063
626.75231,0.09884
628.68078,0.09427
630.60925,0.09701
632.53772,0.11634
634.46619,0.12526
636.39466,0.13358
638.32313,0.14471
640.25159,0.12951
642.18006,0.11361
644.10853,0.13373
646.03700,0.17162
647.96547,0.19038
649.89394,0.17678
651.82241,0.15154
653.75088,0.13701
655.67934,0.13022
657.60781,0.11655
659.53628,0.10894
661.46475,0.11594
663.39322,0.12027
665.32169,0.11649
667.25016,0.11267
669.17862,0.11371
671.10709,0.10498
673.03556,0.09409
674.96403,0.09678
676.89250,0.11235
678.82097,0.12238
680.74944,0.11329
682.67791,0.10111
684.60637,0.10315
686.53484,0.11285
688.46331,0.12485
690.39178,0.13397
692.32025,0.13976
694.24872,0.15122
696.17719,0.15252
698.10565,0.13013
700.03412,0.10876
701.96259,0.10936
703.89106,0.12071
705.81953,0.12351
707.74800,0.11245
709.67647,0.09380
711.60494,0.08629
713.53340,0.09768
715.46187,0.11149
717.39034,0.11646
719.31881,0.11595
721.24728,0.11667
723.17575,0.11745
725.10422,0.12183
727.03268,0.13587
728.96115,0.14495
730.88962,0.14103
732.81809,0.13683
734.74656,0.13891
736.67503,0.13902
738.60350,0.12759
740.53197,0.11285
742.46043,0.10956
744.38890,0.11679
746.31737,0.13060
748.24584,0.14338
750.17431,0.14208
752.10278,0.13624
754.03125,0.14054
755.95971,0.14174
757.88818,0.12907
759.81665,0.12138
761.74512,0.13279
763.67359,0.14812
765.60206,0.15126
767.53053,0.14223
769.45900,0.13478
771.38746,0.14177
773.31593,0.14731
775.24440,0.13712
777.17287,0.13294
779.10134,0.14574
781.02981,0.14860
782.95828,0.13056
784.88674,0.11795
786.81521,0.12803
788.74368,0.14227
790.67215,0.14231
792.60062,0.13333
794.52909,0.12155
796.45756,0.11315
798.38602,0.11701
800.31449,0.12927
802.24296,0.13606
804.17143,0.13193
806.09990,0.11965
808.02837,0.10976
809.95684,0.11414
811.88531,0.12505
813.81377,0.12854
815.74224,0.12183
817.67071,0.11284
819.59918,0.10826
821.52765,0.11166
823.45612,0.12525
825.38459,0.14209
827.31305,0.15228
829.24152,0.15172
831.16999,0.14949
833.09846,0.15087
835.02693,0.14685
836.95540,0.13273
838.88387,0.11631
840.81234,0.11279
842.74080,0.12567
844.66927,0.14214
846.59774,0.15117
848.52621,0.15285
850.45468,0.15021
852.38315,0.14157
854.31162,0.12710
856.24008,0.11879
858.16855,0.12642
860.09702,0.13930
862.02549,0.14366
863.95396,0.13667
865.88243,0.12443
867.81090,0.12122
869.73937,0.12833
871.66783,0.13642
873.59630,0.14525
875.52477,0.15243
877.45324,0.15492
879.38171,0.15150
881.31018,0.14489
883.23865,0.14928
885.16711,0.15393
887.09558,0.13901
889.02405,0.12440
890.95252,0.12566
892.88099,0.13039
894.80946,0.13293
896.73793,0.13512
898.66640,0.13877
900.59486,0.14523
902.52333,0.14567
904.45180,0.13463
906.38027,0.12382
908.30874,0.12372
910.23721,0.13257
912.16568,0.14380
914.09414,0.15035
916.02261,0.15038
917.95108,0.14809
919.87955,0.14684
921.80802,0.14957
923.73649,0.15291
925.66496,0.14930
927.59343,0.14016
929.52189,0.13387
931.45036,0.13489
933.37883,0.13728
935.30730,0.13408
937.23577,0.12592
939.16424,0.12012
941.09271,0.12285
943.02117,0.13068
944.94964,0.13822
946.87811,0.14221
948.80658,0.14107
950.73505,0.14025
952.66352,0.14333
954.59199,0.14367
956.52045,0.13844
958.44892,0.13629
960.37739,0.14252
962.30586,0.14890
964.23433,0.14524
966.16280,0.13553
968.09127,0.13107
970.01974,0.13394
971.94820,0.13778
973.87667,0.14263
975.80514,0.14838
977.73361,0.14924
979.66208,0.14929
981.59055,0.14818
983.51902,0.14140
985.44748,0.13712
987.37595,0.13553
989.30442,0.13527
991.23289,0.14312
993.16136,0.15103
995.08983,0.14809
997.01830,0.14168
998.94677,0.14442
1000.87523,0.15112
1002.80370,0.14868
1004.73217,0.14148
1006.66064,0.13753
1008.58911,0.13830
1010.51758,0.14430
1012.44605,0.14959
1014.37451,0.14618
1016.30298,0.13759
1018.23145,0.13379
1020.15992,0.13698
1022.08839,0.14272
1024.01686,0.16267
1025.94533,0.22765
1027.87380,0.28417
1029.80226,0.24110
1031.73073,0.16452
1033.65920,0.14363
1035.58767,0.14876
1037.51614,0.14889
1039.44461,0.14581
1041.37308,0.14636
1043.30154,0.15077
1045.23001,0.14966
1047.15848,0.14353
1049.08695,0.13979
1051.01542,0.13961
1052.94389,0.13998
1054.87236,0.14214
1056.80083,0.14731
1058.72929,0.15261
1060.65776,0.15523
1062.58623,0.15916
1064.51470,0.16554
1066.44317,0.16786
1068.37164,0.16802
1070.30011,0.16727
1072.22857,0.16187
1074.15704,0.15584
1076.08551,0.15720
1078.01398,0.16643
1079.94245,0.17043
1081.87092,0.16213
1083.79939,0.15368
1085.72786,0.15569
1087.65632,0.15948
1089.58479,0.15139
1091.51326,0.13993
1093.44173,0.14074
1095.37020,0.14559
1097.29867,0.14365
1099.22714,0.14224
1101.15560,0.14781
1103.08407,0.15591
1105.01254,0.16221
1106.94101,0.16893
1108.86948,0.17308
1110.79795,0.17150
1112.72642,0.17252
1114.65489,0.17647
1116.58335,0.17651
1118.51182,0.17261
1120.44029,0.16523
1122.36876,0.15544
1124.29723,0.15045
1126.22570,0.15510
1128.15417,0.15647
1130.08263,0.14741
1132.01110,0.14387
1133.93957,0.14804
1135.86804,0.15003
1137.79651,0.15233
1139.72498,0.15172
1141.65345,0.14798
1143.58191,0.15158
1145.51038,0.15659
1147.43885,0.15599
1149.36732,0.15520
1151.29579,0.15801
1153.22426,0.16375
1155.15273,0.16588
1157.08120,0.16093
1159.00966,0.15490
1160.93813,0.15356
1162.86660,0.15492
1164.79507,0.15611
1166.72354,0.15758
1168.65201,0.15981
1170.58048,0.16181
1172.50894,0.16142
1174.43741,0.15837
1176.36588,0.15419
1178.29435,0.15002
1180.22282,0.14971
1182.15129,0.15845
1184.07976,0.16248
1186.00823,0.15547
1187.93669,0.15533
1189.86516,0.15775
1191.79363,0.15617
1193.72210,0.15609
1195.65057,0.15376
1197.57904,0.15210
1199.50751,0.15396
1201.43597,0.15613
1203.36444,0.15730
1205.29291,0.15984
1207.22138,0.16468
1209.14985,0.16566
1211.07832,0.16117
1213.00679,0.15833
1214.93526,0.15914
1216.86372,0.15933
1218.79219,0.16174
1220.72066,0.16657
1222.64913,0.16495
1224.57760,0.15711
1226.50607,0.15269
1228.43454,0.15323
1230.36300,0.15439
1232.29147,0.15659
1234.21994,0.15964
1236.14841,0.16137
1238.07688,0.16088
1240.00535,0.15912
1241.93382,0.15846
1243.86229,0.15896
1245.79075,0.15764
1247.71922,0.15318
1249.64769,0.14827
1251.57616,0.14613
1253.50463,0.14698
1255.43310,0.14959
1257.36157,0.15433
1259.29003,0.15907
1261.21850,0.16177
1263.14697,0.16448
1265.07544,0.16703
1267.00391,0.16618
1268.93238,0.15989
1270.86085,0.15554
1272.78932,0.16004
1274.71778,0.16463
1276.64625,0.16227
1278.57472,0.15865
1280.50319,0.15717
1282.43166,0.15839
1284.36013,0.16358
1286.28860,0.16672
1288.21706,0.16715
1290.14553,0.17066
1292.07400,0.17227
1294.00247,0.16893
1295.93094,0.16486
1297.85941,0.16024
1299.78788,0.15431
1301.71634,0.14670
1303.64481,0.13909
1305.57328,0.13970
1307.50175,0.15015
1309.43022,0.16085
1311.35869,0.16764
1313.28716,0.17128
1315.21563,0.17008
1317.14409,0.16632
1319.07256,0.16326
1321.00103,0.16157
1322.92950,0.16108
1324.85797,0.15842
1326.78644,0.15386
1328.71491,0.15222
1330.64337,0.15274
1332.57184,0.15335
1334.50031,0.15496
1336.42878,0.15819
1338.35725,0.16250
1340.28572,0.15845
1342.21419,0.13796
1344.14266,0.12020
1346.07112,0.12726
1347.99959,0.14741
1349.92806,0.15755
1351.85653,0.15835
1353.78500,0.15847
1355.71347,0.16296
1357.64194,0.16861
1359.57040,0.16973
1361.49887,0.17029
1363.42734,0.16900
1365.35581,0.16354
1367.28428,0.16237
1369.21275,0.16720
1371.14122,0.17244
1373.06969,0.17561
1374.99815,0.17492
1376.92662,0.16887
1378.85509,0.16120
1380.78356,0.15843
1382.71203,0.16176
1384.64050,0.16526
1386.56897,0.16624
1388.49743,0.16871
1390.42590,0.17523
1392.35437,0.18291
1394.28284,0.18813
1396.21131,0.18805
1398.13978,0.18442
1400.06825,0.18112
1401.99672,0.17950
1403.92518,0.17838
1405.85365,0.17619
1407.78212,0.17373
1409.71059,0.17257
1411.63906,0.17307
1413.56753,0.17466
1415.49600,0.17619
1417.42446,0.17715
1419.35293,0.17883
1421.28140,0.18343
1423.20987,0.18594
1425.13834,0.18119
1427.06681,0.17631
1428.99528,0.17894
1430.92375,0.18125
1432.85221,0.17723
1434.78068,0.17690
1436.70915,0.18057
1438.63762,0.17775
1440.56609,0.17481
1442.49456,0.17577
1444.42303,0.17740
1446.35149,0.17826
1448.27996,0.17941
1450.20843,0.18134
1452.13690,0.18308
1454.06537,0.18647
1455.99384,0.19886
1457.92231,0.21229
1459.85077,0.20304
1461.77924,0.19079
1463.70771,0.18545
1465.63618,0.18382
1467.56465,0.18200
1469.49312,0.18309
1471.42159,0.19053
1473.35006,0.19759
1475.27852,0.19412
1477.20699,0.18805
1479.13546,0.18491
1481.06393,0.18406
1482.99240,0.18325
1484.92087,0.18439
1486.84934,0.19201
1488.77780,0.20207
1490.70627,0.20033
1492.63474,0.19168
1494.56321,0.18837
1496.49168,0.19153
1498.42015,0.19521
1500.34862,0.19259
1502.27709,0.18938
1504.20555,0.19620
1506.13402,0.21665
1508.06249,0.21987
1509.99096,0.20343
1511.91943,0.19311
1513.84790,0.19116
1515.77637,0.19643
1517.70483,0.20299
1519.63330,0.20638
1521.56177,0.20624
1523.49024,0.20147
1525.41871,0.19595
1527.34718,0.18864
1529.27565,0.18283
1531.20412,0.18514
1533.13258,0.19207
1535.06105,0.19624
1536.98952,0.20483
1538.91799,0.22417
1540.84646,0.23542
1542.77493,0.22068
1544.70340,0.20252
1546.63186,0.19003
1548.56033,0.18542
1550.48880,0.18544
1552.41727,0.18885
1554.34574,0.19546
1556.27421,0.20461
1558.20268,0.21651
1560.13115,0.20658
1562.05961,0.19055
1563.98808,0.18529
1565.91655,0.18614
1567.84502,0.19013
1569.77349,0.19008
1571.70196,0.18377
1573.63043,0.18260
1575.55889,0.18628
1577.48736,0.18403
1579.41583,0.17912
1581.34430,0.17581
1583.27277,0.17137
1585.20124,0.16819
1587.12971,0.16950
1589.05818,0.17197
1590.98664,0.17278
1592.91511,0.17325
1594.84358,0.17296
1596.77205,0.17256
1598.70052,0.17251
1600.62899,0.17070
1602.55746,0.16939
1604.48592,0.17201
1606.41439,0.17585
1608.34286,0.17596
1610.27133,0.17225
1612.19980,0.17041
1614.12827,0.17528
1616.05674,0.18498
1617.98521,0.18812
1619.91367,0.18810
1621.84214,0.19420
1623.77061,0.20072
1625.69908,0.19917
1627.62755,0.19230
1629.55602,0.18386
1631.48449,0.18141
1633.41295,0.19202
1635.34142,0.20988
1637.26989,0.20611
1639.19836,0.19312
1641.12683,0.18861
1643.05530,0.19057
1644.98377,0.20015
1646.91223,0.21789
1648.84070,0.22531
1650.76917,0.22606
1652.69764,0.22978
1654.62611,0.21816
1656.55458,0.20393
1658.48305,0.19798
1660.41152,0.19726
1662.33998,0.19643
1664.26845,0.18854
1666.19692,0.18373
1668.12539,0.19209
1670.05386,0.20391
1671.98233,0.20385
1673.91080,0.20164
1675.83926,0.19966
1677.76773,0.19582
1679.69620,0.19542
1681.62467,0.20106
1683.55314,0.20910
1685.48161,0.20741
1687.41008,0.20104
1689.33855,0.19560
1691.26701,0.19017
1693.19548,0.19223
1695.12395,0.20376
1697.05242,0.20866
1698.98089,0.20357
1700.90936,0.20119
1702.83783,0.20054
1704.76629,0.20073
1706.69476,0.19751
1708.62323,0.19094
1710.55170,0.18720
1712.48017,0.18876
1714.40864,0.19719
1716.33711,0.20694
1718.26558,0.19995
1720.19404,0.18724
1722.12251,0.18325
1724.05098,0.18243
1725.97945,0.18109
1727.90792,0.18285
1729.83639,0.18812
1731.76486,0.19350
1733.69332,0.19788
1735.62179,0.19770
1737.55026,0.19706
1739.47873,0.19936
1741.40720,0.20021
1743.33567,0.19787
1745.26414,0.19570
1747.19261,0.19737
1749.12107,0.20269
1751.04954,0.20090
1752.97801,0.19026
1754.90648,0.18283
1756.83495,0.18249
1758.76342,0.18511
1760.69189,0.18851
1762.62035,0.19056
1764.54882,0.18824
1766.47729,0.18571
1768.40576,0.18644
1770.33423,0.19121
1772.26270,0.19369
1774.19117,0.18820
1776.11964,0.18448
1778.04810,0.18491
1779.97657,0.18501
1781.90504,0.18423
1783.83351,0.18463
1785.76198,0.18385
1787.69045,0.18244
1789.61892,0.18538
1791.54738,0.19216
1793.47585,0.19393
1795.40432,0.18947
1797.33279,0.18662
1799.26126,0.18737
1801.18973,0.18851
1803.11820,0.18713
1805.04666,0.18395
1806.97513,0.18135
1808.90360,0.18065
1810.83207,0.18117
1812.76054,0.18089
1814.68901,0.17777
1816.61748,0.17304
1818.54595,0.17091
1820.47441,0.17273
1822.40288,0.17839
1824.33135,0.18548
1826.25982,0.18893
1828.18829,0.19040
1830.11676,0.18983
1832.04523,0.18523
1833.97369,0.18177
1835.90216,0.18243
1837.83063,0.18498
1839.75910,0.18696
1841.68757,0.19002
1843.61604,0.19247
1845.54451,0.18947
1847.47298,0.18525
1849.40144,0.18344
1851.32991,0.18154
1853.25838,0.17904
1855.18685,0.17795
1857.11532,0.17820
1859.04379,0.17883
1860.97226,0.17958
1862.90072,0.18126
1864.82919,0.18333
1866.75766,0.18487
1868.68613,0.18628
1870.61460,0.18607
1872.54307,0.18383
1874.47154,0.18062
1876.40001,0.17847
1878.32847,0.17864
1880.25694,0.17882
1882.18541,0.17747
1884.11388,0.17618
1886.04235,0.17664
1887.97082,0.17902
1889.89929,0.18076
1891.82775,0.18089
1893.75622,0.18367
1895.68469,0.18756
1897.61316,0.18680
1899.54163,0.18394
1901.47010,0.18337
1903.39857,0.18396
1905.32704,0.18422
1907.25550,0.18421
1909.18397,0.18308
1911.11244,0.18109
1913.04091,0.17938
1914.96938,0.17913
1916.89785,0.17952
1918.82632,0.17832
1920.75478,0.17803
1922.68325,0.17931
1924.61172,0.17899
1926.54019,0.17764
1928.46866,0.17768
1930.39713,0.17870
1932.32560,0.17841
1934.25407,0.17736
1936.18253,0.17836
1938.11100,0.18095
1940.03947,0.18258
1941.96794,0.18162
1943.89641,0.17857
1945.82488,0.17651
1947.75335,0.17550
1949.68181,0.17532
1951.61028,0.17797
1953.53875,0.18123
1955.46722,0.18132
1957.39569,0.18020
1959.32416,0.17973
1961.25263,0.17820
1963.18110,0.17878
1965.10956,0.18422
1967.03803,0.18858
1968.96650,0.18783
1970.89497,0.18463
1972.82344,0.18119
1974.75191,0.17858
1976.68038,0.17828
1978.60884,0.18137
1980.53731,0.18420
1982.46578,0.18317
1984.39425,0.18178
1986.32272,0.18176
1988.25119,0.18198
1990.17966,0.18345
1992.10812,0.18466
1994.03659,0.18377
1995.96506,0.18276
1997.89353,0.18287
1999.82200,0.18376
2001.75047,0.18574
2003.67894,0.18665
2005.60741,0.18478
2007.53587,0.18329
2009.46434,0.18391
2011.39281,0.18500
2013.32128,0.18594
2015.24975,0.18673
2017.17822,0.18530
2019.10669,0.18192
2021.03515,0.17972
2022.96362,0.17827
2024.89209,0.17599
2026.82056,0.17480
2028.74903,0.17598
2030.67750,0.17768
2032.60597,0.17956
2034.53444,0.18092
2036.46290,0.17983
2038.39137,0.17771
2040.31984,0.17763
2042.24831,0.18117
2044.17678,0.18589
2046.10525,0.18680
2048.03372,0.18343
2049.96218,0.17987
2051.89065,0.17738
2053.81912,0.17645
2055.74759,0.17834
2057.67606,0.18073
2059.60453,0.18140
2061.53300,0.18126
2063.46147,0.18215
2065.38993,0.18426
2067.31840,0.18491
2069.24687,0.18310
2071.17534,0.18123
2073.10381,0.18157
2075.03228,0.18491
2076.96075,0.18751
2078.88921,0.18542
2080.81768,0.18263
2082.74615,0.18245
2084.67462,0.18221
2086.60309,0.18134
2088.53156,0.18196
2090.46003,0.18216
2092.38850,0.17997
2094.31696,0.18018
2096.24543,0.18247
2098.17390,0.18165
2100.10237,0.17972
2102.03084,0.17880
2103.95931,0.17834
2105.88778,0.17881
2107.81624,0.17895
2109.74471,0.17791
2111.67318,0.17746
2113.60165,0.17787
2115.53012,0.17797
2117.45859,0.17834
2119.38706,0.17978
2121.31553,0.18218
2123.24399,0.18460
2125.17246,0.18548
2127.10093,0.18465
2129.02940,0.18370
2130.95787,0.18510
2132.88634,0.18882
2134.81481,0.19052
2136.74327,0.18798
2138.67174,0.18388
2140.60021,0.18165
2142.52868,0.18133
2144.45715,0.18178
2146.38562,0.18454
2148.31409,0.18776
2150.24255,0.18807
2152.17102,0.18683
2154.09949,0.18589
2156.02796,0.18563
2157.95643,0.18520
2159.88490,0.18485
2161.81337,0.18544
2163.74184,0.18534
2165.67030,0.18357
2167.59877,0.18100
2169.52724,0.18002
2171.45571,0.18205
2173.38418,0.18310
2175.31265,0.18092
2177.24112,0.17949
2179.16958,0.17964
2181.09805,0.17879
2183.02652,0.17725
2184.95499,0.17714
2186.88346,0.17983
2188.81193,0.18333
2190.74040,0.18363
2192.66887,0.18097
2194.59733,0.17892
2196.52580,0.17910
2198.45427,0.18056
2200.38274,0.18083
2202.31121,0.18002
2204.23968,0.18007
2206.16815,0.18052
2208.09661,0.18153
2210.02508,0.18321
2211.95355,0.18405
2213.88202,0.18321
2215.81049,0.18252
2217.73896,0.18424
2219.66743,0.18537
2221.59590,0.18364
2223.52436,0.18311
2225.45283,0.18495
2227.38130,0.18579
2229.30977,0.18439
2231.23824,0.18166
2233.16671,0.17927
2235.09518,0.17997
2237.02364,0.18482
2238.95211,0.18895
2240.88058,0.18738
2242.80905,0.18313
2244.73752,0.18088
2246.66599,0.17977
2248.59446,0.17925
2250.52293,0.18211
2252.45139,0.18603
2254.37986,0.18590
2256.30833,0.18346
2258.23680,0.18231
2260.16527,0.18271
2262.09374,0.18353
2264.02221,0.18349
2265.95067,0.18202
2267.87914,0.18005
2269.80761,0.17980
2271.73608,0.18211
2273.66455,0.18424
2275.59302,0.18374
2277.52149,0.18185
2279.44996,0.18125
2281.37842,0.18210
2283.30689,0.18038
2285.23536,0.17643
2287.16383,0.17539
2289.09230,0.18159
2291.02077,0.19705
2292.94924,0.20910
2294.87770,0.20192
2296.80617,0.18420
2298.73464,0.17657
2300.66311,0.18182
2302.59158,0.18724
2304.52005,0.18702
2306.44852,0.18289
2308.37699,0.17684
2310.30545,0.17577
2312.23392,0.18095
2314.16239,0.18388
2316.09086,0.18578
2318.01933,0.18994
2319.94780,0.19052
2321.87627,0.18845
2323.80473,0.18641
2325.73320,0.17894
2327.66167,0.17286
2329.59014,0.18181
2331.51861,0.19407
2333.44708,0.19394
2335.37555,0.19263
2337.30401,0.19279
2339.23248,0.18524
2341.16095,0.17538
2343.08942,0.16638
2345.01789,0.15954
2346.94636,0.16686
2348.87483,0.17936
2350.80330,0.18017
2352.73176,0.16731
2354.66023,0.15564
2356.58870,0.14855
2358.51717,0.14465
2360.44564,0.15571
2362.37411,0.17921
2364.30258,0.20439
2366.23104,0.21266
2368.15951,0.20647
2370.08798,0.20144
2372.01645,0.19390
2373.94492,0.18546
2375.87339,0.18270
2377.80186,0.18279
2379.73033,0.18104
2381.65879,0.17819
2383.58726,0.17690
2385.51573,0.17714
2387.44420,0.17844
2389.37267,0.18032
2391.30114,0.18084
2393.22961,0.17978
2395.15807,0.18010
2397.08654,0.18185
2399.01501,0.18193
2400.94348,0.18193
2402.87195,0.18338
2404.80042,0.18338
2406.72889,0.18155
2408.65736,0.18132
2410.58582,0.18356
2412.51429,0.18409
2414.44276,0.18219
2416.37123,0.18094
2418.29970,0.18137
2420.22817,0.18268
2422.15664,0.18209
2424.08510,0.17945
2426.01357,0.17826
2427.94204,0.17953
2429.87051,0.18171
2431.79898,0.18352
2433.72745,0.18289
2435.65592,0.18035
2437.58439,0.18008
2439.51285,0.18188
2441.44132,0.18271
2443.36979,0.18229
2445.29826,0.18093
2447.22673,0.17565
2449.15520,0.16766
2451.08367,0.16433
2453.01213,0.16822
2454.94060,0.17758
2456.86907,0.18447
2458.79754,0.18435
2460.72601,0.18415
2462.65448,0.18485
2464.58295,0.18437
2466.51142,0.18452
2468.43988,0.18447
2470.36835,0.18327
2472.29682,0.18293
2474.22529,0.18425
2476.15376,0.18537
2478.08223,0.18575
2480.01070,0.18571
2481.93916,0.18484
2483.86763,0.18272
2485.79610,0.18112
2487.72457,0.18134
2489.65304,0.18336
2491.58151,0.18734
2493.50998,0.19006
2495.43844,0.18876
2497.36691,0.18551
2499.29538,0.18382
2501.22385,0.18342
2503.15232,0.18219
2505.08079,0.18182
2507.00926,0.18365
2508.93773,0.18456
2510.86619,0.18381
2512.79466,0.18544
2514.72313,0.18856
2516.65160,0.18810
2518.58007,0.18381
2520.50854,0.17958
2522.43701,0.17834
2524.36547,0.18047
2526.29394,0.18458
2528.22241,0.18852
2530.15088,0.19206
2532.07935,0.19427
2534.00782,0.19312
2535.93629,0.18890
2537.86476,0.18513
2539.79322,0.18540
2541.72169,0.18725
2543.65016,0.18741
2545.57863,0.18686
2547.50710,0.18705
2549.43557,0.18786
2551.36404,0.18851
2553.29250,0.18857
2555.22097,0.18739
2557.14944,0.18654
2559.07791,0.18727
2561.00638,0.18705
2562.93485,0.18688
2564.86332,0.18848
2566.79179,0.18764
2568.72025,0.18521
2570.64872,0.18644
2572.57719,0.18928
2574.50566,0.18963
2576.43413,0.18866
2578.36260,0.18834
2580.29107,0.18717
2582.21953,0.18532
2584.14800,0.18518
2586.07647,0.18683
2588.00494,0.18878
2589.93341,0.18949
2591.86188,0.18934
2593.79035,0.18915
2595.71882,0.18906
2597.64728,0.18814
2599.57575,0.18564
2601.50422,0.18412
2603.43269,0.18476
2605.36116,0.18518
2607.28963,0.18472
2609.21810,0.18702
2611.14656,0.19281
2613.07503,0.19540
2615.00350,0.19283
2616.93197,0.19004
2618.86044,0.18799
2620.78891,0.18638
2622.71738,0.18656
2624.64585,0.18737
2626.57431,0.18804
2628.50278,0.19010
2630.43125,0.19274
2632.35972,0.19328
2634.28819,0.19304
2636.21666,0.19290
2638.14513,0.19010
2640.07359,0.18600
2642.00206,0.18337
2643.93053,0.18330
2645.85900,0.18621
2647.78747,0.18849
2649.71594,0.18814
2651.64441,0.18811
2653.57288,0.18850
2655.50134,0.18813
2657.42981,0.18971
2659.35828,0.19253
2661.28675,0.19244
2663.21522,0.19057
2665.14369,0.18964
2667.07216,0.18971
2669.00062,0.19001
2670.92909,0.19009
2672.85756,0.19035
2674.78603,0.19091
2676.71450,0.19169
2678.64297,0.19300
2680.57144,0.19349
2682.49990,0.19169
2684.42837,0.19048
2686.35684,0.19200
2688.28531,0.19356
2690.21378,0.19290
2692.14225,0.19020
2694.07072,0.18843
2695.99919,0.18989
2697.92765,0.19155
2699.85612,0.19140
2701.78459,0.19174
2703.71306,0.19241
2705.64153,0.19187
2707.57000,0.19108
2709.49847,0.19111
2711.42693,0.19189
2713.35540,0.19220
2715.28387,0.19111
2717.21234,0.19003
2719.14081,0.18952
2721.06928,0.18878
2722.99775,0.18984
2724.92622,0.19260
2726.85468,0.19242
2728.78315,0.19045
2730.71162,0.19244
2732.64009,0.19663
2734.56856,0.19722
2736.49703,0.19519
2738.42550,0.19365
2740.35396,0.19265
2742.28243,0.19226
2744.21090,0.19200
2746.13937,0.19259
2748.06784,0.19421
2749.99631,0.19566
2751.92478,0.19685
2753.85325,0.19596
2755.78171,0.19428
2757.71018,0.19428
2759.63865,0.19336
2761.56712,0.19084
2763.49559,0.18867
2765.42406,0.18809
2767.35253,0.18934
2769.28099,0.19160
2771.20946,0.19402
2773.13793,0.19537
2775.06640,0.19486
2776.99487,0.19494
2778.92334,0.19782
2780.85181,0.19974
2782.78028,0.19900
2784.70874,0.19948
2786.63721,0.20120
2788.56568,0.20187
2790.49415,0.20281
2792.42262,0.20391
2794.35109,0.20152
2796.27956,0.19835
2798.20802,0.19809
2800.13649,0.19725
2802.06496,0.19551
2803.99343,0.19565
2805.92190,0.19731
2807.85037,0.19783
2809.77884,0.19685
2811.70731,0.19786
2813.63577,0.19859
2815.56424,0.19579
2817.49271,0.19502
2819.42118,0.19953
2821.34965,0.20413
2823.27812,0.20472
2825.20659,0.20375
2827.13505,0.20245
2829.06352,0.19805
2830.99199,0.19388
2832.92046,0.19573
2834.84893,0.20140
2836.77740,0.20469
2838.70587,0.20313
2840.63433,0.20049
2842.56280,0.20142
2844.49127,0.20405
2846.41974,0.20326
2848.34821,0.20057
2850.27668,0.20099
2852.20515,0.20342
2854.13362,0.20410
2856.06208,0.20266
2857.99055,0.20107
2859.91902,0.20132
2861.84749,0.20388
2863.77596,0.20576
2865.70443,0.20268
2867.63290,0.19702
2869.56136,0.19592
2871.48983,0.19939
2873.41830,0.20174
2875.34677,0.20108
2877.27524,0.19889
2879.20371,0.19864
2881.13218,0.19978
2883.06065,0.19669
2884.98911,0.19177
2886.91758,0.19204
2888.84605,0.19737
2890.77452,0.20186
2892.70299,0.20181
2894.63146,0.20013
2896.55993,0.20013
2898.48839,0.20186
2900.41686,0.20376
2902.34533,0.20262
2904.27380,0.19843
2906.20227,0.19739
2908.13074,0.20060
2910.05921,0.20041
2911.98768,0.19641
2913.91614,0.19237
2915.84461,0.18990
2917.77308,0.19321
2919.70155,0.19828
2921.63002,0.19920
2923.55849,0.19865
2925.48696,0.19575
2927.41542,0.19279
2929.34389,0.19596
2931.27236,0.19962
2933.20083,0.19819
2935.12930,0.19335
2937.05777,0.18866
2938.98624,0.19034
2940.91471,0.19632
2942.84317,0.19773
2944.77164,0.19312
2946.70011,0.18827
2948.62858,0.19026
2950.55705,0.19829
2952.48552,0.20356
2954.41399,0.20083
2956.34245,0.19134
2958.27092,0.18429
2960.19939,0.18839
2962.12786,0.19646
2964.05633,0.19672
2965.98480,0.19155
2967.91327,0.19187
2969.84174,0.19985
2971.77020,0.20699
2973.69867,0.20897
2975.62714,0.20700
2977.55561,0.20236
2979.48408,0.20057
2981.41255,0.20336
2983.34102,0.20397
2985.26948,0.20012
2987.19795,0.19603
2989.12642,0.19697
2991.05489,0.20423
2992.98336,0.21094
2994.91183,0.21087
2996.84030,0.20619
2998.76877,0.20378
3000.69723,0.20595
3002.62570,0.20852
3004.55417,0.20823
3006.48264,0.20502
3008.41111,0.20072
3010.33958,0.19516
3012.26805,0.18362
3014.19651,0.16116
3016.12498,0.13736
3018.05345,0.13946
3019.98192,0.17072
3021.91039,0.19940
3023.83886,0.20983
3025.76733,0.20898
3027.69579,0.20402
3029.62426,0.20271
3031.55273,0.20799
3033.48120,0.21262
3035.40967,0.21097
3037.33814,0.20795
3039.26661,0.20745
3041.19508,0.20703
3043.12354,0.20652
3045.05201,0.20387
3046.98048,0.19748
3048.90895,0.19583
3050.83742,0.20291
3052.76589,0.21038
3054.69436,0.21055
3056.62282,0.20290
3058.55129,0.19838
3060.47976,0.20301
3062.40823,0.20686
3064.33670,0.20270
3066.26517,0.19363
3068.19364,0.18983
3070.12211,0.19427
3072.05057,0.19849
3073.97904,0.19914
3075.90751,0.19928
3077.83598,0.20163
3079.76445,0.20500
3081.69292,0.20277
3083.62139,0.19094
3085.54985,0.18270
3087.47832,0.18948
3089.40679,0.20035
3091.33526,0.20598
3093.26373,0.20444
3095.19220,0.20000
3097.12067,0.20234
3099.04914,0.20619
3100.97760,0.20309
3102.90607,0.19684
3104.83454,0.19441
3106.76301,0.19570
3108.69148,0.19626
3110.61995,0.19482
3112.54842,0.19224
3114.47688,0.19223
3116.40535,0.19477
3118.33382,0.19565
3120.26229,0.19570
3122.19076,0.19943
3124.11923,0.20755
3126.04770,0.21269
3127.97617,0.21170
3129.90463,0.20775
3131.83310,0.20383
3133.76157,0.20377
3135.69004,0.20492
3137.61851,0.20345
3139.54698,0.20340
3141.47545,0.20706
3143.40391,0.21039
3145.33238,0.21071
3147.26085,0.20863
3149.18932,0.20569
3151.11779,0.20264
3153.04626,0.19971
3154.97473,0.20041
3156.90320,0.20496
3158.83166,0.20836
3160.76013,0.21090
3162.68860,0.21528
3164.61707,0.21920
3166.54554,0.21926
3168.47401,0.21561
3170.40248,0.21151
3172.33094,0.20995
3174.25941,0.21131
3176.18788,0.21384
3178.11635,0.21572
3180.04482,0.21859
3181.97329,0.22145
3183.90176,0.21938
3185.83022,0.21386
3187.75869,0.20826
3189.68716,0.20338
3191.61563,0.20109
3193.54410,0.20185
3195.47257,0.20384
3197.40104,0.20501
3199.32951,0.20646
3201.25797,0.20928
3203.18644,0.21122
3205.11491,0.21100
3207.04338,0.20768
3208.97185,0.20341
3210.90032,0.20459
3212.82879,0.20969
3214.75725,0.21155
3216.68572,0.20786
3218.61419,0.20200
3220.54266,0.20051
3222.47113,0.20378
3224.39960,0.20622
3226.32807,0.20535
3228.25654,0.20458
3230.18500,0.20864
3232.11347,0.21445
3234.04194,0.21476
3235.97041,0.20934
3237.89888,0.20650
3239.82735,0.21092
3241.75582,0.21629
3243.68428,0.21778
3245.61275,0.21501
3247.54122,0.20947
3249.46969,0.20721
3251.39816,0.20798
3253.32663,0.20497
3255.25510,0.19939
3257.18357,0.19835
3259.11203,0.20210
3261.04050,0.20641
3262.96897,0.21227
3264.89744,0.21819
3266.82591,0.21875
3268.75438,0.21561
3270.68285,0.21238
3272.61131,0.20855
3274.53978,0.20368
3276.46825,0.20391
3278.39672,0.21276
3280.32519,0.21940
3282.25366,0.21551
3284.18213,0.20638
3286.11060,0.20038
3288.03906,0.19902
3289.96753,0.19987
3291.89600,0.20187
3293.82447,0.20334
3295.75294,0.20480
3297.68141,0.20548
3299.60988,0.20387
3301.53834,0.20461
3303.46681,0.20626
3305.39528,0.20528
3307.32375,0.20623
3309.25222,0.20647
3311.18069,0.20120
3313.10916,0.19796
3315.03763,0.20048
3316.96609,0.20338
3318.89456,0.20563
3320.82303,0.20745
3322.75150,0.20697
3324.67997,0.20591
3326.60844,0.20405
3328.53691,0.20101
3330.46537,0.20301
3332.39384,0.20949
3334.32231,0.21249
3336.25078,0.21228
3338.17925,0.21019
3340.10772,0.20587
3342.03619,0.20591
3343.96466,0.20922
3345.89312,0.20832
3347.82159,0.20786
3349.75006,0.20922
3351.67853,0.20575
3353.60700,0.20305
3355.53547,0.20785
3357.46394,0.21317
3359.39240,0.21128
3361.32087,0.20440
3363.24934,0.20157
3365.17781,0.20416
3367.10628,0.20562
3369.03475,0.20609
3370.96322,0.20509
3372.89168,0.20051
3374.82015,0.19909
3376.74862,0.20341
3378.67709,0.20581
3380.60556,0.20206
3382.53403,0.19853
3384.46250,0.20094
3386.39097,0.20279
3388.31943,0.19944
3390.24790,0.19539
3392.17637,0.19395
3394.10484,0.19706
3396.03331,0.20332
3397.96178,0.20592
3399.89025,0.20113
3401.81871,0.19412
3403.74718,0.19314
3405.67565,0.19908
3407.60412,0.20527
3409.53259,0.20510
3411.46106,0.20123
3413.38953,0.20132
3415.31800,0.20122
3417.24646,0.19548
3419.17493,0.19148
3421.10340,0.19268
3423.03187,0.19386
3424.96034,0.19475
3426.88881,0.19840
3428.81728,0.20411
3430.74574,0.20534
3432.67421,0.19875
3434.60268,0.19331
3436.53115,0.19603
3438.45962,0.19956
3440.38809,0.19687
3442.31656,0.19121
3444.24503,0.18673
3446.17349,0.18702
3448.10196,0.19320
3450.03043,0.19852
3451.95890,0.19934
3453.88737,0.19862
3455.81584,0.19811
3457.74431,0.19539
3459.67277,0.19027
3461.60124,0.18522
3463.52971,0.18150
3465.45818,0.18051
3467.38665,0.18147
3469.31512,0.18334
3471.24359,0.18565
3473.17206,0.18583
3475.10052,0.18350
3477.02899,0.18025
3478.95746,0.17781
3480.88593,0.17848
3482.81440,0.17889
3484.74287,0.17673
3486.67134,0.17867
3488.59980,0.18498
3490.52827,0.18887
3492.45674,0.18832
3494.38521,0.18294
3496.31368,0.17443
3498.24215,0.17017
3500.17062,0.17269
3502.09909,0.17566
3504.02755,0.17659
3505.95602,0.17744
3507.88449,0.17859
3509.81296,0.17723
3511.74143,0.17105
3513.66990,0.16680
3515.59837,0.16847
3517.52683,0.17122
3519.45530,0.17219
3521.38377,0.17435
3523.31224,0.17895
3525.24071,0.18106
3527.16918,0.17738
3529.09765,0.17110
3531.02611,0.16684
3532.95458,0.16542
3534.88305,0.16501
3536.81152,0.16276
3538.73999,0.16226
3540.66846,0.16810
3542.59693,0.17235
3544.52540,0.16934
3546.45386,0.16727
3548.38233,0.16984
3550.31080,0.16970
3552.23927,0.16377
3554.16774,0.15730
3556.09621,0.15742
3558.02468,0.16392
3559.95314,0.16944
3561.88161,0.16990
3563.81008,0.16959
3565.73855,0.17138
3567.66702,0.17000
3569.59549,0.16298
3571.52396,0.15595
3573.45243,0.15294
3575.38089,0.15302
3577.30936,0.15007
3579.23783,0.14516
3581.16630,0.14626
3583.09477,0.15170
3585.02324,0.15334
3586.95171,0.15037
3588.88017,0.14724
3590.80864,0.14654
3592.73711,0.14950
3594.66558,0.15514
3596.59405,0.15912
3598.52252,0.15784
3600.45099,0.15327
3602.37946,0.15040
3604.30792,0.14985
3606.23639,0.15234
3608.16486,0.15975
3610.09333,0.16530
3612.02180,0.16072
3613.95027,0.14980
3615.87874,0.14442
3617.80720,0.14637
3619.73567,0.14745
3621.66414,0.14445
3623.59261,0.14295
3625.52108,0.14523
3627.44955,0.15015
3629.37802,0.15399
3631.30649,0.15214
3633.23495,0.14653
3635.16342,0.13799
3637.09189,0.13028
3639.02036,0.12845
3640.94883,0.13182
3642.87730,0.13711
3644.80577,0.14415
3646.73423,0.15301
3648.66270,0.15983
3650.59117,0.15652
3652.51964,0.14884
3654.44811,0.14478
3656.37658,0.14137
3658.30505,0.13529
3660.23352,0.13083
3662.16198,0.12907
3664.09045,0.12771
3666.01892,0.12743
3667.94739,0.13168
3669.87586,0.13819
3671.80433,0.14095
3673.73280,0.14633
3675.66126,0.15337
3677.58973,0.14907
3679.51820,0.13845
3681.44667,0.13048
3683.37514,0.12867
3685.30361,0.13056
3687.23208,0.13208
3689.16055,0.13245
3691.08901,0.13297
3693.01748,0.12957
3694.94595,0.12550
3696.87442,0.12531
3698.80289,0.12602
3700.73136,0.12676
3702.65983,0.12789
3704.58829,0.12862
3706.51676,0.13109
3708.44523,0.13585
3710.37370,0.14177
3712.30217,0.14445
3714.23064,0.14186
3716.15911,0.13875
3718.08757,0.13864
3720.01604,0.14165
3721.94451,0.14147
3723.87298,0.13504
3725.80145,0.12951
3727.72992,0.12822
3729.65839,0.13169
3731.58686,0.14049
3733.51532,0.14268
3735.44379,0.13183
3737.37226,0.12511
3739.30073,0.12023
3741.22920,0.11723
3743.15767,0.12867
3745.08614,0.14998
3747.01460,0.15518
3748.94307,0.15626
3750.87154,0.15762
3752.80001,0.14409
3754.72848,0.13031
3756.65695,0.12611
3758.58542,0.12914
3760.51389,0.13344
3762.44235,0.13072
3764.37082,0.12120
3766.29929,0.11621
3768.22776,0.12207
3770.15623,0.12535
3772.08470,0.12189
3774.01317,0.12329
3775.94163,0.12763
3777.87010,0.12939
3779.79857,0.12788
3781.72704,0.12260
3783.65551,0.11809
3785.58398,0.11558
3787.51245,0.11364
3789.44092,0.11503
3791.36938,0.11798
3793.29785,0.12005
3795.22632,0.12496
3797.15479,0.13170
3799.08326,0.13442
3801.01173,0.13184
3802.94020,0.12620
3804.86866,0.12710
3806.79713,0.13425
3808.72560,0.13413
3810.65407,0.12563
3812.58254,0.12185
3814.51101,0.12786
3816.43948,0.13480
3818.36795,0.13420
3820.29641,0.13115
3822.22488,0.12704
3824.15335,0.12474
3826.08182,0.12682
3828.01029,0.13120
3829.93876,0.13387
3831.86723,0.13426
3833.79569,0.13221
3835.72416,0.12998
3837.65263,0.13020
3839.58110,0.12843
3841.50957,0.12439
3843.43804,0.12067
3845.36651,0.11574
3847.29498,0.11263
3849.22344,0.11717
3851.15191,0.13084
3853.08038,0.14088
3855.00885,0.12914
3856.93732,0.11935
3858.86579,0.11523
3860.79426,0.11386
3862.72272,0.11933
3864.65119,0.12656
3866.57966,0.12704
3868.50813,0.12842
3870.43660,0.13077
3872.36507,0.12650
3874.29354,0.11996
3876.22200,0.11411
3878.15047,0.11270
3880.07894,0.11603
3882.00741,0.11535
3883.93588,0.11507
3885.86435,0.12048
3887.79282,0.12126
3889.72129,0.11867
3891.64975,0.11818
3893.57822,0.11629
3895.50669,0.11450
3897.43516,0.11676
3899.36363,0.12202
3901.29210,0.12986
3903.22057,0.13582
3905.14903,0.12834
3907.07750,0.11676
3909.00597,0.11564
3910.93444,0.11885
3912.86291,0.11675
3914.79138,0.11181
3916.71985,0.10904
3918.64832,0.11049
3920.57678,0.11451
3922.50525,0.11636
3924.43372,0.11350
3926.36219,0.10849
3928.29066,0.10659
3930.21913,0.10853
3932.14760,0.11133
3934.07606,0.11204
3936.00453,0.11099
3937.93300,0.11134
3939.86147,0.11380
3941.78994,0.11440
3943.71841,0.11234
3945.64688,0.10907
3947.57535,0.10313
3949.50381,0.10157
3951.43228,0.10981
3953.36075,0.11694
3955.28922,0.11714
3957.21769,0.11543
3959.14616,0.11370
3961.07463,0.11168
3963.00309,0.11085
3964.93156,0.11051
3966.86003,0.11092
3968.78850,0.11164
3970.71697,0.11007
3972.64544,0.10952
3974.57391,0.11388
3976.50238,0.11836
3978.43084,0.11751
3980.35931,0.11111
3982.28778,0.10316
3984.21625,0.09913
3986.14472,0.09898
3988.07319,0.09965
3990.00166,0.10002
3991.93012,0.09982
3993.85859,0.09886
3995.78706,0.09755
3997.71553,0.09527
3999.64400,0.09242
4001.57247,0.09237
4003.50094,0.09598
4005.42941,0.10016
4007.35787,0.10044
4009.28634,0.09871
4011.21481,0.10018
4013.14328,0.10044
4015.07175,0.09740
4017.00022,0.09687
4018.92869,0.09787
4020.85715,0.09608
4022.78562,0.09557
4024.71409,0.10050
4026.64256,0.10610
4028.57103,0.10804
4030.49950,0.10732
4032.42797,0.10509
4034.35644,0.10327
4036.28490,0.10368
4038.21337,0.10290
4040.14184,0.09925
4042.07031,0.09668
4043.99878,0.09650
4045.92725,0.09906
4047.85572,0.10207
4049.78418,0.10016
4051.71265,0.09467
4053.64112,0.09176
4055.56959,0.09311
4057.49806,0.09531
4059.42653,0.09605
4061.35500,0.09461
4063.28346,0.09322
4065.21193,0.09618
4067.14040,0.09935
4069.06887,0.09714
4070.99734,0.09409
4072.92581,0.09340
4074.85428,0.09451
4076.78275,0.09725
4078.71121,0.09762
4080.63968,0.09612
4082.56815,0.09404
4084.49662,0.08865
4086.42509,0.08693
4088.35356,0.09303
4090.28203,0.09731
4092.21049,0.09573
4094.13896,0.09247
4096.06743,0.08972
4097.99590,0.08705
4099.92437,0.08266
4101.85284,0.07837
4103.78131,0.07924
4105.70978,0.08326
4107.63824,0.08499
4109.56671,0.08660
4111.49518,0.09131
4113.42365,0.09665
4115.35212,0.09852
4117.28059,0.09443
4119.20906,0.08681
4121.13752,0.08131
4123.06599,0.08101
4124.99446,0.08336
4126.92293,0.08454
4128.85140,0.08549
4130.77987,0.08427
4132.70834,0.08078
4134.63681,0.08350
4136.56527,0.09017
4138.49374,0.09052
4140.42221,0.08491
4142.35068,0.08265
4144.27915,0.08763
4146.20762,0.09005
4148.13609,0.08789
4150.06455,0.09090
4151.99302,0.09609
4153.92149,0.09413
4155.84996,0.08460
4157.77843,0.07497
4159.70690,0.07167
4161.63537,0.07192
4163.56384,0.07225
4165.49230,0.07437
4167.42077,0.08022
4169.34924,0.08714
4171.27771,0.08968
4173.20618,0.08821
4175.13465,0.08620
4177.06312,0.08338
4178.99158,0.07673
4180.92005,0.06883
4182.84852,0.06707
4184.77699,0.06869
4186.70546,0.06936
4188.63393,0.07320
4190.56240,0.07534
4192.49087,0.07002
4194.41933,0.06754
4196.34780,0.07241
4198.27627,0.07613
4200.20474,0.07527
4202.13321,0.07383
4204.06168,0.07498
4205.99015,0.07678
4207.91861,0.07588
4209.84708,0.07439
4211.77555,0.07468
4213.70402,0.07291
4215.63249,0.07052
4217.56096,0.07171
4219.48943,0.06921
4221.41789,0.06198
4223.34636,0.05978
4225.27483,0.06241
4227.20330,0.06587
4229.13177,0.06902
4231.06024,0.06898
4232.98871,0.06761
4234.91718,0.06665
4236.84564,0.06422
4238.77411,0.06157
4240.70258,0.05991
4242.63105,0.05990
4244.55952,0.05845
4246.48799,0.05281
4248.41646,0.05190
4250.34492,0.06117
4252.27339,0.07221
4254.20186,0.07709
4256.13033,0.07540
4258.05880,0.06936
4259.98727,0.06244
4261.91574,0.05884
4263.84421,0.05777
4265.77267,0.05701
4267.70114,0.05452
4269.62961,0.04975
4271.55808,0.04947
4273.48655,0.05533
4275.41502,0.06241
4277.34349,0.06861
4279.27195,0.07086
4281.20042,0.06906
4283.12889,0.06648
4285.05736,0.06526
4286.98583,0.06646
4288.91430,0.06654
4290.84277,0.06201
4292.77124,0.05723
4294.69970,0.05670
4296.62817,0.05692
4298.55664,0.05529
4300.48511,0.05359
4302.41358,0.05467
4304.34205,0.06036
4306.27052,0.06640
4308.19898,0.06735
4310.12745,0.06302
4312.05592,0.05619
4313.98439,0.05084
4315.91286,0.05024
4317.84133,0.05535
4319.76980,0.06324
4321.69827,0.06744
4323.62673,0.06425
4325.55520,0.05494
4327.48367,0.04549
4329.41214,0.04103
4331.34061,0.03952
4333.26908,0.03999
4335.19755,0.04120
4337.12601,0.04153
4339.05448,0.04441
4340.98295,0.04815
4342.91142,0.04956
4344.83989,0.04802
4346.76836,0.04289
4348.69683,0.04138
4350.62530,0.04842
4352.55376,0.05474
4354.48223,0.05743
4356.41070,0.06111
4358.33917,0.05854
4360.26764,0.04820
4362.19611,0.04036
4364.12458,0.04074
4366.05304,0.04659
4367.98151,0.04819
4369.90998,0.04135
4371.83845,0.03197
4373.76692,0.02753
4375.69539,0.02970
4377.62386,0.03312
4379.55232,0.03797
4381.48079,0.04325
4383.40926,0.03743
4385.33773,0.02818
4387.26620,0.03263
4389.19467,0.04391
4391.12314,0.05202
4393.05161,0.05381
4394.98007,0.04809
4396.90854,0.04116
4398.83701,0.03462
4400.76548,0.02858
4402.69395,0.02943
4404.62242,0.03391
4406.55089,0.03323
4408.47935,0.03178
4410.40782,0.03731
4412.33629,0.04298
4414.26476,0.03949
4416.19323,0.03357
4418.12170,0.03040
4420.05017,0.02389
4421.97864,0.01523
4423.90710,0.01115
4425.83557,0.01454
4427.76404,0.02476
4429.69251,0.03584
4431.62098,0.03819
4433.54945,0.03344
4435.47792,0.03490
4437.40638,0.04100
4439.33485,0.03946
4441.26332,0.03257
4443.19179,0.02972
4445.12026,0.03002
4447.04873,0.02909
4448.97720,0.02723
4450.90567,0.02637
4452.83413,0.02846
4454.76260,0.02865
4456.69107,0.02090
4458.61954,0.01286
4460.54801,0.01421
4462.47648,0.02002
4464.40495,0.02019
4466.33341,0.01632
4468.26188,0.01941
4470.19035,0.02586
4472.11882,0.02253
4474.04729,0.01171
4475.97576,0.00391
4477.90423,0.00477
4479.83270,0.00880
4481.76116,0.01113
4483.68963,0.01486
4485.61810,0.01629
4487.54657,0.01220
4489.47504,0.00986
4491.40351,0.01461
4493.33198,0.02105
4495.26044,0.02122
4497.18891,0.01813
4499.11738,0.01992
4501.04585,0.01976
4502.97432,0.01434
4504.90279,0.01797
4506.83126,0.02860
4508.75973,0.03313
4510.68819,0.03182
4512.61666,0.02994
4514.54513,0.02963
4516.47360,0.03156
4518.40207,0.03635
4520.33054,0.03803
4522.25901,0.03038
4524.18747,0.01973
4526.11594,0.01388
4528.04441,0.01224
4529.97288,0.01338
4531.90135,0.01247
4533.82982,0.00706
4535.75829,0.00546
4537.68676,0.01243
4539.61522,0.02114
4541.54369,0.02421
4543.47216,0.02527
4545.40063,0.02484
4547.32910,0.01908
4549.25757,0.01336
4551.18604,0.00931
4553.11450,0.00312
4555.04297,-0.00259
4556.97144,-0.00362
4558.89991,0.00004
4560.82838,0.01019
4562.75685,0.02243
4564.68532,0.02623
4566.61378,0.02176
4568.54225,0.01713
4570.47072,0.01748
4572.39919,0.01658
4574.32766,0.00828
4576.25613,0.00108
4578.18460,0.00110
4580.11307,0.00355
4582.04153,0.00799
4583.97000,0.01330
4585.89847,0.01299
4587.82694,0.01189
4589.75541,0.01428
4591.68388,0.01591
4593.61235,0.01562
4595.54081,0.01247
4597.46928,0.00848
4599.39775,0.00689
4601.32622,0.00526
4603.25469,0.00252
4605.18316,-0.00023
4607.11163,-0.00065
4609.04010,0.00500
4610.96856,0.01194
4612.89703,0.01466
4614.82550,0.01557
4616.75397,0.01591
4618.68244,0.01628
4620.61091,0.01253
4622.53938,0.00562
4624.46784,0.00899
4626.39631,0.01565
4628.32478,0.00701
4630.25325,-0.00301
4632.18172,0.00282
4634.11019,0.01241
4636.03866,0.01561
4637.96713,0.01626
4639.89559,0.01379
4641.82406,0.01173
4643.75253,0.02060
4645.68100,0.03193
4647.60947,0.02879
4649.53794,0.01920
4651.46641,0.01715
4653.39487,0.01886
4655.32334,0.01567
4657.25181,0.00367
4659.18028,-0.01326
4661.10875,-0.02142
4663.03722,-0.00852
4664.96569,0.01779
4666.89416,0.02985
4668.82262,0.01804
4670.75109,0.00712
4672.67956,0.01142
4674.60803,0.01521
4676.53650,0.00894
4678.46497,0.00377
4680.39344,0.00544
4682.32190,0.00571
4684.25037,0.00193
4686.17884,0.00270
4688.10731,0.01168
4690.03578,0.01832
4691.96425,0.01813
4693.89272,0.02089
4695.82119,0.02292
4697.74965,0.01734
4699.67812,0.01521
4701.60659,0.01591
4703.53506,0.00931
4705.46353,0.00002
4707.39200,-0.00154
4709.32047,0.00888
4711.24893,0.01522
4713.17740,0.00278
4715.10587,-0.01076
4717.03434,-0.00598
4718.96281,0.00765
4720.89128,0.01339
4722.81975,0.00937
4724.74821,0.00341
4726.67668,0.00531
4728.60515,0.01217
4730.53362,0.01742
4732.46209,0.01897
4734.39056,0.00898
4736.31903,-0.00234
4738.24750,0.00198
4740.17596,0.01005
4742.10443,0.01018
4744.03290,0.01112
4745.96137,0.01590
4747.88984,0.01786
4749.81831,0.01507
4751.74678,0.00777
4753.67524,-0.00089
4755.60371,-0.00062
4757.53218,0.00898
4759.46065,0.01829
4761.38912,0.02765
4763.31759,0.03492
4765.24606,0.02962
4767.17453,0.01470
4769.10299,0.00366
4771.03146,0.00198
4772.95993,0.00308
4774.88840,0.00297
4776.81687,0.00373
4778.74534,0.00330
4780.67381,0.00528
4782.60227,0.01196
4784.53074,0.01287
4786.45921,0.00399
4788.38768,-0.00849
4790.31615,-0.01181
4792.24462,0.00102
4794.17309,0.01279
4796.10156,0.00943
4798.03002,0.00252
4799.95849,0.00081
4801.88696,0.00705
4803.81543,0.02158
4805.74390,0.02933
4807.67237,0.02174
4809.60084,0.00736
4811.52930,-0.00011
4813.45777,0.00778
4815.38624,0.01830
4817.31471,0.01885
4819.24318,0.01528
4821.17165,0.01264
4823.10012,0.01422
4825.02859,0.01848
4826.95705,0.01569
4828.88552,0.00660
4830.81399,0.00080
4832.74246,0.00095
4834.67093,0.00338
4836.59940,0.00911
4838.52787,0.02014
4840.45633,0.02540
4842.38480,0.02123
4844.31327,0.01694
4846.24174,0.00828
4848.17021,-0.00635
4850.09868,-0.01308
4852.02715,-0.00367
4853.95562,0.01212
4855.88408,0.01587
4857.81255,0.01124
4859.74102,0.00972
4861.66949,0.00625
4863.59796,-0.00001
4865.52643,0.00519
4867.45490,0.02488
4869.38336,0.04356
4871.31183,0.04483
4873.24030,0.02735
4875.16877,0.01508
4877.09724,0.02273
4879.02571,0.02014
4880.95418,-0.00298
4882.88265,-0.01512
4884.81111,-0.00524
4886.73958,0.00591
4888.66805,0.01409
4890.59652,0.02226
4892.52499,0.02140
4894.45346,0.01397
4896.38193,0.01113
4898.31039,0.01565
4900.23886,0.01930
4902.16733,0.01466
4904.09580,0.00938
4906.02427,0.00779
4907.95274,0.00567
4909.88121,0.00716
4911.80967,0.01367
4913.73814,0.01782
4915.66661,0.01367
4917.59508,0.00349
4919.52355,-0.00024
4921.45202,0.00999
4923.38049,0.01758
4925.30896,0.01209
4927.23742,0.01093
4929.16589,0.01463
4931.09436,0.01050
4933.02283,0.00623
4934.95130,0.00986
4936.87977,0.01896
4938.80824,0.02428
4940.73670,0.01585
4942.66517,0.00653
4944.59364,0.00983
4946.52211,0.01326
4948.45058,0.01077
4950.37905,0.00932
4952.30752,0.00939
4954.23599,0.00887
4956.16445,0.01038
4958.09292,0.01996
4960.02139,0.03655
4961.94986,0.04834
4963.87833,0.04462
4965.80680,0.02988
4967.73527,0.01952
4969.66373,0.01862
4971.59220,0.01974
4973.52067,0.01934
4975.44914,0.01703
4977.37761,0.01109
4979.30608,0.00600
4981.23455,0.00641
4983.16302,0.01352
4985.09148,0.02786
4987.01995,0.04172
4988.94842,0.03768
4990.87689,0.01283
4992.80536,-0.01207
4994.73383,-0.01768
4996.66230,-0.00237
4998.59076,0.01457
5000.51923,0.02175
5002.44770,0.02739
5004.37617,0.03302
5006.30464,0.03304
5008.23311,0.02452
5010.16158,0.01254
5012.09005,0.00170
5014.01851,-0.00916
5015.94698,-0.01664
5017.87545,-0.01574
5019.80392,-0.00851
5021.73239,-0.00125
5023.66086,0.00916
5025.58933,0.02177
5027.51779,0.02619
5029.44626,0.01925
5031.37473,0.00610
5033.30320,0.00346
5035.23167,0.01830
5037.16014,0.03549
5039.08861,0.04228
5041.01708,0.04225
5042.94554,0.03902
5044.87401,0.02367
5046.80248,0.00395
5048.73095,0.00038
5050.65942,0.00671
5052.58789,0.00619
5054.51636,0.00439
5056.44482,0.00894
5058.37329,0.01370
5060.30176,0.01721
5062.23023,0.02650
5064.15870,0.03874
5066.08717,0.03779
5068.01564,0.02694
5069.94410,0.02498
5071.87257,0.03140
5073.80104,0.03740
5075.72951,0.03510
5077.65798,0.02645
5079.58645,0.02546
5081.51492,0.03006
5083.44339,0.03261
5085.37185,0.03622
5087.30032,0.03681
5089.22879,0.03262
5091.15726,0.02914
5093.08573,0.02498
5095.01420,0.02059
5096.94267,0.02120
5098.87113,0.03150
5100.79960,0.04614
5102.72807,0.05379
5104.65654,0.05847
5106.58501,0.06639
5108.51348,0.06695
5110.44195,0.05144
5112.37042,0.03146
5114.29888,0.01761
5116.22735,0.00655
5118.15582,0.00144
5120.08429,0.00432
5122.01276,0.00895
5123.94123,0.01520
5125.86970,0.02444
5127.79816,0.03286
5129.72663,0.03712
5131.65510,0.03990
5133.58357,0.04379
5135.51204,0.04032
5137.44051,0.02533
5139.36898,0.00874
5141.29745,-0.00057
5143.22591,0.00325
5145.15438,0.02057
5147.08285,0.04064
5149.01132,0.04640
5150.93979,0.03473
5152.86826,0.03048
5154.79673,0.03862
5156.72519,0.03970
5158.65366,0.03489
5160.58213,0.01964
5162.51060,-0.00091
5164.43907,0.00538
5166.36754,0.03244
5168.29601,0.04813
5170.22448,0.04544
5172.15294,0.04471
5174.08141,0.05720
5176.00988,0.06610
5177.93835,0.06097
5179.86682,0.05069
5181.79529,0.04739
5183.72376,0.04436
5185.65222,0.02875
5187.58069,0.01522
5189.50916,0.02109
5191.43763,0.04090
5193.36610,0.05340
5195.29457,0.04077
5197.22304,0.02008
5199.15151,0.02240
5201.07997,0.03403
5203.00844,0.03453
5204.93691,0.03582
5206.86538,0.04024
5208.79385,0.04031
5210.72232,0.04278
5212.65079,0.04839
5214.57925,0.04349
5216.50772,0.01955
5218.43619,-0.00408
5220.36466,-0.00291
5222.29313,0.01575
5224.22160,0.03336
5226.15007,0.04755
5228.07854,0.05794
5230.00700,0.06433
5231.93547,0.06989
5233.86394,0.06505
5235.79241,0.05774
5237.72088,0.06504
5239.64935,0.07413
5241.57782,0.07285
5243.50628,0.06568
5245.43475,0.05699
5247.36322,0.04854
5249.29169,0.04591
5251.22016,0.04938
5253.14863,0.04927
5255.07710,0.04287
5257.00556,0.03205
5258.93403,0.02216
5260.86250,0.02031
5262.79097,0.02741
5264.71944,0.04132
5266.64791,0.05375
5268.57638,0.05456
5270.50485,0.04538
5272.43331,0.04216
5274.36178,0.04858
5276.29025,0.05341
5278.21872,0.05636
5280.14719,0.05012
5282.07566,0.03396
5284.00413,0.03432
5285.93259,0.05056
5287.86106,0.06417
5289.78953,0.07486
5291.71800,0.06824
5293.64647,0.05053
5295.57494,0.05307
5297.50341,0.06145
5299.43188,0.04744
5301.36034,0.02780
5303.28881,0.03005
5305.21728,0.05391
5307.14575,0.08114
5309.07422,0.09183
5311.00269,0.08739
5312.93116,0.07945
5314.85962,0.06743
5316.78809,0.05694
5318.71656,0.05786
5320.64503,0.06360
5322.57350,0.05912
5324.50197,0.03740
5326.43044,0.01370
5328.35891,0.01196
5330.28737,0.03465
5332.21584,0.06457
5334.14431,0.07798
5336.07278,0.07487
5338.00125,0.06666
5339.92972,0.05126
5341.85819,0.04725
5343.78665,0.05803
5345.71512,0.05354
5347.64359,0.04695
5349.57206,0.04947
5351.50053,0.03361
5353.42900,0.01388
5355.35747,0.02688
5357.28594,0.04935
5359.21440,0.06105
5361.14287,0.07143
5363.07134,0.06877
5364.99981,0.05046
5366.92828,0.05145
5368.85675,0.06352
5370.78522,0.06033
5372.71368,0.05461
5374.64215,0.04869
5376.57062,0.04658
5378.49909,0.06175
5380.42756,0.05876
5382.35603,0.02123
5384.28450,-0.01045
5386.21297,-0.00250
5388.14143,0.01667
5390.06990,0.02617
5391.99837,0.04208
5393.92684,0.06434
5395.85531,0.07193
5397.78378,0.06751
5399.71225,0.05981
5401.64071,0.04419
5403.56918,0.03676
5405.49765,0.05733
5407.42612,0.08615
5409.35459,0.08786
5411.28306,0.05321
5413.21153,0.01028
5415.13999,0.00923
5417.06846,0.05032
5418.99693,0.08358
5420.92540,0.09007
5422.85387,0.08209
5424.78234,0.06111
5426.71081,0.04249
5428.63928,0.04809
5430.56774,0.06904
5432.49621,0.08516
5434.42468,0.08979
5436.35315,0.07951
5438.28162,0.06032
5440.21009,0.04711
5442.13856,0.05283
5444.06702,0.08293
5445.99549,0.11168
5447.92396,0.09784
5449.85243,0.06394
5451.78090,0.05996
5453.70937,0.08366
5455.63784,0.10714
5457.56631,0.10729
5459.49477,0.08544
5461.42324,0.06798
5463.35171,0.05514
5465.28018,0.02970
5467.20865,0.02280
5469.13712,0.04592
5471.06559,0.05812
5472.99405,0.06854
5474.92252,0.09296
5476.85099,0.09182
5478.77946,0.05971
5480.70793,0.04029
5482.63640,0.05340
5484.56487,0.07649
5486.49334,0.08514
5488.42180,0.07541
5490.35027,0.05847
5492.27874,0.05688
5494.20721,0.07396
5496.13568,0.08140
5498.06415,0.06332
5499.99262,0.03409
5501.92108,0.02537
5503.84955,0.04724
5505.77802,0.06776
5507.70649,0.06377
5509.63496,0.06062
5511.56343,0.07438
5513.49190,0.08574
5515.42037,0.08749
5517.34883,0.09346
5519.27730,0.10326
5521.20577,0.11804
5523.13424,0.13359
5525.06271,0.11917
5526.99118,0.07619
5528.91965,0.04101
5530.84811,0.03370
5532.77658,0.04179
5534.70505,0.04262
5536.63352,0.04063
5538.56199,0.05230
5540.49046,0.06211
5542.41893,0.04706
5544.34740,0.01948
5546.27586,0.00880
5548.20433,0.02320
5550.13280,0.02864
5552.06127,0.01546
5553.98974,0.02266
5555.91821,0.05239
5557.84668,0.07844
5559.77514,0.08717
5561.70361,0.06903
5563.63208,0.04124
5565.56055,0.03681
5567.48902,0.06164
5569.41749,0.08408
5571.34596,0.07401
5573.27443,0.05015
5575.20289,0.05758
5577.13136,0.09179
5579.05983,0.10316
5580.98830,0.08217
5582.91677,0.07348
5584.84524,0.08668
5586.77371,0.08870
5588.70217,0.06861
5590.63064,0.05581
5592.55911,0.07157
5594.48758,0.08870
5596.41605,0.08217
5598.34452,0.06525
5600.27299,0.05791
5602.20145,0.06222
5604.12992,0.06775
5606.05839,0.07016
5607.98686,0.07733
5609.91533,0.08719
5611.84380,0.08060
5613.77227,0.04911
5615.70074,0.01441
5617.62920,0.01175
5619.55767,0.04925
5621.48614,0.09646
5623.41461,0.11540
5625.34308,0.09563
5627.27155,0.07163
5629.20002,0.08097
5631.12848,0.11055
5633.05695,0.11725
5634.98542,0.09470
5636.91389,0.08189
5638.84236,0.07938
5640.77083,0.05248
5642.69930,0.01226
5644.62777,-0.00639
5646.55623,0.00520
5648.48470,0.04029
5650.41317,0.07752
5652.34164,0.08117
5654.27011,0.05762
5656.19858,0.04962
5658.12705,0.05783
5660.05551,0.05764
5661.98398,0.05445
5663.91245,0.05358
5665.84092,0.04736
5667.76939,0.04430
5669.69786,0.05110
5671.62633,0.05910
5673.55480,0.06695
5675.48326,0.07641
5677.41173,0.08740
5679.34020,0.10245
5681.26867,0.11059
5683.19714,0.10571
5685.12561,0.09955
5687.05408,0.09998
5688.98254,0.09000
5690.91101,0.06273
5692.83948,0.04836
5694.76795,0.05191
5696.69642,0.05615
5698.62489,0.06083
5700.55336,0.06455
5702.48183,0.06230
5704.41029,0.05859
5706.33876,0.06030
5708.26723,0.07090
5710.19570,0.08873
5712.12417,0.09919
5714.05264,0.09658
5715.98111,0.09744
5717.90957,0.10343
5719.83804,0.09803
5721.76651,0.08646
5723.69498,0.08449
5725.62345,0.08632
5727.55192,0.08823
5729.48039,0.09483
5731.40886,0.10880
5733.33732,0.12495
5735.26579,0.11612
5737.19426,0.08948
5739.12273,0.07490
5741.05120,0.04913
5742.97967,0.01905
5744.90814,0.02382
5746.83660,0.06710
5748.76507,0.13057
5750.69354,0.16377
5752.62201,0.13825
5754.55048,0.09932
5756.47895,0.08555
5758.40742,0.09209
5760.33588,0.08720
5762.26435,0.06549
5764.19282,0.04924
5766.12129,0.04339
5768.04976,0.07241
5769.97823,0.13036
5771.90670,0.14981
5773.83517,0.13805
5775.76363,0.13565
5777.69210,0.10904
5779.62057,0.07199
5781.54904,0.07656
5783.47751,0.08907
5785.40598,0.07981
5787.33445,0.07891
5789.26291,0.08457
5791.19138,0.07477
5793.11985,0.06626
5795.04832,0.08070
5796.97679,0.11053
5798.90526,0.12069
5800.83373,0.10193
5802.76220,0.07681
5804.69066,0.05945
5806.61913,0.07030
5808.54760,0.10236
5810.47607,0.11630
5812.40454,0.10673
5814.33301,0.08807
5816.26148,0.06928
5818.18994,0.05696
5820.11841,0.05285
5822.04688,0.05828
5823.97535,0.05835
5825.90382,0.04602
5827.83229,0.04023
5829.76076,0.04242
5831.68923,0.02910
5833.61769,0.00365
5835.54616,0.01003
5837.47463,0.06041
5839.40310,0.10741
5841.33157,0.11622
5843.26004,0.11738
5845.18851,0.13522
5847.11697,0.13664
5849.04544,0.09549
5850.97391,0.03569
5852.90238,0.00620
5854.83085,0.03220
5856.75932,0.08643
5858.68779,0.10301
5860.61626,0.07142
5862.54472,0.05629
5864.47319,0.07389
5866.40166,0.08880
5868.33013,0.10485
5870.25860,0.12737
5872.18707,0.12775
5874.11554,0.09862
5876.04400,0.07500
5877.97247,0.07654
5879.90094,0.07724
5881.82941,0.07036
5883.75788,0.08425
5885.68635,0.10826
5887.61482,0.10783
5889.54329,0.08484
5891.47175,0.07058
5893.40022,0.09334
5895.32869,0.14713
5897.25716,0.18765
5899.18563,0.17934
5901.11410,0.14579
5903.04257,0.12026
5904.97103,0.09682
5906.89950,0.06875
5908.82797,0.03823
5910.75644,0.01769
5912.68491,0.03536
5914.61338,0.07224
5916.54185,0.07903
5918.47032,0.07371
5920.39878,0.07638
5922.32725,0.08586
5924.25572,0.12286
5926.18419,0.15061
5928.11266,0.12073
5930.04113,0.07978
5931.96960,0.06567
5933.89806,0.03711
5935.82653,0.00032
5937.75500,0.01183
5939.68347,0.04790
5941.61194,0.07176
5943.54041,0.09835
5945.46888,0.11709
5947.39734,0.09356
5949.32581,0.04152
5951.25428,0.00876
5953.18275,0.00260
5955.11122,-0.01263
5957.03969,-0.03686
5958.96816,-0.03252
5960.89663,0.01120
5962.82509,0.07040
5964.75356,0.10297
5966.68203,0.09381
5968.61050,0.09358
5970.53897,0.13472
5972.46744,0.15278
5974.39591,0.09420
5976.32437,0.03132
5978.25284,0.02174
5980.18131,0.01966
5982.10978,0.00890
5984.03825,0.01994
5985.96672,0.02868
5987.89519,0.02687
5989.82366,0.05506
5991.75212,0.08451
5993.68059,0.09304
5995.60906,0.10459
5997.53753,0.10484
5999.46600,0.09970
6001.39447,0.10952
6003.32294,0.11589
6005.25140,0.09912
6007.17987,0.08021
6009.10834,0.09037
6011.03681,0.11581
6012.96528,0.11944
6014.89375,0.08167
6016.82222,0.03984
6018.75069,0.05147
6020.67915,0.09241
6022.60762,0.12562
6024.53609,0.14649
6026.46456,0.13123
6028.39303,0.08933
6030.32150,0.08657
6032.24997,0.12702
6034.17843,0.13711
6036.10690,0.10898
6038.03537,0.11134
6039.96384,0.15361
6041.89231,0.17260
6043.82078,0.12327
6045.74925,0.06493
6047.67772,0.07239
6049.60618,0.09893
6051.53465,0.07669
6053.46312,0.03796
6055.39159,0.02172
6057.32006,0.02832
6059.24853,0.03264
6061.17700,0.01859
6063.10546,0.00111
6065.03393,0.01434
6066.96240,0.06743
6068.89087,0.11797
6070.81934,0.13682
6072.74781,0.12952
6074.67628,0.09174
6076.60475,0.03670
6078.53321,0.01129
6080.46168,0.02997
6082.39015,0.04277
6084.31862,0.02491
6086.24709,0.01690
6088.17556,0.05115
6090.10403,0.10140
6092.03249,0.11408
6093.96096,0.07036
6095.88943,0.01990
6097.81790,0.01486
6099.74637,0.05267
6101.67484,0.09891
6103.60331,0.11183
6105.53177,0.09089
6107.46024,0.07991
6109.38871,0.10419
6111.31718,0.13784
6113.24565,0.11667
6115.17412,0.04425
6117.10259,0.00282
6119.03106,0.03262
6120.95952,0.08789
6122.88799,0.10981
6124.81646,0.10592
6126.74493,0.12692
6128.67340,0.17059
6130.60187,0.16293
6132.53034,0.09600
6134.45880,0.03820
6136.38727,0.01250
6138.31574,0.01620
6140.24421,0.04477
6142.17268,0.06760
6144.10115,0.06938
6146.02962,0.04458
6147.95809,0.00117
6149.88655,0.00518
6151.81502,0.07913
6153.74349,0.12799
6155.67196,0.09830
6157.60043,0.04842
6159.52890,0.04503
6161.45737,0.06649
6163.38583,0.07676
6165.31430,0.10518
6167.24277,0.11198
6169.17124,0.05670
6171.09971,0.00610
6173.02818,0.03019
6174.95665,0.09437
6176.88512,0.10935
6178.81358,0.06793
6180.74205,0.02779
6182.67052,0.00999
6184.59899,0.02372
6186.52746,0.07577
6188.45593,0.14154
6190.38440,0.17291
6192.31286,0.15594
6194.24133,0.09977
6196.16980,0.03643
6198.09827,0.03108
6200.02674,0.07882
6201.95521,0.10534
6203.88368,0.07019
6205.81215,0.01469
6207.74061,0.02143
6209.66908,0.06870
6211.59755,0.04612
6213.52602,-0.01170
6215.45449,0.01048
6217.38296,0.07770
6219.31143,0.08382
6221.23989,0.02941
6223.16836,-0.02780
6225.09683,-0.06653
6227.02530,-0.06976
6228.95377,-0.02231
6230.88224,0.04423
6232.81071,0.10483
6234.73918,0.12247
6236.66764,0.08859
6238.59611,0.07301
6240.52458,0.09443
6242.45305,0.09039
6244.38152,0.05703
6246.30999,0.05407
6248.23846,0.08032
6250.16692,0.10057
6252.09539,0.09795
6254.02386,0.06064
6255.95233,0.01481
6257.88080,0.00923
6259.80927,0.04636
6261.73774,0.09340
6263.66621,0.13223
6265.59467,0.15915
6267.52314,0.18342
6269.45161,0.19670
6271.38008,0.17271
6273.30855,0.12736
6275.23702,0.07683
6277.16549,0.02403
6279.09395,0.02537
6281.02242,0.08060
6282.95089,0.11718
6284.87936,0.11360
6286.80783,0.09455
6288.73630,0.08035
6290.66477,0.08028
6292.59323,0.08146
6294.52170,0.08174
6296.45017,0.10745
6298.37864,0.15430
6300.30711,0.19215
6302.23558,0.19906
6304.16405,0.17307
6306.09252,0.15262
6308.02098,0.13274
6309.94945,0.08340
6311.87792,0.05600
6313.80639,0.07062
6315.73486,0.07580
6317.66333,0.07240
6319.59180,0.09667
6321.52026,0.12446
6323.44873,0.12793
6325.37720,0.14811
6327.30567,0.17064
6329.23414,0.13903
6331.16261,0.07993
6333.09108,0.05761
6335.01955,0.08299
6336.94801,0.11199
6338.87648,0.11162
6340.80495,0.09917
6342.73342,0.08767
6344.66189,0.05932
6346.59036,0.00637
6348.51883,-0.04497
6350.44729,-0.04807
6352.37576,0.00609
6354.30423,0.06082
6356.23270,0.06498
6358.16117,0.01257
6360.08964,-0.03679
6362.01811,-0.00398
6363.94658,0.10858
6365.87504,0.16856
6367.80351,0.09456
6369.73198,0.01997
6371.66045,0.04076
6373.58892,0.11480
6375.51739,0.17149
6377.44586,0.15781
6379.37432,0.07957
6381.30279,0.01075
6383.23126,-0.00144
6385.15973,0.02102
6387.08820,0.05403
6389.01667,0.09551
6390.94514,0.11918
6392.87361,0.11276
6394.80207,0.10700
6396.73054,0.07563
6398.65901,0.02862
6400.58748,0.05035
6402.51595,0.10785
6404.44442,0.08986
6406.37289,0.03264
6408.30135,0.06297
6410.22982,0.15135
6412.15829,0.18639
6414.08676,0.16127
6416.01523,0.11745
6417.94370,0.07718
6419.87217,0.07175
6421.80064,0.10837
6423.72910,0.10109
6425.65757,0.02598
6427.58604,0.00102
6429.51451,0.03463
6431.44298,0.04226
6433.37145,0.00061
6435.29992,-0.06717
6437.22838,-0.09361
6439.15685,-0.06310
6441.08532,-0.04397
6443.01379,-0.02145
6444.94226,0.03267
6446.87073,0.06957
6448.79920,0.06154
6450.72766,0.02548
6452.65613,0.00625
6454.58460,0.03344
6456.51307,0.08546
6458.44154,0.11580
6460.37001,0.10385
6462.29848,0.07832
6464.22695,0.07990
6466.15541,0.06297
6468.08388,0.00890
6470.01235,-0.02009
6471.94082,-0.00271
6473.86929,0.08009
6475.79776,0.16118
6477.72623,0.10466
6479.65469,-0.03350
6481.58316,-0.08059
6483.51163,-0.02117
6485.44010,0.01170
6487.36857,0.00749
6489.29704,0.03262
6491.22551,0.06460
6493.15398,0.06733
6495.08244,0.08860
6497.01091,0.13429
6498.93938,0.13212
6500.86785,0.07445
6502.79632,0.05702
6504.72479,0.10616
6506.65326,0.12958
6508.58172,0.08657
6510.51019,0.04477
6512.43866,0.06119
6514.36713,0.10636
6516.29560,0.13521
6518.22407,0.14966
6520.15254,0.14824
6522.08101,0.11999
6524.00947,0.10553
6525.93794,0.11221
6527.86641,0.07493
6529.79488,0.06466
6531.72335,0.14156
6533.65182,0.16293
6535.58029,0.09674
6537.50875,0.04753
6539.43722,0.00087
6541.36569,-0.03325
6543.29416,0.01488
6545.22263,0.06890
6547.15110,0.06901
6549.07957,0.11006
6551.00804,0.21166
6552.93650,0.26574
6554.86497,0.24248
6556.79344,0.17323
6558.72191,0.08189
6560.65038,0.02779
6562.57885,0.05097
6564.50732,0.08354
6566.43578,0.07693
6568.36425,0.07506
6570.29272,0.06561
6572.22119,0.02562
6574.14966,-0.00461
6576.07813,0.00249
6578.00660,0.03652
6579.93507,0.05899
6581.86353,0.07400
6583.79200,0.09009
6585.72047,0.05100
6587.64894,-0.02264
6589.57741,-0.05915
6591.50588,-0.03001
6593.43435,0.04176
6595.36281,0.07002
6597.29128,0.07149
6599.21975,0.12733
6601.14822,0.15820
6603.07669,0.06570
6605.00516,-0.01888
6606.93363,-0.00182
6608.86210,0.04496
6610.79056,0.08603
6612.71903,0.15258
6614.64750,0.21226
6616.57597,0.19827
6618.50444,0.15496
6620.43291,0.15830
6622.36138,0.16563
6624.28984,0.16185
6626.21831,0.17632
6628.14678,0.19016
6630.07525,0.19070
6632.00372,0.15410
6633.93219,0.06835
6635.86066,0.01624
6637.78912,0.03109
6639.71759,0.06283
6641.64606,0.08686
6643.57453,0.06974
6645.50300,0.04951
6647.43147,0.07262
6649.35994,0.09119
6651.28841,0.05651
6653.21687,0.00566
6655.14534,0.03234
6657.07381,0.13038
6659.00228,0.16270
6660.93075,0.08944
6662.85922,0.06121
6664.78769,0.13386
6666.71615,0.16786
6668.64462,0.10152
6670.57309,0.06064
6672.50156,0.10777
6674.43003,0.13104
6676.35850,0.11424
6678.28697,0.13484
6680.21544,0.19947
6682.14390,0.26045
6684.07237,0.25808
6686.00084,0.19146
6687.92931,0.09904
6689.85778,0.01474
6691.78625,-0.03708
6693.71472,-0.05452
6695.64318,-0.02418
6697.57165,0.05251
6699.50012,0.13255
6701.42859,0.15513
6703.35706,0.07810
6705.28553,-0.00511
6707.21400,-0.01130
6709.14247,0.00626
6711.07093,0.04604
6712.99940,0.10847
6714.92787,0.12660
6716.85634,0.08794
6718.78481,0.07727
6720.71328,0.10682
6722.64175,0.07503
6724.57021,0.00908
6726.49868,-0.00388
6728.42715,0.02080
6730.35562,0.03561
6732.28409,0.02832
6734.21256,-0.00634
6736.14103,-0.08088
6738.06950,-0.12057
6739.99796,-0.07995
6741.92643,-0.00871
6743.85490,0.04409
6745.78337,0.05285
6747.71184,0.03785
6749.64031,0.03635
6751.56878,0.01561
6753.49724,-0.01758
6755.42571,0.01216
6757.35418,0.08190
6759.28265,0.12233
6761.21112,0.12789
6763.13959,0.10082
6765.06806,0.02463
6766.99653,-0.04440
6768.92499,-0.02862
6770.85346,0.03860
6772.78193,0.11107
6774.71040,0.20810
6776.63887,0.27358
6778.56734,0.24247
6780.49581,0.17758
6782.42427,0.11977
6784.35274,0.08377
6786.28121,0.10236
6788.20968,0.12563
6790.13815,0.08348
6792.06662,0.01534
6793.99509,-0.01642
6795.92355,-0.00591
6797.85202,0.02444
6799.78049,0.00384
6801.70896,-0.07485
6803.63743,-0.10213
6805.56590,-0.05361
6807.49437,-0.02500
6809.42284,-0.03636
6811.35130,-0.00581
6813.27977,0.07409
6815.20824,0.07229
6817.13671,0.01399
6819.06518,0.03286
6820.99365,0.06533
6822.92212,0.04437
6824.85058,0.07029
6826.77905,0.11778
6828.70752,0.08297
6830.63599,0.03459
6832.56446,0.07356
6834.49293,0.10811
6836.42140,0.01115
6838.34987,-0.11415
6840.27833,-0.10969
6842.20680,0.00606
6844.13527,0.13986
6846.06374,0.17323
6847.99221,0.06644
6849.92068,-0.07837
6851.84915,-0.13897
6853.77761,-0.06576
6855.70608,0.04206
6857.63455,0.06208
6859.56302,0.08999
6861.49149,0.10332
6863.41996,0.04153
6865.34843,-0.00122
6867.27690,0.01045
6869.20536,0.06890
6871.13383,0.14647
6873.06230,0.14373
6874.99077,0.07923
6876.91924,0.07133
6878.84771,0.05942
6880.77618,-0.03141
6882.70464,-0.10486
6884.63311,-0.10070
6886.56158,-0.02792
6888.49005,0.08622
6890.41852,0.19492
6892.34699,0.20749
6894.27546,0.12022
6896.20393,0.09812
6898.13239,0.15677
6900.06086,0.13840
6901.98933,0.08619
6903.91780,0.10682
6905.84627,0.16253
6907.77474,0.14536
6909.70321,0.06487
6911.63167,0.04217
6913.56014,0.12816
6915.48861,0.23340
6917.41708,0.27585
6919.34555,0.21969
6921.27402,0.12116
6923.20249,0.09310
6925.13096,0.09567
6927.05942,0.05172
6928.98789,0.03182
6930.91636,0.09514
6932.84483,0.11770
6934.77330,0.07402
6936.70177,0.05335
6938.63024,0.04863
6940.55870,0.06239
6942.48717,0.08866
6944.41564,0.10339
6946.34411,0.13536
6948.27258,0.14241
6950.20105,0.10127
6952.12952,0.05655
6954.05799,0.00212
6955.98645,-0.08135
6957.91492,-0.16729
6959.84339,-0.16479
6961.77186,-0.05230
6963.70033,0.06990
6965.62880,0.14356
6967.55727,0.14487
6969.48573,0.13157
6971.41420,0.16532
6973.34267,0.13874
6975.27114,0.04294
6977.19961,-0.01967
6979.12808,-0.06394
6981.05655,-0.03550
6982.98501,0.05359
6984.91348,-0.00338
6986.84195,-0.15433
6988.77042,-0.12826
6990.69889,0.06530
6992.62736,0.18766
6994.55583,0.11729
6996.48430,-0.05154
6998.41276,-0.10403
7000.34123,0.00397
7002.26970,0.05636
7004.19817,-0.05824
7006.12664,-0.15256
7008.05511,-0.04504
7009.98358,0.16054
7011.91204,0.32113
7013.84051,0.31673
7015.76898,0.14641
7017.69745,-0.00999
7019.62592,-0.01717
7021.55439,0.06509
7023.48286,0.02157
7025.41133,-0.12727
7027.33979,-0.17521
7029.26826,-0.10075
7031.19673,-0.00035
7033.12520,0.08180
7035.05367,0.13026
7036.98214,0.14397
7038.91061,0.11253
7040.83907,0.02186
7042.76754,-0.04622
7044.69601,0.00314
7046.62448,0.09364
7048.55295,0.10673
7050.48142,-0.00621
7052.40989,-0.08837
7054.33836,0.02088
7056.26682,0.11406
7058.19529,0.07446
7060.12376,0.05344
7062.05223,-0.03005
7063.98070,-0.14966
7065.90917,-0.11269
7067.83764,0.03579
7069.76610,0.16845
7071.69457,0.18606
7073.62304,0.05261
7075.55151,-0.10297
7077.47998,-0.13126
7079.40845,-0.03528
7081.33692,0.02582
7083.26539,-0.01892
7085.19385,-0.04911
7087.12232,-0.01764
7089.05079,0.05840
7090.97926,0.11695
7092.90773,0.17540
7094.83620,0.28452
7096.76467,0.37093
7098.69313,0.31995
7100.62160,0.12052
7102.55007,-0.06335
7104.47854,-0.07106
7106.40701,0.06009
7108.33548,0.12151
7110.26395,0.04507
7112.19242,-0.09376
7114.12088,-0.16791
7116.04935,-0.15038
7117.97782,-0.13619
7119.90629,-0.14190
7121.83476,-0.13566
7123.76323,-0.11403
7125.69170,-0.04061
7127.62016,0.01287
7129.54863,-0.01036
7131.47710,-0.10546
7133.40557,-0.24636
7135.33404,-0.27774
7137.26251,-0.14035
7139.19098,0.03242
7141.11944,0.11446
7143.04791,0.05907
7144.97638,-0.06773
7146.90485,-0.12938
7148.83332,-0.12232
7150.76179,-0.06313
7152.69026,0.05272
7154.61873,0.18954
7156.54719,0.28988
7158.47566,0.26251
7160.40413,0.19334
7162.33260,0.24386
7164.26107,0.34106
7166.18954,0.28834
7168.11801,0.07340
7170.04647,-0.07946
7171.97494,0.02263
7173.90341,0.17950
7175.83188,0.18345
7177.76035,0.09001
7179.68882,-0.05539
7181.61729,-0.19430
7183.54576,-0.15833
7185.47422,-0.02941
7187.40269,0.06647
7189.33116,0.14089
7191.25963,0.13452
7193.18810,0.06579
7195.11657,0.03368
7197.04504,0.00764
7198.97350,-0.02264
7200.90197,0.02073
7202.83044,0.14777
7204.75891,0.24976
7206.68738,0.24643
7208.61585,0.15947
7210.54432,0.03397
7212.47279,0.01807
7214.40125,0.08635
7216.32972,0.05379
7218.25819,-0.04993
7220.18666,-0.10888
7222.11513,-0.16108
7224.04360,-0.09779
7225.97207,0.16083
7227.90053,0.28449
7229.82900,0.07896
7231.75747,-0.13294
7233.68594,-0.09832
7235.61441,0.03202
7237.54288,0.10239
7239.47135,0.13760
7241.39982,0.19228
7243.32828,0.14905
7245.25675,0.06344
7247.18522,0.04514
7249.11369,0.06570
7251.04216,0.01469
7252.97063,-0.15480
7254.89910,-0.18186
7256.82756,-0.08735
7258.75603,0.00459
7260.68450,0.08309
7262.61297,0.07795
7264.54144,0.01039
7266.46991,-0.06759
7268.39838,-0.10202
7270.32685,-0.00248
7272.25531,0.15839
7274.18378,0.21587
7276.11225,0.21228
7278.04072,0.13184
7279.96919,-0.01357
7281.89766,-0.08387
7283.82613,-0.08668
7285.75459,-0.02772
7287.68306,0.00713
7289.61153,-0.03191
7291.54000,-0.05318
7293.46847,-0.09692
7295.39694,-0.13271
7297.32541,-0.04938
7299.25387,0.07125
7301.18234,0.11743
7303.11081,0.10261
7305.03928,0.10174
7306.96775,0.11462
7308.89622,0.19506
7310.82469,0.31819
7312.75316,0.32045
7314.68162,0.22709
7316.61009,0.10796
7318.53856,0.06913
7320.46703,0.11738
7322.39550,0.11190
7324.32397,0.06486
7326.25244,0.09320
7328.18090,0.04224
7330.10937,-0.09732
7332.03784,0.02782
7333.96631,0.27722
7335.89478,0.35240
7337.82325,0.21666
7339.75172,-0.04097
7341.68019,-0.04003
7343.60865,0.09409
7345.53712,0.11743
7347.46559,0.15964
7349.39406,0.22758
7351.32253,0.14249
7353.25100,-0.03413
7355.17947,-0.10120
7357.10793,-0.04455
7359.03640,-0.02153
7360.96487,-0.04106
7362.89334,-0.02134
7364.82181,-0.02271
7366.75028,0.01405
7368.67875,0.08448
7370.60722,0.00093
7372.53568,-0.11358
7374.46415,-0.07998
7376.39262,-0.03844
7378.32109,-0.03787
7380.24956,0.00439
7382.17803,0.11054
7384.10650,0.27653
7386.03496,0.31736
7387.96343,0.24260
7389.89190,0.19117
7391.82037,0.10046
7393.74884,-0.05841
7395.67731,-0.21060
7397.60578,-0.21704
7399.53425,-0.06676
7401.46271,0.13559
7403.39118,0.28946
7405.31965,0.29812
7407.24812,0.30176
7409.17659,0.34865
7411.10506,0.28923
7413.03353,0.07005
7414.96199,-0.18571
7416.89046,-0.28991
7418.81893,-0.12728
7420.74740,0.10549
7422.67587,0.13666
7424.60434,0.05534
7426.53281,-0.00691
7428.46128,-0.07732
7430.38974,-0.14300
7432.31821,-0.08142
7434.24668,0.00983
7436.17515,0.03932
7438.10362,0.06703
7440.03209,0.13835
7441.96056,0.11995
7443.88902,0.04096
7445.81749,0.00040
7447.74596,-0.02996
7449.67443,0.01343
7451.60290,0.22696
7453.53137,0.31674
7455.45984,0.19207
7457.38831,-0.02018
7459.31677,-0.25434
7461.24524,-0.27217
7463.17371,-0.10571
7465.10218,0.12019
7467.03065,0.30266
7468.95912,0.30919
7470.88759,0.21560
7472.81605,0.19103
7474.74452,0.20459
7476.67299,0.14650
7478.60146,0.03247
7480.52993,-0.06177
7482.45840,-0.03718
7484.38687,0.11716
7486.31533,0.21681
7488.24380,0.15316
7490.17227,0.08126
7492.10074,0.12588
7494.02921,0.19938
7495.95768,0.25191
7497.88615,0.33406
