399.19301,6.24764
401.12148,0.89416
403.04995,0.15328
404.97842,-0.01405
406.90689,-0.08771
408.83536,-0.13630
410.76382,0.00309
412.69229,0.15926
414.62076,0.16218
416.54923,0.02437
418.47770,-0.21501
420.40617,-0.25686
422.33464,-0.05135
424.26311,0.11796
426.19157,0.12771
428.12004,0.06565
430.04851,0.04688
431.97698,0.08491
433.90545,0.10242
435.83392,0.12762
437.76239,0.18724
439.69085,0.23454
441.61932,0.22788
443.54779,0.17774
445.47626,0.07295
447.40473,-0.05562
449.33320,-0.10473
451.26167,-0.07031
453.19013,-0.01237
455.11860,0.02757
457.04707,0.03272
458.97554,-0.00234
460.90401,-0.00570
462.83248,0.07656
464.76095,0.14157
466.68942,0.11092
468.61788,0.08600
470.54635,0.09564
472.47482,-0.02088
474.40329,-0.25502
476.33176,-0.17881
478.26023,0.00883
480.18870,0.09986
482.11716,0.12228
484.04563,0.10991
485.97410,0.08636
487.90257,0.07277
489.83104,0.04085
491.75951,0.01337
493.68798,0.03967
495.61645,0.09340
497.54491,0.10941
499.47338,0.09743
501.40185,0.09410
503.33032,0.10027
505.25879,0.11789
507.18726,0.14560
509.11573,0.15506
511.04419,0.13419
512.97266,0.10905
514.90113,0.08628
516.82960,0.06106
518.75807,0.07539
520.68654,0.11617
522.61501,0.13484
524.54348,0.12925
526.47194,0.10995
528.40041,0.09459
530.32888,0.08864
532.25735,0.09256
534.18582,0.13009
536.11429,0.19310
538.04276,0.20929
539.97122,0.16681
541.89969,0.14415
543.82816,0.15533
545.75663,0.14902
547.68510,0.12651
549.61357,0.09692
551.54204,0.06843
553.47051,0.06764
555.39897,0.08472
557.32744,0.08520
559.25591,0.07578
561.18438,0.07645
563.11285,0.06434
565.04132,0.04934
566.96979,0.07456
568.89825,0.11439
570.82672,0.12728
572.75519,0.12860
574.68366,0.13892
576.61213,0.14758
578.54060,0.14325
580.46907,0.12883
582.39754,0.10709
584.32600,0.08612
586.25447,0.09024
588.18294,0.12197
590.11141,0.15012
592.03988,0.15160
593.96835,0.12886
595.89682,0.11591
597.82528,0.12571
599.75375,0.13019
601.68222,0.11665
603.61069,0.09030
605.53916,0.06782
607.46763,0.07474
609.39610,0.08691
611.32456,0.08366
613.25303,0.09047
615.18150,0.09960
617.10997,0.09631
619.03844,0.09317
620.96691,0.09265
622.89538,0.09646
624.82385,0.11205
626.75231,0.13538
628.68078,0.15064
630.60925,0.15172
632.53772,0.14251
634.46619,0.13305
636.39466,0.12148
638.32313,0.10119
640.25159,0.10170
642.18006,0.14085
644.10853,0.17641
646.03700,0.17061
647.96547,0.14355
649.89394,0.13517
651.82241,0.13913
653.75088,0.13158
655.67934,0.12767
657.60781,0.14315
659.53628,0.16310
661.46475,0.16446
663.39322,0.14621
665.32169,0.12488
667.25016,0.10073
669.17862,0.09151
671.10709,0.11709
673.03556,0.13419
674.96403,0.11740
676.89250,0.09129
678.82097,0.09497
680.74944,0.11661
682.67791,0.14133
684.60637,0.16138
686.53484,0.15977
688.46331,0.15123
690.39178,0.14611
692.32025,0.13023
694.24872,0.12152
696.17719,0.13320
698.10565,0.14083
700.03412,0.13938
701.96259,0.13572
703.89106,0.12709
705.81953,0.12619
707.74800,0.14292
709.67647,0.16001
711.60494,0.15636
713.53340,0.14242
715.46187,0.14448
717.39034,0.15267
719.31881,0.14567
721.24728,0.13235
723.17575,0.12836
725.10422,0.14222
727.03268,0.16333
728.96115,0.16556
730.88962,0.14767
732.81809,0.12776
734.74656,0.11865
736.67503,0.11947
738.60350,0.12721
740.53197,0.13817
742.46043,0.13849
744.38890,0.13113
746.31737,0.12694
748.24584,0.12201
750.17431,0.11925
752.10278,0.12480
754.03125,0.13469
755.95971,0.14281
757.88818,0.14453
759.81665,0.13852
761.74512,0.13033
763.67359,0.12752
765.60206,0.12714
767.53053,0.12565
769.45900,0.12488
771.38746,0.12396
773.31593,0.12914
775.24440,0.13680
777.17287,0.13105
779.10134,0.11635
781.02981,0.10915
782.95828,0.11597
784.88674,0.12480
786.81521,0.12283
788.74368,0.12759
790.67215,0.15660
792.60062,0.17818
794.52909,0.16017
796.45756,0.13129
798.38602,0.12288
800.31449,0.12650
802.24296,0.12814
804.17143,0.12945
806.09990,0.12944
808.02837,0.12417
809.95684,0.12433
811.88531,0.12998
813.81377,0.13429
815.74224,0.13282
817.67071,0.12337
819.59918,0.12006
821.52765,0.12464
823.45612,0.12565
825.38459,0.12952
827.31305,0.13710
829.24152,0.13553
831.16999,0.13231
833.09846,0.13389
835.02693,0.13320
836.95540,0.13760
838.88387,0.14495
840.81234,0.13778
842.74080,0.12711
844.66927,0.13580
846.59774,0.15127
848.52621,0.15367
850.45468,0.15640
852.38315,0.17041
854.31162,0.17429
856.24008,0.16106
858.16855,0.14966
860.09702,0.14412
862.02549,0.14193
863.95396,0.14487
865.88243,0.15170
867.81090,0.17291
869.73937,0.20743
871.66783,0.21186
873.59630,0.17504
875.52477,0.14484
877.45324,0.13942
879.38171,0.14019
881.31018,0.13950
883.23865,0.14071
885.16711,0.14274
887.09558,0.14143
889.02405,0.13887
890.95252,0.13893
892.88099,0.13831
894.80946,0.13311
896.73793,0.13556
898.66640,0.14643
900.59486,0.14573
902.52333,0.13696
904.45180,0.13563
906.38027,0.13798
908.30874,0.14032
910.23721,0.14357
912.16568,0.14278
914.09414,0.13461
916.02261,0.12588
917.95108,0.12804
919.87955,0.13606
921.80802,0.13924
923.73649,0.14215
925.66496,0.14955
927.59343,0.15610
929.52189,0.15721
931.45036,0.15776
933.37883,0.16006
935.30730,0.15700
937.23577,0.14676
939.16424,0.14033
941.09271,0.13990
943.02117,0.13758
944.94964,0.13896
946.87811,0.14377
948.80658,0.14403
950.73505,0.14323
952.66352,0.14419
954.59199,0.14555
956.52045,0.14143
958.44892,0.13081
960.37739,0.12543
962.30586,0.13084
964.23433,0.13888
966.16280,0.14044
968.09127,0.13644
970.01974,0.13873
971.94820,0.14995
973.87667,0.15122
975.80514,0.13754
977.73361,0.13051
979.66208,0.13773
981.59055,0.14579
983.51902,0.14766
985.44748,0.14440
987.37595,0.13922
989.30442,0.13735
991.23289,0.13945
993.16136,0.14365
995.08983,0.14825
997.01830,0.14853
998.94677,0.14497
1000.87523,0.14445
1002.80370,0.14771
1004.73217,0.15009
1006.66064,0.15187
1008.58911,0.15303
1010.51758,0.15030
1012.44605,0.14746
1014.37451,0.14924
1016.30298,0.15389
1018.23145,0.15910
1020.15992,0.16198
1022.08839,0.16167
1024.01686,0.16096
1025.94533,0.16176
1027.87380,0.16429
1029.80226,0.16185
1031.73073,0.15298
1033.65920,0.15457
1035.58767,0.16887
1037.51614,0.17206
1039.44461,0.15948
1041.37308,0.15298
1043.30154,0.15621
1045.23001,0.15397
1047.15848,0.15003
1049.08695,0.15491
1051.01542,0.16132
1052.94389,0.16416
1054.87236,0.16773
1056.80083,0.16951
1058.72929,0.16740
1060.65776,0.16810
1062.58623,0.16983
1064.51470,0.16659
1066.44317,0.16420
1068.37164,0.16288
1070.30011,0.15697
1072.22857,0.15344
1074.15704,0.15682
1076.08551,0.15952
1078.01398,0.15754
1079.94245,0.15384
1081.87092,0.15398
1083.79939,0.15796
1085.72786,0.15955
1087.65632,0.16146
1089.58479,0.15839
1091.51326,0.14388
1093.44173,0.13858
1095.37020,0.14888
1097.29867,0.15618
1099.22714,0.15528
1101.15560,0.15462
1103.08407,0.15998
1105.01254,0.16558
1106.94101,0.16090
1108.86948,0.14909
1110.79795,0.14687
1112.72642,0.15598
1114.65489,0.16289
1116.58335,0.16617
1118.51182,0.17034
1120.44029,0.17073
1122.36876,0.16642
1124.29723,0.16685
1126.22570,0.17011
1128.15417,0.16649
1130.08263,0.15915
1132.01110,0.15455
1133.93957,0.15590
1135.86804,0.16095
1137.79651,0.15826
1139.72498,0.14868
1141.65345,0.14538
1143.58191,0.14871
1145.51038,0.15463
1147.43885,0.16160
1149.36732,0.16553
1151.29579,0.16684
1153.22426,0.16798
1155.15273,0.16706
1157.08120,0.16304
1159.00966,0.16275
1160.93813,0.16888
1162.86660,0.17137
1164.79507,0.16683
1166.72354,0.16425
1168.65201,0.16571
1170.58048,0.16456
1172.50894,0.15956
1174.43741,0.15619
1176.36588,0.15713
1178.29435,0.15860
1180.22282,0.15877
1182.15129,0.15957
1184.07976,0.15864
1186.00823,0.15344
1187.93669,0.15300
1189.86516,0.16359
1191.79363,0.17406
1193.72210,0.17506
1195.65057,0.16841
1197.57904,0.16265
1199.50751,0.16406
1201.43597,0.16717
1203.36444,0.16581
1205.29291,0.16206
1207.22138,0.15993
1209.14985,0.15892
1211.07832,0.15920
1213.00679,0.16168
1214.93526,0.16377
1216.86372,0.16449
1218.79219,0.16546
1220.72066,0.16590
1222.64913,0.16299
1224.57760,0.15767
1226.50607,0.15352
1228.43454,0.15439
1230.36300,0.15993
1232.29147,0.16398
1234.21994,0.16548
1236.14841,0.16630
1238.07688,0.16434
1240.00535,0.16014
1241.93382,0.15851
1243.86229,0.15940
1245.79075,0.15892
1247.71922,0.15923
1249.64769,0.16346
1251.57616,0.16716
1253.50463,0.16585
1255.43310,0.16378
1257.36157,0.16342
1259.29003,0.16171
1261.21850,0.16186
1263.14697,0.16519
1265.07544,0.16534
1267.00391,0.16252
1268.93238,0.16199
1270.86085,0.16407
1272.78932,0.16551
1274.71778,0.16486
1276.64625,0.16527
1278.57472,0.16687
1280.50319,0.16729
1282.43166,0.16983
1284.36013,0.17445
1286.28860,0.17501
1288.21706,0.17101
1290.14553,0.16647
1292.07400,0.16286
1294.00247,0.16148
1295.93094,0.16450
1297.85941,0.16759
1299.78788,0.16222
1301.71634,0.14840
1303.64481,0.13501
1305.57328,0.13464
1307.50175,0.14990
1309.43022,0.16480
1311.35869,0.17108
1313.28716,0.17324
1315.21563,0.17272
1317.14409,0.17233
1319.07256,0.17220
1321.00103,0.16991
1322.92950,0.16708
1324.85797,0.16406
1326.78644,0.16300
1328.71491,0.16697
1330.64337,0.16920
1332.57184,0.16697
1334.50031,0.16559
1336.42878,0.16547
1338.35725,0.16532
1340.28572,0.16135
1342.21419,0.13581
1344.14266,0.07489
1346.07112,0.03711
1347.99959,0.08547
1349.92806,0.15130
1351.85653,0.16635
1353.78500,0.16087
1355.71347,0.16014
1357.64194,0.16534
1359.57040,0.17438
1361.49887,0.18001
1363.42734,0.17503
1365.35581,0.16690
1367.28428,0.16558
1369.21275,0.16635
1371.14122,0.16527
1373.06969,0.16840
1374.99815,0.17529
1376.92662,0.17542
1378.85509,0.17298
1380.78356,0.17527
1382.71203,0.17891
1384.64050,0.18157
1386.56897,0.18480
1388.49743,0.18539
1390.42590,0.18288
1392.35437,0.18478
1394.28284,0.19204
1396.21131,0.19506
1398.13978,0.18709
1400.06825,0.17491
1401.99672,0.17057
1403.92518,0.17484
1405.85365,0.17917
1407.78212,0.17891
1409.71059,0.17837
1411.63906,0.17750
1413.56753,0.17733
1415.49600,0.18308
1417.42446,0.18916
1419.35293,0.18577
1421.28140,0.18191
1423.20987,0.18279
1425.13834,0.18308
1427.06681,0.18314
1428.99528,0.18549
1430.92375,0.18757
1432.85221,0.18682
1434.78068,0.18716
1436.70915,0.19087
1438.63762,0.19017
1440.56609,0.18277
1442.49456,0.17543
1444.42303,0.17525
1446.35149,0.18320
1448.27996,0.19034
1450.20843,0.19033
1452.13690,0.18918
1454.06537,0.19294
1455.99384,0.20889
1457.92231,0.22180
1459.85077,0.20565
1461.77924,0.19245
1463.70771,0.19159
1465.63618,0.19131
1467.56465,0.18668
1469.49312,0.18754
1471.42159,0.19620
1473.35006,0.20160
1475.27852,0.19708
1477.20699,0.19230
1479.13546,0.18978
1481.06393,0.18900
1482.99240,0.18816
1484.92087,0.18868
1486.84934,0.19531
1488.77780,0.20361
1490.70627,0.20112
1492.63474,0.19704
1494.56321,0.20030
1496.49168,0.20447
1498.42015,0.20150
1500.34862,0.19604
1502.27709,0.19647
1504.20555,0.20803
1506.13402,0.22872
1508.06249,0.22231
1509.99096,0.20048
1511.91943,0.19196
1513.84790,0.19386
1515.77637,0.20412
1517.70483,0.21595
1519.63330,0.22307
1521.56177,0.22824
1523.49024,0.22306
1525.41871,0.21054
1527.34718,0.19979
1529.27565,0.19490
1531.20412,0.19711
1533.13258,0.20335
1535.06105,0.20650
1536.98952,0.21183
1538.91799,0.22772
1540.84646,0.23866
1542.77493,0.22519
1544.70340,0.20869
1546.63186,0.19834
1548.56033,0.19532
1550.48880,0.19536
1552.41727,0.19603
1554.34574,0.19853
1556.27421,0.20484
1558.20268,0.21938
1560.13115,0.21888
1562.05961,0.20280
1563.98808,0.19383
1565.91655,0.19244
1567.84502,0.19639
1569.77349,0.19866
1571.70196,0.19497
1573.63043,0.19548
1575.55889,0.20137
1577.48736,0.19876
1579.41583,0.18885
1581.34430,0.18338
1583.27277,0.18159
1585.20124,0.17796
1587.12971,0.17598
1589.05818,0.18030
1590.98664,0.18475
1592.91511,0.18524
1594.84358,0.18549
1596.77205,0.18583
1598.70052,0.18487
1600.62899,0.18432
1602.55746,0.18580
1604.48592,0.18673
1606.41439,0.18311
1608.34286,0.17959
1610.27133,0.18147
1612.19980,0.18624
1614.12827,0.19206
1616.05674,0.19700
1617.98521,0.19568
1619.91367,0.19352
1621.84214,0.19615
1623.77061,0.19790
1625.69908,0.19449
1627.62755,0.19100
1629.55602,0.19042
1631.48449,0.19480
1633.41295,0.20384
1635.34142,0.21347
1637.26989,0.21279
1639.19836,0.20593
1641.12683,0.20095
1643.05530,0.20217
1644.98377,0.21257
1646.91223,0.22233
1648.84070,0.21635
1650.76917,0.21056
1652.69764,0.21535
1654.62611,0.21539
1656.55458,0.20544
1658.48305,0.19746
1660.41152,0.18504
1662.33998,0.16983
1664.26845,0.17583
1666.19692,0.19374
1668.12539,0.20349
1670.05386,0.20421
1671.98233,0.19966
1673.91080,0.19490
1675.83926,0.19396
1677.76773,0.19743
1679.69620,0.20396
1681.62467,0.21322
1683.55314,0.22130
1685.48161,0.21444
1687.41008,0.20495
1689.33855,0.20235
1691.26701,0.20219
1693.19548,0.20363
1695.12395,0.20782
1697.05242,0.21283
1698.98089,0.21901
1700.90936,0.21838
1702.83783,0.21007
1704.76629,0.20611
1706.69476,0.20257
1708.62323,0.19697
1710.55170,0.19648
1712.48017,0.20313
1714.40864,0.21268
1716.33711,0.21848
1718.26558,0.21017
1720.19404,0.19664
1722.12251,0.19074
1724.05098,0.18962
1725.97945,0.18886
1727.90792,0.18992
1729.83639,0.19488
1731.76486,0.20234
1733.69332,0.20537
1735.62179,0.19774
1737.55026,0.19239
1739.47873,0.19471
1741.40720,0.20006
1743.33567,0.20205
1745.26414,0.20094
1747.19261,0.20003
1749.12107,0.20119
1751.04954,0.19887
1752.97801,0.19011
1754.90648,0.18502
1756.83495,0.18800
1758.76342,0.19413
1760.69189,0.19952
1762.62035,0.19909
1764.54882,0.19427
1766.47729,0.19339
1768.40576,0.19617
1770.33423,0.20135
1772.26270,0.20627
1774.19117,0.20339
1776.11964,0.19700
1778.04810,0.19465
1779.97657,0.19545
1781.90504,0.19342
1783.83351,0.19054
1785.76198,0.18914
1787.69045,0.18914
1789.61892,0.19314
1791.54738,0.19784
1793.47585,0.19628
1795.40432,0.19430
1797.33279,0.19757
1799.26126,0.20356
1801.18973,0.20514
1803.11820,0.19904
1805.04666,0.19329
1806.97513,0.19275
1808.90360,0.19371
1810.83207,0.19188
1812.76054,0.18755
1814.68901,0.18487
1816.61748,0.18561
1818.54595,0.19066
1820.47441,0.19693
1822.40288,0.19673
1824.33135,0.19260
1826.25982,0.19221
1828.18829,0.19378
1830.11676,0.19354
1832.04523,0.19052
1833.97369,0.18815
1835.90216,0.18898
1837.83063,0.18919
1839.75910,0.18805
1841.68757,0.19070
1843.61604,0.19518
1845.54451,0.19538
1847.47298,0.19415
1849.40144,0.19259
1851.32991,0.18796
1853.25838,0.18259
1855.18685,0.18076
1857.11532,0.18255
1859.04379,0.18584
1860.97226,0.18793
1862.90072,0.18711
1864.82919,0.18618
1866.75766,0.18888
1868.68613,0.19252
1870.61460,0.19000
1872.54307,0.18468
1874.47154,0.18325
1876.40001,0.18619
1878.32847,0.18910
1880.25694,0.18908
1882.18541,0.18755
1884.11388,0.18670
1886.04235,0.18806
1887.97082,0.19203
1889.89929,0.19362
1891.82775,0.19028
1893.75622,0.18947
1895.68469,0.19195
1897.61316,0.19195
1899.54163,0.19044
1901.47010,0.19056
1903.39857,0.19115
1905.32704,0.18869
1907.25550,0.18424
1909.18397,0.18366
1911.11244,0.18754
1913.04091,0.18953
1914.96938,0.18774
1916.89785,0.18691
1918.82632,0.18841
1920.75478,0.18978
1922.68325,0.18998
1924.61172,0.18781
1926.54019,0.18551
1928.46866,0.18670
1930.39713,0.18974
1932.32560,0.19033
1934.25407,0.18982
1936.18253,0.19057
1938.11100,0.18932
1940.03947,0.18641
1941.96794,0.18611
1943.89641,0.18758
1945.82488,0.18872
1947.75335,0.19019
1949.68181,0.19091
1951.61028,0.18904
1953.53875,0.18626
1955.46722,0.18580
1957.39569,0.18667
1959.32416,0.18589
1961.25263,0.18459
1963.18110,0.18568
1965.10956,0.18894
1967.03803,0.19093
1968.96650,0.18963
1970.89497,0.18811
1972.82344,0.18945
1974.75191,0.19154
1976.68038,0.19077
1978.60884,0.18810
1980.53731,0.18667
1982.46578,0.18733
1984.39425,0.18897
1986.32272,0.18971
1988.25119,0.18842
1990.17966,0.18616
1992.10812,0.18442
1994.03659,0.18408
1995.96506,0.18640
1997.89353,0.18995
1999.82200,0.19050
2001.75047,0.18898
2003.67894,0.18863
2005.60741,0.18843
2007.53587,0.18789
2009.46434,0.18761
2011.39281,0.18696
2013.32128,0.18600
2015.24975,0.18549
2017.17822,0.18555
2019.10669,0.18593
2021.03515,0.18739
2022.96362,0.19029
2024.89209,0.19219
2026.82056,0.19156
2028.74903,0.19031
2030.67750,0.18932
2032.60597,0.18848
2034.53444,0.18944
2036.46290,0.19110
2038.39137,0.18975
2040.31984,0.18611
2042.24831,0.18417
2044.17678,0.18522
2046.10525,0.18684
2048.03372,0.18682
2049.96218,0.18708
2051.89065,0.18994
2053.81912,0.19319
2055.74759,0.19295
2057.67606,0.18957
2059.60453,0.18799
2061.53300,0.18962
2063.46147,0.19150
2065.38993,0.19292
2067.31840,0.19377
2069.24687,0.19261
2071.17534,0.19078
2073.10381,0.19124
2075.03228,0.19247
2076.96075,0.19115
2078.88921,0.18807
2080.81768,0.18495
2082.74615,0.18321
2084.67462,0.18547
2086.60309,0.19042
2088.53156,0.19241
2090.46003,0.19041
2092.38850,0.18932
2094.31696,0.19036
2096.24543,0.18973
2098.17390,0.18696
2100.10237,0.18639
2102.03084,0.19125
2103.95931,0.19716
2105.88778,0.19599
2107.81624,0.18932
2109.74471,0.18499
2111.67318,0.18462
2113.60165,0.18703
2115.53012,0.19250
2117.45859,0.19832
2119.38706,0.19916
2121.31553,0.19401
2123.24399,0.18845
2125.17246,0.18775
2127.10093,0.19142
2129.02940,0.19401
2130.95787,0.19175
2132.88634,0.18780
2134.81481,0.18501
2136.74327,0.18302
2138.67174,0.18436
2140.60021,0.19020
2142.52868,0.19457
2144.45715,0.19377
2146.38562,0.19149
2148.31409,0.19011
2150.24255,0.18898
2152.17102,0.18835
2154.09949,0.18932
2156.02796,0.19195
2157.95643,0.19391
2159.88490,0.19353
2161.81337,0.19268
2163.74184,0.19302
2165.67030,0.19298
2167.59877,0.19161
2169.52724,0.19000
2171.45571,0.18911
2173.38418,0.19031
2175.31265,0.19332
2177.24112,0.19478
2179.16958,0.19402
2181.09805,0.19221
2183.02652,0.18868
2184.95499,0.18644
2186.88346,0.18901
2188.81193,0.19274
2190.74040,0.19292
2192.66887,0.19082
2194.59733,0.19063
2196.52580,0.19271
2198.45427,0.19383
2200.38274,0.19314
2202.31121,0.19179
2204.23968,0.18986
2206.16815,0.18864
2208.09661,0.18950
2210.02508,0.19089
2211.95355,0.19124
2213.88202,0.19089
2215.81049,0.18990
2217.73896,0.18819
2219.66743,0.18804
2221.59590,0.18986
2223.52436,0.18977
2225.45283,0.18823
2227.38130,0.18969
2229.30977,0.19263
2231.23824,0.19239
2233.16671,0.18961
2235.09518,0.18817
2237.02364,0.18947
2238.95211,0.19113
2240.88058,0.19146
2242.80905,0.19107
2244.73752,0.18950
2246.66599,0.18745
2248.59446,0.18761
2250.52293,0.19174
2252.45139,0.19649
2254.37986,0.19644
2256.30833,0.19384
2258.23680,0.19228
2260.16527,0.19065
2262.09374,0.18997
2264.02221,0.19221
2265.95067,0.19439
2267.87914,0.19199
2269.80761,0.18707
2271.73608,0.18425
2273.66455,0.18353
2275.59302,0.18418
2277.52149,0.18583
2279.44996,0.18617
2281.37842,0.18520
2283.30689,0.18526
2285.23536,0.18564
2287.16383,0.18558
2289.09230,0.18566
2291.02077,0.18494
2292.94924,0.18320
2294.87770,0.18158
2296.80617,0.18237
2298.73464,0.18564
2300.66311,0.18879
2302.59158,0.19199
2304.52005,0.19403
2306.44852,0.19303
2308.37699,0.19099
2310.30545,0.18816
2312.23392,0.18320
2314.16239,0.17863
2316.09086,0.18048
2318.01933,0.18847
2319.94780,0.19268
2321.87627,0.19031
2323.80473,0.18674
2325.73320,0.17954
2327.66167,0.17088
2329.59014,0.17123
2331.51861,0.17151
2333.44708,0.15974
2335.37555,0.15709
2337.30401,0.17688
2339.23248,0.19210
2341.16095,0.18104
2343.08942,0.16392
2345.01789,0.16362
2346.94636,0.17446
2348.87483,0.18305
2350.80330,0.18366
2352.73176,0.17789
2354.66023,0.17172
2356.58870,0.16598
2358.51717,0.17252
2360.44564,0.19564
2362.37411,0.20777
2364.30258,0.20020
2366.23104,0.18661
2368.15951,0.17673
2370.08798,0.17619
2372.01645,0.18237
2373.94492,0.18771
2375.87339,0.19060
2377.80186,0.19181
2379.73033,0.19053
2381.65879,0.18871
2383.58726,0.18953
2385.51573,0.19269
2387.44420,0.19478
2389.37267,0.19448
2391.30114,0.19285
2393.22961,0.19091
2395.15807,0.19050
2397.08654,0.19177
2399.01501,0.19247
2400.94348,0.19086
2402.87195,0.18860
2404.80042,0.18848
2406.72889,0.18800
2408.65736,0.18563
2410.58582,0.18497
2412.51429,0.18759
2414.44276,0.19091
2416.37123,0.19178
2418.29970,0.19036
2420.22817,0.18996
2422.15664,0.19106
2424.08510,0.19108
2426.01357,0.18952
2427.94204,0.18725
2429.87051,0.18482
2431.79898,0.18401
2433.72745,0.18697
2435.65592,0.19145
2437.58439,0.19199
2439.51285,0.18815
2441.44132,0.18468
2443.36979,0.18446
2445.29826,0.18669
2447.22673,0.18885
2449.15520,0.18884
2451.08367,0.18866
2453.01213,0.18991
2454.94060,0.19176
2456.86907,0.19365
2458.79754,0.19330
2460.72601,0.19155
2462.65448,0.19009
2464.58295,0.18858
2466.51142,0.18883
2468.43988,0.19037
2470.36835,0.19225
2472.29682,0.19429
2474.22529,0.19401
2476.15376,0.19167
2478.08223,0.19075
2480.01070,0.19160
2481.93916,0.19138
2483.86763,0.18962
2485.79610,0.18885
2487.72457,0.19047
2489.65304,0.19236
2491.58151,0.19152
2493.50998,0.18877
2495.43844,0.18855
2497.36691,0.19242
2499.29538,0.19707
2501.22385,0.19922
2503.15232,0.19819
2505.08079,0.19555
2507.00926,0.19331
2508.93773,0.19305
2510.86619,0.19529
2512.79466,0.19687
2514.72313,0.19524
2516.65160,0.19345
2518.58007,0.19408
2520.50854,0.19560
2522.43701,0.19593
2524.36547,0.19427
2526.29394,0.19289
2528.22241,0.19454
2530.15088,0.19765
2532.07935,0.19736
2534.00782,0.19282
2535.93629,0.18928
2537.86476,0.18993
2539.79322,0.19250
2541.72169,0.19348
2543.65016,0.19346
2545.57863,0.19475
2547.50710,0.19619
2549.43557,0.19624
2551.36404,0.19571
2553.29250,0.19607
2555.22097,0.19654
2557.14944,0.19554
2559.07791,0.19434
2561.00638,0.19513
2562.93485,0.19673
2564.86332,0.19550
2566.79179,0.19250
2568.72025,0.19205
2570.64872,0.19352
2572.57719,0.19349
2574.50566,0.19191
2576.43413,0.19177
2578.36260,0.19350
2580.29107,0.19424
2582.21953,0.19290
2584.14800,0.19032
2586.07647,0.18924
2588.00494,0.19220
2589.93341,0.19580
2591.86188,0.19686
2593.79035,0.19706
2595.71882,0.19742
2597.64728,0.19735
2599.57575,0.19552
2601.50422,0.19300
2603.43269,0.19360
2605.36116,0.19601
2607.28963,0.19667
2609.21810,0.19763
2611.14656,0.20171
2613.07503,0.20418
2615.00350,0.20084
2616.93197,0.19813
2618.86044,0.19719
2620.78891,0.19278
2622.71738,0.19012
2624.64585,0.19461
2626.57431,0.20059
2628.50278,0.20042
2630.43125,0.19682
2632.35972,0.19720
2634.28819,0.20051
2636.21666,0.20363
2638.14513,0.20673
2640.07359,0.20783
2642.00206,0.20333
2643.93053,0.19657
2645.85900,0.19491
2647.78747,0.19679
2649.71594,0.19705
2651.64441,0.19716
2653.57288,0.19868
2655.50134,0.20055
2657.42981,0.20250
2659.35828,0.20268
2661.28675,0.20006
2663.21522,0.19750
2665.14369,0.19785
2667.07216,0.19970
2669.00062,0.19905
2670.92909,0.19576
2672.85756,0.19388
2674.78603,0.19430
2676.71450,0.19463
2678.64297,0.19552
2680.57144,0.19743
2682.49990,0.19870
2684.42837,0.19880
2686.35684,0.19804
2688.28531,0.19861
2690.21378,0.19973
2692.14225,0.19905
2694.07072,0.19924
2695.99919,0.20099
2697.92765,0.20091
2699.85612,0.19888
2701.78459,0.19680
2703.71306,0.19618
2705.64153,0.19771
2707.57000,0.19885
2709.49847,0.19896
2711.42693,0.20002
2713.35540,0.20127
2715.28387,0.20128
2717.21234,0.19971
2719.14081,0.19883
2721.06928,0.20014
2722.99775,0.20125
2724.92622,0.20185
2726.85468,0.20236
2728.78315,0.20075
2730.71162,0.19927
2732.64009,0.20151
2734.56856,0.20452
2736.49703,0.20519
2738.42550,0.20435
2740.35396,0.20220
2742.28243,0.19898
2744.21090,0.19709
2746.13937,0.19807
2748.06784,0.20054
2749.99631,0.20096
2751.92478,0.19756
2753.85325,0.19403
2755.78171,0.19449
2757.71018,0.19901
2759.63865,0.20387
2761.56712,0.20536
2763.49559,0.20315
2765.42406,0.19875
2767.35253,0.19760
2769.28099,0.20340
2771.20946,0.20990
2773.13793,0.21013
2775.06640,0.20585
2776.99487,0.20321
2778.92334,0.20408
2780.85181,0.20511
2782.78028,0.20371
2784.70874,0.20219
2786.63721,0.20295
2788.56568,0.20405
2790.49415,0.20553
2792.42262,0.20854
2794.35109,0.21053
2796.27956,0.21078
2798.20802,0.20977
2800.13649,0.20715
2802.06496,0.20557
2803.99343,0.20771
2805.92190,0.21141
2807.85037,0.21170
2809.77884,0.20861
2811.70731,0.20848
2813.63577,0.21149
2815.56424,0.21236
2817.49271,0.21130
2819.42118,0.21003
2821.34965,0.21023
2823.27812,0.21260
2825.20659,0.21189
2827.13505,0.20678
2829.06352,0.20427
2830.99199,0.20743
2832.92046,0.21225
2834.84893,0.21551
2836.77740,0.21639
2838.70587,0.21422
2840.63433,0.20962
2842.56280,0.20562
2844.49127,0.20547
2846.41974,0.20712
2848.34821,0.20616
2850.27668,0.20457
2852.20515,0.20583
2854.13362,0.20831
2856.06208,0.21010
2857.99055,0.20980
2859.91902,0.20747
2861.84749,0.20665
2863.77596,0.20651
2865.70443,0.20413
2867.63290,0.19964
2869.56136,0.19430
2871.48983,0.19291
2873.41830,0.19520
2875.34677,0.19645
2877.27524,0.20022
2879.20371,0.20529
2881.13218,0.20463
2883.06065,0.20262
2884.98911,0.20485
2886.91758,0.20912
2888.84605,0.21105
2890.77452,0.20890
2892.70299,0.20502
2894.63146,0.20157
2896.55993,0.20162
2898.48839,0.20516
2900.41686,0.20698
2902.34533,0.20510
2904.27380,0.20143
2906.20227,0.19925
2908.13074,0.20018
2910.05921,0.20290
2911.98768,0.20490
2913.91614,0.20332
2915.84461,0.19929
2917.77308,0.19876
2919.70155,0.20351
2921.63002,0.20941
2923.55849,0.21145
2925.48696,0.21029
2927.41542,0.21662
2929.34389,0.22883
2931.27236,0.22830
2933.20083,0.21322
2935.12930,0.20058
2937.05777,0.19743
2938.98624,0.20004
2940.91471,0.20466
2942.84317,0.20617
2944.77164,0.20132
2946.70011,0.19437
2948.62858,0.19579
2950.55705,0.20489
2952.48552,0.20825
2954.41399,0.20203
2956.34245,0.19038
2958.27092,0.18326
2960.19939,0.18902
2962.12786,0.19956
2964.05633,0.20572
2965.98480,0.20709
2967.91327,0.20707
2969.84174,0.21033
2971.77020,0.21362
2973.69867,0.21249
2975.62714,0.20678
2977.55561,0.19680
2979.48408,0.19234
2981.41255,0.19946
2983.34102,0.20742
2985.26948,0.20645
2987.19795,0.20065
2989.12642,0.20237
2991.05489,0.21250
2992.98336,0.22027
2994.91183,0.22140
2996.84030,0.21760
2998.76877,0.21197
3000.69723,0.20937
3002.62570,0.21056
3004.55417,0.21093
3006.48264,0.20810
3008.41111,0.20374
3010.33958,0.19779
3012.26805,0.18321
3014.19651,0.15368
3016.12498,0.12602
3018.05345,0.13476
3019.98192,0.17676
3021.91039,0.20896
3023.83886,0.21772
3025.76733,0.21698
3027.69579,0.21390
3029.62426,0.21585
3031.55273,0.22166
3033.48120,0.21916
3035.40967,0.20880
3037.33814,0.20302
3039.26661,0.20673
3041.19508,0.21305
3043.12354,0.21738
3045.05201,0.21955
3046.98048,0.21662
3048.90895,0.21219
3050.83742,0.21212
3052.76589,0.21295
3054.69436,0.20939
3056.62282,0.20339
3058.55129,0.20432
3060.47976,0.21219
3062.40823,0.21665
3064.33670,0.21166
3066.26517,0.19996
3068.19364,0.19640
3070.12211,0.20552
3072.05057,0.21133
3073.97904,0.20489
3075.90751,0.19599
3077.83598,0.19681
3079.76445,0.20313
3081.69292,0.20505
3083.62139,0.20393
3085.54985,0.20858
3087.47832,0.21936
3089.40679,0.22142
3091.33526,0.20948
3093.26373,0.19484
3095.19220,0.19028
3097.12067,0.20004
3099.04914,0.21128
3100.97760,0.21118
3102.90607,0.20432
3104.83454,0.20242
3106.76301,0.20632
3108.69148,0.20901
3110.61995,0.20727
3112.54842,0.20416
3114.47688,0.20868
3116.40535,0.21969
3118.33382,0.22384
3120.26229,0.21710
3122.19076,0.21001
3124.11923,0.21133
3126.04770,0.21540
3127.97617,0.21690
3129.90463,0.21621
3131.83310,0.21542
3133.76157,0.21759
3135.69004,0.21599
3137.61851,0.20676
3139.54698,0.20117
3141.47545,0.20556
3143.40391,0.21287
3145.33238,0.21549
3147.26085,0.21348
3149.18932,0.21305
3151.11779,0.21634
3153.04626,0.21769
3154.97473,0.21547
3156.90320,0.21511
3158.83166,0.21971
3160.76013,0.22500
3162.68860,0.22598
3164.61707,0.22504
3166.54554,0.22518
3168.47401,0.22431
3170.40248,0.22279
3172.33094,0.22408
3174.25941,0.22572
3176.18788,0.22240
3178.11635,0.21744
3180.04482,0.21814
3181.97329,0.22268
3183.90176,0.22354
3185.83022,0.21965
3187.75869,0.21607
3189.68716,0.21525
3191.61563,0.21573
3193.54410,0.21923
3195.47257,0.22500
3197.40104,0.22368
3199.32951,0.21653
3201.25797,0.21369
3203.18644,0.21537
3205.11491,0.21820
3207.04338,0.21951
3208.97185,0.21962
3210.90032,0.22111
3212.82879,0.22071
3214.75725,0.21705
3216.68572,0.21441
3218.61419,0.21325
3220.54266,0.21243
3222.47113,0.21329
3224.39960,0.21521
3226.32807,0.21615
3228.25654,0.21541
3230.18500,0.21397
3232.11347,0.21382
3234.04194,0.21502
3235.97041,0.21517
3237.89888,0.21546
3239.82735,0.21818
3241.75582,0.21842
3243.68428,0.21548
3245.61275,0.21451
3247.54122,0.21485
3249.46969,0.21685
3251.39816,0.22184
3253.32663,0.22470
3255.25510,0.22056
3257.18357,0.21341
3259.11203,0.21058
3261.04050,0.21128
3262.96897,0.20841
3264.89744,0.20250
3266.82591,0.20159
3268.75438,0.20508
3270.68285,0.20644
3272.61131,0.20631
3274.53978,0.20868
3276.46825,0.21243
3278.39672,0.21471
3280.32519,0.21441
3282.25366,0.21128
3284.18213,0.20882
3286.11060,0.20897
3288.03906,0.20970
3289.96753,0.20937
3291.89600,0.20921
3293.82447,0.21182
3295.75294,0.21497
3297.68141,0.21601
3299.60988,0.21582
3301.53834,0.21727
3303.46681,0.21947
3305.39528,0.21711
3307.32375,0.21169
3309.25222,0.20829
3311.18069,0.20658
3313.10916,0.20652
3315.03763,0.20862
3316.96609,0.20887
3318.89456,0.20952
3320.82303,0.21428
3322.75150,0.21578
3324.67997,0.21185
3326.60844,0.20867
3328.53691,0.20777
3330.46537,0.20786
3332.39384,0.21131
3334.32231,0.21671
3336.25078,0.21627
3338.17925,0.21292
3340.10772,0.21387
3342.03619,0.21615
3343.96466,0.21832
3345.89312,0.22216
3347.82159,0.22289
3349.75006,0.21905
3351.67853,0.21705
3353.60700,0.21751
3355.53547,0.21781
3357.46394,0.21606
3359.39240,0.21314
3361.32087,0.21352
3363.24934,0.21458
3365.17781,0.21478
3367.10628,0.21649
3369.03475,0.21774
3370.96322,0.22038
3372.89168,0.22526
3374.82015,0.22520
3376.74862,0.21848
3378.67709,0.21400
3380.60556,0.21461
3382.53403,0.21433
3384.46250,0.21438
3386.39097,0.21808
3388.31943,0.21930
3390.24790,0.21429
3392.17637,0.20904
3394.10484,0.20875
3396.03331,0.21312
3397.96178,0.21947
3399.89025,0.22201
3401.81871,0.21713
3403.74718,0.20928
3405.67565,0.20599
3407.60412,0.20831
3409.53259,0.20994
3411.46106,0.20886
3413.38953,0.20746
3415.31800,0.20522
3417.24646,0.20376
3419.17493,0.20373
3421.10340,0.20293
3423.03187,0.20252
3424.96034,0.20126
3426.88881,0.19895
3428.81728,0.20113
3430.74574,0.20627
3432.67421,0.21038
3434.60268,0.21255
3436.53115,0.20896
3438.45962,0.20444
3440.38809,0.20644
3442.31656,0.21228
3444.24503,0.21774
3446.17349,0.21726
3448.10196,0.20763
3450.03043,0.19890
3451.95890,0.20012
3453.88737,0.20445
3455.81584,0.20482
3457.74431,0.20402
3459.67277,0.20236
3461.60124,0.19907
3463.52971,0.19658
3465.45818,0.19650
3467.38665,0.20048
3469.31512,0.20620
3471.24359,0.20514
3473.17206,0.19681
3475.10052,0.18993
3477.02899,0.18692
3478.95746,0.18457
3480.88593,0.18414
3482.81440,0.18751
3484.74287,0.18779
3486.67134,0.18353
3488.59980,0.18292
3490.52827,0.18674
3492.45674,0.19069
3494.38521,0.19441
3496.31368,0.19728
3498.24215,0.19411
3500.17062,0.18656
3502.09909,0.18320
3504.02755,0.18484
3505.95602,0.18761
3507.88449,0.18844
3509.81296,0.18759
3511.74143,0.18955
3513.66990,0.19142
3515.59837,0.18658
3517.52683,0.17811
3519.45530,0.17429
3521.38377,0.17882
3523.31224,0.18723
3525.24071,0.19138
3527.16918,0.18847
3529.09765,0.17777
3531.02611,0.16756
3532.95458,0.16657
3534.88305,0.17038
3536.81152,0.17545
3538.73999,0.17709
3540.66846,0.17149
3542.59693,0.16796
3544.52540,0.17312
3546.45386,0.17774
3548.38233,0.17490
3550.31080,0.17147
3552.23927,0.16937
3554.16774,0.16503
3556.09621,0.16172
3558.02468,0.16468
3559.95314,0.17163
3561.88161,0.17496
3563.81008,0.17504
3565.73855,0.17746
3567.66702,0.17621
3569.59549,0.16632
3571.52396,0.15912
3573.45243,0.16124
3575.38089,0.16822
3577.30936,0.16925
3579.23783,0.16209
3581.16630,0.15470
3583.09477,0.15382
3585.02324,0.15960
3586.95171,0.16646
3588.88017,0.16473
3590.80864,0.15737
3592.73711,0.15559
3594.66558,0.16094
3596.59405,0.16585
3598.52252,0.16674
3600.45099,0.16285
3602.37946,0.15724
3604.30792,0.15618
3606.23639,0.15981
3608.16486,0.16201
3610.09333,0.15926
3612.02180,0.15752
3613.95027,0.15694
3615.87874,0.15551
3617.80720,0.15714
3619.73567,0.16084
3621.66414,0.15867
3623.59261,0.15182
3625.52108,0.14706
3627.44955,0.14941
3629.37802,0.15780
3631.30649,0.15808
3633.23495,0.14976
3635.16342,0.14023
3637.09189,0.13451
3639.02036,0.13477
3640.94883,0.14001
3642.87730,0.14458
3644.80577,0.14656
3646.73423,0.15046
3648.66270,0.15704
3650.59117,0.15363
3652.51964,0.14547
3654.44811,0.14409
3656.37658,0.14376
3658.30505,0.13980
3660.23352,0.14009
3662.16198,0.14315
3664.09045,0.14240
3666.01892,0.14106
3667.94739,0.14366
3669.87586,0.14447
3671.80433,0.14026
3673.73280,0.14024
3675.66126,0.14312
3677.58973,0.14184
3679.51820,0.13745
3681.44667,0.13237
3683.37514,0.12936
3685.30361,0.13038
3687.23208,0.13599
3689.16055,0.14366
3691.08901,0.14318
3693.01748,0.13543
3694.94595,0.13029
3696.87442,0.13120
3698.80289,0.13466
3700.73136,0.13530
3702.65983,0.13246
3704.58829,0.13026
3706.51676,0.13165
3708.44523,0.13808
3710.37370,0.14622
3712.30217,0.14559
3714.23064,0.13707
3716.15911,0.12913
3718.08757,0.12733
3720.01604,0.13414
3721.94451,0.14214
3723.87298,0.14379
3725.80145,0.13960
3727.72992,0.13453
3729.65839,0.13447
3731.58686,0.14339
3733.51532,0.15717
3735.44379,0.15830
3737.37226,0.14886
3739.30073,0.14328
3741.22920,0.14188
3743.15767,0.14439
3745.08614,0.14754
3747.01460,0.14803
3748.94307,0.14993
3750.87154,0.15359
3752.80001,0.14881
3754.72848,0.13499
3756.65695,0.12500
3758.58542,0.12800
3760.51389,0.13624
3762.44235,0.13847
3764.37082,0.13856
3766.29929,0.14112
3768.22776,0.14690
3770.15623,0.14822
3772.08470,0.13912
3774.01317,0.13023
3775.94163,0.12833
3777.87010,0.13133
3779.79857,0.13162
3781.72704,0.12655
3783.65551,0.12299
3785.58398,0.12339
3787.51245,0.12505
3789.44092,0.12484
3791.36938,0.12435
3793.29785,0.12790
3795.22632,0.13557
3797.15479,0.14183
3799.08326,0.14299
3801.01173,0.14409
3802.94020,0.14320
3804.86866,0.13709
3806.79713,0.12927
3808.72560,0.11971
3810.65407,0.11310
3812.58254,0.11412
3814.51101,0.12253
3816.43948,0.13355
3818.36795,0.13992
3820.29641,0.14325
3822.22488,0.14156
3824.15335,0.13589
3826.08182,0.13081
3828.01029,0.12689
3829.93876,0.12611
3831.86723,0.12441
3833.79569,0.11982
3835.72416,0.12192
3837.65263,0.13519
3839.58110,0.14775
3841.50957,0.14668
3843.43804,0.13591
3845.36651,0.12818
3847.29498,0.12992
3849.22344,0.13523
3851.15191,0.13794
3853.08038,0.13700
3855.00885,0.13405
3856.93732,0.13206
3858.86579,0.13088
3860.79426,0.12960
3862.72272,0.12577
3864.65119,0.11949
3866.57966,0.11734
3868.50813,0.11933
3870.43660,0.12416
3872.36507,0.12781
3874.29354,0.12579
3876.22200,0.12397
3878.15047,0.12381
3880.07894,0.11892
3882.00741,0.11346
3883.93588,0.11442
3885.86435,0.11810
3887.79282,0.12287
3889.72129,0.12640
3891.64975,0.12304
3893.57822,0.11636
3895.50669,0.11692
3897.43516,0.12276
3899.36363,0.12466
3901.29210,0.12261
3903.22057,0.12520
3905.14903,0.12325
3907.07750,0.11422
3909.00597,0.10849
3910.93444,0.10676
3912.86291,0.10934
3914.79138,0.11830
3916.71985,0.12692
3918.64832,0.12642
3920.57678,0.11929
3922.50525,0.11273
3924.43372,0.10985
3926.36219,0.10937
3928.29066,0.11127
3930.21913,0.11629
3932.14760,0.12179
3934.07606,0.12482
3936.00453,0.12618
3937.93300,0.12562
3939.86147,0.12084
3941.78994,0.11448
3943.71841,0.11237
3945.64688,0.11379
3947.57535,0.11333
3949.50381,0.11103
3951.43228,0.11188
3953.36075,0.11380
3955.28922,0.11476
3957.21769,0.11690
3959.14616,0.11644
3961.07463,0.11471
3963.00309,0.11758
3964.93156,0.11989
3966.86003,0.11721
3968.78850,0.11436
3970.71697,0.11525
3972.64544,0.11750
3974.57391,0.11779
3976.50238,0.11674
3978.43084,0.11552
3980.35931,0.11412
3982.28778,0.11194
3984.21625,0.10774
3986.14472,0.10454
3988.07319,0.10505
3990.00166,0.10565
3991.93012,0.10376
3993.85859,0.10100
3995.78706,0.10235
3997.71553,0.10987
3999.64400,0.11556
4001.57247,0.11149
4003.50094,0.10032
4005.42941,0.09091
4007.35787,0.08873
4009.28634,0.09440
4011.21481,0.10301
4013.14328,0.10717
4015.07175,0.10650
4017.00022,0.10587
4018.92869,0.10671
4020.85715,0.10805
4022.78562,0.11165
4024.71409,0.11304
4026.64256,0.10487
4028.57103,0.09569
4030.49950,0.09709
4032.42797,0.10472
4034.35644,0.10779
4036.28490,0.10578
4038.21337,0.10429
4040.14184,0.10292
4042.07031,0.09979
4043.99878,0.09798
4045.92725,0.09936
4047.85572,0.09826
4049.78418,0.09310
4051.71265,0.09068
4053.64112,0.09241
4055.56959,0.09537
4057.49806,0.09968
4059.42653,0.10354
4061.35500,0.10142
4063.28346,0.09595
4065.21193,0.09478
4067.14040,0.09496
4069.06887,0.09205
4070.99734,0.09251
4072.92581,0.09714
4074.85428,0.09412
4076.78275,0.08385
4078.71121,0.07849
4080.63968,0.08079
4082.56815,0.08675
4084.49662,0.09260
4086.42509,0.09590
4088.35356,0.09699
4090.28203,0.09923
4092.21049,0.10129
4094.13896,0.10031
4096.06743,0.10144
4097.99590,0.10301
4099.92437,0.09962
4101.85284,0.09671
4103.78131,0.09524
4105.70978,0.09048
4107.63824,0.08831
4109.56671,0.09347
4111.49518,0.09757
4113.42365,0.09590
4115.35212,0.09310
4117.28059,0.09333
4119.20906,0.09482
4121.13752,0.09204
4123.06599,0.08878
4124.99446,0.09239
4126.92293,0.09758
4128.85140,0.09756
4130.77987,0.09784
4132.70834,0.10196
4134.63681,0.10245
4136.56527,0.09829
4138.49374,0.09762
4140.42221,0.09878
4142.35068,0.09239
4144.27915,0.08299
4146.20762,0.08177
4148.13609,0.08715
4150.06455,0.09325
4151.99302,0.09519
4153.92149,0.09050
4155.84996,0.08742
4157.77843,0.08935
4159.70690,0.08667
4161.63537,0.08108
4163.56384,0.08213
4165.49230,0.08688
4167.42077,0.09136
4169.34924,0.09393
4171.27771,0.09082
4173.20618,0.08606
4175.13465,0.08779
4177.06312,0.09259
4178.99158,0.09092
4180.92005,0.08827
4182.84852,0.09316
4184.77699,0.09425
4186.70546,0.08338
4188.63393,0.07507
4190.56240,0.07896
4192.49087,0.08420
4194.41933,0.08000
4196.34780,0.07061
4198.27627,0.06802
4200.20474,0.07716
4202.13321,0.08898
4204.06168,0.08693
4205.99015,0.07378
4207.91861,0.06781
4209.84708,0.06802
4211.77555,0.06631
4213.70402,0.06641
4215.63249,0.07126
4217.56096,0.07580
4219.48943,0.07552
4221.41789,0.07312
4223.34636,0.07400
4225.27483,0.07868
4227.20330,0.08133
4229.13177,0.07922
4231.06024,0.07568
4232.98871,0.07430
4234.91718,0.07304
4236.84564,0.07062
4238.77411,0.07225
4240.70258,0.07497
4242.63105,0.07190
4244.55952,0.06638
4246.48799,0.06530
4248.41646,0.07038
4250.34492,0.07648
4252.27339,0.07834
4254.20186,0.07468
4256.13033,0.06707
4258.05880,0.06037
4259.98727,0.05703
4261.91574,0.05243
4263.84421,0.04645
4265.77267,0.04898
4267.70114,0.06040
4269.62961,0.06627
4271.55808,0.06275
4273.48655,0.05848
4275.41502,0.05808
4277.34349,0.06196
4279.27195,0.06354
4281.20042,0.05947
4283.12889,0.05965
4285.05736,0.06493
4286.98583,0.06627
4288.91430,0.06252
4290.84277,0.05605
4292.77124,0.04912
4294.69970,0.04407
4296.62817,0.04219
4298.55664,0.04695
4300.48511,0.05614
4302.41358,0.06275
4304.34205,0.06412
4306.27052,0.05916
4308.19898,0.05418
4310.12745,0.05557
4312.05592,0.05738
4313.98439,0.05558
4315.91286,0.05396
4317.84133,0.05585
4319.76980,0.05853
4321.69827,0.05716
4323.62673,0.05423
4325.55520,0.05548
4327.48367,0.05751
4329.41214,0.05350
4331.34061,0.04669
4333.26908,0.04187
4335.19755,0.04019
4337.12601,0.04343
4339.05448,0.04789
4340.98295,0.04791
4342.91142,0.04736
4344.83989,0.05140
4346.76836,0.05764
4348.69683,0.06131
4350.62530,0.05885
4352.55376,0.05483
4354.48223,0.05265
4356.41070,0.04470
4358.33917,0.03406
4360.26764,0.03367
4362.19611,0.04305
4364.12458,0.05189
4366.05304,0.05324
4367.98151,0.04916
4369.90998,0.04590
4371.83845,0.04454
4373.76692,0.04541
4375.69539,0.04810
4377.62386,0.04630
4379.55232,0.03935
4381.48079,0.03294
4383.40926,0.03042
4385.33773,0.03359
4387.26620,0.04024
4389.19467,0.04661
4391.12314,0.05016
4393.05161,0.04579
4394.98007,0.03512
4396.90854,0.03094
4398.83701,0.03796
4400.76548,0.04279
4402.69395,0.03581
4404.62242,0.02832
4406.55089,0.03037
4408.47935,0.03629
4410.40782,0.03891
4412.33629,0.03545
4414.26476,0.02863
4416.19323,0.02545
4418.12170,0.02693
4420.05017,0.03022
4421.97864,0.03395
4423.90710,0.03290
4425.83557,0.02596
4427.76404,0.02281
4429.69251,0.02774
4431.62098,0.03269
4433.54945,0.03218
4435.47792,0.02876
4437.40638,0.02802
4439.33485,0.02930
4441.26332,0.02453
4443.19179,0.01769
4445.12026,0.02008
4447.04873,0.02893
4448.97720,0.03173
4450.90567,0.02667
4452.83413,0.02720
4454.76260,0.03650
4456.69107,0.04021
4458.61954,0.03097
4460.54801,0.02070
4462.47648,0.01988
4464.40495,0.02219
4466.33341,0.02295
4468.26188,0.02198
4470.19035,0.01608
4472.11882,0.01046
4474.04729,0.01456
4475.97576,0.02168
4477.90423,0.02026
4479.83270,0.01519
4481.76116,0.01443
4483.68963,0.01568
4485.61810,0.01393
4487.54657,0.00646
4489.47504,-0.00129
4491.40351,0.00312
4493.33198,0.01433
4495.26044,0.01905
4497.18891,0.02456
4499.11738,0.03255
4501.04585,0.02925
4502.97432,0.01786
4504.90279,0.01309
4506.83126,0.01543
4508.75973,0.01935
4510.68819,0.02420
4512.61666,0.02419
4514.54513,0.01628
4516.47360,0.01032
4518.40207,0.00916
4520.33054,0.00617
4522.25901,0.00417
4524.18747,0.01003
4526.11594,0.01794
4528.04441,0.01745
4529.97288,0.01050
4531.90135,0.00749
4533.82982,0.01126
4535.75829,0.01222
4537.68676,0.00658
4539.61522,0.00450
4541.54369,0.01052
4543.47216,0.01904
4545.40063,0.02230
4547.32910,0.01632
4549.25757,0.00416
4551.18604,-0.00411
4553.11450,0.00081
4555.04297,0.01217
4556.97144,0.01541
4558.89991,0.01114
4560.82838,0.00770
4562.75685,0.00207
4564.68532,-0.00465
4566.61378,-0.00474
4568.54225,-0.00165
4570.47072,0.00080
4572.39919,0.00417
4574.32766,0.00896
4576.25613,0.01472
4578.18460,0.01758
4580.11307,0.01420
4582.04153,0.00892
4583.97000,0.00370
4585.89847,-0.00404
4587.82694,-0.01013
4589.75541,-0.00999
4591.68388,-0.00792
4593.61235,-0.00667
4595.54081,0.00046
4597.46928,0.00954
4599.39775,0.01116
4601.32622,0.00737
4603.25469,-0.00240
4605.18316,-0.00891
4607.11163,0.00111
4609.04010,0.01392
4610.96856,0.01544
4612.89703,0.00986
4614.82550,0.00203
4616.75397,-0.00029
4618.68244,0.00596
4620.61091,0.00958
4622.53938,0.01067
4624.46784,0.01534
4626.39631,0.01325
4628.32478,0.00608
4630.25325,0.00693
4632.18172,0.00584
4634.11019,-0.00144
4636.03866,-0.00131
4637.96713,0.00518
4639.89559,0.00801
4641.82406,0.00123
4643.75253,-0.00973
4645.68100,-0.01365
4647.60947,-0.00842
4649.53794,0.00095
4651.46641,0.00813
4653.39487,0.00835
4655.32334,0.00175
4657.25181,-0.00444
4659.18028,-0.00290
4661.10875,0.00228
4663.03722,0.00067
4664.96569,-0.00512
4666.89416,-0.00396
4668.82262,0.00304
4670.75109,0.00658
4672.67956,0.00674
4674.60803,0.00663
4676.53650,0.00430
4678.46497,0.00449
4680.39344,0.01012
4682.32190,0.01321
4684.25037,0.01119
4686.17884,0.00877
4688.10731,0.00735
4690.03578,0.00640
4691.96425,0.00628
4693.89272,0.00527
4695.82119,0.00333
4697.74965,0.00344
4699.67812,0.00653
4701.60659,0.01055
4703.53506,0.01444
4705.46353,0.01958
4707.39200,0.02517
4709.32047,0.02455
4711.24893,0.01721
4713.17740,0.01596
4715.10587,0.01722
4717.03434,0.00970
4718.96281,0.00717
4720.89128,0.01415
4722.81975,0.01352
4724.74821,0.00442
4726.67668,0.00034
4728.60515,0.00325
4730.53362,0.00276
4732.46209,0.00025
4734.39056,0.00423
4736.31903,0.00605
4738.24750,0.00141
4740.17596,0.00360
4742.10443,0.01090
4744.03290,0.00798
4745.96137,-0.00270
4747.88984,-0.00861
4749.81831,-0.00262
4751.74678,0.01738
4753.67524,0.03400
4755.60371,0.03020
4757.53218,0.01576
4759.46065,0.00389
4761.38912,0.00385
4763.31759,0.01503
4765.24606,0.02200
4767.17453,0.01593
4769.10299,-0.00249
4771.03146,-0.01586
4772.95993,-0.00647
4774.88840,0.00897
4776.81687,0.01018
4778.74534,0.00176
4780.67381,-0.00276
4782.60227,0.00541
4784.53074,0.01898
4786.45921,0.02774
4788.38768,0.03240
4790.31615,0.03047
4792.24462,0.02379
4794.17309,0.01853
4796.10156,0.01170
4798.03002,0.01025
4799.95849,0.01959
4801.88696,0.02206
4803.81543,0.01169
4805.74390,0.00451
4807.67237,0.00628
4809.60084,0.01154
4811.52930,0.01573
4813.45777,0.01615
4815.38624,0.01475
4817.31471,0.00874
4819.24318,-0.00970
4821.17165,-0.02797
4823.10012,-0.02367
4825.02859,-0.00097
4826.95705,0.02012
4828.88552,0.02862
4830.81399,0.02245
4832.74246,0.01310
4834.67093,0.01328
4836.59940,0.01690
4838.52787,0.01476
4840.45633,0.01061
4842.38480,0.01105
4844.31327,0.01243
4846.24174,0.01180
4848.17021,0.01575
4850.09868,0.02342
4852.02715,0.02714
4853.95562,0.02455
4855.88408,0.01376
4857.81255,-0.00049
4859.74102,-0.00211
4861.66949,0.00798
4863.59796,0.01135
4865.52643,0.00302
4867.45490,-0.00754
4869.38336,-0.00483
4871.31183,0.01188
4873.24030,0.02101
4875.16877,0.01363
4877.09724,0.00175
4879.02571,-0.00707
4880.95418,-0.00906
4882.88265,0.00061
4884.81111,0.01328
4886.73958,0.01596
4888.66805,0.01365
4890.59652,0.00954
4892.52499,-0.00172
4894.45346,-0.00944
4896.38193,-0.00030
4898.31039,0.01201
4900.23886,0.00310
4902.16733,-0.01906
4904.09580,-0.02400
4906.02427,-0.00782
4907.95274,0.00834
4909.88121,0.01579
4911.80967,0.01522
4913.73814,0.01653
4915.66661,0.02968
4917.59508,0.03993
4919.52355,0.03612
4921.45202,0.02693
4923.38049,0.01867
4925.30896,0.00999
4927.23742,-0.00298
4929.16589,-0.01100
4931.09436,0.00011
4933.02283,0.01819
4934.95130,0.02623
4936.87977,0.02495
4938.80824,0.01419
4940.73670,0.00020
4942.66517,-0.00528
4944.59364,0.00143
4946.52211,0.01572
4948.45058,0.02282
4950.37905,0.01952
4952.30752,0.01586
4954.23599,0.00941
4956.16445,0.00010
4958.09292,-0.00231
4960.02139,-0.00187
4961.94986,-0.00372
4963.87833,-0.00290
4965.80680,0.00126
4967.73527,0.00899
4969.66373,0.01488
4971.59220,0.00794
4973.52067,-0.00081
4975.44914,0.00787
4977.37761,0.02033
4979.30608,0.01619
4981.23455,0.00687
4983.16302,0.00943
4985.09148,0.01940
4987.01995,0.02817
4988.94842,0.03391
4990.87689,0.03106
4992.80536,0.02190
4994.73383,0.01860
4996.66230,0.02014
4998.59076,0.01982
5000.51923,0.01900
5002.44770,0.01637
5004.37617,0.01555
5006.30464,0.02379
5008.23311,0.02532
5010.16158,0.01622
5012.09005,0.02128
5014.01851,0.03989
5015.94698,0.05078
5017.87545,0.04929
5019.80392,0.04461
5021.73239,0.04130
5023.66086,0.03588
5025.58933,0.03050
5027.51779,0.03187
5029.44626,0.03653
5031.37473,0.03215
5033.30320,0.01951
5035.23167,0.01475
5037.16014,0.01514
5039.08861,0.00935
5041.01708,0.00789
5042.94554,0.00914
5044.87401,-0.00138
5046.80248,-0.00689
5048.73095,0.01252
5050.65942,0.03298
5052.58789,0.03177
5054.51636,0.02312
5056.44482,0.01440
5058.37329,0.01351
5060.30176,0.02901
5062.23023,0.04060
5064.15870,0.03992
5066.08717,0.03617
5068.01564,0.03197
5069.94410,0.02913
5071.87257,0.02822
5073.80104,0.03028
5075.72951,0.02943
5077.65798,0.01685
5079.58645,0.00645
5081.51492,0.02029
5083.44339,0.04291
5085.37185,0.04679
5087.30032,0.03911
5089.22879,0.02978
5091.15726,0.01968
5093.08573,0.01719
5095.01420,0.01581
5096.94267,0.01484
5098.87113,0.02572
5100.79960,0.03755
5102.72807,0.03690
5104.65654,0.03273
5106.58501,0.03474
5108.51348,0.03631
5110.44195,0.03581
5112.37042,0.04454
5114.29888,0.05757
5116.22735,0.05423
5118.15582,0.03573
5120.08429,0.02165
5122.01276,0.01864
5123.94123,0.02236
5125.86970,0.02708
5127.79816,0.02971
5129.72663,0.02975
5131.65510,0.02968
5133.58357,0.03377
5135.51204,0.03858
5137.44051,0.04305
5139.36898,0.04359
5141.29745,0.03668
5143.22591,0.03529
5145.15438,0.04311
5147.08285,0.04800
5149.01132,0.04076
5150.93979,0.02671
5152.86826,0.02626
5154.79673,0.03921
5156.72519,0.04267
5158.65366,0.03719
5160.58213,0.03723
5162.51060,0.03923
5164.43907,0.04064
5166.36754,0.03674
5168.29601,0.02527
5170.22448,0.02665
5172.15294,0.04214
5174.08141,0.04981
5176.00988,0.04547
5177.93835,0.04011
5179.86682,0.04872
5181.79529,0.06512
5183.72376,0.06315
5185.65222,0.03799
5187.58069,0.01893
5189.50916,0.01966
5191.43763,0.02696
5193.36610,0.04049
5195.29457,0.05586
5197.22304,0.06233
5199.15151,0.05971
5201.07997,0.04018
5203.00844,0.01417
5204.93691,0.00896
5206.86538,0.01705
5208.79385,0.01343
5210.72232,0.00812
5212.65079,0.01755
5214.57925,0.03457
5216.50772,0.03959
5218.43619,0.03243
5220.36466,0.02943
5222.29313,0.02655
5224.22160,0.01948
5226.15007,0.03000
5228.07854,0.06088
5230.00700,0.08001
5231.93547,0.07763
5233.86394,0.07240
5235.79241,0.06295
5237.72088,0.03765
5239.64935,0.01775
5241.57782,0.02342
5243.50628,0.04270
5245.43475,0.05561
5247.36322,0.04913
5249.29169,0.02381
5251.22016,0.01211
5253.14863,0.03515
5255.07710,0.06142
5257.00556,0.06035
5258.93403,0.03872
5260.86250,0.01406
5262.79097,0.01493
5264.71944,0.04169
5266.64791,0.05748
5268.57638,0.05982
5270.50485,0.07272
5272.43331,0.09015
5274.36178,0.08114
5276.29025,0.04855
5278.21872,0.01715
5280.14719,0.00079
5282.07566,0.00961
5284.00413,0.03294
5285.93259,0.04991
5287.86106,0.05642
5289.78953,0.05412
5291.71800,0.04649
5293.64647,0.04240
5295.57494,0.04389
5297.50341,0.04505
5299.43188,0.03853
5301.36034,0.02672
5303.28881,0.02200
5305.21728,0.02542
5307.14575,0.03232
5309.07422,0.04289
5311.00269,0.05154
5312.93116,0.05627
5314.85962,0.06012
5316.78809,0.06574
5318.71656,0.07350
5320.64503,0.07283
5322.57350,0.06364
5324.50197,0.05825
5326.43044,0.05040
5328.35891,0.03407
5330.28737,0.02340
5332.21584,0.02808
5334.14431,0.03771
5336.07278,0.03873
5338.00125,0.03667
5339.92972,0.03091
5341.85819,0.02830
5343.78665,0.05076
5345.71512,0.07779
5347.64359,0.08114
5349.57206,0.08504
5351.50053,0.09855
5353.42900,0.10075
5355.35747,0.09082
5357.28594,0.08500
5359.21440,0.07862
5361.14287,0.06758
5363.07134,0.05810
5364.99981,0.05369
5366.92828,0.05716
5368.85675,0.06637
5370.78522,0.07017
5372.71368,0.06968
5374.64215,0.07793
5376.57062,0.08546
5378.49909,0.07110
5380.42756,0.04779
5382.35603,0.04250
5384.28450,0.06012
5386.21297,0.07391
5388.14143,0.07494
5390.06990,0.07872
5391.99837,0.08101
5393.92684,0.07268
5395.85531,0.06532
5397.78378,0.07666
5399.71225,0.08914
5401.64071,0.07400
5403.56918,0.04450
5405.49765,0.02608
5407.42612,0.02808
5409.35459,0.05621
5411.28306,0.08783
5413.21153,0.08936
5415.13999,0.07394
5417.06846,0.06541
5418.99693,0.05717
5420.92540,0.04163
5422.85387,0.03333
5424.78234,0.04052
5426.71081,0.04510
5428.63928,0.04615
5430.56774,0.05535
5432.49621,0.06333
5434.42468,0.06287
5436.35315,0.06007
5438.28162,0.05642
5440.21009,0.04304
5442.13856,0.03357
5444.06702,0.04167
5445.99549,0.05447
5447.92396,0.06541
5449.85243,0.07109
5451.78090,0.07393
5453.70937,0.08277
5455.63784,0.08748
5457.56631,0.07669
5459.49477,0.06678
5461.42324,0.06426
5463.35171,0.06855
5465.28018,0.08833
5467.20865,0.09874
5469.13712,0.07100
5471.06559,0.02775
5472.99405,0.00681
5474.92252,0.02417
5476.85099,0.07183
5478.77946,0.10573
5480.70793,0.09771
5482.63640,0.07431
5484.56487,0.06596
5486.49334,0.06543
5488.42180,0.06460
5490.35027,0.05632
5492.27874,0.03190
5494.20721,0.01906
5496.13568,0.04623
5498.06415,0.07625
5499.99262,0.06689
5501.92108,0.04217
5503.84955,0.03089
5505.77802,0.02801
5507.70649,0.03423
5509.63496,0.05893
5511.56343,0.08882
5513.49190,0.08926
5515.42037,0.06666
5517.34883,0.05485
5519.27730,0.05387
5521.20577,0.05200
5523.13424,0.05012
5525.06271,0.05611
5526.99118,0.06883
5528.91965,0.07236
5530.84811,0.06177
5532.77658,0.06354
5534.70505,0.08962
5536.63352,0.10950
5538.56199,0.11237
5540.49046,0.11045
5542.41893,0.08256
5544.34740,0.03935
5546.27586,0.03616
5548.20433,0.05993
5550.13280,0.07030
5552.06127,0.07374
5553.98974,0.06850
5555.91821,0.05300
5557.84668,0.05781
5559.77514,0.08672
5561.70361,0.10367
5563.63208,0.10608
5565.56055,0.10863
5567.48902,0.08821
5569.41749,0.05454
5571.34596,0.05812
5573.27443,0.08669
5575.20289,0.08687
5577.13136,0.06690
5579.05983,0.07177
5580.98830,0.10346
5582.91677,0.11875
5584.84524,0.11019
5586.77371,0.09552
5588.70217,0.06791
5590.63064,0.04672
5592.55911,0.05086
5594.48758,0.06374
5596.41605,0.08819
5598.34452,0.11552
5600.27299,0.10948
5602.20145,0.08766
5604.12992,0.08551
5606.05839,0.08295
5607.98686,0.06381
5609.91533,0.04887
5611.84380,0.05532
5613.77227,0.07783
5615.70074,0.08974
5617.62920,0.07379
5619.55767,0.05414
5621.48614,0.06943
5623.41461,0.11825
5625.34308,0.15753
5627.27155,0.14956
5629.20002,0.10545
5631.12848,0.07404
5633.05695,0.07732
5634.98542,0.08796
5636.91389,0.08618
5638.84236,0.08010
5640.77083,0.06712
5642.69930,0.06576
5644.62777,0.10021
5646.55623,0.11999
5648.48470,0.08499
5650.41317,0.05951
5652.34164,0.07035
5654.27011,0.07567
5656.19858,0.07411
5658.12705,0.07740
5660.05551,0.08215
5661.98398,0.08170
5663.91245,0.06542
5665.84092,0.05303
5667.76939,0.06640
5669.69786,0.07468
5671.62633,0.05248
5673.55480,0.04037
5675.48326,0.07194
5677.41173,0.10881
5679.34020,0.11311
5681.26867,0.09798
5683.19714,0.07787
5685.12561,0.06524
5687.05408,0.07146
5688.98254,0.09511
5690.91101,0.12679
5692.83948,0.14978
5694.76795,0.15648
5696.69642,0.15858
5698.62489,0.16262
5700.55336,0.14643
5702.48183,0.11219
5704.41029,0.09234
5706.33876,0.08486
5708.26723,0.08223
5710.19570,0.08915
5712.12417,0.10576
5714.05264,0.12087
5715.98111,0.10957
5717.90957,0.08231
5719.83804,0.06591
5721.76651,0.04998
5723.69498,0.03977
5725.62345,0.05766
5727.55192,0.07865
5729.48039,0.08257
5731.40886,0.08572
5733.33732,0.08385
5735.26579,0.07020
5737.19426,0.05585
5739.12273,0.06149
5741.05120,0.08386
5742.97967,0.09717
5744.90814,0.09817
5746.83660,0.07982
5748.76507,0.05249
5750.69354,0.04272
5752.62201,0.04067
5754.55048,0.05435
5756.47895,0.08660
5758.40742,0.09245
5760.33588,0.07121
5762.26435,0.07461
5764.19282,0.10370
5766.12129,0.11702
5768.04976,0.11998
5769.97823,0.12386
5771.90670,0.11895
5773.83517,0.10403
5775.76363,0.08318
5777.69210,0.08159
5779.62057,0.10417
5781.54904,0.11246
5783.47751,0.10765
5785.40598,0.11537
5787.33445,0.11522
5789.26291,0.08542
5791.19138,0.04878
5793.11985,0.05803
5795.04832,0.12707
5796.97679,0.16941
5798.90526,0.12707
5800.83373,0.05441
5802.76220,0.01492
5804.69066,0.01945
5806.61913,0.03490
5808.54760,0.05224
5810.47607,0.08250
5812.40454,0.10187
5814.33301,0.10012
5816.26148,0.09910
5818.18994,0.08071
5820.11841,0.04638
5822.04688,0.05634
5823.97535,0.07974
5825.90382,0.05996
5827.83229,0.03158
5829.76076,0.02950
5831.68923,0.04879
5833.61769,0.06870
5835.54616,0.07895
5837.47463,0.09526
5839.40310,0.11959
5841.33157,0.13235
5843.26004,0.11586
5845.18851,0.08273
5847.11697,0.06423
5849.04544,0.04117
5850.97391,0.01210
5852.90238,0.03811
5854.83085,0.10404
5856.75932,0.13248
5858.68779,0.10557
5860.61626,0.06371
5862.54472,0.02312
5864.47319,-0.01643
5866.40166,-0.01383
5868.33013,0.04429
5870.25860,0.10109
5872.18707,0.12031
5874.11554,0.11105
5876.04400,0.09049
5877.97247,0.08384
5879.90094,0.10061
5881.82941,0.11526
5883.75788,0.11629
5885.68635,0.12334
5887.61482,0.14178
5889.54329,0.15563
5891.47175,0.14499
5893.40022,0.11490
5895.32869,0.09997
5897.25716,0.10319
5899.18563,0.09247
5901.11410,0.05686
5903.04257,0.03899
5904.97103,0.07334
5906.89950,0.10279
5908.82797,0.07847
5910.75644,0.03862
5912.68491,0.02790
5914.61338,0.05761
5916.54185,0.11833
5918.47032,0.15624
5920.39878,0.15126
5922.32725,0.17456
5924.25572,0.21690
5926.18419,0.20325
5928.11266,0.15967
5930.04113,0.13481
5931.96960,0.12194
5933.89806,0.12304
5935.82653,0.13106
5937.75500,0.11907
5939.68347,0.09440
5941.61194,0.07616
5943.54041,0.08299
5945.46888,0.11036
5947.39734,0.11401
5949.32581,0.08944
5951.25428,0.06327
5953.18275,0.02808
5955.11122,0.00402
5957.03969,0.02390
5958.96816,0.06834
5960.89663,0.09988
5962.82509,0.10610
5964.75356,0.10660
5966.68203,0.11458
5968.61050,0.12598
5970.53897,0.13195
5972.46744,0.11542
5974.39591,0.09436
5976.32437,0.08741
5978.25284,0.08052
5980.18131,0.09207
5982.10978,0.14565
5984.03825,0.20128
5985.96672,0.20034
5987.89519,0.15065
5989.82366,0.09834
5991.75212,0.07035
5993.68059,0.06862
5995.60906,0.08703
5997.53753,0.11367
5999.46600,0.13385
6001.39447,0.14794
6003.32294,0.13618
6005.25140,0.08973
6007.17987,0.06485
6009.10834,0.07323
6011.03681,0.06115
6012.96528,0.03227
6014.89375,0.04275
6016.82222,0.10153
6018.75069,0.14835
6020.67915,0.13221
6022.60762,0.07921
6024.53609,0.05510
6026.46456,0.07875
6028.39303,0.10489
6030.32150,0.09305
6032.24997,0.05761
6034.17843,0.04925
6036.10690,0.07452
6038.03537,0.08789
6039.96384,0.08307
6041.89231,0.07454
6043.82078,0.05944
6045.74925,0.03255
6047.67772,0.01681
6049.60618,0.04406
6051.53465,0.08442
6053.46312,0.09545
6055.39159,0.08878
6057.32006,0.07991
6059.24853,0.06752
6061.17700,0.05968
6063.10546,0.04348
6065.03393,0.03980
6066.96240,0.08796
6068.89087,0.13979
6070.81934,0.14968
6072.74781,0.11962
6074.67628,0.04010
6076.60475,-0.03530
6078.53321,-0.01189
6080.46168,0.07953
6082.39015,0.13463
6084.31862,0.13756
6086.24709,0.12494
6088.17556,0.10597
6090.10403,0.06295
6092.03249,0.00166
6093.96096,-0.03355
6095.88943,-0.01420
6097.81790,0.03796
6099.74637,0.07904
6101.67484,0.09618
6103.60331,0.11036
6105.53177,0.12471
6107.46024,0.13421
6109.38871,0.13461
6111.31718,0.11755
6113.24565,0.11802
6115.17412,0.14823
6117.10259,0.16769
6119.03106,0.16142
6120.95952,0.12869
6122.88799,0.10344
6124.81646,0.12102
6126.74493,0.11219
6128.67340,0.03406
6130.60187,-0.02255
6132.53034,-0.01886
6134.45880,-0.00700
6136.38727,-0.01258
6138.31574,-0.00635
6140.24421,0.02652
6142.17268,0.03746
6144.10115,0.01626
6146.02962,0.01556
6147.95809,0.04251
6149.88655,0.08804
6151.81502,0.14398
6153.74349,0.15814
6155.67196,0.12847
6157.60043,0.10602
6159.52890,0.11368
6161.45737,0.17677
6163.38583,0.24663
6165.31430,0.24261
6167.24277,0.19379
6169.17124,0.14829
6171.09971,0.12940
6173.02818,0.12680
6174.95665,0.11706
6176.88512,0.12125
6178.81358,0.12523
6180.74205,0.08038
6182.67052,0.03777
6184.59899,0.06624
6186.52746,0.12137
6188.45593,0.14665
6190.38440,0.12238
6192.31286,0.06630
6194.24133,0.04526
6196.16980,0.05940
6198.09827,0.05183
6200.02674,0.02780
6201.95521,0.02893
6203.88368,0.06711
6205.81215,0.08175
6207.74061,0.02434
6209.66908,-0.01843
6211.59755,0.02842
6213.52602,0.07344
6215.45449,0.06877
6217.38296,0.07246
6219.31143,0.11132
6221.23989,0.12521
6223.16836,0.08191
6225.09683,0.07143
6227.02530,0.13578
6228.95377,0.18302
6230.88224,0.16370
6232.81071,0.11949
6234.73918,0.10845
6236.66764,0.13521
6238.59611,0.15388
6240.52458,0.13828
6242.45305,0.09689
6244.38152,0.05266
6246.30999,0.06430
6248.23846,0.13299
6250.16692,0.16785
6252.09539,0.13256
6254.02386,0.07156
6255.95233,0.01706
6257.88080,-0.00819
6259.80927,-0.01384
6261.73774,-0.04062
6263.66621,-0.06736
6265.59467,-0.03047
6267.52314,0.04667
6269.45161,0.10343
6271.38008,0.12430
6273.30855,0.10414
6275.23702,0.07275
6277.16549,0.04492
6279.09395,0.00847
6281.02242,-0.01397
6282.95089,-0.00382
6284.87936,0.01868
6286.80783,0.03142
6288.73630,0.06213
6290.66477,0.11408
6292.59323,0.13190
6294.52170,0.10064
6296.45017,0.05453
6298.37864,0.04558
6300.30711,0.10854
6302.23558,0.17308
6304.16405,0.16422
6306.09252,0.14703
6308.02098,0.16642
6309.94945,0.20629
6311.87792,0.21842
6313.80639,0.15566
6315.73486,0.07486
6317.66333,0.04445
6319.59180,0.05098
6321.52026,0.08420
6323.44873,0.13807
6325.37720,0.16478
6327.30567,0.15209
6329.23414,0.09135
6331.16261,0.03164
6333.09108,0.03907
6335.01955,0.01404
6336.94801,-0.06893
6338.87648,-0.08890
6340.80495,-0.00409
6342.73342,0.11193
6344.66189,0.18395
6346.59036,0.20856
6348.51883,0.21306
6350.44729,0.21693
6352.37576,0.18236
6354.30423,0.11138
6356.23270,0.11658
6358.16117,0.20386
6360.08964,0.24217
6362.01811,0.18480
6363.94658,0.10479
6365.87504,0.06337
6367.80351,0.04017
6369.73198,0.01723
6371.66045,0.02453
6373.58892,0.03743
6375.51739,0.02513
6377.44586,0.01465
6379.37432,0.02856
6381.30279,0.04726
6383.23126,0.06533
6385.15973,0.08755
6387.08820,0.07182
6389.01667,0.04446
6390.94514,0.05050
6392.87361,0.07460
6394.80207,0.10597
6396.73054,0.12621
6398.65901,0.10262
6400.58748,0.05305
6402.51595,0.03338
6404.44442,0.03723
6406.37289,0.06836
6408.30135,0.11849
6410.22982,0.09862
6412.15829,0.03134
6414.08676,0.00401
6416.01523,0.01119
6417.94370,0.05757
6419.87217,0.12795
6421.80064,0.14235
6423.72910,0.10505
6425.65757,0.05375
6427.58604,0.00965
6429.51451,0.01457
6431.44298,0.04520
6433.37145,0.03100
6435.29992,0.00295
6437.22838,0.03159
6439.15685,0.08944
6441.08532,0.11961
6443.01379,0.09782
6444.94226,0.01632
6446.87073,-0.05349
6448.79920,-0.06261
6450.72766,-0.03773
6452.65613,-0.02020
6454.58460,0.01269
6456.51307,0.06887
6458.44154,0.08173
6460.37001,0.08047
6462.29848,0.13074
6464.22695,0.15974
6466.15541,0.11654
6468.08388,0.07762
6470.01235,0.06545
6471.94082,0.05874
6473.86929,0.06818
6475.79776,0.08898
6477.72623,0.10584
6479.65469,0.08338
6481.58316,0.06691
6483.51163,0.10534
6485.44010,0.14763
6487.36857,0.16194
6489.29704,0.12097
6491.22551,0.04100
6493.15398,0.00404
6495.08244,0.00829
6497.01091,0.03422
6498.93938,0.07228
6500.86785,0.04639
6502.79632,-0.03028
6504.72479,-0.07845
6506.65326,-0.07608
6508.58172,-0.00411
6510.51019,0.11185
6512.43866,0.19330
6514.36713,0.18006
6516.29560,0.11347
6518.22407,0.07420
6520.15254,0.04074
6522.08101,-0.03137
6524.00947,-0.06864
6525.93794,-0.01169
6527.86641,0.04301
6529.79488,0.04786
6531.72335,0.02634
6533.65182,0.00438
6535.58029,0.04640
6537.50875,0.12610
6539.43722,0.10882
6541.36569,0.02346
6543.29416,0.01428
6545.22263,0.04861
6547.15110,0.06071
6549.07957,0.06704
6551.00804,0.04048
6552.93650,-0.02562
6554.86497,-0.07818
6556.79344,-0.07822
6558.72191,-0.02317
6560.65038,0.05946
6562.57885,0.14795
6564.50732,0.17102
6566.43578,0.06725
6568.36425,-0.01992
6570.29272,0.00893
6572.22119,0.07858
6574.14966,0.11188
6576.07813,0.09545
6578.00660,0.08379
6579.93507,0.09379
6581.86353,0.08530
6583.79200,0.08711
6585.72047,0.14057
6587.64894,0.20853
6589.57741,0.24254
6591.50588,0.25093
6593.43435,0.24010
6595.36281,0.18149
6597.29128,0.09370
6599.21975,0.02831
6601.14822,0.01338
6603.07669,0.02636
6605.00516,0.03643
6606.93363,0.06898
6608.86210,0.12467
6610.79056,0.13580
6612.71903,0.13845
6614.64750,0.21407
6616.57597,0.23810
6618.50444,0.15956
6620.43291,0.13956
6622.36138,0.13721
6624.28984,0.06710
6626.21831,0.00595
6628.14678,-0.03799
6630.07525,-0.06898
6632.00372,-0.04830
6633.93219,-0.02012
6635.86066,-0.01194
6637.78912,0.02086
6639.71759,0.08235
6641.64606,0.13038
6643.57453,0.15682
6645.50300,0.18446
6647.43147,0.20362
6649.35994,0.17945
6651.28841,0.14538
6653.21687,0.10471
6655.14534,0.00388
6657.07381,-0.08873
6659.00228,-0.07296
6660.93075,0.00347
6662.85922,0.06029
6664.78769,0.04836
6666.71615,-0.02263
6668.64462,-0.06245
6670.57309,0.00659
6672.50156,0.13169
6674.43003,0.17281
6676.35850,0.09867
6678.28697,0.02875
6680.21544,0.04487
6682.14390,0.09328
6684.07237,0.10154
6686.00084,0.09633
6687.92931,0.14112
6689.85778,0.17878
6691.78625,0.15978
6693.71472,0.13770
6695.64318,0.13251
6697.57165,0.13834
6699.50012,0.15288
6701.42859,0.15524
6703.35706,0.12125
6705.28553,0.09942
6707.21400,0.13297
6709.14247,0.13873
6711.07093,0.04626
6712.99940,-0.06039
6714.92787,-0.05385
6716.85634,0.02795
6718.78481,0.03775
6720.71328,0.02391
6722.64175,0.09861
6724.57021,0.14366
6726.49868,0.08126
6728.42715,0.00547
6730.35562,-0.04777
6732.28409,-0.08744
6734.21256,-0.06441
6736.14103,0.03058
6738.06950,0.08846
6739.99796,0.08012
6741.92643,0.09145
6743.85490,0.09859
6745.78337,0.04342
6747.71184,-0.00459
6749.64031,0.03483
6751.56878,0.11547
6753.49724,0.14783
6755.42571,0.12643
6757.35418,0.10003
6759.28265,0.08809
6761.21112,0.10095
6763.13959,0.12634
6765.06806,0.12024
6766.99653,0.09728
6768.92499,0.09335
6770.85346,0.07653
6772.78193,0.02818
6774.71040,0.00828
6776.63887,0.03810
6778.56734,0.05353
6780.49581,0.05379
6782.42427,0.05271
6784.35274,0.04241
6786.28121,0.04016
6788.20968,0.07127
6790.13815,0.11435
6792.06662,0.08733
6793.99509,0.02676
6795.92355,0.01818
6797.85202,0.03483
6799.78049,0.05636
6801.70896,0.10285
6803.63743,0.12573
6805.56590,0.04769
6807.49437,-0.04188
6809.42284,-0.04146
6811.35130,-0.03108
6813.27977,-0.08220
6815.20824,-0.08053
6817.13671,-0.00881
6819.06518,0.05067
6820.99365,0.11532
6822.92212,0.16323
6824.85058,0.15745
6826.77905,0.13113
6828.70752,0.12887
6830.63599,0.13929
6832.56446,0.07024
6834.49293,-0.02909
6836.42140,-0.04233
6838.34987,0.01409
6840.27833,0.07357
6842.20680,0.11136
6844.13527,0.12469
6846.06374,0.12129
6847.99221,0.10217
6849.92068,0.07513
6851.84915,0.06922
6853.77761,0.07717
6855.70608,0.06169
6857.63455,0.03325
6859.56302,0.02935
6861.49149,0.01675
6863.41996,-0.07037
6865.34843,-0.17215
6867.27690,-0.16480
6869.20536,-0.07350
6871.13383,-0.02504
6873.06230,-0.07333
6874.99077,-0.14488
6876.91924,-0.17537
6878.84771,-0.17304
6880.77618,-0.13008
6882.70464,-0.07612
6884.63311,-0.08730
6886.56158,-0.13907
6888.49005,-0.11477
6890.41852,-0.00389
6892.34699,0.10678
6894.27546,0.16303
6896.20393,0.13033
6898.13239,0.03589
6900.06086,0.01553
6901.98933,0.13547
6903.91780,0.30763
6905.84627,0.31818
6907.77474,0.18299
6909.70321,0.08861
6911.63167,0.04839
6913.56014,0.04207
6915.48861,0.04082
6917.41708,0.03775
6919.34555,0.05945
6921.27402,0.05230
6923.20249,0.05441
6925.13096,0.10447
6927.05942,0.10624
6928.98789,0.02959
6930.91636,0.01528
6932.84483,0.13077
6934.77330,0.22654
6936.70177,0.29195
6938.63024,0.37980
6940.55870,0.38484
6942.48717,0.31959
6944.41564,0.31467
6946.34411,0.28801
6948.27258,0.18590
6950.20105,0.10177
6952.12952,0.04956
6954.05799,-0.03174
6955.98645,-0.13349
6957.91492,-0.16496
6959.84339,-0.09513
6961.77186,0.02167
6963.70033,0.08696
6965.62880,0.08819
6967.55727,0.10646
6969.48573,0.14230
6971.41420,0.12215
6973.34267,0.11876
6975.27114,0.15607
6977.19961,0.10633
6979.12808,0.01026
6981.05655,-0.00354
6982.98501,0.04549
6984.91348,0.05597
6986.84195,0.03626
6988.77042,-0.01798
6990.69889,-0.11605
6992.62736,-0.17144
6994.55583,-0.12997
6996.48430,-0.03114
6998.41276,0.02816
7000.34123,-0.00532
7002.26970,-0.06255
7004.19817,-0.03417
7006.12664,0.03087
7008.05511,0.05105
7009.98358,0.06188
7011.91204,0.02770
7013.84051,-0.03213
7015.76898,0.01250
7017.69745,0.09500
7019.62592,0.10392
7021.55439,0.10881
7023.48286,0.14453
7025.41133,0.13275
7027.33979,0.11937
7029.26826,0.19305
7031.19673,0.26764
7033.12520,0.25372
7035.05367,0.16023
7036.98214,0.08498
7038.91061,0.16720
7040.83907,0.33807
7042.76754,0.34956
7044.69601,0.20251
7046.62448,0.10022
7048.55295,0.08865
7050.48142,0.10650
7052.40989,0.11847
7054.33836,0.16894
7056.26682,0.21767
7058.19529,0.17122
7060.12376,0.14392
7062.05223,0.20026
7063.98070,0.17645
7065.90917,0.05090
7067.83764,-0.05708
7069.76610,-0.06673
7071.69457,0.07988
7073.62304,0.21455
7075.55151,0.19120
7077.47998,0.10562
7079.40845,0.03642
7081.33692,-0.07078
7083.26539,-0.12433
7085.19385,-0.02051
7087.12232,0.12404
7089.05079,0.21743
7090.97926,0.25040
7092.90773,0.20694
7094.83620,0.15485
7096.76467,0.18882
7098.69313,0.24150
7100.62160,0.21631
7102.55007,0.15956
7104.47854,0.08489
7106.40701,0.02363
7108.33548,0.04707
7110.26395,0.11717
7112.19242,0.17140
7114.12088,0.19696
7116.04935,0.20606
7117.97782,0.17201
7119.90629,0.07504
7121.83476,-0.01877
7123.76323,-0.02664
7125.69170,0.00164
7127.62016,-0.01573
7129.54863,0.03359
7131.47710,0.16704
7133.40557,0.20639
7135.33404,0.11418
7137.26251,0.01134
7139.19098,0.02235
7141.11944,0.15931
7143.04791,0.30263
7144.97638,0.42327
7146.90485,0.46340
7148.83332,0.31454
7150.76179,0.04356
7152.69026,-0.22220
7154.61873,-0.31026
7156.54719,-0.14076
7158.47566,0.08922
7160.40413,0.18859
7162.33260,0.16851
7164.26107,0.14326
7166.18954,0.15597
7168.11801,0.14366
7170.04647,0.09452
7171.97494,0.04975
7173.90341,0.01950
7175.83188,-0.01217
7177.76035,-0.09461
7179.68882,-0.16773
7181.61729,-0.15681
7183.54576,-0.16748
7185.47422,-0.15422
7187.40269,0.02797
7189.33116,0.16911
7191.25963,0.06494
7193.18810,0.01740
7195.11657,0.16261
7197.04504,0.14587
7198.97350,-0.05735
7200.90197,-0.16714
7202.83044,-0.18412
7204.75891,-0.22909
7206.68738,-0.19170
7208.61585,-0.03674
7210.54432,0.05392
7212.47279,0.05150
7214.40125,0.10418
7216.32972,0.22058
7218.25819,0.23090
7220.18666,0.10619
7222.11513,0.06745
7224.04360,0.23469
7225.97207,0.41872
7227.90053,0.41050
7229.82900,0.32689
7231.75747,0.24846
7233.68594,0.15571
7235.61441,0.09490
7237.54288,0.13963
7239.47135,0.20818
7241.39982,0.15199
7243.32828,-0.02890
7245.25675,-0.15525
7247.18522,-0.13558
7249.11369,-0.01861
7251.04216,0.15670
7252.97063,0.30308
7254.89910,0.24721
7256.82756,0.11423
7258.75603,0.04218
7260.68450,-0.02241
7262.61297,-0.14784
7264.54144,-0.22845
7266.46991,-0.25312
7268.39838,-0.29705
7270.32685,-0.24809
7272.25531,0.01725
7274.18378,0.19533
7276.11225,0.16237
7278.04072,0.10922
7279.96919,0.12316
7281.89766,0.14402
7283.82613,0.04728
7285.75459,-0.01508
7287.68306,0.09276
7289.61153,0.24927
7291.54000,0.38894
7293.46847,0.42570
7295.39694,0.31461
7297.32541,0.26096
7299.25387,0.20865
7301.18234,0.06703
7303.11081,0.05240
7305.03928,0.09415
7306.96775,-0.04585
7308.89622,-0.16780
7310.82469,-0.12374
7312.75316,-0.02460
7314.68162,0.06390
7316.61009,0.04665
7318.53856,-0.02525
7320.46703,-0.05444
7322.39550,0.03778
7324.32397,0.22265
7326.25244,0.21205
7328.18090,0.04373
7330.10937,-0.05076
7332.03784,-0.19131
7333.96631,-0.28130
7335.89478,-0.17036
7337.82325,0.03428
7339.75172,0.29698
7341.68019,0.40610
7343.60865,0.27381
7345.53712,0.08722
7347.46559,0.00881
7349.39406,0.04410
7351.32253,0.09136
7353.25100,0.14235
7355.17947,0.23245
7357.10793,0.33916
7359.03640,0.36371
7360.96487,0.27713
7362.89334,0.11798
7364.82181,-0.06816
7366.75028,-0.17392
7368.67875,-0.07224
7370.60722,0.11392
7372.53568,0.12442
7374.46415,-0.03593
7376.39262,-0.10459
7378.32109,0.05343
7380.24956,0.31190
7382.17803,0.44090
7384.10650,0.29973
7386.03496,0.03338
7387.96343,-0.08891
7389.89190,0.02538
7391.82037,0.14723
7393.74884,0.10252
7395.67731,-0.01728
7397.60578,-0.04717
7399.53425,-0.05705
7401.46271,-0.11415
7403.39118,-0.05651
7405.31965,0.13575
7407.24812,0.23847
7409.17659,0.26364
7411.10506,0.25627
7413.03353,0.24883
7414.96199,0.29331
7416.89046,0.28707
7418.81893,0.17126
7420.74740,0.18917
7422.67587,0.22672
7424.60434,0.10325
7426.53281,0.02760
7428.46128,0.16957
7430.38974,0.38407
7432.31821,0.34349
7434.24668,0.04952
7436.17515,-0.24865
7438.10362,-0.25076
7440.03209,0.05104
7441.96056,0.27726
7443.88902,0.22653
7445.81749,0.08924
7447.74596,0.02984
7449.67443,0.10115
7451.60290,0.19540
7453.53137,0.14976
7455.45984,0.10536
7457.38831,0.05249
7459.31677,-0.14439
7461.24524,-0.22400
7463.17371,-0.09029
7465.10218,-0.05715
7467.03065,-0.07360
7468.95912,-0.00447
7470.88759,0.03847
7472.81605,-0.02462
7474.74452,-0.17101
7476.67299,-0.35614
7478.60146,-0.37105
7480.52993,-0.12826
7482.45840,0.07575
7484.38687,0.11783
7486.31533,0.15604
7488.24380,0.18525
7490.17227,0.04800
7492.10074,-0.13306
7494.02921,-0.16124
7495.95768,-0.18288
7497.88615,-0.25501
