399.19301,-0.14998
401.12148,-0.18923
403.04995,0.13653
404.97842,0.27421
406.90689,0.23128
408.83536,0.12893
410.76382,0.03852
412.69229,-0.04868
414.62076,-0.09697
416.54923,-0.08439
418.47770,-0.03811
420.40617,0.02536
422.33464,0.07253
424.26311,0.08637
426.19157,0.10290
428.12004,0.11439
430.04851,0.08856
431.97698,0.06570
433.90545,0.03955
435.83392,-0.01198
437.76239,-0.04296
439.69085,-0.02923
441.61932,-0.00464
443.54779,-0.01615
445.47626,-0.02846
447.40473,-0.01538
449.33320,0.01774
451.26167,0.04792
453.19013,0.05386
455.11860,0.07653
457.04707,0.09984
458.97554,0.07507
460.90401,0.05983
462.83248,0.05583
464.76095,0.02305
466.68942,0.00269
468.61788,0.02018
470.54635,0.04871
472.47482,0.18268
474.40329,0.42114
476.33176,0.35431
478.26023,0.17786
480.18870,0.08582
482.11716,0.03098
484.04563,-0.00273
485.97410,0.01303
487.90257,0.03464
489.83104,0.02876
491.75951,0.01845
493.68798,0.01221
495.61645,0.00803
497.54491,-0.00629
499.47338,-0.01839
501.40185,0.03000
503.33032,0.09828
505.25879,0.09386
507.18726,0.04199
509.11573,0.00661
511.04419,0.00631
512.97266,0.02158
514.90113,0.01554
516.82960,0.00383
518.75807,0.03706
520.68654,0.07786
522.61501,0.07761
524.54348,0.05848
526.47194,0.05041
528.40041,0.04013
530.32888,0.02101
532.25735,0.00351
534.18582,0.00451
536.11429,0.02509
538.04276,0.02962
539.97122,0.02015
541.89969,0.01683
543.82816,0.00738
545.75663,-0.00296
547.68510,0.00772
549.61357,0.04671
551.54204,0.09129
553.47051,0.09928
555.39897,0.06525
557.32744,0.02776
559.25591,0.01912
561.18438,0.03725
563.11285,0.04351
565.04132,0.02143
566.96979,0.00569
568.89825,0.00144
570.82672,-0.00497
572.75519,-0.00054
574.68366,0.02278
576.61213,0.05640
578.54060,0.08379
580.46907,0.08962
582.39754,0.07604
584.32600,0.06265
586.25447,0.05777
588.18294,0.05614
590.11141,0.05121
592.03988,0.04697
593.96835,0.04968
595.89682,0.05154
597.82528,0.05112
599.75375,0.05862
601.68222,0.06469
603.61069,0.04988
605.53916,0.02820
607.46763,0.02138
609.39610,0.02686
611.32456,0.03593
613.25303,0.04779
615.18150,0.05403
617.10997,0.03883
619.03844,0.02277
620.96691,0.03402
622.89538,0.05502
624.82385,0.06050
626.75231,0.04771
628.68078,0.03093
630.60925,0.02546
632.53772,0.03042
634.46619,0.03859
636.39466,0.04432
638.32313,0.04354
640.25159,0.03880
642.18006,0.04046
644.10853,0.05113
646.03700,0.05392
647.96547,0.04167
649.89394,0.03356
651.82241,0.03337
653.75088,0.02519
655.67934,0.01715
657.60781,0.03076
659.53628,0.05865
661.46475,0.06801
663.39322,0.04881
665.32169,0.02686
667.25016,0.03054
669.17862,0.05792
671.10709,0.06615
673.03556,0.06201
674.96403,0.05618
676.89250,0.05013
678.82097,0.04494
680.74944,0.04406
682.67791,0.04516
684.60637,0.04400
686.53484,0.04790
688.46331,0.05995
690.39178,0.06793
692.32025,0.06156
694.24872,0.05355
696.17719,0.05306
698.10565,0.04446
700.03412,0.03345
701.96259,0.03281
703.89106,0.03002
705.81953,0.02262
707.74800,0.01601
709.67647,0.01119
711.60494,0.01740
713.53340,0.03061
715.46187,0.03712
717.39034,0.04108
719.31881,0.04767
721.24728,0.05243
723.17575,0.05016
725.10422,0.04005
727.03268,0.03046
728.96115,0.02788
730.88962,0.03015
732.81809,0.03360
734.74656,0.03493
736.67503,0.03641
738.60350,0.03954
740.53197,0.03915
742.46043,0.03645
744.38890,0.03617
746.31737,0.04032
748.24584,0.04688
750.17431,0.04796
752.10278,0.04347
754.03125,0.03743
755.95971,0.03199
757.88818,0.03602
759.81665,0.04591
761.74512,0.04679
763.67359,0.04016
765.60206,0.03526
767.53053,0.03562
769.45900,0.03895
771.38746,0.03583
773.31593,0.02520
775.24440,0.01948
777.17287,0.02336
779.10134,0.02741
781.02981,0.02920
782.95828,0.03499
784.88674,0.04127
786.81521,0.04355
788.74368,0.04481
790.67215,0.04576
792.60062,0.04682
794.52909,0.04736
796.45756,0.04395
798.38602,0.03853
800.31449,0.03570
802.24296,0.03410
804.17143,0.03150
806.09990,0.03158
808.02837,0.03389
809.95684,0.03628
811.88531,0.04006
813.81377,0.04108
815.74224,0.04061
817.67071,0.04217
819.59918,0.03987
821.52765,0.03171
823.45612,0.02418
825.38459,0.02343
827.31305,0.02787
829.24152,0.03587
831.16999,0.04365
833.09846,0.04135
835.02693,0.03349
836.95540,0.03503
838.88387,0.04503
840.81234,0.05050
842.74080,0.05071
844.66927,0.05265
846.59774,0.05024
848.52621,0.03930
850.45468,0.03216
852.38315,0.03503
854.31162,0.03866
856.24008,0.04064
858.16855,0.04448
860.09702,0.04511
862.02549,0.03906
863.95396,0.03592
865.88243,0.04523
867.81090,0.05678
869.73937,0.05765
871.66783,0.05317
873.59630,0.05023
875.52477,0.04687
877.45324,0.04336
879.38171,0.04138
881.31018,0.03860
883.23865,0.03755
885.16711,0.04115
887.09558,0.04126
889.02405,0.03799
890.95252,0.04035
892.88099,0.04456
894.80946,0.04519
896.73793,0.04433
898.66640,0.04435
900.59486,0.04756
902.52333,0.05016
904.45180,0.04862
906.38027,0.04858
908.30874,0.04706
910.23721,0.04114
912.16568,0.04121
914.09414,0.04740
916.02261,0.04951
917.95108,0.04312
919.87955,0.03354
921.80802,0.03266
923.73649,0.03964
925.66496,0.04378
927.59343,0.04444
929.52189,0.04571
931.45036,0.05032
933.37883,0.05675
935.30730,0.05808
937.23577,0.05391
939.16424,0.04948
941.09271,0.04851
943.02117,0.04960
944.94964,0.04754
946.87811,0.04464
948.80658,0.04501
950.73505,0.04691
952.66352,0.04795
954.59199,0.04786
956.52045,0.04922
958.44892,0.05139
960.37739,0.05123
962.30586,0.04797
964.23433,0.04377
966.16280,0.04143
968.09127,0.04019
970.01974,0.03934
971.94820,0.03805
973.87667,0.03590
975.80514,0.03486
977.73361,0.03540
979.66208,0.03846
981.59055,0.04346
983.51902,0.04907
985.44748,0.05544
987.37595,0.05841
989.30442,0.05543
991.23289,0.05131
993.16136,0.05122
995.08983,0.05400
997.01830,0.05471
998.94677,0.05247
1000.87523,0.05030
1002.80370,0.05091
1004.73217,0.05306
1006.66064,0.05466
1008.58911,0.05597
1010.51758,0.05398
1012.44605,0.04691
1014.37451,0.04015
1016.30298,0.04032
1018.23145,0.04634
1020.15992,0.05089
1022.08839,0.05200
1024.01686,0.05110
1025.94533,0.04720
1027.87380,0.04195
1029.80226,0.04194
1031.73073,0.04980
1033.65920,0.05758
1035.58767,0.05632
1037.51614,0.04822
1039.44461,0.04390
1041.37308,0.04710
1043.30154,0.05110
1045.23001,0.04922
1047.15848,0.04450
1049.08695,0.04443
1051.01542,0.04716
1052.94389,0.04829
1054.87236,0.05056
1056.80083,0.05561
1058.72929,0.06085
1060.65776,0.06454
1062.58623,0.06529
1064.51470,0.06066
1066.44317,0.05353
1068.37164,0.04969
1070.30011,0.04793
1072.22857,0.04704
1074.15704,0.04915
1076.08551,0.05115
1078.01398,0.04888
1079.94245,0.04466
1081.87092,0.04558
1083.79939,0.05285
1085.72786,0.05719
1087.65632,0.05353
1089.58479,0.04985
1091.51326,0.05210
1093.44173,0.05488
1095.37020,0.05529
1097.29867,0.05637
1099.22714,0.05680
1101.15560,0.05344
1103.08407,0.04835
1105.01254,0.04456
1106.94101,0.04236
1108.86948,0.04632
1110.79795,0.05802
1112.72642,0.06607
1114.65489,0.06186
1116.58335,0.05480
1118.51182,0.05732
1120.44029,0.06317
1122.36876,0.06278
1124.29723,0.05895
1126.22570,0.05255
1128.15417,0.04405
1130.08263,0.04149
1132.01110,0.04584
1133.93957,0.04907
1135.86804,0.04876
1137.79651,0.04862
1139.72498,0.05131
1141.65345,0.05477
1143.58191,0.05674
1145.51038,0.05866
1147.43885,0.05923
1149.36732,0.05603
1151.29579,0.05091
1153.22426,0.04821
1155.15273,0.05208
1157.08120,0.05849
1159.00966,0.06075
1160.93813,0.06181
1162.86660,0.06197
1164.79507,0.05727
1166.72354,0.05304
1168.65201,0.05414
1170.58048,0.05705
1172.50894,0.05803
1174.43741,0.05631
1176.36588,0.05322
1178.29435,0.05153
1180.22282,0.05305
1182.15129,0.05552
1184.07976,0.05515
1186.00823,0.05290
1187.93669,0.05380
1189.86516,0.05708
1191.79363,0.05679
1193.72210,0.05275
1195.65057,0.04885
1197.57904,0.04551
1199.50751,0.04332
1201.43597,0.04615
1203.36444,0.05270
1205.29291,0.05646
1207.22138,0.05473
1209.14985,0.05048
1211.07832,0.04915
1213.00679,0.05150
1214.93526,0.05255
1216.86372,0.05112
1218.79219,0.05103
1220.72066,0.05309
1222.64913,0.05481
1224.57760,0.05496
1226.50607,0.05402
1228.43454,0.05280
1230.36300,0.05181
1232.29147,0.05206
1234.21994,0.05289
1236.14841,0.05317
1238.07688,0.05395
1240.00535,0.05388
1241.93382,0.05216
1243.86229,0.05136
1245.79075,0.05211
1247.71922,0.05285
1249.64769,0.05225
1251.57616,0.05087
1253.50463,0.05058
1255.43310,0.05217
1257.36157,0.05388
1259.29003,0.05322
1261.21850,0.05096
1263.14697,0.04931
1265.07544,0.04966
1267.00391,0.05315
1268.93238,0.05790
1270.86085,0.06012
1272.78932,0.05783
1274.71778,0.05239
1276.64625,0.04958
1278.57472,0.05283
1280.50319,0.05697
1282.43166,0.05631
1284.36013,0.05316
1286.28860,0.05250
1288.21706,0.05437
1290.14553,0.05494
1292.07400,0.05434
1294.00247,0.05591
1295.93094,0.05715
1297.85941,0.05509
1299.78788,0.05263
1301.71634,0.05177
1303.64481,0.05209
1305.57328,0.05296
1307.50175,0.05401
1309.43022,0.05463
1311.35869,0.05383
1313.28716,0.05211
1315.21563,0.05161
1317.14409,0.05363
1319.07256,0.05705
1321.00103,0.06068
1322.92950,0.06329
1324.85797,0.06281
1326.78644,0.06077
1328.71491,0.06007
1330.64337,0.05904
1332.57184,0.05717
1334.50031,0.05687
1336.42878,0.05708
1338.35725,0.05675
1340.28572,0.05754
1342.21419,0.05840
1344.14266,0.05721
1346.07112,0.05614
1347.99959,0.05774
1349.92806,0.05928
1351.85653,0.05811
1353.78500,0.05498
1355.71347,0.05294
1357.64194,0.05395
1359.57040,0.05501
1361.49887,0.05485
1363.42734,0.05510
1365.35581,0.05586
1367.28428,0.05650
1369.21275,0.05568
1371.14122,0.05399
1373.06969,0.05460
1374.99815,0.05806
1376.92662,0.06001
1378.85509,0.05757
1380.78356,0.05323
1382.71203,0.05125
1384.64050,0.05211
1386.56897,0.05550
1388.49743,0.05925
1390.42590,0.05987
1392.35437,0.06108
1394.28284,0.06453
1396.21131,0.06490
1398.13978,0.06082
1400.06825,0.05591
1401.99672,0.05418
1403.92518,0.05524
1405.85365,0.05516
1407.78212,0.05618
1409.71059,0.06128
1411.63906,0.06368
1413.56753,0.06072
1415.49600,0.05999
1417.42446,0.06397
1419.35293,0.06636
1421.28140,0.06305
1423.20987,0.05854
1425.13834,0.05670
1427.06681,0.05782
1428.99528,0.05848
1430.92375,0.05754
1432.85221,0.05859
1434.78068,0.06245
1436.70915,0.06345
1438.63762,0.05990
1440.56609,0.05912
1442.49456,0.06032
1444.42303,0.06064
1446.35149,0.06302
1448.27996,0.06778
1450.20843,0.06869
1452.13690,0.06751
1454.06537,0.07030
1455.99384,0.07745
1457.92231,0.07594
1459.85077,0.06631
1461.77924,0.06542
1463.70771,0.06989
1465.63618,0.07000
1467.56465,0.06657
1469.49312,0.06619
1471.42159,0.06930
1473.35006,0.07316
1475.27852,0.07353
1477.20699,0.06965
1479.13546,0.06388
1481.06393,0.06072
1482.99240,0.06174
1484.92087,0.06490
1486.84934,0.07018
1488.77780,0.07599
1490.70627,0.07303
1492.63474,0.06612
1494.56321,0.06588
1496.49168,0.07014
1498.42015,0.06833
1500.34862,0.06093
1502.27709,0.05752
1504.20555,0.06369
1506.13402,0.08501
1508.06249,0.09742
1509.99096,0.08493
1511.91943,0.07372
1513.84790,0.06898
1515.77637,0.07015
1517.70483,0.07338
1519.63330,0.07691
1521.56177,0.08235
1523.49024,0.08334
1525.41871,0.07841
1527.34718,0.07178
1529.27565,0.06911
1531.20412,0.07375
1533.13258,0.07998
1535.06105,0.07732
1536.98952,0.07467
1538.91799,0.08212
1540.84646,0.09049
1542.77493,0.08568
1544.70340,0.07801
1546.63186,0.07068
1548.56033,0.06722
1550.48880,0.06820
1552.41727,0.07081
1554.34574,0.07494
1556.27421,0.08478
1558.20268,0.09812
1560.13115,0.08708
1562.05961,0.07255
1563.98808,0.06839
1565.91655,0.06807
1567.84502,0.06807
1569.77349,0.06812
1571.70196,0.06861
1573.63043,0.06947
1575.55889,0.06918
1577.48736,0.06577
1579.41583,0.06270
1581.34430,0.06093
1583.27277,0.05995
1585.20124,0.05871
1587.12971,0.05644
1589.05818,0.05483
1590.98664,0.05508
1592.91511,0.05610
1594.84358,0.05643
1596.77205,0.05655
1598.70052,0.05701
1600.62899,0.05821
1602.55746,0.05927
1604.48592,0.05840
1606.41439,0.05861
1608.34286,0.06210
1610.27133,0.06506
1612.19980,0.06494
1614.12827,0.06441
1616.05674,0.06567
1617.98521,0.06581
1619.91367,0.06491
1621.84214,0.06571
1623.77061,0.06668
1625.69908,0.06774
1627.62755,0.06995
1629.55602,0.06934
1631.48449,0.06669
1633.41295,0.06784
1635.34142,0.07469
1637.26989,0.07603
1639.19836,0.07023
1641.12683,0.06800
1643.05530,0.07162
1644.98377,0.08084
1646.91223,0.09149
1648.84070,0.08858
1650.76917,0.08284
1652.69764,0.08758
1654.62611,0.08583
1656.55458,0.07386
1658.48305,0.06703
1660.41152,0.06521
1662.33998,0.06477
1664.26845,0.06386
1666.19692,0.06701
1668.12539,0.07677
1670.05386,0.08305
1671.98233,0.07809
1673.91080,0.07231
1675.83926,0.06784
1677.76773,0.06644
1679.69620,0.06953
1681.62467,0.07750
1683.55314,0.08938
1685.48161,0.08735
1687.41008,0.07638
1689.33855,0.07091
1691.26701,0.06923
1693.19548,0.07025
1695.12395,0.07534
1697.05242,0.08207
1698.98089,0.08646
1700.90936,0.08412
1702.83783,0.07704
1704.76629,0.07315
1706.69476,0.07074
1708.62323,0.06757
1710.55170,0.06526
1712.48017,0.06486
1714.40864,0.06812
1716.33711,0.07555
1718.26558,0.07784
1720.19404,0.07269
1722.12251,0.06782
1724.05098,0.06389
1725.97945,0.06192
1727.90792,0.06377
1729.83639,0.06759
1731.76486,0.07190
1733.69332,0.07535
1735.62179,0.07225
1737.55026,0.06999
1739.47873,0.07197
1741.40720,0.07321
1743.33567,0.07277
1745.26414,0.07195
1747.19261,0.07174
1749.12107,0.07386
1751.04954,0.07378
1752.97801,0.07039
1754.90648,0.06908
1756.83495,0.06904
1758.76342,0.06877
1760.69189,0.06974
1762.62035,0.06848
1764.54882,0.06480
1766.47729,0.06454
1768.40576,0.06830
1770.33423,0.07377
1772.26270,0.07709
1774.19117,0.07450
1776.11964,0.07146
1778.04810,0.07033
1779.97657,0.06947
1781.90504,0.06885
1783.83351,0.06880
1785.76198,0.06851
1787.69045,0.06885
1789.61892,0.07170
1791.54738,0.07508
1793.47585,0.07313
1795.40432,0.06916
1797.33279,0.06944
1799.26126,0.07254
1801.18973,0.07308
1803.11820,0.06978
1805.04666,0.06589
1806.97513,0.06406
1808.90360,0.06454
1810.83207,0.06518
1812.76054,0.06536
1814.68901,0.06594
1816.61748,0.06509
1818.54595,0.06264
1820.47441,0.06203
1822.40288,0.06351
1824.33135,0.06557
1826.25982,0.06794
1828.18829,0.07068
1830.11676,0.07313
1832.04523,0.07296
1833.97369,0.07204
1835.90216,0.07204
1837.83063,0.07086
1839.75910,0.06829
1841.68757,0.06736
1843.61604,0.06777
1845.54451,0.06549
1847.47298,0.06290
1849.40144,0.06245
1851.32991,0.06237
1853.25838,0.06269
1855.18685,0.06401
1857.11532,0.06568
1859.04379,0.06669
1860.97226,0.06534
1862.90072,0.06261
1864.82919,0.06305
1866.75766,0.06810
1868.68613,0.07272
1870.61460,0.07136
1872.54307,0.06816
1874.47154,0.06700
1876.40001,0.06661
1878.32847,0.06640
1880.25694,0.06714
1882.18541,0.06867
1884.11388,0.07017
1886.04235,0.07016
1887.97082,0.06924
1889.89929,0.06874
1891.82775,0.06894
1893.75622,0.07064
1895.68469,0.07146
1897.61316,0.06919
1899.54163,0.06723
1901.47010,0.06638
1903.39857,0.06397
1905.32704,0.06182
1907.25550,0.06336
1909.18397,0.06667
1911.11244,0.06837
1913.04091,0.06859
1914.96938,0.06827
1916.89785,0.06822
1918.82632,0.06900
1920.75478,0.06992
1922.68325,0.06964
1924.61172,0.06786
1926.54019,0.06623
1928.46866,0.06532
1930.39713,0.06505
1932.32560,0.06590
1934.25407,0.06685
1936.18253,0.06628
1938.11100,0.06533
1940.03947,0.06561
1941.96794,0.06604
1943.89641,0.06575
1945.82488,0.06519
1947.75335,0.06437
1949.68181,0.06292
1951.61028,0.06153
1953.53875,0.06238
1955.46722,0.06536
1957.39569,0.06698
1959.32416,0.06610
1961.25263,0.06547
1963.18110,0.06626
1965.10956,0.06703
1967.03803,0.06699
1968.96650,0.06694
1970.89497,0.06765
1972.82344,0.06856
1974.75191,0.06834
1976.68038,0.06604
1978.60884,0.06328
1980.53731,0.06311
1982.46578,0.06536
1984.39425,0.06758
1986.32272,0.06921
1988.25119,0.07009
1990.17966,0.06993
1992.10812,0.06885
1994.03659,0.06684
1995.96506,0.06598
1997.89353,0.06713
1999.82200,0.06778
2001.75047,0.06765
2003.67894,0.06769
2005.60741,0.06695
2007.53587,0.06586
2009.46434,0.06565
2011.39281,0.06555
2013.32128,0.06615
2015.24975,0.06757
2017.17822,0.06669
2019.10669,0.06430
2021.03515,0.06376
2022.96362,0.06434
2024.89209,0.06414
2026.82056,0.06341
2028.74903,0.06334
2030.67750,0.06471
2032.60597,0.06696
2034.53444,0.06764
2036.46290,0.06645
2038.39137,0.06620
2040.31984,0.06769
2042.24831,0.06902
2044.17678,0.06850
2046.10525,0.06691
2048.03372,0.06659
2049.96218,0.06724
2051.89065,0.06695
2053.81912,0.06617
2055.74759,0.06682
2057.67606,0.06832
2059.60453,0.06769
2061.53300,0.06592
2063.46147,0.06634
2065.38993,0.06784
2067.31840,0.06736
2069.24687,0.06534
2071.17534,0.06443
2073.10381,0.06533
2075.03228,0.06677
2076.96075,0.06687
2078.88921,0.06538
2080.81768,0.06519
2082.74615,0.06730
2084.67462,0.06880
2086.60309,0.06900
2088.53156,0.06935
2090.46003,0.06920
2092.38850,0.06886
2094.31696,0.06945
2096.24543,0.06889
2098.17390,0.06616
2100.10237,0.06485
2102.03084,0.06656
2103.95931,0.06759
2105.88778,0.06709
2107.81624,0.06759
2109.74471,0.06842
2111.67318,0.06789
2113.60165,0.06628
2115.53012,0.06518
2117.45859,0.06597
2119.38706,0.06757
2121.31553,0.06794
2123.24399,0.06765
2125.17246,0.06782
2127.10093,0.06780
2129.02940,0.06834
2130.95787,0.07082
2132.88634,0.07291
2134.81481,0.07140
2136.74327,0.06775
2138.67174,0.06685
2140.60021,0.06997
2142.52868,0.07327
2144.45715,0.07327
2146.38562,0.07053
2148.31409,0.06863
2150.24255,0.06886
2152.17102,0.06892
2154.09949,0.06767
2156.02796,0.06653
2157.95643,0.06700
2159.88490,0.06791
2161.81337,0.06793
2163.74184,0.06890
2165.67030,0.07074
2167.59877,0.06974
2169.52724,0.06574
2171.45571,0.06276
2173.38418,0.06261
2175.31265,0.06376
2177.24112,0.06507
2179.16958,0.06642
2181.09805,0.06703
2183.02652,0.06717
2184.95499,0.06840
2186.88346,0.07017
2188.81193,0.07025
2190.74040,0.06850
2192.66887,0.06687
2194.59733,0.06658
2196.52580,0.06682
2198.45427,0.06709
2200.38274,0.06838
2202.31121,0.06994
2204.23968,0.06980
2206.16815,0.06838
2208.09661,0.06773
2210.02508,0.06835
2211.95355,0.06892
2213.88202,0.06858
2215.81049,0.06806
2217.73896,0.06847
2219.66743,0.06940
2221.59590,0.06954
2223.52436,0.06904
2225.45283,0.06913
2227.38130,0.06934
2229.30977,0.06850
2231.23824,0.06807
2233.16671,0.06827
2235.09518,0.06774
2237.02364,0.06781
2238.95211,0.06925
2240.88058,0.07093
2242.80905,0.07134
2244.73752,0.06987
2246.66599,0.06821
2248.59446,0.06736
2250.52293,0.06739
2252.45139,0.06837
2254.37986,0.06873
2256.30833,0.06804
2258.23680,0.06787
2260.16527,0.06814
2262.09374,0.06770
2264.02221,0.06714
2265.95067,0.06727
2267.87914,0.06808
2269.80761,0.06983
2271.73608,0.07064
2273.66455,0.06853
2275.59302,0.06551
2277.52149,0.06377
2279.44996,0.06287
2281.37842,0.06237
2283.30689,0.06361
2285.23536,0.06606
2287.16383,0.06649
2289.09230,0.06456
2291.02077,0.06242
2292.94924,0.06062
2294.87770,0.05979
2296.80617,0.06147
2298.73464,0.06519
2300.66311,0.06821
2302.59158,0.07010
2304.52005,0.07164
2306.44852,0.07119
2308.37699,0.06922
2310.30545,0.06797
2312.23392,0.06711
2314.16239,0.06575
2316.09086,0.06445
2318.01933,0.06360
2319.94780,0.06112
2321.87627,0.05801
2323.80473,0.05796
2325.73320,0.05741
2327.66167,0.05291
2329.59014,0.05043
2331.51861,0.05321
2333.44708,0.05558
2335.37555,0.05901
2337.30401,0.06535
2339.23248,0.06793
2341.16095,0.06551
2343.08942,0.06026
2345.01789,0.05585
2346.94636,0.05891
2348.87483,0.06492
2350.80330,0.06672
2352.73176,0.06211
2354.66023,0.05341
2356.58870,0.04709
2358.51717,0.04813
2360.44564,0.04936
2362.37411,0.05043
2364.30258,0.05969
2366.23104,0.06848
2368.15951,0.06817
2370.08798,0.06309
2372.01645,0.05964
2373.94492,0.06101
2375.87339,0.06431
2377.80186,0.06585
2379.73033,0.06571
2381.65879,0.06543
2383.58726,0.06611
2385.51573,0.06745
2387.44420,0.06815
2389.37267,0.06738
2391.30114,0.06644
2393.22961,0.06709
2395.15807,0.06766
2397.08654,0.06662
2399.01501,0.06650
2400.94348,0.06822
2402.87195,0.06971
2404.80042,0.07052
2406.72889,0.07092
2408.65736,0.07048
2410.58582,0.06950
2412.51429,0.06906
2414.44276,0.06920
2416.37123,0.06937
2418.29970,0.06990
2420.22817,0.07035
2422.15664,0.06954
2424.08510,0.06811
2426.01357,0.06807
2427.94204,0.06935
2429.87051,0.07041
2431.79898,0.07065
2433.72745,0.06948
2435.65592,0.06775
2437.58439,0.06681
2439.51285,0.06648
2441.44132,0.06633
2443.36979,0.06595
2445.29826,0.06522
2447.22673,0.06509
2449.15520,0.06688
2451.08367,0.06925
2453.01213,0.06930
2454.94060,0.06760
2456.86907,0.06717
2458.79754,0.06875
2460.72601,0.07019
2462.65448,0.06975
2464.58295,0.06759
2466.51142,0.06566
2468.43988,0.06621
2470.36835,0.06839
2472.29682,0.06887
2474.22529,0.06791
2476.15376,0.06881
2478.08223,0.07032
2480.01070,0.06976
2481.93916,0.06800
2483.86763,0.06715
2485.79610,0.06821
2487.72457,0.06972
2489.65304,0.06976
2491.58151,0.06849
2493.50998,0.06770
2495.43844,0.06862
2497.36691,0.07143
2499.29538,0.07435
2501.22385,0.07400
2503.15232,0.07117
2505.08079,0.06913
2507.00926,0.06872
2508.93773,0.06833
2510.86619,0.06712
2512.79466,0.06738
2514.72313,0.06877
2516.65160,0.06853
2518.58007,0.06775
2520.50854,0.06884
2522.43701,0.07037
2524.36547,0.06993
2526.29394,0.06885
2528.22241,0.06903
2530.15088,0.06949
2532.07935,0.06999
2534.00782,0.07124
2535.93629,0.07132
2537.86476,0.07004
2539.79322,0.06939
2541.72169,0.06924
2543.65016,0.06975
2545.57863,0.07022
2547.50710,0.07001
2549.43557,0.07063
2551.36404,0.07195
2553.29250,0.07243
2555.22097,0.07121
2557.14944,0.06957
2559.07791,0.06891
2561.00638,0.06886
2562.93485,0.06913
2564.86332,0.06872
2566.79179,0.06759
2568.72025,0.06769
2570.64872,0.06872
2572.57719,0.06915
2574.50566,0.06881
2576.43413,0.06837
2578.36260,0.06867
2580.29107,0.06940
2582.21953,0.06954
2584.14800,0.06922
2586.07647,0.06979
2588.00494,0.07040
2589.93341,0.06906
2591.86188,0.06719
2593.79035,0.06642
2595.71882,0.06749
2597.64728,0.06992
2599.57575,0.07073
2601.50422,0.07048
2603.43269,0.07159
2605.36116,0.07175
2607.28963,0.06990
2609.21810,0.06933
2611.14656,0.07011
2613.07503,0.06987
2615.00350,0.06870
2616.93197,0.06716
2618.86044,0.06603
2620.78891,0.06682
2622.71738,0.06931
2624.64585,0.07090
2626.57431,0.06976
2628.50278,0.06698
2630.43125,0.06507
2632.35972,0.06607
2634.28819,0.06886
2636.21666,0.07018
2638.14513,0.06924
2640.07359,0.06751
2642.00206,0.06727
2643.93053,0.06949
2645.85900,0.07203
2647.78747,0.07231
2649.71594,0.07065
2651.64441,0.07005
2653.57288,0.07071
2655.50134,0.07108
2657.42981,0.07162
2659.35828,0.07164
2661.28675,0.07087
2663.21522,0.07061
2665.14369,0.07150
2667.07216,0.07331
2669.00062,0.07456
2670.92909,0.07431
2672.85756,0.07292
2674.78603,0.07093
2676.71450,0.06972
2678.64297,0.07013
2680.57144,0.07036
2682.49990,0.06959
2684.42837,0.06962
2686.35684,0.07086
2688.28531,0.07234
2690.21378,0.07367
2692.14225,0.07363
2694.07072,0.07190
2695.99919,0.07078
2697.92765,0.07050
2699.85612,0.06974
2701.78459,0.06940
2703.71306,0.06995
2705.64153,0.07025
2707.57000,0.06963
2709.49847,0.06963
2711.42693,0.07157
2713.35540,0.07308
2715.28387,0.07199
2717.21234,0.06983
2719.14081,0.06840
2721.06928,0.06835
2722.99775,0.06902
2724.92622,0.06909
2726.85468,0.06906
2728.78315,0.06940
2730.71162,0.07106
2732.64009,0.07334
2734.56856,0.07321
2736.49703,0.07244
2738.42550,0.07296
2740.35396,0.07282
2742.28243,0.07203
2744.21090,0.07216
2746.13937,0.07352
2748.06784,0.07299
2749.99631,0.07052
2751.92478,0.07132
2753.85325,0.07406
2755.78171,0.07440
2757.71018,0.07373
2759.63865,0.07302
2761.56712,0.07169
2763.49559,0.07163
2765.42406,0.07353
2767.35253,0.07600
2769.28099,0.07766
2771.20946,0.07658
2773.13793,0.07326
2775.06640,0.07074
2776.99487,0.07012
2778.92334,0.07050
2780.85181,0.07099
2782.78028,0.07156
2784.70874,0.07291
2786.63721,0.07490
2788.56568,0.07553
2790.49415,0.07467
2792.42262,0.07447
2794.35109,0.07425
2796.27956,0.07333
2798.20802,0.07351
2800.13649,0.07456
2802.06496,0.07428
2803.99343,0.07339
2805.92190,0.07504
2807.85037,0.07816
2809.77884,0.07808
2811.70731,0.07433
2813.63577,0.07145
2815.56424,0.07162
2817.49271,0.07273
2819.42118,0.07357
2821.34965,0.07427
2823.27812,0.07439
2825.20659,0.07434
2827.13505,0.07449
2829.06352,0.07483
2830.99199,0.07615
2832.92046,0.07692
2834.84893,0.07512
2836.77740,0.07363
2838.70587,0.07408
2840.63433,0.07344
2842.56280,0.07135
2844.49127,0.07084
2846.41974,0.07200
2848.34821,0.07207
2850.27668,0.07239
2852.20515,0.07534
2854.13362,0.07767
2856.06208,0.07642
2857.99055,0.07462
2859.91902,0.07544
2861.84749,0.07547
2863.77596,0.07136
2865.70443,0.06841
2867.63290,0.07078
2869.56136,0.07435
2871.48983,0.07608
2873.41830,0.07663
2875.34677,0.07571
2877.27524,0.07310
2879.20371,0.07182
2881.13218,0.07347
2883.06065,0.07500
2884.98911,0.07541
2886.91758,0.07489
2888.84605,0.07332
2890.77452,0.07343
2892.70299,0.07565
2894.63146,0.07614
2896.55993,0.07433
2898.48839,0.07399
2900.41686,0.07512
2902.34533,0.07465
2904.27380,0.07280
2906.20227,0.07128
2908.13074,0.07066
2910.05921,0.07135
2911.98768,0.07254
2913.91614,0.07250
2915.84461,0.07232
2917.77308,0.07301
2919.70155,0.07308
2921.63002,0.07371
2923.55849,0.07591
2925.48696,0.07762
2927.41542,0.07863
2929.34389,0.07948
2931.27236,0.07872
2933.20083,0.07532
2935.12930,0.07266
2937.05777,0.07333
2938.98624,0.07465
2940.91471,0.07524
2942.84317,0.07506
2944.77164,0.07465
2946.70011,0.07542
2948.62858,0.07529
2950.55705,0.07310
2952.48552,0.07235
2954.41399,0.07457
2956.34245,0.07743
2958.27092,0.07877
2960.19939,0.07632
2962.12786,0.07199
2964.05633,0.07045
2965.98480,0.07002
2967.91327,0.07039
2969.84174,0.07321
2971.77020,0.07508
2973.69867,0.07506
2975.62714,0.07490
2977.55561,0.07486
2979.48408,0.07550
2981.41255,0.07585
2983.34102,0.07521
2985.26948,0.07506
2987.19795,0.07494
2989.12642,0.07412
2991.05489,0.07415
2992.98336,0.07627
2994.91183,0.07768
2996.84030,0.07436
2998.76877,0.06995
3000.69723,0.07075
3002.62570,0.07531
3004.55417,0.07888
3006.48264,0.08027
3008.41111,0.07946
3010.33958,0.07747
3012.26805,0.07767
3014.19651,0.07907
3016.12498,0.07759
3018.05345,0.07565
3019.98192,0.07616
3021.91039,0.07616
3023.83886,0.07493
3025.76733,0.07419
3027.69579,0.07450
3029.62426,0.07592
3031.55273,0.07831
3033.48120,0.08220
3035.40967,0.08584
3037.33814,0.08516
3039.26661,0.08036
3041.19508,0.07680
3043.12354,0.07585
3045.05201,0.07476
3046.98048,0.07511
3048.90895,0.07723
3050.83742,0.07743
3052.76589,0.07603
3054.69436,0.07431
3056.62282,0.07130
3058.55129,0.06961
3060.47976,0.07123
3062.40823,0.07308
3064.33670,0.07474
3066.26517,0.07666
3068.19364,0.07587
3070.12211,0.07319
3072.05057,0.07162
3073.97904,0.07098
3075.90751,0.07105
3077.83598,0.07144
3079.76445,0.07128
3081.69292,0.07100
3083.62139,0.07160
3085.54985,0.07372
3087.47832,0.07581
3089.40679,0.07683
3091.33526,0.07733
3093.26373,0.07711
3095.19220,0.07719
3097.12067,0.07712
3099.04914,0.07539
3100.97760,0.07498
3102.90607,0.07711
3104.83454,0.07848
3106.76301,0.07875
3108.69148,0.07953
3110.61995,0.08003
3112.54842,0.07915
3114.47688,0.07798
3116.40535,0.07798
3118.33382,0.07784
3120.26229,0.07563
3122.19076,0.07344
3124.11923,0.07397
3126.04770,0.07473
3127.97617,0.07413
3129.90463,0.07346
3131.83310,0.07275
3133.76157,0.07309
3135.69004,0.07468
3137.61851,0.07615
3139.54698,0.07728
3141.47545,0.07742
3143.40391,0.07703
3145.33238,0.07749
3147.26085,0.07856
3149.18932,0.07993
3151.11779,0.08146
3153.04626,0.08193
3154.97473,0.08144
3156.90320,0.08066
3158.83166,0.07857
3160.76013,0.07559
3162.68860,0.07310
3164.61707,0.07139
3166.54554,0.07230
3168.47401,0.07562
3170.40248,0.07664
3172.33094,0.07430
3174.25941,0.07275
3176.18788,0.07491
3178.11635,0.07932
3180.04482,0.08074
3181.97329,0.07763
3183.90176,0.07469
3185.83022,0.07436
3187.75869,0.07571
3189.68716,0.07770
3191.61563,0.07965
3193.54410,0.08210
3195.47257,0.08432
3197.40104,0.08325
3199.32951,0.08079
3201.25797,0.08288
3203.18644,0.08686
3205.11491,0.08601
3207.04338,0.08225
3208.97185,0.07964
3210.90032,0.07795
3212.82879,0.07888
3214.75725,0.08321
3216.68572,0.08392
3218.61419,0.07772
3220.54266,0.07186
3222.47113,0.07227
3224.39960,0.07650
3226.32807,0.07898
3228.25654,0.07783
3230.18500,0.07576
3232.11347,0.07552
3234.04194,0.07629
3235.97041,0.07693
3237.89888,0.07749
3239.82735,0.07671
3241.75582,0.07530
3243.68428,0.07460
3245.61275,0.07227
3247.54122,0.06951
3249.46969,0.07111
3251.39816,0.07522
3253.32663,0.07753
3255.25510,0.07781
3257.18357,0.07765
3259.11203,0.07866
3261.04050,0.07981
3262.96897,0.07983
3264.89744,0.07889
3266.82591,0.07609
3268.75438,0.07439
3270.68285,0.07659
3272.61131,0.07817
3274.53978,0.07814
3276.46825,0.07799
3278.39672,0.07533
3280.32519,0.07287
3282.25366,0.07262
3284.18213,0.07244
3286.11060,0.07374
3288.03906,0.07644
3289.96753,0.07754
3291.89600,0.07777
3293.82447,0.07796
3295.75294,0.07668
3297.68141,0.07418
3299.60988,0.07116
3301.53834,0.06861
3303.46681,0.06896
3305.39528,0.07294
3307.32375,0.07586
3309.25222,0.07490
3311.18069,0.07475
3313.10916,0.07615
3315.03763,0.07669
3316.96609,0.07704
3318.89456,0.07559
3320.82303,0.07198
3322.75150,0.07134
3324.67997,0.07611
3326.60844,0.08285
3328.53691,0.08693
3330.46537,0.08442
3332.39384,0.07616
3334.32231,0.07012
3336.25078,0.07200
3338.17925,0.07677
3340.10772,0.07803
3342.03619,0.07711
3343.96466,0.07717
3345.89312,0.07859
3347.82159,0.07939
3349.75006,0.07905
3351.67853,0.07858
3353.60700,0.07761
3355.53547,0.07556
3357.46394,0.07272
3359.39240,0.07206
3361.32087,0.07542
3363.24934,0.07915
3365.17781,0.08029
3367.10628,0.08014
3369.03475,0.07879
3370.96322,0.07693
3372.89168,0.07690
3374.82015,0.07664
3376.74862,0.07579
3378.67709,0.07618
3380.60556,0.07582
3382.53403,0.07628
3384.46250,0.07971
3386.39097,0.08128
3388.31943,0.07891
3390.24790,0.07662
3392.17637,0.07669
3394.10484,0.07738
3396.03331,0.07581
3397.96178,0.07409
3399.89025,0.07511
3401.81871,0.07571
3403.74718,0.07397
3405.67565,0.07283
3407.60412,0.07523
3409.53259,0.07924
3411.46106,0.07922
3413.38953,0.07470
3415.31800,0.07114
3417.24646,0.07143
3419.17493,0.07312
3421.10340,0.07426
3423.03187,0.07581
3424.96034,0.07680
3426.88881,0.07555
3428.81728,0.07311
3430.74574,0.07054
3432.67421,0.06882
3434.60268,0.06948
3436.53115,0.07226
3438.45962,0.07407
3440.38809,0.07267
3442.31656,0.07079
3444.24503,0.06992
3446.17349,0.06910
3448.10196,0.07024
3450.03043,0.07250
3451.95890,0.07229
3453.88737,0.07118
3455.81584,0.07133
3457.74431,0.07122
3459.67277,0.07182
3461.60124,0.07326
3463.52971,0.07173
3465.45818,0.06794
3467.38665,0.06783
3469.31512,0.07339
3471.24359,0.07832
3473.17206,0.07823
3475.10052,0.07453
3477.02899,0.06992
3478.95746,0.06853
3480.88593,0.06990
3482.81440,0.07044
3484.74287,0.07029
3486.67134,0.06993
3488.59980,0.06887
3490.52827,0.06796
3492.45674,0.06907
3494.38521,0.07024
3496.31368,0.06782
3498.24215,0.06541
3500.17062,0.06676
3502.09909,0.06904
3504.02755,0.06976
3505.95602,0.06824
3507.88449,0.06490
3509.81296,0.06241
3511.74143,0.06208
3513.66990,0.06297
3515.59837,0.06380
3517.52683,0.06348
3519.45530,0.06403
3521.38377,0.06748
3523.31224,0.06996
3525.24071,0.06851
3527.16918,0.06719
3529.09765,0.06784
3531.02611,0.06898
3532.95458,0.07033
3534.88305,0.07000
3536.81152,0.06670
3538.73999,0.06326
3540.66846,0.06235
3542.59693,0.06313
3544.52540,0.06455
3546.45386,0.06615
3548.38233,0.06625
3550.31080,0.06417
3552.23927,0.06044
3554.16774,0.05766
3556.09621,0.05752
3558.02468,0.05791
3559.95314,0.05713
3561.88161,0.05638
3563.81008,0.05868
3565.73855,0.06527
3567.66702,0.06990
3569.59549,0.06540
3571.52396,0.05939
3573.45243,0.05787
3575.38089,0.05993
3577.30936,0.06347
3579.23783,0.06390
3581.16630,0.05986
3583.09477,0.05868
3585.02324,0.06371
3586.95171,0.06848
3588.88017,0.06450
3590.80864,0.05869
3592.73711,0.05766
3594.66558,0.05776
3596.59405,0.05561
3598.52252,0.05303
3600.45099,0.05109
3602.37946,0.05000
3604.30792,0.05059
3606.23639,0.05338
3608.16486,0.05815
3610.09333,0.06153
3612.02180,0.06296
3613.95027,0.06455
3615.87874,0.06481
3617.80720,0.06433
3619.73567,0.06277
3621.66414,0.05930
3623.59261,0.05788
3625.52108,0.05864
3627.44955,0.06125
3629.37802,0.06404
3631.30649,0.06050
3633.23495,0.05462
3635.16342,0.05094
3637.09189,0.05034
3639.02036,0.04997
3640.94883,0.04802
3642.87730,0.04727
3644.80577,0.05140
3646.73423,0.06180
3648.66270,0.07271
3650.59117,0.06890
3652.51964,0.05944
3654.44811,0.05510
3656.37658,0.05282
3658.30505,0.04897
3660.23352,0.04551
3662.16198,0.04373
3664.09045,0.04369
3666.01892,0.04630
3667.94739,0.05166
3669.87586,0.05724
3671.80433,0.06125
3673.73280,0.06677
3675.66126,0.07085
3677.58973,0.06544
3679.51820,0.05688
3681.44667,0.05038
3683.37514,0.04702
3685.30361,0.04772
3687.23208,0.05335
3689.16055,0.06033
3691.08901,0.06016
3693.01748,0.05614
3694.94595,0.05321
3696.87442,0.05127
3698.80289,0.05153
3700.73136,0.05362
3702.65983,0.05350
3704.58829,0.05084
3706.51676,0.04880
3708.44523,0.04792
3710.37370,0.04840
3712.30217,0.04947
3714.23064,0.04918
3716.15911,0.04986
3718.08757,0.05150
3720.01604,0.05227
3721.94451,0.05252
3723.87298,0.05300
3725.80145,0.05339
3727.72992,0.05207
3729.65839,0.05098
3731.58686,0.05400
3733.51532,0.06099
3735.44379,0.06506
3737.37226,0.06171
3739.30073,0.05819
3741.22920,0.05760
3743.15767,0.06066
3745.08614,0.06693
3747.01460,0.06567
3748.94307,0.05780
3750.87154,0.05241
3752.80001,0.05138
3754.72848,0.05060
3756.65695,0.05056
3758.58542,0.04997
3760.51389,0.04889
3762.44235,0.04995
3764.37082,0.05141
3766.29929,0.04928
3768.22776,0.04503
3770.15623,0.04375
3772.08470,0.04618
3774.01317,0.04876
3775.94163,0.04974
3777.87010,0.04938
3779.79857,0.04791
3781.72704,0.04723
3783.65551,0.04815
3785.58398,0.04991
3787.51245,0.05302
3789.44092,0.05623
3791.36938,0.05705
3793.29785,0.05580
3795.22632,0.05364
3797.15479,0.04982
3799.08326,0.04908
3801.01173,0.05643
3802.94020,0.06147
3804.86866,0.05820
3806.79713,0.05286
3808.72560,0.04822
3810.65407,0.04387
3812.58254,0.03970
3814.51101,0.03915
3816.43948,0.04330
3818.36795,0.04869
3820.29641,0.05460
3822.22488,0.05654
3824.15335,0.05352
3826.08182,0.04903
3828.01029,0.04285
3829.93876,0.03901
3831.86723,0.04176
3833.79569,0.04868
3835.72416,0.05374
3837.65263,0.05366
3839.58110,0.05046
3841.50957,0.04889
3843.43804,0.04782
3845.36651,0.04672
3847.29498,0.04702
3849.22344,0.04936
3851.15191,0.05613
3853.08038,0.06283
3855.00885,0.04994
3856.93732,0.03877
3858.86579,0.04040
3860.79426,0.04804
3862.72272,0.05590
3864.65119,0.05894
3866.57966,0.05661
3868.50813,0.05487
3870.43660,0.05393
3872.36507,0.04891
3874.29354,0.04380
3876.22200,0.04517
3878.15047,0.05005
3880.07894,0.05272
3882.00741,0.05331
3883.93588,0.05463
3885.86435,0.05196
3887.79282,0.04691
3889.72129,0.04562
3891.64975,0.04309
3893.57822,0.03855
3895.50669,0.04016
3897.43516,0.04612
3899.36363,0.04809
3901.29210,0.04561
3903.22057,0.04565
3905.14903,0.04648
3907.07750,0.04606
3909.00597,0.04404
3910.93444,0.04046
3912.86291,0.03890
3914.79138,0.04084
3916.71985,0.04326
3918.64832,0.04417
3920.57678,0.04480
3922.50525,0.04517
3924.43372,0.04388
3926.36219,0.04102
3928.29066,0.03880
3930.21913,0.03964
3932.14760,0.04340
3934.07606,0.04590
3936.00453,0.04567
3937.93300,0.04511
3939.86147,0.04592
3941.78994,0.04696
3943.71841,0.04510
3945.64688,0.04001
3947.57535,0.03461
3949.50381,0.03288
3951.43228,0.03491
3953.36075,0.03565
3955.28922,0.03542
3957.21769,0.03746
3959.14616,0.03899
3961.07463,0.03758
3963.00309,0.03506
3964.93156,0.03326
3966.86003,0.03315
3968.78850,0.03343
3970.71697,0.03321
3972.64544,0.03533
3974.57391,0.03994
3976.50238,0.04158
3978.43084,0.04038
3980.35931,0.04065
3982.28778,0.04091
3984.21625,0.04057
3986.14472,0.04106
3988.07319,0.03972
3990.00166,0.03595
3991.93012,0.03468
3993.85859,0.03750
3995.78706,0.03905
3997.71553,0.03830
3999.64400,0.03935
4001.57247,0.04068
4003.50094,0.03871
4005.42941,0.03518
4007.35787,0.03312
4009.28634,0.03342
4011.21481,0.03520
4013.14328,0.03595
4015.07175,0.03464
4017.00022,0.03395
4018.92869,0.03378
4020.85715,0.03071
4022.78562,0.02927
4024.71409,0.03345
4026.64256,0.03656
4028.57103,0.03506
4030.49950,0.03267
4032.42797,0.03190
4034.35644,0.03323
4036.28490,0.03541
4038.21337,0.03458
4040.14184,0.03068
4042.07031,0.02862
4043.99878,0.02941
4045.92725,0.03133
4047.85572,0.03343
4049.78418,0.03468
4051.71265,0.03469
4053.64112,0.03355
4055.56959,0.03240
4057.49806,0.03244
4059.42653,0.03278
4061.35500,0.03252
4063.28346,0.03125
4065.21193,0.02911
4067.14040,0.02788
4069.06887,0.02800
4070.99734,0.02897
4072.92581,0.02882
4074.85428,0.02708
4076.78275,0.02839
4078.71121,0.03291
4080.63968,0.03635
4082.56815,0.03688
4084.49662,0.03379
4086.42509,0.03052
4088.35356,0.03143
4090.28203,0.03317
4092.21049,0.03331
4094.13896,0.03538
4096.06743,0.03900
4097.99590,0.03933
4099.92437,0.03606
4101.85284,0.03365
4103.78131,0.03347
4105.70978,0.03408
4107.63824,0.03429
4109.56671,0.03323
4111.49518,0.03186
4113.42365,0.03273
4115.35212,0.03559
4117.28059,0.03640
4119.20906,0.03409
4121.13752,0.03003
4123.06599,0.02684
4124.99446,0.02831
4126.92293,0.03066
4128.85140,0.02943
4130.77987,0.02853
4132.70834,0.02963
4134.63681,0.02986
4136.56527,0.02956
4138.49374,0.02931
4140.42221,0.02822
4142.35068,0.02692
4144.27915,0.02571
4146.20762,0.02487
4148.13609,0.02633
4150.06455,0.03025
4151.99302,0.03238
4153.92149,0.02982
4155.84996,0.02642
4157.77843,0.02668
4159.70690,0.02979
4161.63537,0.03140
4163.56384,0.02964
4165.49230,0.02747
4167.42077,0.02788
4169.34924,0.03091
4171.27771,0.03334
4173.20618,0.03292
4175.13465,0.03180
4177.06312,0.03010
4178.99158,0.02760
4180.92005,0.02710
4182.84852,0.02713
4184.77699,0.02587
4186.70546,0.02603
4188.63393,0.02760
4190.56240,0.02884
4192.49087,0.02951
4194.41933,0.02806
4196.34780,0.02628
4198.27627,0.02741
4200.20474,0.03014
4202.13321,0.03382
4204.06168,0.03602
4205.99015,0.03279
4207.91861,0.02628
4209.84708,0.02090
4211.77555,0.02106
4213.70402,0.02578
4215.63249,0.02706
4217.56096,0.02504
4219.48943,0.02710
4221.41789,0.03254
4223.34636,0.03531
4225.27483,0.03364
4227.20330,0.02917
4229.13177,0.02565
4231.06024,0.02587
4232.98871,0.02609
4234.91718,0.02489
4236.84564,0.02459
4238.77411,0.02431
4240.70258,0.02333
4242.63105,0.02066
4244.55952,0.01846
4246.48799,0.01908
4248.41646,0.01962
4250.34492,0.02068
4252.27339,0.02371
4254.20186,0.02619
4256.13033,0.02713
4258.05880,0.02849
4259.98727,0.03034
4261.91574,0.02987
4263.84421,0.02545
4265.77267,0.01669
4267.70114,0.00971
4269.62961,0.01045
4271.55808,0.01271
4273.48655,0.01381
4275.41502,0.01914
4277.34349,0.02670
4279.27195,0.02934
4281.20042,0.02613
4283.12889,0.02248
4285.05736,0.02311
4286.98583,0.02651
4288.91430,0.02668
4290.84277,0.02292
4292.77124,0.02132
4294.69970,0.02372
4296.62817,0.02392
4298.55664,0.02022
4300.48511,0.01955
4302.41358,0.02220
4304.34205,0.02278
4306.27052,0.02130
4308.19898,0.02055
4310.12745,0.02223
4312.05592,0.02374
4313.98439,0.02255
4315.91286,0.02020
4317.84133,0.01780
4319.76980,0.01658
4321.69827,0.01869
4323.62673,0.02396
4325.55520,0.02746
4327.48367,0.02539
4329.41214,0.02030
4331.34061,0.01669
4333.26908,0.01593
4335.19755,0.01731
4337.12601,0.02039
4339.05448,0.01973
4340.98295,0.01383
4342.91142,0.01125
4344.83989,0.01291
4346.76836,0.01299
4348.69683,0.01198
4350.62530,0.01247
4352.55376,0.01371
4354.48223,0.01419
4356.41070,0.01489
4358.33917,0.01738
4360.26764,0.01873
4362.19611,0.01547
4364.12458,0.01157
4366.05304,0.01083
4367.98151,0.01091
4369.90998,0.01274
4371.83845,0.01744
4373.76692,0.02006
4375.69539,0.01789
4377.62386,0.01497
4379.55232,0.01504
4381.48079,0.01498
4383.40926,0.01033
4385.33773,0.00629
4387.26620,0.01022
4389.19467,0.01664
4391.12314,0.01737
4393.05161,0.01534
4394.98007,0.01403
4396.90854,0.01428
4398.83701,0.01699
4400.76548,0.01734
4402.69395,0.01364
4404.62242,0.00905
4406.55089,0.00499
4408.47935,0.00517
4410.40782,0.00911
4412.33629,0.01130
4414.26476,0.01090
4416.19323,0.01151
4418.12170,0.01514
4420.05017,0.01623
4421.97864,0.01163
4423.90710,0.00678
4425.83557,0.00564
4427.76404,0.00841
4429.69251,0.01211
4431.62098,0.01498
4433.54945,0.01679
4435.47792,0.01486
4437.40638,0.01268
4439.33485,0.01356
4441.26332,0.01310
4443.19179,0.01040
4445.12026,0.00879
4447.04873,0.00970
4448.97720,0.01096
4450.90567,0.00863
4452.83413,0.00483
4454.76260,0.00760
4456.69107,0.01510
4458.61954,0.01764
4460.54801,0.01526
4462.47648,0.01325
4464.40495,0.01182
4466.33341,0.00930
4468.26188,0.00472
4470.19035,-0.00071
4472.11882,-0.00313
4474.04729,-0.00039
4475.97576,0.00565
4477.90423,0.01205
4479.83270,0.01590
4481.76116,0.01612
4483.68963,0.01362
4485.61810,0.00759
4487.54657,-0.00042
4489.47504,-0.00473
4491.40351,-0.00251
4493.33198,0.00271
4495.26044,0.00505
4497.18891,0.00518
4499.11738,0.00521
4501.04585,0.00099
4502.97432,-0.00497
4504.90279,-0.00449
4506.83126,0.00155
4508.75973,0.00599
4510.68819,0.00593
4512.61666,0.00739
4514.54513,0.01241
4516.47360,0.01330
4518.40207,0.00818
4520.33054,0.00265
4522.25901,0.00071
4524.18747,0.00110
4526.11594,0.00059
4528.04441,0.00076
4529.97288,0.00175
4531.90135,0.00081
4533.82982,0.00251
4535.75829,0.00843
4537.68676,0.01037
4539.61522,0.00529
4541.54369,-0.00127
4543.47216,-0.00311
4545.40063,0.00218
4547.32910,0.00642
4549.25757,0.00055
4551.18604,-0.00569
4553.11450,-0.00240
4555.04297,0.00208
4556.97144,0.00179
4558.89991,0.00020
4560.82838,0.00122
4562.75685,0.00566
4564.68532,0.00893
4566.61378,0.00881
4568.54225,0.00846
4570.47072,0.00506
4572.39919,-0.00151
4574.32766,-0.00089
4576.25613,0.00416
4578.18460,0.00084
4580.11307,-0.00593
4582.04153,-0.00589
4583.97000,-0.00282
4585.89847,-0.00270
4587.82694,-0.00261
4589.75541,0.00025
4591.68388,0.00169
4593.61235,0.00156
4595.54081,0.00406
4597.46928,0.00631
4599.39775,0.00475
4601.32622,0.00378
4603.25469,0.00653
4605.18316,0.00910
4607.11163,0.00768
4609.04010,0.00183
4610.96856,-0.00484
4612.89703,-0.00620
4614.82550,0.00003
4616.75397,0.00964
4618.68244,0.01408
4620.61091,0.01444
4622.53938,0.01723
4624.46784,0.01831
4626.39631,0.01677
4628.32478,0.01644
4630.25325,0.01253
4632.18172,0.00448
4634.11019,0.00168
4636.03866,0.00199
4637.96713,0.00371
4639.89559,0.01038
4641.82406,0.01261
4643.75253,0.00546
4645.68100,-0.00118
4647.60947,-0.00059
4649.53794,0.00364
4651.46641,0.00316
4653.39487,-0.00078
4655.32334,-0.00157
4657.25181,0.00012
4659.18028,0.00326
4661.10875,0.00624
4663.03722,0.00758
4664.96569,0.00710
4666.89416,0.00089
4668.82262,-0.00798
4670.75109,-0.00956
4672.67956,-0.00234
4674.60803,0.00597
4676.53650,0.00986
4678.46497,0.00788
4680.39344,0.00374
4682.32190,0.00413
4684.25037,0.00394
4686.17884,-0.00219
4688.10731,-0.00518
4690.03578,0.00062
4691.96425,0.00488
4693.89272,0.00056
4695.82119,-0.00428
4697.74965,-0.00332
4699.67812,-0.00035
4701.60659,0.00289
4703.53506,0.00918
4705.46353,0.01248
4707.39200,0.00899
4709.32047,0.00724
4711.24893,0.01001
4713.17740,0.01366
4715.10587,0.01418
4717.03434,0.00940
4718.96281,0.00380
4720.89128,-0.00082
4722.81975,-0.00830
4724.74821,-0.01065
4726.67668,0.00248
4728.60515,0.01401
4730.53362,0.00776
4732.46209,0.00077
4734.39056,0.00792
4736.31903,0.01325
4738.24750,0.00269
4740.17596,-0.01103
4742.10443,-0.01312
4744.03290,-0.00859
4745.96137,-0.00978
4747.88984,-0.01575
4749.81831,-0.01621
4751.74678,-0.00782
4753.67524,0.00187
4755.60371,0.00073
4757.53218,-0.00980
4759.46065,-0.01428
4761.38912,-0.00664
4763.31759,-0.00085
4765.24606,-0.00477
4767.17453,-0.00782
4769.10299,-0.00353
4771.03146,0.00324
4772.95993,0.00743
4774.88840,0.00666
4776.81687,0.00037
4778.74534,-0.00618
4780.67381,-0.00302
4782.60227,0.00676
4784.53074,0.01177
4786.45921,0.01321
4788.38768,0.01201
4790.31615,0.00781
4792.24462,0.00891
4794.17309,0.01092
4796.10156,0.00296
4798.03002,-0.00966
4799.95849,-0.01442
4801.88696,-0.00669
4803.81543,0.00233
4805.74390,0.00220
4807.67237,0.00530
4809.60084,0.01922
4811.52930,0.02699
4813.45777,0.02056
4815.38624,0.01469
4817.31471,0.01413
4819.24318,0.00663
4821.17165,-0.00616
4823.10012,-0.00795
4825.02859,-0.00162
4826.95705,-0.00030
4828.88552,0.00071
4830.81399,0.00523
4832.74246,0.00511
4834.67093,-0.00072
4836.59940,-0.00781
4838.52787,-0.01420
4840.45633,-0.01318
4842.38480,-0.00437
4844.31327,-0.00106
4846.24174,-0.00578
4848.17021,-0.00569
4850.09868,-0.00107
4852.02715,0.00440
4853.95562,0.00831
4855.88408,0.00532
4857.81255,-0.00145
4859.74102,-0.00355
4861.66949,0.00065
4863.59796,0.00579
4865.52643,0.00364
4867.45490,-0.00576
4869.38336,-0.01064
4871.31183,-0.00445
4873.24030,0.00376
4875.16877,0.00101
4877.09724,-0.00779
4879.02571,-0.00978
4880.95418,-0.00299
4882.88265,0.01017
4884.81111,0.02085
4886.73958,0.02008
4888.66805,0.01283
4890.59652,0.00562
4892.52499,0.00252
4894.45346,0.00550
4896.38193,0.00886
4898.31039,0.00721
4900.23886,0.00799
4902.16733,0.01816
4904.09580,0.02412
4906.02427,0.01618
4907.95274,0.00591
4909.88121,0.00141
4911.80967,0.00021
4913.73814,-0.00251
4915.66661,-0.00594
4917.59508,-0.00366
4919.52355,0.00584
4921.45202,0.01445
4923.38049,0.01518
4925.30896,0.01044
4927.23742,0.00860
4929.16589,0.01149
4931.09436,0.00843
4933.02283,0.00096
4934.95130,0.00185
4936.87977,0.00474
4938.80824,0.00363
4940.73670,0.00553
4942.66517,0.00968
4944.59364,0.00969
4946.52211,0.00567
4948.45058,0.00483
4950.37905,0.00682
4952.30752,0.00379
4954.23599,-0.00103
4956.16445,-0.00246
4958.09292,-0.00399
4960.02139,-0.00480
4961.94986,-0.00151
4963.87833,0.00260
4965.80680,0.00350
4967.73527,0.00101
4969.66373,-0.00241
4971.59220,-0.00255
4973.52067,0.00104
4975.44914,0.00572
4977.37761,0.01039
4979.30608,0.01589
4981.23455,0.02025
4983.16302,0.01737
4985.09148,0.00548
4987.01995,-0.00349
4988.94842,-0.00010
4990.87689,0.00789
4992.80536,0.01134
4994.73383,0.00639
4996.66230,-0.00412
4998.59076,-0.00712
5000.51923,-0.00292
5002.44770,-0.00255
5004.37617,0.00255
5006.30464,0.01892
5008.23311,0.03009
5010.16158,0.02983
5012.09005,0.02539
5014.01851,0.01750
5015.94698,0.00930
5017.87545,0.00711
5019.80392,0.01159
5021.73239,0.02057
5023.66086,0.02845
5025.58933,0.02258
5027.51779,0.00171
5029.44626,-0.00835
5031.37473,0.00101
5033.30320,0.00661
5035.23167,0.00890
5037.16014,0.01961
5039.08861,0.01888
5041.01708,-0.00257
5042.94554,-0.02036
5044.87401,-0.02313
5046.80248,-0.02097
5048.73095,-0.01937
5050.65942,-0.01457
5052.58789,-0.00565
5054.51636,0.00475
5056.44482,0.01464
5058.37329,0.01875
5060.30176,0.01455
5062.23023,0.00808
5064.15870,0.00391
5066.08717,-0.00052
5068.01564,-0.00287
5069.94410,-0.00065
5071.87257,-0.00094
5073.80104,-0.00086
5075.72951,0.00496
5077.65798,0.00888
5079.58645,0.00922
5081.51492,0.01145
5083.44339,0.01506
5085.37185,0.01586
5087.30032,0.01805
5089.22879,0.02167
5091.15726,0.01683
5093.08573,0.00750
5095.01420,0.00176
5096.94267,-0.00069
5098.87113,-0.00133
5100.79960,-0.00066
5102.72807,0.00124
5104.65654,-0.00016
5106.58501,-0.00434
5108.51348,-0.00418
5110.44195,-0.00237
5112.37042,-0.00341
5114.29888,-0.00817
5116.22735,-0.01876
5118.15582,-0.02367
5120.08429,-0.00951
5122.01276,0.01261
5123.94123,0.01930
5125.86970,0.00959
5127.79816,0.00196
5129.72663,-0.00064
5131.65510,0.00065
5133.58357,0.00700
5135.51204,0.01167
5137.44051,0.01594
5139.36898,0.01938
5141.29745,0.01650
5143.22591,0.01360
5145.15438,0.01841
5147.08285,0.02412
5149.01132,0.01795
5150.93979,0.00448
5152.86826,0.00355
5154.79673,0.01743
5156.72519,0.02462
5158.65366,0.01746
5160.58213,0.01456
5162.51060,0.01991
5164.43907,0.01873
5166.36754,0.01037
5168.29601,0.00324
5170.22448,0.00333
5172.15294,0.00853
5174.08141,0.00941
5176.00988,0.01121
5177.93835,0.01801
5179.86682,0.01967
5181.79529,0.01162
5183.72376,0.00423
5185.65222,0.01225
5187.58069,0.02355
5189.50916,0.01530
5191.43763,-0.00043
5193.36610,-0.00376
5195.29457,-0.00212
5197.22304,-0.00772
5199.15151,-0.01212
5201.07997,-0.00432
5203.00844,0.00373
5204.93691,0.00192
5206.86538,0.00149
5208.79385,0.00885
5210.72232,0.01554
5212.65079,0.01748
5214.57925,0.01818
5216.50772,0.02138
5218.43619,0.01889
5220.36466,0.00582
5222.29313,-0.00600
5224.22160,-0.01248
5226.15007,-0.00819
5228.07854,0.01003
5230.00700,0.02189
5231.93547,0.01757
5233.86394,0.00842
5235.79241,0.00225
5237.72088,-0.00436
5239.64935,-0.01041
5241.57782,-0.01012
5243.50628,-0.00595
5245.43475,-0.00096
5247.36322,0.00357
5249.29169,0.00114
5251.22016,-0.00718
5253.14863,-0.00721
5255.07710,0.00742
5257.00556,0.02293
5258.93403,0.02636
5260.86250,0.02351
5262.79097,0.01881
5264.71944,0.00981
5266.64791,0.00739
5268.57638,0.01202
5270.50485,0.01622
5272.43331,0.01897
5274.36178,0.01529
5276.29025,0.01575
5278.21872,0.02424
5280.14719,0.01757
5282.07566,0.00059
5284.00413,-0.00317
5285.93259,-0.00074
5287.86106,-0.00330
5289.78953,-0.00020
5291.71800,0.01107
5293.64647,0.01777
5295.57494,0.02060
5297.50341,0.02335
5299.43188,0.02238
5301.36034,0.01549
5303.28881,0.01010
5305.21728,0.01150
5307.14575,0.01142
5309.07422,0.01678
5311.00269,0.03055
5312.93116,0.03554
5314.85962,0.03875
5316.78809,0.04624
5318.71656,0.04418
5320.64503,0.03682
5322.57350,0.03444
5324.50197,0.03734
5326.43044,0.04027
5328.35891,0.03477
5330.28737,0.02840
5332.21584,0.02790
5334.14431,0.02633
5336.07278,0.02454
5338.00125,0.02267
5339.92972,0.01833
5341.85819,0.01288
5343.78665,0.00723
5345.71512,0.01107
5347.64359,0.02187
5349.57206,0.02750
5351.50053,0.02957
5353.42900,0.02727
5355.35747,0.02138
5357.28594,0.02259
5359.21440,0.02747
5361.14287,0.03007
5363.07134,0.03098
5364.99981,0.02435
5366.92828,0.00851
5368.85675,0.00097
5370.78522,0.01055
5372.71368,0.01923
5374.64215,0.02106
5376.57062,0.02285
5378.49909,0.01885
5380.42756,0.01682
5382.35603,0.02426
5384.28450,0.02665
5386.21297,0.01789
5388.14143,0.02170
5390.06990,0.03356
5391.99837,0.03156
5393.92684,0.02294
5395.85531,0.01837
5397.78378,0.01165
5399.71225,0.01312
5401.64071,0.03072
5403.56918,0.04044
5405.49765,0.02846
5407.42612,0.01777
5409.35459,0.02130
5411.28306,0.02856
5413.21153,0.03679
5415.13999,0.04591
5417.06846,0.04937
5418.99693,0.04433
5420.92540,0.02945
5422.85387,0.00865
5424.78234,-0.00410
5426.71081,-0.00057
5428.63928,0.00904
5430.56774,0.01949
5432.49621,0.03463
5434.42468,0.04804
5436.35315,0.04648
5438.28162,0.02854
5440.21009,0.01522
5442.13856,0.01899
5444.06702,0.02315
5445.99549,0.01351
5447.92396,0.00056
5449.85243,0.00040
5451.78090,0.00041
5453.70937,-0.00672
5455.63784,-0.00244
5457.56631,0.01797
5459.49477,0.03443
5461.42324,0.04182
5463.35171,0.04770
5465.28018,0.04630
5467.20865,0.03340
5469.13712,0.01834
5471.06559,0.00911
5472.99405,0.00101
5474.92252,-0.00987
5476.85099,-0.01680
5478.77946,-0.02184
5480.70793,-0.02502
5482.63640,-0.01061
5484.56487,0.01675
5486.49334,0.03604
5488.42180,0.04577
5490.35027,0.05308
5492.27874,0.05290
5494.20721,0.03580
5496.13568,0.01831
5498.06415,0.01421
5499.99262,0.00739
5501.92108,-0.00142
5503.84955,0.00554
5505.77802,0.02047
5507.70649,0.03185
5509.63496,0.03793
5511.56343,0.04290
5513.49190,0.05131
5515.42037,0.04137
5517.34883,0.01220
5519.27730,0.00048
5521.20577,0.00468
5523.13424,0.01114
5525.06271,0.02017
5526.99118,0.02102
5528.91965,0.02085
5530.84811,0.03690
5532.77658,0.05331
5534.70505,0.04694
5536.63352,0.03068
5538.56199,0.03378
5540.49046,0.05124
5542.41893,0.04674
5544.34740,0.01895
5546.27586,0.00476
5548.20433,0.00996
5550.13280,0.01695
5552.06127,0.01639
5553.98974,0.01805
5555.91821,0.04246
5557.84668,0.06711
5559.77514,0.06738
5561.70361,0.06860
5563.63208,0.07356
5565.56055,0.06398
5567.48902,0.05032
5569.41749,0.04133
5571.34596,0.03357
5573.27443,0.02876
5575.20289,0.02337
5577.13136,0.00798
5579.05983,-0.01242
5580.98830,-0.01484
5582.91677,0.01017
5584.84524,0.03317
5586.77371,0.03574
5588.70217,0.03876
5590.63064,0.04490
5592.55911,0.03975
5594.48758,0.03628
5596.41605,0.03427
5598.34452,0.01801
5600.27299,-0.00076
5602.20145,-0.00094
5604.12992,0.00649
5606.05839,0.00052
5607.98686,-0.00468
5609.91533,0.01026
5611.84380,0.03336
5613.77227,0.04176
5615.70074,0.02830
5617.62920,0.01242
5619.55767,0.01966
5621.48614,0.03602
5623.41461,0.02859
5625.34308,0.00342
5627.27155,-0.00709
5629.20002,0.01141
5631.12848,0.03711
5633.05695,0.03864
5634.98542,0.01307
5636.91389,-0.00792
5638.84236,-0.00451
5640.77083,0.01339
5642.69930,0.04089
5644.62777,0.06010
5646.55623,0.04294
5648.48470,0.01859
5650.41317,0.02219
5652.34164,0.02994
5654.27011,0.02937
5656.19858,0.02295
5658.12705,0.00494
5660.05551,-0.00279
5661.98398,0.00657
5663.91245,0.01546
5665.84092,0.02682
5667.76939,0.03927
5669.69786,0.04486
5671.62633,0.03929
5673.55480,0.02431
5675.48326,0.01209
5677.41173,0.01495
5679.34020,0.03469
5681.26867,0.04699
5683.19714,0.02957
5685.12561,0.00568
5687.05408,0.00623
5688.98254,0.01735
5690.91101,0.01079
5692.83948,-0.00127
5694.76795,0.00186
5696.69642,0.01029
5698.62489,0.02220
5700.55336,0.03911
5702.48183,0.03221
5704.41029,0.00794
5706.33876,0.00580
5708.26723,0.02813
5710.19570,0.05515
5712.12417,0.07015
5714.05264,0.06685
5715.98111,0.05607
5717.90957,0.04502
5719.83804,0.03670
5721.76651,0.03836
5723.69498,0.04534
5725.62345,0.04107
5727.55192,0.02679
5729.48039,0.02011
5731.40886,0.01810
5733.33732,0.01123
5735.26579,0.00676
5737.19426,0.01119
5739.12273,0.02189
5741.05120,0.01975
5742.97967,0.00122
5744.90814,0.00168
5746.83660,0.02273
5748.76507,0.02756
5750.69354,0.01219
5752.62201,0.00998
5754.55048,0.02210
5756.47895,0.02237
5758.40742,0.02290
5760.33588,0.02822
5762.26435,0.02217
5764.19282,0.01949
5766.12129,0.03553
5768.04976,0.05501
5769.97823,0.05348
5771.90670,0.03604
5773.83517,0.02364
5775.76363,0.02345
5777.69210,0.04200
5779.62057,0.06222
5781.54904,0.05881
5783.47751,0.04267
5785.40598,0.03623
5787.33445,0.03804
5789.26291,0.03788
5791.19138,0.04062
5793.11985,0.05123
5795.04832,0.06287
5796.97679,0.06311
5798.90526,0.05206
5800.83373,0.04888
5802.76220,0.06400
5804.69066,0.07725
5806.61913,0.07295
5808.54760,0.05830
5810.47607,0.04027
5812.40454,0.02801
5814.33301,0.02271
5816.26148,0.02528
5818.18994,0.03455
5820.11841,0.03386
5822.04688,0.02950
5823.97535,0.03964
5825.90382,0.05292
5827.83229,0.05363
5829.76076,0.04864
5831.68923,0.04954
5833.61769,0.06194
5835.54616,0.07113
5837.47463,0.04142
5839.40310,-0.01235
5841.33157,-0.02514
5843.26004,0.01881
5845.18851,0.07154
5847.11697,0.09148
5849.04544,0.06156
5850.97391,0.01064
5852.90238,-0.01396
5854.83085,-0.02023
5856.75932,-0.02814
5858.68779,-0.03507
5860.61626,-0.02332
5862.54472,0.01738
5864.47319,0.05815
5866.40166,0.06512
5868.33013,0.05541
5870.25860,0.06657
5872.18707,0.08705
5874.11554,0.08642
5876.04400,0.06068
5877.97247,0.03120
5879.90094,0.02697
5881.82941,0.04839
5883.75788,0.07597
5885.68635,0.08893
5887.61482,0.08446
5889.54329,0.08545
5891.47175,0.09173
5893.40022,0.08451
5895.32869,0.05837
5897.25716,0.03031
5899.18563,0.02629
5901.11410,0.03848
5903.04257,0.04392
5904.97103,0.03798
5906.89950,0.01815
5908.82797,0.00028
5910.75644,0.01833
5912.68491,0.06531
5914.61338,0.09839
5916.54185,0.09030
5918.47032,0.05376
5920.39878,0.02643
5922.32725,0.01403
5924.25572,0.00023
5926.18419,0.00520
5928.11266,0.02872
5930.04113,0.03132
5931.96960,0.02143
5933.89806,0.02729
5935.82653,0.03404
5937.75500,0.02677
5939.68347,0.02292
5941.61194,0.01659
5943.54041,-0.01577
5945.46888,-0.04371
5947.39734,-0.02686
5949.32581,0.01820
5951.25428,0.03957
5953.18275,0.02930
5955.11122,0.04007
5957.03969,0.07769
5958.96816,0.09228
5960.89663,0.06659
5962.82509,0.02560
5964.75356,0.00855
5966.68203,0.01970
5968.61050,0.02474
5970.53897,0.03663
5972.46744,0.07575
5974.39591,0.10061
5976.32437,0.07484
5978.25284,0.01438
5980.18131,-0.02757
5982.10978,-0.00618
5984.03825,0.04972
5985.96672,0.06642
5987.89519,0.04471
5989.82366,0.03642
5991.75212,0.03643
5993.68059,0.03967
5995.60906,0.06479
5997.53753,0.07994
5999.46600,0.06049
6001.39447,0.03129
6003.32294,0.02021
6005.25140,0.04244
6007.17987,0.07289
6009.10834,0.07345
6011.03681,0.05019
6012.96528,0.01074
6014.89375,-0.02434
6016.82222,-0.01124
6018.75069,0.02073
6020.67915,0.02889
6022.60762,0.03550
6024.53609,0.04379
6026.46456,0.05691
6028.39303,0.08673
6030.32150,0.11365
6032.24997,0.11672
6034.17843,0.09469
6036.10690,0.05942
6038.03537,0.03285
6039.96384,0.01838
6041.89231,0.00680
6043.82078,0.00861
6045.74925,0.03322
6047.67772,0.05347
6049.60618,0.03747
6051.53465,0.03027
6053.46312,0.07101
6055.39159,0.10382
6057.32006,0.08650
6059.24853,0.05408
6061.17700,0.04119
6063.10546,0.04684
6065.03393,0.06209
6066.96240,0.06910
6068.89087,0.03988
6070.81934,-0.00851
6072.74781,-0.03119
6074.67628,-0.02601
6076.60475,-0.01455
6078.53321,0.00560
6080.46168,0.03894
6082.39015,0.06807
6084.31862,0.08445
6086.24709,0.08937
6088.17556,0.06753
6090.10403,0.03436
6092.03249,0.02089
6093.96096,0.00683
6095.88943,-0.00586
6097.81790,0.00307
6099.74637,0.01061
6101.67484,0.01100
6103.60331,-0.00094
6105.53177,-0.04527
6107.46024,-0.09324
6109.38871,-0.08928
6111.31718,-0.03542
6113.24565,0.00894
6115.17412,0.01258
6117.10259,0.00642
6119.03106,0.03026
6120.95952,0.06759
6122.88799,0.08701
6124.81646,0.09139
6126.74493,0.07005
6128.67340,0.01202
6130.60187,-0.03713
6132.53034,-0.02076
6134.45880,0.04409
6136.38727,0.07920
6138.31574,0.06447
6140.24421,0.04968
6142.17268,0.03943
6144.10115,0.02614
6146.02962,0.03008
6147.95809,0.02169
6149.88655,-0.01388
6151.81502,-0.02774
6153.74349,-0.00723
6155.67196,0.01168
6157.60043,0.01945
6159.52890,0.03266
6161.45737,0.05151
6163.38583,0.04877
6165.31430,0.02261
6167.24277,0.00760
6169.17124,0.02701
6171.09971,0.06558
6173.02818,0.07350
6174.95665,0.05090
6176.88512,0.06747
6178.81358,0.10925
6180.74205,0.09812
6182.67052,0.05543
6184.59899,0.03033
6186.52746,0.03891
6188.45593,0.06734
6190.38440,0.05970
6192.31286,0.02243
6194.24133,0.01354
6196.16980,0.03456
6198.09827,0.04646
6200.02674,0.03508
6201.95521,-0.00359
6203.88368,-0.04009
6205.81215,-0.03674
6207.74061,-0.03392
6209.66908,-0.06659
6211.59755,-0.07575
6213.52602,-0.02490
6215.45449,0.01165
6217.38296,0.00303
6219.31143,0.02495
6221.23989,0.07210
6223.16836,0.04136
6225.09683,-0.04640
6227.02530,-0.07670
6228.95377,-0.05008
6230.88224,-0.01602
6232.81071,0.01990
6234.73918,0.06681
6236.66764,0.08486
6238.59611,0.04994
6240.52458,0.01693
6242.45305,0.01313
6244.38152,0.00066
6246.30999,-0.00673
6248.23846,0.02626
6250.16692,0.05337
6252.09539,0.04705
6254.02386,0.03513
6255.95233,0.01859
6257.88080,-0.00014
6259.80927,-0.01274
6261.73774,-0.01730
6263.66621,-0.00504
6265.59467,0.02829
6267.52314,0.03907
6269.45161,0.00401
6271.38008,-0.02522
6273.30855,-0.01254
6275.23702,0.02437
6277.16549,0.03919
6279.09395,0.02916
6281.02242,0.01646
6282.95089,0.00008
6284.87936,-0.00495
6286.80783,0.01463
6288.73630,0.03200
6290.66477,0.02175
6292.59323,-0.00114
6294.52170,0.00728
6296.45017,0.04473
6298.37864,0.03653
6300.30711,-0.01623
6302.23558,-0.01112
6304.16405,0.04395
6306.09252,0.05979
6308.02098,0.03804
6309.94945,0.01655
6311.87792,-0.00171
6313.80639,-0.02765
6315.73486,-0.04287
6317.66333,-0.01325
6319.59180,0.03319
6321.52026,0.04070
6323.44873,0.03612
6325.37720,0.06586
6327.30567,0.08952
6329.23414,0.07766
6331.16261,0.07516
6333.09108,0.08370
6335.01955,0.08282
6336.94801,0.09057
6338.87648,0.09594
6340.80495,0.07197
6342.73342,0.01172
6344.66189,-0.04785
6346.59036,-0.03648
6348.51883,0.00964
6350.44729,-0.00036
6352.37576,-0.01984
6354.30423,-0.00096
6356.23270,0.01707
6358.16117,0.03137
6360.08964,0.04422
6362.01811,0.02977
6363.94658,-0.01169
6365.87504,-0.03395
6367.80351,-0.01123
6369.73198,0.00636
6371.66045,0.01266
6373.58892,0.01879
6375.51739,-0.00616
6377.44586,-0.02303
6379.37432,0.00563
6381.30279,0.03755
6383.23126,0.01549
6385.15973,-0.03990
6387.08820,-0.04701
6389.01667,-0.01818
6390.94514,-0.00254
6392.87361,0.00313
6394.80207,0.00497
6396.73054,0.02029
6398.65901,0.07462
6400.58748,0.11177
6402.51595,0.06662
6404.44442,-0.00343
6406.37289,-0.02106
6408.30135,-0.00840
6410.22982,-0.01904
6412.15829,-0.03567
6414.08676,-0.00935
6416.01523,0.06614
6417.94370,0.12161
6419.87217,0.08063
6421.80064,0.02112
6423.72910,0.01924
6425.65757,0.04384
6427.58604,0.06145
6429.51451,0.09105
6431.44298,0.11536
6433.37145,0.08319
6435.29992,0.01567
6437.22838,-0.02159
6439.15685,-0.01384
6441.08532,-0.00405
6443.01379,-0.00185
6444.94226,-0.01476
6446.87073,-0.02610
6448.79920,0.00345
6450.72766,0.05129
6452.65613,0.05973
6454.58460,0.04131
6456.51307,0.04545
6458.44154,0.07924
6460.37001,0.08326
6462.29848,0.03631
6464.22695,0.00229
6466.15541,0.01338
6468.08388,0.05377
6470.01235,0.09055
6471.94082,0.06500
6473.86929,0.00647
6475.79776,-0.00861
6477.72623,0.00454
6479.65469,-0.00994
6481.58316,-0.01758
6483.51163,0.01759
6485.44010,0.04114
6487.36857,0.04342
6489.29704,0.05157
6491.22551,0.04352
6493.15398,0.01579
6495.08244,-0.00388
6497.01091,-0.01517
6498.93938,-0.01108
6500.86785,0.04134
6502.79632,0.12647
6504.72479,0.15146
6506.65326,0.09747
6508.58172,0.04929
6510.51019,0.07090
6512.43866,0.11431
6514.36713,0.11006
6516.29560,0.08180
6518.22407,0.04772
6520.15254,0.00988
6522.08101,0.00876
6524.00947,0.04517
6525.93794,0.07285
6527.86641,0.07480
6529.79488,0.07100
6531.72335,0.07967
6533.65182,0.05869
6535.58029,0.00700
6537.50875,0.01518
6539.43722,0.06233
6541.36569,0.05728
6543.29416,0.01716
6545.22263,-0.02028
6547.15110,-0.03994
6549.07957,0.00531
6551.00804,0.10945
6552.93650,0.16528
6554.86497,0.14832
6556.79344,0.11490
6558.72191,0.08165
6560.65038,0.06139
6562.57885,0.06350
6564.50732,0.04762
6566.43578,0.01300
6568.36425,0.02983
6570.29272,0.07873
6572.22119,0.07511
6574.14966,0.03243
6576.07813,0.00170
6578.00660,-0.00994
6579.93507,-0.00495
6581.86353,0.00799
6583.79200,0.01856
6585.72047,0.01418
6587.64894,0.01833
6589.57741,0.05621
6591.50588,0.07474
6593.43435,0.03741
6595.36281,-0.01234
6597.29128,-0.02649
6599.21975,-0.00847
6601.14822,-0.00944
6603.07669,-0.01409
6605.00516,0.03241
6606.93363,0.06125
6608.86210,0.01960
6610.79056,-0.00542
6612.71903,0.01419
6614.64750,-0.00008
6616.57597,-0.04130
6618.50444,-0.05825
6620.43291,-0.03752
6622.36138,0.01787
6624.28984,0.05658
6626.21831,0.07130
6628.14678,0.10321
6630.07525,0.13650
6632.00372,0.14339
6633.93219,0.13740
6635.86066,0.12372
6637.78912,0.08936
6639.71759,0.05036
6641.64606,-0.00100
6643.57453,-0.04885
6645.50300,-0.02976
6647.43147,0.03007
6649.35994,0.06230
6651.28841,0.08038
6653.21687,0.09341
6655.14534,0.06451
6657.07381,0.01609
6659.00228,0.00955
6660.93075,0.00513
6662.85922,-0.02523
6664.78769,-0.05344
6666.71615,-0.07087
6668.64462,-0.06633
6670.57309,-0.02231
6672.50156,0.04685
6674.43003,0.09750
6676.35850,0.10595
6678.28697,0.06511
6680.21544,0.00845
6682.14390,0.00096
6684.07237,0.02968
6686.00084,0.02639
6687.92931,-0.00075
6689.85778,-0.00664
6691.78625,-0.00427
6693.71472,-0.01754
6695.64318,-0.03419
6697.57165,-0.02380
6699.50012,0.00984
6701.42859,0.01147
6703.35706,-0.01779
6705.28553,-0.00977
6707.21400,0.04775
6709.14247,0.09745
6711.07093,0.10101
6712.99940,0.09161
6714.92787,0.09382
6716.85634,0.08165
6718.78481,0.03528
6720.71328,-0.01492
6722.64175,-0.01753
6724.57021,0.00796
6726.49868,0.01827
6728.42715,0.01903
6730.35562,0.02840
6732.28409,0.04393
6734.21256,0.06033
6736.14103,0.09503
6738.06950,0.14378
6739.99796,0.16448
6741.92643,0.13736
6743.85490,0.10153
6745.78337,0.07193
6747.71184,0.02441
6749.64031,-0.01985
6751.56878,-0.02223
6753.49724,0.01545
6755.42571,0.07223
6757.35418,0.12246
6759.28265,0.13607
6761.21112,0.10608
6763.13959,0.06917
6765.06806,0.02620
6766.99653,-0.00956
6768.92499,0.00331
6770.85346,0.04903
6772.78193,0.08912
6774.71040,0.09976
6776.63887,0.06359
6778.56734,0.01894
6780.49581,0.02758
6782.42427,0.08577
6784.35274,0.10289
6786.28121,0.02909
6788.20968,-0.08450
6790.13815,-0.14263
6792.06662,-0.06200
6793.99509,0.05689
6795.92355,0.08698
6797.85202,0.07277
6799.78049,0.08748
6801.70896,0.14451
6803.63743,0.17579
6805.56590,0.11906
6807.49437,0.05017
6809.42284,0.01362
6811.35130,-0.00614
6813.27977,-0.02190
6815.20824,-0.04901
6817.13671,-0.03637
6819.06518,0.03497
6820.99365,0.07123
6822.92212,0.02706
6824.85058,0.01766
6826.77905,0.06696
6828.70752,0.08450
6830.63599,0.08293
6832.56446,0.07416
6834.49293,-0.00412
6836.42140,-0.10972
6838.34987,-0.11913
6840.27833,-0.08108
6842.20680,-0.04444
6844.13527,0.00450
6846.06374,0.02178
6847.99221,0.03592
6849.92068,0.09011
6851.84915,0.10511
6853.77761,0.05268
6855.70608,0.00597
6857.63455,0.03738
6859.56302,0.10939
6861.49149,0.16416
6863.41996,0.16740
6865.34843,0.12705
6867.27690,0.09364
6869.20536,0.10562
6871.13383,0.16655
6873.06230,0.22330
6874.99077,0.19218
6876.91924,0.10423
6878.84771,0.02166
6880.77618,-0.01121
6882.70464,0.00421
6884.63311,0.01304
6886.56158,0.02209
6888.49005,0.06849
6890.41852,0.09446
6892.34699,0.05316
6894.27546,0.02596
6896.20393,0.02996
6898.13239,0.01894
6900.06086,0.03045
6901.98933,0.07175
6903.91780,0.10031
6905.84627,0.11387
6907.77474,0.10145
6909.70321,0.05399
6911.63167,0.03873
6913.56014,0.07885
6915.48861,0.09830
6917.41708,0.08695
6919.34555,0.07319
6921.27402,0.03992
6923.20249,0.04729
6925.13096,0.10788
6927.05942,0.12407
6928.98789,0.07556
6930.91636,0.01391
6932.84483,0.00959
6934.77330,0.07550
6936.70177,0.09612
6938.63024,0.04242
6940.55870,0.02134
6942.48717,0.03585
6944.41564,-0.00674
6946.34411,-0.05358
6948.27258,-0.04438
6950.20105,-0.03872
6952.12952,-0.07717
6954.05799,-0.10005
6955.98645,-0.03527
6957.91492,0.05204
6959.84339,0.09098
6961.77186,0.09165
6963.70033,0.06495
6965.62880,0.01681
6967.55727,-0.02336
6969.48573,-0.00021
6971.41420,0.01606
6973.34267,-0.11323
6975.27114,-0.24729
6977.19961,-0.18682
6979.12808,-0.06609
6981.05655,0.01207
6982.98501,0.10174
6984.91348,0.17243
6986.84195,0.14937
6988.77042,0.10419
6990.69889,0.09878
6992.62736,0.09923
6994.55583,0.10663
6996.48430,0.13301
6998.41276,0.12348
7000.34123,0.04017
7002.26970,-0.05209
7004.19817,-0.09644
7006.12664,-0.06498
7008.05511,0.00875
7009.98358,0.03163
7011.91204,-0.00386
7013.84051,-0.04770
7015.76898,-0.04583
7017.69745,0.01550
7019.62592,0.06366
7021.55439,0.05177
7023.48286,0.03225
7025.41133,0.05597
7027.33979,0.13072
7029.26826,0.14810
7031.19673,0.06005
7033.12520,0.01319
7035.05367,0.02087
7036.98214,0.03615
7038.91061,0.06786
7040.83907,0.11407
7042.76754,0.13853
7044.69601,0.11090
7046.62448,0.08594
7048.55295,0.08863
7050.48142,0.10734
7052.40989,0.12195
7054.33836,0.06196
7056.26682,-0.05379
7058.19529,-0.09999
7060.12376,-0.05948
7062.05223,-0.00421
7063.98070,0.03577
7065.90917,0.04491
7067.83764,0.02994
7069.76610,0.04550
7071.69457,0.12835
7073.62304,0.16449
7075.55151,0.08229
7077.47998,-0.01325
7079.40845,-0.02079
7081.33692,0.02859
7083.26539,0.03862
7085.19385,0.00817
7087.12232,-0.05549
7089.05079,-0.08838
7090.97926,-0.06900
7092.90773,-0.07156
7094.83620,-0.09468
7096.76467,-0.09459
7098.69313,-0.06109
7100.62160,-0.01609
7102.55007,0.04776
7104.47854,0.12946
7106.40701,0.14336
7108.33548,0.05550
7110.26395,-0.01961
7112.19242,0.00667
7114.12088,0.09247
7116.04935,0.12303
7117.97782,0.05741
7119.90629,-0.00322
7121.83476,-0.00810
7123.76323,0.00436
7125.69170,0.01895
7127.62016,0.05293
7129.54863,0.09840
7131.47710,0.11896
7133.40557,0.10341
7135.33404,0.07175
7137.26251,0.05254
7139.19098,0.03324
7141.11944,0.02022
7143.04791,0.06464
7144.97638,0.11649
7146.90485,0.08282
7148.83332,0.03468
7150.76179,0.07025
7152.69026,0.13120
7154.61873,0.10341
7156.54719,0.06317
7158.47566,0.06929
7160.40413,0.02473
7162.33260,-0.06701
7164.26107,-0.07373
7166.18954,0.01321
7168.11801,0.05246
7170.04647,0.00146
7171.97494,-0.02769
7173.90341,0.03960
7175.83188,0.11889
7177.76035,0.06215
7179.68882,-0.05065
7181.61729,-0.06127
7183.54576,0.01491
7185.47422,0.06828
7187.40269,0.02759
7189.33116,-0.04522
7191.25963,-0.02442
7193.18810,0.06744
7195.11657,0.13007
7197.04504,0.14762
7198.97350,0.11225
7200.90197,0.00051
7202.83044,-0.13744
7204.75891,-0.14319
7206.68738,-0.04323
7208.61585,-0.04700
7210.54432,-0.07422
7212.47279,-0.00025
7214.40125,0.09707
7216.32972,0.12466
7218.25819,0.07762
7220.18666,-0.00867
7222.11513,-0.04889
7224.04360,-0.03086
7225.97207,0.00620
7227.90053,0.00107
7229.82900,-0.08343
7231.75747,-0.14409
7233.68594,-0.06911
7235.61441,0.04134
7237.54288,0.09695
7239.47135,0.10097
7241.39982,0.12527
7243.32828,0.18529
7245.25675,0.18364
7247.18522,0.11797
7249.11369,0.10188
7251.04216,0.22439
7252.97063,0.30962
7254.89910,0.17452
7256.82756,0.06984
7258.75603,0.04155
7260.68450,-0.00757
7262.61297,-0.07334
7264.54144,-0.05088
7266.46991,0.04421
7268.39838,0.09346
7270.32685,0.10306
7272.25531,0.11429
7274.18378,0.07556
7276.11225,0.02134
7278.04072,0.04053
7279.96919,0.09958
7281.89766,0.08786
7283.82613,0.05901
7285.75459,0.03061
7287.68306,-0.03089
7289.61153,-0.08388
7291.54000,-0.05242
7293.46847,0.04610
7295.39694,0.12090
7297.32541,0.12245
7299.25387,0.08906
7301.18234,0.10856
7303.11081,0.16745
7305.03928,0.12638
7306.96775,-0.05488
7308.89622,-0.16309
7310.82469,-0.08081
7312.75316,-0.02194
7314.68162,0.03002
7316.61009,0.10270
7318.53856,-0.04155
7320.46703,-0.23623
7322.39550,-0.18149
7324.32397,0.00531
7326.25244,0.08302
7328.18090,0.05308
7330.10937,-0.04200
7332.03784,-0.07721
7333.96631,-0.01384
7335.89478,0.02633
7337.82325,0.00793
7339.75172,-0.01025
7341.68019,0.00500
7343.60865,0.00126
7345.53712,-0.00265
7347.46559,-0.01237
7349.39406,-0.07648
7351.32253,-0.18125
7353.25100,-0.24736
7355.17947,-0.15639
7357.10793,0.05782
7359.03640,0.20552
7360.96487,0.29959
7362.89334,0.36097
7364.82181,0.26758
7366.75028,0.13464
7368.67875,0.11027
7370.60722,0.13136
7372.53568,0.16396
7374.46415,0.18869
7376.39262,0.13638
7378.32109,0.10806
7380.24956,0.09976
7382.17803,0.11759
7384.10650,0.23569
7386.03496,0.35070
7387.96343,0.36143
7389.89190,0.32733
7391.82037,0.24635
7393.74884,0.12443
7395.67731,0.07647
7397.60578,0.10057
7399.53425,0.14851
7401.46271,0.24622
7403.39118,0.34544
7405.31965,0.31685
7407.24812,0.16517
7409.17659,0.00179
7411.10506,-0.08950
7413.03353,-0.10884
7414.96199,-0.14025
7416.89046,-0.22752
7418.81893,-0.28088
7420.74740,-0.19330
7422.67587,-0.11474
7424.60434,-0.07631
7426.53281,0.02059
7428.46128,0.17618
7430.38974,0.25088
7432.31821,0.13259
7434.24668,-0.02124
7436.17515,-0.03451
7438.10362,0.08470
7440.03209,0.19788
7441.96056,0.21344
7443.88902,0.12833
7445.81749,0.01210
7447.74596,-0.02468
7449.67443,0.04574
7451.60290,0.11233
7453.53137,0.13115
7455.45984,0.15977
7457.38831,0.16648
7459.31677,0.11112
7461.24524,0.09412
7463.17371,0.17485
7465.10218,0.14881
7467.03065,-0.01363
7468.95912,-0.04455
7470.88759,0.03271
7472.81605,0.03663
7474.74452,0.01392
7476.67299,0.02502
7478.60146,0.05186
7480.52993,0.02981
7482.45840,-0.02576
7484.38687,0.04658
7486.31533,0.16722
7488.24380,0.13964
7490.17227,0.00332
7492.10074,-0.04532
7494.02921,0.01578
7495.95768,0.09188
7497.88615,0.12111
