399.19301,0.38187
401.12148,-0.05601
403.04995,0.14918
404.97842,0.20116
406.90689,0.09400
408.83536,-0.01240
410.76382,-0.03883
412.69229,-0.02757
414.62076,-0.01772
416.54923,0.01384
418.47770,0.04857
420.40617,0.02866
422.33464,0.05522
424.26311,0.11638
426.19157,0.07995
428.12004,-0.03054
430.04851,-0.11166
431.97698,-0.11696
433.90545,-0.06553
435.83392,0.01718
437.76239,0.08732
439.69085,0.13614
441.61932,0.15189
443.54779,0.08577
445.47626,0.00793
447.40473,0.00451
449.33320,0.03399
451.26167,0.03805
453.19013,0.02068
455.11860,0.00774
457.04707,0.01472
458.97554,0.04166
460.90401,0.07048
462.83248,0.07863
464.76095,0.06381
466.68942,0.05535
468.61788,0.06179
470.54635,0.12189
472.47482,0.39157
474.40329,0.67328
476.33176,0.43199
478.26023,0.13365
480.18870,0.01751
482.11716,-0.00592
484.04563,-0.00085
485.97410,0.01779
487.90257,0.04726
489.83104,0.08480
491.75951,0.09095
493.68798,0.07156
495.61645,0.05906
497.54491,0.04325
499.47338,0.03220
501.40185,0.04826
503.33032,0.06797
505.25879,0.07807
507.18726,0.07930
509.11573,0.05014
511.04419,0.02575
512.97266,0.03437
514.90113,0.04556
516.82960,0.04827
518.75807,0.03859
520.68654,0.00933
522.61501,0.00104
524.54348,0.03483
526.47194,0.06576
528.40041,0.06713
530.32888,0.05981
532.25735,0.05174
534.18582,0.03909
536.11429,0.03703
538.04276,0.04621
539.97122,0.04579
541.89969,0.04811
543.82816,0.06826
545.75663,0.08567
547.68510,0.07397
549.61357,0.03783
551.54204,0.02137
553.47051,0.04098
555.39897,0.05863
557.32744,0.05499
559.25591,0.04651
561.18438,0.02833
563.11285,0.00110
565.04132,0.00160
566.96979,0.03721
568.89825,0.07098
570.82672,0.08703
572.75519,0.08942
574.68366,0.07885
576.61213,0.06517
578.54060,0.05764
580.46907,0.06431
582.39754,0.07615
584.32600,0.06804
586.25447,0.05700
588.18294,0.05867
590.11141,0.05596
592.03988,0.05504
593.96835,0.05610
595.89682,0.05612
597.82528,0.06880
599.75375,0.07204
601.68222,0.05207
603.61069,0.04444
605.53916,0.06108
607.46763,0.07713
609.39610,0.08761
611.32456,0.09359
613.25303,0.08513
615.18150,0.07483
617.10997,0.07266
619.03844,0.06271
620.96691,0.05399
622.89538,0.06272
624.82385,0.07307
626.75231,0.07300
628.68078,0.07228
630.60925,0.07566
632.53772,0.07830
634.46619,0.08267
636.39466,0.08982
638.32313,0.09380
640.25159,0.08483
642.18006,0.06460
644.10853,0.05727
646.03700,0.06347
647.96547,0.06184
649.89394,0.05873
651.82241,0.06404
653.75088,0.06566
655.67934,0.05772
657.60781,0.05151
659.53628,0.05464
661.46475,0.05946
663.39322,0.06098
665.32169,0.05459
667.25016,0.03608
669.17862,0.03301
671.10709,0.05349
673.03556,0.06902
674.96403,0.07629
676.89250,0.07368
678.82097,0.06489
680.74944,0.05811
682.67791,0.05755
684.60637,0.06292
686.53484,0.06969
688.46331,0.06736
690.39178,0.05491
692.32025,0.04793
694.24872,0.05515
696.17719,0.06616
698.10565,0.06968
700.03412,0.06784
701.96259,0.06341
703.89106,0.05745
705.81953,0.05611
707.74800,0.05833
709.67647,0.05925
711.60494,0.05973
713.53340,0.05772
715.46187,0.05459
717.39034,0.05624
719.31881,0.06028
721.24728,0.06439
723.17575,0.07086
725.10422,0.07615
727.03268,0.07483
728.96115,0.06970
730.88962,0.06421
732.81809,0.05711
734.74656,0.05449
736.67503,0.06068
738.60350,0.06590
740.53197,0.06923
742.46043,0.08028
744.38890,0.08700
746.31737,0.07772
748.24584,0.06916
750.17431,0.07287
752.10278,0.08175
754.03125,0.08621
755.95971,0.08858
757.88818,0.09557
759.81665,0.09967
761.74512,0.09590
763.67359,0.08816
765.60206,0.07576
767.53053,0.06094
769.45900,0.05400
771.38746,0.06133
773.31593,0.07595
775.24440,0.08165
777.17287,0.07598
779.10134,0.07384
781.02981,0.07836
782.95828,0.08044
784.88674,0.07442
786.81521,0.06549
788.74368,0.06725
790.67215,0.07991
792.60062,0.09012
794.52909,0.09085
796.45756,0.08791
798.38602,0.08574
800.31449,0.07978
802.24296,0.07149
804.17143,0.07117
806.09990,0.07804
808.02837,0.08045
809.95684,0.07874
811.88531,0.08308
813.81377,0.09132
815.74224,0.09204
817.67071,0.08329
819.59918,0.07637
821.52765,0.07902
823.45612,0.08196
825.38459,0.07991
827.31305,0.07765
829.24152,0.07264
831.16999,0.06689
833.09846,0.06584
835.02693,0.06444
836.95540,0.05823
838.88387,0.05720
840.81234,0.06746
842.74080,0.07533
844.66927,0.07307
846.59774,0.07085
848.52621,0.07471
850.45468,0.07866
852.38315,0.07601
854.31162,0.06901
856.24008,0.06832
858.16855,0.07563
860.09702,0.08033
862.02549,0.08188
863.95396,0.08051
865.88243,0.07483
867.81090,0.08160
869.73937,0.10372
871.66783,0.11203
873.59630,0.09782
875.52477,0.08386
877.45324,0.07581
879.38171,0.06811
881.31018,0.06713
883.23865,0.07278
885.16711,0.07784
887.09558,0.08045
889.02405,0.08085
890.95252,0.08057
892.88099,0.08256
894.80946,0.08291
896.73793,0.07975
898.66640,0.07833
900.59486,0.07586
902.52333,0.07153
904.45180,0.07236
906.38027,0.07729
908.30874,0.08174
910.23721,0.08351
912.16568,0.08138
914.09414,0.07898
916.02261,0.08081
917.95108,0.08694
919.87955,0.09348
921.80802,0.09541
923.73649,0.09245
925.66496,0.08651
927.59343,0.07993
929.52189,0.07811
931.45036,0.07999
933.37883,0.07900
935.30730,0.07730
937.23577,0.07805
939.16424,0.07909
941.09271,0.08147
943.02117,0.08214
944.94964,0.07718
946.87811,0.07347
948.80658,0.07658
950.73505,0.08220
952.66352,0.08548
954.59199,0.08745
956.52045,0.08970
958.44892,0.09072
960.37739,0.08812
962.30586,0.08247
964.23433,0.07863
966.16280,0.07771
968.09127,0.07706
970.01974,0.07571
971.94820,0.07600
973.87667,0.08120
975.80514,0.08799
977.73361,0.08773
979.66208,0.08012
981.59055,0.07631
983.51902,0.07903
985.44748,0.08122
987.37595,0.08093
989.30442,0.07879
991.23289,0.07721
993.16136,0.08042
995.08983,0.08512
997.01830,0.08415
998.94677,0.07937
1000.87523,0.07617
1002.80370,0.07511
1004.73217,0.07714
1006.66064,0.08275
1008.58911,0.08591
1010.51758,0.08397
1012.44605,0.08224
1014.37451,0.08114
1016.30298,0.08013
1018.23145,0.08206
1020.15992,0.08603
1022.08839,0.08799
1024.01686,0.08499
1025.94533,0.08003
1027.87380,0.07683
1029.80226,0.07605
1031.73073,0.07861
1033.65920,0.08358
1035.58767,0.08670
1037.51614,0.08377
1039.44461,0.07717
1041.37308,0.07516
1043.30154,0.07907
1045.23001,0.08453
1047.15848,0.08989
1049.08695,0.09026
1051.01542,0.08528
1052.94389,0.08370
1054.87236,0.08684
1056.80083,0.08780
1058.72929,0.08533
1060.65776,0.08559
1062.58623,0.08937
1064.51470,0.09067
1066.44317,0.08831
1068.37164,0.08787
1070.30011,0.08987
1072.22857,0.08898
1074.15704,0.08831
1076.08551,0.09210
1078.01398,0.09603
1079.94245,0.09647
1081.87092,0.09506
1083.79939,0.09539
1085.72786,0.09565
1087.65632,0.09188
1089.58479,0.08564
1091.51326,0.08078
1093.44173,0.08197
1095.37020,0.08892
1097.29867,0.09508
1099.22714,0.09798
1101.15560,0.09685
1103.08407,0.09075
1105.01254,0.08609
1106.94101,0.08774
1108.86948,0.08899
1110.79795,0.08407
1112.72642,0.07775
1114.65489,0.07398
1116.58335,0.07333
1118.51182,0.07675
1120.44029,0.07993
1122.36876,0.07892
1124.29723,0.07741
1126.22570,0.08021
1128.15417,0.08582
1130.08263,0.08859
1132.01110,0.08711
1133.93957,0.08488
1135.86804,0.08590
1137.79651,0.08876
1139.72498,0.08870
1141.65345,0.08675
1143.58191,0.08629
1145.51038,0.08808
1147.43885,0.09092
1149.36732,0.09128
1151.29579,0.08717
1153.22426,0.08307
1155.15273,0.08472
1157.08120,0.09049
1159.00966,0.09422
1160.93813,0.09392
1162.86660,0.09086
1164.79507,0.08779
1166.72354,0.08986
1168.65201,0.09529
1170.58048,0.09646
1172.50894,0.09478
1174.43741,0.09669
1176.36588,0.09987
1178.29435,0.09869
1180.22282,0.09401
1182.15129,0.08862
1184.07976,0.08599
1186.00823,0.08830
1187.93669,0.09219
1189.86516,0.09193
1191.79363,0.08690
1193.72210,0.08467
1195.65057,0.08896
1197.57904,0.09368
1199.50751,0.09221
1201.43597,0.08816
1203.36444,0.08880
1205.29291,0.09087
1207.22138,0.09099
1209.14985,0.09237
1211.07832,0.09488
1213.00679,0.09559
1214.93526,0.09337
1216.86372,0.08872
1218.79219,0.08670
1220.72066,0.09033
1222.64913,0.09344
1224.57760,0.09429
1226.50607,0.09740
1228.43454,0.10081
1230.36300,0.09962
1232.29147,0.09407
1234.21994,0.08934
1236.14841,0.09069
1238.07688,0.09584
1240.00535,0.09687
1241.93382,0.09416
1243.86229,0.09343
1245.79075,0.09317
1247.71922,0.09048
1249.64769,0.08793
1251.57616,0.08939
1253.50463,0.09325
1255.43310,0.09557
1257.36157,0.09687
1259.29003,0.09718
1261.21850,0.09557
1263.14697,0.09463
1265.07544,0.09429
1267.00391,0.09203
1268.93238,0.09058
1270.86085,0.09301
1272.78932,0.09538
1274.71778,0.09412
1276.64625,0.09278
1278.57472,0.09439
1280.50319,0.09573
1282.43166,0.09443
1284.36013,0.09318
1286.28860,0.09382
1288.21706,0.09561
1290.14553,0.09753
1292.07400,0.09961
1294.00247,0.10049
1295.93094,0.09818
1297.85941,0.09602
1299.78788,0.09561
1301.71634,0.09425
1303.64481,0.09289
1305.57328,0.09375
1307.50175,0.09535
1309.43022,0.09572
1311.35869,0.09620
1313.28716,0.09652
1315.21563,0.09658
1317.14409,0.09839
1319.07256,0.09931
1321.00103,0.09877
1322.92950,0.09978
1324.85797,0.10126
1326.78644,0.10126
1328.71491,0.09932
1330.64337,0.09614
1332.57184,0.09531
1334.50031,0.09857
1336.42878,0.10231
1338.35725,0.10311
1340.28572,0.10191
1342.21419,0.10070
1344.14266,0.09928
1346.07112,0.09811
1347.99959,0.09718
1349.92806,0.09588
1351.85653,0.09540
1353.78500,0.09639
1355.71347,0.09826
1357.64194,0.09929
1359.57040,0.09841
1361.49887,0.09733
1363.42734,0.09744
1365.35581,0.09806
1367.28428,0.09941
1369.21275,0.10196
1371.14122,0.10471
1373.06969,0.10561
1374.99815,0.10336
1376.92662,0.10120
1378.85509,0.10072
1380.78356,0.10080
1382.71203,0.10249
1384.64050,0.10632
1386.56897,0.10897
1388.49743,0.10544
1390.42590,0.10074
1392.35437,0.10234
1394.28284,0.10746
1396.21131,0.10791
1398.13978,0.10513
1400.06825,0.10397
1401.99672,0.10412
1403.92518,0.10592
1405.85365,0.10626
1407.78212,0.10289
1409.71059,0.10130
1411.63906,0.10360
1413.56753,0.10666
1415.49600,0.10960
1417.42446,0.11349
1419.35293,0.11448
1421.28140,0.11053
1423.20987,0.10632
1425.13834,0.10338
1427.06681,0.10420
1428.99528,0.10820
1430.92375,0.10972
1432.85221,0.10878
1434.78068,0.11094
1436.70915,0.11449
1438.63762,0.11216
1440.56609,0.10721
1442.49456,0.10324
1444.42303,0.10255
1446.35149,0.10541
1448.27996,0.10512
1450.20843,0.10128
1452.13690,0.10228
1454.06537,0.10985
1455.99384,0.12321
1457.92231,0.12920
1459.85077,0.11966
1461.77924,0.11560
1463.70771,0.11718
1465.63618,0.11515
1467.56465,0.11088
1469.49312,0.11182
1471.42159,0.11958
1473.35006,0.12629
1475.27852,0.12263
1477.20699,0.11675
1479.13546,0.11341
1481.06393,0.11282
1482.99240,0.11418
1484.92087,0.11684
1486.84934,0.12303
1488.77780,0.13072
1490.70627,0.12597
1492.63474,0.11668
1494.56321,0.11800
1496.49168,0.12530
1498.42015,0.12518
1500.34862,0.12055
1502.27709,0.12126
1504.20555,0.13045
1506.13402,0.14647
1508.06249,0.14291
1509.99096,0.12833
1511.91943,0.12263
1513.84790,0.12250
1515.77637,0.12750
1517.70483,0.13559
1519.63330,0.14362
1521.56177,0.14665
1523.49024,0.13788
1525.41871,0.12905
1527.34718,0.12226
1529.27565,0.11689
1531.20412,0.11788
1533.13258,0.12397
1535.06105,0.12707
1536.98952,0.13133
1538.91799,0.14775
1540.84646,0.16493
1542.77493,0.15399
1544.70340,0.13327
1546.63186,0.11943
1548.56033,0.11759
1550.48880,0.12115
1552.41727,0.12486
1554.34574,0.12965
1556.27421,0.13819
1558.20268,0.15129
1560.13115,0.14035
1562.05961,0.12232
1563.98808,0.11471
1565.91655,0.11355
1567.84502,0.11811
1569.77349,0.12226
1571.70196,0.12046
1573.63043,0.12095
1575.55889,0.12322
1577.48736,0.11679
1579.41583,0.10877
1581.34430,0.10492
1583.27277,0.10260
1585.20124,0.10141
1587.12971,0.10269
1589.05818,0.10511
1590.98664,0.10378
1592.91511,0.09985
1594.84358,0.09977
1596.77205,0.10246
1598.70052,0.10443
1600.62899,0.10555
1602.55746,0.10385
1604.48592,0.10164
1606.41439,0.10338
1608.34286,0.10622
1610.27133,0.10650
1612.19980,0.10662
1614.12827,0.11140
1616.05674,0.11914
1617.98521,0.11927
1619.91367,0.11764
1621.84214,0.12148
1623.77061,0.12337
1625.69908,0.11922
1627.62755,0.11624
1629.55602,0.11566
1631.48449,0.11650
1633.41295,0.12250
1635.34142,0.13435
1637.26989,0.13437
1639.19836,0.12524
1641.12683,0.12124
1643.05530,0.12341
1644.98377,0.13270
1646.91223,0.14409
1648.84070,0.14191
1650.76917,0.14099
1652.69764,0.14988
1654.62611,0.14047
1656.55458,0.12357
1658.48305,0.11743
1660.41152,0.12025
1662.33998,0.12406
1664.26845,0.12137
1666.19692,0.12155
1668.12539,0.13213
1670.05386,0.14154
1671.98233,0.13635
1673.91080,0.13083
1675.83926,0.12855
1677.76773,0.12599
1679.69620,0.12746
1681.62467,0.13875
1683.55314,0.15587
1685.48161,0.14825
1687.41008,0.13066
1689.33855,0.12403
1691.26701,0.12214
1693.19548,0.12276
1695.12395,0.12898
1697.05242,0.13697
1698.98089,0.13882
1700.90936,0.13252
1702.83783,0.12713
1704.76629,0.12737
1706.69476,0.12462
1708.62323,0.11650
1710.55170,0.11100
1712.48017,0.11328
1714.40864,0.12367
1716.33711,0.13583
1718.26558,0.13357
1720.19404,0.12221
1722.12251,0.11628
1724.05098,0.11451
1725.97945,0.11459
1727.90792,0.11665
1729.83639,0.11880
1731.76486,0.12234
1733.69332,0.12827
1735.62179,0.12619
1737.55026,0.12128
1739.47873,0.12194
1741.40720,0.12534
1743.33567,0.12512
1745.26414,0.12355
1747.19261,0.12631
1749.12107,0.13056
1751.04954,0.12775
1752.97801,0.12204
1754.90648,0.12103
1756.83495,0.12202
1758.76342,0.12137
1760.69189,0.12155
1762.62035,0.12086
1764.54882,0.11721
1766.47729,0.11503
1768.40576,0.11834
1770.33423,0.12776
1772.26270,0.13305
1774.19117,0.12609
1776.11964,0.11843
1778.04810,0.11570
1779.97657,0.11707
1781.90504,0.11870
1783.83351,0.11867
1785.76198,0.11790
1787.69045,0.11821
1789.61892,0.12254
1791.54738,0.12742
1793.47585,0.12566
1795.40432,0.12200
1797.33279,0.12169
1799.26126,0.12330
1801.18973,0.12247
1803.11820,0.11887
1805.04666,0.11683
1806.97513,0.11725
1808.90360,0.11847
1810.83207,0.11816
1812.76054,0.11599
1814.68901,0.11573
1816.61748,0.11843
1818.54595,0.12009
1820.47441,0.11868
1822.40288,0.11793
1824.33135,0.11968
1826.25982,0.12188
1828.18829,0.12518
1830.11676,0.12621
1832.04523,0.12136
1833.97369,0.11770
1835.90216,0.11708
1837.83063,0.11526
1839.75910,0.11331
1841.68757,0.11635
1843.61604,0.12238
1845.54451,0.12203
1847.47298,0.11622
1849.40144,0.11133
1851.32991,0.10951
1853.25838,0.11043
1855.18685,0.11129
1857.11532,0.11089
1859.04379,0.11065
1860.97226,0.11156
1862.90072,0.11305
1864.82919,0.11502
1866.75766,0.12014
1868.68613,0.12447
1870.61460,0.11857
1872.54307,0.11115
1874.47154,0.11105
1876.40001,0.11487
1878.32847,0.11650
1880.25694,0.11475
1882.18541,0.11284
1884.11388,0.11266
1886.04235,0.11375
1887.97082,0.11643
1889.89929,0.11792
1891.82775,0.11579
1893.75622,0.11479
1895.68469,0.11525
1897.61316,0.11428
1899.54163,0.11365
1901.47010,0.11353
1903.39857,0.11227
1905.32704,0.11110
1907.25550,0.11194
1909.18397,0.11302
1911.11244,0.11197
1913.04091,0.11089
1914.96938,0.11187
1916.89785,0.11375
1918.82632,0.11462
1920.75478,0.11569
1922.68325,0.11713
1924.61172,0.11637
1926.54019,0.11440
1928.46866,0.11311
1930.39713,0.11229
1932.32560,0.11148
1934.25407,0.11127
1936.18253,0.11230
1938.11100,0.11407
1940.03947,0.11680
1941.96794,0.11935
1943.89641,0.11866
1945.82488,0.11563
1947.75335,0.11271
1949.68181,0.11110
1951.61028,0.11193
1953.53875,0.11365
1955.46722,0.11356
1957.39569,0.11303
1959.32416,0.11451
1961.25263,0.11637
1963.18110,0.11640
1965.10956,0.11648
1967.03803,0.11757
1968.96650,0.11653
1970.89497,0.11437
1972.82344,0.11442
1974.75191,0.11504
1976.68038,0.11390
1978.60884,0.11215
1980.53731,0.11242
1982.46578,0.11435
1984.39425,0.11516
1986.32272,0.11446
1988.25119,0.11362
1990.17966,0.11416
1992.10812,0.11574
1994.03659,0.11639
1995.96506,0.11625
1997.89353,0.11564
1999.82200,0.11465
2001.75047,0.11461
2003.67894,0.11513
2005.60741,0.11482
2007.53587,0.11400
2009.46434,0.11317
2011.39281,0.11300
2013.32128,0.11383
2015.24975,0.11504
2017.17822,0.11552
2019.10669,0.11407
2021.03515,0.11277
2022.96362,0.11318
2024.89209,0.11400
2026.82056,0.11500
2028.74903,0.11500
2030.67750,0.11317
2032.60597,0.11173
2034.53444,0.11180
2036.46290,0.11287
2038.39137,0.11425
2040.31984,0.11491
2042.24831,0.11536
2044.17678,0.11678
2046.10525,0.11772
2048.03372,0.11667
2049.96218,0.11514
2051.89065,0.11406
2053.81912,0.11339
2055.74759,0.11443
2057.67606,0.11616
2059.60453,0.11613
2061.53300,0.11523
2063.46147,0.11556
2065.38993,0.11730
2067.31840,0.11839
2069.24687,0.11719
2071.17534,0.11595
2073.10381,0.11705
2075.03228,0.11897
2076.96075,0.11987
2078.88921,0.11927
2080.81768,0.11805
2082.74615,0.11755
2084.67462,0.11752
2086.60309,0.11752
2088.53156,0.11758
2090.46003,0.11796
2092.38850,0.11871
2094.31696,0.11825
2096.24543,0.11695
2098.17390,0.11743
2100.10237,0.11843
2102.03084,0.11769
2103.95931,0.11693
2105.88778,0.11736
2107.81624,0.11837
2109.74471,0.11944
2111.67318,0.11957
2113.60165,0.11870
2115.53012,0.11801
2117.45859,0.11808
2119.38706,0.11855
2121.31553,0.11894
2123.24399,0.11980
2125.17246,0.12066
2127.10093,0.11987
2129.02940,0.11851
2130.95787,0.11814
2132.88634,0.11800
2134.81481,0.11686
2136.74327,0.11444
2138.67174,0.11266
2140.60021,0.11322
2142.52868,0.11496
2144.45715,0.11599
2146.38562,0.11615
2148.31409,0.11656
2150.24255,0.11719
2152.17102,0.11643
2154.09949,0.11448
2156.02796,0.11388
2157.95643,0.11459
2159.88490,0.11463
2161.81337,0.11369
2163.74184,0.11273
2165.67030,0.11334
2167.59877,0.11477
2169.52724,0.11460
2171.45571,0.11415
2173.38418,0.11520
2175.31265,0.11604
2177.24112,0.11595
2179.16958,0.11552
2181.09805,0.11528
2183.02652,0.11601
2184.95499,0.11666
2186.88346,0.11583
2188.81193,0.11435
2190.74040,0.11440
2192.66887,0.11658
2194.59733,0.11882
2196.52580,0.11903
2198.45427,0.11809
2200.38274,0.11767
2202.31121,0.11774
2204.23968,0.11802
2206.16815,0.11743
2208.09661,0.11544
2210.02508,0.11377
2211.95355,0.11385
2213.88202,0.11624
2215.81049,0.11937
2217.73896,0.11965
2219.66743,0.11749
2221.59590,0.11646
2223.52436,0.11684
2225.45283,0.11712
2227.38130,0.11678
2229.30977,0.11645
2231.23824,0.11725
2233.16671,0.11936
2235.09518,0.12105
2237.02364,0.12041
2238.95211,0.11839
2240.88058,0.11682
2242.80905,0.11658
2244.73752,0.11707
2246.66599,0.11711
2248.59446,0.11643
2250.52293,0.11521
2252.45139,0.11440
2254.37986,0.11522
2256.30833,0.11815
2258.23680,0.11998
2260.16527,0.11830
2262.09374,0.11602
2264.02221,0.11525
2265.95067,0.11627
2267.87914,0.11752
2269.80761,0.11636
2271.73608,0.11424
2273.66455,0.11368
2275.59302,0.11372
2277.52149,0.11396
2279.44996,0.11601
2281.37842,0.11828
2283.30689,0.11811
2285.23536,0.11664
2287.16383,0.11616
2289.09230,0.11633
2291.02077,0.11647
2292.94924,0.11639
2294.87770,0.11542
2296.80617,0.11490
2298.73464,0.11510
2300.66311,0.11478
2302.59158,0.11481
2304.52005,0.11403
2306.44852,0.11089
2308.37699,0.10815
2310.30545,0.10787
2312.23392,0.11008
2314.16239,0.11394
2316.09086,0.11642
2318.01933,0.11703
2319.94780,0.11696
2321.87627,0.11608
2323.80473,0.11307
2325.73320,0.10820
2327.66167,0.10507
2329.59014,0.10015
2331.51861,0.09416
2333.44708,0.09709
2335.37555,0.10617
2337.30401,0.11413
2339.23248,0.11692
2341.16095,0.11405
2343.08942,0.11009
2345.01789,0.10768
2346.94636,0.10637
2348.87483,0.10516
2350.80330,0.10406
2352.73176,0.10472
2354.66023,0.10850
2356.58870,0.10888
2358.51717,0.09870
2360.44564,0.08890
2362.37411,0.09435
2364.30258,0.10237
2366.23104,0.09674
2368.15951,0.09067
2370.08798,0.09630
2372.01645,0.10584
2373.94492,0.11092
2375.87339,0.11231
2377.80186,0.11331
2379.73033,0.11524
2381.65879,0.11699
2383.58726,0.11662
2385.51573,0.11560
2387.44420,0.11660
2389.37267,0.11805
2391.30114,0.11774
2393.22961,0.11679
2395.15807,0.11650
2397.08654,0.11743
2399.01501,0.11932
2400.94348,0.12041
2402.87195,0.11958
2404.80042,0.11741
2406.72889,0.11597
2408.65736,0.11541
2410.58582,0.11400
2412.51429,0.11259
2414.44276,0.11309
2416.37123,0.11497
2418.29970,0.11686
2420.22817,0.11825
2422.15664,0.11818
2424.08510,0.11659
2426.01357,0.11482
2427.94204,0.11489
2429.87051,0.11777
2431.79898,0.12102
2433.72745,0.12155
2435.65592,0.11946
2437.58439,0.11804
2439.51285,0.11879
2441.44132,0.12015
2443.36979,0.11996
2445.29826,0.11753
2447.22673,0.11541
2449.15520,0.11506
2451.08367,0.11484
2453.01213,0.11299
2454.94060,0.11171
2456.86907,0.11416
2458.79754,0.11755
2460.72601,0.11940
2462.65448,0.12043
2464.58295,0.12008
2466.51142,0.11958
2468.43988,0.12011
2470.36835,0.11976
2472.29682,0.11805
2474.22529,0.11720
2476.15376,0.11824
2478.08223,0.11854
2480.01070,0.11732
2481.93916,0.11776
2483.86763,0.11881
2485.79610,0.11784
2487.72457,0.11719
2489.65304,0.11803
2491.58151,0.11796
2493.50998,0.11673
2495.43844,0.11685
2497.36691,0.11861
2499.29538,0.11922
2501.22385,0.11770
2503.15232,0.11668
2505.08079,0.11674
2507.00926,0.11601
2508.93773,0.11554
2510.86619,0.11637
2512.79466,0.11738
2514.72313,0.11796
2516.65160,0.11870
2518.58007,0.12013
2520.50854,0.12074
2522.43701,0.11975
2524.36547,0.11828
2526.29394,0.11697
2528.22241,0.11665
2530.15088,0.11739
2532.07935,0.11727
2534.00782,0.11595
2535.93629,0.11489
2537.86476,0.11441
2539.79322,0.11523
2541.72169,0.11801
2543.65016,0.12105
2545.57863,0.12169
2547.50710,0.11977
2549.43557,0.11836
2551.36404,0.11955
2553.29250,0.12218
2555.22097,0.12340
2557.14944,0.12248
2559.07791,0.12049
2561.00638,0.11796
2562.93485,0.11627
2564.86332,0.11610
2566.79179,0.11654
2568.72025,0.11630
2570.64872,0.11579
2572.57719,0.11684
2574.50566,0.11868
2576.43413,0.12036
2578.36260,0.12236
2580.29107,0.12361
2582.21953,0.12291
2584.14800,0.12080
2586.07647,0.11956
2588.00494,0.11997
2589.93341,0.12035
2591.86188,0.12059
2593.79035,0.12086
2595.71882,0.12048
2597.64728,0.11992
2599.57575,0.11901
2601.50422,0.11763
2603.43269,0.11734
2605.36116,0.11847
2607.28963,0.11924
2609.21810,0.11940
2611.14656,0.12041
2613.07503,0.12081
2615.00350,0.11902
2616.93197,0.11852
2618.86044,0.12109
2620.78891,0.12261
2622.71738,0.12100
2624.64585,0.11925
2626.57431,0.11911
2628.50278,0.12019
2630.43125,0.12146
2632.35972,0.12037
2634.28819,0.11817
2636.21666,0.11872
2638.14513,0.12067
2640.07359,0.12042
2642.00206,0.11864
2643.93053,0.11967
2645.85900,0.12313
2647.78747,0.12379
2649.71594,0.12127
2651.64441,0.11961
2653.57288,0.12032
2655.50134,0.12146
2657.42981,0.12232
2659.35828,0.12401
2661.28675,0.12569
2663.21522,0.12514
2665.14369,0.12316
2667.07216,0.12147
2669.00062,0.11896
2670.92909,0.11618
2672.85756,0.11537
2674.78603,0.11710
2676.71450,0.11967
2678.64297,0.12039
2680.57144,0.12080
2682.49990,0.12279
2684.42837,0.12303
2686.35684,0.12106
2688.28531,0.12060
2690.21378,0.12105
2692.14225,0.12097
2694.07072,0.12194
2695.99919,0.12425
2697.92765,0.12566
2699.85612,0.12406
2701.78459,0.12151
2703.71306,0.12116
2705.64153,0.12249
2707.57000,0.12387
2709.49847,0.12501
2711.42693,0.12581
2713.35540,0.12546
2715.28387,0.12425
2717.21234,0.12367
2719.14081,0.12369
2721.06928,0.12411
2722.99775,0.12524
2724.92622,0.12527
2726.85468,0.12285
2728.78315,0.12102
2730.71162,0.12303
2732.64009,0.12567
2734.56856,0.12427
2736.49703,0.12085
2738.42550,0.11892
2740.35396,0.11889
2742.28243,0.12081
2744.21090,0.12373
2746.13937,0.12594
2748.06784,0.12675
2749.99631,0.12558
2751.92478,0.12364
2753.85325,0.12408
2755.78171,0.12635
2757.71018,0.12766
2759.63865,0.12776
2761.56712,0.12630
2763.49559,0.12413
2765.42406,0.12363
2767.35253,0.12383
2769.28099,0.12355
2771.20946,0.12327
2773.13793,0.12167
2775.06640,0.11990
2776.99487,0.12114
2778.92334,0.12435
2780.85181,0.12624
2782.78028,0.12645
2784.70874,0.12663
2786.63721,0.12788
2788.56568,0.13123
2790.49415,0.13418
2792.42262,0.13371
2794.35109,0.13246
2796.27956,0.13128
2798.20802,0.12872
2800.13649,0.12600
2802.06496,0.12473
2803.99343,0.12524
2805.92190,0.12633
2807.85037,0.12677
2809.77884,0.12629
2811.70731,0.12593
2813.63577,0.12650
2815.56424,0.12699
2817.49271,0.12757
2819.42118,0.13022
2821.34965,0.13349
2823.27812,0.13345
2825.20659,0.13062
2827.13505,0.12836
2829.06352,0.12803
2830.99199,0.12829
2832.92046,0.12843
2834.84893,0.12906
2836.77740,0.12883
2838.70587,0.12729
2840.63433,0.12571
2842.56280,0.12423
2844.49127,0.12432
2846.41974,0.12694
2848.34821,0.12903
2850.27668,0.12803
2852.20515,0.12658
2854.13362,0.12776
2856.06208,0.12937
2857.99055,0.12861
2859.91902,0.12702
2861.84749,0.12664
2863.77596,0.12655
2865.70443,0.12487
2867.63290,0.12375
2869.56136,0.12657
2871.48983,0.12986
2873.41830,0.12959
2875.34677,0.12811
2877.27524,0.12734
2879.20371,0.12661
2881.13218,0.12593
2883.06065,0.12676
2884.98911,0.12978
2886.91758,0.13091
2888.84605,0.12804
2890.77452,0.12520
2892.70299,0.12401
2894.63146,0.12377
2896.55993,0.12401
2898.48839,0.12415
2900.41686,0.12476
2902.34533,0.12495
2904.27380,0.12389
2906.20227,0.12230
2908.13074,0.12101
2910.05921,0.12114
2911.98768,0.12225
2913.91614,0.12357
2915.84461,0.12477
2917.77308,0.12357
2919.70155,0.11996
2921.63002,0.11836
2923.55849,0.12069
2925.48696,0.12432
2927.41542,0.12782
2929.34389,0.13181
2931.27236,0.13462
2933.20083,0.13264
2935.12930,0.12780
2937.05777,0.12571
2938.98624,0.12658
2940.91471,0.12816
2942.84317,0.12945
2944.77164,0.12965
2946.70011,0.12844
2948.62858,0.12629
2950.55705,0.12532
2952.48552,0.12571
2954.41399,0.12639
2956.34245,0.12910
2958.27092,0.13350
2960.19939,0.13541
2962.12786,0.13391
2964.05633,0.13221
2965.98480,0.13107
2967.91327,0.12971
2969.84174,0.12919
2971.77020,0.13021
2973.69867,0.13160
2975.62714,0.13135
2977.55561,0.12920
2979.48408,0.12737
2981.41255,0.12699
2983.34102,0.12716
2985.26948,0.12700
2987.19795,0.12642
2989.12642,0.12661
2991.05489,0.12901
2992.98336,0.13317
2994.91183,0.13597
2996.84030,0.13511
2998.76877,0.13357
3000.69723,0.13370
3002.62570,0.13292
3004.55417,0.13027
3006.48264,0.12749
3008.41111,0.12628
3010.33958,0.12825
3012.26805,0.13119
3014.19651,0.13135
3016.12498,0.12995
3018.05345,0.12968
3019.98192,0.13129
3021.91039,0.13225
3023.83886,0.12995
3025.76733,0.12840
3027.69579,0.13027
3029.62426,0.13198
3031.55273,0.13342
3033.48120,0.13686
3035.40967,0.13794
3037.33814,0.13370
3039.26661,0.13043
3041.19508,0.13153
3043.12354,0.13251
3045.05201,0.13020
3046.98048,0.12744
3048.90895,0.12750
3050.83742,0.12783
3052.76589,0.12691
3054.69436,0.12671
3056.62282,0.12811
3058.55129,0.13085
3060.47976,0.13293
3062.40823,0.13326
3064.33670,0.13298
3066.26517,0.13312
3068.19364,0.13341
3070.12211,0.13220
3072.05057,0.12969
3073.97904,0.12803
3075.90751,0.12792
3077.83598,0.12970
3079.76445,0.13296
3081.69292,0.13475
3083.62139,0.13405
3085.54985,0.13264
3087.47832,0.13242
3089.40679,0.13321
3091.33526,0.13110
3093.26373,0.12639
3095.19220,0.12517
3097.12067,0.12765
3099.04914,0.12889
3100.97760,0.12805
3102.90607,0.12684
3104.83454,0.12714
3106.76301,0.13029
3108.69148,0.13317
3110.61995,0.13256
3112.54842,0.13114
3114.47688,0.13179
3116.40535,0.13323
3118.33382,0.13298
3120.26229,0.13071
3122.19076,0.12876
3124.11923,0.12822
3126.04770,0.12823
3127.97617,0.12839
3129.90463,0.13014
3131.83310,0.13332
3133.76157,0.13395
3135.69004,0.13283
3137.61851,0.13287
3139.54698,0.13262
3141.47545,0.13186
3143.40391,0.13165
3145.33238,0.13295
3147.26085,0.13615
3149.18932,0.13821
3151.11779,0.13648
3153.04626,0.13342
3154.97473,0.13181
3156.90320,0.13145
3158.83166,0.13249
3160.76013,0.13410
3162.68860,0.13258
3164.61707,0.13052
3166.54554,0.13299
3168.47401,0.13534
3170.40248,0.13565
3172.33094,0.13670
3174.25941,0.13651
3176.18788,0.13527
3178.11635,0.13447
3180.04482,0.13408
3181.97329,0.13516
3183.90176,0.13783
3185.83022,0.13907
3187.75869,0.13557
3189.68716,0.12888
3191.61563,0.12555
3193.54410,0.12895
3195.47257,0.13480
3197.40104,0.13774
3199.32951,0.13517
3201.25797,0.13074
3203.18644,0.13073
3205.11491,0.13288
3207.04338,0.13190
3208.97185,0.12934
3210.90032,0.12899
3212.82879,0.13109
3214.75725,0.13267
3216.68572,0.13158
3218.61419,0.13070
3220.54266,0.13255
3222.47113,0.13555
3224.39960,0.13726
3226.32807,0.13566
3228.25654,0.13256
3230.18500,0.13227
3232.11347,0.13371
3234.04194,0.13386
3235.97041,0.13454
3237.89888,0.13576
3239.82735,0.13534
3241.75582,0.13482
3243.68428,0.13415
3245.61275,0.13252
3247.54122,0.13303
3249.46969,0.13522
3251.39816,0.13451
3253.32663,0.13303
3255.25510,0.13532
3257.18357,0.13804
3259.11203,0.13608
3261.04050,0.13132
3262.96897,0.12863
3264.89744,0.12868
3266.82591,0.13063
3268.75438,0.13379
3270.68285,0.13656
3272.61131,0.13950
3274.53978,0.14326
3276.46825,0.14284
3278.39672,0.13437
3280.32519,0.12484
3282.25366,0.12227
3284.18213,0.12477
3286.11060,0.12532
3288.03906,0.12326
3289.96753,0.12458
3291.89600,0.12737
3293.82447,0.12609
3295.75294,0.12443
3297.68141,0.12464
3299.60988,0.12383
3301.53834,0.12319
3303.46681,0.12443
3305.39528,0.12664
3307.32375,0.12848
3309.25222,0.13025
3311.18069,0.13380
3313.10916,0.13640
3315.03763,0.13435
3316.96609,0.12955
3318.89456,0.12580
3320.82303,0.12529
3322.75150,0.12658
3324.67997,0.12843
3326.60844,0.13104
3328.53691,0.13235
3330.46537,0.13261
3332.39384,0.13343
3334.32231,0.13307
3336.25078,0.13121
3338.17925,0.13060
3340.10772,0.13013
3342.03619,0.12801
3343.96466,0.12886
3345.89312,0.13290
3347.82159,0.13477
3349.75006,0.13278
3351.67853,0.12851
3353.60700,0.12588
3355.53547,0.12673
3357.46394,0.12885
3359.39240,0.13054
3361.32087,0.13216
3363.24934,0.13412
3365.17781,0.13583
3367.10628,0.13666
3369.03475,0.13586
3370.96322,0.13228
3372.89168,0.12808
3374.82015,0.12864
3376.74862,0.13193
3378.67709,0.13170
3380.60556,0.12935
3382.53403,0.12952
3384.46250,0.13149
3386.39097,0.13008
3388.31943,0.12599
3390.24790,0.12465
3392.17637,0.12516
3394.10484,0.12459
3396.03331,0.12411
3397.96178,0.12613
3399.89025,0.12864
3401.81871,0.12819
3403.74718,0.12858
3405.67565,0.13307
3407.60412,0.13796
3409.53259,0.13804
3411.46106,0.13159
3413.38953,0.12427
3415.31800,0.12342
3417.24646,0.12890
3419.17493,0.13356
3421.10340,0.13235
3423.03187,0.12792
3424.96034,0.12387
3426.88881,0.12244
3428.81728,0.12564
3430.74574,0.13016
3432.67421,0.13051
3434.60268,0.12689
3436.53115,0.12453
3438.45962,0.12610
3440.38809,0.12698
3442.31656,0.12485
3444.24503,0.12468
3446.17349,0.12755
3448.10196,0.12926
3450.03043,0.12971
3451.95890,0.13182
3453.88737,0.13222
3455.81584,0.12687
3457.74431,0.12105
3459.67277,0.12189
3461.60124,0.12709
3463.52971,0.12724
3465.45818,0.12236
3467.38665,0.12105
3469.31512,0.12446
3471.24359,0.12766
3473.17206,0.12684
3475.10052,0.12407
3477.02899,0.12476
3478.95746,0.12754
3480.88593,0.12744
3482.81440,0.12332
3484.74287,0.11915
3486.67134,0.11805
3488.59980,0.11714
3490.52827,0.11336
3492.45674,0.10994
3494.38521,0.11055
3496.31368,0.11298
3498.24215,0.11636
3500.17062,0.12122
3502.09909,0.12302
3504.02755,0.11909
3505.95602,0.11297
3507.88449,0.10987
3509.81296,0.11046
3511.74143,0.11160
3513.66990,0.11292
3515.59837,0.11423
3517.52683,0.11447
3519.45530,0.11514
3521.38377,0.11796
3523.31224,0.12069
3525.24071,0.12097
3527.16918,0.11978
3529.09765,0.11763
3531.02611,0.11333
3532.95458,0.10733
3534.88305,0.10479
3536.81152,0.10751
3538.73999,0.10945
3540.66846,0.10830
3542.59693,0.10831
3544.52540,0.10936
3546.45386,0.10615
3548.38233,0.10184
3550.31080,0.10183
3552.23927,0.10286
3554.16774,0.10266
3556.09621,0.10409
3558.02468,0.10675
3559.95314,0.10884
3561.88161,0.11138
3563.81008,0.11530
3565.73855,0.11962
3567.66702,0.11695
3569.59549,0.10730
3571.52396,0.10267
3573.45243,0.10465
3575.38089,0.10586
3577.30936,0.10201
3579.23783,0.09813
3581.16630,0.09831
3583.09477,0.10095
3585.02324,0.10372
3586.95171,0.10392
3588.88017,0.10247
3590.80864,0.10516
3592.73711,0.10858
3594.66558,0.10707
3596.59405,0.10460
3598.52252,0.10658
3600.45099,0.10905
3602.37946,0.10630
3604.30792,0.10184
3606.23639,0.10333
3608.16486,0.10915
3610.09333,0.11041
3612.02180,0.10793
3613.95027,0.10419
3615.87874,0.10254
3617.80720,0.10789
3619.73567,0.10946
3621.66414,0.09929
3623.59261,0.09194
3625.52108,0.09171
3627.44955,0.09443
3629.37802,0.09673
3631.30649,0.09631
3633.23495,0.09483
3635.16342,0.09244
3637.09189,0.08933
3639.02036,0.08831
3640.94883,0.08963
3642.87730,0.09088
3644.80577,0.09587
3646.73423,0.10957
3648.66270,0.12133
3650.59117,0.11134
3652.51964,0.09900
3654.44811,0.09710
3656.37658,0.09911
3658.30505,0.09565
3660.23352,0.08988
3662.16198,0.08599
3664.09045,0.08456
3666.01892,0.08844
3667.94739,0.09711
3669.87586,0.10210
3671.80433,0.09882
3673.73280,0.09796
3675.66126,0.09851
3677.58973,0.09325
3679.51820,0.08797
3681.44667,0.08604
3683.37514,0.08675
3685.30361,0.08899
3687.23208,0.09390
3689.16055,0.10095
3691.08901,0.09789
3693.01748,0.08499
3694.94595,0.07727
3696.87442,0.07882
3698.80289,0.08418
3700.73136,0.08731
3702.65983,0.08424
3704.58829,0.08171
3706.51676,0.08696
3708.44523,0.09715
3710.37370,0.10448
3712.30217,0.09996
3714.23064,0.09158
3716.15911,0.08760
3718.08757,0.08460
3720.01604,0.08357
3721.94451,0.09071
3723.87298,0.09927
3725.80145,0.09720
3727.72992,0.09076
3729.65839,0.09038
3731.58686,0.09549
3733.51532,0.10373
3735.44379,0.11065
3737.37226,0.10710
3739.30073,0.09841
3741.22920,0.09230
3743.15767,0.09135
3745.08614,0.09722
3747.01460,0.10444
3748.94307,0.11226
3750.87154,0.11640
3752.80001,0.10715
3754.72848,0.09629
3756.65695,0.09077
3758.58542,0.09007
3760.51389,0.08945
3762.44235,0.08719
3764.37082,0.08636
3766.29929,0.08731
3768.22776,0.08970
3770.15623,0.08945
3772.08470,0.08208
3774.01317,0.07557
3775.94163,0.07607
3777.87010,0.08112
3779.79857,0.08420
3781.72704,0.08230
3783.65551,0.07899
3785.58398,0.07704
3787.51245,0.07785
3789.44092,0.08102
3791.36938,0.08412
3793.29785,0.08584
3795.22632,0.08790
3797.15479,0.09127
3799.08326,0.09639
3801.01173,0.09999
3802.94020,0.09356
3804.86866,0.08819
3806.79713,0.08984
3808.72560,0.08910
3810.65407,0.08508
3812.58254,0.08346
3814.51101,0.08558
3816.43948,0.08914
3818.36795,0.09367
3820.29641,0.10043
3822.22488,0.10034
3824.15335,0.09549
3826.08182,0.09282
3828.01029,0.09008
3829.93876,0.08841
3831.86723,0.08759
3833.79569,0.08638
3835.72416,0.08740
3837.65263,0.09366
3839.58110,0.10159
3841.50957,0.10125
3843.43804,0.09555
3845.36651,0.09005
3847.29498,0.08433
3849.22344,0.07992
3851.15191,0.07996
3853.08038,0.08609
3855.00885,0.09033
3856.93732,0.08897
3858.86579,0.08723
3860.79426,0.08459
3862.72272,0.08223
3864.65119,0.08306
3866.57966,0.08470
3868.50813,0.08559
3870.43660,0.08396
3872.36507,0.08173
3874.29354,0.08140
3876.22200,0.07942
3878.15047,0.07940
3880.07894,0.08260
3882.00741,0.08202
3883.93588,0.08080
3885.86435,0.08347
3887.79282,0.08533
3889.72129,0.08552
3891.64975,0.08446
3893.57822,0.07948
3895.50669,0.07515
3897.43516,0.07642
3899.36363,0.07957
3901.29210,0.07783
3903.22057,0.07388
3905.14903,0.07094
3907.07750,0.06888
3909.00597,0.06829
3910.93444,0.06988
3912.86291,0.07381
3914.79138,0.07659
3916.71985,0.07479
3918.64832,0.07150
3920.57678,0.07146
3922.50525,0.07602
3924.43372,0.08074
3926.36219,0.07924
3928.29066,0.07479
3930.21913,0.07187
3932.14760,0.07039
3934.07606,0.07008
3936.00453,0.07162
3937.93300,0.07390
3939.86147,0.07477
3941.78994,0.07476
3943.71841,0.07357
3945.64688,0.07142
3947.57535,0.07119
3949.50381,0.07190
3951.43228,0.07107
3953.36075,0.06991
3955.28922,0.06949
3957.21769,0.06842
3959.14616,0.06606
3961.07463,0.06476
3963.00309,0.06411
3964.93156,0.06293
3966.86003,0.06399
3968.78850,0.06537
3970.71697,0.06434
3972.64544,0.06396
3974.57391,0.06386
3976.50238,0.06216
3978.43084,0.06130
3980.35931,0.06292
3982.28778,0.06468
3984.21625,0.06455
3986.14472,0.06438
3988.07319,0.06685
3990.00166,0.07167
3991.93012,0.07381
3993.85859,0.06988
3995.78706,0.06502
3997.71553,0.06306
3999.64400,0.06010
4001.57247,0.05802
4003.50094,0.06155
4005.42941,0.06396
4007.35787,0.06172
4009.28634,0.06172
4011.21481,0.06480
4013.14328,0.06573
4015.07175,0.06458
4017.00022,0.06418
4018.92869,0.06241
4020.85715,0.05915
4022.78562,0.05892
4024.71409,0.06149
4026.64256,0.06276
4028.57103,0.06190
4030.49950,0.06093
4032.42797,0.05924
4034.35644,0.05752
4036.28490,0.05954
4038.21337,0.06274
4040.14184,0.06221
4042.07031,0.06075
4043.99878,0.06156
4045.92725,0.06277
4047.85572,0.06295
4049.78418,0.06323
4051.71265,0.06495
4053.64112,0.06688
4055.56959,0.06757
4057.49806,0.06732
4059.42653,0.06609
4061.35500,0.06349
4063.28346,0.05915
4065.21193,0.05616
4067.14040,0.05735
4069.06887,0.05851
4070.99734,0.05782
4072.92581,0.05899
4074.85428,0.06044
4076.78275,0.05834
4078.71121,0.05642
4080.63968,0.05791
4082.56815,0.05816
4084.49662,0.05460
4086.42509,0.05165
4088.35356,0.05212
4090.28203,0.05369
4092.21049,0.05379
4094.13896,0.05266
4096.06743,0.05219
4097.99590,0.05202
4099.92437,0.05217
4101.85284,0.05472
4103.78131,0.05699
4105.70978,0.05661
4107.63824,0.05697
4109.56671,0.05879
4111.49518,0.05898
4113.42365,0.05745
4115.35212,0.05634
4117.28059,0.05626
4119.20906,0.05721
4121.13752,0.05709
4123.06599,0.05469
4124.99446,0.05390
4126.92293,0.05418
4128.85140,0.05173
4130.77987,0.05090
4132.70834,0.05434
4134.63681,0.05484
4136.56527,0.05322
4138.49374,0.05640
4140.42221,0.05835
4142.35068,0.05585
4144.27915,0.05450
4146.20762,0.05270
4148.13609,0.05058
4150.06455,0.05196
4151.99302,0.05399
4153.92149,0.05386
4155.84996,0.05426
4157.77843,0.05660
4159.70690,0.05704
4161.63537,0.05214
4163.56384,0.04542
4165.49230,0.04220
4167.42077,0.04195
4169.34924,0.04239
4171.27771,0.04220
4173.20618,0.03978
4175.13465,0.03719
4177.06312,0.03861
4178.99158,0.04346
4180.92005,0.04675
4182.84852,0.04649
4184.77699,0.04561
4186.70546,0.04375
4188.63393,0.04068
4190.56240,0.04106
4192.49087,0.04305
4194.41933,0.04162
4196.34780,0.04023
4198.27627,0.04220
4200.20474,0.04323
4202.13321,0.04214
4204.06168,0.04408
4205.99015,0.04726
4207.91861,0.04648
4209.84708,0.04343
4211.77555,0.04002
4213.70402,0.03669
4215.63249,0.03737
4217.56096,0.04234
4219.48943,0.04563
4221.41789,0.04589
4223.34636,0.04630
4225.27483,0.04596
4227.20330,0.04428
4229.13177,0.04425
4231.06024,0.04539
4232.98871,0.04456
4234.91718,0.04140
4236.84564,0.03828
4238.77411,0.03865
4240.70258,0.04409
4242.63105,0.04866
4244.55952,0.04523
4246.48799,0.03883
4248.41646,0.03773
4250.34492,0.04031
4252.27339,0.04151
4254.20186,0.03999
4256.13033,0.03884
4258.05880,0.04060
4259.98727,0.04166
4261.91574,0.03898
4263.84421,0.03582
4265.77267,0.03538
4267.70114,0.03823
4269.62961,0.04268
4271.55808,0.04304
4273.48655,0.03821
4275.41502,0.03547
4277.34349,0.03725
4279.27195,0.03847
4281.20042,0.03607
4283.12889,0.03167
4285.05736,0.02823
4286.98583,0.02662
4288.91430,0.02803
4290.84277,0.03309
4292.77124,0.03761
4294.69970,0.03661
4296.62817,0.03269
4298.55664,0.03166
4300.48511,0.03164
4302.41358,0.03014
4304.34205,0.02962
4306.27052,0.03283
4308.19898,0.03755
4310.12745,0.03778
4312.05592,0.03291
4313.98439,0.02422
4315.91286,0.01647
4317.84133,0.01775
4319.76980,0.02517
4321.69827,0.02827
4323.62673,0.02578
4325.55520,0.02462
4327.48367,0.02402
4329.41214,0.02100
4331.34061,0.02164
4333.26908,0.02603
4335.19755,0.02523
4337.12601,0.01984
4339.05448,0.01819
4340.98295,0.01858
4342.91142,0.01502
4344.83989,0.01274
4346.76836,0.01842
4348.69683,0.02470
4350.62530,0.02376
4352.55376,0.01955
4354.48223,0.01698
4356.41070,0.01742
4358.33917,0.01996
4360.26764,0.02456
4362.19611,0.03088
4364.12458,0.03324
4366.05304,0.03142
4367.98151,0.02848
4369.90998,0.02311
4371.83845,0.01907
4373.76692,0.01904
4375.69539,0.02031
4377.62386,0.02300
4379.55232,0.02641
4381.48079,0.02840
4383.40926,0.02874
4385.33773,0.02683
4387.26620,0.02292
4389.19467,0.02060
4391.12314,0.02134
4393.05161,0.02019
4394.98007,0.01679
4396.90854,0.01697
4398.83701,0.02038
4400.76548,0.02288
4402.69395,0.02375
4404.62242,0.02451
4406.55089,0.02438
4408.47935,0.02182
4410.40782,0.01860
4412.33629,0.01679
4414.26476,0.01768
4416.19323,0.02032
4418.12170,0.02126
4420.05017,0.02075
4421.97864,0.02238
4423.90710,0.02512
4425.83557,0.02286
4427.76404,0.01581
4429.69251,0.01023
4431.62098,0.00953
4433.54945,0.01352
4435.47792,0.01754
4437.40638,0.02063
4439.33485,0.02481
4441.26332,0.02449
4443.19179,0.01824
4445.12026,0.01213
4447.04873,0.00925
4448.97720,0.00942
4450.90567,0.00986
4452.83413,0.01004
4454.76260,0.01151
4456.69107,0.01233
4458.61954,0.00963
4460.54801,0.00630
4462.47648,0.00863
4464.40495,0.01242
4466.33341,0.01124
4468.26188,0.00937
4470.19035,0.01312
4472.11882,0.01784
4474.04729,0.01210
4475.97576,0.00213
4477.90423,0.00118
4479.83270,0.00399
4481.76116,0.00520
4483.68963,0.00772
4485.61810,0.00766
4487.54657,0.00159
4489.47504,-0.00433
4491.40351,-0.00583
4493.33198,-0.00220
4495.26044,0.00432
4497.18891,0.00309
4499.11738,-0.00584
4501.04585,-0.00819
4502.97432,-0.00339
4504.90279,0.00244
4506.83126,0.00929
4508.75973,0.01452
4510.68819,0.01792
4512.61666,0.02151
4514.54513,0.02451
4516.47360,0.02373
4518.40207,0.01630
4520.33054,0.00562
4522.25901,0.00023
4524.18747,0.00011
4526.11594,0.00219
4528.04441,0.00679
4529.97288,0.00921
4531.90135,0.00864
4533.82982,0.00812
4535.75829,0.00589
4537.68676,0.00536
4539.61522,0.00579
4541.54369,-0.00120
4543.47216,-0.01219
4545.40063,-0.01080
4547.32910,0.00178
4549.25757,0.00579
4551.18604,-0.00254
4553.11450,-0.01116
4555.04297,-0.01153
4556.97144,-0.00089
4558.89991,0.01419
4560.82838,0.02222
4562.75685,0.01892
4564.68532,0.01104
4566.61378,0.00658
4568.54225,0.00575
4570.47072,0.00585
4572.39919,0.00500
4574.32766,0.00358
4576.25613,0.00292
4578.18460,0.00245
4580.11307,0.00175
4582.04153,-0.00011
4583.97000,-0.00246
4585.89847,0.00018
4587.82694,0.00448
4589.75541,0.00076
4591.68388,-0.00500
4593.61235,-0.00112
4595.54081,0.00653
4597.46928,0.00817
4599.39775,0.00685
4601.32622,0.00342
4603.25469,-0.00392
4605.18316,-0.00971
4607.11163,-0.01174
4609.04010,-0.01347
4610.96856,-0.01351
4612.89703,-0.00699
4614.82550,0.00227
4616.75397,0.00289
4618.68244,-0.00503
4620.61091,-0.00739
4622.53938,-0.00069
4624.46784,0.00796
4626.39631,0.00909
4628.32478,-0.00287
4630.25325,-0.01157
4632.18172,-0.00884
4634.11019,-0.00554
4636.03866,-0.00094
4637.96713,0.00593
4639.89559,0.00654
4641.82406,0.00405
4643.75253,0.00401
4645.68100,0.00507
4647.60947,0.00434
4649.53794,0.00164
4651.46641,0.00181
4653.39487,0.00576
4655.32334,0.01056
4657.25181,0.01331
4659.18028,0.01140
4661.10875,0.00616
4663.03722,0.00479
4664.96569,0.00859
4666.89416,0.01110
4668.82262,0.01177
4670.75109,0.01037
4672.67956,0.00686
4674.60803,0.00527
4676.53650,0.00530
4678.46497,0.00488
4680.39344,0.00563
4682.32190,0.00909
4684.25037,0.00962
4686.17884,0.00721
4688.10731,0.00953
4690.03578,0.01020
4691.96425,0.00470
4693.89272,0.00182
4695.82119,0.00288
4697.74965,0.00552
4699.67812,0.00715
4701.60659,0.00352
4703.53506,0.00057
4705.46353,0.00305
4707.39200,0.00616
4709.32047,0.00585
4711.24893,0.00151
4713.17740,-0.00336
4715.10587,-0.00626
4717.03434,-0.00816
4718.96281,-0.01149
4720.89128,-0.01333
4722.81975,-0.00625
4724.74821,0.00568
4726.67668,0.01299
4728.60515,0.01195
4730.53362,0.00598
4732.46209,0.00422
4734.39056,0.00848
4736.31903,0.01099
4738.24750,0.01110
4740.17596,0.01289
4742.10443,0.01059
4744.03290,0.00391
4745.96137,0.00230
4747.88984,0.00469
4749.81831,0.00377
4751.74678,-0.00158
4753.67524,-0.00695
4755.60371,-0.00809
4757.53218,-0.00194
4759.46065,0.00761
4761.38912,0.00883
4763.31759,-0.00028
4765.24606,-0.00802
4767.17453,-0.00361
4769.10299,0.01032
4771.03146,0.01915
4772.95993,0.01520
4774.88840,0.00498
4776.81687,-0.00394
4778.74534,-0.00911
4780.67381,-0.01217
4782.60227,-0.01368
4784.53074,-0.00696
4786.45921,0.00642
4788.38768,0.01226
4790.31615,0.00617
4792.24462,-0.00097
4794.17309,0.00179
4796.10156,0.00903
4798.03002,0.00739
4799.95849,0.00132
4801.88696,0.00172
4803.81543,0.00742
4805.74390,0.01369
4807.67237,0.01408
4809.60084,0.00689
4811.52930,0.00361
4813.45777,0.00866
4815.38624,0.01209
4817.31471,0.00823
4819.24318,0.00669
4821.17165,0.01442
4823.10012,0.01958
4825.02859,0.01209
4826.95705,-0.00047
4828.88552,-0.00596
4830.81399,-0.00427
4832.74246,-0.00332
4834.67093,-0.00543
4836.59940,-0.00539
4838.52787,-0.00108
4840.45633,0.00139
4842.38480,0.00256
4844.31327,0.00477
4846.24174,0.00154
4848.17021,-0.00296
4850.09868,0.00136
4852.02715,0.00584
4853.95562,0.00127
4855.88408,-0.00460
4857.81255,-0.00373
4859.74102,0.00183
4861.66949,0.00586
4863.59796,0.00803
4865.52643,0.01093
4867.45490,0.01238
4869.38336,0.01120
4871.31183,0.00762
4873.24030,-0.00090
4875.16877,-0.01119
4877.09724,-0.01295
4879.02571,-0.00567
4880.95418,0.00315
4882.88265,0.01111
4884.81111,0.01162
4886.73958,0.00192
4888.66805,-0.00323
4890.59652,0.00023
4892.52499,0.00126
4894.45346,0.00005
4896.38193,0.00015
4898.31039,0.00252
4900.23886,0.00507
4902.16733,0.00304
4904.09580,0.00209
4906.02427,0.00961
4907.95274,0.01984
4909.88121,0.02286
4911.80967,0.01812
4913.73814,0.01180
4915.66661,0.00912
4917.59508,0.01039
4919.52355,0.01078
4921.45202,0.00873
4923.38049,0.00843
4925.30896,0.01146
4927.23742,0.01216
4929.16589,0.00915
4931.09436,0.00721
4933.02283,0.00667
4934.95130,0.00353
4936.87977,-0.00069
4938.80824,0.00050
4940.73670,0.00403
4942.66517,0.00389
4944.59364,0.00112
4946.52211,0.00046
4948.45058,0.00877
4950.37905,0.01856
4952.30752,0.01515
4954.23599,0.00587
4956.16445,0.00210
4958.09292,0.00180
4960.02139,0.00579
4961.94986,0.01069
4963.87833,0.01121
4965.80680,0.00722
4967.73527,-0.00130
4969.66373,-0.00598
4971.59220,-0.00183
4973.52067,0.00311
4975.44914,0.00488
4977.37761,0.00716
4979.30608,0.00990
4981.23455,0.01200
4983.16302,0.01456
4985.09148,0.01632
4987.01995,0.02126
4988.94842,0.03110
4990.87689,0.03391
4992.80536,0.02521
4994.73383,0.01249
4996.66230,0.00029
4998.59076,-0.00598
5000.51923,-0.00268
5002.44770,0.00753
5004.37617,0.01880
5006.30464,0.02460
5008.23311,0.02391
5010.16158,0.01926
5012.09005,0.01215
5014.01851,0.00870
5015.94698,0.01433
5017.87545,0.02250
5019.80392,0.02555
5021.73239,0.02302
5023.66086,0.01920
5025.58933,0.01652
5027.51779,0.01184
5029.44626,0.00708
5031.37473,0.00723
5033.30320,0.00938
5035.23167,0.00642
5037.16014,0.00367
5039.08861,0.01007
5041.01708,0.01893
5042.94554,0.02397
5044.87401,0.02238
5046.80248,0.00823
5048.73095,-0.00887
5050.65942,-0.01181
5052.58789,-0.00169
5054.51636,0.00588
5056.44482,0.00551
5058.37329,0.00443
5060.30176,0.00499
5062.23023,0.00801
5064.15870,0.01074
5066.08717,0.00753
5068.01564,0.00705
5069.94410,0.00833
5071.87257,-0.00291
5073.80104,-0.01390
5075.72951,-0.00226
5077.65798,0.01795
5079.58645,0.02510
5081.51492,0.02614
5083.44339,0.02595
5085.37185,0.01825
5087.30032,0.00681
5089.22879,0.00674
5091.15726,0.01864
5093.08573,0.02098
5095.01420,0.01468
5096.94267,0.01860
5098.87113,0.02497
5100.79960,0.01893
5102.72807,0.01011
5104.65654,0.00935
5106.58501,0.01238
5108.51348,0.01570
5110.44195,0.01839
5112.37042,0.01643
5114.29888,0.01053
5116.22735,0.01043
5118.15582,0.01510
5120.08429,0.01367
5122.01276,0.01073
5123.94123,0.01028
5125.86970,0.00753
5127.79816,0.00968
5129.72663,0.02161
5131.65510,0.03366
5133.58357,0.04296
5135.51204,0.04772
5137.44051,0.04074
5139.36898,0.02794
5141.29745,0.01182
5143.22591,-0.00724
5145.15438,-0.01038
5147.08285,0.00485
5149.01132,0.01742
5150.93979,0.02227
5152.86826,0.02509
5154.79673,0.02246
5156.72519,0.01589
5158.65366,0.01826
5160.58213,0.02861
5162.51060,0.02518
5164.43907,0.00418
5166.36754,-0.00810
5168.29601,-0.00153
5170.22448,0.01307
5172.15294,0.02706
5174.08141,0.03966
5176.00988,0.04827
5177.93835,0.04126
5179.86682,0.02371
5181.79529,0.01642
5183.72376,0.01717
5185.65222,0.01453
5187.58069,0.01449
5189.50916,0.01742
5191.43763,0.01539
5193.36610,0.01209
5195.29457,0.01553
5197.22304,0.02203
5199.15151,0.01837
5201.07997,0.00853
5203.00844,0.00886
5204.93691,0.01882
5206.86538,0.02396
5208.79385,0.01874
5210.72232,0.01625
5212.65079,0.02336
5214.57925,0.03161
5216.50772,0.03690
5218.43619,0.04088
5220.36466,0.03563
5222.29313,0.02647
5224.22160,0.02950
5226.15007,0.03224
5228.07854,0.01435
5230.00700,-0.01158
5231.93547,-0.01924
5233.86394,-0.00498
5235.79241,0.01200
5237.72088,0.02458
5239.64935,0.03044
5241.57782,0.02669
5243.50628,0.02478
5245.43475,0.03360
5247.36322,0.04259
5249.29169,0.03412
5251.22016,0.01036
5253.14863,-0.00283
5255.07710,-0.00063
5257.00556,0.00137
5258.93403,0.00591
5260.86250,0.01429
5262.79097,0.01294
5264.71944,0.00701
5266.64791,0.01001
5268.57638,0.00778
5270.50485,0.00087
5272.43331,0.01081
5274.36178,0.02788
5276.29025,0.03412
5278.21872,0.02906
5280.14719,0.01629
5282.07566,0.00932
5284.00413,0.01787
5285.93259,0.03005
5287.86106,0.03873
5289.78953,0.04474
5291.71800,0.03845
5293.64647,0.02539
5295.57494,0.02007
5297.50341,0.01930
5299.43188,0.01920
5301.36034,0.02506
5303.28881,0.03129
5305.21728,0.02949
5307.14575,0.02209
5309.07422,0.01727
5311.00269,0.02387
5312.93116,0.02704
5314.85962,0.01436
5316.78809,0.01025
5318.71656,0.02456
5320.64503,0.03244
5322.57350,0.02547
5324.50197,0.01308
5326.43044,0.00282
5328.35891,0.00397
5330.28737,0.01800
5332.21584,0.03447
5334.14431,0.03876
5336.07278,0.03181
5338.00125,0.03684
5339.92972,0.05618
5341.85819,0.06312
5343.78665,0.05345
5345.71512,0.03915
5347.64359,0.02441
5349.57206,0.01537
5351.50053,0.02025
5353.42900,0.03076
5355.35747,0.03424
5357.28594,0.03510
5359.21440,0.03567
5361.14287,0.03107
5363.07134,0.02257
5364.99981,0.01782
5366.92828,0.02365
5368.85675,0.03474
5370.78522,0.04389
5372.71368,0.05028
5374.64215,0.05149
5376.57062,0.04911
5378.49909,0.04891
5380.42756,0.04188
5382.35603,0.02606
5384.28450,0.02518
5386.21297,0.04229
5388.14143,0.05253
5390.06990,0.05612
5391.99837,0.05947
5393.92684,0.06247
5395.85531,0.05846
5397.78378,0.04359
5399.71225,0.02809
5401.64071,0.02592
5403.56918,0.03673
5405.49765,0.04148
5407.42612,0.03271
5409.35459,0.02173
5411.28306,0.01660
5413.21153,0.02047
5415.13999,0.03326
5417.06846,0.04067
5418.99693,0.03781
5420.92540,0.03408
5422.85387,0.02900
5424.78234,0.02719
5426.71081,0.03923
5428.63928,0.04644
5430.56774,0.03521
5432.49621,0.03545
5434.42468,0.05389
5436.35315,0.06335
5438.28162,0.05816
5440.21009,0.04397
5442.13856,0.03202
5444.06702,0.04360
5445.99549,0.06699
5447.92396,0.06886
5449.85243,0.05127
5451.78090,0.03876
5453.70937,0.03520
5455.63784,0.03283
5457.56631,0.03501
5459.49477,0.04558
5461.42324,0.05043
5463.35171,0.04486
5465.28018,0.04546
5467.20865,0.05585
5469.13712,0.05823
5471.06559,0.04629
5472.99405,0.03758
5474.92252,0.04475
5476.85099,0.05680
5478.77946,0.05667
5480.70793,0.04997
5482.63640,0.05173
5484.56487,0.06057
5486.49334,0.05892
5488.42180,0.05236
5490.35027,0.05772
5492.27874,0.05950
5494.20721,0.04375
5496.13568,0.01769
5498.06415,-0.00359
5499.99262,0.00494
5501.92108,0.04014
5503.84955,0.07164
5505.77802,0.07613
5507.70649,0.04904
5509.63496,0.02349
5511.56343,0.02357
5513.49190,0.03195
5515.42037,0.03330
5517.34883,0.03165
5519.27730,0.03389
5521.20577,0.03946
5523.13424,0.04224
5525.06271,0.04520
5526.99118,0.04953
5528.91965,0.05051
5530.84811,0.04352
5532.77658,0.02363
5534.70505,0.00830
5536.63352,0.01627
5538.56199,0.04162
5540.49046,0.07130
5542.41893,0.08218
5544.34740,0.06675
5546.27586,0.05525
5548.20433,0.05587
5550.13280,0.04738
5552.06127,0.04177
5553.98974,0.05947
5555.91821,0.07487
5557.84668,0.06202
5559.77514,0.03890
5561.70361,0.02599
5563.63208,0.02710
5565.56055,0.03328
5567.48902,0.02766
5569.41749,0.02045
5571.34596,0.02670
5573.27443,0.03290
5575.20289,0.03391
5577.13136,0.03262
5579.05983,0.02885
5580.98830,0.03403
5582.91677,0.05026
5584.84524,0.06675
5586.77371,0.07379
5588.70217,0.06201
5590.63064,0.04135
5592.55911,0.03571
5594.48758,0.04597
5596.41605,0.05957
5598.34452,0.06035
5600.27299,0.03836
5602.20145,0.02617
5604.12992,0.03995
5606.05839,0.04847
5607.98686,0.04221
5609.91533,0.02890
5611.84380,0.00732
5613.77227,-0.00741
5615.70074,0.00648
5617.62920,0.03723
5619.55767,0.05382
5621.48614,0.05249
5623.41461,0.05522
5625.34308,0.06716
5627.27155,0.07402
5629.20002,0.07022
5631.12848,0.06144
5633.05695,0.05358
5634.98542,0.05240
5636.91389,0.05857
5638.84236,0.05391
5640.77083,0.04001
5642.69930,0.04460
5644.62777,0.05927
5646.55623,0.05380
5648.48470,0.02555
5650.41317,0.00683
5652.34164,0.01953
5654.27011,0.04504
5656.19858,0.06067
5658.12705,0.05612
5660.05551,0.04630
5661.98398,0.05483
5663.91245,0.07377
5665.84092,0.08531
5667.76939,0.07840
5669.69786,0.05035
5671.62633,0.02492
5673.55480,0.03066
5675.48326,0.05218
5677.41173,0.05089
5679.34020,0.03698
5681.26867,0.04398
5683.19714,0.05905
5685.12561,0.05750
5687.05408,0.05024
5688.98254,0.05452
5690.91101,0.05516
5692.83948,0.03641
5694.76795,0.02062
5696.69642,0.02574
5698.62489,0.04204
5700.55336,0.05422
5702.48183,0.05442
5704.41029,0.05157
5706.33876,0.05158
5708.26723,0.04659
5710.19570,0.03204
5712.12417,0.02192
5714.05264,0.03659
5715.98111,0.05832
5717.90957,0.05634
5719.83804,0.03751
5721.76651,0.02297
5723.69498,0.01998
5725.62345,0.02137
5727.55192,0.02159
5729.48039,0.02753
5731.40886,0.03792
5733.33732,0.04568
5735.26579,0.05794
5737.19426,0.08298
5739.12273,0.09689
5741.05120,0.07759
5742.97967,0.04779
5744.90814,0.02977
5746.83660,0.02840
5748.76507,0.04042
5750.69354,0.05173
5752.62201,0.05704
5754.55048,0.05804
5756.47895,0.05049
5758.40742,0.03260
5760.33588,0.01584
5762.26435,0.02157
5764.19282,0.05205
5766.12129,0.06790
5768.04976,0.05056
5769.97823,0.04242
5771.90670,0.05124
5773.83517,0.04541
5775.76363,0.03930
5777.69210,0.04808
5779.62057,0.05787
5781.54904,0.06261
5783.47751,0.05765
5785.40598,0.04320
5787.33445,0.03684
5789.26291,0.04080
5791.19138,0.04136
5793.11985,0.04808
5795.04832,0.06847
5796.97679,0.08196
5798.90526,0.07265
5800.83373,0.04756
5802.76220,0.02960
5804.69066,0.03026
5806.61913,0.03166
5808.54760,0.02651
5810.47607,0.03402
5812.40454,0.06072
5814.33301,0.08375
5816.26148,0.08651
5818.18994,0.07812
5820.11841,0.07630
5822.04688,0.07046
5823.97535,0.05214
5825.90382,0.05301
5827.83229,0.06779
5829.76076,0.07489
5831.68923,0.08082
5833.61769,0.07283
5835.54616,0.05551
5837.47463,0.04785
5839.40310,0.04290
5841.33157,0.04363
5843.26004,0.05573
5845.18851,0.05955
5847.11697,0.04870
5849.04544,0.05395
5850.97391,0.07215
5852.90238,0.07608
5854.83085,0.07986
5856.75932,0.08670
5858.68779,0.07579
5860.61626,0.04762
5862.54472,0.03678
5864.47319,0.05334
5866.40166,0.05908
5868.33013,0.05798
5870.25860,0.07018
5872.18707,0.06760
5874.11554,0.05480
5876.04400,0.06015
5877.97247,0.06713
5879.90094,0.05946
5881.82941,0.03181
5883.75788,-0.00405
5885.68635,-0.00670
5887.61482,0.02557
5889.54329,0.05003
5891.47175,0.05114
5893.40022,0.05261
5895.32869,0.06128
5897.25716,0.06040
5899.18563,0.04716
5901.11410,0.03759
5903.04257,0.04388
5904.97103,0.04522
5906.89950,0.03796
5908.82797,0.05773
5910.75644,0.09205
5912.68491,0.09208
5914.61338,0.05571
5916.54185,0.01510
5918.47032,-0.00257
5920.39878,0.01994
5922.32725,0.05456
5924.25572,0.06113
5926.18419,0.05172
5928.11266,0.04026
5930.04113,0.02876
5931.96960,0.04277
5933.89806,0.07749
5935.82653,0.07963
5937.75500,0.05241
5939.68347,0.04653
5941.61194,0.05067
5943.54041,0.03394
5945.46888,0.01773
5947.39734,0.02457
5949.32581,0.06086
5951.25428,0.11717
5953.18275,0.13578
5955.11122,0.08507
5957.03969,0.01951
5958.96816,-0.00380
5960.89663,0.01503
5962.82509,0.04158
5964.75356,0.04690
5966.68203,0.03410
5968.61050,0.04309
5970.53897,0.08384
5972.46744,0.11740
5974.39591,0.11356
5976.32437,0.08358
5978.25284,0.06462
5980.18131,0.06484
5982.10978,0.06798
5984.03825,0.06011
5985.96672,0.04031
5987.89519,0.03250
5989.82366,0.04525
5991.75212,0.06004
5993.68059,0.06087
5995.60906,0.04779
5997.53753,0.02699
5999.46600,0.00995
6001.39447,0.01494
6003.32294,0.02711
6005.25140,0.02300
6007.17987,0.01175
6009.10834,0.00967
6011.03681,0.03119
6012.96528,0.06010
6014.89375,0.07334
6016.82222,0.07322
6018.75069,0.06355
6020.67915,0.06857
6022.60762,0.07956
6024.53609,0.06808
6026.46456,0.05958
6028.39303,0.05450
6030.32150,0.04073
6032.24997,0.03780
6034.17843,0.03887
6036.10690,0.02773
6038.03537,0.00934
6039.96384,0.00516
6041.89231,0.02520
6043.82078,0.04413
6045.74925,0.03907
6047.67772,0.02266
6049.60618,0.01372
6051.53465,0.02570
6053.46312,0.05455
6055.39159,0.07117
6057.32006,0.06817
6059.24853,0.06172
6061.17700,0.04934
6063.10546,0.02247
6065.03393,0.00013
6066.96240,0.01112
6068.89087,0.03781
6070.81934,0.04818
6072.74781,0.04867
6074.67628,0.06017
6076.60475,0.07920
6078.53321,0.08109
6080.46168,0.06811
6082.39015,0.07657
6084.31862,0.09885
6086.24709,0.09147
6088.17556,0.06682
6090.10403,0.05369
6092.03249,0.04744
6093.96096,0.03691
6095.88943,0.01408
6097.81790,-0.00591
6099.74637,0.00678
6101.67484,0.05152
6103.60331,0.07674
6105.53177,0.05921
6107.46024,0.03919
6109.38871,0.05196
6111.31718,0.07747
6113.24565,0.08183
6115.17412,0.08046
6117.10259,0.08406
6119.03106,0.07716
6120.95952,0.08232
6122.88799,0.09755
6124.81646,0.07365
6126.74493,0.02288
6128.67340,0.01768
6130.60187,0.06525
6132.53034,0.09262
6134.45880,0.07005
6136.38727,0.04505
6138.31574,0.05570
6140.24421,0.08690
6142.17268,0.10278
6144.10115,0.10426
6146.02962,0.11603
6147.95809,0.10576
6149.88655,0.05089
6151.81502,0.00562
6153.74349,0.00524
6155.67196,0.00669
6157.60043,-0.01157
6159.52890,-0.01313
6161.45737,0.01212
6163.38583,0.02936
6165.31430,0.01812
6167.24277,0.00693
6169.17124,0.03183
6171.09971,0.07276
6173.02818,0.08328
6174.95665,0.06767
6176.88512,0.06612
6178.81358,0.08995
6180.74205,0.10742
6182.67052,0.08593
6184.59899,0.04793
6186.52746,0.05099
6188.45593,0.08108
6190.38440,0.06498
6192.31286,0.02539
6194.24133,0.02182
6196.16980,0.04594
6198.09827,0.07854
6200.02674,0.10640
6201.95521,0.11255
6203.88368,0.10710
6205.81215,0.09910
6207.74061,0.08684
6209.66908,0.07700
6211.59755,0.08805
6213.52602,0.11381
6215.45449,0.10070
6217.38296,0.04330
6219.31143,0.00268
6221.23989,-0.00449
6223.16836,0.00693
6225.09683,0.03496
6227.02530,0.04888
6228.95377,0.01910
6230.88224,-0.00117
6232.81071,0.03767
6234.73918,0.09092
6236.66764,0.12097
6238.59611,0.12850
6240.52458,0.11257
6242.45305,0.07144
6244.38152,0.01672
6246.30999,-0.01731
6248.23846,-0.00831
6250.16692,0.04867
6252.09539,0.12608
6254.02386,0.14805
6255.95233,0.11169
6257.88080,0.09733
6259.80927,0.11731
6261.73774,0.12338
6263.66621,0.10166
6265.59467,0.08115
6267.52314,0.09124
6269.45161,0.09947
6271.38008,0.09031
6273.30855,0.07911
6275.23702,0.06862
6277.16549,0.06839
6279.09395,0.06745
6281.02242,0.05654
6282.95089,0.05948
6284.87936,0.08436
6286.80783,0.11241
6288.73630,0.13633
6290.66477,0.14049
6292.59323,0.11045
6294.52170,0.06647
6296.45017,0.02991
6298.37864,0.02225
6300.30711,0.03763
6302.23558,0.02706
6304.16405,-0.00503
6306.09252,-0.00056
6308.02098,0.03018
6309.94945,0.02675
6311.87792,0.00130
6313.80639,0.00566
6315.73486,0.05508
6317.66333,0.10561
6319.59180,0.07669
6321.52026,0.00815
6323.44873,0.01707
6325.37720,0.05981
6327.30567,0.04682
6329.23414,0.01200
6331.16261,-0.00005
6333.09108,0.00285
6335.01955,0.00539
6336.94801,0.00019
6338.87648,0.01379
6340.80495,0.05341
6342.73342,0.09006
6344.66189,0.11075
6346.59036,0.10884
6348.51883,0.10636
6350.44729,0.11887
6352.37576,0.07795
6354.30423,-0.00613
6356.23270,-0.03570
6358.16117,-0.00214
6360.08964,0.05842
6362.01811,0.10185
6363.94658,0.06680
6365.87504,-0.01071
6367.80351,-0.02260
6369.73198,0.03655
6371.66045,0.08918
6373.58892,0.10178
6375.51739,0.09666
6377.44586,0.07864
6379.37432,0.05296
6381.30279,0.04218
6383.23126,0.04849
6385.15973,0.06621
6387.08820,0.07793
6389.01667,0.05582
6390.94514,0.02640
6392.87361,0.01767
6394.80207,0.02282
6396.73054,0.06325
6398.65901,0.10520
6400.58748,0.09804
6402.51595,0.06900
6404.44442,0.05160
6406.37289,0.03482
6408.30135,0.00785
6410.22982,0.00017
6412.15829,0.02764
6414.08676,0.06786
6416.01523,0.11573
6417.94370,0.13611
6419.87217,0.08408
6421.80064,0.02697
6423.72910,0.02861
6425.65757,0.05484
6427.58604,0.04775
6429.51451,-0.00394
6431.44298,-0.03925
6433.37145,0.01392
6435.29992,0.10352
6437.22838,0.13930
6439.15685,0.10808
6441.08532,0.05833
6443.01379,0.03045
6444.94226,0.04120
6446.87073,0.04703
6448.79920,0.02872
6450.72766,0.02521
6452.65613,0.05185
6454.58460,0.08462
6456.51307,0.08589
6458.44154,0.05249
6460.37001,0.01949
6462.29848,-0.01205
6464.22695,-0.02911
6466.15541,0.00716
6468.08388,0.07609
6470.01235,0.12153
6471.94082,0.11972
6473.86929,0.08947
6475.79776,0.07054
6477.72623,0.06636
6479.65469,0.04133
6481.58316,-0.01268
6483.51163,-0.03169
6485.44010,0.01159
6487.36857,0.05177
6489.29704,0.04001
6491.22551,-0.01315
6493.15398,-0.02439
6495.08244,0.04271
6497.01091,0.09324
6498.93938,0.07333
6500.86785,0.01377
6502.79632,-0.01707
6504.72479,-0.00143
6506.65326,0.01105
6508.58172,-0.00239
6510.51019,-0.01528
6512.43866,0.00094
6514.36713,0.02846
6516.29560,0.03025
6518.22407,0.01922
6520.15254,0.03690
6522.08101,0.05298
6524.00947,-0.00546
6525.93794,-0.09092
6527.86641,-0.08477
6529.79488,-0.00464
6531.72335,0.07595
6533.65182,0.10546
6535.58029,0.08317
6537.50875,0.08439
6539.43722,0.12145
6541.36569,0.11811
6543.29416,0.07504
6545.22263,0.04805
6547.15110,0.02307
6549.07957,0.00466
6551.00804,0.04115
6552.93650,0.08137
6554.86497,0.07607
6556.79344,0.04965
6558.72191,0.02598
6560.65038,0.03548
6562.57885,0.05659
6564.50732,0.04614
6566.43578,0.01805
6568.36425,-0.02294
6570.29272,-0.04933
6572.22119,-0.00660
6574.14966,0.05409
6576.07813,0.08064
6578.00660,0.09290
6579.93507,0.07988
6581.86353,0.06254
6583.79200,0.06830
6585.72047,0.03809
6587.64894,-0.01321
6589.57741,-0.00963
6591.50588,0.03713
6593.43435,0.07064
6595.36281,0.06485
6597.29128,0.02979
6599.21975,-0.00738
6601.14822,0.00447
6603.07669,0.05224
6605.00516,0.08824
6606.93363,0.10530
6608.86210,0.06921
6610.79056,-0.00077
6612.71903,-0.03505
6614.64750,-0.02883
6616.57597,0.00734
6618.50444,0.05319
6620.43291,0.06788
6622.36138,0.05489
6624.28984,0.03932
6626.21831,0.03738
6628.14678,0.01482
6630.07525,-0.04876
6632.00372,-0.04875
6633.93219,0.04072
6635.86066,0.12465
6637.78912,0.14001
6639.71759,0.09265
6641.64606,0.02689
6643.57453,-0.01267
6645.50300,-0.01733
6647.43147,0.00172
6649.35994,0.02599
6651.28841,0.05424
6653.21687,0.10569
6655.14534,0.16305
6657.07381,0.17138
6659.00228,0.11315
6660.93075,0.03232
6662.85922,0.01140
6664.78769,0.06663
6666.71615,0.11650
6668.64462,0.11403
6670.57309,0.06843
6672.50156,0.00104
6674.43003,-0.02327
6676.35850,-0.00322
6678.28697,-0.00249
6680.21544,-0.01161
6682.14390,0.00283
6684.07237,0.03025
6686.00084,0.05257
6687.92931,0.05471
6689.85778,0.01931
6691.78625,-0.02005
6693.71472,-0.02563
6695.64318,-0.00242
6697.57165,0.06065
6699.50012,0.14134
6701.42859,0.16127
6703.35706,0.11845
6705.28553,0.07266
6707.21400,0.05820
6709.14247,0.06925
6711.07093,0.05884
6712.99940,0.00598
6714.92787,-0.02961
6716.85634,0.02305
6718.78481,0.08548
6720.71328,0.05488
6722.64175,0.00172
6724.57021,-0.01785
6726.49868,-0.04364
6728.42715,-0.04977
6730.35562,-0.01046
6732.28409,0.00679
6734.21256,-0.01398
6736.14103,-0.02541
6738.06950,-0.01577
6739.99796,-0.00517
6741.92643,-0.00740
6743.85490,0.01860
6745.78337,0.05155
6747.71184,0.02991
6749.64031,0.00176
6751.56878,0.01525
6753.49724,0.04139
6755.42571,0.05646
6757.35418,0.05545
6759.28265,0.04889
6761.21112,0.06421
6763.13959,0.08762
6765.06806,0.06388
6766.99653,-0.00507
6768.92499,-0.05013
6770.85346,-0.02265
6772.78193,0.04593
6774.71040,0.09287
6776.63887,0.11387
6778.56734,0.14092
6780.49581,0.14997
6782.42427,0.09805
6784.35274,0.01983
6786.28121,-0.01189
6788.20968,0.02252
6790.13815,0.08965
6792.06662,0.10697
6793.99509,0.04380
6795.92355,-0.00990
6797.85202,-0.02163
6799.78049,-0.03322
6801.70896,-0.03153
6803.63743,0.01012
6805.56590,0.06736
6807.49437,0.07743
6809.42284,0.00767
6811.35130,-0.05224
6813.27977,-0.02175
6815.20824,-0.00366
6817.13671,-0.03376
6819.06518,-0.06482
6820.99365,-0.11803
6822.92212,-0.14981
6824.85058,-0.10278
6826.77905,-0.04688
6828.70752,-0.01177
6830.63599,0.02759
6832.56446,0.07191
6834.49293,0.12963
6836.42140,0.18634
6838.34987,0.17935
6840.27833,0.13309
6842.20680,0.10692
6844.13527,0.10453
6846.06374,0.11034
6847.99221,0.11895
6849.92068,0.10757
6851.84915,0.06549
6853.77761,0.03709
6855.70608,0.04143
6857.63455,0.07722
6859.56302,0.15817
6861.49149,0.22763
6863.41996,0.21135
6865.34843,0.16187
6867.27690,0.10787
6869.20536,0.02379
6871.13383,-0.02571
6873.06230,0.01293
6874.99077,0.03770
6876.91924,0.01230
6878.84771,0.00455
6880.77618,0.00278
6882.70464,-0.00775
6884.63311,0.00378
6886.56158,0.04861
6888.49005,0.11014
6890.41852,0.13349
6892.34699,0.13141
6894.27546,0.16159
6896.20393,0.18275
6898.13239,0.14253
6900.06086,0.08590
6901.98933,0.06807
6903.91780,0.07217
6905.84627,0.05528
6907.77474,0.02469
6909.70321,0.02667
6911.63167,0.07527
6913.56014,0.11310
6915.48861,0.12499
6917.41708,0.19064
6919.34555,0.26792
6921.27402,0.21129
6923.20249,0.07835
6925.13096,-0.00975
6927.05942,-0.02574
6928.98789,0.04042
6930.91636,0.12858
6932.84483,0.11060
6934.77330,0.04739
6936.70177,0.03439
6938.63024,0.00859
6940.55870,-0.06829
6942.48717,-0.08923
6944.41564,-0.03392
6946.34411,0.02425
6948.27258,0.06095
6950.20105,0.08808
6952.12952,0.11578
6954.05799,0.13999
6955.98645,0.12865
6957.91492,0.05167
6959.84339,-0.01931
6961.77186,0.03336
6963.70033,0.15141
6965.62880,0.19390
6967.55727,0.12462
6969.48573,0.04558
6971.41420,0.08048
6973.34267,0.13906
6975.27114,0.06226
6977.19961,-0.06906
6979.12808,-0.10115
6981.05655,-0.03316
6982.98501,0.05022
6984.91348,0.10300
6986.84195,0.15453
6988.77042,0.16661
6990.69889,0.09620
6992.62736,0.02780
6994.55583,-0.00967
6996.48430,-0.05992
6998.41276,-0.06770
7000.34123,0.01250
7002.26970,0.07285
7004.19817,0.07163
7006.12664,0.04638
7008.05511,-0.00487
7009.98358,-0.03277
7011.91204,0.03777
7013.84051,0.14801
7015.76898,0.16142
7017.69745,0.10574
7019.62592,0.07091
7021.55439,0.07308
7023.48286,0.03563
7025.41133,-0.05364
7027.33979,-0.07947
7029.26826,-0.04690
7031.19673,-0.04571
7033.12520,-0.01792
7035.05367,0.05948
7036.98214,0.09580
7038.91061,0.10566
7040.83907,0.14343
7042.76754,0.14362
7044.69601,0.08526
7046.62448,0.08384
7048.55295,0.09411
7050.48142,0.04660
7052.40989,0.01626
7054.33836,0.07624
7056.26682,0.19014
7058.19529,0.21308
7060.12376,0.15005
7062.05223,0.10237
7063.98070,0.03630
7065.90917,-0.01189
7067.83764,0.03757
7069.76610,0.12029
7071.69457,0.06461
7073.62304,-0.01191
7075.55151,0.02443
7077.47998,0.03473
7079.40845,-0.00228
7081.33692,0.00226
7083.26539,0.03015
7085.19385,0.05163
7087.12232,0.06289
7089.05079,0.03729
7090.97926,-0.01579
7092.90773,-0.03579
7094.83620,-0.01743
7096.76467,-0.02700
7098.69313,-0.05100
7100.62160,0.01918
7102.55007,0.16051
7104.47854,0.24346
7106.40701,0.22202
7108.33548,0.15655
7110.26395,0.09663
7112.19242,0.05701
7114.12088,0.02078
7116.04935,-0.00500
7117.97782,0.03423
7119.90629,0.10564
7121.83476,0.14586
7123.76323,0.13712
7125.69170,0.08036
7127.62016,0.04492
7129.54863,0.06158
7131.47710,0.05690
7133.40557,-0.00252
7135.33404,-0.04122
7137.26251,-0.04155
7139.19098,-0.06189
7141.11944,-0.04710
7143.04791,0.08273
7144.97638,0.20549
7146.90485,0.18054
7148.83332,0.11695
7150.76179,0.05281
7152.69026,-0.05523
7154.61873,-0.09820
7156.54719,-0.00868
7158.47566,0.09256
7160.40413,0.11278
7162.33260,0.06292
7164.26107,0.02176
7166.18954,0.06340
7168.11801,0.14482
7170.04647,0.14295
7171.97494,0.08717
7173.90341,0.07723
7175.83188,0.06279
7177.76035,0.03822
7179.68882,0.08590
7181.61729,0.12186
7183.54576,0.06809
7185.47422,0.03474
7187.40269,0.03071
7189.33116,0.03462
7191.25963,0.07108
7193.18810,0.09578
7195.11657,0.07369
7197.04504,0.04516
7198.97350,0.07870
7200.90197,0.17413
7202.83044,0.26259
7204.75891,0.25906
7206.68738,0.15403
7208.61585,0.03230
7210.54432,-0.06639
7212.47279,-0.09670
7214.40125,-0.07111
7216.32972,-0.06251
7218.25819,-0.05160
7220.18666,0.04765
7222.11513,0.16518
7224.04360,0.21773
7225.97207,0.18513
7227.90053,0.09956
7229.82900,-0.00940
7231.75747,-0.10874
7233.68594,-0.16957
7235.61441,-0.17798
7237.54288,-0.09206
7239.47135,0.07467
7241.39982,0.25264
7243.32828,0.33954
7245.25675,0.30640
7247.18522,0.24852
7249.11369,0.17458
7251.04216,0.07753
7252.97063,0.03018
7254.89910,0.07943
7256.82756,0.08995
7258.75603,0.04425
7260.68450,0.05469
7262.61297,0.11717
7264.54144,0.10890
7266.46991,0.08836
7268.39838,0.11331
7270.32685,0.10043
7272.25531,-0.03842
7274.18378,-0.13722
7276.11225,-0.06031
7278.04072,0.12411
7279.96919,0.23369
7281.89766,0.07873
7283.82613,-0.06582
7285.75459,-0.03158
7287.68306,0.04592
7289.61153,0.09510
7291.54000,0.14181
7293.46847,0.13658
7295.39694,0.04567
7297.32541,-0.06374
7299.25387,-0.12113
7301.18234,-0.07987
7303.11081,0.04906
7305.03928,0.16050
7306.96775,0.20083
7308.89622,0.13960
7310.82469,0.03025
7312.75316,0.04768
7314.68162,0.15710
7316.61009,0.18060
7318.53856,0.13411
7320.46703,0.13466
7322.39550,0.08266
7324.32397,-0.05679
7326.25244,-0.16765
7328.18090,-0.20096
7330.10937,-0.13999
7332.03784,-0.05830
7333.96631,-0.05595
7335.89478,-0.12309
7337.82325,-0.23035
7339.75172,-0.32861
7341.68019,-0.26811
7343.60865,-0.11040
7345.53712,0.03802
7347.46559,0.14041
7349.39406,0.14641
7351.32253,0.05202
7353.25100,-0.03077
7355.17947,-0.00526
7357.10793,0.06665
7359.03640,0.00037
7360.96487,-0.15484
7362.89334,-0.08156
7364.82181,0.13542
7366.75028,0.17519
7368.67875,0.08183
7370.60722,0.06131
7372.53568,0.13595
7374.46415,0.15649
7376.39262,-0.00431
7378.32109,-0.01501
7380.24956,0.17431
7382.17803,0.28658
7384.10650,0.22465
7386.03496,0.11371
7387.96343,0.04415
7389.89190,0.04722
7391.82037,0.11998
7393.74884,0.22272
7395.67731,0.28388
7397.60578,0.26297
7399.53425,0.13756
7401.46271,-0.05359
7403.39118,-0.15890
7405.31965,-0.07186
7407.24812,0.02219
7409.17659,-0.00214
7411.10506,-0.05011
7413.03353,-0.03563
7414.96199,-0.02610
7416.89046,-0.07795
7418.81893,-0.10576
7420.74740,-0.11641
7422.67587,-0.14269
7424.60434,-0.09148
7426.53281,-0.01300
7428.46128,0.02297
7430.38974,0.05245
7432.31821,0.10178
7434.24668,0.06854
7436.17515,-0.05456
7438.10362,-0.11101
7440.03209,-0.07953
7441.96056,0.02062
7443.88902,0.13214
7445.81749,0.10322
7447.74596,0.00097
7449.67443,-0.03033
7451.60290,-0.04829
7453.53137,-0.10414
7455.45984,-0.09521
7457.38831,-0.01513
7459.31677,0.08701
7461.24524,0.19561
7463.17371,0.31338
7465.10218,0.36620
7467.03065,0.32715
7468.95912,0.28213
7470.88759,0.23127
7472.81605,0.20808
7474.74452,0.25605
7476.67299,0.23305
7478.60146,0.04556
7480.52993,-0.09080
7482.45840,-0.07329
7484.38687,-0.09980
7486.31533,-0.11949
7488.24380,0.06310
7490.17227,0.35438
7492.10074,0.41114
7494.02921,0.20434
7495.95768,-0.01225
7497.88615,-0.07075
