399.19301,15.52081
401.12148,1.85621
403.04995,0.78395
404.97842,0.51078
406.90689,0.31611
408.83536,0.17250
410.76382,0.04425
412.69229,-0.05086
414.62076,-0.06643
416.54923,-0.05679
418.47770,-0.05362
420.40617,-0.01879
422.33464,0.06110
424.26311,0.07419
426.19157,0.02827
428.12004,0.01491
430.04851,0.00989
431.97698,-0.03017
433.90545,-0.01039
435.83392,0.09995
437.76239,0.16226
439.69085,0.16621
441.61932,0.12676
443.54779,0.02391
445.47626,-0.05943
447.40473,-0.04274
449.33320,0.07893
451.26167,0.17152
453.19013,0.12198
455.11860,-0.00765
457.04707,-0.08920
458.97554,-0.04106
460.90401,0.05705
462.83248,0.08855
464.76095,0.08106
466.68942,0.03346
468.61788,-0.06709
470.54635,-0.10571
472.47482,-0.04602
474.40329,-0.02810
476.33176,-0.04275
478.26023,0.00203
480.18870,0.05139
482.11716,0.10346
484.04563,0.14334
485.97410,0.12316
487.90257,0.11141
489.83104,0.14816
491.75951,0.16103
493.68798,0.12191
495.61645,0.08445
497.54491,0.08155
499.47338,0.09189
501.40185,0.09917
503.33032,0.11699
505.25879,0.14388
507.18726,0.12700
509.11573,0.08127
511.04419,0.07815
512.97266,0.07743
514.90113,0.04101
516.82960,0.03441
518.75807,0.08516
520.68654,0.13604
522.61501,0.14467
524.54348,0.11204
526.47194,0.09491
528.40041,0.11586
530.32888,0.13963
532.25735,0.13804
534.18582,0.11137
536.11429,0.10042
538.04276,0.11513
539.97122,0.10822
541.89969,0.07926
543.82816,0.06834
545.75663,0.07754
547.68510,0.07486
549.61357,0.04133
551.54204,0.01824
553.47051,0.04096
555.39897,0.08076
557.32744,0.10996
559.25591,0.12446
561.18438,0.12566
563.11285,0.11962
565.04132,0.12150
566.96979,0.13531
568.89825,0.13732
570.82672,0.11770
572.75519,0.10143
574.68366,0.10659
576.61213,0.11028
578.54060,0.09343
580.46907,0.08776
582.39754,0.11642
584.32600,0.15194
586.25447,0.17479
588.18294,0.17413
590.11141,0.14324
592.03988,0.11412
593.96835,0.10720
595.89682,0.10824
597.82528,0.11391
599.75375,0.12235
601.68222,0.13549
603.61069,0.14671
605.53916,0.13419
607.46763,0.11520
609.39610,0.12936
611.32456,0.16464
613.25303,0.15915
615.18150,0.10667
617.10997,0.06896
619.03844,0.05913
620.96691,0.06556
622.89538,0.08749
624.82385,0.10407
626.75231,0.11373
628.68078,0.12434
630.60925,0.12654
632.53772,0.12123
634.46619,0.12082
636.39466,0.12696
638.32313,0.13335
640.25159,0.13571
642.18006,0.12811
644.10853,0.10922
646.03700,0.09975
647.96547,0.12001
649.89394,0.14558
651.82241,0.14367
653.75088,0.13246
655.67934,0.14294
657.60781,0.15693
659.53628,0.14494
661.46475,0.13215
663.39322,0.13741
665.32169,0.14145
667.25016,0.13483
669.17862,0.12682
671.10709,0.11689
673.03556,0.10010
674.96403,0.09280
676.89250,0.09628
678.82097,0.09504
680.74944,0.09861
682.67791,0.11095
684.60637,0.11752
686.53484,0.11936
688.46331,0.12599
690.39178,0.13066
692.32025,0.12426
694.24872,0.11467
696.17719,0.10909
698.10565,0.11277
700.03412,0.13516
701.96259,0.16215
703.89106,0.16868
705.81953,0.15732
707.74800,0.14500
709.67647,0.13730
711.60494,0.13087
713.53340,0.12725
715.46187,0.12954
717.39034,0.13133
719.31881,0.13052
721.24728,0.13444
723.17575,0.14357
725.10422,0.14711
727.03268,0.13992
728.96115,0.13004
730.88962,0.12513
732.81809,0.12447
734.74656,0.11987
736.67503,0.11504
738.60350,0.11997
740.53197,0.12568
742.46043,0.12509
744.38890,0.12770
746.31737,0.14356
748.24584,0.16056
750.17431,0.15718
752.10278,0.14211
754.03125,0.13995
755.95971,0.14574
757.88818,0.13767
759.81665,0.12495
761.74512,0.12310
763.67359,0.12679
765.60206,0.13313
767.53053,0.13781
769.45900,0.13869
771.38746,0.14335
773.31593,0.14544
775.24440,0.13942
777.17287,0.13556
779.10134,0.13478
781.02981,0.13404
782.95828,0.13312
784.88674,0.13472
786.81521,0.14294
788.74368,0.18588
790.67215,0.27375
792.60062,0.29948
794.52909,0.21939
796.45756,0.15758
798.38602,0.14822
800.31449,0.14065
802.24296,0.13030
804.17143,0.12524
806.09990,0.12891
808.02837,0.13928
809.95684,0.14968
811.88531,0.15090
813.81377,0.14220
815.74224,0.12737
817.67071,0.11075
819.59918,0.11022
821.52765,0.12998
823.45612,0.14433
825.38459,0.13821
827.31305,0.12788
829.24152,0.12536
831.16999,0.12853
833.09846,0.13593
835.02693,0.14299
836.95540,0.14503
838.88387,0.14347
840.81234,0.14751
842.74080,0.15427
844.66927,0.14548
846.59774,0.13189
848.52621,0.13796
850.45468,0.14970
852.38315,0.14815
854.31162,0.14800
856.24008,0.15607
858.16855,0.15983
860.09702,0.16173
862.02549,0.16699
863.95396,0.16448
865.88243,0.14428
867.81090,0.11965
869.73937,0.11333
871.66783,0.12539
873.59630,0.13956
875.52477,0.14513
877.45324,0.14323
879.38171,0.14215
881.31018,0.14570
883.23865,0.14907
885.16711,0.14531
887.09558,0.13907
889.02405,0.13856
890.95252,0.13799
892.88099,0.13231
894.80946,0.12888
896.73793,0.13616
898.66640,0.15332
900.59486,0.16813
902.52333,0.17012
904.45180,0.16388
906.38027,0.15917
908.30874,0.15763
910.23721,0.15630
912.16568,0.15672
914.09414,0.15986
916.02261,0.16305
917.95108,0.16601
919.87955,0.16331
921.80802,0.15396
923.73649,0.15220
925.66496,0.15780
927.59343,0.15588
929.52189,0.14515
931.45036,0.13936
933.37883,0.14698
935.30730,0.15286
937.23577,0.14804
939.16424,0.14363
941.09271,0.14160
943.02117,0.14182
944.94964,0.14618
946.87811,0.14821
948.80658,0.14839
950.73505,0.15343
952.66352,0.15624
954.59199,0.15323
956.52045,0.15395
958.44892,0.15441
960.37739,0.14712
962.30586,0.13792
964.23433,0.13413
966.16280,0.13764
968.09127,0.14616
970.01974,0.15554
971.94820,0.15939
973.87667,0.15529
975.80514,0.15120
977.73361,0.15210
979.66208,0.15164
981.59055,0.14799
983.51902,0.14539
985.44748,0.14183
987.37595,0.13794
989.30442,0.14072
991.23289,0.14646
993.16136,0.14724
995.08983,0.14811
997.01830,0.15296
998.94677,0.15683
1000.87523,0.15867
1002.80370,0.15987
1004.73217,0.15909
1006.66064,0.16189
1008.58911,0.16848
1010.51758,0.16233
1012.44605,0.14726
1014.37451,0.14583
1016.30298,0.15227
1018.23145,0.14923
1020.15992,0.14579
1022.08839,0.15161
1024.01686,0.15830
1025.94533,0.16041
1027.87380,0.15616
1029.80226,0.14774
1031.73073,0.14368
1033.65920,0.14802
1035.58767,0.15657
1037.51614,0.16036
1039.44461,0.15724
1041.37308,0.15552
1043.30154,0.16081
1045.23001,0.16539
1047.15848,0.16195
1049.08695,0.15983
1051.01542,0.16334
1052.94389,0.16479
1054.87236,0.16892
1056.80083,0.17585
1058.72929,0.17438
1060.65776,0.16564
1062.58623,0.15618
1064.51470,0.15144
1066.44317,0.14753
1068.37164,0.14365
1070.30011,0.15046
1072.22857,0.15452
1074.15704,0.14849
1076.08551,0.15454
1078.01398,0.16908
1079.94245,0.17339
1081.87092,0.17080
1083.79939,0.16403
1085.72786,0.15205
1087.65632,0.14641
1089.58479,0.15343
1091.51326,0.16005
1093.44173,0.15813
1095.37020,0.15617
1097.29867,0.15862
1099.22714,0.16189
1101.15560,0.16097
1103.08407,0.15826
1105.01254,0.16180
1106.94101,0.16891
1108.86948,0.17526
1110.79795,0.17914
1112.72642,0.17460
1114.65489,0.16436
1116.58335,0.16128
1118.51182,0.16467
1120.44029,0.16461
1122.36876,0.16321
1124.29723,0.16048
1126.22570,0.15554
1128.15417,0.15628
1130.08263,0.16050
1132.01110,0.16354
1133.93957,0.16548
1135.86804,0.16022
1137.79651,0.15217
1139.72498,0.15325
1141.65345,0.15815
1143.58191,0.15903
1145.51038,0.15978
1147.43885,0.16106
1149.36732,0.15971
1151.29579,0.15968
1153.22426,0.16372
1155.15273,0.16821
1157.08120,0.17101
1159.00966,0.17071
1160.93813,0.16711
1162.86660,0.16746
1164.79507,0.17389
1166.72354,0.17570
1168.65201,0.17170
1170.58048,0.17044
1172.50894,0.16849
1174.43741,0.16124
1176.36588,0.15746
1178.29435,0.16245
1180.22282,0.16807
1182.15129,0.16723
1184.07976,0.16365
1186.00823,0.16388
1187.93669,0.16333
1189.86516,0.15951
1191.79363,0.16234
1193.72210,0.17107
1195.65057,0.17605
1197.57904,0.17570
1199.50751,0.17427
1201.43597,0.17459
1203.36444,0.17673
1205.29291,0.17809
1207.22138,0.17305
1209.14985,0.16539
1211.07832,0.16345
1213.00679,0.16511
1214.93526,0.16664
1216.86372,0.16869
1218.79219,0.17230
1220.72066,0.17652
1222.64913,0.17948
1224.57760,0.18076
1226.50607,0.18027
1228.43454,0.17763
1230.36300,0.17354
1232.29147,0.16974
1234.21994,0.16661
1236.14841,0.16551
1238.07688,0.16733
1240.00535,0.16889
1241.93382,0.17077
1243.86229,0.17485
1245.79075,0.17668
1247.71922,0.17382
1249.64769,0.17106
1251.57616,0.17232
1253.50463,0.17500
1255.43310,0.17642
1257.36157,0.17622
1259.29003,0.17643
1261.21850,0.18040
1263.14697,0.18293
1265.07544,0.18064
1267.00391,0.17934
1268.93238,0.17976
1270.86085,0.17815
1272.78932,0.17509
1274.71778,0.17434
1276.64625,0.17519
1278.57472,0.17620
1280.50319,0.17934
1282.43166,0.18293
1284.36013,0.18478
1286.28860,0.18544
1288.21706,0.18374
1290.14553,0.18094
1292.07400,0.18061
1294.00247,0.18127
1295.93094,0.18183
1297.85941,0.18364
1299.78788,0.18374
1301.71634,0.17829
1303.64481,0.17155
1305.57328,0.17120
1307.50175,0.17481
1309.43022,0.17540
1311.35869,0.17504
1313.28716,0.17874
1315.21563,0.18359
1317.14409,0.18500
1319.07256,0.18321
1321.00103,0.17966
1322.92950,0.17831
1324.85797,0.18091
1326.78644,0.18291
1328.71491,0.18275
1330.64337,0.18258
1332.57184,0.18163
1334.50031,0.17844
1336.42878,0.17473
1338.35725,0.17493
1340.28572,0.17972
1342.21419,0.18268
1344.14266,0.18285
1346.07112,0.18257
1347.99959,0.18038
1349.92806,0.17803
1351.85653,0.17815
1353.78500,0.17865
1355.71347,0.17945
1357.64194,0.18148
1359.57040,0.18322
1361.49887,0.18356
1363.42734,0.18202
1365.35581,0.17943
1367.28428,0.17732
1369.21275,0.17719
1371.14122,0.18007
1373.06969,0.18522
1374.99815,0.19141
1376.92662,0.19601
1378.85509,0.19627
1380.78356,0.19417
1382.71203,0.19426
1384.64050,0.19599
1386.56897,0.19471
1388.49743,0.18841
1390.42590,0.18389
1392.35437,0.18370
1394.28284,0.18413
1396.21131,0.18549
1398.13978,0.18767
1400.06825,0.18711
1401.99672,0.18397
1403.92518,0.18046
1405.85365,0.17956
1407.78212,0.18201
1409.71059,0.18467
1411.63906,0.18586
1413.56753,0.18525
1415.49600,0.18373
1417.42446,0.18344
1419.35293,0.18332
1421.28140,0.18166
1423.20987,0.18097
1425.13834,0.18276
1427.06681,0.18681
1428.99528,0.19068
1430.92375,0.19039
1432.85221,0.18786
1434.78068,0.18834
1436.70915,0.19169
1438.63762,0.19520
1440.56609,0.19602
1442.49456,0.19199
1444.42303,0.18712
1446.35149,0.18607
1448.27996,0.18859
1450.20843,0.19350
1452.13690,0.19860
1454.06537,0.20093
1455.99384,0.19906
1457.92231,0.19778
1459.85077,0.19917
1461.77924,0.19763
1463.70771,0.19439
1465.63618,0.19115
1467.56465,0.18892
1469.49312,0.18904
1471.42159,0.19000
1473.35006,0.19062
1475.27852,0.19408
1477.20699,0.19698
1479.13546,0.19296
1481.06393,0.18397
1482.99240,0.18059
1484.92087,0.18566
1486.84934,0.19029
1488.77780,0.18954
1490.70627,0.18935
1492.63474,0.19174
1494.56321,0.19402
1496.49168,0.19381
1498.42015,0.18907
1500.34862,0.18794
1502.27709,0.19223
1504.20555,0.19707
1506.13402,0.19977
1508.06249,0.19810
1509.99096,0.19705
1511.91943,0.19638
1513.84790,0.19502
1515.77637,0.19478
1517.70483,0.19775
1519.63330,0.20416
1521.56177,0.20778
1523.49024,0.19922
1525.41871,0.18659
1527.34718,0.18076
1529.27565,0.18293
1531.20412,0.18477
1533.13258,0.18221
1535.06105,0.18062
1536.98952,0.18446
1538.91799,0.19376
1540.84646,0.19829
1542.77493,0.18965
1544.70340,0.18791
1546.63186,0.19137
1548.56033,0.19224
1550.48880,0.19063
1552.41727,0.19080
1554.34574,0.19494
1556.27421,0.20297
1558.20268,0.21026
1560.13115,0.20238
1562.05961,0.19400
1563.98808,0.18960
1565.91655,0.18702
1567.84502,0.18835
1569.77349,0.19177
1571.70196,0.19283
1573.63043,0.19303
1575.55889,0.19460
1577.48736,0.19622
1579.41583,0.19458
1581.34430,0.19099
1583.27277,0.18945
1585.20124,0.19257
1587.12971,0.19519
1589.05818,0.19306
1590.98664,0.19117
1592.91511,0.19186
1594.84358,0.19282
1596.77205,0.19266
1598.70052,0.19148
1600.62899,0.19125
1602.55746,0.19089
1604.48592,0.18942
1606.41439,0.18963
1608.34286,0.19153
1610.27133,0.19295
1612.19980,0.19315
1614.12827,0.19043
1616.05674,0.18601
1617.98521,0.18793
1619.91367,0.19248
1621.84214,0.19451
1623.77061,0.19558
1625.69908,0.19636
1627.62755,0.19889
1629.55602,0.20421
1631.48449,0.20743
1633.41295,0.20658
1635.34142,0.20385
1637.26989,0.20082
1639.19836,0.19866
1641.12683,0.19833
1643.05530,0.19932
1644.98377,0.19989
1646.91223,0.19950
1648.84070,0.19914
1650.76917,0.19773
1652.69764,0.19528
1654.62611,0.19601
1656.55458,0.19804
1658.48305,0.20133
1660.41152,0.20727
1662.33998,0.21156
1664.26845,0.21008
1666.19692,0.20860
1668.12539,0.20826
1670.05386,0.20494
1671.98233,0.20283
1673.91080,0.20386
1675.83926,0.20256
1677.76773,0.19948
1679.69620,0.19875
1681.62467,0.20092
1683.55314,0.20479
1685.48161,0.20427
1687.41008,0.20092
1689.33855,0.19923
1691.26701,0.19938
1693.19548,0.20220
1695.12395,0.20772
1697.05242,0.21172
1698.98089,0.21161
1700.90936,0.20855
1702.83783,0.20437
1704.76629,0.20244
1706.69476,0.20272
1708.62323,0.20070
1710.55170,0.19656
1712.48017,0.19439
1714.40864,0.19432
1716.33711,0.19372
1718.26558,0.19205
1720.19404,0.19194
1722.12251,0.19206
1724.05098,0.19202
1725.97945,0.19393
1727.90792,0.19620
1729.83639,0.19623
1731.76486,0.19409
1733.69332,0.18979
1735.62179,0.18803
1737.55026,0.19118
1739.47873,0.19644
1741.40720,0.20128
1743.33567,0.20250
1745.26414,0.19887
1747.19261,0.19248
1749.12107,0.18771
1751.04954,0.18763
1752.97801,0.19130
1754.90648,0.19478
1756.83495,0.19432
1758.76342,0.19185
1760.69189,0.19356
1762.62035,0.19642
1764.54882,0.19453
1766.47729,0.19184
1768.40576,0.19219
1770.33423,0.19362
1772.26270,0.19382
1774.19117,0.19535
1776.11964,0.19754
1778.04810,0.19719
1779.97657,0.19470
1781.90504,0.19395
1783.83351,0.19535
1785.76198,0.19588
1787.69045,0.19640
1789.61892,0.19840
1791.54738,0.20144
1793.47585,0.20357
1795.40432,0.20149
1797.33279,0.19688
1799.26126,0.19457
1801.18973,0.19613
1803.11820,0.19766
1805.04666,0.19810
1806.97513,0.19881
1808.90360,0.19828
1810.83207,0.19576
1812.76054,0.19399
1814.68901,0.19454
1816.61748,0.19757
1818.54595,0.20341
1820.47441,0.20839
1822.40288,0.20825
1824.33135,0.20298
1826.25982,0.19602
1828.18829,0.19235
1830.11676,0.19399
1832.04523,0.19818
1833.97369,0.20229
1835.90216,0.20456
1837.83063,0.20031
1839.75910,0.19296
1841.68757,0.19052
1843.61604,0.19211
1845.54451,0.19510
1847.47298,0.19817
1849.40144,0.19808
1851.32991,0.19596
1853.25838,0.19526
1855.18685,0.19523
1857.11532,0.19498
1859.04379,0.19651
1860.97226,0.19809
1862.90072,0.19557
1864.82919,0.19190
1866.75766,0.19354
1868.68613,0.19997
1870.61460,0.20170
1872.54307,0.19668
1874.47154,0.19237
1876.40001,0.19321
1878.32847,0.19613
1880.25694,0.19736
1882.18541,0.19689
1884.11388,0.19690
1886.04235,0.19813
1887.97082,0.19832
1889.89929,0.19749
1891.82775,0.19767
1893.75622,0.19804
1895.68469,0.19750
1897.61316,0.19675
1899.54163,0.19608
1901.47010,0.19551
1903.39857,0.19584
1905.32704,0.19700
1907.25550,0.19804
1909.18397,0.19942
1911.11244,0.20131
1913.04091,0.20186
1914.96938,0.20124
1916.89785,0.20178
1918.82632,0.20289
1920.75478,0.20187
1922.68325,0.19962
1924.61172,0.19806
1926.54019,0.19739
1928.46866,0.19724
1930.39713,0.19706
1932.32560,0.19732
1934.25407,0.19844
1936.18253,0.19898
1938.11100,0.19950
1940.03947,0.20231
1941.96794,0.20499
1943.89641,0.20240
1945.82488,0.19804
1947.75335,0.19858
1949.68181,0.20094
1951.61028,0.19916
1953.53875,0.19641
1955.46722,0.19586
1957.39569,0.19449
1959.32416,0.19408
1961.25263,0.19792
1963.18110,0.20184
1965.10956,0.20112
1967.03803,0.19748
1968.96650,0.19677
1970.89497,0.20005
1972.82344,0.20286
1974.75191,0.20147
1976.68038,0.19498
1978.60884,0.18758
1980.53731,0.18601
1982.46578,0.19034
1984.39425,0.19346
1986.32272,0.19256
1988.25119,0.19193
1990.17966,0.19335
1992.10812,0.19555
1994.03659,0.19751
1995.96506,0.19878
1997.89353,0.19992
1999.82200,0.20062
2001.75047,0.20113
2003.67894,0.20101
2005.60741,0.19921
2007.53587,0.19652
2009.46434,0.19470
2011.39281,0.19658
2013.32128,0.20089
2015.24975,0.20273
2017.17822,0.20199
2019.10669,0.20127
2021.03515,0.20136
2022.96362,0.20187
2024.89209,0.20172
2026.82056,0.20036
2028.74903,0.19855
2030.67750,0.19859
2032.60597,0.20114
2034.53444,0.20302
2036.46290,0.20233
2038.39137,0.20013
2040.31984,0.19827
2042.24831,0.19711
2044.17678,0.19605
2046.10525,0.19704
2048.03372,0.19957
2049.96218,0.19934
2051.89065,0.19574
2053.81912,0.19306
2055.74759,0.19455
2057.67606,0.19852
2059.60453,0.20259
2061.53300,0.20562
2063.46147,0.20570
2065.38993,0.20267
2067.31840,0.20035
2069.24687,0.20218
2071.17534,0.20601
2073.10381,0.20720
2075.03228,0.20509
2076.96075,0.20266
2078.88921,0.20135
2080.81768,0.20049
2082.74615,0.20075
2084.67462,0.20146
2086.60309,0.20008
2088.53156,0.19816
2090.46003,0.19857
2092.38850,0.20071
2094.31696,0.20236
2096.24543,0.20326
2098.17390,0.20475
2100.10237,0.20540
2102.03084,0.20402
2103.95931,0.20316
2105.88778,0.20445
2107.81624,0.20579
2109.74471,0.20475
2111.67318,0.20202
2113.60165,0.20032
2115.53012,0.20059
2117.45859,0.20073
2119.38706,0.20112
2121.31553,0.20279
2123.24399,0.20222
2125.17246,0.19979
2127.10093,0.19923
2129.02940,0.20000
2130.95787,0.20054
2132.88634,0.20081
2134.81481,0.20131
2136.74327,0.20141
2138.67174,0.20054
2140.60021,0.20018
2142.52868,0.20026
2144.45715,0.20032
2146.38562,0.20131
2148.31409,0.20195
2150.24255,0.20182
2152.17102,0.20271
2154.09949,0.20340
2156.02796,0.20196
2157.95643,0.20128
2159.88490,0.20315
2161.81337,0.20404
2163.74184,0.20152
2165.67030,0.19749
2167.59877,0.19636
2169.52724,0.19985
2171.45571,0.20443
2173.38418,0.20670
2175.31265,0.20694
2177.24112,0.20565
2179.16958,0.20220
2181.09805,0.19900
2183.02652,0.19891
2184.95499,0.19973
2186.88346,0.19913
2188.81193,0.19887
2190.74040,0.20043
2192.66887,0.20203
2194.59733,0.20086
2196.52580,0.19779
2198.45427,0.19717
2200.38274,0.19869
2202.31121,0.19939
2204.23968,0.19987
2206.16815,0.20024
2208.09661,0.20030
2210.02508,0.20083
2211.95355,0.20086
2213.88202,0.20013
2215.81049,0.19987
2217.73896,0.19984
2219.66743,0.19908
2221.59590,0.19786
2223.52436,0.19746
2225.45283,0.19837
2227.38130,0.20055
2229.30977,0.20344
2231.23824,0.20569
2233.16671,0.20629
2235.09518,0.20494
2237.02364,0.20370
2238.95211,0.20395
2240.88058,0.20373
2242.80905,0.20210
2244.73752,0.20044
2246.66599,0.20007
2248.59446,0.20021
2250.52293,0.20136
2252.45139,0.20330
2254.37986,0.20197
2256.30833,0.19939
2258.23680,0.19972
2260.16527,0.19997
2262.09374,0.19799
2264.02221,0.19574
2265.95067,0.19468
2267.87914,0.19556
2269.80761,0.19776
2271.73608,0.19906
2273.66455,0.19864
2275.59302,0.19609
2277.52149,0.19251
2279.44996,0.19086
2281.37842,0.19148
2283.30689,0.19336
2285.23536,0.19483
2287.16383,0.19287
2289.09230,0.18839
2291.02077,0.18546
2292.94924,0.18426
2294.87770,0.18215
2296.80617,0.17843
2298.73464,0.17470
2300.66311,0.17293
2302.59158,0.17353
2304.52005,0.17364
2306.44852,0.16931
2308.37699,0.16212
2310.30545,0.15648
2312.23392,0.15269
2314.16239,0.14800
2316.09086,0.13844
2318.01933,0.12504
2319.94780,0.11819
2321.87627,0.12038
2323.80473,0.12001
2325.73320,0.11582
2327.66167,0.11101
2329.59014,0.10349
2331.51861,0.09773
2333.44708,0.09720
2335.37555,0.09864
2337.30401,0.09845
2339.23248,0.09263
2341.16095,0.08183
2343.08942,0.08120
2345.01789,0.09619
2346.94636,0.10947
2348.87483,0.11459
2350.80330,0.11571
2352.73176,0.11819
2354.66023,0.12131
2356.58870,0.10804
2358.51717,0.07327
2360.44564,0.04908
2362.37411,0.05674
2364.30258,0.07737
2366.23104,0.09704
2368.15951,0.10799
2370.08798,0.10716
2372.01645,0.10863
2373.94492,0.12020
2375.87339,0.13917
2377.80186,0.15803
2379.73033,0.16902
2381.65879,0.17545
2383.58726,0.18391
2385.51573,0.19201
2387.44420,0.19616
2389.37267,0.19758
2391.30114,0.19815
2393.22961,0.19879
2395.15807,0.19927
2397.08654,0.19962
2399.01501,0.20041
2400.94348,0.20099
2402.87195,0.20221
2404.80042,0.20357
2406.72889,0.20160
2408.65736,0.19770
2410.58582,0.19634
2412.51429,0.19791
2414.44276,0.19969
2416.37123,0.20058
2418.29970,0.20163
2420.22817,0.20207
2422.15664,0.20104
2424.08510,0.20014
2426.01357,0.20049
2427.94204,0.20136
2429.87051,0.20130
2431.79898,0.20005
2433.72745,0.19870
2435.65592,0.19769
2437.58439,0.19731
2439.51285,0.19794
2441.44132,0.19928
2443.36979,0.20130
2445.29826,0.20329
2447.22673,0.20400
2449.15520,0.20502
2451.08367,0.20776
2453.01213,0.21052
2454.94060,0.21160
2456.86907,0.20921
2458.79754,0.20483
2460.72601,0.20316
2462.65448,0.20316
2464.58295,0.20159
2466.51142,0.20078
2468.43988,0.20224
2470.36835,0.20363
2472.29682,0.20463
2474.22529,0.20580
2476.15376,0.20703
2478.08223,0.20876
2480.01070,0.20960
2481.93916,0.20835
2483.86763,0.20630
2485.79610,0.20503
2487.72457,0.20336
2489.65304,0.20025
2491.58151,0.19954
2493.50998,0.20223
2495.43844,0.20385
2497.36691,0.20355
2499.29538,0.20375
2501.22385,0.20552
2503.15232,0.20759
2505.08079,0.20754
2507.00926,0.20590
2508.93773,0.20512
2510.86619,0.20487
2512.79466,0.20435
2514.72313,0.20429
2516.65160,0.20527
2518.58007,0.20634
2520.50854,0.20591
2522.43701,0.20618
2524.36547,0.20726
2526.29394,0.20609
2528.22241,0.20508
2530.15088,0.20495
2532.07935,0.20345
2534.00782,0.20288
2535.93629,0.20427
2537.86476,0.20538
2539.79322,0.20566
2541.72169,0.20628
2543.65016,0.20576
2545.57863,0.20336
2547.50710,0.20362
2549.43557,0.20546
2551.36404,0.20338
2553.29250,0.20149
2555.22097,0.20397
2557.14944,0.20610
2559.07791,0.20542
2561.00638,0.20511
2562.93485,0.20706
2564.86332,0.20928
2566.79179,0.20965
2568.72025,0.20759
2570.64872,0.20329
2572.57719,0.19943
2574.50566,0.20036
2576.43413,0.20594
2578.36260,0.20942
2580.29107,0.20778
2582.21953,0.20497
2584.14800,0.20338
2586.07647,0.20317
2588.00494,0.20449
2589.93341,0.20755
2591.86188,0.21016
2593.79035,0.20916
2595.71882,0.20679
2597.64728,0.20693
2599.57575,0.20865
2601.50422,0.20910
2603.43269,0.20827
2605.36116,0.20720
2607.28963,0.20632
2609.21810,0.20668
2611.14656,0.20748
2613.07503,0.20789
2615.00350,0.20856
2616.93197,0.20724
2618.86044,0.20387
2620.78891,0.20381
2622.71738,0.20785
2624.64585,0.21115
2626.57431,0.21164
2628.50278,0.21020
2630.43125,0.20803
2632.35972,0.20810
2634.28819,0.21118
2636.21666,0.21202
2638.14513,0.20872
2640.07359,0.20682
2642.00206,0.20834
2643.93053,0.20915
2645.85900,0.20822
2647.78747,0.20775
2649.71594,0.20847
2651.64441,0.20850
2653.57288,0.20485
2655.50134,0.20053
2657.42981,0.20016
2659.35828,0.20226
2661.28675,0.20478
2663.21522,0.20690
2665.14369,0.20843
2667.07216,0.20991
2669.00062,0.21060
2670.92909,0.21043
2672.85756,0.21090
2674.78603,0.21242
2676.71450,0.21357
2678.64297,0.21359
2680.57144,0.21435
2682.49990,0.21691
2684.42837,0.21888
2686.35684,0.21899
2688.28531,0.21844
2690.21378,0.21776
2692.14225,0.21541
2694.07072,0.21131
2695.99919,0.20878
2697.92765,0.20878
2699.85612,0.20976
2701.78459,0.21047
2703.71306,0.21050
2705.64153,0.20972
2707.57000,0.20744
2709.49847,0.20506
2711.42693,0.20452
2713.35540,0.20575
2715.28387,0.20804
2717.21234,0.21052
2719.14081,0.21336
2721.06928,0.21676
2722.99775,0.21923
2724.92622,0.21837
2726.85468,0.21519
2728.78315,0.21416
2730.71162,0.21537
2732.64009,0.21599
2734.56856,0.21661
2736.49703,0.21668
2738.42550,0.21440
2740.35396,0.21154
2742.28243,0.21096
2744.21090,0.21266
2746.13937,0.21296
2748.06784,0.21144
2749.99631,0.21226
2751.92478,0.21444
2753.85325,0.21551
2755.78171,0.21636
2757.71018,0.21677
2759.63865,0.21671
2761.56712,0.21693
2763.49559,0.21666
2765.42406,0.21736
2767.35253,0.22146
2769.28099,0.22155
2771.20946,0.21505
2773.13793,0.21655
2775.06640,0.22471
2776.99487,0.22504
2778.92334,0.22052
2780.85181,0.21738
2782.78028,0.21602
2784.70874,0.21827
2786.63721,0.22207
2788.56568,0.22282
2790.49415,0.22024
2792.42262,0.21671
2794.35109,0.21421
2796.27956,0.21610
2798.20802,0.22152
2800.13649,0.22134
2802.06496,0.21490
2803.99343,0.21187
2805.92190,0.21344
2807.85037,0.21519
2809.77884,0.21683
2811.70731,0.21925
2813.63577,0.22168
2815.56424,0.22344
2817.49271,0.22577
2819.42118,0.22773
2821.34965,0.22665
2823.27812,0.22387
2825.20659,0.22281
2827.13505,0.22309
2829.06352,0.22280
2830.99199,0.22205
2832.92046,0.22140
2834.84893,0.22202
2836.77740,0.22174
2838.70587,0.21911
2840.63433,0.21976
2842.56280,0.22407
2844.49127,0.22463
2846.41974,0.22044
2848.34821,0.21754
2850.27668,0.21976
2852.20515,0.22426
2854.13362,0.22593
2856.06208,0.22435
2857.99055,0.22262
2859.91902,0.22262
2861.84749,0.22210
2863.77596,0.21971
2865.70443,0.21937
2867.63290,0.22169
2869.56136,0.22182
2871.48983,0.21974
2873.41830,0.22008
2875.34677,0.22198
2877.27524,0.22143
2879.20371,0.21982
2881.13218,0.21961
2883.06065,0.21843
2884.98911,0.21533
2886.91758,0.21382
2888.84605,0.21560
2890.77452,0.21919
2892.70299,0.22106
2894.63146,0.22035
2896.55993,0.21958
2898.48839,0.21919
2900.41686,0.21964
2902.34533,0.21899
2904.27380,0.21490
2906.20227,0.21141
2908.13074,0.21239
2910.05921,0.21597
2911.98768,0.21749
2913.91614,0.21655
2915.84461,0.21673
2917.77308,0.21780
2919.70155,0.21806
2921.63002,0.21815
2923.55849,0.21719
2925.48696,0.21426
2927.41542,0.21237
2929.34389,0.21438
2931.27236,0.21833
2933.20083,0.22003
2935.12930,0.21777
2937.05777,0.21516
2938.98624,0.21632
2940.91471,0.21894
2942.84317,0.21905
2944.77164,0.21575
2946.70011,0.21194
2948.62858,0.21296
2950.55705,0.21789
2952.48552,0.22128
2954.41399,0.22270
2956.34245,0.22394
2958.27092,0.22364
2960.19939,0.22055
2962.12786,0.21777
2964.05633,0.21866
2965.98480,0.22099
2967.91327,0.22086
2969.84174,0.21959
2971.77020,0.21962
2973.69867,0.22042
2975.62714,0.22087
2977.55561,0.22034
2979.48408,0.21958
2981.41255,0.22006
2983.34102,0.22133
2985.26948,0.22169
2987.19795,0.22091
2989.12642,0.22076
2991.05489,0.22221
2992.98336,0.22394
2994.91183,0.22570
2996.84030,0.22774
2998.76877,0.22942
3000.69723,0.23026
3002.62570,0.22939
3004.55417,0.22781
3006.48264,0.22538
3008.41111,0.22053
3010.33958,0.21608
3012.26805,0.21612
3014.19651,0.22027
3016.12498,0.22276
3018.05345,0.22194
3019.98192,0.22528
3021.91039,0.23345
3023.83886,0.23480
3025.76733,0.22849
3027.69579,0.22538
3029.62426,0.22520
3031.55273,0.22595
3033.48120,0.22836
3035.40967,0.22667
3037.33814,0.22233
3039.26661,0.22234
3041.19508,0.22644
3043.12354,0.23108
3045.05201,0.23276
3046.98048,0.23124
3048.90895,0.23116
3050.83742,0.23187
3052.76589,0.22844
3054.69436,0.22419
3056.62282,0.22577
3058.55129,0.23120
3060.47976,0.23443
3062.40823,0.23441
3064.33670,0.23248
3066.26517,0.22928
3068.19364,0.22549
3070.12211,0.22318
3072.05057,0.22474
3073.97904,0.22673
3075.90751,0.22613
3077.83598,0.22721
3079.76445,0.23233
3081.69292,0.23739
3083.62139,0.23484
3085.54985,0.22426
3087.47832,0.21775
3089.40679,0.22043
3091.33526,0.22551
3093.26373,0.22895
3095.19220,0.22832
3097.12067,0.22468
3099.04914,0.22302
3100.97760,0.22275
3102.90607,0.22297
3104.83454,0.22646
3106.76301,0.23024
3108.69148,0.22746
3110.61995,0.22149
3112.54842,0.21953
3114.47688,0.22078
3116.40535,0.22437
3118.33382,0.22833
3120.26229,0.22871
3122.19076,0.22823
3124.11923,0.22807
3126.04770,0.22448
3127.97617,0.22048
3129.90463,0.22260
3131.83310,0.22757
3133.76157,0.22810
3135.69004,0.22844
3137.61851,0.23344
3139.54698,0.23635
3141.47545,0.23278
3143.40391,0.22809
3145.33238,0.22831
3147.26085,0.23259
3149.18932,0.23568
3151.11779,0.23383
3153.04626,0.22832
3154.97473,0.22387
3156.90320,0.22254
3158.83166,0.22371
3160.76013,0.22497
3162.68860,0.22483
3164.61707,0.22445
3166.54554,0.22254
3168.47401,0.21849
3170.40248,0.21681
3172.33094,0.21962
3174.25941,0.22267
3176.18788,0.22275
3178.11635,0.22315
3180.04482,0.22631
3181.97329,0.22729
3183.90176,0.22672
3185.83022,0.22988
3187.75869,0.23126
3189.68716,0.22567
3191.61563,0.22010
3193.54410,0.22212
3195.47257,0.22762
3197.40104,0.22894
3199.32951,0.22769
3201.25797,0.22904
3203.18644,0.23227
3205.11491,0.23391
3207.04338,0.23324
3208.97185,0.22974
3210.90032,0.22655
3212.82879,0.22795
3214.75725,0.23048
3216.68572,0.22999
3218.61419,0.22819
3220.54266,0.22752
3222.47113,0.22801
3224.39960,0.22961
3226.32807,0.22998
3228.25654,0.22718
3230.18500,0.22534
3232.11347,0.23111
3234.04194,0.23980
3235.97041,0.23666
3237.89888,0.22625
3239.82735,0.22361
3241.75582,0.22597
3243.68428,0.22517
3245.61275,0.22259
3247.54122,0.22370
3249.46969,0.22724
3251.39816,0.22652
3253.32663,0.22029
3255.25510,0.21617
3257.18357,0.21901
3259.11203,0.22406
3261.04050,0.22677
3262.96897,0.22837
3264.89744,0.23032
3266.82591,0.23071
3268.75438,0.22776
3270.68285,0.22089
3272.61131,0.21396
3274.53978,0.21536
3276.46825,0.22202
3278.39672,0.22451
3280.32519,0.22562
3282.25366,0.22772
3284.18213,0.22547
3286.11060,0.21951
3288.03906,0.21750
3289.96753,0.22363
3291.89600,0.23155
3293.82447,0.23289
3295.75294,0.22778
3297.68141,0.22217
3299.60988,0.22016
3301.53834,0.21914
3303.46681,0.21760
3305.39528,0.21775
3307.32375,0.22092
3309.25222,0.22548
3311.18069,0.22618
3313.10916,0.22328
3315.03763,0.22235
3316.96609,0.22395
3318.89456,0.22603
3320.82303,0.22871
3322.75150,0.23038
3324.67997,0.22871
3326.60844,0.22379
3328.53691,0.21709
3330.46537,0.21440
3332.39384,0.21821
3334.32231,0.22308
3336.25078,0.22605
3338.17925,0.22902
3340.10772,0.23368
3342.03619,0.23584
3343.96466,0.23102
3345.89312,0.22414
3347.82159,0.22177
3349.75006,0.22413
3351.67853,0.22859
3353.60700,0.23261
3355.53547,0.23280
3357.46394,0.22848
3359.39240,0.22624
3361.32087,0.22882
3363.24934,0.23012
3365.17781,0.22861
3367.10628,0.22853
3369.03475,0.23045
3370.96322,0.23204
3372.89168,0.23081
3374.82015,0.22592
3376.74862,0.22313
3378.67709,0.22635
3380.60556,0.22809
3382.53403,0.22780
3384.46250,0.23322
3386.39097,0.23715
3388.31943,0.23118
3390.24790,0.22252
3392.17637,0.21908
3394.10484,0.22144
3396.03331,0.22477
3397.96178,0.22508
3399.89025,0.22356
3401.81871,0.22184
3403.74718,0.22159
3405.67565,0.22352
3407.60412,0.22444
3409.53259,0.22156
3411.46106,0.21540
3413.38953,0.21084
3415.31800,0.21231
3417.24646,0.21549
3419.17493,0.21521
3421.10340,0.21649
3423.03187,0.22226
3424.96034,0.22380
3426.88881,0.21690
3428.81728,0.20822
3430.74574,0.20371
3432.67421,0.20450
3434.60268,0.20779
3436.53115,0.20902
3438.45962,0.20819
3440.38809,0.20829
3442.31656,0.21046
3444.24503,0.21270
3446.17349,0.21278
3448.10196,0.20972
3450.03043,0.20400
3451.95890,0.20147
3453.88737,0.20697
3455.81584,0.21442
3457.74431,0.21352
3459.67277,0.20633
3461.60124,0.20325
3463.52971,0.20349
3465.45818,0.20264
3467.38665,0.20356
3469.31512,0.20744
3471.24359,0.21139
3473.17206,0.21177
3475.10052,0.20843
3477.02899,0.20430
3478.95746,0.19995
3480.88593,0.19596
3482.81440,0.19514
3484.74287,0.19895
3486.67134,0.20383
3488.59980,0.20218
3490.52827,0.19499
3492.45674,0.19062
3494.38521,0.18766
3496.31368,0.18355
3498.24215,0.18400
3500.17062,0.18918
3502.09909,0.19210
3504.02755,0.19142
3505.95602,0.19372
3507.88449,0.19827
3509.81296,0.19724
3511.74143,0.19168
3513.66990,0.18826
3515.59837,0.18779
3517.52683,0.18709
3519.45530,0.18365
3521.38377,0.18053
3523.31224,0.18239
3525.24071,0.18838
3527.16918,0.19268
3529.09765,0.19112
3531.02611,0.18690
3532.95458,0.18358
3534.88305,0.18035
3536.81152,0.17854
3538.73999,0.18051
3540.66846,0.18286
3542.59693,0.18250
3544.52540,0.18266
3546.45386,0.18524
3548.38233,0.18584
3550.31080,0.18262
3552.23927,0.17876
3554.16774,0.17667
3556.09621,0.17463
3558.02468,0.17054
3559.95314,0.16519
3561.88161,0.16222
3563.81008,0.16333
3565.73855,0.16580
3567.66702,0.16763
3569.59549,0.16895
3571.52396,0.16961
3573.45243,0.16721
3575.38089,0.16179
3577.30936,0.15976
3579.23783,0.16209
3581.16630,0.16450
3583.09477,0.16625
3585.02324,0.16687
3586.95171,0.16666
3588.88017,0.16566
3590.80864,0.16063
3592.73711,0.15247
3594.66558,0.14789
3596.59405,0.15017
3598.52252,0.15252
3600.45099,0.15345
3602.37946,0.15591
3604.30792,0.15776
3606.23639,0.15610
3608.16486,0.15171
3610.09333,0.15068
3612.02180,0.15334
3613.95027,0.15305
3615.87874,0.14897
3617.80720,0.14368
3619.73567,0.13977
3621.66414,0.14043
3623.59261,0.14364
3625.52108,0.14713
3627.44955,0.14670
3629.37802,0.13944
3631.30649,0.13543
3633.23495,0.13672
3635.16342,0.14199
3637.09189,0.14875
3639.02036,0.14973
3640.94883,0.14415
3642.87730,0.13967
3644.80577,0.13916
3646.73423,0.13835
3648.66270,0.13636
3650.59117,0.13731
3652.51964,0.13742
3654.44811,0.13532
3656.37658,0.13298
3658.30505,0.13371
3660.23352,0.13703
3662.16198,0.14010
3664.09045,0.14262
3666.01892,0.14392
3667.94739,0.14176
3669.87586,0.13693
3671.80433,0.13518
3673.73280,0.13454
3675.66126,0.13318
3677.58973,0.13428
3679.51820,0.13501
3681.44667,0.13596
3683.37514,0.13810
3685.30361,0.14028
3687.23208,0.14056
3689.16055,0.13636
3691.08901,0.13381
3693.01748,0.13355
3694.94595,0.13108
3696.87442,0.13048
3698.80289,0.13404
3700.73136,0.13564
3702.65983,0.13045
3704.58829,0.12488
3706.51676,0.12258
3708.44523,0.12226
3710.37370,0.12594
3712.30217,0.13279
3714.23064,0.13519
3716.15911,0.13257
3718.08757,0.12740
3720.01604,0.12249
3721.94451,0.12024
3723.87298,0.12248
3725.80145,0.12721
3727.72992,0.12734
3729.65839,0.12483
3731.58686,0.12707
3733.51532,0.13094
3735.44379,0.12678
3737.37226,0.12350
3739.30073,0.12671
3741.22920,0.13211
3743.15767,0.13923
3745.08614,0.14281
3747.01460,0.13925
3748.94307,0.13239
3750.87154,0.12204
3752.80001,0.11879
3754.72848,0.12464
3756.65695,0.13198
3758.58542,0.13686
3760.51389,0.13832
3762.44235,0.13614
3764.37082,0.13205
3766.29929,0.13053
3768.22776,0.13107
3770.15623,0.13072
3772.08470,0.13117
3774.01317,0.13279
3775.94163,0.13122
3777.87010,0.12434
3779.79857,0.11943
3781.72704,0.12195
3783.65551,0.12851
3785.58398,0.13668
3787.51245,0.14099
3789.44092,0.14022
3791.36938,0.13886
3793.29785,0.14003
3795.22632,0.14263
3797.15479,0.14194
3799.08326,0.13728
3801.01173,0.13061
3802.94020,0.12915
3804.86866,0.13700
3806.79713,0.14467
3808.72560,0.14428
3810.65407,0.13868
3812.58254,0.13210
3814.51101,0.12896
3816.43948,0.13313
3818.36795,0.13687
3820.29641,0.13413
3822.22488,0.12727
3824.15335,0.12156
3826.08182,0.12024
3828.01029,0.12244
3829.93876,0.12238
3831.86723,0.11970
3833.79569,0.12106
3835.72416,0.12499
3837.65263,0.12191
3839.58110,0.11663
3841.50957,0.11821
3843.43804,0.12103
3845.36651,0.12154
3847.29498,0.12147
3849.22344,0.12450
3851.15191,0.13158
3853.08038,0.13585
3855.00885,0.12695
3856.93732,0.12070
3858.86579,0.12453
3860.79426,0.13297
3862.72272,0.13723
3864.65119,0.13465
3866.57966,0.12798
3868.50813,0.11931
3870.43660,0.11406
3872.36507,0.11393
3874.29354,0.11504
3876.22200,0.11895
3878.15047,0.12541
3880.07894,0.13050
3882.00741,0.12746
3883.93588,0.12118
3885.86435,0.12156
3887.79282,0.12517
3889.72129,0.12497
3891.64975,0.12281
3893.57822,0.12268
3895.50669,0.12432
3897.43516,0.12547
3899.36363,0.12567
3901.29210,0.12521
3903.22057,0.12431
3905.14903,0.12522
3907.07750,0.12514
3909.00597,0.12402
3910.93444,0.12668
3912.86291,0.13027
3914.79138,0.12839
3916.71985,0.12136
3918.64832,0.11566
3920.57678,0.11525
3922.50525,0.11585
3924.43372,0.11565
3926.36219,0.11770
3928.29066,0.12290
3930.21913,0.12951
3932.14760,0.13069
3934.07606,0.12430
3936.00453,0.11902
3937.93300,0.11660
3939.86147,0.11346
3941.78994,0.11033
3943.71841,0.10794
3945.64688,0.10520
3947.57535,0.10603
3949.50381,0.11363
3951.43228,0.12063
3953.36075,0.11960
3955.28922,0.11336
3957.21769,0.10743
3959.14616,0.10318
3961.07463,0.10207
3963.00309,0.10620
3964.93156,0.11196
3966.86003,0.11596
3968.78850,0.11904
3970.71697,0.11968
3972.64544,0.11783
3974.57391,0.11607
3976.50238,0.11514
3978.43084,0.11510
3980.35931,0.11468
3982.28778,0.11367
3984.21625,0.11397
3986.14472,0.11473
3988.07319,0.11382
3990.00166,0.11296
3991.93012,0.11345
3993.85859,0.11352
3995.78706,0.11310
3997.71553,0.11128
3999.64400,0.10774
4001.57247,0.10865
4003.50094,0.11779
4005.42941,0.12492
4007.35787,0.12201
4009.28634,0.11569
4011.21481,0.11132
4013.14328,0.10878
4015.07175,0.10876
4017.00022,0.11177
4018.92869,0.11425
4020.85715,0.11333
4022.78562,0.11206
4024.71409,0.11055
4026.64256,0.10727
4028.57103,0.10445
4030.49950,0.10313
4032.42797,0.10277
4034.35644,0.10058
4036.28490,0.09575
4038.21337,0.09339
4040.14184,0.09536
4042.07031,0.09984
4043.99878,0.10391
4045.92725,0.10454
4047.85572,0.10363
4049.78418,0.10252
4051.71265,0.10153
4053.64112,0.10199
4055.56959,0.10393
4057.49806,0.10551
4059.42653,0.10100
4061.35500,0.09018
4063.28346,0.08324
4065.21193,0.08532
4067.14040,0.09081
4069.06887,0.09596
4070.99734,0.10086
4072.92581,0.10018
4074.85428,0.09505
4076.78275,0.09406
4078.71121,0.09417
4080.63968,0.09363
4082.56815,0.09705
4084.49662,0.09832
4086.42509,0.09334
4088.35356,0.09142
4090.28203,0.09649
4092.21049,0.09866
4094.13896,0.09548
4096.06743,0.09196
4097.99590,0.09002
4099.92437,0.09433
4101.85284,0.10101
4103.78131,0.10102
4105.70978,0.09802
4107.63824,0.09841
4109.56671,0.10048
4111.49518,0.10224
4113.42365,0.10258
4115.35212,0.09768
4117.28059,0.09268
4119.20906,0.09239
4121.13752,0.09143
4123.06599,0.09148
4124.99446,0.09407
4126.92293,0.09263
4128.85140,0.08780
4130.77987,0.08748
4132.70834,0.09356
4134.63681,0.09847
4136.56527,0.09865
4138.49374,0.09945
4140.42221,0.10084
4142.35068,0.09843
4144.27915,0.09366
4146.20762,0.09332
4148.13609,0.09901
4150.06455,0.10097
4151.99302,0.09321
4153.92149,0.08362
4155.84996,0.08315
4157.77843,0.09091
4159.70690,0.09841
4161.63537,0.10020
4163.56384,0.09600
4165.49230,0.09139
4167.42077,0.09077
4169.34924,0.09259
4171.27771,0.09507
4173.20618,0.09712
4175.13465,0.09179
4177.06312,0.08033
4178.99158,0.07670
4180.92005,0.07813
4182.84852,0.07747
4184.77699,0.08097
4186.70546,0.08551
4188.63393,0.08431
4190.56240,0.08106
4192.49087,0.08055
4194.41933,0.08218
4196.34780,0.08107
4198.27627,0.07849
4200.20474,0.08092
4202.13321,0.08551
4204.06168,0.08623
4205.99015,0.08401
4207.91861,0.08326
4209.84708,0.08353
4211.77555,0.08124
4213.70402,0.07736
4215.63249,0.07370
4217.56096,0.07312
4219.48943,0.07963
4221.41789,0.08895
4223.34636,0.08954
4225.27483,0.08289
4227.20330,0.08102
4229.13177,0.08264
4231.06024,0.08077
4232.98871,0.07580
4234.91718,0.07364
4236.84564,0.07805
4238.77411,0.08148
4240.70258,0.08009
4242.63105,0.08087
4244.55952,0.08349
4246.48799,0.08302
4248.41646,0.08132
4250.34492,0.07991
4252.27339,0.07581
4254.20186,0.07000
4256.13033,0.07211
4258.05880,0.08415
4259.98727,0.09185
4261.91574,0.08649
4263.84421,0.07502
4265.77267,0.06566
4267.70114,0.05986
4269.62961,0.05786
4271.55808,0.05821
4273.48655,0.05620
4275.41502,0.05406
4277.34349,0.05909
4279.27195,0.07170
4281.20042,0.08289
4283.12889,0.08350
4285.05736,0.07701
4286.98583,0.07466
4288.91430,0.07788
4290.84277,0.07598
4292.77124,0.06464
4294.69970,0.05169
4296.62817,0.04373
4298.55664,0.04606
4300.48511,0.06003
4302.41358,0.07261
4304.34205,0.07372
4306.27052,0.07118
4308.19898,0.07011
4310.12745,0.06354
4312.05592,0.05351
4313.98439,0.05053
4315.91286,0.05259
4317.84133,0.05718
4319.76980,0.06629
4321.69827,0.06930
4323.62673,0.06170
4325.55520,0.05414
4327.48367,0.05007
4329.41214,0.04618
4331.34061,0.04371
4333.26908,0.04316
4335.19755,0.04435
4337.12601,0.04949
4339.05448,0.05371
4340.98295,0.05149
4342.91142,0.04560
4344.83989,0.03785
4346.76836,0.03309
4348.69683,0.03867
4350.62530,0.04670
4352.55376,0.04832
4354.48223,0.05108
4356.41070,0.05488
4358.33917,0.04824
4360.26764,0.03846
4362.19611,0.04067
4364.12458,0.05089
4366.05304,0.05814
4367.98151,0.05681
4369.90998,0.04889
4371.83845,0.04535
4373.76692,0.04857
4375.69539,0.05088
4377.62386,0.05201
4379.55232,0.05071
4381.48079,0.04275
4383.40926,0.03833
4385.33773,0.04144
4387.26620,0.04267
4389.19467,0.04260
4391.12314,0.04255
4393.05161,0.04366
4394.98007,0.04719
4396.90854,0.04370
4398.83701,0.03196
4400.76548,0.02805
4402.69395,0.03736
4404.62242,0.04337
4406.55089,0.04037
4408.47935,0.03906
4410.40782,0.04193
4412.33629,0.04377
4414.26476,0.04040
4416.19323,0.03532
4418.12170,0.03565
4420.05017,0.03846
4421.97864,0.03906
4423.90710,0.03916
4425.83557,0.03825
4427.76404,0.03388
4429.69251,0.02619
4431.62098,0.01831
4433.54945,0.01440
4435.47792,0.01448
4437.40638,0.01781
4439.33485,0.02808
4441.26332,0.03812
4443.19179,0.03283
4445.12026,0.02165
4447.04873,0.02112
4448.97720,0.02482
4450.90567,0.02338
4452.83413,0.02005
4454.76260,0.02087
4456.69107,0.02460
4458.61954,0.02790
4460.54801,0.02972
4462.47648,0.02990
4464.40495,0.02940
4466.33341,0.02893
4468.26188,0.02640
4470.19035,0.02533
4472.11882,0.03493
4474.04729,0.04546
4475.97576,0.04042
4477.90423,0.02525
4479.83270,0.01542
4481.76116,0.01674
4483.68963,0.02133
4485.61810,0.01987
4487.54657,0.01273
4489.47504,0.00713
4491.40351,0.00742
4493.33198,0.01002
4495.26044,0.01064
4497.18891,0.01190
4499.11738,0.01544
4501.04585,0.01670
4502.97432,0.01692
4504.90279,0.01685
4506.83126,0.01468
4508.75973,0.01734
4510.68819,0.02423
4512.61666,0.02381
4514.54513,0.01729
4516.47360,0.01614
4518.40207,0.01917
4520.33054,0.01936
4522.25901,0.02348
4524.18747,0.03102
4526.11594,0.02965
4528.04441,0.02646
4529.97288,0.02529
4531.90135,0.01894
4533.82982,0.01511
4535.75829,0.01557
4537.68676,0.01715
4539.61522,0.02078
4541.54369,0.02029
4543.47216,0.01582
4545.40063,0.01379
4547.32910,0.01320
4549.25757,0.01055
4551.18604,0.01034
4553.11450,0.01316
4555.04297,0.01010
4556.97144,0.00207
4558.89991,-0.00088
4560.82838,0.00633
4562.75685,0.01198
4564.68532,0.00509
4566.61378,0.00201
4568.54225,0.01062
4570.47072,0.01482
4572.39919,0.01383
4574.32766,0.01563
4576.25613,0.01369
4578.18460,0.00843
4580.11307,0.00824
4582.04153,0.01032
4583.97000,0.01181
4585.89847,0.01165
4587.82694,0.01196
4589.75541,0.02154
4591.68388,0.03247
4593.61235,0.02743
4595.54081,0.01348
4597.46928,0.00768
4599.39775,0.00806
4601.32622,0.00670
4603.25469,0.00627
4605.18316,0.01057
4607.11163,0.01253
4609.04010,0.00669
4610.96856,0.00026
4612.89703,-0.00309
4614.82550,-0.00572
4616.75397,-0.00340
4618.68244,0.00335
4620.61091,0.00160
4622.53938,-0.00521
4624.46784,0.00071
4626.39631,0.01379
4628.32478,0.01651
4630.25325,0.00886
4632.18172,0.00412
4634.11019,0.01368
4636.03866,0.02822
4637.96713,0.02816
4639.89559,0.01876
4641.82406,0.01600
4643.75253,0.01747
4645.68100,0.01646
4647.60947,0.01155
4649.53794,0.00830
4651.46641,0.01305
4653.39487,0.01755
4655.32334,0.01547
4657.25181,0.01103
4659.18028,0.00268
4661.10875,-0.00320
4663.03722,0.00541
4664.96569,0.01443
4666.89416,0.01029
4668.82262,0.00672
4670.75109,0.01526
4672.67956,0.02820
4674.60803,0.03170
4676.53650,0.02417
4678.46497,0.01599
4680.39344,0.01078
4682.32190,0.00216
4684.25037,-0.00612
4686.17884,-0.00309
4688.10731,0.00890
4690.03578,0.01684
4691.96425,0.00947
4693.89272,-0.00600
4695.82119,-0.01066
4697.74965,-0.00494
4699.67812,-0.00285
4701.60659,-0.00752
4703.53506,-0.01256
4705.46353,-0.01252
4707.39200,-0.00674
4709.32047,-0.00062
4711.24893,0.00296
4713.17740,0.00941
4715.10587,0.01756
4717.03434,0.01616
4718.96281,0.00553
4720.89128,-0.00103
4722.81975,0.00384
4724.74821,0.01512
4726.67668,0.02446
4728.60515,0.02862
4730.53362,0.02699
4732.46209,0.02436
4734.39056,0.02586
4736.31903,0.02045
4738.24750,0.00342
4740.17596,-0.00507
4742.10443,0.00272
4744.03290,0.01234
4745.96137,0.01779
4747.88984,0.01989
4749.81831,0.01624
4751.74678,0.00766
4753.67524,0.00017
4755.60371,0.00107
4757.53218,0.00990
4759.46065,0.01547
4761.38912,0.01584
4763.31759,0.01764
4765.24606,0.01809
4767.17453,0.01356
4769.10299,0.00397
4771.03146,-0.00487
4772.95993,-0.00296
4774.88840,0.00746
4776.81687,0.01610
4778.74534,0.01532
4780.67381,0.00723
4782.60227,0.00322
4784.53074,0.00520
4786.45921,0.00495
4788.38768,-0.00058
4790.31615,-0.00705
4792.24462,-0.00613
4794.17309,0.00543
4796.10156,0.01457
4798.03002,0.01009
4799.95849,0.00516
4801.88696,0.01086
4803.81543,0.01472
4805.74390,0.01023
4807.67237,0.00707
4809.60084,0.00811
4811.52930,0.00480
4813.45777,-0.00688
4815.38624,-0.01179
4817.31471,-0.00003
4819.24318,0.01353
4821.17165,0.01760
4823.10012,0.01832
4825.02859,0.02116
4826.95705,0.02197
4828.88552,0.01839
4830.81399,0.01371
4832.74246,0.01163
4834.67093,0.01420
4836.59940,0.01997
4838.52787,0.02255
4840.45633,0.01634
4842.38480,0.00592
4844.31327,-0.00221
4846.24174,-0.00412
4848.17021,0.00431
4850.09868,0.01312
4852.02715,0.00899
4853.95562,0.00375
4855.88408,0.01165
4857.81255,0.01820
4859.74102,0.00510
4861.66949,-0.01429
4863.59796,-0.01601
4865.52643,-0.00506
4867.45490,-0.00292
4869.38336,-0.00641
4871.31183,0.00624
4873.24030,0.03070
4875.16877,0.04435
4877.09724,0.04131
4879.02571,0.03087
4880.95418,0.02664
4882.88265,0.02901
4884.81111,0.02438
4886.73958,0.01553
4888.66805,0.01557
4890.59652,0.01928
4892.52499,0.01617
4894.45346,0.00953
4896.38193,0.00710
4898.31039,0.00536
4900.23886,-0.00124
4902.16733,-0.00353
4904.09580,0.00056
4906.02427,0.00269
4907.95274,0.00157
4909.88121,-0.00846
4911.80967,-0.02378
4913.73814,-0.01892
4915.66661,0.00780
4917.59508,0.02673
4919.52355,0.02277
4921.45202,0.00443
4923.38049,-0.00961
4925.30896,-0.00823
4927.23742,0.00020
4929.16589,0.00528
4931.09436,0.00549
4933.02283,0.00730
4934.95130,0.01824
4936.87977,0.02820
4938.80824,0.02090
4940.73670,0.00760
4942.66517,0.00793
4944.59364,0.02038
4946.52211,0.02938
4948.45058,0.02480
4950.37905,0.02113
4952.30752,0.02401
4954.23599,0.02047
4956.16445,0.01613
4958.09292,0.01616
4960.02139,0.01775
4961.94986,0.02441
4963.87833,0.03054
4965.80680,0.02003
4967.73527,-0.00504
4969.66373,-0.01722
4971.59220,-0.00324
4973.52067,0.01584
4975.44914,0.01810
4977.37761,0.01228
4979.30608,0.01750
4981.23455,0.02722
4983.16302,0.02576
4985.09148,0.01902
4987.01995,0.01612
4988.94842,0.01697
4990.87689,0.02187
4992.80536,0.02681
4994.73383,0.02703
4996.66230,0.02911
4998.59076,0.03635
5000.51923,0.03733
5002.44770,0.03266
5004.37617,0.03125
5006.30464,0.02539
5008.23311,0.01990
5010.16158,0.02666
5012.09005,0.03215
5014.01851,0.03029
5015.94698,0.03083
5017.87545,0.03118
5019.80392,0.03079
5021.73239,0.03887
5023.66086,0.04781
5025.58933,0.04148
5027.51779,0.02608
5029.44626,0.01550
5031.37473,0.01216
5033.30320,0.01225
5035.23167,0.01212
5037.16014,0.01359
5039.08861,0.01791
5041.01708,0.02338
5042.94554,0.02338
5044.87401,0.01315
5046.80248,0.00505
5048.73095,0.01309
5050.65942,0.03025
5052.58789,0.04366
5054.51636,0.05378
5056.44482,0.05277
5058.37329,0.03176
5060.30176,0.01251
5062.23023,0.01232
5064.15870,0.01779
5066.08717,0.01804
5068.01564,0.01388
5069.94410,0.00485
5071.87257,-0.00211
5073.80104,-0.00002
5075.72951,0.00750
5077.65798,0.01973
5079.58645,0.02962
5081.51492,0.03123
5083.44339,0.02530
5085.37185,0.00706
5087.30032,-0.00655
5089.22879,0.00500
5091.15726,0.02591
5093.08573,0.03221
5095.01420,0.02755
5096.94267,0.03290
5098.87113,0.04971
5100.79960,0.06170
5102.72807,0.06356
5104.65654,0.06202
5106.58501,0.06089
5108.51348,0.05530
5110.44195,0.04742
5112.37042,0.04709
5114.29888,0.05406
5116.22735,0.05953
5118.15582,0.05727
5120.08429,0.05007
5122.01276,0.03821
5123.94123,0.02092
5125.86970,0.01465
5127.79816,0.02051
5129.72663,0.01630
5131.65510,0.00623
5133.58357,0.01060
5135.51204,0.03328
5137.44051,0.05820
5139.36898,0.06467
5141.29745,0.05144
5143.22591,0.03655
5145.15438,0.03722
5147.08285,0.04751
5149.01132,0.04860
5150.93979,0.04126
5152.86826,0.04104
5154.79673,0.04561
5156.72519,0.04360
5158.65366,0.03521
5160.58213,0.02011
5162.51060,0.00313
5164.43907,-0.00010
5166.36754,0.02040
5168.29601,0.04885
5170.22448,0.05988
5172.15294,0.05511
5174.08141,0.04466
5176.00988,0.03031
5177.93835,0.01850
5179.86682,0.01233
5181.79529,0.00804
5183.72376,0.00708
5185.65222,0.01433
5187.58069,0.02919
5189.50916,0.04684
5191.43763,0.05571
5193.36610,0.05540
5195.29457,0.05194
5197.22304,0.03837
5199.15151,0.02585
5201.07997,0.02781
5203.00844,0.02912
5204.93691,0.03110
5206.86538,0.04772
5208.79385,0.06210
5210.72232,0.07207
5212.65079,0.08148
5214.57925,0.07197
5216.50772,0.05335
5218.43619,0.05038
5220.36466,0.05494
5222.29313,0.04861
5224.22160,0.03787
5226.15007,0.03638
5228.07854,0.04030
5230.00700,0.04418
5231.93547,0.04007
5233.86394,0.01894
5235.79241,0.00057
5237.72088,-0.00400
5239.64935,0.00252
5241.57782,0.02967
5243.50628,0.05579
5245.43475,0.05550
5247.36322,0.04691
5249.29169,0.04697
5251.22016,0.05688
5253.14863,0.06536
5255.07710,0.06789
5257.00556,0.06914
5258.93403,0.06523
5260.86250,0.05974
5262.79097,0.05900
5264.71944,0.06213
5266.64791,0.06935
5268.57638,0.07145
5270.50485,0.05656
5272.43331,0.03641
5274.36178,0.02854
5276.29025,0.03283
5278.21872,0.03787
5280.14719,0.03290
5282.07566,0.03023
5284.00413,0.03706
5285.93259,0.03032
5287.86106,0.01803
5289.78953,0.02772
5291.71800,0.03747
5293.64647,0.02954
5295.57494,0.03075
5297.50341,0.04544
5299.43188,0.05512
5301.36034,0.05157
5303.28881,0.03473
5305.21728,0.02715
5307.14575,0.05312
5309.07422,0.08680
5311.00269,0.09648
5312.93116,0.09464
5314.85962,0.08699
5316.78809,0.06873
5318.71656,0.05647
5320.64503,0.05445
5322.57350,0.05231
5324.50197,0.05183
5326.43044,0.04628
5328.35891,0.04543
5330.28737,0.06445
5332.21584,0.07251
5334.14431,0.06354
5336.07278,0.07322
5338.00125,0.09727
5339.92972,0.10620
5341.85819,0.09661
5343.78665,0.07147
5345.71512,0.04765
5347.64359,0.04742
5349.57206,0.06226
5351.50053,0.07410
5353.42900,0.06526
5355.35747,0.04671
5357.28594,0.04749
5359.21440,0.06691
5361.14287,0.08728
5363.07134,0.08822
5364.99981,0.05937
5366.92828,0.02331
5368.85675,0.01180
5370.78522,0.02993
5372.71368,0.06351
5374.64215,0.08272
5376.57062,0.06816
5378.49909,0.04992
5380.42756,0.04456
5382.35603,0.04016
5384.28450,0.03283
5386.21297,0.03005
5388.14143,0.04379
5390.06990,0.06808
5391.99837,0.08286
5393.92684,0.07844
5395.85531,0.07085
5397.78378,0.07080
5399.71225,0.07135
5401.64071,0.06489
5403.56918,0.05379
5405.49765,0.05051
5407.42612,0.05796
5409.35459,0.07347
5411.28306,0.09458
5413.21153,0.10909
5415.13999,0.10494
5417.06846,0.09243
5418.99693,0.08465
5420.92540,0.07817
5422.85387,0.06634
5424.78234,0.04958
5426.71081,0.02819
5428.63928,0.01277
5430.56774,0.02493
5432.49621,0.05910
5434.42468,0.09285
5436.35315,0.10579
5438.28162,0.09932
5440.21009,0.10145
5442.13856,0.12902
5444.06702,0.15591
5445.99549,0.14786
5447.92396,0.11333
5449.85243,0.08707
5451.78090,0.07675
5453.70937,0.07313
5455.63784,0.07523
5457.56631,0.08829
5459.49477,0.09956
5461.42324,0.08742
5463.35171,0.06042
5465.28018,0.04523
5467.20865,0.05777
5469.13712,0.07467
5471.06559,0.06138
5472.99405,0.05274
5474.92252,0.08401
5476.85099,0.11718
5478.77946,0.11395
5480.70793,0.08738
5482.63640,0.06580
5484.56487,0.05979
5486.49334,0.06892
5488.42180,0.08786
5490.35027,0.09387
5492.27874,0.08233
5494.20721,0.07213
5496.13568,0.07748
5498.06415,0.09064
5499.99262,0.08963
5501.92108,0.08476
5503.84955,0.10385
5505.77802,0.12238
5507.70649,0.10245
5509.63496,0.06763
5511.56343,0.04908
5513.49190,0.04580
5515.42037,0.05103
5517.34883,0.05990
5519.27730,0.07412
5521.20577,0.09312
5523.13424,0.10314
5525.06271,0.08499
5526.99118,0.05093
5528.91965,0.03147
5530.84811,0.02500
5532.77658,0.03001
5534.70505,0.06285
5536.63352,0.09920
5538.56199,0.10254
5540.49046,0.08774
5542.41893,0.07895
5544.34740,0.07015
5546.27586,0.06146
5548.20433,0.06380
5550.13280,0.06477
5552.06127,0.05921
5553.98974,0.06243
5555.91821,0.07894
5557.84668,0.09857
5559.77514,0.10958
5561.70361,0.11238
5563.63208,0.11570
5565.56055,0.11413
5567.48902,0.09532
5569.41749,0.07785
5571.34596,0.07836
5573.27443,0.08296
5575.20289,0.08229
5577.13136,0.08085
5579.05983,0.07942
5580.98830,0.07322
5582.91677,0.06883
5584.84524,0.06151
5586.77371,0.03782
5588.70217,0.02093
5590.63064,0.04044
5592.55911,0.07685
5594.48758,0.09577
5596.41605,0.10917
5598.34452,0.12398
5600.27299,0.11495
5602.20145,0.10407
5604.12992,0.12132
5606.05839,0.12712
5607.98686,0.08556
5609.91533,0.05196
5611.84380,0.07236
5613.77227,0.09178
5615.70074,0.07935
5617.62920,0.07587
5619.55767,0.09667
5621.48614,0.11548
5623.41461,0.10602
5625.34308,0.08464
5627.27155,0.08223
5629.20002,0.06223
5631.12848,0.02329
5633.05695,0.03630
5634.98542,0.08429
5636.91389,0.10447
5638.84236,0.10923
5640.77083,0.11880
5642.69930,0.13488
5644.62777,0.15161
5646.55623,0.14509
5648.48470,0.11725
5650.41317,0.08667
5652.34164,0.06700
5654.27011,0.06766
5656.19858,0.06958
5658.12705,0.05953
5660.05551,0.05137
5661.98398,0.05335
5663.91245,0.05574
5665.84092,0.05288
5667.76939,0.05669
5669.69786,0.06915
5671.62633,0.06671
5673.55480,0.04018
5675.48326,0.01421
5677.41173,0.01841
5679.34020,0.04316
5681.26867,0.04331
5683.19714,0.03452
5685.12561,0.06731
5687.05408,0.10966
5688.98254,0.10726
5690.91101,0.08392
5692.83948,0.08296
5694.76795,0.09180
5696.69642,0.09126
5698.62489,0.08364
5700.55336,0.05838
5702.48183,0.02595
5704.41029,0.03122
5706.33876,0.07555
5708.26723,0.10070
5710.19570,0.08406
5712.12417,0.07672
5714.05264,0.10173
5715.98111,0.11450
5717.90957,0.10540
5719.83804,0.09650
5721.76651,0.09605
5723.69498,0.11189
5725.62345,0.10654
5727.55192,0.05700
5729.48039,0.02484
5731.40886,0.03471
5733.33732,0.05763
5735.26579,0.08614
5737.19426,0.09235
5739.12273,0.05318
5741.05120,0.01393
5742.97967,0.00403
5744.90814,0.00481
5746.83660,0.02863
5748.76507,0.08029
5750.69354,0.10505
5752.62201,0.09684
5754.55048,0.09314
5756.47895,0.07896
5758.40742,0.05652
5760.33588,0.05480
5762.26435,0.08469
5764.19282,0.11929
5766.12129,0.11507
5768.04976,0.09672
5769.97823,0.11298
5771.90670,0.14016
5773.83517,0.14208
5775.76363,0.12747
5777.69210,0.10188
5779.62057,0.08249
5781.54904,0.09866
5783.47751,0.14418
5785.40598,0.16787
5787.33445,0.12238
5789.26291,0.04903
5791.19138,0.01871
5793.11985,0.03890
5795.04832,0.07766
5796.97679,0.11066
5798.90526,0.12839
5800.83373,0.11628
5802.76220,0.07514
5804.69066,0.04249
5806.61913,0.03869
5808.54760,0.04785
5810.47607,0.06038
5812.40454,0.05945
5814.33301,0.04257
5816.26148,0.04202
5818.18994,0.05035
5820.11841,0.04168
5822.04688,0.04950
5823.97535,0.07212
5825.90382,0.05897
5827.83229,0.03072
5829.76076,0.03139
5831.68923,0.07198
5833.61769,0.12654
5835.54616,0.13692
5837.47463,0.10987
5839.40310,0.08291
5841.33157,0.04785
5843.26004,0.01548
5845.18851,0.02370
5847.11697,0.05391
5849.04544,0.06166
5850.97391,0.05242
5852.90238,0.05837
5854.83085,0.08251
5856.75932,0.09674
5858.68779,0.08887
5860.61626,0.07727
5862.54472,0.08719
5864.47319,0.12221
5866.40166,0.15838
5868.33013,0.17735
5870.25860,0.16420
5872.18707,0.13104
5874.11554,0.10274
5876.04400,0.06691
5877.97247,0.03684
5879.90094,0.07527
5881.82941,0.14964
5883.75788,0.15968
5885.68635,0.12877
5887.61482,0.12221
5889.54329,0.11026
5891.47175,0.06525
5893.40022,0.01073
5895.32869,-0.02283
5897.25716,0.00389
5899.18563,0.07803
5901.11410,0.13883
5903.04257,0.16314
5904.97103,0.14898
5906.89950,0.12062
5908.82797,0.10641
5910.75644,0.08371
5912.68491,0.04873
5914.61338,0.04769
5916.54185,0.09355
5918.47032,0.14027
5920.39878,0.13805
5922.32725,0.10624
5924.25572,0.08951
5926.18419,0.06312
5928.11266,0.03658
5930.04113,0.07016
5931.96960,0.12280
5933.89806,0.12599
5935.82653,0.08692
5937.75500,0.06032
5939.68347,0.06728
5941.61194,0.07312
5943.54041,0.06110
5945.46888,0.04226
5947.39734,0.02466
5949.32581,0.03340
5951.25428,0.07869
5953.18275,0.10970
5955.11122,0.08836
5957.03969,0.05673
5958.96816,0.07006
5960.89663,0.09315
5962.82509,0.06147
5964.75356,0.03599
5966.68203,0.07167
5968.61050,0.07156
5970.53897,0.00569
5972.46744,-0.02989
5974.39591,-0.02812
5976.32437,-0.00399
5978.25284,0.05276
5980.18131,0.09859
5982.10978,0.08853
5984.03825,0.04264
5985.96672,0.02508
5987.89519,0.02881
5989.82366,0.01775
5991.75212,0.02636
5993.68059,0.03719
5995.60906,-0.01245
5997.53753,-0.06048
5999.46600,-0.04185
6001.39447,0.00014
6003.32294,0.05728
6005.25140,0.12554
6007.17987,0.13829
6009.10834,0.09638
6011.03681,0.06460
6012.96528,0.06471
6014.89375,0.08653
6016.82222,0.12118
6018.75069,0.13902
6020.67915,0.11735
6022.60762,0.07540
6024.53609,0.04157
6026.46456,0.01875
6028.39303,0.00763
6030.32150,0.04300
6032.24997,0.11086
6034.17843,0.15168
6036.10690,0.16679
6038.03537,0.18162
6039.96384,0.18633
6041.89231,0.17430
6043.82078,0.14546
6045.74925,0.10897
6047.67772,0.09451
6049.60618,0.10609
6051.53465,0.09240
6053.46312,0.04884
6055.39159,0.03493
6057.32006,0.04683
6059.24853,0.02814
6061.17700,-0.00899
6063.10546,-0.01222
6065.03393,0.02078
6066.96240,0.05426
6068.89087,0.06228
6070.81934,0.04529
6072.74781,0.02996
6074.67628,0.01534
6076.60475,0.00361
6078.53321,0.01563
6080.46168,0.04310
6082.39015,0.07627
6084.31862,0.10586
6086.24709,0.12009
6088.17556,0.11531
6090.10403,0.10284
6092.03249,0.09284
6093.96096,0.07862
6095.88943,0.07814
6097.81790,0.09472
6099.74637,0.09537
6101.67484,0.09696
6103.60331,0.12289
6105.53177,0.11752
6107.46024,0.06141
6109.38871,0.03769
6111.31718,0.07756
6113.24565,0.11602
6115.17412,0.13135
6117.10259,0.15392
6119.03106,0.17774
6120.95952,0.16692
6122.88799,0.13092
6124.81646,0.09592
6126.74493,0.05979
6128.67340,0.02386
6130.60187,0.00353
6132.53034,0.01045
6134.45880,0.04057
6136.38727,0.05137
6138.31574,0.04236
6140.24421,0.06860
6142.17268,0.11756
6144.10115,0.12113
6146.02962,0.07125
6147.95809,0.01928
6149.88655,0.01199
6151.81502,0.06243
6153.74349,0.12101
6155.67196,0.13861
6157.60043,0.15934
6159.52890,0.20900
6161.45737,0.21195
6163.38583,0.16896
6165.31430,0.16927
6167.24277,0.16713
6169.17124,0.10256
6171.09971,0.04490
6173.02818,0.03064
6174.95665,0.03270
6176.88512,0.05460
6178.81358,0.06129
6180.74205,0.05976
6182.67052,0.12380
6184.59899,0.18983
6186.52746,0.15722
6188.45593,0.08083
6190.38440,0.05974
6192.31286,0.08259
6194.24133,0.09131
6196.16980,0.04822
6198.09827,-0.00790
6200.02674,-0.00595
6201.95521,0.04028
6203.88368,0.07565
6205.81215,0.09671
6207.74061,0.10904
6209.66908,0.09904
6211.59755,0.10435
6213.52602,0.14712
6215.45449,0.17013
6217.38296,0.13322
6219.31143,0.07111
6221.23989,0.02621
6223.16836,-0.00927
6225.09683,-0.01917
6227.02530,0.04034
6228.95377,0.11677
6230.88224,0.13293
6232.81071,0.10241
6234.73918,0.06738
6236.66764,0.06281
6238.59611,0.11824
6240.52458,0.18498
6242.45305,0.19048
6244.38152,0.14113
6246.30999,0.08159
6248.23846,0.06431
6250.16692,0.12261
6252.09539,0.14927
6254.02386,0.05925
6255.95233,-0.00699
6257.88080,0.03428
6259.80927,0.09604
6261.73774,0.09960
6263.66621,0.04348
6265.59467,0.02440
6267.52314,0.05508
6269.45161,0.06492
6271.38008,0.07285
6273.30855,0.05946
6275.23702,0.01648
6277.16549,0.01005
6279.09395,0.02606
6281.02242,0.01093
6282.95089,-0.01625
6284.87936,0.01494
6286.80783,0.08197
6288.73630,0.09967
6290.66477,0.06809
6292.59323,0.03793
6294.52170,0.05498
6296.45017,0.10452
6298.37864,0.11623
6300.30711,0.09454
6302.23558,0.06091
6304.16405,0.04324
6306.09252,0.11141
6308.02098,0.19278
6309.94945,0.13532
6311.87792,0.01365
6313.80639,-0.00001
6315.73486,0.04273
6317.66333,0.07282
6319.59180,0.10814
6321.52026,0.08758
6323.44873,0.04583
6325.37720,0.07232
6327.30567,0.09803
6329.23414,0.06536
6331.16261,0.02842
6333.09108,0.04618
6335.01955,0.08691
6336.94801,0.09537
6338.87648,0.09893
6340.80495,0.14270
6342.73342,0.19078
6344.66189,0.17238
6346.59036,0.10538
6348.51883,0.04292
6350.44729,-0.02150
6352.37576,-0.02950
6354.30423,0.02813
6356.23270,0.05783
6358.16117,0.06027
6360.08964,0.10165
6362.01811,0.16896
6363.94658,0.19546
6365.87504,0.18268
6367.80351,0.17540
6369.73198,0.14171
6371.66045,0.08859
6373.58892,0.10747
6375.51739,0.15529
6377.44586,0.14436
6379.37432,0.12168
6381.30279,0.12555
6383.23126,0.11699
6385.15973,0.09578
6387.08820,0.10835
6389.01667,0.14370
6390.94514,0.15915
6392.87361,0.11995
6394.80207,0.03494
6396.73054,-0.02901
6398.65901,-0.03936
6400.58748,0.00728
6402.51595,0.08323
6404.44442,0.14410
6406.37289,0.19157
6408.30135,0.21409
6410.22982,0.17519
6412.15829,0.09667
6414.08676,0.03131
6416.01523,0.01235
6417.94370,0.05577
6419.87217,0.11294
6421.80064,0.11358
6423.72910,0.07468
6425.65757,0.04199
6427.58604,0.03604
6429.51451,0.06824
6431.44298,0.11184
6433.37145,0.10485
6435.29992,0.03126
6437.22838,-0.05724
6439.15685,-0.04725
6441.08532,0.04704
6443.01379,0.08949
6444.94226,0.05442
6446.87073,0.01484
6448.79920,-0.03534
6450.72766,-0.05512
6452.65613,0.02860
6454.58460,0.11119
6456.51307,0.11087
6458.44154,0.09335
6460.37001,0.09992
6462.29848,0.12156
6464.22695,0.11758
6466.15541,0.08414
6468.08388,0.11677
6470.01235,0.20631
6471.94082,0.21339
6473.86929,0.14379
6475.79776,0.11218
6477.72623,0.11733
6479.65469,0.09032
6481.58316,0.04102
6483.51163,0.01839
6485.44010,0.04693
6487.36857,0.09907
6489.29704,0.11032
6491.22551,0.06848
6493.15398,0.06440
6495.08244,0.12511
6497.01091,0.16742
6498.93938,0.17388
6500.86785,0.14764
6502.79632,0.10318
6504.72479,0.09548
6506.65326,0.10224
6508.58172,0.10326
6510.51019,0.11741
6512.43866,0.12572
6514.36713,0.13659
6516.29560,0.12321
6518.22407,0.05059
6520.15254,-0.00789
6522.08101,0.00271
6524.00947,0.09636
6525.93794,0.19741
6527.86641,0.16509
6529.79488,0.05053
6531.72335,0.01362
6533.65182,0.07020
6535.58029,0.10827
6537.50875,0.08102
6539.43722,0.04964
6541.36569,0.07281
6543.29416,0.12041
6545.22263,0.14642
6547.15110,0.18662
6549.07957,0.23302
6551.00804,0.18961
6552.93650,0.05569
6554.86497,-0.08379
6556.79344,-0.14810
6558.72191,-0.10582
6560.65038,-0.02001
6562.57885,0.05305
6564.50732,0.10344
6566.43578,0.11323
6568.36425,0.08099
6570.29272,0.05599
6572.22119,0.07661
6574.14966,0.07470
6576.07813,0.02473
6578.00660,0.01263
6579.93507,0.06810
6581.86353,0.11523
6583.79200,0.11737
6585.72047,0.12697
6587.64894,0.11573
6589.57741,0.04338
6591.50588,-0.01664
6593.43435,-0.01027
6595.36281,0.02627
6597.29128,0.04691
6599.21975,0.05474
6601.14822,0.04122
6603.07669,-0.00966
6605.00516,-0.06208
6606.93363,-0.04616
6608.86210,0.04490
6610.79056,0.07034
6612.71903,-0.02026
6614.64750,-0.03263
6616.57597,0.06196
6618.50444,0.08711
6620.43291,0.03735
6622.36138,-0.02094
6624.28984,-0.03288
6626.21831,0.03553
6628.14678,0.09251
6630.07525,0.08633
6632.00372,0.11921
6633.93219,0.15053
6635.86066,0.06872
6637.78912,-0.01318
6639.71759,-0.00449
6641.64606,0.02368
6643.57453,0.07447
6645.50300,0.14331
6647.43147,0.13191
6649.35994,0.07066
6651.28841,0.07220
6653.21687,0.10362
6655.14534,0.10941
6657.07381,0.14897
6659.00228,0.20507
6660.93075,0.16032
6662.85922,0.08844
6664.78769,0.10039
6666.71615,0.13001
6668.64462,0.13910
6670.57309,0.15160
6672.50156,0.12192
6674.43003,0.05949
6676.35850,0.01195
6678.28697,-0.03877
6680.21544,-0.07511
6682.14390,-0.02577
6684.07237,0.08323
6686.00084,0.10557
6687.92931,0.05232
6689.85778,0.03589
6691.78625,0.01149
6693.71472,-0.03758
6695.64318,-0.01999
6697.57165,0.09452
6699.50012,0.18346
6701.42859,0.17034
6703.35706,0.12179
6705.28553,0.10764
6707.21400,0.12761
6709.14247,0.11333
6711.07093,0.07895
6712.99940,0.07514
6714.92787,0.05158
6716.85634,0.02788
6718.78481,0.05231
6720.71328,0.09123
6722.64175,0.13822
6724.57021,0.16225
6726.49868,0.11395
6728.42715,0.01761
6730.35562,-0.01379
6732.28409,0.05254
6734.21256,0.09126
6736.14103,0.07621
6738.06950,0.05389
6739.99796,-0.00415
6741.92643,-0.08568
6743.85490,-0.11046
6745.78337,-0.08946
6747.71184,-0.08510
6749.64031,-0.08574
6751.56878,-0.01653
6753.49724,0.10849
6755.42571,0.17580
6757.35418,0.14806
6759.28265,0.11171
6761.21112,0.16484
6763.13959,0.24688
6765.06806,0.25277
6766.99653,0.18612
6768.92499,0.09848
6770.85346,0.01143
6772.78193,-0.01804
6774.71040,0.06914
6776.63887,0.15089
6778.56734,0.09394
6780.49581,-0.03768
6782.42427,-0.16133
6784.35274,-0.19771
6786.28121,-0.07919
6788.20968,0.12468
6790.13815,0.23409
6792.06662,0.17586
6793.99509,0.07945
6795.92355,0.03673
6797.85202,0.05688
6799.78049,0.12933
6801.70896,0.20740
6803.63743,0.20704
6805.56590,0.15048
6807.49437,0.13650
6809.42284,0.14356
6811.35130,0.12655
6813.27977,0.15303
6815.20824,0.21982
6817.13671,0.21044
6819.06518,0.17971
6820.99365,0.20351
6822.92212,0.17225
6824.85058,0.08248
6826.77905,0.11002
6828.70752,0.22332
6830.63599,0.21798
6832.56446,0.09740
6834.49293,0.04785
6836.42140,0.09775
6838.34987,0.09652
6840.27833,0.04928
6842.20680,0.03920
6844.13527,0.02958
6846.06374,0.00109
6847.99221,-0.05293
6849.92068,-0.12706
6851.84915,-0.12515
6853.77761,-0.03950
6855.70608,0.05217
6857.63455,0.08239
6859.56302,0.07808
6861.49149,0.08736
6863.41996,0.09563
6865.34843,0.06955
6867.27690,0.01670
6869.20536,-0.02895
6871.13383,-0.05161
6873.06230,-0.03651
6874.99077,-0.03099
6876.91924,-0.07266
6878.84771,-0.08049
6880.77618,-0.05357
6882.70464,-0.07227
6884.63311,-0.07542
6886.56158,-0.00525
6888.49005,0.08303
6890.41852,0.11156
6892.34699,0.07799
6894.27546,0.04469
6896.20393,0.04291
6898.13239,0.03677
6900.06086,-0.00847
6901.98933,-0.07727
6903.91780,-0.15574
6905.84627,-0.14342
6907.77474,0.04207
6909.70321,0.21460
6911.63167,0.20443
6913.56014,0.11558
6915.48861,0.10398
6917.41708,0.13452
6919.34555,0.11022
6921.27402,0.07442
6923.20249,0.10304
6925.13096,0.12036
6927.05942,0.10346
6928.98789,0.09108
6930.91636,0.02265
6932.84483,-0.05010
6934.77330,-0.00969
6936.70177,0.00584
6938.63024,-0.08832
6940.55870,-0.16290
6942.48717,-0.14030
6944.41564,-0.12367
6946.34411,-0.13498
6948.27258,-0.07503
6950.20105,0.08939
6952.12952,0.18408
6954.05799,0.11624
6955.98645,0.03004
6957.91492,0.01649
6959.84339,0.02648
6961.77186,0.01214
6963.70033,-0.01813
6965.62880,-0.01840
6967.55727,0.01218
6969.48573,0.08149
6971.41420,0.18760
6973.34267,0.25010
6975.27114,0.23615
6977.19961,0.19067
6979.12808,0.12553
6981.05655,0.07386
6982.98501,0.10226
6984.91348,0.20169
6986.84195,0.23757
6988.77042,0.19643
6990.69889,0.16984
6992.62736,0.12795
6994.55583,0.10864
6996.48430,0.16166
6998.41276,0.13987
7000.34123,0.01561
7002.26970,-0.04990
7004.19817,-0.09866
7006.12664,-0.20320
7008.05511,-0.22115
7009.98358,-0.13628
7011.91204,-0.05676
7013.84051,0.03345
7015.76898,0.12309
7017.69745,0.14879
7019.62592,0.10027
7021.55439,0.05843
7023.48286,0.08608
7025.41133,0.10274
7027.33979,0.05276
7029.26826,0.01500
7031.19673,0.05441
7033.12520,0.17570
7035.05367,0.31088
7036.98214,0.33644
7038.91061,0.29377
7040.83907,0.23080
7042.76754,0.17702
7044.69601,0.17056
7046.62448,0.13376
7048.55295,0.07115
7050.48142,0.08296
7052.40989,0.14876
7054.33836,0.18063
7056.26682,0.15293
7058.19529,0.10493
7060.12376,0.08432
7062.05223,0.10983
7063.98070,0.16045
7065.90917,0.20242
7067.83764,0.21043
7069.76610,0.17473
7071.69457,0.14615
7073.62304,0.09784
7075.55151,0.02974
7077.47998,0.05457
7079.40845,0.15744
7081.33692,0.15654
7083.26539,0.04341
7085.19385,0.02098
7087.12232,0.05722
7089.05079,0.02352
7090.97926,-0.06245
7092.90773,-0.15949
7094.83620,-0.19483
7096.76467,-0.12818
7098.69313,0.00386
7100.62160,0.08194
7102.55007,0.04407
7104.47854,-0.03892
7106.40701,-0.10421
7108.33548,-0.09905
7110.26395,-0.03092
7112.19242,0.01028
7114.12088,0.02572
7116.04935,0.15100
7117.97782,0.38711
7119.90629,0.47894
7121.83476,0.39897
7123.76323,0.26153
7125.69170,0.16967
7127.62016,0.16171
7129.54863,0.13029
7131.47710,0.07568
7133.40557,0.05020
7135.33404,-0.00061
7137.26251,-0.07235
7139.19098,-0.11579
7141.11944,-0.12326
7143.04791,-0.07912
7144.97638,-0.00414
7146.90485,-0.06019
7148.83332,-0.21695
7150.76179,-0.28327
7152.69026,-0.24166
7154.61873,-0.12966
7156.54719,0.01641
7158.47566,0.05882
7160.40413,-0.03860
7162.33260,-0.10575
7164.26107,-0.09834
7166.18954,-0.04396
7168.11801,0.04040
7170.04647,0.00920
7171.97494,-0.12704
7173.90341,-0.14862
7175.83188,-0.06484
7177.76035,0.01992
7179.68882,0.08028
7181.61729,0.03870
7183.54576,0.01183
7185.47422,0.20932
7187.40269,0.37574
7189.33116,0.34651
7191.25963,0.27112
7193.18810,0.26292
7195.11657,0.23298
7197.04504,0.16667
7198.97350,0.11682
7200.90197,0.08691
7202.83044,0.07681
7204.75891,0.07149
7206.68738,0.10753
7208.61585,0.19956
7210.54432,0.25596
7212.47279,0.26724
7214.40125,0.28245
7216.32972,0.22837
7218.25819,0.06380
7220.18666,-0.04366
7222.11513,-0.12158
7224.04360,-0.13754
7225.97207,0.06501
7227.90053,0.30043
7229.82900,0.26299
7231.75747,0.05453
7233.68594,-0.00041
7235.61441,0.02783
7237.54288,-0.00718
7239.47135,-0.03803
7241.39982,0.01596
7243.32828,0.06516
7245.25675,0.03181
7247.18522,-0.01889
7249.11369,-0.08146
7251.04216,-0.09582
7252.97063,0.00633
7254.89910,0.07324
7256.82756,0.06460
7258.75603,0.08567
7260.68450,0.18538
7262.61297,0.24760
7264.54144,0.15570
7266.46991,0.01872
7268.39838,-0.12614
7270.32685,-0.21852
7272.25531,-0.11006
7274.18378,-0.00934
7276.11225,-0.04974
7278.04072,-0.06208
7279.96919,-0.04392
7281.89766,-0.06172
7283.82613,0.04884
7285.75459,0.21467
7287.68306,0.24195
7289.61153,0.22125
7291.54000,0.21217
7293.46847,0.20380
7295.39694,0.21504
7297.32541,0.16362
7299.25387,0.08521
7301.18234,0.13228
7303.11081,0.27261
7305.03928,0.25429
7306.96775,0.07992
7308.89622,-0.01570
7310.82469,0.00223
7312.75316,0.09169
7314.68162,0.20075
7316.61009,0.16917
7318.53856,0.01822
7320.46703,-0.13040
7322.39550,-0.22343
7324.32397,-0.18007
7326.25244,-0.07419
7328.18090,0.01741
7330.10937,0.03451
7332.03784,-0.02904
7333.96631,-0.06594
7335.89478,-0.06771
7337.82325,-0.08026
7339.75172,-0.13107
7341.68019,-0.11504
7343.60865,-0.05974
7345.53712,0.01328
7347.46559,0.08224
7349.39406,0.01954
7351.32253,-0.02887
7353.25100,0.07492
7355.17947,0.19276
7357.10793,0.27605
7359.03640,0.26024
7360.96487,0.09164
7362.89334,-0.02167
7364.82181,-0.02590
7366.75028,-0.03189
7368.67875,0.01932
7370.60722,0.19426
7372.53568,0.37190
7374.46415,0.39226
7376.39262,0.22162
7378.32109,0.05027
7380.24956,-0.11883
7382.17803,-0.18187
7384.10650,-0.06546
7386.03496,0.05086
7387.96343,0.07764
7389.89190,0.04739
7391.82037,0.00324
7393.74884,-0.00045
7395.67731,0.05833
7397.60578,0.13987
7399.53425,0.19112
7401.46271,0.25030
7403.39118,0.36863
7405.31965,0.48784
7407.24812,0.49426
7409.17659,0.34152
7411.10506,0.11489
7413.03353,-0.03869
7414.96199,-0.07409
7416.89046,0.03137
7418.81893,0.13034
7420.74740,-0.02832
7422.67587,-0.16183
7424.60434,-0.13422
7426.53281,-0.06978
7428.46128,-0.01706
7430.38974,-0.08941
7432.31821,-0.23901
7434.24668,-0.19711
7436.17515,-0.03554
7438.10362,0.05158
7440.03209,0.12987
7441.96056,0.23787
7443.88902,0.25877
7445.81749,0.11249
7447.74596,-0.03993
7449.67443,0.01092
7451.60290,0.16726
7453.53137,0.20366
7455.45984,0.16077
7457.38831,0.12463
7459.31677,0.09116
7461.24524,0.07612
7463.17371,0.17958
7465.10218,0.34941
7467.03065,0.36132
7468.95912,0.19586
7470.88759,0.02267
7472.81605,-0.08632
7474.74452,-0.17391
7476.67299,-0.14645
7478.60146,0.09729
7480.52993,0.27631
7482.45840,0.20094
7484.38687,0.11786
7486.31533,0.04898
7488.24380,-0.07143
7490.17227,-0.14312
7492.10074,-0.08521
7494.02921,0.01940
7495.95768,0.02047
7497.88615,-0.08655
