399.19301,0.42980
401.12148,0.39451
403.04995,0.33260
404.97842,0.08539
406.90689,-0.07196
408.83536,-0.12371
410.76382,-0.17599
412.69229,-0.15708
414.62076,-0.05179
416.54923,0.02320
418.47770,0.08319
420.40617,0.10125
422.33464,0.06859
424.26311,0.11872
426.19157,0.17659
428.12004,0.09487
430.04851,-0.03844
431.97698,-0.05849
433.90545,-0.01364
435.83392,0.05406
437.76239,0.17796
439.69085,0.30044
441.61932,0.32072
443.54779,0.22098
445.47626,0.06447
447.40473,-0.05985
449.33320,-0.07076
451.26167,-0.01810
453.19013,0.04235
455.11860,0.08488
457.04707,0.10461
458.97554,0.15747
460.90401,0.19297
462.83248,0.16322
464.76095,0.11188
466.68942,0.06523
468.61788,0.05760
470.54635,0.12552
472.47482,0.21409
474.40329,0.21559
476.33176,0.16448
478.26023,0.11344
480.18870,0.06093
482.11716,0.00765
484.04563,-0.02565
485.97410,-0.00260
487.90257,0.04277
489.83104,0.06363
491.75951,0.06646
493.68798,0.06188
495.61645,0.06235
497.54491,0.06526
499.47338,0.05067
501.40185,0.03365
503.33032,0.03962
505.25879,0.05760
507.18726,0.06449
509.11573,0.07656
511.04419,0.10358
512.97266,0.12456
514.90113,0.11643
516.82960,0.08323
518.75807,0.06970
520.68654,0.07146
522.61501,0.05283
524.54348,0.01181
526.47194,-0.01883
528.40041,-0.00517
530.32888,0.02529
532.25735,0.04121
534.18582,0.06062
536.11429,0.09499
538.04276,0.10489
539.97122,0.07472
541.89969,0.04510
543.82816,0.04344
545.75663,0.06531
547.68510,0.09579
549.61357,0.10111
551.54204,0.08258
553.47051,0.09367
555.39897,0.10632
557.32744,0.06821
559.25591,0.03688
561.18438,0.04803
563.11285,0.07797
565.04132,0.11877
566.96979,0.14891
568.89825,0.15391
570.82672,0.14636
572.75519,0.13046
574.68366,0.11124
576.61213,0.09822
578.54060,0.08716
580.46907,0.07531
582.39754,0.06482
584.32600,0.05452
586.25447,0.04476
588.18294,0.03524
590.11141,0.03483
592.03988,0.05179
593.96835,0.07369
595.89682,0.08312
597.82528,0.08054
599.75375,0.08290
601.68222,0.09007
603.61069,0.09540
605.53916,0.11240
607.46763,0.12336
609.39610,0.09979
611.32456,0.06495
613.25303,0.04849
615.18150,0.04623
617.10997,0.04603
619.03844,0.04928
620.96691,0.05612
622.89538,0.05603
624.82385,0.05460
626.75231,0.06213
628.68078,0.06748
630.60925,0.06916
632.53772,0.08184
634.46619,0.09387
636.39466,0.08733
638.32313,0.07519
640.25159,0.07665
642.18006,0.08963
644.10853,0.09856
646.03700,0.09722
647.96547,0.08703
649.89394,0.07705
651.82241,0.08342
653.75088,0.10011
655.67934,0.10619
657.60781,0.09996
659.53628,0.09011
661.46475,0.08270
663.39322,0.07506
665.32169,0.05765
667.25016,0.04595
669.17862,0.07302
671.10709,0.09310
673.03556,0.09022
674.96403,0.08456
676.89250,0.08526
678.82097,0.09541
680.74944,0.10663
682.67791,0.10514
684.60637,0.09754
686.53484,0.10097
688.46331,0.11195
690.39178,0.11987
692.32025,0.11909
694.24872,0.10343
696.17719,0.08608
698.10565,0.08860
700.03412,0.10267
701.96259,0.10351
703.89106,0.09298
705.81953,0.09224
707.74800,0.09494
709.67647,0.08888
711.60494,0.08785
713.53340,0.09403
715.46187,0.09348
717.39034,0.08455
719.31881,0.07801
721.24728,0.08620
723.17575,0.09828
725.10422,0.09458
727.03268,0.08708
728.96115,0.08937
730.88962,0.09165
732.81809,0.09028
734.74656,0.09502
736.67503,0.10787
738.60350,0.11129
740.53197,0.09794
742.46043,0.08932
744.38890,0.09095
746.31737,0.08539
748.24584,0.07986
750.17431,0.09049
752.10278,0.10198
754.03125,0.10149
755.95971,0.09739
757.88818,0.09488
759.81665,0.09569
761.74512,0.09604
763.67359,0.09229
765.60206,0.09364
767.53053,0.10412
769.45900,0.10811
771.38746,0.09797
773.31593,0.09564
775.24440,0.11103
777.17287,0.11746
779.10134,0.10635
781.02981,0.09902
782.95828,0.09876
784.88674,0.09991
786.81521,0.10399
788.74368,0.10504
790.67215,0.09764
792.60062,0.08422
794.52909,0.07411
796.45756,0.07636
798.38602,0.08666
800.31449,0.09906
802.24296,0.10831
804.17143,0.10711
806.09990,0.09775
808.02837,0.08398
809.95684,0.07390
811.88531,0.08000
813.81377,0.09249
815.74224,0.09785
817.67071,0.10245
819.59918,0.10343
821.52765,0.09955
823.45612,0.10530
825.38459,0.11282
827.31305,0.10705
829.24152,0.09913
831.16999,0.10097
833.09846,0.11079
835.02693,0.11961
836.95540,0.11565
838.88387,0.09941
840.81234,0.08832
842.74080,0.08959
844.66927,0.09415
846.59774,0.09544
848.52621,0.09470
850.45468,0.09709
852.38315,0.09882
854.31162,0.09996
856.24008,0.10912
858.16855,0.11713
860.09702,0.11359
862.02549,0.10389
863.95396,0.09652
865.88243,0.09643
867.81090,0.09459
869.73937,0.08253
871.66783,0.07502
873.59630,0.08392
875.52477,0.09883
877.45324,0.10704
879.38171,0.10834
881.31018,0.11177
883.23865,0.12041
885.16711,0.12635
887.09558,0.12669
889.02405,0.12212
890.95252,0.10767
892.88099,0.09133
894.80946,0.09006
896.73793,0.10609
898.66640,0.12343
900.59486,0.12369
902.52333,0.11387
904.45180,0.11208
906.38027,0.12146
908.30874,0.13528
910.23721,0.13779
912.16568,0.12463
914.09414,0.11258
916.02261,0.11193
917.95108,0.11708
919.87955,0.11836
921.80802,0.11348
923.73649,0.10922
925.66496,0.10879
927.59343,0.10733
929.52189,0.10406
931.45036,0.10618
933.37883,0.11308
935.30730,0.11532
937.23577,0.11233
939.16424,0.10955
941.09271,0.10921
943.02117,0.11026
944.94964,0.11048
946.87811,0.11031
948.80658,0.11149
950.73505,0.11598
952.66352,0.12247
954.59199,0.12361
956.52045,0.11725
958.44892,0.11340
960.37739,0.11867
962.30586,0.12636
964.23433,0.12766
966.16280,0.12164
968.09127,0.11309
970.01974,0.10774
971.94820,0.10928
973.87667,0.11205
975.80514,0.11118
977.73361,0.11334
979.66208,0.11746
981.59055,0.11579
983.51902,0.11274
985.44748,0.11422
987.37595,0.11655
989.30442,0.11362
991.23289,0.10725
993.16136,0.10565
995.08983,0.10948
997.01830,0.11240
998.94677,0.11256
1000.87523,0.11377
1002.80370,0.11864
1004.73217,0.12377
1006.66064,0.12696
1008.58911,0.12989
1010.51758,0.12968
1012.44605,0.12469
1014.37451,0.12100
1016.30298,0.12187
1018.23145,0.12443
1020.15992,0.12263
1022.08839,0.11874
1024.01686,0.12742
1025.94533,0.14553
1027.87380,0.15641
1029.80226,0.15446
1031.73073,0.14163
1033.65920,0.13063
1035.58767,0.12823
1037.51614,0.12536
1039.44461,0.12404
1041.37308,0.13028
1043.30154,0.13703
1045.23001,0.13761
1047.15848,0.13283
1049.08695,0.12799
1051.01542,0.12680
1052.94389,0.12814
1054.87236,0.13383
1056.80083,0.14296
1058.72929,0.14552
1060.65776,0.14107
1062.58623,0.13956
1064.51470,0.14326
1066.44317,0.14627
1068.37164,0.14332
1070.30011,0.13585
1072.22857,0.13113
1074.15704,0.13067
1076.08551,0.12937
1078.01398,0.12849
1079.94245,0.12950
1081.87092,0.12983
1083.79939,0.13069
1085.72786,0.13426
1087.65632,0.14009
1089.58479,0.14166
1091.51326,0.13718
1093.44173,0.13488
1095.37020,0.13372
1097.29867,0.12976
1099.22714,0.13075
1101.15560,0.13624
1103.08407,0.13756
1105.01254,0.13698
1106.94101,0.13736
1108.86948,0.13864
1110.79795,0.14186
1112.72642,0.14686
1114.65489,0.15137
1116.58335,0.14872
1118.51182,0.14185
1120.44029,0.13925
1122.36876,0.13759
1124.29723,0.13444
1126.22570,0.13298
1128.15417,0.13132
1130.08263,0.12691
1132.01110,0.12297
1133.93957,0.12205
1135.86804,0.12379
1137.79651,0.12863
1139.72498,0.13386
1141.65345,0.13595
1143.58191,0.13612
1145.51038,0.13614
1147.43885,0.13694
1149.36732,0.13840
1151.29579,0.14027
1153.22426,0.14398
1155.15273,0.14565
1157.08120,0.14094
1159.00966,0.13700
1160.93813,0.14059
1162.86660,0.14503
1164.79507,0.14270
1166.72354,0.13733
1168.65201,0.13563
1170.58048,0.13738
1172.50894,0.13954
1174.43741,0.14124
1176.36588,0.14252
1178.29435,0.14198
1180.22282,0.13883
1182.15129,0.13721
1184.07976,0.13875
1186.00823,0.14059
1187.93669,0.14223
1189.86516,0.14193
1191.79363,0.14046
1193.72210,0.14148
1195.65057,0.14243
1197.57904,0.14201
1199.50751,0.14251
1201.43597,0.14383
1203.36444,0.14608
1205.29291,0.14654
1207.22138,0.14168
1209.14985,0.13559
1211.07832,0.13415
1213.00679,0.13767
1214.93526,0.14195
1216.86372,0.14308
1218.79219,0.14207
1220.72066,0.14161
1222.64913,0.14232
1224.57760,0.14460
1226.50607,0.14576
1228.43454,0.14226
1230.36300,0.13937
1232.29147,0.14290
1234.21994,0.14735
1236.14841,0.14722
1238.07688,0.14593
1240.00535,0.14492
1241.93382,0.14298
1243.86229,0.14010
1245.79075,0.13498
1247.71922,0.13210
1249.64769,0.13581
1251.57616,0.13920
1253.50463,0.13788
1255.43310,0.13608
1257.36157,0.13607
1259.29003,0.13866
1261.21850,0.14253
1263.14697,0.14218
1265.07544,0.13699
1267.00391,0.13166
1268.93238,0.13001
1270.86085,0.13289
1272.78932,0.13730
1274.71778,0.14013
1276.64625,0.14231
1278.57472,0.14367
1280.50319,0.13960
1282.43166,0.13553
1284.36013,0.13976
1286.28860,0.14330
1288.21706,0.14098
1290.14553,0.14035
1292.07400,0.14093
1294.00247,0.13787
1295.93094,0.13367
1297.85941,0.13212
1299.78788,0.12725
1301.71634,0.11028
1303.64481,0.09030
1305.57328,0.09200
1307.50175,0.11931
1309.43022,0.14431
1311.35869,0.15215
1313.28716,0.15359
1315.21563,0.15482
1317.14409,0.15533
1319.07256,0.15455
1321.00103,0.15240
1322.92950,0.15129
1324.85797,0.14712
1326.78644,0.13843
1328.71491,0.13486
1330.64337,0.13586
1332.57184,0.13778
1334.50031,0.14193
1336.42878,0.14233
1338.35725,0.13823
1340.28572,0.12484
1342.21419,0.10195
1344.14266,0.09424
1346.07112,0.11055
1347.99959,0.13147
1349.92806,0.13833
1351.85653,0.13539
1353.78500,0.13630
1355.71347,0.14240
1357.64194,0.14792
1359.57040,0.15155
1361.49887,0.15603
1363.42734,0.15910
1365.35581,0.15845
1367.28428,0.15852
1369.21275,0.15984
1371.14122,0.16164
1373.06969,0.16490
1374.99815,0.16583
1376.92662,0.16238
1378.85509,0.16037
1380.78356,0.15956
1382.71203,0.15816
1384.64050,0.16122
1386.56897,0.16818
1388.49743,0.16833
1390.42590,0.16265
1392.35437,0.16194
1394.28284,0.16616
1396.21131,0.16916
1398.13978,0.17172
1400.06825,0.17137
1401.99672,0.16720
1403.92518,0.16603
1405.85365,0.16735
1407.78212,0.16553
1409.71059,0.16260
1411.63906,0.16263
1413.56753,0.16669
1415.49600,0.17404
1417.42446,0.18233
1419.35293,0.18391
1421.28140,0.17797
1423.20987,0.17189
1425.13834,0.16692
1427.06681,0.16493
1428.99528,0.16476
1430.92375,0.16428
1432.85221,0.16662
1434.78068,0.17462
1436.70915,0.18039
1438.63762,0.17231
1440.56609,0.16207
1442.49456,0.15908
1444.42303,0.16387
1446.35149,0.17036
1448.27996,0.17183
1450.20843,0.17184
1452.13690,0.17514
1454.06537,0.18231
1455.99384,0.19739
1457.92231,0.20824
1459.85077,0.19472
1461.77924,0.18118
1463.70771,0.17914
1465.63618,0.18347
1467.56465,0.18425
1469.49312,0.18624
1471.42159,0.19248
1473.35006,0.19303
1475.27852,0.18511
1477.20699,0.17767
1479.13546,0.17326
1481.06393,0.17258
1482.99240,0.17326
1484.92087,0.17650
1486.84934,0.18677
1488.77780,0.19788
1490.70627,0.19351
1492.63474,0.18270
1494.56321,0.18051
1496.49168,0.18650
1498.42015,0.18867
1500.34862,0.18164
1502.27709,0.17762
1504.20555,0.18732
1506.13402,0.21577
1508.06249,0.22391
1509.99096,0.20221
1511.91943,0.19072
1513.84790,0.19260
1515.77637,0.20012
1517.70483,0.20472
1519.63330,0.20936
1521.56177,0.21306
1523.49024,0.20615
1525.41871,0.19757
1527.34718,0.18915
1529.27565,0.18286
1531.20412,0.18465
1533.13258,0.19088
1535.06105,0.19065
1536.98952,0.18894
1538.91799,0.19988
1540.84646,0.22431
1542.77493,0.22603
1544.70340,0.20812
1546.63186,0.19158
1548.56033,0.18667
1550.48880,0.18819
1552.41727,0.19171
1554.34574,0.20291
1556.27421,0.22405
1558.20268,0.24418
1560.13115,0.22037
1562.05961,0.19515
1563.98808,0.18775
1565.91655,0.18673
1567.84502,0.18986
1569.77349,0.19149
1571.70196,0.18635
1573.63043,0.18633
1575.55889,0.19286
1577.48736,0.19079
1579.41583,0.18270
1581.34430,0.17866
1583.27277,0.17708
1585.20124,0.17687
1587.12971,0.17852
1589.05818,0.17854
1590.98664,0.17539
1592.91511,0.17380
1594.84358,0.17545
1596.77205,0.17640
1598.70052,0.17589
1600.62899,0.17667
1602.55746,0.17795
1604.48592,0.17765
1606.41439,0.17654
1608.34286,0.17615
1610.27133,0.17777
1612.19980,0.18142
1614.12827,0.18590
1616.05674,0.18788
1617.98521,0.18510
1619.91367,0.18684
1621.84214,0.19502
1623.77061,0.19861
1625.69908,0.19335
1627.62755,0.18876
1629.55602,0.18644
1631.48449,0.18801
1633.41295,0.19642
1635.34142,0.20702
1637.26989,0.20328
1639.19836,0.19248
1641.12683,0.18554
1643.05530,0.18618
1644.98377,0.19970
1646.91223,0.21932
1648.84070,0.22015
1650.76917,0.21985
1652.69764,0.23289
1654.62611,0.22494
1656.55458,0.20219
1658.48305,0.18272
1660.41152,0.17507
1662.33998,0.18911
1664.26845,0.19681
1666.19692,0.19220
1668.12539,0.19995
1670.05386,0.21253
1671.98233,0.20798
1673.91080,0.19659
1675.83926,0.18965
1677.76773,0.19208
1679.69620,0.19851
1681.62467,0.20513
1683.55314,0.21175
1685.48161,0.20952
1687.41008,0.20164
1689.33855,0.19496
1691.26701,0.19081
1693.19548,0.19489
1695.12395,0.20782
1697.05242,0.22031
1698.98089,0.22327
1700.90936,0.21298
1702.83783,0.20314
1704.76629,0.20219
1706.69476,0.19839
1708.62323,0.18862
1710.55170,0.18557
1712.48017,0.19551
1714.40864,0.21450
1716.33711,0.22837
1718.26558,0.21496
1720.19404,0.19379
1722.12251,0.18440
1724.05098,0.18038
1725.97945,0.17749
1727.90792,0.17991
1729.83639,0.18859
1731.76486,0.19965
1733.69332,0.20758
1735.62179,0.20309
1737.55026,0.19688
1739.47873,0.19491
1741.40720,0.19434
1743.33567,0.19550
1745.26414,0.19945
1747.19261,0.20399
1749.12107,0.20406
1751.04954,0.19614
1752.97801,0.18806
1754.90648,0.18608
1756.83495,0.18672
1758.76342,0.18755
1760.69189,0.19094
1762.62035,0.19155
1764.54882,0.18583
1766.47729,0.18284
1768.40576,0.18863
1770.33423,0.20184
1772.26270,0.20939
1774.19117,0.19981
1776.11964,0.18847
1778.04810,0.18555
1779.97657,0.18888
1781.90504,0.19132
1783.83351,0.18988
1785.76198,0.18618
1787.69045,0.18535
1789.61892,0.19163
1791.54738,0.19872
1793.47585,0.19604
1795.40432,0.18954
1797.33279,0.18723
1799.26126,0.18832
1801.18973,0.18703
1803.11820,0.18191
1805.04666,0.17934
1806.97513,0.18130
1808.90360,0.18491
1810.83207,0.18582
1812.76054,0.18288
1814.68901,0.18062
1816.61748,0.17952
1818.54595,0.17870
1820.47441,0.18010
1822.40288,0.18458
1824.33135,0.18961
1826.25982,0.19165
1828.18829,0.19456
1830.11676,0.19513
1832.04523,0.18768
1833.97369,0.18326
1835.90216,0.18550
1837.83063,0.18791
1839.75910,0.18923
1841.68757,0.19376
1843.61604,0.19827
1845.54451,0.19438
1847.47298,0.18733
1849.40144,0.18289
1851.32991,0.18110
1853.25838,0.18209
1855.18685,0.18349
1857.11532,0.18233
1859.04379,0.18015
1860.97226,0.18050
1862.90072,0.18342
1864.82919,0.18682
1866.75766,0.19024
1868.68613,0.19268
1870.61460,0.18973
1872.54307,0.18287
1874.47154,0.17857
1876.40001,0.17908
1878.32847,0.18149
1880.25694,0.18318
1882.18541,0.18332
1884.11388,0.18325
1886.04235,0.18531
1887.97082,0.18894
1889.89929,0.18949
1891.82775,0.18534
1893.75622,0.18266
1895.68469,0.18247
1897.61316,0.18049
1899.54163,0.17878
1901.47010,0.17985
1903.39857,0.18166
1905.32704,0.18381
1907.25550,0.18630
1909.18397,0.18606
1911.11244,0.18302
1913.04091,0.18171
1914.96938,0.18364
1916.89785,0.18568
1918.82632,0.18362
1920.75478,0.17997
1922.68325,0.18024
1924.61172,0.18256
1926.54019,0.18254
1928.46866,0.18160
1930.39713,0.18226
1932.32560,0.18299
1934.25407,0.18278
1936.18253,0.18288
1938.11100,0.18265
1940.03947,0.18337
1941.96794,0.18678
1943.89641,0.18851
1945.82488,0.18554
1947.75335,0.18123
1949.68181,0.18006
1951.61028,0.18159
1953.53875,0.18130
1955.46722,0.18026
1957.39569,0.18093
1959.32416,0.18110
1961.25263,0.18131
1963.18110,0.18315
1965.10956,0.18501
1967.03803,0.18644
1968.96650,0.18772
1970.89497,0.18782
1972.82344,0.18677
1974.75191,0.18529
1976.68038,0.18401
1978.60884,0.18370
1980.53731,0.18437
1982.46578,0.18552
1984.39425,0.18717
1986.32272,0.18864
1988.25119,0.18953
1990.17966,0.19164
1992.10812,0.19258
1994.03659,0.18804
1995.96506,0.18347
1997.89353,0.18351
1999.82200,0.18412
2001.75047,0.18347
2003.67894,0.18301
2005.60741,0.18210
2007.53587,0.18196
2009.46434,0.18392
2011.39281,0.18476
2013.32128,0.18285
2015.24975,0.18121
2017.17822,0.18087
2019.10669,0.18073
2021.03515,0.18253
2022.96362,0.18626
2024.89209,0.18900
2026.82056,0.18948
2028.74903,0.18743
2030.67750,0.18553
2032.60597,0.18715
2034.53444,0.18920
2036.46290,0.18789
2038.39137,0.18591
2040.31984,0.18555
2042.24831,0.18508
2044.17678,0.18363
2046.10525,0.18198
2048.03372,0.18170
2049.96218,0.18336
2051.89065,0.18484
2053.81912,0.18553
2055.74759,0.18671
2057.67606,0.18795
2059.60453,0.18880
2061.53300,0.19024
2063.46147,0.19095
2065.38993,0.18882
2067.31840,0.18662
2069.24687,0.18635
2071.17534,0.18599
2073.10381,0.18535
2075.03228,0.18483
2076.96075,0.18491
2078.88921,0.18637
2080.81768,0.18711
2082.74615,0.18647
2084.67462,0.18691
2086.60309,0.18928
2088.53156,0.19148
2090.46003,0.19136
2092.38850,0.18951
2094.31696,0.18840
2096.24543,0.18906
2098.17390,0.18902
2100.10237,0.18768
2102.03084,0.18807
2103.95931,0.19018
2105.88778,0.19120
2107.81624,0.19085
2109.74471,0.19053
2111.67318,0.19019
2113.60165,0.19093
2115.53012,0.19268
2117.45859,0.19251
2119.38706,0.19108
2121.31553,0.18960
2123.24399,0.18699
2125.17246,0.18568
2127.10093,0.18700
2129.02940,0.18778
2130.95787,0.18848
2132.88634,0.18958
2134.81481,0.18991
2136.74327,0.19048
2138.67174,0.19055
2140.60021,0.18945
2142.52868,0.18742
2144.45715,0.18532
2146.38562,0.18431
2148.31409,0.18414
2150.24255,0.18537
2152.17102,0.18736
2154.09949,0.18915
2156.02796,0.19066
2157.95643,0.18980
2159.88490,0.18654
2161.81337,0.18473
2163.74184,0.18635
2165.67030,0.19045
2167.59877,0.19490
2169.52724,0.19626
2171.45571,0.19280
2173.38418,0.18824
2175.31265,0.18721
2177.24112,0.18837
2179.16958,0.18881
2181.09805,0.18830
2183.02652,0.18775
2184.95499,0.18756
2186.88346,0.18685
2188.81193,0.18663
2190.74040,0.18743
2192.66887,0.18772
2194.59733,0.18808
2196.52580,0.18956
2198.45427,0.19135
2200.38274,0.19235
2202.31121,0.19189
2204.23968,0.18972
2206.16815,0.18711
2208.09661,0.18644
2210.02508,0.18842
2211.95355,0.19056
2213.88202,0.19018
2215.81049,0.18758
2217.73896,0.18550
2219.66743,0.18568
2221.59590,0.18731
2223.52436,0.18915
2225.45283,0.19028
2227.38130,0.19083
2229.30977,0.19144
2231.23824,0.19076
2233.16671,0.18777
2235.09518,0.18529
2237.02364,0.18578
2238.95211,0.18759
2240.88058,0.18881
2242.80905,0.18832
2244.73752,0.18712
2246.66599,0.18739
2248.59446,0.18838
2250.52293,0.18867
2252.45139,0.18822
2254.37986,0.18784
2256.30833,0.18902
2258.23680,0.19104
2260.16527,0.19009
2262.09374,0.18719
2264.02221,0.18701
2265.95067,0.18894
2267.87914,0.18963
2269.80761,0.18865
2271.73608,0.18911
2273.66455,0.19080
2275.59302,0.19072
2277.52149,0.18996
2279.44996,0.18991
2281.37842,0.18961
2283.30689,0.18975
2285.23536,0.19180
2287.16383,0.19497
2289.09230,0.19721
2291.02077,0.19763
2292.94924,0.19756
2294.87770,0.19697
2296.80617,0.19581
2298.73464,0.19710
2300.66311,0.20014
2302.59158,0.20181
2304.52005,0.20209
2306.44852,0.20143
2308.37699,0.20012
2310.30545,0.20037
2312.23392,0.20400
2314.16239,0.20859
2316.09086,0.20989
2318.01933,0.20827
2319.94780,0.21241
2321.87627,0.22558
2323.80473,0.23589
2325.73320,0.23479
2327.66167,0.22596
2329.59014,0.22019
2331.51861,0.22868
2333.44708,0.24285
2335.37555,0.24446
2337.30401,0.24369
2339.23248,0.25324
2341.16095,0.25502
2343.08942,0.24269
2345.01789,0.23147
2346.94636,0.22324
2348.87483,0.21576
2350.80330,0.21556
2352.73176,0.22522
2354.66023,0.23410
2356.58870,0.24602
2358.51717,0.26264
2360.44564,0.26262
2362.37411,0.25969
2364.30258,0.26112
2366.23104,0.25088
2368.15951,0.23434
2370.08798,0.22443
2372.01645,0.22267
2373.94492,0.22202
2375.87339,0.21538
2377.80186,0.20532
2379.73033,0.19996
2381.65879,0.19890
2383.58726,0.19651
2385.51573,0.19315
2387.44420,0.19111
2389.37267,0.19015
2391.30114,0.19045
2393.22961,0.19149
2395.15807,0.19193
2397.08654,0.19149
2399.01501,0.19031
2400.94348,0.18973
2402.87195,0.19023
2404.80042,0.19024
2406.72889,0.19026
2408.65736,0.19080
2410.58582,0.18984
2412.51429,0.18816
2414.44276,0.18812
2416.37123,0.18862
2418.29970,0.18799
2420.22817,0.18874
2422.15664,0.19220
2424.08510,0.19383
2426.01357,0.19226
2427.94204,0.19021
2429.87051,0.18874
2431.79898,0.18989
2433.72745,0.19280
2435.65592,0.19265
2437.58439,0.18936
2439.51285,0.18683
2441.44132,0.18655
2443.36979,0.18800
2445.29826,0.19041
2447.22673,0.19327
2449.15520,0.19669
2451.08367,0.19786
2453.01213,0.19441
2454.94060,0.19092
2456.86907,0.19120
2458.79754,0.19209
2460.72601,0.19057
2462.65448,0.18906
2464.58295,0.18913
2466.51142,0.18853
2468.43988,0.18706
2470.36835,0.18725
2472.29682,0.18995
2474.22529,0.19335
2476.15376,0.19473
2478.08223,0.19273
2480.01070,0.18969
2481.93916,0.18890
2483.86763,0.19082
2485.79610,0.19328
2487.72457,0.19381
2489.65304,0.19267
2491.58151,0.19056
2493.50998,0.18917
2495.43844,0.19148
2497.36691,0.19512
2499.29538,0.19587
2501.22385,0.19378
2503.15232,0.19160
2505.08079,0.19123
2507.00926,0.19073
2508.93773,0.18966
2510.86619,0.19139
2512.79466,0.19485
2514.72313,0.19613
2516.65160,0.19521
2518.58007,0.19436
2520.50854,0.19485
2522.43701,0.19518
2524.36547,0.19489
2526.29394,0.19615
2528.22241,0.19755
2530.15088,0.19566
2532.07935,0.19260
2534.00782,0.19286
2535.93629,0.19452
2537.86476,0.19443
2539.79322,0.19403
2541.72169,0.19346
2543.65016,0.19273
2545.57863,0.19264
2547.50710,0.19234
2549.43557,0.19242
2551.36404,0.19332
2553.29250,0.19409
2555.22097,0.19466
2557.14944,0.19467
2559.07791,0.19430
2561.00638,0.19417
2562.93485,0.19335
2564.86332,0.19153
2566.79179,0.19022
2568.72025,0.19031
2570.64872,0.19083
2572.57719,0.19101
2574.50566,0.19236
2576.43413,0.19474
2578.36260,0.19522
2580.29107,0.19397
2582.21953,0.19389
2584.14800,0.19487
2586.07647,0.19513
2588.00494,0.19457
2589.93341,0.19416
2591.86188,0.19476
2593.79035,0.19425
2595.71882,0.19143
2597.64728,0.19011
2599.57575,0.19151
2601.50422,0.19324
2603.43269,0.19518
2605.36116,0.19755
2607.28963,0.19863
2609.21810,0.19812
2611.14656,0.19799
2613.07503,0.19791
2615.00350,0.19607
2616.93197,0.19363
2618.86044,0.19320
2620.78891,0.19438
2622.71738,0.19459
2624.64585,0.19431
2626.57431,0.19543
2628.50278,0.19653
2630.43125,0.19625
2632.35972,0.19539
2634.28819,0.19527
2636.21666,0.19729
2638.14513,0.19908
2640.07359,0.19766
2642.00206,0.19497
2643.93053,0.19342
2645.85900,0.19386
2647.78747,0.19558
2649.71594,0.19653
2651.64441,0.19672
2653.57288,0.19633
2655.50134,0.19574
2657.42981,0.19826
2659.35828,0.20320
2661.28675,0.20441
2663.21522,0.20149
2665.14369,0.19893
2667.07216,0.19794
2669.00062,0.19753
2670.92909,0.19683
2672.85756,0.19630
2674.78603,0.19689
2676.71450,0.19775
2678.64297,0.19726
2680.57144,0.19561
2682.49990,0.19439
2684.42837,0.19404
2686.35684,0.19383
2688.28531,0.19362
2690.21378,0.19342
2692.14225,0.19408
2694.07072,0.19695
2695.99919,0.20069
2697.92765,0.20282
2699.85612,0.20315
2701.78459,0.20241
2703.71306,0.20069
2705.64153,0.19912
2707.57000,0.19961
2709.49847,0.20046
2711.42693,0.19956
2713.35540,0.19940
2715.28387,0.20055
2717.21234,0.20089
2719.14081,0.20046
2721.06928,0.19958
2722.99775,0.19813
2724.92622,0.19750
2726.85468,0.19928
2728.78315,0.20250
2730.71162,0.20533
2732.64009,0.20751
2734.56856,0.20780
2736.49703,0.20537
2738.42550,0.20286
2740.35396,0.20147
2742.28243,0.19947
2744.21090,0.19802
2746.13937,0.20014
2748.06784,0.20457
2749.99631,0.20661
2751.92478,0.20577
2753.85325,0.20593
2755.78171,0.20723
2757.71018,0.20866
2759.63865,0.21164
2761.56712,0.21371
2763.49559,0.21061
2765.42406,0.20495
2767.35253,0.20273
2769.28099,0.20389
2771.20946,0.20550
2773.13793,0.20734
2775.06640,0.20838
2776.99487,0.20683
2778.92334,0.20466
2780.85181,0.20490
2782.78028,0.20637
2784.70874,0.20571
2786.63721,0.20402
2788.56568,0.20593
2790.49415,0.20912
2792.42262,0.20856
2794.35109,0.20741
2796.27956,0.20883
2798.20802,0.21052
2800.13649,0.21097
2802.06496,0.21136
2803.99343,0.21203
2805.92190,0.21232
2807.85037,0.21205
2809.77884,0.21074
2811.70731,0.20860
2813.63577,0.20681
2815.56424,0.20643
2817.49271,0.20623
2819.42118,0.20499
2821.34965,0.20461
2823.27812,0.20517
2825.20659,0.20463
2827.13505,0.20362
2829.06352,0.20468
2830.99199,0.20740
2832.92046,0.20871
2834.84893,0.21006
2836.77740,0.21332
2838.70587,0.21465
2840.63433,0.21290
2842.56280,0.21139
2844.49127,0.21099
2846.41974,0.20996
2848.34821,0.20768
2850.27668,0.20643
2852.20515,0.20665
2854.13362,0.20652
2856.06208,0.20703
2857.99055,0.20749
2859.91902,0.20569
2861.84749,0.20387
2863.77596,0.20344
2865.70443,0.20328
2867.63290,0.20591
2869.56136,0.21210
2871.48983,0.21545
2873.41830,0.21224
2875.34677,0.20828
2877.27524,0.20826
2879.20371,0.20873
2881.13218,0.20766
2883.06065,0.20541
2884.98911,0.20349
2886.91758,0.20675
2888.84605,0.21325
2890.77452,0.21521
2892.70299,0.20930
2894.63146,0.19929
2896.55993,0.19623
2898.48839,0.20429
2900.41686,0.21301
2902.34533,0.21307
2904.27380,0.20606
2906.20227,0.20012
2908.13074,0.20068
2910.05921,0.20452
2911.98768,0.20507
2913.91614,0.19924
2915.84461,0.19197
2917.77308,0.19317
2919.70155,0.20095
2921.63002,0.20674
2923.55849,0.20775
2925.48696,0.19918
2927.41542,0.18920
2929.34389,0.19346
2931.27236,0.20324
2933.20083,0.20576
2935.12930,0.19948
2937.05777,0.18934
2938.98624,0.19129
2940.91471,0.20497
2942.84317,0.21249
2944.77164,0.20705
2946.70011,0.19534
2948.62858,0.19476
2950.55705,0.20739
2952.48552,0.21405
2954.41399,0.20587
2956.34245,0.18529
2958.27092,0.17077
2960.19939,0.17990
2962.12786,0.19786
2964.05633,0.20569
2965.98480,0.20098
2967.91327,0.19313
2969.84174,0.19651
2971.77020,0.20711
2973.69867,0.21202
2975.62714,0.20568
2977.55561,0.19248
2979.48408,0.19101
2981.41255,0.20345
2983.34102,0.21209
2985.26948,0.21008
2987.19795,0.20160
2989.12642,0.19918
2991.05489,0.20782
2992.98336,0.21402
2994.91183,0.21214
2996.84030,0.20776
2998.76877,0.20437
3000.69723,0.20436
3002.62570,0.20687
3004.55417,0.20947
3006.48264,0.20980
3008.41111,0.20221
3010.33958,0.18198
3012.26805,0.14889
3014.19651,0.10785
3016.12498,0.08071
3018.05345,0.10059
3019.98192,0.15635
3021.91039,0.19762
3023.83886,0.21084
3025.76733,0.21266
3027.69579,0.20976
3029.62426,0.20750
3031.55273,0.21236
3033.48120,0.21932
3035.40967,0.21790
3037.33814,0.21046
3039.26661,0.20806
3041.19508,0.21014
3043.12354,0.21095
3045.05201,0.20877
3046.98048,0.20239
3048.90895,0.20046
3050.83742,0.20690
3052.76589,0.21052
3054.69436,0.20368
3056.62282,0.19251
3058.55129,0.19372
3060.47976,0.20544
3062.40823,0.21176
3064.33670,0.20608
3066.26517,0.19347
3068.19364,0.19237
3070.12211,0.20469
3072.05057,0.21233
3073.97904,0.20490
3075.90751,0.19228
3077.83598,0.19412
3079.76445,0.20622
3081.69292,0.20957
3083.62139,0.19614
3085.54985,0.18036
3087.47832,0.18472
3089.40679,0.19919
3091.33526,0.20052
3093.26373,0.19039
3095.19220,0.18949
3097.12067,0.20374
3099.04914,0.21350
3100.97760,0.20829
3102.90607,0.19494
3104.83454,0.18947
3106.76301,0.20022
3108.69148,0.21265
3110.61995,0.20895
3112.54842,0.19267
3114.47688,0.18729
3116.40535,0.19741
3118.33382,0.20445
3120.26229,0.20014
3122.19076,0.19530
3124.11923,0.20294
3126.04770,0.21646
3127.97617,0.21957
3129.90463,0.20847
3131.83310,0.19996
3133.76157,0.20642
3135.69004,0.21340
3137.61851,0.20943
3139.54698,0.20524
3141.47545,0.21095
3143.40391,0.21839
3145.33238,0.21699
3147.26085,0.20820
3149.18932,0.20244
3151.11779,0.20727
3153.04626,0.21667
3154.97473,0.22218
3156.90320,0.22350
3158.83166,0.22482
3160.76013,0.22735
3162.68860,0.22769
3164.61707,0.22512
3166.54554,0.22422
3168.47401,0.22640
3170.40248,0.22685
3172.33094,0.22432
3174.25941,0.22263
3176.18788,0.22207
3178.11635,0.22098
3180.04482,0.22120
3181.97329,0.22343
3183.90176,0.22536
3185.83022,0.22402
3187.75869,0.22036
3189.68716,0.21926
3191.61563,0.22122
3193.54410,0.22474
3195.47257,0.22715
3197.40104,0.22524
3199.32951,0.22125
3201.25797,0.21880
3203.18644,0.21812
3205.11491,0.21633
3207.04338,0.21071
3208.97185,0.20524
3210.90032,0.20711
3212.82879,0.21462
3214.75725,0.21955
3216.68572,0.21833
3218.61419,0.21487
3220.54266,0.21659
3222.47113,0.22335
3224.39960,0.22624
3226.32807,0.22379
3228.25654,0.22267
3230.18500,0.22340
3232.11347,0.22351
3234.04194,0.22536
3235.97041,0.22704
3237.89888,0.22407
3239.82735,0.22218
3241.75582,0.22484
3243.68428,0.22570
3245.61275,0.22167
3247.54122,0.21542
3249.46969,0.21202
3251.39816,0.21324
3253.32663,0.21344
3255.25510,0.20906
3257.18357,0.20622
3259.11203,0.20850
3261.04050,0.20984
3262.96897,0.20687
3264.89744,0.20358
3266.82591,0.20492
3268.75438,0.21011
3270.68285,0.21467
3272.61131,0.21586
3274.53978,0.21473
3276.46825,0.21497
3278.39672,0.21735
3280.32519,0.22031
3282.25366,0.22211
3284.18213,0.22319
3286.11060,0.22319
3288.03906,0.21876
3289.96753,0.21394
3291.89600,0.21391
3293.82447,0.21442
3295.75294,0.21216
3297.68141,0.20840
3299.60988,0.20806
3301.53834,0.21605
3303.46681,0.22468
3305.39528,0.22401
3307.32375,0.21682
3309.25222,0.20870
3311.18069,0.20367
3313.10916,0.20613
3315.03763,0.21462
3316.96609,0.22022
3318.89456,0.21841
3320.82303,0.21497
3322.75150,0.21555
3324.67997,0.21920
3326.60844,0.22127
3328.53691,0.22098
3330.46537,0.22067
3332.39384,0.21946
3334.32231,0.21614
3336.25078,0.21321
3338.17925,0.21447
3340.10772,0.21753
3342.03619,0.21751
3343.96466,0.21794
3345.89312,0.22303
3347.82159,0.22834
3349.75006,0.22792
3351.67853,0.22201
3353.60700,0.21819
3355.53547,0.21974
3357.46394,0.22134
3359.39240,0.22340
3361.32087,0.22697
3363.24934,0.22878
3365.17781,0.22912
3367.10628,0.22613
3369.03475,0.22215
3370.96322,0.22440
3372.89168,0.22753
3374.82015,0.22233
3376.74862,0.21384
3378.67709,0.20979
3380.60556,0.21105
3382.53403,0.21604
3384.46250,0.21828
3386.39097,0.21597
3388.31943,0.21421
3390.24790,0.21435
3392.17637,0.21642
3394.10484,0.21846
3396.03331,0.21889
3397.96178,0.21708
3399.89025,0.21284
3401.81871,0.21086
3403.74718,0.21412
3405.67565,0.21868
3407.60412,0.21901
3409.53259,0.21511
3411.46106,0.21275
3413.38953,0.21466
3415.31800,0.21568
3417.24646,0.21402
3419.17493,0.21301
3421.10340,0.21062
3423.03187,0.20614
3424.96034,0.20327
3426.88881,0.20503
3428.81728,0.21097
3430.74574,0.21403
3432.67421,0.20975
3434.60268,0.20334
3436.53115,0.20376
3438.45962,0.21120
3440.38809,0.21631
3442.31656,0.21621
3444.24503,0.21458
3446.17349,0.21423
3448.10196,0.21735
3450.03043,0.21917
3451.95890,0.21523
3453.88737,0.20915
3455.81584,0.20336
3457.74431,0.19743
3459.67277,0.19294
3461.60124,0.19046
3463.52971,0.18948
3465.45818,0.19287
3467.38665,0.19920
3469.31512,0.20409
3471.24359,0.20726
3473.17206,0.20558
3475.10052,0.20134
3477.02899,0.20151
3478.95746,0.20203
3480.88593,0.19922
3482.81440,0.19737
3484.74287,0.19660
3486.67134,0.19405
3488.59980,0.19325
3490.52827,0.19657
3492.45674,0.19806
3494.38521,0.19453
3496.31368,0.19063
3498.24215,0.18946
3500.17062,0.19022
3502.09909,0.19237
3504.02755,0.19306
3505.95602,0.19326
3507.88449,0.19664
3509.81296,0.19628
3511.74143,0.18852
3513.66990,0.18407
3515.59837,0.18596
3517.52683,0.18542
3519.45530,0.18062
3521.38377,0.17897
3523.31224,0.18048
3525.24071,0.18091
3527.16918,0.18133
3529.09765,0.18086
3531.02611,0.18036
3532.95458,0.18181
3534.88305,0.18373
3536.81152,0.18344
3538.73999,0.17812
3540.66846,0.17206
3542.59693,0.17160
3544.52540,0.17602
3546.45386,0.17848
3548.38233,0.17547
3550.31080,0.17008
3552.23927,0.16430
3554.16774,0.16176
3556.09621,0.16268
3558.02468,0.16397
3559.95314,0.16724
3561.88161,0.17263
3563.81008,0.17766
3565.73855,0.18159
3567.66702,0.18016
3569.59549,0.17245
3571.52396,0.16622
3573.45243,0.16368
3575.38089,0.16313
3577.30936,0.16183
3579.23783,0.15776
3581.16630,0.15434
3583.09477,0.15668
3585.02324,0.16405
3586.95171,0.17119
3588.88017,0.17195
3590.80864,0.17018
3592.73711,0.17129
3594.66558,0.17051
3596.59405,0.16675
3598.52252,0.16749
3600.45099,0.16741
3602.37946,0.15992
3604.30792,0.15356
3606.23639,0.15678
3608.16486,0.16668
3610.09333,0.17207
3612.02180,0.16984
3613.95027,0.16362
3615.87874,0.16149
3617.80720,0.16558
3619.73567,0.16391
3621.66414,0.15515
3623.59261,0.15125
3625.52108,0.15379
3627.44955,0.16235
3629.37802,0.16559
3631.30649,0.15327
3633.23495,0.14469
3635.16342,0.14302
3637.09189,0.14208
3639.02036,0.14004
3640.94883,0.13816
3642.87730,0.14060
3644.80577,0.15085
3646.73423,0.16965
3648.66270,0.18846
3650.59117,0.17876
3652.51964,0.15785
3654.44811,0.15010
3656.37658,0.14824
3658.30505,0.14089
3660.23352,0.13366
3662.16198,0.13141
3664.09045,0.13291
3666.01892,0.13729
3667.94739,0.14343
3669.87586,0.14667
3671.80433,0.14392
3673.73280,0.14499
3675.66126,0.15097
3677.58973,0.14845
3679.51820,0.14167
3681.44667,0.13951
3683.37514,0.14102
3685.30361,0.14107
3687.23208,0.14324
3689.16055,0.15415
3691.08901,0.15585
3693.01748,0.14479
3694.94595,0.13629
3696.87442,0.13201
3698.80289,0.13217
3700.73136,0.13587
3702.65983,0.13662
3704.58829,0.13479
3706.51676,0.13767
3708.44523,0.14590
3710.37370,0.15095
3712.30217,0.14414
3714.23064,0.13500
3716.15911,0.13029
3718.08757,0.12863
3720.01604,0.13014
3721.94451,0.13658
3723.87298,0.14486
3725.80145,0.14702
3727.72992,0.14529
3729.65839,0.14781
3731.58686,0.15507
3733.51532,0.16389
3735.44379,0.16792
3737.37226,0.15898
3739.30073,0.14775
3741.22920,0.14605
3743.15767,0.15279
3745.08614,0.15597
3747.01460,0.15413
3748.94307,0.15970
3750.87154,0.16441
3752.80001,0.15510
3754.72848,0.14531
3756.65695,0.13960
3758.58542,0.13350
3760.51389,0.12518
3762.44235,0.11996
3764.37082,0.11990
3766.29929,0.12299
3768.22776,0.12679
3770.15623,0.12822
3772.08470,0.12525
3774.01317,0.12048
3775.94163,0.11889
3777.87010,0.12406
3779.79857,0.12970
3781.72704,0.12864
3783.65551,0.12692
3785.58398,0.12720
3787.51245,0.12709
3789.44092,0.12512
3791.36938,0.12227
3793.29785,0.12208
3795.22632,0.12365
3797.15479,0.12582
3799.08326,0.13373
3801.01173,0.14488
3802.94020,0.14276
3804.86866,0.13406
3806.79713,0.13112
3808.72560,0.12846
3810.65407,0.12308
3812.58254,0.12025
3814.51101,0.12325
3816.43948,0.13201
3818.36795,0.14084
3820.29641,0.14205
3822.22488,0.13297
3824.15335,0.12862
3826.08182,0.12884
3828.01029,0.12481
3829.93876,0.12036
3831.86723,0.12277
3833.79569,0.13250
3835.72416,0.14492
3837.65263,0.15165
3839.58110,0.14592
3841.50957,0.13695
3843.43804,0.13132
3845.36651,0.12753
3847.29498,0.12625
3849.22344,0.13027
3851.15191,0.14230
3853.08038,0.15467
3855.00885,0.14218
3856.93732,0.12694
3858.86579,0.12130
3860.79426,0.12018
3862.72272,0.12115
3864.65119,0.12492
3866.57966,0.13199
3868.50813,0.14063
3870.43660,0.14136
3872.36507,0.12951
3874.29354,0.12038
3876.22200,0.11820
3878.15047,0.11869
3880.07894,0.12123
3882.00741,0.12237
3883.93588,0.12190
3885.86435,0.12047
3887.79282,0.11743
3889.72129,0.11980
3891.64975,0.12915
3893.57822,0.13338
3895.50669,0.13204
3897.43516,0.13312
3899.36363,0.13310
3901.29210,0.13205
3903.22057,0.13610
3905.14903,0.13198
3907.07750,0.11796
3909.00597,0.10712
3910.93444,0.10301
3912.86291,0.10654
3914.79138,0.11393
3916.71985,0.11711
3918.64832,0.11554
3920.57678,0.11289
3922.50525,0.10845
3924.43372,0.10267
3926.36219,0.09995
3928.29066,0.10277
3930.21913,0.10676
3932.14760,0.10799
3934.07606,0.10655
3936.00453,0.10399
3937.93300,0.10363
3939.86147,0.10564
3941.78994,0.10840
3943.71841,0.11113
3945.64688,0.11114
3947.57535,0.10910
3949.50381,0.10852
3951.43228,0.10808
3953.36075,0.10556
3955.28922,0.10471
3957.21769,0.10573
3959.14616,0.10468
3961.07463,0.10361
3963.00309,0.10547
3964.93156,0.10823
3966.86003,0.10783
3968.78850,0.10594
3970.71697,0.10736
3972.64544,0.10902
3974.57391,0.10896
3976.50238,0.10950
3978.43084,0.10702
3980.35931,0.10180
3982.28778,0.09929
3984.21625,0.09734
3986.14472,0.09360
3988.07319,0.09102
3990.00166,0.09157
3991.93012,0.09470
3993.85859,0.09777
3995.78706,0.09958
3997.71553,0.10193
3999.64400,0.10560
4001.57247,0.10708
4003.50094,0.10535
4005.42941,0.10431
4007.35787,0.10178
4009.28634,0.09337
4011.21481,0.08465
4013.14328,0.08483
4015.07175,0.09346
4017.00022,0.09990
4018.92869,0.09657
4020.85715,0.08793
4022.78562,0.08285
4024.71409,0.08571
4026.64256,0.09265
4028.57103,0.09433
4030.49950,0.09074
4032.42797,0.08880
4034.35644,0.08862
4036.28490,0.08847
4038.21337,0.08974
4040.14184,0.09252
4042.07031,0.09607
4043.99878,0.10004
4045.92725,0.10313
4047.85572,0.10239
4049.78418,0.09676
4051.71265,0.09125
4053.64112,0.08958
4055.56959,0.08907
4057.49806,0.08850
4059.42653,0.08970
4061.35500,0.09186
4063.28346,0.09383
4065.21193,0.09530
4067.14040,0.09444
4069.06887,0.09309
4070.99734,0.09331
4072.92581,0.09245
4074.85428,0.09174
4076.78275,0.09253
4078.71121,0.09138
4080.63968,0.08968
4082.56815,0.09048
4084.49662,0.09156
4086.42509,0.09084
4088.35356,0.08868
4090.28203,0.08589
4092.21049,0.08377
4094.13896,0.08293
4096.06743,0.08157
4097.99590,0.07916
4099.92437,0.07895
4101.85284,0.08128
4103.78131,0.08159
4105.70978,0.07858
4107.63824,0.07548
4109.56671,0.07412
4111.49518,0.07503
4113.42365,0.07914
4115.35212,0.08222
4117.28059,0.07849
4119.20906,0.07477
4121.13752,0.07795
4123.06599,0.07968
4124.99446,0.07375
4126.92293,0.06655
4128.85140,0.06692
4130.77987,0.07533
4132.70834,0.08398
4134.63681,0.08472
4136.56527,0.07866
4138.49374,0.07650
4140.42221,0.08072
4142.35068,0.08573
4144.27915,0.08822
4146.20762,0.08447
4148.13609,0.07507
4150.06455,0.06734
4151.99302,0.06724
4153.92149,0.07304
4155.84996,0.08115
4157.77843,0.08681
4159.70690,0.08364
4161.63537,0.07631
4163.56384,0.06968
4165.49230,0.06287
4167.42077,0.05936
4169.34924,0.06007
4171.27771,0.06153
4173.20618,0.06328
4175.13465,0.06720
4177.06312,0.07228
4178.99158,0.07479
4180.92005,0.07327
4182.84852,0.07048
4184.77699,0.06955
4186.70546,0.06960
4188.63393,0.06813
4190.56240,0.06459
4192.49087,0.06142
4194.41933,0.06259
4196.34780,0.06757
4198.27627,0.07077
4200.20474,0.07019
4202.13321,0.06893
4204.06168,0.06740
4205.99015,0.06463
4207.91861,0.06210
4209.84708,0.05804
4211.77555,0.05336
4213.70402,0.05529
4215.63249,0.06001
4217.56096,0.06071
4219.48943,0.06172
4221.41789,0.06480
4223.34636,0.06446
4225.27483,0.05828
4227.20330,0.05172
4229.13177,0.04949
4231.06024,0.05234
4232.98871,0.05752
4234.91718,0.06018
4236.84564,0.06074
4238.77411,0.06011
4240.70258,0.05834
4242.63105,0.05833
4244.55952,0.06116
4246.48799,0.06110
4248.41646,0.05403
4250.34492,0.04773
4252.27339,0.04951
4254.20186,0.05531
4256.13033,0.05845
4258.05880,0.06131
4259.98727,0.06383
4261.91574,0.05684
4263.84421,0.04328
4265.77267,0.03589
4267.70114,0.03813
4269.62961,0.04256
4271.55808,0.04481
4273.48655,0.04604
4275.41502,0.04497
4277.34349,0.04499
4279.27195,0.04841
4281.20042,0.04948
4283.12889,0.04641
4285.05736,0.04198
4286.98583,0.03834
4288.91430,0.03842
4290.84277,0.04223
4292.77124,0.04564
4294.69970,0.04440
4296.62817,0.03894
4298.55664,0.03780
4300.48511,0.04119
4302.41358,0.04037
4304.34205,0.03610
4306.27052,0.03501
4308.19898,0.04011
4310.12745,0.04261
4312.05592,0.03694
4313.98439,0.03304
4315.91286,0.03261
4317.84133,0.03013
4319.76980,0.02794
4321.69827,0.02594
4323.62673,0.02405
4325.55520,0.02837
4327.48367,0.03615
4329.41214,0.03952
4331.34061,0.03856
4333.26908,0.03545
4335.19755,0.03257
4337.12601,0.03291
4339.05448,0.03463
4340.98295,0.03605
4342.91142,0.04090
4344.83989,0.04470
4346.76836,0.03934
4348.69683,0.03027
4350.62530,0.02355
4352.55376,0.01810
4354.48223,0.01354
4356.41070,0.01249
4358.33917,0.01555
4360.26764,0.01945
4362.19611,0.02425
4364.12458,0.02868
4366.05304,0.02972
4367.98151,0.02983
4369.90998,0.02914
4371.83845,0.02633
4373.76692,0.02234
4375.69539,0.01946
4377.62386,0.01951
4379.55232,0.01921
4381.48079,0.01869
4383.40926,0.01934
4385.33773,0.01908
4387.26620,0.01676
4389.19467,0.01201
4391.12314,0.01015
4393.05161,0.01274
4394.98007,0.01323
4396.90854,0.01255
4398.83701,0.01461
4400.76548,0.01725
4402.69395,0.01951
4404.62242,0.02115
4406.55089,0.02168
4408.47935,0.02187
4410.40782,0.01890
4412.33629,0.01241
4414.26476,0.00631
4416.19323,0.00341
4418.12170,0.00531
4420.05017,0.00880
4421.97864,0.00896
4423.90710,0.00854
4425.83557,0.01436
4427.76404,0.02333
4429.69251,0.02463
4431.62098,0.01613
4433.54945,0.00725
4435.47792,0.00660
4437.40638,0.01014
4439.33485,0.01150
4441.26332,0.01324
4443.19179,0.01659
4445.12026,0.01836
4447.04873,0.01484
4448.97720,0.00621
4450.90567,0.00053
4452.83413,0.00213
4454.76260,0.00545
4456.69107,0.00509
4458.61954,0.00500
4460.54801,0.01123
4462.47648,0.01782
4464.40495,0.01605
4466.33341,0.00765
4468.26188,0.00066
4470.19035,0.00013
4472.11882,0.00546
4474.04729,0.01157
4475.97576,0.01357
4477.90423,0.01178
4479.83270,0.00696
4481.76116,0.00226
4483.68963,0.00129
4485.61810,0.00243
4487.54657,0.00439
4489.47504,0.00504
4491.40351,0.00123
4493.33198,-0.00540
4495.26044,-0.00800
4497.18891,-0.00007
4499.11738,0.01439
4501.04585,0.02283
4502.97432,0.02046
4504.90279,0.01449
4506.83126,0.01310
4508.75973,0.01364
4510.68819,0.01054
4512.61666,0.00838
4514.54513,0.00819
4516.47360,0.00326
4518.40207,-0.00402
4520.33054,-0.00708
4522.25901,-0.00590
4524.18747,-0.00379
4526.11594,-0.00148
4528.04441,0.00138
4529.97288,0.00304
4531.90135,0.00428
4533.82982,0.00634
4535.75829,0.00760
4537.68676,0.00692
4539.61522,0.00411
4541.54369,0.00156
4543.47216,0.00018
4545.40063,-0.00079
4547.32910,0.00082
4549.25757,0.00251
4551.18604,0.00250
4553.11450,0.00560
4555.04297,0.01028
4556.97144,0.01044
4558.89991,0.00777
4560.82838,0.00594
4562.75685,0.00254
4564.68532,-0.00187
4566.61378,-0.00516
4568.54225,-0.01050
4570.47072,-0.01531
4572.39919,-0.01043
4574.32766,0.00450
4576.25613,0.01796
4578.18460,0.02250
4580.11307,0.02109
4582.04153,0.01571
4583.97000,0.00662
4585.89847,0.00143
4587.82694,0.00571
4589.75541,0.00951
4591.68388,0.00537
4593.61235,0.00374
4595.54081,0.01111
4597.46928,0.01706
4599.39775,0.01327
4601.32622,0.00630
4603.25469,0.00185
4605.18316,-0.00253
4607.11163,-0.00543
4609.04010,-0.00281
4610.96856,-0.00256
4612.89703,-0.00888
4614.82550,-0.01167
4616.75397,-0.00674
4618.68244,-0.00178
4620.61091,-0.00293
4622.53938,-0.00636
4624.46784,-0.00583
4626.39631,-0.00207
4628.32478,0.00124
4630.25325,0.00286
4632.18172,0.00532
4634.11019,0.00991
4636.03866,0.00796
4637.96713,-0.00284
4639.89559,-0.00893
4641.82406,-0.00358
4643.75253,0.00071
4645.68100,-0.00415
4647.60947,-0.00739
4649.53794,-0.00515
4651.46641,-0.00337
4653.39487,0.00037
4655.32334,0.00953
4657.25181,0.02116
4659.18028,0.03003
4661.10875,0.02843
4663.03722,0.01430
4664.96569,0.00648
4666.89416,0.01118
4668.82262,0.00997
4670.75109,0.00729
4672.67956,0.01058
4674.60803,0.00716
4676.53650,0.00330
4678.46497,0.00570
4680.39344,0.00556
4682.32190,0.00483
4684.25037,0.00519
4686.17884,0.00392
4688.10731,-0.00173
4690.03578,-0.01122
4691.96425,-0.01436
4693.89272,-0.00590
4695.82119,0.00753
4697.74965,0.01312
4699.67812,0.00700
4701.60659,0.00132
4703.53506,0.00158
4705.46353,0.00218
4707.39200,0.00260
4709.32047,0.00157
4711.24893,-0.00613
4713.17740,-0.01618
4715.10587,-0.01786
4717.03434,-0.00882
4718.96281,0.00177
4720.89128,0.00270
4722.81975,-0.00558
4724.74821,-0.01093
4726.67668,-0.00898
4728.60515,-0.00520
4730.53362,-0.00009
4732.46209,0.00377
4734.39056,0.00337
4736.31903,0.00551
4738.24750,0.01068
4740.17596,0.01224
4742.10443,0.01124
4744.03290,0.01142
4745.96137,0.01408
4747.88984,0.01783
4749.81831,0.01445
4751.74678,0.00296
4753.67524,-0.00037
4755.60371,0.00851
4757.53218,0.01413
4759.46065,0.01025
4761.38912,0.00294
4763.31759,-0.00148
4765.24606,0.00043
4767.17453,0.00922
4769.10299,0.01708
4771.03146,0.01704
4772.95993,0.01407
4774.88840,0.00978
4776.81687,0.00066
4778.74534,-0.01021
4780.67381,-0.01497
4782.60227,-0.01161
4784.53074,-0.00328
4786.45921,0.01105
4788.38768,0.02241
4790.31615,0.01958
4792.24462,0.01247
4794.17309,0.00703
4796.10156,-0.00003
4798.03002,0.00170
4799.95849,0.01211
4801.88696,0.01673
4803.81543,0.01158
4805.74390,0.00318
4807.67237,-0.00024
4809.60084,0.00312
4811.52930,0.00646
4813.45777,0.00435
4815.38624,-0.00026
4817.31471,-0.00379
4819.24318,-0.00529
4821.17165,0.00095
4823.10012,0.01052
4825.02859,0.01313
4826.95705,0.00406
4828.88552,-0.00702
4830.81399,-0.00562
4832.74246,0.00515
4834.67093,0.00982
4836.59940,-0.00092
4838.52787,-0.01289
4840.45633,-0.01460
4842.38480,-0.00842
4844.31327,0.00087
4846.24174,0.00513
4848.17021,0.00525
4850.09868,0.00559
4852.02715,0.00353
4853.95562,0.00410
4855.88408,0.01097
4857.81255,0.01465
4859.74102,0.00765
4861.66949,-0.00008
4863.59796,0.00291
4865.52643,0.00997
4867.45490,0.00838
4869.38336,-0.00096
4871.31183,-0.00192
4873.24030,0.01178
4875.16877,0.02291
4877.09724,0.02674
4879.02571,0.03282
4880.95418,0.03033
4882.88265,0.01345
4884.81111,0.00125
4886.73958,-0.00264
4888.66805,-0.00865
4890.59652,-0.00878
4892.52499,-0.00172
4894.45346,0.00346
4896.38193,0.01317
4898.31039,0.01933
4900.23886,0.00888
4902.16733,0.00056
4904.09580,0.00429
4906.02427,0.00380
4907.95274,-0.00046
4909.88121,0.00298
4911.80967,0.00761
4913.73814,0.00472
4915.66661,0.00022
4917.59508,0.00386
4919.52355,0.01060
4921.45202,0.00897
4923.38049,0.00601
4925.30896,0.01135
4927.23742,0.02085
4929.16589,0.02506
4931.09436,0.01790
4933.02283,0.00566
4934.95130,-0.00223
4936.87977,-0.00015
4938.80824,0.01031
4940.73670,0.01358
4942.66517,0.00232
4944.59364,-0.01080
4946.52211,-0.01222
4948.45058,-0.00072
4950.37905,0.01400
4952.30752,0.02007
4954.23599,0.01245
4956.16445,-0.00253
4958.09292,-0.01342
4960.02139,-0.01330
4961.94986,-0.00364
4963.87833,0.00732
4965.80680,0.01544
4967.73527,0.01621
4969.66373,0.00600
4971.59220,-0.00435
4973.52067,-0.00176
4975.44914,0.00427
4977.37761,0.00402
4979.30608,-0.00139
4981.23455,-0.00847
4983.16302,-0.00730
4985.09148,-0.00037
4987.01995,0.00405
4988.94842,0.00781
4990.87689,0.00750
4992.80536,-0.00089
4994.73383,-0.00372
4996.66230,0.01030
4998.59076,0.02384
5000.51923,0.01959
5002.44770,0.00832
5004.37617,0.00214
5006.30464,0.00152
5008.23311,0.00696
5010.16158,0.01524
5012.09005,0.01810
5014.01851,0.00710
5015.94698,-0.01055
5017.87545,-0.01396
5019.80392,-0.00798
5021.73239,-0.00421
5023.66086,-0.00840
5025.58933,-0.01869
5027.51779,-0.01396
5029.44626,-0.00034
5031.37473,0.00350
5033.30320,0.00682
5035.23167,0.01466
5037.16014,0.01565
5039.08861,0.00916
5041.01708,0.00448
5042.94554,0.00811
5044.87401,0.01702
5046.80248,0.01857
5048.73095,0.00797
5050.65942,-0.00006
5052.58789,0.00484
5054.51636,0.00707
5056.44482,0.00092
5058.37329,-0.00716
5060.30176,-0.02294
5062.23023,-0.03359
5064.15870,-0.02845
5066.08717,-0.02482
5068.01564,-0.02205
5069.94410,-0.00791
5071.87257,0.00928
5073.80104,0.01488
5075.72951,0.00455
5077.65798,-0.00602
5079.58645,-0.00110
5081.51492,0.01312
5083.44339,0.02694
5085.37185,0.03491
5087.30032,0.03370
5089.22879,0.02544
5091.15726,0.01963
5093.08573,0.02207
5095.01420,0.02071
5096.94267,0.00828
5098.87113,0.00085
5100.79960,0.00907
5102.72807,0.01727
5104.65654,0.00979
5106.58501,-0.00741
5108.51348,-0.01265
5110.44195,0.00025
5112.37042,0.00965
5114.29888,0.00764
5116.22735,0.00307
5118.15582,-0.00214
5120.08429,-0.00729
5122.01276,-0.01307
5123.94123,-0.01451
5125.86970,-0.00971
5127.79816,-0.00322
5129.72663,0.01085
5131.65510,0.03076
5133.58357,0.03724
5135.51204,0.02546
5137.44051,0.01970
5139.36898,0.02490
5141.29745,0.02328
5143.22591,0.02284
5145.15438,0.03552
5147.08285,0.05058
5149.01132,0.05343
5150.93979,0.04473
5152.86826,0.03432
5154.79673,0.02503
5156.72519,0.01388
5158.65366,0.00177
5160.58213,-0.00634
5162.51060,-0.00917
5164.43907,-0.00026
5166.36754,0.01888
5168.29601,0.02935
5170.22448,0.02244
5172.15294,0.00929
5174.08141,0.01017
5176.00988,0.02367
5177.93835,0.03119
5179.86682,0.03077
5181.79529,0.02568
5183.72376,0.01616
5185.65222,0.01561
5187.58069,0.02623
5189.50916,0.02786
5191.43763,0.02264
5193.36610,0.02367
5195.29457,0.02914
5197.22304,0.03904
5199.15151,0.04938
5201.07997,0.05038
5203.00844,0.04715
5204.93691,0.04737
5206.86538,0.04063
5208.79385,0.02850
5210.72232,0.02116
5212.65079,0.00995
5214.57925,0.00029
5216.50772,0.00326
5218.43619,0.01622
5220.36466,0.02715
5222.29313,0.02972
5224.22160,0.03253
5226.15007,0.03216
5228.07854,0.02581
5230.00700,0.02895
5231.93547,0.04193
5233.86394,0.04383
5235.79241,0.02870
5237.72088,0.01926
5239.64935,0.02449
5241.57782,0.03165
5243.50628,0.03605
5245.43475,0.03177
5247.36322,0.01615
5249.29169,0.00501
5251.22016,0.00221
5253.14863,0.00044
5255.07710,0.00696
5257.00556,0.02083
5258.93403,0.03272
5260.86250,0.04353
5262.79097,0.05793
5264.71944,0.06640
5266.64791,0.05354
5268.57638,0.03348
5270.50485,0.02126
5272.43331,0.01483
5274.36178,0.01501
5276.29025,0.01771
5278.21872,0.01761
5280.14719,0.01822
5282.07566,0.02113
5284.00413,0.03048
5285.93259,0.04204
5287.86106,0.04196
5289.78953,0.03973
5291.71800,0.04796
5293.64647,0.04633
5295.57494,0.02589
5297.50341,0.01247
5299.43188,0.01536
5301.36034,0.01546
5303.28881,0.01185
5305.21728,0.00630
5307.14575,-0.01344
5309.07422,-0.02618
5311.00269,-0.00597
5312.93116,0.01781
5314.85962,0.02312
5316.78809,0.02706
5318.71656,0.03372
5320.64503,0.03509
5322.57350,0.03493
5324.50197,0.04304
5326.43044,0.05570
5328.35891,0.05714
5330.28737,0.04933
5332.21584,0.03448
5334.14431,0.01779
5336.07278,0.00911
5338.00125,0.00336
5339.92972,0.00547
5341.85819,0.01543
5343.78665,0.02205
5345.71512,0.02480
5347.64359,0.02665
5349.57206,0.03337
5351.50053,0.04741
5353.42900,0.05452
5355.35747,0.04662
5357.28594,0.03868
5359.21440,0.03197
5361.14287,0.01825
5363.07134,0.00681
5364.99981,0.01156
5366.92828,0.03507
5368.85675,0.05804
5370.78522,0.05228
5372.71368,0.03929
5374.64215,0.05424
5376.57062,0.07618
5378.49909,0.07506
5380.42756,0.05177
5382.35603,0.02874
5384.28450,0.02904
5386.21297,0.03551
5388.14143,0.03094
5390.06990,0.02654
5391.99837,0.02436
5393.92684,0.02554
5395.85531,0.03508
5397.78378,0.05252
5399.71225,0.07510
5401.64071,0.08264
5403.56918,0.06135
5405.49765,0.04167
5407.42612,0.04334
5409.35459,0.05316
5411.28306,0.05575
5413.21153,0.04631
5415.13999,0.04846
5417.06846,0.05882
5418.99693,0.04635
5420.92540,0.02653
5422.85387,0.03748
5424.78234,0.05885
5426.71081,0.05895
5428.63928,0.05386
5430.56774,0.05276
5432.49621,0.05140
5434.42468,0.06039
5436.35315,0.07394
5438.28162,0.07047
5440.21009,0.04973
5442.13856,0.04324
5444.06702,0.06168
5445.99549,0.08410
5447.92396,0.10323
5449.85243,0.10114
5451.78090,0.08104
5453.70937,0.07811
5455.63784,0.08089
5457.56631,0.06288
5459.49477,0.04661
5461.42324,0.04836
5463.35171,0.05271
5465.28018,0.05669
5467.20865,0.06318
5469.13712,0.06332
5471.06559,0.06676
5472.99405,0.08302
5474.92252,0.10014
5476.85099,0.10860
5478.77946,0.09732
5480.70793,0.06798
5482.63640,0.05222
5484.56487,0.06274
5486.49334,0.07320
5488.42180,0.06838
5490.35027,0.05341
5492.27874,0.03413
5494.20721,0.02968
5496.13568,0.04881
5498.06415,0.06607
5499.99262,0.06544
5501.92108,0.06512
5503.84955,0.07339
5505.77802,0.08354
5507.70649,0.09661
5509.63496,0.09251
5511.56343,0.05925
5513.49190,0.02782
5515.42037,0.01834
5517.34883,0.01994
5519.27730,0.01849
5521.20577,0.01163
5523.13424,0.02349
5525.06271,0.06104
5526.99118,0.08653
5528.91965,0.07881
5530.84811,0.05532
5532.77658,0.03772
5534.70505,0.02981
5536.63352,0.03182
5538.56199,0.04860
5540.49046,0.07927
5542.41893,0.10814
5544.34740,0.11258
5546.27586,0.09902
5548.20433,0.08813
5550.13280,0.07920
5552.06127,0.06831
5553.98974,0.06054
5555.91821,0.06401
5557.84668,0.06038
5559.77514,0.03094
5561.70361,0.01136
5563.63208,0.01708
5565.56055,0.02728
5567.48902,0.04332
5569.41749,0.06206
5571.34596,0.07137
5573.27443,0.05952
5575.20289,0.03492
5577.13136,0.03497
5579.05983,0.04777
5580.98830,0.03316
5582.91677,0.01616
5584.84524,0.03044
5586.77371,0.05584
5588.70217,0.07424
5590.63064,0.08054
5592.55911,0.07429
5594.48758,0.07008
5596.41605,0.07212
5598.34452,0.06651
5600.27299,0.06058
5602.20145,0.07332
5604.12992,0.08874
5606.05839,0.07901
5607.98686,0.05781
5609.91533,0.04781
5611.84380,0.03482
5613.77227,0.02007
5615.70074,0.02892
5617.62920,0.05900
5619.55767,0.08705
5621.48614,0.09572
5623.41461,0.08605
5625.34308,0.06228
5627.27155,0.03005
5629.20002,0.00872
5631.12848,0.01027
5633.05695,0.02873
5634.98542,0.04988
5636.91389,0.05673
5638.84236,0.05106
5640.77083,0.05691
5642.69930,0.07363
5644.62777,0.07884
5646.55623,0.07636
5648.48470,0.07801
5650.41317,0.07964
5652.34164,0.08651
5654.27011,0.09499
5656.19858,0.09564
5658.12705,0.09482
5660.05551,0.08010
5661.98398,0.05791
5663.91245,0.05972
5665.84092,0.06413
5667.76939,0.05227
5669.69786,0.04087
5671.62633,0.03757
5673.55480,0.05453
5675.48326,0.08537
5677.41173,0.08947
5679.34020,0.07141
5681.26867,0.06647
5683.19714,0.06369
5685.12561,0.04905
5687.05408,0.03968
5688.98254,0.05388
5690.91101,0.09365
5692.83948,0.12699
5694.76795,0.12030
5696.69642,0.09345
5698.62489,0.08084
5700.55336,0.08392
5702.48183,0.09804
5704.41029,0.10550
5706.33876,0.07292
5708.26723,0.02781
5710.19570,0.03423
5712.12417,0.08080
5714.05264,0.11475
5715.98111,0.11077
5717.90957,0.07785
5719.83804,0.05497
5721.76651,0.05934
5723.69498,0.06621
5725.62345,0.05134
5727.55192,0.02753
5729.48039,0.01843
5731.40886,0.03073
5733.33732,0.05747
5735.26579,0.07340
5737.19426,0.07899
5739.12273,0.08754
5741.05120,0.08821
5742.97967,0.08105
5744.90814,0.06637
5746.83660,0.04806
5748.76507,0.04667
5750.69354,0.07069
5752.62201,0.09437
5754.55048,0.09191
5756.47895,0.06968
5758.40742,0.04254
5760.33588,0.01943
5762.26435,0.01526
5764.19282,0.04554
5766.12129,0.09361
5768.04976,0.11203
5769.97823,0.09356
5771.90670,0.08311
5773.83517,0.09659
5775.76363,0.09980
5777.69210,0.07123
5779.62057,0.04167
5781.54904,0.04980
5783.47751,0.07693
5785.40598,0.07869
5787.33445,0.05380
5789.26291,0.03963
5791.19138,0.04129
5793.11985,0.05190
5795.04832,0.06224
5796.97679,0.04293
5798.90526,0.03222
5800.83373,0.06670
5802.76220,0.09170
5804.69066,0.08322
5806.61913,0.06604
5808.54760,0.04259
5810.47607,0.03237
5812.40454,0.04716
5814.33301,0.06910
5816.26148,0.09576
5818.18994,0.11863
5820.11841,0.13235
5822.04688,0.13195
5823.97535,0.09579
5825.90382,0.05005
5827.83229,0.03511
5829.76076,0.03566
5831.68923,0.02750
5833.61769,0.03334
5835.54616,0.06727
5837.47463,0.10225
5839.40310,0.11358
5841.33157,0.08985
5843.26004,0.05396
5845.18851,0.04740
5847.11697,0.06162
5849.04544,0.06318
5850.97391,0.05933
5852.90238,0.06538
5854.83085,0.06935
5856.75932,0.07128
5858.68779,0.06938
5860.61626,0.05259
5862.54472,0.04705
5864.47319,0.07971
5866.40166,0.12707
5868.33013,0.14303
5870.25860,0.11699
5872.18707,0.09133
5874.11554,0.09269
5876.04400,0.10301
5877.97247,0.10531
5879.90094,0.10317
5881.82941,0.10428
5883.75788,0.10659
5885.68635,0.10160
5887.61482,0.08628
5889.54329,0.07182
5891.47175,0.07103
5893.40022,0.07903
5895.32869,0.08969
5897.25716,0.09918
5899.18563,0.10812
5901.11410,0.10735
5903.04257,0.08105
5904.97103,0.06453
5906.89950,0.08171
5908.82797,0.09407
5910.75644,0.06386
5912.68491,0.00652
5914.61338,-0.02395
5916.54185,-0.00892
5918.47032,0.02852
5920.39878,0.06065
5922.32725,0.07150
5924.25572,0.05989
5926.18419,0.03432
5928.11266,0.02072
5930.04113,0.02204
5931.96960,0.02373
5933.89806,0.04794
5935.82653,0.09461
5937.75500,0.11289
5939.68347,0.11316
5941.61194,0.12474
5943.54041,0.12004
5945.46888,0.10104
5947.39734,0.09812
5949.32581,0.10194
5951.25428,0.07995
5953.18275,0.04374
5955.11122,0.03422
5957.03969,0.04823
5958.96816,0.07797
5960.89663,0.11366
5962.82509,0.12460
5964.75356,0.11449
5966.68203,0.10127
5968.61050,0.09394
5970.53897,0.08598
5972.46744,0.06489
5974.39591,0.06121
5976.32437,0.08639
5978.25284,0.10530
5980.18131,0.10846
5982.10978,0.09503
5984.03825,0.07322
5985.96672,0.07248
5987.89519,0.09033
5989.82366,0.07990
5991.75212,0.02889
5993.68059,0.00087
5995.60906,0.01743
5997.53753,0.03648
5999.46600,0.07516
6001.39447,0.12885
6003.32294,0.14079
6005.25140,0.11128
6007.17987,0.09306
6009.10834,0.10070
6011.03681,0.08894
6012.96528,0.05632
6014.89375,0.03751
6016.82222,0.02485
6018.75069,0.03748
6020.67915,0.07955
6022.60762,0.08269
6024.53609,0.04531
6026.46456,0.03485
6028.39303,0.05555
6030.32150,0.06906
6032.24997,0.08460
6034.17843,0.10491
6036.10690,0.10856
6038.03537,0.08505
6039.96384,0.06304
6041.89231,0.06900
6043.82078,0.06705
6045.74925,0.06144
6047.67772,0.08383
6049.60618,0.09859
6051.53465,0.09487
6053.46312,0.09474
6055.39159,0.06077
6057.32006,0.00971
6059.24853,0.02842
6061.17700,0.10255
6063.10546,0.15501
6065.03393,0.13817
6066.96240,0.08150
6068.89087,0.04234
6070.81934,0.02631
6072.74781,0.03561
6074.67628,0.05601
6076.60475,0.04684
6078.53321,0.02836
6080.46168,0.02537
6082.39015,0.02884
6084.31862,0.04584
6086.24709,0.07552
6088.17556,0.09227
6090.10403,0.07127
6092.03249,0.03938
6093.96096,0.05507
6095.88943,0.10979
6097.81790,0.15823
6099.74637,0.16192
6101.67484,0.10616
6103.60331,0.04998
6105.53177,0.03671
6107.46024,0.03785
6109.38871,0.04880
6111.31718,0.08426
6113.24565,0.11232
6115.17412,0.11020
6117.10259,0.07080
6119.03106,0.01978
6120.95952,-0.00218
6122.88799,-0.02120
6124.81646,-0.02707
6126.74493,0.01241
6128.67340,0.04672
6130.60187,0.05077
6132.53034,0.05894
6134.45880,0.06197
6136.38727,0.05195
6138.31574,0.02840
6140.24421,0.00300
6142.17268,0.02202
6144.10115,0.05567
6146.02962,0.03718
6147.95809,0.00295
6149.88655,0.02617
6151.81502,0.08087
6153.74349,0.09177
6155.67196,0.06932
6157.60043,0.04195
6159.52890,0.03972
6161.45737,0.07676
6163.38583,0.09450
6165.31430,0.06922
6167.24277,0.05857
6169.17124,0.07913
6171.09971,0.08971
6173.02818,0.07482
6174.95665,0.04551
6176.88512,0.02641
6178.81358,0.05016
6180.74205,0.10088
6182.67052,0.13097
6184.59899,0.12572
6186.52746,0.11476
6188.45593,0.11081
6190.38440,0.09373
6192.31286,0.07893
6194.24133,0.07775
6196.16980,0.07399
6198.09827,0.07772
6200.02674,0.07475
6201.95521,0.03356
6203.88368,-0.02229
6205.81215,-0.04909
6207.74061,-0.02319
6209.66908,0.03543
6211.59755,0.05227
6213.52602,0.04158
6215.45449,0.06084
6217.38296,0.07695
6219.31143,0.06771
6221.23989,0.05549
6223.16836,0.05561
6225.09683,0.06436
6227.02530,0.06088
6228.95377,0.05754
6230.88224,0.08614
6232.81071,0.14833
6234.73918,0.18447
6236.66764,0.14443
6238.59611,0.05474
6240.52458,-0.01591
6242.45305,-0.03084
6244.38152,-0.02075
6246.30999,-0.00527
6248.23846,0.02370
6250.16692,0.05564
6252.09539,0.05571
6254.02386,0.01735
6255.95233,0.00360
6257.88080,0.04508
6259.80927,0.09523
6261.73774,0.13532
6263.66621,0.18899
6265.59467,0.23632
6267.52314,0.21294
6269.45161,0.12273
6271.38008,0.02303
6273.30855,-0.03788
6275.23702,-0.03956
6277.16549,-0.00352
6279.09395,0.06749
6281.02242,0.14519
6282.95089,0.15421
6284.87936,0.09919
6286.80783,0.05740
6288.73630,0.07273
6290.66477,0.12036
6292.59323,0.10568
6294.52170,0.02690
6296.45017,-0.01494
6298.37864,-0.01270
6300.30711,-0.01283
6302.23558,0.00837
6304.16405,0.04816
6306.09252,0.04523
6308.02098,0.02062
6309.94945,0.03550
6311.87792,0.06562
6313.80639,0.07927
6315.73486,0.08476
6317.66333,0.07132
6319.59180,0.05407
6321.52026,0.06827
6323.44873,0.09608
6325.37720,0.11347
6327.30567,0.12178
6329.23414,0.11190
6331.16261,0.09643
6333.09108,0.09863
6335.01955,0.09960
6336.94801,0.06995
6338.87648,0.04441
6340.80495,0.06002
6342.73342,0.03854
6344.66189,-0.04364
6346.59036,-0.05699
6348.51883,0.04168
6350.44729,0.12524
6352.37576,0.11619
6354.30423,0.08060
6356.23270,0.04664
6358.16117,0.01060
6360.08964,0.02350
6362.01811,0.07433
6363.94658,0.09186
6365.87504,0.07387
6367.80351,0.06755
6369.73198,0.08572
6371.66045,0.09398
6373.58892,0.07048
6375.51739,0.06025
6377.44586,0.08083
6379.37432,0.07484
6381.30279,0.00761
6383.23126,-0.05435
6385.15973,-0.03512
6387.08820,-0.00585
6389.01667,-0.01258
6390.94514,-0.00362
6392.87361,0.03140
6394.80207,0.04308
6396.73054,0.05218
6398.65901,0.08331
6400.58748,0.08878
6402.51595,0.06834
6404.44442,0.09106
6406.37289,0.13978
6408.30135,0.13216
6410.22982,0.07011
6412.15829,-0.00035
6414.08676,-0.01581
6416.01523,0.02313
6417.94370,0.02582
6419.87217,-0.00016
6421.80064,0.01800
6423.72910,0.06972
6425.65757,0.09548
6427.58604,0.05887
6429.51451,-0.01560
6431.44298,-0.06858
6433.37145,-0.02152
6435.29992,0.08112
6437.22838,0.10207
6439.15685,0.05250
6441.08532,0.06824
6443.01379,0.13539
6444.94226,0.15658
6446.87073,0.13067
6448.79920,0.10071
6450.72766,0.07295
6452.65613,0.01708
6454.58460,-0.02340
6456.51307,0.00678
6458.44154,0.04535
6460.37001,0.03941
6462.29848,0.00550
6464.22695,-0.02573
6466.15541,-0.00030
6468.08388,0.07954
6470.01235,0.11464
6471.94082,0.06413
6473.86929,-0.00481
6475.79776,-0.06867
6477.72623,-0.11149
6479.65469,-0.07271
6481.58316,0.00970
6483.51163,0.03575
6485.44010,0.01499
6487.36857,-0.00817
6489.29704,-0.01108
6491.22551,0.01188
6493.15398,0.02919
6495.08244,0.02635
6497.01091,0.00241
6498.93938,-0.02595
6500.86785,0.00371
6502.79632,0.08115
6504.72479,0.12895
6506.65326,0.13050
6508.58172,0.09140
6510.51019,0.05337
6512.43866,0.04606
6514.36713,0.04415
6516.29560,0.04601
6518.22407,0.04732
6520.15254,0.05118
6522.08101,0.05525
6524.00947,0.04265
6525.93794,0.05067
6527.86641,0.09460
6529.79488,0.12249
6531.72335,0.13976
6533.65182,0.16064
6535.58029,0.11464
6537.50875,0.03770
6539.43722,0.04250
6541.36569,0.06700
6543.29416,0.03491
6545.22263,0.01762
6547.15110,0.05218
6549.07957,0.07805
6551.00804,0.03375
6552.93650,-0.02978
6554.86497,-0.03058
6556.79344,0.01876
6558.72191,0.07973
6560.65038,0.09649
6562.57885,0.04620
6564.50732,0.03896
6566.43578,0.10708
6568.36425,0.12064
6570.29272,0.06360
6572.22119,0.05649
6574.14966,0.14606
6576.07813,0.20158
6578.00660,0.12309
6579.93507,0.03731
6581.86353,0.04892
6583.79200,0.05996
6585.72047,0.00854
6587.64894,-0.03903
6589.57741,-0.03909
6591.50588,-0.01006
6593.43435,0.02423
6595.36281,0.03840
6597.29128,0.05171
6599.21975,0.08379
6601.14822,0.08217
6603.07669,0.07709
6605.00516,0.11224
6606.93363,0.11720
6608.86210,0.06983
6610.79056,0.02067
6612.71903,-0.00411
6614.64750,0.00249
6616.57597,0.02587
6618.50444,0.01158
6620.43291,-0.01056
6622.36138,0.02388
6624.28984,0.06642
6626.21831,0.07408
6628.14678,0.08684
6630.07525,0.09109
6632.00372,0.06643
6633.93219,0.07124
6635.86066,0.10051
6637.78912,0.11213
6639.71759,0.10836
6641.64606,0.10252
6643.57453,0.10875
6645.50300,0.09500
6647.43147,0.02826
6649.35994,-0.01935
6651.28841,0.02504
6653.21687,0.09724
6655.14534,0.13105
6657.07381,0.17661
6659.00228,0.22594
6660.93075,0.20982
6662.85922,0.14907
6664.78769,0.09650
6666.71615,0.06544
6668.64462,0.05801
6670.57309,0.06738
6672.50156,0.08825
6674.43003,0.10872
6676.35850,0.08702
6678.28697,0.03302
6680.21544,-0.01557
6682.14390,-0.01382
6684.07237,0.05432
6686.00084,0.11677
6687.92931,0.11176
6689.85778,0.03882
6691.78625,-0.00964
6693.71472,0.01332
6695.64318,0.05991
6697.57165,0.09217
6699.50012,0.09077
6701.42859,0.05954
6703.35706,0.05782
6705.28553,0.09062
6707.21400,0.06624
6709.14247,-0.02790
6711.07093,-0.08809
6712.99940,-0.04552
6714.92787,0.05752
6716.85634,0.10992
6718.78481,0.08755
6720.71328,0.05013
6722.64175,0.03540
6724.57021,0.03516
6726.49868,0.05360
6728.42715,0.09673
6730.35562,0.09979
6732.28409,0.03039
6734.21256,-0.03662
6736.14103,-0.04699
6738.06950,-0.00743
6739.99796,0.04478
6741.92643,0.06064
6743.85490,0.06422
6745.78337,0.10377
6747.71184,0.16382
6749.64031,0.19557
6751.56878,0.15190
6753.49724,0.09186
6755.42571,0.07641
6757.35418,0.04888
6759.28265,0.02428
6761.21112,0.04044
6763.13959,0.04845
6765.06806,0.04725
6766.99653,0.03367
6768.92499,-0.00750
6770.85346,-0.02561
6772.78193,0.02265
6774.71040,0.08817
6776.63887,0.07545
6778.56734,0.01938
6780.49581,0.02997
6782.42427,0.06719
6784.35274,0.07080
6786.28121,0.07210
6788.20968,0.06641
6790.13815,0.06052
6792.06662,0.08389
6793.99509,0.11305
6795.92355,0.09882
6797.85202,0.04365
6799.78049,0.01373
6801.70896,0.00188
6803.63743,-0.00468
6805.56590,0.05844
6807.49437,0.15688
6809.42284,0.20336
6811.35130,0.17774
6813.27977,0.13543
6815.20824,0.09965
6817.13671,0.05113
6819.06518,0.01872
6820.99365,0.01984
6822.92212,0.00785
6824.85058,-0.01810
6826.77905,0.03491
6828.70752,0.12327
6830.63599,0.13970
6832.56446,0.08513
6834.49293,0.00450
6836.42140,-0.04835
6838.34987,-0.04754
6840.27833,-0.00094
6842.20680,0.01485
6844.13527,-0.05385
6846.06374,-0.07623
6847.99221,0.00058
6849.92068,0.01434
6851.84915,-0.05545
6853.77761,-0.05566
6855.70608,0.01510
6857.63455,0.04446
6859.56302,0.07839
6861.49149,0.14550
6863.41996,0.15705
6865.34843,0.11572
6867.27690,0.05305
6869.20536,0.02695
6871.13383,0.05661
6873.06230,0.08335
6874.99077,0.09010
6876.91924,0.02176
6878.84771,-0.10684
6880.77618,-0.09931
6882.70464,0.01199
6884.63311,0.01772
6886.56158,-0.04757
6888.49005,-0.05036
6890.41852,-0.03418
6892.34699,-0.05243
6894.27546,-0.03655
6896.20393,0.04411
6898.13239,0.14920
6900.06086,0.19592
6901.98933,0.15840
6903.91780,0.08882
6905.84627,0.06571
6907.77474,0.09786
6909.70321,0.13187
6911.63167,0.15265
6913.56014,0.16197
6915.48861,0.14637
6917.41708,0.13777
6919.34555,0.13218
6921.27402,0.07871
6923.20249,0.06569
6925.13096,0.14958
6927.05942,0.22234
6928.98789,0.18265
6930.91636,0.11773
6932.84483,0.12364
6934.77330,0.10029
6936.70177,0.04458
6938.63024,-0.01016
6940.55870,-0.05728
6942.48717,0.02032
6944.41564,0.14006
6946.34411,0.12828
6948.27258,0.07826
6950.20105,0.12425
6952.12952,0.15172
6954.05799,0.06879
6955.98645,-0.02416
6957.91492,-0.02505
6959.84339,-0.02139
6961.77186,-0.05239
6963.70033,-0.03126
6965.62880,0.08342
6967.55727,0.21364
6969.48573,0.18396
6971.41420,0.04103
6973.34267,0.01439
6975.27114,0.04636
6977.19961,0.03331
6979.12808,0.07226
6981.05655,0.10560
6982.98501,0.02717
6984.91348,-0.00541
6986.84195,0.09371
6988.77042,0.12452
6990.69889,0.02416
6992.62736,-0.06285
6994.55583,-0.08633
6996.48430,-0.10347
6998.41276,-0.07362
7000.34123,0.04858
7002.26970,0.13557
7004.19817,0.17403
7006.12664,0.20935
7008.05511,0.18241
7009.98358,0.09565
7011.91204,-0.00316
7013.84051,-0.06900
7015.76898,-0.06937
7017.69745,-0.04205
7019.62592,-0.00468
7021.55439,0.05529
7023.48286,0.16474
7025.41133,0.27353
7027.33979,0.28344
7029.26826,0.18023
7031.19673,0.04393
7033.12520,-0.09039
7035.05367,-0.14429
7036.98214,-0.03883
7038.91061,0.07234
7040.83907,0.05560
7042.76754,-0.03297
7044.69601,-0.07001
7046.62448,-0.04199
7048.55295,0.01847
7050.48142,0.05668
7052.40989,0.08811
7054.33836,0.14973
7056.26682,0.13496
7058.19529,0.03084
7060.12376,-0.00096
7062.05223,-0.00312
7063.98070,-0.04801
7065.90917,-0.07341
7067.83764,-0.06823
7069.76610,-0.04807
7071.69457,-0.01934
7073.62304,-0.06119
7075.55151,-0.13994
7077.47998,-0.14534
7079.40845,-0.08605
7081.33692,-0.04363
7083.26539,0.02801
7085.19385,0.14689
7087.12232,0.17086
7089.05079,0.08014
7090.97926,0.02987
7092.90773,0.05825
7094.83620,0.11128
7096.76467,0.12802
7098.69313,0.09905
7100.62160,0.12805
7102.55007,0.21162
7104.47854,0.17364
7106.40701,-0.01082
7108.33548,-0.16535
7110.26395,-0.23964
7112.19242,-0.22479
7114.12088,-0.11946
7116.04935,-0.01411
7117.97782,0.01489
7119.90629,-0.00130
7121.83476,-0.02768
7123.76323,-0.04636
7125.69170,-0.01933
7127.62016,-0.00209
7129.54863,0.00056
7131.47710,0.09484
7133.40557,0.22089
7135.33404,0.20915
7137.26251,0.10322
7139.19098,0.03727
7141.11944,0.03637
7143.04791,0.07419
7144.97638,0.12090
7146.90485,0.17278
7148.83332,0.23871
7150.76179,0.26174
7152.69026,0.15334
7154.61873,0.02711
7156.54719,0.04416
7158.47566,0.06797
7160.40413,0.04010
7162.33260,0.05074
7164.26107,0.12414
7166.18954,0.15914
7168.11801,0.08239
7170.04647,0.11752
7171.97494,0.35745
7173.90341,0.43970
7175.83188,0.22603
7177.76035,0.00012
7179.68882,-0.01603
7181.61729,0.14263
7183.54576,0.28589
7185.47422,0.21056
7187.40269,0.05175
7189.33116,-0.05913
7191.25963,-0.11330
7193.18810,-0.07513
7195.11657,-0.02648
7197.04504,-0.10979
7198.97350,-0.19069
7200.90197,-0.13544
7202.83044,-0.02682
7204.75891,0.07151
7206.68738,0.07402
7208.61585,0.03939
7210.54432,0.08110
7212.47279,0.09458
7214.40125,0.00496
7216.32972,-0.04403
7218.25819,0.04182
7220.18666,0.11754
7222.11513,0.16475
7224.04360,0.19828
7225.97207,0.16417
7227.90053,0.13674
7229.82900,0.17634
7231.75747,0.10963
7233.68594,-0.06898
7235.61441,-0.07134
7237.54288,0.07661
7239.47135,0.12635
7241.39982,0.08252
7243.32828,-0.02716
7245.25675,-0.12793
7247.18522,-0.05438
7249.11369,0.11850
7251.04216,0.23319
7252.97063,0.20455
7254.89910,0.13441
7256.82756,0.15365
7258.75603,0.23222
7260.68450,0.25477
7262.61297,0.14063
7264.54144,0.13391
7266.46991,0.28498
7268.39838,0.36121
7270.32685,0.33285
7272.25531,0.28213
7274.18378,0.17751
7276.11225,0.04420
7278.04072,0.01594
7279.96919,0.07481
7281.89766,0.10814
7283.82613,0.11822
7285.75459,0.08105
7287.68306,0.05170
7289.61153,0.10128
7291.54000,0.17377
7293.46847,0.17965
7295.39694,0.12423
7297.32541,0.01892
7299.25387,-0.13197
7301.18234,-0.22274
7303.11081,-0.23744
7305.03928,-0.25285
7306.96775,-0.15005
7308.89622,0.08930
7310.82469,0.18787
7312.75316,0.15757
7314.68162,0.08176
7316.61009,-0.03115
7318.53856,-0.06860
7320.46703,-0.04005
7322.39550,0.03508
7324.32397,0.19360
7326.25244,0.24496
7328.18090,0.12750
7330.10937,0.10824
7332.03784,0.10414
7333.96631,-0.05180
7335.89478,-0.11757
7337.82325,-0.02089
7339.75172,0.11795
7341.68019,0.14441
7343.60865,0.17450
7345.53712,0.20371
7347.46559,0.13325
7349.39406,0.09241
7351.32253,0.11821
7353.25100,0.16534
7355.17947,0.20474
7357.10793,0.19884
7359.03640,0.15790
7360.96487,0.09982
7362.89334,0.13248
7364.82181,0.14416
7366.75028,-0.01158
7368.67875,-0.12597
7370.60722,-0.07936
7372.53568,0.00706
7374.46415,0.10528
7376.39262,0.15765
7378.32109,0.10036
7380.24956,-0.00413
7382.17803,-0.06453
7384.10650,-0.02600
7386.03496,0.01315
7387.96343,-0.01456
7389.89190,-0.02483
7391.82037,0.05197
7393.74884,0.16421
7395.67731,0.11926
7397.60578,-0.07081
7399.53425,-0.17096
7401.46271,-0.17932
7403.39118,-0.17946
7405.31965,-0.10379
7407.24812,0.03241
7409.17659,0.13207
7411.10506,0.16280
7413.03353,0.13496
7414.96199,0.10451
7416.89046,0.15155
7418.81893,0.24570
7420.74740,0.16115
7422.67587,0.00399
7424.60434,-0.01350
7426.53281,0.06792
7428.46128,0.17731
7430.38974,0.25053
7432.31821,0.18721
7434.24668,0.04668
7436.17515,-0.02817
7438.10362,0.01292
7440.03209,0.06233
7441.96056,0.03372
7443.88902,-0.09495
7445.81749,-0.21810
7447.74596,-0.12132
7449.67443,0.14817
7451.60290,0.22028
7453.53137,0.00512
7455.45984,-0.18458
7457.38831,-0.18649
7459.31677,-0.01407
7461.24524,0.14030
7463.17371,0.22529
7465.10218,0.31609
7467.03065,0.27618
7468.95912,0.17212
7470.88759,0.13215
7472.81605,0.02476
7474.74452,-0.13156
7476.67299,-0.17603
7478.60146,-0.08406
7480.52993,0.06365
7482.45840,0.13190
7484.38687,0.08125
7486.31533,-0.01491
7488.24380,-0.05495
7490.17227,0.04149
7492.10074,0.17390
7494.02921,0.17045
7495.95768,0.06865
7497.88615,0.00580
