399.19301,-0.53839
401.12148,-1.44253
403.04995,-0.68528
404.97842,-0.05627
406.90689,0.21767
408.83536,0.11835
410.76382,-0.05808
412.69229,-0.10234
414.62076,-0.09636
416.54923,-0.13460
418.47770,-0.17499
420.40617,-0.01285
422.33464,0.19820
424.26311,0.24163
426.19157,0.10049
428.12004,-0.06219
430.04851,-0.09821
431.97698,0.02506
433.90545,0.15676
435.83392,0.21742
437.76239,0.22855
439.69085,0.17129
441.61932,0.02061
443.54779,-0.11709
445.47626,-0.09934
447.40473,-0.00847
449.33320,0.04579
451.26167,0.10048
453.19013,0.15170
455.11860,0.13136
457.04707,0.04598
458.97554,-0.03477
460.90401,-0.04976
462.83248,0.00040
464.76095,0.07884
466.68942,0.16802
468.61788,0.25146
470.54635,0.29878
472.47482,0.29189
474.40329,0.16759
476.33176,0.00513
478.26023,-0.10480
480.18870,-0.15558
482.11716,-0.08313
484.04563,0.07329
485.97410,0.14063
487.90257,0.12171
489.83104,0.09803
491.75951,0.03692
493.68798,-0.06507
495.61645,-0.14258
497.54491,-0.12642
499.47338,-0.02616
501.40185,0.06856
503.33032,0.09489
505.25879,0.07457
507.18726,0.02488
509.11573,-0.04930
511.04419,-0.10845
512.97266,-0.11361
514.90113,-0.07061
516.82960,-0.02357
518.75807,0.00474
520.68654,0.01726
522.61501,0.00748
524.54348,-0.02205
526.47194,-0.05332
528.40041,-0.05881
530.32888,-0.01756
532.25735,0.03489
534.18582,0.06341
536.11429,0.05357
538.04276,0.00929
539.97122,-0.03561
541.89969,-0.07515
543.82816,-0.08084
545.75663,-0.03453
547.68510,0.01161
549.61357,0.23212
551.54204,1.09645
553.47051,2.00733
555.39897,1.67112
557.32744,0.55765
559.25591,0.03215
561.18438,-0.02137
563.11285,-0.00924
565.04132,0.02193
566.96979,0.03930
568.89825,0.03014
570.82672,0.02639
572.75519,0.01354
574.68366,0.00357
576.61213,0.05007
578.54060,0.09214
580.46907,0.06091
582.39754,0.00516
584.32600,-0.02491
586.25447,-0.02682
588.18294,0.00416
590.11141,0.05977
592.03988,0.09892
593.96835,0.09663
595.89682,0.07577
597.82528,0.05021
599.75375,0.01976
601.68222,0.00315
603.61069,0.01673
605.53916,0.03822
607.46763,0.05264
609.39610,0.06271
611.32456,0.05190
613.25303,0.02456
615.18150,0.01473
617.10997,0.03050
619.03844,0.04998
620.96691,0.06636
622.89538,0.07152
624.82385,0.07024
626.75231,0.07616
628.68078,0.07705
630.60925,0.07038
632.53772,0.07271
634.46619,0.08866
636.39466,0.11082
638.32313,0.13030
640.25159,0.12862
642.18006,0.10067
644.10853,0.07238
646.03700,0.05428
647.96547,0.04226
649.89394,0.05313
651.82241,0.09789
653.75088,0.14785
655.67934,0.16509
657.60781,0.14102
659.53628,0.10299
661.46475,0.08016
663.39322,0.08024
665.32169,0.09269
667.25016,0.09551
669.17862,0.09344
671.10709,0.10352
673.03556,0.10406
674.96403,0.09542
676.89250,0.08657
678.82097,0.08035
680.74944,0.07868
682.67791,0.07823
684.60637,0.08463
686.53484,0.09929
688.46331,0.10375
690.39178,0.10053
692.32025,0.09835
694.24872,0.09011
696.17719,0.08623
698.10565,0.10057
700.03412,0.11257
701.96259,0.10278
703.89106,0.08445
705.81953,0.07079
707.74800,0.06326
709.67647,0.06393
711.60494,0.07489
713.53340,0.09424
715.46187,0.11283
717.39034,0.12137
719.31881,0.11700
721.24728,0.10266
723.17575,0.08190
725.10422,0.06248
727.03268,0.06004
728.96115,0.07599
730.88962,0.09379
732.81809,0.11016
734.74656,0.12341
736.67503,0.11714
738.60350,0.09369
740.53197,0.07644
742.46043,0.07789
744.38890,0.09330
746.31737,0.11203
748.24584,0.12302
750.17431,0.11970
752.10278,0.10178
754.03125,0.07560
755.95971,0.05623
757.88818,0.05987
759.81665,0.08292
761.74512,0.10270
763.67359,0.10520
765.60206,0.09892
767.53053,0.09589
769.45900,0.08847
771.38746,0.07594
773.31593,0.07753
775.24440,0.09003
777.17287,0.09904
779.10134,0.10279
781.02981,0.09501
782.95828,0.07729
784.88674,0.06686
786.81521,0.07066
788.74368,0.08333
790.67215,0.10184
792.60062,0.12217
794.52909,0.13536
796.45756,0.13278
798.38602,0.11344
800.31449,0.08611
802.24296,0.06315
804.17143,0.05849
806.09990,0.07484
808.02837,0.09725
809.95684,0.11935
811.88531,0.13378
813.81377,0.12041
815.74224,0.09128
817.67071,0.07823
819.59918,0.07817
821.52765,0.07965
823.45612,0.09274
825.38459,0.11557
827.31305,0.12974
829.24152,0.12731
831.16999,0.11739
833.09846,0.10922
835.02693,0.10008
836.95540,0.09652
838.88387,0.10764
840.81234,0.12477
842.74080,0.13584
844.66927,0.13083
846.59774,0.11314
848.52621,0.09668
850.45468,0.09240
852.38315,0.10897
854.31162,0.13318
856.24008,0.14260
858.16855,0.13917
860.09702,0.13011
862.02549,0.11629
863.95396,0.10592
865.88243,0.10256
867.81090,0.10280
869.73937,0.11337
871.66783,0.12984
873.59630,0.13373
875.52477,0.12400
877.45324,0.11197
879.38171,0.10849
881.31018,0.11272
883.23865,0.11500
885.16711,0.11565
887.09558,0.11908
889.02405,0.12407
890.95252,0.12192
892.88099,0.10829
894.80946,0.09238
896.73793,0.08435
898.66640,0.08784
900.59486,0.10244
902.52333,0.12117
904.45180,0.13444
906.38027,0.13849
908.30874,0.13040
910.23721,0.11170
912.16568,0.09880
914.09414,0.10449
916.02261,0.11678
917.95108,0.12115
919.87955,0.12107
921.80802,0.12171
923.73649,0.12090
925.66496,0.11545
927.59343,0.10503
929.52189,0.09700
931.45036,0.10439
933.37883,0.12326
935.30730,0.13294
937.23577,0.13055
939.16424,0.12378
941.09271,0.11158
943.02117,0.09878
944.94964,0.09476
946.87811,0.10189
948.80658,0.11428
950.73505,0.11944
952.66352,0.11599
954.59199,0.11806
956.52045,0.12486
958.44892,0.12155
960.37739,0.11313
962.30586,0.11529
964.23433,0.12676
966.16280,0.13650
968.09127,0.13947
970.01974,0.13589
971.94820,0.13069
973.87667,0.12635
975.80514,0.12297
977.73361,0.12407
979.66208,0.12693
981.59055,0.12718
983.51902,0.12793
985.44748,0.13248
987.37595,0.13657
989.30442,0.13377
991.23289,0.12638
993.16136,0.12359
995.08983,0.13136
997.01830,0.14610
998.94677,0.15752
1000.87523,0.15694
1002.80370,0.14386
1004.73217,0.12573
1006.66064,0.11265
1008.58911,0.11141
1010.51758,0.11992
1012.44605,0.13031
1014.37451,0.13456
1016.30298,0.13199
1018.23145,0.12541
1020.15992,0.11382
1022.08839,0.10675
1024.01686,0.11590
1025.94533,0.13469
1027.87380,0.15172
1029.80226,0.15522
1031.73073,0.14119
1033.65920,0.12760
1035.58767,0.12555
1037.51614,0.12621
1039.44461,0.12776
1041.37308,0.13499
1043.30154,0.14433
1045.23001,0.15091
1047.15848,0.15239
1049.08695,0.14788
1051.01542,0.14125
1052.94389,0.13502
1054.87236,0.13441
1056.80083,0.14524
1058.72929,0.15590
1060.65776,0.15187
1062.58623,0.14205
1064.51470,0.13975
1066.44317,0.13679
1068.37164,0.13071
1070.30011,0.13279
1072.22857,0.14105
1074.15704,0.15136
1076.08551,0.15927
1078.01398,0.15685
1079.94245,0.14940
1081.87092,0.14186
1083.79939,0.13175
1085.72786,0.12447
1087.65632,0.12656
1089.58479,0.13132
1091.51326,0.13189
1093.44173,0.13441
1095.37020,0.13617
1097.29867,0.12638
1099.22714,0.11495
1101.15560,0.11548
1103.08407,0.12312
1105.01254,0.13013
1106.94101,0.13771
1108.86948,0.14529
1110.79795,0.14677
1112.72642,0.13997
1114.65489,0.12623
1116.58335,0.11223
1118.51182,0.11067
1120.44029,0.12114
1122.36876,0.13226
1124.29723,0.13623
1126.22570,0.12610
1128.15417,0.11090
1130.08263,0.10831
1132.01110,0.11504
1133.93957,0.12303
1135.86804,0.13301
1137.79651,0.14443
1139.72498,0.15038
1141.65345,0.14498
1143.58191,0.13415
1145.51038,0.12732
1147.43885,0.12712
1149.36732,0.13115
1151.29579,0.13602
1153.22426,0.14309
1155.15273,0.15150
1157.08120,0.15205
1159.00966,0.14330
1160.93813,0.13313
1162.86660,0.12639
1164.79507,0.12603
1166.72354,0.13093
1168.65201,0.13749
1170.58048,0.14362
1172.50894,0.14605
1174.43741,0.14422
1176.36588,0.14092
1178.29435,0.13619
1180.22282,0.13074
1182.15129,0.12882
1184.07976,0.13321
1186.00823,0.14307
1187.93669,0.15239
1189.86516,0.15346
1191.79363,0.14748
1193.72210,0.14197
1195.65057,0.13968
1197.57904,0.13902
1199.50751,0.13910
1201.43597,0.14214
1203.36444,0.14885
1205.29291,0.15242
1207.22138,0.14749
1209.14985,0.14077
1211.07832,0.14076
1213.00679,0.14538
1214.93526,0.14924
1216.86372,0.15077
1218.79219,0.14891
1220.72066,0.14459
1222.64913,0.14022
1224.57760,0.13770
1226.50607,0.13866
1228.43454,0.14235
1230.36300,0.14547
1232.29147,0.14666
1234.21994,0.14878
1236.14841,0.14992
1238.07688,0.14476
1240.00535,0.13856
1241.93382,0.13888
1243.86229,0.14319
1245.79075,0.14840
1247.71922,0.15416
1249.64769,0.15719
1251.57616,0.15604
1253.50463,0.15270
1255.43310,0.14855
1257.36157,0.14565
1259.29003,0.14474
1261.21850,0.14411
1263.14697,0.14517
1265.07544,0.14830
1267.00391,0.14747
1268.93238,0.14362
1270.86085,0.14487
1272.78932,0.14954
1274.71778,0.15241
1276.64625,0.15670
1278.57472,0.16296
1280.50319,0.16344
1282.43166,0.15806
1284.36013,0.15486
1286.28860,0.15398
1288.21706,0.15205
1290.14553,0.15002
1292.07400,0.14836
1294.00247,0.14685
1295.93094,0.14641
1297.85941,0.14790
1299.78788,0.14730
1301.71634,0.13697
1303.64481,0.12179
1305.57328,0.12047
1307.50175,0.13738
1309.43022,0.15577
1311.35869,0.16494
1313.28716,0.16532
1315.21563,0.16061
1317.14409,0.15670
1319.07256,0.15324
1321.00103,0.14908
1322.92950,0.14839
1324.85797,0.15092
1326.78644,0.15312
1328.71491,0.15295
1330.64337,0.14822
1332.57184,0.14285
1334.50031,0.14182
1336.42878,0.14440
1338.35725,0.15238
1340.28572,0.15968
1342.21419,0.15880
1344.14266,0.15508
1346.07112,0.14938
1347.99959,0.14293
1349.92806,0.13858
1351.85653,0.13748
1353.78500,0.14348
1355.71347,0.15163
1357.64194,0.15347
1359.57040,0.15514
1361.49887,0.16151
1363.42734,0.16181
1365.35581,0.15464
1367.28428,0.15130
1369.21275,0.15536
1371.14122,0.16246
1373.06969,0.16778
1374.99815,0.16949
1376.92662,0.16664
1378.85509,0.16157
1380.78356,0.15753
1382.71203,0.15618
1384.64050,0.15910
1386.56897,0.16681
1388.49743,0.17304
1390.42590,0.17263
1392.35437,0.17091
1394.28284,0.17173
1396.21131,0.17216
1398.13978,0.17058
1400.06825,0.16985
1401.99672,0.17075
1403.92518,0.17199
1405.85365,0.17018
1407.78212,0.16485
1409.71059,0.16016
1411.63906,0.15699
1413.56753,0.15708
1415.49600,0.16319
1417.42446,0.17462
1419.35293,0.18413
1421.28140,0.18287
1423.20987,0.17551
1425.13834,0.16651
1427.06681,0.16028
1428.99528,0.15920
1430.92375,0.16182
1432.85221,0.16752
1434.78068,0.17722
1436.70915,0.18513
1438.63762,0.18128
1440.56609,0.17196
1442.49456,0.16350
1444.42303,0.16133
1446.35149,0.16763
1448.27996,0.17480
1450.20843,0.17761
1452.13690,0.18168
1454.06537,0.19003
1455.99384,0.20002
1457.92231,0.19848
1459.85077,0.18483
1461.77924,0.17815
1463.70771,0.17961
1465.63618,0.18016
1467.56465,0.17917
1469.49312,0.18601
1471.42159,0.19812
1473.35006,0.19887
1475.27852,0.18698
1477.20699,0.17919
1479.13546,0.17818
1481.06393,0.18048
1482.99240,0.18345
1484.92087,0.18656
1486.84934,0.18987
1488.77780,0.19152
1490.70627,0.18566
1492.63474,0.18049
1494.56321,0.18578
1496.49168,0.19702
1498.42015,0.19740
1500.34862,0.18467
1502.27709,0.17158
1504.20555,0.16244
1506.13402,0.16405
1508.06249,0.18094
1509.99096,0.18492
1511.91943,0.18454
1513.84790,0.19059
1515.77637,0.20357
1517.70483,0.21427
1519.63330,0.21564
1521.56177,0.21176
1523.49024,0.20615
1525.41871,0.20323
1527.34718,0.19840
1529.27565,0.19333
1531.20412,0.19760
1533.13258,0.20753
1535.06105,0.20662
1536.98952,0.20254
1538.91799,0.21222
1540.84646,0.22777
1542.77493,0.22141
1544.70340,0.20758
1546.63186,0.19633
1548.56033,0.19040
1550.48880,0.18435
1552.41727,0.17834
1554.34574,0.18093
1556.27421,0.19701
1558.20268,0.22733
1560.13115,0.22593
1562.05961,0.20365
1563.98808,0.19241
1565.91655,0.18733
1567.84502,0.18782
1569.77349,0.18950
1571.70196,0.18738
1573.63043,0.18932
1575.55889,0.19813
1577.48736,0.20073
1579.41583,0.19264
1581.34430,0.18343
1583.27277,0.17502
1585.20124,0.16919
1587.12971,0.17028
1589.05818,0.17850
1590.98664,0.18680
1592.91511,0.18911
1594.84358,0.18703
1596.77205,0.18338
1598.70052,0.17944
1600.62899,0.17749
1602.55746,0.17837
1604.48592,0.17944
1606.41439,0.17951
1608.34286,0.18091
1610.27133,0.18156
1612.19980,0.18041
1614.12827,0.18291
1616.05674,0.18819
1617.98521,0.18645
1619.91367,0.18341
1621.84214,0.18820
1623.77061,0.19409
1625.69908,0.19186
1627.62755,0.18828
1629.55602,0.18528
1631.48449,0.18295
1633.41295,0.18806
1635.34142,0.20210
1637.26989,0.20317
1639.19836,0.19244
1641.12683,0.18676
1643.05530,0.18991
1644.98377,0.20311
1646.91223,0.21738
1648.84070,0.21566
1650.76917,0.21657
1652.69764,0.23077
1654.62611,0.22201
1656.55458,0.20044
1658.48305,0.19236
1660.41152,0.19752
1662.33998,0.20174
1664.26845,0.19133
1666.19692,0.18712
1668.12539,0.20061
1670.05386,0.21691
1671.98233,0.21748
1673.91080,0.20951
1675.83926,0.19931
1677.76773,0.19375
1679.69620,0.19483
1681.62467,0.20486
1683.55314,0.22394
1685.48161,0.22450
1687.41008,0.21356
1689.33855,0.20786
1691.26701,0.20112
1693.19548,0.19764
1695.12395,0.20444
1697.05242,0.21657
1698.98089,0.22408
1700.90936,0.22277
1702.83783,0.21515
1704.76629,0.20992
1706.69476,0.20432
1708.62323,0.19570
1710.55170,0.18962
1712.48017,0.19208
1714.40864,0.20551
1716.33711,0.22074
1718.26558,0.21304
1720.19404,0.19368
1722.12251,0.18269
1724.05098,0.17733
1725.97945,0.17492
1727.90792,0.17865
1729.83639,0.18883
1731.76486,0.20126
1733.69332,0.21102
1735.62179,0.20703
1737.55026,0.19788
1739.47873,0.19200
1741.40720,0.18909
1743.33567,0.18759
1745.26414,0.18847
1747.19261,0.19565
1749.12107,0.20496
1751.04954,0.20148
1752.97801,0.18992
1754.90648,0.18553
1756.83495,0.18607
1758.76342,0.18389
1760.69189,0.18184
1762.62035,0.18268
1764.54882,0.18411
1766.47729,0.18760
1768.40576,0.19261
1770.33423,0.19640
1772.26270,0.19505
1774.19117,0.18874
1776.11964,0.18956
1778.04810,0.19708
1779.97657,0.20050
1781.90504,0.19605
1783.83351,0.19035
1785.76198,0.18473
1787.69045,0.18071
1789.61892,0.18372
1791.54738,0.19172
1793.47585,0.19470
1795.40432,0.19330
1797.33279,0.19311
1799.26126,0.19335
1801.18973,0.19077
1803.11820,0.18520
1805.04666,0.18068
1806.97513,0.17965
1808.90360,0.18308
1810.83207,0.18758
1812.76054,0.18673
1814.68901,0.18306
1816.61748,0.18133
1818.54595,0.18021
1820.47441,0.17822
1822.40288,0.17900
1824.33135,0.18398
1826.25982,0.18965
1828.18829,0.19556
1830.11676,0.19628
1832.04523,0.18862
1833.97369,0.18312
1835.90216,0.18185
1837.83063,0.18179
1839.75910,0.18458
1841.68757,0.19263
1843.61604,0.20061
1845.54451,0.19758
1847.47298,0.18851
1849.40144,0.18176
1851.32991,0.17748
1853.25838,0.17472
1855.18685,0.17508
1857.11532,0.17959
1859.04379,0.18501
1860.97226,0.18773
1862.90072,0.18642
1864.82919,0.18466
1866.75766,0.18805
1868.68613,0.19289
1870.61460,0.19058
1872.54307,0.18621
1874.47154,0.18585
1876.40001,0.18829
1878.32847,0.18983
1880.25694,0.18845
1882.18541,0.18532
1884.11388,0.18236
1886.04235,0.18166
1887.97082,0.18527
1889.89929,0.18916
1891.82775,0.18887
1893.75622,0.18787
1895.68469,0.18542
1897.61316,0.17922
1899.54163,0.17489
1901.47010,0.17648
1903.39857,0.18106
1905.32704,0.18462
1907.25550,0.18708
1909.18397,0.18856
1911.11244,0.18618
1913.04091,0.18110
1914.96938,0.17961
1916.89785,0.18443
1918.82632,0.19110
1920.75478,0.19565
1922.68325,0.19747
1924.61172,0.19366
1926.54019,0.18553
1928.46866,0.17859
1930.39713,0.17615
1932.32560,0.17792
1934.25407,0.18180
1936.18253,0.18522
1938.11100,0.18619
1940.03947,0.18599
1941.96794,0.18593
1943.89641,0.18475
1945.82488,0.18415
1947.75335,0.18594
1949.68181,0.18775
1951.61028,0.18879
1953.53875,0.18897
1955.46722,0.18661
1957.39569,0.18326
1959.32416,0.18111
1961.25263,0.17963
1963.18110,0.17973
1965.10956,0.18244
1967.03803,0.18458
1968.96650,0.18457
1970.89497,0.18479
1972.82344,0.18431
1974.75191,0.18289
1976.68038,0.18346
1978.60884,0.18523
1980.53731,0.18585
1982.46578,0.18599
1984.39425,0.18657
1986.32272,0.18777
1988.25119,0.18870
1990.17966,0.18813
1992.10812,0.18574
1994.03659,0.18199
1995.96506,0.17937
1997.89353,0.18005
1999.82200,0.18408
2001.75047,0.18824
2003.67894,0.18841
2005.60741,0.18448
2007.53587,0.17910
2009.46434,0.17598
2011.39281,0.17784
2013.32128,0.18348
2015.24975,0.18942
2017.17822,0.19212
2019.10669,0.19063
2021.03515,0.18780
2022.96362,0.18551
2024.89209,0.18405
2026.82056,0.18423
2028.74903,0.18650
2030.67750,0.19086
2032.60597,0.19401
2034.53444,0.19192
2036.46290,0.18838
2038.39137,0.18773
2040.31984,0.18782
2042.24831,0.18803
2044.17678,0.18990
2046.10525,0.19287
2048.03372,0.19482
2049.96218,0.19361
2051.89065,0.18916
2053.81912,0.18470
2055.74759,0.18389
2057.67606,0.18549
2059.60453,0.18641
2061.53300,0.18699
2063.46147,0.18847
2065.38993,0.19023
2067.31840,0.18961
2069.24687,0.18594
2071.17534,0.18316
2073.10381,0.18498
2075.03228,0.18913
2076.96075,0.19185
2078.88921,0.19295
2080.81768,0.19168
2082.74615,0.18817
2084.67462,0.18520
2086.60309,0.18538
2088.53156,0.18914
2090.46003,0.19312
2092.38850,0.19427
2094.31696,0.19343
2096.24543,0.19168
2098.17390,0.18882
2100.10237,0.18521
2102.03084,0.18196
2103.95931,0.18094
2105.88778,0.18236
2107.81624,0.18486
2109.74471,0.18941
2111.67318,0.19351
2113.60165,0.19125
2115.53012,0.18569
2117.45859,0.18429
2119.38706,0.18600
2121.31553,0.18691
2123.24399,0.18802
2125.17246,0.19141
2127.10093,0.19500
2129.02940,0.19464
2130.95787,0.19093
2132.88634,0.18698
2134.81481,0.18445
2136.74327,0.18511
2138.67174,0.18826
2140.60021,0.19163
2142.52868,0.19310
2144.45715,0.19028
2146.38562,0.18558
2148.31409,0.18396
2150.24255,0.18460
2152.17102,0.18388
2154.09949,0.18243
2156.02796,0.18307
2157.95643,0.18609
2159.88490,0.18883
2161.81337,0.18858
2163.74184,0.18609
2165.67030,0.18512
2167.59877,0.18783
2169.52724,0.19171
2171.45571,0.19306
2173.38418,0.19163
2175.31265,0.18906
2177.24112,0.18660
2179.16958,0.18617
2181.09805,0.18765
2183.02652,0.18802
2184.95499,0.18825
2186.88346,0.19077
2188.81193,0.19274
2190.74040,0.19143
2192.66887,0.18827
2194.59733,0.18490
2196.52580,0.18243
2198.45427,0.18238
2200.38274,0.18530
2202.31121,0.18988
2204.23968,0.19322
2206.16815,0.19356
2208.09661,0.19294
2210.02508,0.19288
2211.95355,0.19201
2213.88202,0.19067
2215.81049,0.19108
2217.73896,0.19228
2219.66743,0.19198
2221.59590,0.19064
2223.52436,0.18975
2225.45283,0.18920
2227.38130,0.18763
2229.30977,0.18621
2231.23824,0.18730
2233.16671,0.18930
2235.09518,0.18992
2237.02364,0.18936
2238.95211,0.18837
2240.88058,0.18771
2242.80905,0.18673
2244.73752,0.18409
2246.66599,0.18355
2248.59446,0.18892
2250.52293,0.19506
2252.45139,0.19648
2254.37986,0.19413
2256.30833,0.19051
2258.23680,0.18811
2260.16527,0.18759
2262.09374,0.18745
2264.02221,0.18752
2265.95067,0.18842
2267.87914,0.19039
2269.80761,0.19179
2271.73608,0.19107
2273.66455,0.19047
2275.59302,0.19137
2277.52149,0.19164
2279.44996,0.19022
2281.37842,0.18946
2283.30689,0.19094
2285.23536,0.19258
2287.16383,0.19238
2289.09230,0.19084
2291.02077,0.18902
2292.94924,0.18811
2294.87770,0.18935
2296.80617,0.19280
2298.73464,0.19736
2300.66311,0.20029
2302.59158,0.20041
2304.52005,0.20130
2306.44852,0.20467
2308.37699,0.20663
2310.30545,0.20731
2312.23392,0.21158
2314.16239,0.21575
2316.09086,0.21570
2318.01933,0.21487
2319.94780,0.21078
2321.87627,0.20240
2323.80473,0.20178
2325.73320,0.21681
2327.66167,0.23371
2329.59014,0.23651
2331.51861,0.23688
2333.44708,0.24594
2335.37555,0.24919
2337.30401,0.24363
2339.23248,0.23979
2341.16095,0.23490
2343.08942,0.22880
2345.01789,0.23036
2346.94636,0.23341
2348.87483,0.23131
2350.80330,0.22274
2352.73176,0.20645
2354.66023,0.19875
2356.58870,0.22292
2358.51717,0.25954
2360.44564,0.27930
2362.37411,0.28453
2364.30258,0.27207
2366.23104,0.24674
2368.15951,0.22901
2370.08798,0.22019
2372.01645,0.21609
2373.94492,0.21725
2375.87339,0.21875
2377.80186,0.21477
2379.73033,0.20543
2381.65879,0.19640
2383.58726,0.19194
2385.51573,0.19125
2387.44420,0.19237
2389.37267,0.19423
2391.30114,0.19551
2393.22961,0.19457
2395.15807,0.19205
2397.08654,0.18985
2399.01501,0.18883
2400.94348,0.19018
2402.87195,0.19250
2404.80042,0.19294
2406.72889,0.19287
2408.65736,0.19365
2410.58582,0.19376
2412.51429,0.19279
2414.44276,0.19077
2416.37123,0.18789
2418.29970,0.18691
2420.22817,0.18949
2422.15664,0.19380
2424.08510,0.19780
2426.01357,0.19949
2427.94204,0.19681
2429.87051,0.19121
2431.79898,0.18868
2433.72745,0.19083
2435.65592,0.19272
2437.58439,0.19405
2439.51285,0.19675
2441.44132,0.19675
2443.36979,0.19176
2445.29826,0.18723
2447.22673,0.18757
2449.15520,0.19041
2451.08367,0.19206
2453.01213,0.19221
2454.94060,0.19211
2456.86907,0.19247
2458.79754,0.19311
2460.72601,0.19209
2462.65448,0.18959
2464.58295,0.18846
2466.51142,0.18892
2468.43988,0.19092
2470.36835,0.19369
2472.29682,0.19386
2474.22529,0.19170
2476.15376,0.19054
2478.08223,0.19073
2480.01070,0.19162
2481.93916,0.19401
2483.86763,0.19741
2485.79610,0.19963
2487.72457,0.19958
2489.65304,0.19781
2491.58151,0.19506
2493.50998,0.19296
2495.43844,0.19290
2497.36691,0.19342
2499.29538,0.19418
2501.22385,0.19631
2503.15232,0.19767
2505.08079,0.19652
2507.00926,0.19434
2508.93773,0.19216
2510.86619,0.18981
2512.79466,0.18915
2514.72313,0.19102
2516.65160,0.19251
2518.58007,0.19253
2520.50854,0.19263
2522.43701,0.19352
2524.36547,0.19382
2526.29394,0.19173
2528.22241,0.18951
2530.15088,0.19150
2532.07935,0.19644
2534.00782,0.19828
2535.93629,0.19643
2537.86476,0.19521
2539.79322,0.19501
2541.72169,0.19393
2543.65016,0.19292
2545.57863,0.19432
2547.50710,0.19730
2549.43557,0.19852
2551.36404,0.19766
2553.29250,0.19636
2555.22097,0.19478
2557.14944,0.19357
2559.07791,0.19335
2561.00638,0.19413
2562.93485,0.19689
2564.86332,0.19955
2566.79179,0.19918
2568.72025,0.19616
2570.64872,0.19227
2572.57719,0.19018
2574.50566,0.19019
2576.43413,0.19138
2578.36260,0.19444
2580.29107,0.19800
2582.21953,0.19946
2584.14800,0.19804
2586.07647,0.19573
2588.00494,0.19516
2589.93341,0.19599
2591.86188,0.19630
2593.79035,0.19574
2595.71882,0.19526
2597.64728,0.19540
2599.57575,0.19599
2601.50422,0.19561
2603.43269,0.19378
2605.36116,0.19322
2607.28963,0.19446
2609.21810,0.19624
2611.14656,0.19922
2613.07503,0.20113
2615.00350,0.19991
2616.93197,0.19786
2618.86044,0.19573
2620.78891,0.19376
2622.71738,0.19349
2624.64585,0.19456
2626.57431,0.19693
2628.50278,0.19958
2630.43125,0.19930
2632.35972,0.19707
2634.28819,0.19532
2636.21666,0.19404
2638.14513,0.19500
2640.07359,0.19845
2642.00206,0.20205
2643.93053,0.20513
2645.85900,0.20452
2647.78747,0.19767
2649.71594,0.19044
2651.64441,0.18992
2653.57288,0.19459
2655.50134,0.19879
2657.42981,0.20212
2659.35828,0.20487
2661.28675,0.20423
2663.21522,0.20140
2665.14369,0.19915
2667.07216,0.19788
2669.00062,0.19759
2670.92909,0.19858
2672.85756,0.20162
2674.78603,0.20390
2676.71450,0.20203
2678.64297,0.19847
2680.57144,0.19654
2682.49990,0.19728
2684.42837,0.20005
2686.35684,0.20348
2688.28531,0.20708
2690.21378,0.20828
2692.14225,0.20358
2694.07072,0.19554
2695.99919,0.19093
2697.92765,0.19291
2699.85612,0.19823
2701.78459,0.20177
2703.71306,0.20249
2705.64153,0.20194
2707.57000,0.20171
2709.49847,0.20235
2711.42693,0.20183
2713.35540,0.20036
2715.28387,0.20067
2717.21234,0.20198
2719.14081,0.20370
2721.06928,0.20735
2722.99775,0.21043
2724.92622,0.20883
2726.85468,0.20349
2728.78315,0.19853
2730.71162,0.19790
2732.64009,0.20291
2734.56856,0.20773
2736.49703,0.20653
2738.42550,0.20243
2740.35396,0.19934
2742.28243,0.19779
2744.21090,0.19808
2746.13937,0.19931
2748.06784,0.20101
2749.99631,0.20432
2751.92478,0.20881
2753.85325,0.21033
2755.78171,0.20775
2757.71018,0.20590
2759.63865,0.20584
2761.56712,0.20496
2763.49559,0.20490
2765.42406,0.20682
2767.35253,0.20790
2769.28099,0.20733
2771.20946,0.20669
2773.13793,0.20652
2775.06640,0.20517
2776.99487,0.20200
2778.92334,0.20040
2780.85181,0.20172
2782.78028,0.20440
2784.70874,0.20866
2786.63721,0.21243
2788.56568,0.21196
2790.49415,0.20773
2792.42262,0.20311
2794.35109,0.20170
2796.27956,0.20524
2798.20802,0.21047
2800.13649,0.21378
2802.06496,0.21601
2803.99343,0.21646
2805.92190,0.21397
2807.85037,0.21052
2809.77884,0.20842
2811.70731,0.20905
2813.63577,0.21145
2815.56424,0.21307
2817.49271,0.21178
2819.42118,0.20752
2821.34965,0.20370
2823.27812,0.20465
2825.20659,0.20880
2827.13505,0.21029
2829.06352,0.21042
2830.99199,0.21232
2832.92046,0.21230
2834.84893,0.20944
2836.77740,0.20760
2838.70587,0.20750
2840.63433,0.20734
2842.56280,0.20817
2844.49127,0.21214
2846.41974,0.21696
2848.34821,0.21820
2850.27668,0.21531
2852.20515,0.21093
2854.13362,0.20757
2856.06208,0.20643
2857.99055,0.20847
2859.91902,0.21329
2861.84749,0.21654
2863.77596,0.21531
2865.70443,0.21210
2867.63290,0.21097
2869.56136,0.21158
2871.48983,0.20876
2873.41830,0.20366
2875.34677,0.20414
2877.27524,0.21093
2879.20371,0.21680
2881.13218,0.21565
2883.06065,0.20928
2884.98911,0.20560
2886.91758,0.20655
2888.84605,0.20855
2890.77452,0.21161
2892.70299,0.21376
2894.63146,0.21128
2896.55993,0.20785
2898.48839,0.20746
2900.41686,0.20871
2902.34533,0.20953
2904.27380,0.20967
2906.20227,0.21073
2908.13074,0.21220
2910.05921,0.21250
2911.98768,0.21245
2913.91614,0.20967
2915.84461,0.20374
2917.77308,0.20176
2919.70155,0.20500
2921.63002,0.20962
2923.55849,0.21121
2925.48696,0.20515
2927.41542,0.19889
2929.34389,0.19929
2931.27236,0.20110
2933.20083,0.20092
2935.12930,0.19850
2937.05777,0.19757
2938.98624,0.20452
2940.91471,0.21363
2942.84317,0.21414
2944.77164,0.20701
2946.70011,0.19863
2948.62858,0.19526
2950.55705,0.19900
2952.48552,0.20465
2954.41399,0.20711
2956.34245,0.20386
2958.27092,0.20282
2960.19939,0.20902
2962.12786,0.20950
2964.05633,0.20117
2965.98480,0.19474
2967.91327,0.19377
2969.84174,0.19929
2971.77020,0.20935
2973.69867,0.21513
2975.62714,0.20985
2977.55561,0.19658
2979.48408,0.18986
2981.41255,0.19696
2983.34102,0.20761
2985.26948,0.21361
2987.19795,0.21392
2989.12642,0.21357
2991.05489,0.21893
2992.98336,0.22208
2994.91183,0.21506
2996.84030,0.20428
2998.76877,0.19858
3000.69723,0.20246
3002.62570,0.21245
3004.55417,0.21807
3006.48264,0.21370
3008.41111,0.20435
3010.33958,0.19393
3012.26805,0.17675
3014.19651,0.14829
3016.12498,0.12579
3018.05345,0.13982
3019.98192,0.18135
3021.91039,0.20975
3023.83886,0.21484
3025.76733,0.20828
3027.69579,0.20100
3029.62426,0.20470
3031.55273,0.21597
3033.48120,0.22058
3035.40967,0.21724
3037.33814,0.21290
3039.26661,0.21143
3041.19508,0.21348
3043.12354,0.21597
3045.05201,0.21423
3046.98048,0.20919
3048.90895,0.21067
3050.83742,0.21934
3052.76589,0.22303
3054.69436,0.21708
3056.62282,0.20685
3058.55129,0.20258
3060.47976,0.20532
3062.40823,0.20701
3064.33670,0.20558
3066.26517,0.20281
3068.19364,0.20441
3070.12211,0.21178
3072.05057,0.21446
3073.97904,0.20501
3075.90751,0.19398
3077.83598,0.19845
3079.76445,0.21387
3081.69292,0.21987
3083.62139,0.20707
3085.54985,0.18982
3087.47832,0.18772
3089.40679,0.19590
3091.33526,0.19738
3093.26373,0.18914
3095.19220,0.18646
3097.12067,0.19905
3099.04914,0.21401
3100.97760,0.21736
3102.90607,0.20920
3104.83454,0.20287
3106.76301,0.20520
3108.69148,0.20908
3110.61995,0.21087
3112.54842,0.21123
3114.47688,0.21282
3116.40535,0.21613
3118.33382,0.21649
3120.26229,0.21182
3122.19076,0.20876
3124.11923,0.21482
3126.04770,0.22334
3127.97617,0.22399
3129.90463,0.21869
3131.83310,0.21582
3133.76157,0.21515
3135.69004,0.21295
3137.61851,0.21360
3139.54698,0.21911
3141.47545,0.22433
3143.40391,0.22558
3145.33238,0.22312
3147.26085,0.21725
3149.18932,0.21249
3151.11779,0.21330
3153.04626,0.21398
3154.97473,0.21273
3156.90320,0.21636
3158.83166,0.22602
3160.76013,0.23116
3162.68860,0.22492
3164.61707,0.21603
3166.54554,0.21168
3168.47401,0.21175
3170.40248,0.21603
3172.33094,0.22302
3174.25941,0.22874
3176.18788,0.22773
3178.11635,0.22318
3180.04482,0.22195
3181.97329,0.22026
3183.90176,0.21533
3185.83022,0.21213
3187.75869,0.21555
3189.68716,0.22508
3191.61563,0.23277
3193.54410,0.23270
3195.47257,0.22818
3197.40104,0.22511
3199.32951,0.22270
3201.25797,0.21834
3203.18644,0.21620
3205.11491,0.21760
3207.04338,0.21836
3208.97185,0.21647
3210.90032,0.21417
3212.82879,0.21669
3214.75725,0.21972
3216.68572,0.21615
3218.61419,0.21395
3220.54266,0.21934
3222.47113,0.22441
3224.39960,0.22369
3226.32807,0.22136
3228.25654,0.21919
3230.18500,0.21510
3232.11347,0.21205
3234.04194,0.21265
3235.97041,0.21463
3237.89888,0.21642
3239.82735,0.21851
3241.75582,0.22021
3243.68428,0.21816
3245.61275,0.21164
3247.54122,0.20652
3249.46969,0.20839
3251.39816,0.21384
3253.32663,0.21647
3255.25510,0.21998
3257.18357,0.22718
3259.11203,0.23026
3261.04050,0.22647
3262.96897,0.22009
3264.89744,0.21327
3266.82591,0.21033
3268.75438,0.21426
3270.68285,0.22057
3272.61131,0.22480
3274.53978,0.22533
3276.46825,0.22137
3278.39672,0.21609
3280.32519,0.21426
3282.25366,0.21630
3284.18213,0.21920
3286.11060,0.22032
3288.03906,0.21965
3289.96753,0.21790
3291.89600,0.21455
3293.82447,0.21001
3295.75294,0.20751
3297.68141,0.21128
3299.60988,0.21842
3301.53834,0.22109
3303.46681,0.21840
3305.39528,0.21491
3307.32375,0.21239
3309.25222,0.20956
3311.18069,0.20992
3313.10916,0.21629
3315.03763,0.22143
3316.96609,0.22053
3318.89456,0.21827
3320.82303,0.21675
3322.75150,0.21497
3324.67997,0.21563
3326.60844,0.21819
3328.53691,0.21987
3330.46537,0.22159
3332.39384,0.22271
3334.32231,0.22279
3336.25078,0.22340
3338.17925,0.22170
3340.10772,0.21586
3342.03619,0.21150
3343.96466,0.21204
3345.89312,0.21418
3347.82159,0.21598
3349.75006,0.21823
3351.67853,0.21922
3353.60700,0.21863
3355.53547,0.21778
3357.46394,0.21415
3359.39240,0.21173
3361.32087,0.21752
3363.24934,0.22810
3365.17781,0.23598
3367.10628,0.23585
3369.03475,0.22950
3370.96322,0.22439
3372.89168,0.22203
3374.82015,0.21923
3376.74862,0.21720
3378.67709,0.21938
3380.60556,0.22418
3382.53403,0.22682
3384.46250,0.22305
3386.39097,0.21359
3388.31943,0.20668
3390.24790,0.20776
3392.17637,0.21327
3394.10484,0.21931
3396.03331,0.22570
3397.96178,0.22919
3399.89025,0.22660
3401.81871,0.21796
3403.74718,0.20757
3405.67565,0.20501
3407.60412,0.20917
3409.53259,0.21185
3411.46106,0.21292
3413.38953,0.21235
3415.31800,0.20899
3417.24646,0.20603
3419.17493,0.20673
3421.10340,0.20787
3423.03187,0.20512
3424.96034,0.20398
3426.88881,0.20878
3428.81728,0.21323
3430.74574,0.21407
3432.67421,0.21339
3434.60268,0.20825
3436.53115,0.20081
3438.45962,0.19981
3440.38809,0.20625
3442.31656,0.21442
3444.24503,0.21738
3446.17349,0.21205
3448.10196,0.20553
3450.03043,0.20516
3451.95890,0.20743
3453.88737,0.20778
3455.81584,0.20686
3457.74431,0.20826
3459.67277,0.21188
3461.60124,0.21021
3463.52971,0.20102
3465.45818,0.19271
3467.38665,0.19210
3469.31512,0.19776
3471.24359,0.20189
3473.17206,0.19861
3475.10052,0.19273
3477.02899,0.19105
3478.95746,0.19114
3480.88593,0.18974
3482.81440,0.18795
3484.74287,0.18913
3486.67134,0.19345
3488.59980,0.19498
3490.52827,0.19261
3492.45674,0.19113
3494.38521,0.18964
3496.31368,0.18548
3498.24215,0.18191
3500.17062,0.18233
3502.09909,0.18687
3504.02755,0.19214
3505.95602,0.19490
3507.88449,0.19648
3509.81296,0.19574
3511.74143,0.19150
3513.66990,0.18436
3515.59837,0.17767
3517.52683,0.17736
3519.45530,0.18133
3521.38377,0.18553
3523.31224,0.18998
3525.24071,0.19152
3527.16918,0.18837
3529.09765,0.18291
3531.02611,0.17744
3532.95458,0.17744
3534.88305,0.18652
3536.81152,0.19498
3538.73999,0.19340
3540.66846,0.18767
3542.59693,0.18319
3544.52540,0.17886
3546.45386,0.17471
3548.38233,0.17297
3550.31080,0.17465
3552.23927,0.17638
3554.16774,0.17394
3556.09621,0.16891
3558.02468,0.16350
3559.95314,0.16118
3561.88161,0.16502
3563.81008,0.17303
3565.73855,0.18598
3567.66702,0.19392
3569.59549,0.18493
3571.52396,0.17503
3573.45243,0.17065
3575.38089,0.16739
3577.30936,0.16531
3579.23783,0.16579
3581.16630,0.16616
3583.09477,0.16532
3585.02324,0.16689
3586.95171,0.16913
3588.88017,0.16340
3590.80864,0.15602
3592.73711,0.15519
3594.66558,0.15954
3596.59405,0.16346
3598.52252,0.16382
3600.45099,0.16190
3602.37946,0.15854
3604.30792,0.15413
3606.23639,0.14961
3608.16486,0.14629
3610.09333,0.14874
3612.02180,0.15786
3613.95027,0.16719
3615.87874,0.17176
3617.80720,0.17053
3619.73567,0.15962
3621.66414,0.14691
3623.59261,0.14314
3625.52108,0.14821
3627.44955,0.16091
3629.37802,0.17214
3631.30649,0.16995
3633.23495,0.16141
3635.16342,0.14999
3637.09189,0.14041
3639.02036,0.13579
3640.94883,0.13660
3642.87730,0.14138
3644.80577,0.14808
3646.73423,0.15792
3648.66270,0.16482
3650.59117,0.15598
3652.51964,0.14501
3654.44811,0.13959
3656.37658,0.13742
3658.30505,0.13746
3660.23352,0.13882
3662.16198,0.13956
3664.09045,0.13901
3666.01892,0.13871
3667.94739,0.13933
3669.87586,0.13895
3671.80433,0.13766
3673.73280,0.14348
3675.66126,0.15819
3677.58973,0.16004
3679.51820,0.14850
3681.44667,0.13810
3683.37514,0.13357
3685.30361,0.13468
3687.23208,0.14155
3689.16055,0.15019
3691.08901,0.14903
3693.01748,0.14344
3694.94595,0.14038
3696.87442,0.13728
3698.80289,0.13616
3700.73136,0.13753
3702.65983,0.13354
3704.58829,0.13047
3706.51676,0.13837
3708.44523,0.15189
3710.37370,0.16002
3712.30217,0.15445
3714.23064,0.14294
3716.15911,0.13764
3718.08757,0.14115
3720.01604,0.14821
3721.94451,0.15315
3723.87298,0.15523
3725.80145,0.15113
3727.72992,0.14222
3729.65839,0.13812
3731.58686,0.14413
3733.51532,0.15555
3735.44379,0.16112
3737.37226,0.16068
3739.30073,0.15578
3741.22920,0.14710
3743.15767,0.14146
3745.08614,0.14627
3747.01460,0.15433
3748.94307,0.16170
3750.87154,0.16530
3752.80001,0.15587
3754.72848,0.14841
3756.65695,0.14773
3758.58542,0.14241
3760.51389,0.13075
3762.44235,0.12627
3764.37082,0.12679
3766.29929,0.12625
3768.22776,0.12747
3770.15623,0.12846
3772.08470,0.12605
3774.01317,0.12420
3775.94163,0.12387
3777.87010,0.12483
3779.79857,0.12470
3781.72704,0.12228
3783.65551,0.12239
3785.58398,0.12445
3787.51245,0.12447
3789.44092,0.12343
3791.36938,0.12386
3793.29785,0.12655
3795.22632,0.12969
3797.15479,0.12990
3799.08326,0.13258
3801.01173,0.14436
3802.94020,0.14837
3804.86866,0.14011
3806.79713,0.13176
3808.72560,0.12573
3810.65407,0.12324
3812.58254,0.12323
3814.51101,0.12441
3816.43948,0.12572
3818.36795,0.13031
3820.29641,0.13865
3822.22488,0.13613
3824.15335,0.12737
3826.08182,0.12441
3828.01029,0.12365
3829.93876,0.12349
3831.86723,0.12652
3833.79569,0.13312
3835.72416,0.14062
3837.65263,0.14239
3839.58110,0.13274
3841.50957,0.12281
3843.43804,0.12064
3845.36651,0.12183
3847.29498,0.12299
3849.22344,0.12866
3851.15191,0.14389
3853.08038,0.15636
3855.00885,0.13940
3856.93732,0.12124
3858.86579,0.11511
3860.79426,0.11859
3862.72272,0.12654
3864.65119,0.12890
3866.57966,0.12560
3868.50813,0.12496
3870.43660,0.12475
3872.36507,0.12286
3874.29354,0.12263
3876.22200,0.12117
3878.15047,0.12266
3880.07894,0.13177
3882.00741,0.13917
3883.93588,0.13933
3885.86435,0.13299
3887.79282,0.12316
3889.72129,0.11550
3891.64975,0.11012
3893.57822,0.11102
3895.50669,0.11722
3897.43516,0.12561
3899.36363,0.13407
3901.29210,0.13398
3903.22057,0.12359
3905.14903,0.11216
3907.07750,0.10530
3909.00597,0.10430
3910.93444,0.10987
3912.86291,0.11701
3914.79138,0.11973
3916.71985,0.11737
3918.64832,0.11187
3920.57678,0.11062
3922.50525,0.11507
3924.43372,0.11682
3926.36219,0.11499
3928.29066,0.11458
3930.21913,0.11440
3932.14760,0.11076
3934.07606,0.10468
3936.00453,0.10120
3937.93300,0.10128
3939.86147,0.10217
3941.78994,0.10323
3943.71841,0.10688
3945.64688,0.11259
3947.57535,0.11539
3949.50381,0.11222
3951.43228,0.10695
3953.36075,0.10309
3955.28922,0.09973
3957.21769,0.09925
3959.14616,0.10524
3961.07463,0.11324
3963.00309,0.11561
3964.93156,0.11347
3966.86003,0.11194
3968.78850,0.10903
3970.71697,0.10384
3972.64544,0.10260
3974.57391,0.10501
3976.50238,0.10572
3978.43084,0.10417
3980.35931,0.09845
3982.28778,0.09023
3984.21625,0.08778
3986.14472,0.09284
3988.07319,0.09938
3990.00166,0.10167
3991.93012,0.10071
3993.85859,0.10055
3995.78706,0.09859
3997.71553,0.09177
3999.64400,0.08502
4001.57247,0.08642
4003.50094,0.09513
4005.42941,0.09914
4007.35787,0.09469
4009.28634,0.09181
4011.21481,0.09405
4013.14328,0.09516
4015.07175,0.09413
4017.00022,0.09600
4018.92869,0.10042
4020.85715,0.10193
4022.78562,0.09945
4024.71409,0.09692
4026.64256,0.09782
4028.57103,0.09932
4030.49950,0.09798
4032.42797,0.09797
4034.35644,0.10177
4036.28490,0.10420
4038.21337,0.10106
4040.14184,0.09346
4042.07031,0.08649
4043.99878,0.08327
4045.92725,0.08019
4047.85572,0.07572
4049.78418,0.07563
4051.71265,0.08273
4053.64112,0.09200
4055.56959,0.09542
4057.49806,0.09200
4059.42653,0.08871
4061.35500,0.08524
4063.28346,0.08033
4065.21193,0.08239
4067.14040,0.09077
4069.06887,0.09503
4070.99734,0.09315
4072.92581,0.08857
4074.85428,0.08202
4076.78275,0.07593
4078.71121,0.07327
4080.63968,0.07529
4082.56815,0.08331
4084.49662,0.09111
4086.42509,0.09163
4088.35356,0.08834
4090.28203,0.08455
4092.21049,0.07906
4094.13896,0.07454
4096.06743,0.07515
4097.99590,0.07977
4099.92437,0.08492
4101.85284,0.08820
4103.78131,0.09006
4105.70978,0.08828
4107.63824,0.07876
4109.56671,0.06961
4111.49518,0.06901
4113.42365,0.07332
4115.35212,0.07893
4117.28059,0.08269
4119.20906,0.08137
4121.13752,0.07707
4123.06599,0.07234
4124.99446,0.06706
4126.92293,0.06516
4128.85140,0.07173
4130.77987,0.08063
4132.70834,0.08277
4134.63681,0.07853
4136.56527,0.07191
4138.49374,0.06697
4140.42221,0.06720
4142.35068,0.07314
4144.27915,0.08170
4146.20762,0.08698
4148.13609,0.08725
4150.06455,0.08358
4151.99302,0.07459
4153.92149,0.06490
4155.84996,0.06253
4157.77843,0.06630
4159.70690,0.06904
4161.63537,0.06617
4163.56384,0.05891
4165.49230,0.05513
4167.42077,0.05885
4169.34924,0.06174
4171.27771,0.06009
4173.20618,0.06200
4175.13465,0.06932
4177.06312,0.07461
4178.99158,0.07262
4180.92005,0.06855
4182.84852,0.06967
4184.77699,0.07201
4186.70546,0.06868
4188.63393,0.06350
4190.56240,0.06425
4192.49087,0.06818
4194.41933,0.07024
4196.34780,0.07046
4198.27627,0.06626
4200.20474,0.05807
4202.13321,0.05143
4204.06168,0.04890
4205.99015,0.05124
4207.91861,0.05907
4209.84708,0.06870
4211.77555,0.07174
4213.70402,0.06572
4215.63249,0.05847
4217.56096,0.05524
4219.48943,0.05462
4221.41789,0.05583
4223.34636,0.05663
4225.27483,0.05470
4227.20330,0.05304
4229.13177,0.05438
4231.06024,0.05560
4232.98871,0.05353
4234.91718,0.05193
4236.84564,0.05406
4238.77411,0.05770
4240.70258,0.06168
4242.63105,0.06447
4244.55952,0.06211
4246.48799,0.05588
4248.41646,0.05318
4250.34492,0.05554
4252.27339,0.05936
4254.20186,0.06435
4256.13033,0.06630
4258.05880,0.06008
4259.98727,0.05024
4261.91574,0.04301
4263.84421,0.03946
4265.77267,0.03852
4267.70114,0.03890
4269.62961,0.03947
4271.55808,0.04069
4273.48655,0.04537
4275.41502,0.05178
4277.34349,0.05309
4279.27195,0.04777
4281.20042,0.04159
4283.12889,0.04087
4285.05736,0.04476
4286.98583,0.04665
4288.91430,0.04525
4290.84277,0.04454
4292.77124,0.04343
4294.69970,0.04025
4296.62817,0.03634
4298.55664,0.03255
4300.48511,0.03486
4302.41358,0.04298
4304.34205,0.04781
4306.27052,0.04924
4308.19898,0.04964
4310.12745,0.04663
4312.05592,0.03910
4313.98439,0.03130
4315.91286,0.03084
4317.84133,0.03575
4319.76980,0.03685
4321.69827,0.03179
4323.62673,0.02360
4325.55520,0.01765
4327.48367,0.01645
4329.41214,0.01577
4331.34061,0.01786
4333.26908,0.02544
4335.19755,0.03173
4337.12601,0.03544
4339.05448,0.03564
4340.98295,0.02677
4342.91142,0.01550
4344.83989,0.01281
4346.76836,0.01933
4348.69683,0.03100
4350.62530,0.04154
4352.55376,0.04321
4354.48223,0.03638
4356.41070,0.02941
4358.33917,0.02452
4360.26764,0.01969
4362.19611,0.01728
4364.12458,0.01860
4366.05304,0.02225
4367.98151,0.02607
4369.90998,0.02713
4371.83845,0.02569
4373.76692,0.02375
4375.69539,0.02265
4377.62386,0.02575
4379.55232,0.03078
4381.48079,0.03238
4383.40926,0.03421
4385.33773,0.03627
4387.26620,0.02959
4389.19467,0.01441
4391.12314,0.00439
4393.05161,0.00874
4394.98007,0.02180
4396.90854,0.03010
4398.83701,0.02649
4400.76548,0.01708
4402.69395,0.01031
4404.62242,0.00833
4406.55089,0.00886
4408.47935,0.01039
4410.40782,0.01331
4412.33629,0.01680
4414.26476,0.01815
4416.19323,0.01516
4418.12170,0.01330
4420.05017,0.01473
4421.97864,0.01115
4423.90710,0.00490
4425.83557,0.00526
4427.76404,0.01025
4429.69251,0.01686
4431.62098,0.02405
4433.54945,0.02426
4435.47792,0.01704
4437.40638,0.00923
4439.33485,0.00215
4441.26332,-0.00031
4443.19179,0.00520
4445.12026,0.01130
4447.04873,0.01281
4448.97720,0.01476
4450.90567,0.01744
4452.83413,0.01633
4454.76260,0.01485
4456.69107,0.01535
4458.61954,0.01721
4460.54801,0.02063
4462.47648,0.01924
4464.40495,0.01169
4466.33341,0.00556
4468.26188,0.00192
4470.19035,-0.00315
4472.11882,-0.00772
4474.04729,-0.00600
4475.97576,0.00023
4477.90423,0.00328
4479.83270,0.00116
4481.76116,-0.00095
4483.68963,-0.00106
4485.61810,-0.00250
4487.54657,-0.00313
4489.47504,0.00205
4491.40351,0.01051
4493.33198,0.01442
4495.26044,0.01501
4497.18891,0.01798
4499.11738,0.01881
4501.04585,0.01254
4502.97432,0.00568
4504.90279,0.00669
4506.83126,0.01016
4508.75973,0.00741
4510.68819,0.00098
4512.61666,-0.00222
4514.54513,0.00393
4516.47360,0.01216
4518.40207,0.00901
4520.33054,-0.00070
4522.25901,-0.00378
4524.18747,-0.00055
4526.11594,0.00388
4528.04441,0.00446
4529.97288,-0.00120
4531.90135,-0.00622
4533.82982,-0.00877
4535.75829,-0.01028
4537.68676,-0.00803
4539.61522,-0.00015
4541.54369,0.00771
4543.47216,0.00546
4545.40063,-0.00251
4547.32910,-0.00553
4549.25757,-0.00534
4551.18604,-0.00347
4553.11450,0.00299
4555.04297,0.01064
4556.97144,0.01743
4558.89991,0.02055
4560.82838,0.01661
4562.75685,0.01139
4564.68532,0.00812
4566.61378,0.00551
4568.54225,0.00782
4570.47072,0.01598
4572.39919,0.01987
4574.32766,0.01111
4576.25613,-0.00413
4578.18460,-0.01148
4580.11307,-0.00996
4582.04153,-0.01049
4583.97000,-0.01276
4585.89847,-0.00799
4587.82694,0.00426
4589.75541,0.01367
4591.68388,0.01248
4593.61235,0.00547
4595.54081,0.00338
4597.46928,0.00861
4599.39775,0.01222
4601.32622,0.01235
4603.25469,0.01677
4605.18316,0.02261
4607.11163,0.02040
4609.04010,0.01359
4610.96856,0.00526
4612.89703,-0.00882
4614.82550,-0.02023
4616.75397,-0.01546
4618.68244,0.00277
4620.61091,0.01711
4622.53938,0.01547
4624.46784,0.00187
4626.39631,-0.00975
4628.32478,-0.00588
4630.25325,0.01033
4632.18172,0.02301
4634.11019,0.02576
4636.03866,0.01861
4637.96713,0.00658
4639.89559,0.00244
4641.82406,0.00499
4643.75253,0.00686
4645.68100,0.01540
4647.60947,0.02532
4649.53794,0.01870
4651.46641,0.00198
4653.39487,-0.00866
4655.32334,-0.00808
4657.25181,0.00114
4659.18028,0.00136
4661.10875,-0.01424
4663.03722,-0.02591
4664.96569,-0.02288
4666.89416,-0.00854
4668.82262,0.00556
4670.75109,0.01221
4672.67956,0.01026
4674.60803,0.00148
4676.53650,-0.00259
4678.46497,0.00223
4680.39344,0.00547
4682.32190,0.00587
4684.25037,0.00826
4686.17884,0.01032
4688.10731,0.01166
4690.03578,0.01319
4691.96425,0.01070
4693.89272,0.00486
4695.82119,-0.00096
4697.74965,-0.00561
4699.67812,-0.00208
4701.60659,0.00742
4703.53506,0.01438
4705.46353,0.01863
4707.39200,0.01977
4709.32047,0.01856
4711.24893,0.01525
4713.17740,0.01009
4715.10587,0.00520
4717.03434,0.00441
4718.96281,0.01081
4720.89128,0.01922
4722.81975,0.02660
4724.74821,0.02933
4726.67668,0.02424
4728.60515,0.01826
4730.53362,0.00946
4732.46209,-0.00057
4734.39056,0.00068
4736.31903,0.00885
4738.24750,0.01010
4740.17596,0.00203
4742.10443,-0.00624
4744.03290,-0.00753
4745.96137,-0.00810
4747.88984,-0.01128
4749.81831,-0.00843
4751.74678,-0.00126
4753.67524,0.00231
4755.60371,0.00341
4757.53218,0.00228
4759.46065,-0.00270
4761.38912,-0.00724
4763.31759,-0.00485
4765.24606,0.00526
4767.17453,0.01285
4769.10299,0.00898
4771.03146,0.00086
4772.95993,-0.00424
4774.88840,-0.00552
4776.81687,-0.00024
4778.74534,0.00990
4780.67381,0.01777
4782.60227,0.02096
4784.53074,0.02057
4786.45921,0.01242
4788.38768,-0.00228
4790.31615,-0.01312
4792.24462,-0.01175
4794.17309,0.00289
4796.10156,0.02025
4798.03002,0.02556
4799.95849,0.01466
4801.88696,0.00007
4803.81543,-0.00274
4805.74390,0.00235
4807.67237,0.00508
4809.60084,0.00773
4811.52930,0.01328
4813.45777,0.02172
4815.38624,0.02874
4817.31471,0.02475
4819.24318,0.01371
4821.17165,0.00817
4823.10012,0.01062
4825.02859,0.01498
4826.95705,0.01288
4828.88552,0.01084
4830.81399,0.01790
4832.74246,0.02157
4834.67093,0.01673
4836.59940,0.01281
4838.52787,0.00774
4840.45633,0.00410
4842.38480,0.00788
4844.31327,0.00988
4846.24174,0.00513
4848.17021,-0.00309
4850.09868,-0.00654
4852.02715,0.00016
4853.95562,0.00507
4855.88408,0.00232
4857.81255,-0.00071
4859.74102,-0.00255
4861.66949,-0.00353
4863.59796,-0.00379
4865.52643,-0.00517
4867.45490,-0.00528
4869.38336,-0.00137
4871.31183,0.00420
4873.24030,0.00684
4875.16877,0.00339
4877.09724,-0.00334
4879.02571,-0.00587
4880.95418,0.00363
4882.88265,0.01792
4884.81111,0.02288
4886.73958,0.01997
4888.66805,0.01839
4890.59652,0.01151
4892.52499,-0.00351
4894.45346,-0.01167
4896.38193,-0.01441
4898.31039,-0.02193
4900.23886,-0.01835
4902.16733,0.00539
4904.09580,0.02465
4906.02427,0.01918
4907.95274,-0.00205
4909.88121,-0.02256
4911.80967,-0.02791
4913.73814,-0.01775
4915.66661,-0.00403
4917.59508,0.00189
4919.52355,0.00160
4921.45202,0.00237
4923.38049,0.00309
4925.30896,0.00072
4927.23742,0.00059
4929.16589,0.00805
4931.09436,0.01614
4933.02283,0.01625
4934.95130,0.01055
4936.87977,0.00915
4938.80824,0.01344
4940.73670,0.01394
4942.66517,0.01171
4944.59364,0.01336
4946.52211,0.01675
4948.45058,0.01809
4950.37905,0.01879
4952.30752,0.01808
4954.23599,0.01602
4956.16445,0.01767
4958.09292,0.01858
4960.02139,0.01660
4961.94986,0.01726
4963.87833,0.01582
4965.80680,0.00629
4967.73527,-0.00676
4969.66373,-0.01314
4971.59220,-0.00471
4973.52067,0.01040
4975.44914,0.01582
4977.37761,0.01629
4979.30608,0.02432
4981.23455,0.03329
4983.16302,0.02966
4985.09148,0.01614
4987.01995,0.00458
4988.94842,-0.00622
4990.87689,-0.01581
4992.80536,-0.01446
4994.73383,-0.00547
4996.66230,-0.00066
4998.59076,-0.00065
5000.51923,0.00453
5002.44770,0.00984
5004.37617,-0.00067
5006.30464,-0.01576
5008.23311,-0.01505
5010.16158,0.00094
5012.09005,0.01740
5014.01851,0.02457
5015.94698,0.03096
5017.87545,0.03204
5019.80392,0.01252
5021.73239,-0.00627
5023.66086,0.00035
5025.58933,0.01569
5027.51779,0.01975
5029.44626,0.01231
5031.37473,-0.00130
5033.30320,-0.01070
5035.23167,-0.01651
5037.16014,-0.02255
5039.08861,-0.01800
5041.01708,-0.00361
5042.94554,0.00613
5044.87401,0.00997
5046.80248,0.01467
5048.73095,0.01370
5050.65942,0.00009
5052.58789,-0.01242
5054.51636,-0.00769
5056.44482,0.00851
5058.37329,0.01366
5060.30176,0.00568
5062.23023,0.00656
5064.15870,0.01362
5066.08717,0.00670
5068.01564,-0.00690
5069.94410,-0.00696
5071.87257,0.00920
5073.80104,0.02001
5075.72951,0.00963
5077.65798,0.00085
5079.58645,0.00811
5081.51492,0.01042
5083.44339,0.00342
5085.37185,0.00263
5087.30032,0.01084
5089.22879,0.02129
5091.15726,0.02431
5093.08573,0.01618
5095.01420,0.01047
5096.94267,0.01517
5098.87113,0.02365
5100.79960,0.03325
5102.72807,0.04083
5104.65654,0.04016
5106.58501,0.02977
5108.51348,0.01161
5110.44195,-0.00817
5112.37042,-0.02070
5114.29888,-0.01572
5116.22735,0.00631
5118.15582,0.02371
5120.08429,0.02248
5122.01276,0.01323
5123.94123,0.00307
5125.86970,-0.01323
5127.79816,-0.02810
5129.72663,-0.02451
5131.65510,-0.00440
5133.58357,0.01695
5135.51204,0.03474
5137.44051,0.04645
5139.36898,0.03755
5141.29745,0.01208
5143.22591,-0.00369
5145.15438,-0.00138
5147.08285,0.01307
5149.01132,0.02868
5150.93979,0.03047
5152.86826,0.02053
5154.79673,0.01100
5156.72519,0.00999
5158.65366,0.01483
5160.58213,0.01489
5162.51060,0.00978
5164.43907,0.01154
5166.36754,0.02305
5168.29601,0.03052
5170.22448,0.03587
5172.15294,0.04167
5174.08141,0.02962
5176.00988,0.01022
5177.93835,0.00852
5179.86682,0.01530
5181.79529,0.01847
5183.72376,0.02616
5185.65222,0.03543
5187.58069,0.03643
5189.50916,0.03189
5191.43763,0.02530
5193.36610,0.02228
5195.29457,0.02561
5197.22304,0.03316
5199.15151,0.04308
5201.07997,0.04810
5203.00844,0.04056
5204.93691,0.02594
5206.86538,0.02664
5208.79385,0.04070
5210.72232,0.04884
5212.65079,0.05855
5214.57925,0.06311
5216.50772,0.04505
5218.43619,0.01692
5220.36466,0.00164
5222.29313,0.00150
5224.22160,0.00675
5226.15007,0.01717
5228.07854,0.03639
5230.00700,0.04396
5231.93547,0.02532
5233.86394,0.00533
5235.79241,0.00086
5237.72088,-0.00224
5239.64935,-0.00451
5241.57782,0.00829
5243.50628,0.03076
5245.43475,0.04923
5247.36322,0.06041
5249.29169,0.05291
5251.22016,0.02839
5253.14863,0.01150
5255.07710,0.01676
5257.00556,0.03556
5258.93403,0.04102
5260.86250,0.03381
5262.79097,0.03805
5264.71944,0.04373
5266.64791,0.02200
5268.57638,-0.00996
5270.50485,-0.00900
5272.43331,0.01953
5274.36178,0.02726
5276.29025,0.00699
5278.21872,-0.00007
5280.14719,0.01601
5282.07566,0.02294
5284.00413,0.01594
5285.93259,0.00652
5287.86106,-0.00324
5289.78953,-0.00519
5291.71800,-0.00046
5293.64647,0.00327
5295.57494,0.01865
5297.50341,0.04068
5299.43188,0.03916
5301.36034,0.02418
5303.28881,0.02577
5305.21728,0.03975
5307.14575,0.05352
5309.07422,0.06100
5311.00269,0.05942
5312.93116,0.04974
5314.85962,0.03318
5316.78809,0.01791
5318.71656,0.01348
5320.64503,0.01525
5322.57350,0.01838
5324.50197,0.03091
5326.43044,0.05010
5328.35891,0.05583
5330.28737,0.04954
5332.21584,0.04040
5334.14431,0.01957
5336.07278,0.00020
5338.00125,0.00686
5339.92972,0.03189
5341.85819,0.05480
5343.78665,0.06427
5345.71512,0.05072
5347.64359,0.02701
5349.57206,0.00820
5351.50053,0.00767
5353.42900,0.03728
5355.35747,0.06497
5357.28594,0.06573
5359.21440,0.06411
5361.14287,0.06686
5363.07134,0.05956
5364.99981,0.04861
5366.92828,0.04848
5368.85675,0.05311
5370.78522,0.05318
5372.71368,0.04860
5374.64215,0.04420
5376.57062,0.03958
5378.49909,0.03058
5380.42756,0.02965
5382.35603,0.04276
5384.28450,0.06959
5386.21297,0.10516
5388.14143,0.11330
5390.06990,0.08865
5391.99837,0.06090
5393.92684,0.03830
5395.85531,0.02260
5397.78378,0.01956
5399.71225,0.01947
5401.64071,0.02587
5403.56918,0.04834
5405.49765,0.06094
5407.42612,0.04766
5409.35459,0.02975
5411.28306,0.01521
5413.21153,0.00768
5415.13999,0.02035
5417.06846,0.03983
5418.99693,0.04881
5420.92540,0.04196
5422.85387,0.02654
5424.78234,0.02080
5426.71081,0.03029
5428.63928,0.04198
5430.56774,0.04176
5432.49621,0.04080
5434.42468,0.05780
5436.35315,0.07290
5438.28162,0.06300
5440.21009,0.04191
5442.13856,0.02322
5444.06702,0.01394
5445.99549,0.03103
5447.92396,0.07214
5449.85243,0.10260
5451.78090,0.10276
5453.70937,0.08680
5455.63784,0.07011
5457.56631,0.05427
5459.49477,0.05022
5461.42324,0.06565
5463.35171,0.07874
5465.28018,0.07398
5467.20865,0.06475
5469.13712,0.06032
5471.06559,0.05549
5472.99405,0.05631
5474.92252,0.06076
5476.85099,0.05086
5478.77946,0.03510
5480.70793,0.03834
5482.63640,0.05109
5484.56487,0.03608
5486.49334,0.00994
5488.42180,0.01132
5490.35027,0.03359
5492.27874,0.06376
5494.20721,0.08820
5496.13568,0.09152
5498.06415,0.07875
5499.99262,0.06181
5501.92108,0.03753
5503.84955,0.01348
5505.77802,0.01638
5507.70649,0.03814
5509.63496,0.05898
5511.56343,0.08122
5513.49190,0.09078
5515.42037,0.08007
5517.34883,0.07371
5519.27730,0.07511
5521.20577,0.06852
5523.13424,0.05967
5525.06271,0.05976
5526.99118,0.06448
5528.91965,0.06948
5530.84811,0.07424
5532.77658,0.06435
5534.70505,0.04128
5536.63352,0.02379
5538.56199,0.01407
5540.49046,0.00992
5542.41893,0.01425
5544.34740,0.03568
5546.27586,0.05793
5548.20433,0.04784
5550.13280,0.02935
5552.06127,0.03711
5553.98974,0.06038
5555.91821,0.08273
5557.84668,0.09409
5559.77514,0.09349
5561.70361,0.09766
5563.63208,0.09668
5565.56055,0.06676
5567.48902,0.03057
5569.41749,0.01544
5571.34596,0.00967
5573.27443,0.01663
5575.20289,0.04571
5577.13136,0.06021
5579.05983,0.04788
5580.98830,0.03943
5582.91677,0.03716
5584.84524,0.03682
5586.77371,0.04903
5588.70217,0.05903
5590.63064,0.05401
5592.55911,0.04518
5594.48758,0.03707
5596.41605,0.02404
5598.34452,0.00278
5600.27299,-0.00363
5602.20145,0.03359
5604.12992,0.08284
5606.05839,0.09446
5607.98686,0.07720
5609.91533,0.05958
5611.84380,0.04849
5613.77227,0.04522
5615.70074,0.03559
5617.62920,0.01086
5619.55767,0.00239
5621.48614,0.03241
5623.41461,0.06987
5625.34308,0.07054
5627.27155,0.04175
5629.20002,0.02830
5631.12848,0.02966
5633.05695,0.03380
5634.98542,0.06375
5636.91389,0.10411
5638.84236,0.10222
5640.77083,0.07099
5642.69930,0.06415
5644.62777,0.08320
5646.55623,0.08916
5648.48470,0.06334
5650.41317,0.02453
5652.34164,0.02022
5654.27011,0.06212
5656.19858,0.09417
5658.12705,0.09169
5660.05551,0.07907
5661.98398,0.05971
5663.91245,0.04198
5665.84092,0.06260
5667.76939,0.10606
5669.69786,0.11465
5671.62633,0.09075
5673.55480,0.06205
5675.48326,0.02265
5677.41173,-0.00506
5679.34020,0.00389
5681.26867,0.03339
5683.19714,0.06869
5685.12561,0.09247
5687.05408,0.10442
5688.98254,0.11588
5690.91101,0.10196
5692.83948,0.06619
5694.76795,0.05438
5696.69642,0.06907
5698.62489,0.08407
5700.55336,0.09180
5702.48183,0.08876
5704.41029,0.06263
5706.33876,0.02029
5708.26723,-0.00848
5710.19570,-0.00638
5712.12417,0.03552
5714.05264,0.10407
5715.98111,0.15666
5717.90957,0.16707
5719.83804,0.12716
5721.76651,0.06414
5723.69498,0.03195
5725.62345,0.04939
5727.55192,0.08212
5729.48039,0.09341
5731.40886,0.09133
5733.33732,0.08396
5735.26579,0.07062
5737.19426,0.06825
5739.12273,0.07330
5741.05120,0.07188
5742.97967,0.06751
5744.90814,0.06663
5746.83660,0.07916
5748.76507,0.09721
5750.69354,0.09815
5752.62201,0.08464
5754.55048,0.07356
5756.47895,0.06558
5758.40742,0.05462
5760.33588,0.05374
5762.26435,0.07314
5764.19282,0.08892
5766.12129,0.09754
5768.04976,0.11117
5769.97823,0.10003
5771.90670,0.05446
5773.83517,0.01482
5775.76363,0.00902
5777.69210,0.03615
5779.62057,0.06033
5781.54904,0.05671
5783.47751,0.06336
5785.40598,0.09568
5787.33445,0.10076
5789.26291,0.07125
5791.19138,0.06280
5793.11985,0.09112
5795.04832,0.12608
5796.97679,0.13556
5798.90526,0.12354
5800.83373,0.09946
5802.76220,0.06048
5804.69066,0.02834
5806.61913,0.02266
5808.54760,0.05209
5810.47607,0.08986
5812.40454,0.09123
5814.33301,0.07011
5816.26148,0.05147
5818.18994,0.03618
5820.11841,0.02456
5822.04688,0.01611
5823.97535,0.02825
5825.90382,0.07756
5827.83229,0.13021
5829.76076,0.13532
5831.68923,0.10356
5833.61769,0.07499
5835.54616,0.05221
5837.47463,0.02080
5839.40310,0.00834
5841.33157,0.03074
5843.26004,0.05066
5845.18851,0.06024
5847.11697,0.06321
5849.04544,0.05204
5850.97391,0.03849
5852.90238,0.02990
5854.83085,0.03777
5856.75932,0.06779
5858.68779,0.08794
5860.61626,0.08679
5862.54472,0.08868
5864.47319,0.08861
5866.40166,0.08483
5868.33013,0.09760
5870.25860,0.12125
5872.18707,0.13015
5874.11554,0.11535
5876.04400,0.10565
5877.97247,0.11200
5879.90094,0.11544
5881.82941,0.10254
5883.75788,0.07437
5885.68635,0.07145
5887.61482,0.10655
5889.54329,0.12884
5891.47175,0.10663
5893.40022,0.06757
5895.32869,0.04212
5897.25716,0.03679
5899.18563,0.05352
5901.11410,0.07094
5903.04257,0.06298
5904.97103,0.05453
5906.89950,0.07662
5908.82797,0.09408
5910.75644,0.07685
5912.68491,0.05334
5914.61338,0.04637
5916.54185,0.06155
5918.47032,0.08405
5920.39878,0.09341
5922.32725,0.07311
5924.25572,0.03124
5926.18419,0.01228
5928.11266,0.01534
5930.04113,0.01624
5931.96960,0.02418
5933.89806,0.04452
5935.82653,0.06710
5937.75500,0.08354
5939.68347,0.09989
5941.61194,0.10334
5943.54041,0.06770
5945.46888,0.03315
5947.39734,0.05529
5949.32581,0.11090
5951.25428,0.13834
5953.18275,0.12378
5955.11122,0.10949
5957.03969,0.11237
5958.96816,0.09130
5960.89663,0.02993
5962.82509,-0.02291
5964.75356,-0.02378
5966.68203,0.00728
5968.61050,0.02720
5970.53897,0.04896
5972.46744,0.08450
5974.39591,0.09263
5976.32437,0.06714
5978.25284,0.04846
5980.18131,0.05813
5982.10978,0.08782
5984.03825,0.11463
5985.96672,0.12307
5987.89519,0.10568
5989.82366,0.07130
5991.75212,0.03405
5993.68059,-0.01164
5995.60906,-0.03150
5997.53753,0.01533
5999.46600,0.08390
6001.39447,0.11680
6003.32294,0.10553
6005.25140,0.08304
6007.17987,0.06470
6009.10834,0.05530
6011.03681,0.09105
6012.96528,0.13949
6014.89375,0.14217
6016.82222,0.12375
6018.75069,0.10902
6020.67915,0.10639
6022.60762,0.11799
6024.53609,0.12113
6026.46456,0.13031
6028.39303,0.15081
6030.32150,0.14440
6032.24997,0.11680
6034.17843,0.10861
6036.10690,0.10081
6038.03537,0.06213
6039.96384,0.03105
6041.89231,0.02879
6043.82078,0.05301
6045.74925,0.08637
6047.67772,0.08769
6049.60618,0.07123
6051.53465,0.06834
6053.46312,0.05402
6055.39159,0.03608
6057.32006,0.05211
6059.24853,0.07986
6061.17700,0.07893
6063.10546,0.06302
6065.03393,0.06860
6066.96240,0.06039
6068.89087,0.00018
6070.81934,-0.04161
6072.74781,-0.00670
6074.67628,0.05892
6076.60475,0.10407
6078.53321,0.12202
6080.46168,0.13322
6082.39015,0.15181
6084.31862,0.15499
6086.24709,0.12804
6088.17556,0.09058
6090.10403,0.05708
6092.03249,0.04158
6093.96096,0.05542
6095.88943,0.05611
6097.81790,0.02845
6099.74637,0.02896
6101.67484,0.06805
6103.60331,0.11391
6105.53177,0.15439
6107.46024,0.17815
6109.38871,0.16999
6111.31718,0.12865
6113.24565,0.09761
6115.17412,0.08624
6117.10259,0.04063
6119.03106,0.00838
6120.95952,0.05886
6122.88799,0.09344
6124.81646,0.05897
6126.74493,0.02784
6128.67340,0.04327
6130.60187,0.05642
6132.53034,0.03907
6134.45880,0.00616
6136.38727,-0.03075
6138.31574,-0.01974
6140.24421,0.04393
6142.17268,0.07614
6144.10115,0.05418
6146.02962,0.02665
6147.95809,0.01715
6149.88655,0.01450
6151.81502,0.00738
6153.74349,-0.01115
6155.67196,-0.03732
6157.60043,-0.02529
6159.52890,0.03979
6161.45737,0.07790
6163.38583,0.04688
6165.31430,0.00121
6167.24277,-0.00622
6169.17124,0.03859
6171.09971,0.08135
6173.02818,0.07979
6174.95665,0.07887
6176.88512,0.06323
6178.81358,0.00474
6180.74205,-0.03310
6182.67052,-0.00120
6184.59899,0.06852
6186.52746,0.12114
6188.45593,0.15368
6190.38440,0.15515
6192.31286,0.10266
6194.24133,0.05396
6196.16980,0.03513
6198.09827,0.01816
6200.02674,-0.00125
6201.95521,-0.01286
6203.88368,0.02166
6205.81215,0.08314
6207.74061,0.09935
6209.66908,0.07152
6211.59755,0.03871
6213.52602,0.02787
6215.45449,0.06348
6217.38296,0.12405
6219.31143,0.14001
6221.23989,0.09511
6223.16836,0.02841
6225.09683,-0.00161
6227.02530,0.02255
6228.95377,0.05810
6230.88224,0.07694
6232.81071,0.09331
6234.73918,0.11981
6236.66764,0.12275
6238.59611,0.07734
6240.52458,0.01061
6242.45305,-0.04460
6244.38152,-0.07905
6246.30999,-0.06601
6248.23846,0.01080
6250.16692,0.09695
6252.09539,0.13379
6254.02386,0.11494
6255.95233,0.07406
6257.88080,0.06106
6259.80927,0.07138
6261.73774,0.08173
6263.66621,0.09779
6265.59467,0.08805
6267.52314,0.03653
6269.45161,0.00685
6271.38008,0.00233
6273.30855,-0.00073
6275.23702,0.00865
6277.16549,-0.01107
6279.09395,-0.04382
6281.02242,-0.00998
6282.95089,0.05338
6284.87936,0.06507
6286.80783,0.01981
6288.73630,-0.04832
6290.66477,-0.08032
6292.59323,-0.03505
6294.52170,0.04536
6296.45017,0.11399
6298.37864,0.15699
6300.30711,0.14270
6302.23558,0.06578
6304.16405,0.00716
6306.09252,0.03444
6308.02098,0.11079
6309.94945,0.12958
6311.87792,0.06498
6313.80639,0.02300
6315.73486,0.04947
6317.66333,0.07983
6319.59180,0.08783
6321.52026,0.07948
6323.44873,0.06925
6325.37720,0.08176
6327.30567,0.08913
6329.23414,0.06955
6331.16261,0.05265
6333.09108,0.03937
6335.01955,0.00603
6336.94801,-0.02098
6338.87648,-0.01875
6340.80495,0.00148
6342.73342,0.03635
6344.66189,0.06143
6346.59036,0.07711
6348.51883,0.11662
6350.44729,0.12990
6352.37576,0.07743
6354.30423,0.02083
6356.23270,0.00475
6358.16117,0.04997
6360.08964,0.14665
6362.01811,0.21501
6363.94658,0.20135
6365.87504,0.14461
6367.80351,0.11262
6369.73198,0.12709
6371.66045,0.13572
6373.58892,0.10765
6375.51739,0.09736
6377.44586,0.11408
6379.37432,0.11212
6381.30279,0.07392
6383.23126,0.03995
6385.15973,0.07301
6387.08820,0.13341
6389.01667,0.14539
6390.94514,0.12773
6392.87361,0.14174
6394.80207,0.14971
6396.73054,0.12186
6398.65901,0.09179
6400.58748,0.06479
6402.51595,0.04503
6404.44442,0.01602
6406.37289,-0.00648
6408.30135,0.03390
6410.22982,0.09803
6412.15829,0.11618
6414.08676,0.08916
6416.01523,0.04453
6417.94370,0.00644
6419.87217,0.01318
6421.80064,0.07026
6423.72910,0.11935
6425.65757,0.09872
6427.58604,0.03930
6429.51451,0.01787
6431.44298,0.02271
6433.37145,0.01039
6435.29992,0.02792
6437.22838,0.08086
6439.15685,0.08926
6441.08532,0.07470
6443.01379,0.06860
6444.94226,0.03947
6446.87073,0.02370
6448.79920,0.04008
6450.72766,0.05903
6452.65613,0.09236
6454.58460,0.15211
6456.51307,0.19998
6458.44154,0.18017
6460.37001,0.08777
6462.29848,-0.02706
6464.22695,-0.09121
6466.15541,-0.06687
6468.08388,0.01695
6470.01235,0.10018
6471.94082,0.15249
6473.86929,0.17433
6475.79776,0.16080
6477.72623,0.10687
6479.65469,0.03453
6481.58316,0.00053
6483.51163,0.03984
6485.44010,0.09096
6487.36857,0.09139
6489.29704,0.06002
6491.22551,0.03616
6493.15398,0.02424
6495.08244,0.02221
6497.01091,0.04145
6498.93938,0.09983
6500.86785,0.16885
6502.79632,0.15915
6504.72479,0.08027
6506.65326,0.04113
6508.58172,0.07803
6510.51019,0.14588
6512.43866,0.20235
6514.36713,0.19930
6516.29560,0.14253
6518.22407,0.10346
6520.15254,0.07549
6522.08101,0.02072
6524.00947,-0.03550
6525.93794,-0.07095
6527.86641,-0.05997
6529.79488,0.01352
6531.72335,0.07576
6533.65182,0.08022
6535.58029,0.08494
6537.50875,0.10671
6539.43722,0.10246
6541.36569,0.08092
6543.29416,0.07927
6545.22263,0.09592
6547.15110,0.10023
6549.07957,0.09094
6551.00804,0.10387
6552.93650,0.11335
6554.86497,0.07262
6556.79344,0.02539
6558.72191,-0.00448
6560.65038,-0.05155
6562.57885,-0.08759
6564.50732,-0.03745
6566.43578,0.06747
6568.36425,0.13591
6570.29272,0.13775
6572.22119,0.05025
6574.14966,-0.05690
6576.07813,-0.05431
6578.00660,0.02699
6579.93507,0.04392
6581.86353,0.01079
6583.79200,0.01712
6585.72047,0.01881
6587.64894,0.01136
6589.57741,0.05293
6591.50588,0.12604
6593.43435,0.17373
6595.36281,0.16221
6597.29128,0.11464
6599.21975,0.06248
6601.14822,0.05604
6603.07669,0.09323
6605.00516,0.13815
6606.93363,0.19531
6608.86210,0.19740
6610.79056,0.13374
6612.71903,0.10306
6614.64750,0.10628
6616.57597,0.07542
6618.50444,0.00572
6620.43291,-0.04834
6622.36138,-0.03619
6624.28984,0.02281
6626.21831,0.08237
6628.14678,0.15022
6630.07525,0.21000
6632.00372,0.19569
6633.93219,0.10802
6635.86066,0.01504
6637.78912,-0.03566
6639.71759,-0.05016
6641.64606,-0.04136
6643.57453,-0.01518
6645.50300,0.00824
6647.43147,0.00212
6649.35994,0.00016
6651.28841,0.01252
6653.21687,0.00982
6655.14534,0.03449
6657.07381,0.11615
6659.00228,0.16364
6660.93075,0.13829
6662.85922,0.09146
6664.78769,0.05615
6666.71615,0.05629
6668.64462,0.07055
6670.57309,0.09439
6672.50156,0.14043
6674.43003,0.10916
6676.35850,0.02312
6678.28697,0.00183
6680.21544,-0.01347
6682.14390,-0.04935
6684.07237,0.00638
6686.00084,0.10963
6687.92931,0.15836
6689.85778,0.16827
6691.78625,0.13334
6693.71472,0.05915
6695.64318,-0.00961
6697.57165,-0.03271
6699.50012,-0.00981
6701.42859,0.04115
6703.35706,0.12304
6705.28553,0.18766
6707.21400,0.19283
6709.14247,0.17470
6711.07093,0.15089
6712.99940,0.08148
6714.92787,0.00685
6716.85634,0.01469
6718.78481,0.08183
6720.71328,0.11842
6722.64175,0.07829
6724.57021,0.04894
6726.49868,0.07026
6728.42715,0.06204
6730.35562,0.03004
6732.28409,0.00066
6734.21256,-0.01947
6736.14103,0.03393
6738.06950,0.12876
6739.99796,0.16869
6741.92643,0.13569
6743.85490,0.09591
6745.78337,0.07218
6747.71184,-0.00875
6749.64031,-0.10982
6751.56878,-0.09380
6753.49724,0.00321
6755.42571,0.08340
6757.35418,0.12055
6759.28265,0.10599
6761.21112,0.07968
6763.13959,0.07378
6765.06806,0.04858
6766.99653,0.00717
6768.92499,-0.01038
6770.85346,-0.00786
6772.78193,-0.01327
6774.71040,-0.01072
6776.63887,0.00928
6778.56734,0.01631
6780.49581,0.02024
6782.42427,0.03346
6784.35274,0.03647
6786.28121,-0.00481
6788.20968,-0.05890
6790.13815,-0.04168
6792.06662,-0.00672
6793.99509,-0.02577
6795.92355,-0.03949
6797.85202,-0.03752
6799.78049,-0.01434
6801.70896,0.04416
6803.63743,0.03407
6805.56590,-0.07521
6807.49437,-0.11921
6809.42284,-0.04146
6811.35130,0.07765
6813.27977,0.13075
6815.20824,0.09607
6817.13671,0.05299
6819.06518,0.06408
6820.99365,0.12767
6822.92212,0.14800
6824.85058,0.04885
6826.77905,-0.01846
6828.70752,0.02817
6830.63599,0.07230
6832.56446,0.03682
6834.49293,-0.00539
6836.42140,-0.01031
6838.34987,-0.02921
6840.27833,-0.07780
6842.20680,-0.07753
6844.13527,-0.00155
6846.06374,0.07062
6847.99221,0.11257
6849.92068,0.15174
6851.84915,0.13347
6853.77761,0.04742
6855.70608,-0.03947
6857.63455,-0.08966
6859.56302,-0.08744
6861.49149,0.00123
6863.41996,0.10531
6865.34843,0.11085
6867.27690,0.04845
6869.20536,-0.00432
6871.13383,-0.02984
6873.06230,-0.00974
6874.99077,0.01971
6876.91924,0.00472
6878.84771,-0.02673
6880.77618,-0.01864
6882.70464,0.03479
6884.63311,0.09956
6886.56158,0.12408
6888.49005,0.08026
6890.41852,0.02842
6892.34699,0.02500
6894.27546,0.04785
6896.20393,0.07115
6898.13239,0.06783
6900.06086,0.02342
6901.98933,0.01361
6903.91780,0.08990
6905.84627,0.15726
6907.77474,0.12818
6909.70321,0.04470
6911.63167,-0.03419
6913.56014,-0.04961
6915.48861,0.03666
6917.41708,0.15488
6919.34555,0.16883
6921.27402,0.07383
6923.20249,0.01659
6925.13096,0.05707
6927.05942,0.09899
6928.98789,0.07397
6930.91636,0.03999
6932.84483,0.00208
6934.77330,-0.05028
6936.70177,-0.07053
6938.63024,-0.05338
6940.55870,-0.00885
6942.48717,0.06364
6944.41564,0.08675
6946.34411,-0.01676
6948.27258,-0.13033
6950.20105,-0.10052
6952.12952,0.00816
6954.05799,0.09681
6955.98645,0.16038
6957.91492,0.15364
6959.84339,0.04831
6961.77186,-0.03480
6963.70033,-0.00092
6965.62880,0.06838
6967.55727,0.09702
6969.48573,0.08195
6971.41420,0.02446
6973.34267,0.00084
6975.27114,0.04060
6977.19961,0.04010
6979.12808,0.00258
6981.05655,-0.01328
6982.98501,0.05476
6984.91348,0.19064
6986.84195,0.26898
6988.77042,0.24504
6990.69889,0.15037
6992.62736,0.05079
6994.55583,0.00834
6996.48430,0.00896
6998.41276,-0.00872
7000.34123,-0.04792
7002.26970,-0.05650
7004.19817,-0.01506
7006.12664,0.04563
7008.05511,0.08313
7009.98358,0.06365
7011.91204,0.00665
7013.84051,-0.02183
7015.76898,0.00435
7017.69745,0.10428
7019.62592,0.29762
7021.55439,0.40932
7023.48286,0.28613
7025.41133,0.09648
7027.33979,-0.03738
7029.26826,-0.15351
7031.19673,-0.18639
7033.12520,-0.16987
7035.05367,-0.09878
7036.98214,0.03537
7038.91061,0.12476
7040.83907,0.14469
7042.76754,0.12469
7044.69601,0.12440
7046.62448,0.12784
7048.55295,0.06647
7050.48142,0.01306
7052.40989,0.06956
7054.33836,0.21639
7056.26682,0.28171
7058.19529,0.11221
7060.12376,-0.10156
7062.05223,-0.15018
7063.98070,-0.06079
7065.90917,0.07122
7067.83764,0.15563
7069.76610,0.13900
7071.69457,0.06358
7073.62304,0.01527
7075.55151,-0.01839
7077.47998,-0.06762
7079.40845,-0.07566
7081.33692,0.01574
7083.26539,0.14503
7085.19385,0.25768
7087.12232,0.28575
7089.05079,0.16097
7090.97926,-0.04466
7092.90773,-0.19376
7094.83620,-0.19956
7096.76467,-0.17445
7098.69313,-0.13175
7100.62160,-0.00564
7102.55007,0.08867
7104.47854,0.09973
7106.40701,0.04383
7108.33548,-0.03386
7110.26395,-0.03203
7112.19242,0.05551
7114.12088,0.11994
7116.04935,0.10915
7117.97782,0.05574
7119.90629,0.03539
7121.83476,0.05887
7123.76323,0.03929
7125.69170,-0.02650
7127.62016,-0.04727
7129.54863,-0.00170
7131.47710,0.07643
7133.40557,0.13470
7135.33404,0.08932
7137.26251,-0.03017
7139.19098,-0.11431
7141.11944,-0.12771
7143.04791,-0.13558
7144.97638,-0.16082
7146.90485,-0.12106
7148.83332,-0.06844
7150.76179,-0.04909
7152.69026,0.01782
7154.61873,0.09584
7156.54719,0.11641
7158.47566,0.10047
7160.40413,0.03302
7162.33260,-0.06202
7164.26107,-0.10467
7166.18954,-0.04580
7168.11801,0.02503
7170.04647,0.02123
7171.97494,0.04811
7173.90341,0.15465
7175.83188,0.22751
7177.76035,0.11607
7179.68882,-0.07845
7181.61729,-0.10189
7183.54576,-0.08008
7185.47422,-0.16283
7187.40269,-0.06459
7189.33116,0.17988
7191.25963,0.25034
7193.18810,0.15566
7195.11657,0.12273
7197.04504,0.11436
7198.97350,0.04564
7200.90197,-0.03455
7202.83044,-0.04357
7204.75891,0.09538
7206.68738,0.24486
7208.61585,0.23410
7210.54432,0.19423
7212.47279,0.19118
7214.40125,0.11783
7216.32972,-0.04497
7218.25819,-0.12981
7220.18666,-0.02010
7222.11513,0.15105
7224.04360,0.22345
7225.97207,0.16075
7227.90053,0.11724
7229.82900,0.20244
7231.75747,0.31394
7233.68594,0.29400
7235.61441,0.23916
7237.54288,0.23938
7239.47135,0.22443
7241.39982,0.09961
7243.32828,-0.09624
7245.25675,-0.14487
7247.18522,-0.04553
7249.11369,0.05440
7251.04216,0.07755
7252.97063,0.07323
7254.89910,0.08533
7256.82756,0.07453
7258.75603,0.05685
7260.68450,0.03457
7262.61297,0.03601
7264.54144,0.13528
7266.46991,0.19703
7268.39838,0.13104
7270.32685,0.03576
7272.25531,-0.03630
7274.18378,-0.09384
7276.11225,-0.10868
7278.04072,-0.05752
7279.96919,0.02315
7281.89766,0.02271
7283.82613,0.03812
7285.75459,0.16789
7287.68306,0.26774
7289.61153,0.19152
7291.54000,0.06394
7293.46847,0.05874
7295.39694,0.07771
7297.32541,0.06521
7299.25387,0.05859
7301.18234,0.06234
7303.11081,0.14675
7305.03928,0.30532
7306.96775,0.40012
7308.89622,0.29860
7310.82469,0.04449
7312.75316,-0.05104
7314.68162,0.07530
7316.61009,0.24867
7318.53856,0.30560
7320.46703,0.23962
7322.39550,0.07630
7324.32397,-0.07383
7326.25244,-0.05540
7328.18090,0.15779
7330.10937,0.33953
7332.03784,0.23221
7333.96631,0.03984
7335.89478,-0.00588
7337.82325,0.01175
7339.75172,-0.13775
7341.68019,-0.32633
7343.60865,-0.32011
7345.53712,-0.21426
7347.46559,0.02180
7349.39406,0.24282
7351.32253,0.15916
7353.25100,-0.09231
7355.17947,-0.15493
7357.10793,0.06798
7359.03640,0.36466
7360.96487,0.42644
7362.89334,0.27537
7364.82181,0.08182
7366.75028,-0.08776
7368.67875,-0.15989
7370.60722,-0.09308
7372.53568,-0.00650
7374.46415,0.09491
7376.39262,0.31428
7378.32109,0.43398
7380.24956,0.30575
7382.17803,0.05932
7384.10650,-0.05545
7386.03496,0.03982
7387.96343,0.17452
7389.89190,0.22154
7391.82037,0.25180
7393.74884,0.24174
7395.67731,0.11949
7397.60578,-0.01428
7399.53425,-0.03835
7401.46271,-0.08057
7403.39118,-0.20781
7405.31965,-0.26205
7407.24812,-0.20361
7409.17659,-0.07019
7411.10506,-0.01293
7413.03353,-0.10536
7414.96199,-0.18774
7416.89046,-0.21813
7418.81893,-0.14812
7420.74740,0.09747
7422.67587,0.25441
7424.60434,0.24919
7426.53281,0.20202
7428.46128,0.15123
7430.38974,0.13444
7432.31821,0.13481
7434.24668,0.09946
7436.17515,0.13697
7438.10362,0.20681
7440.03209,0.13244
7441.96056,-0.01938
7443.88902,-0.06194
7445.81749,-0.04711
7447.74596,-0.05462
7449.67443,0.00714
7451.60290,0.12875
7453.53137,0.21500
7455.45984,0.26808
7457.38831,0.28892
7459.31677,0.22423
7461.24524,0.05084
7463.17371,-0.05754
7465.10218,-0.01685
7467.03065,0.05098
7468.95912,0.06491
7470.88759,0.10461
7472.81605,0.15765
7474.74452,0.10972
7476.67299,0.00414
7478.60146,0.01334
7480.52993,0.07940
7482.45840,0.01424
7484.38687,-0.03314
7486.31533,0.00740
7488.24380,0.04296
7490.17227,0.01806
7492.10074,-0.05769
7494.02921,-0.04584
7495.95768,0.08225
7497.88615,0.22895
