399.19301,2.80762
401.12148,0.30692
403.04995,0.40323
404.97842,0.26183
406.90689,0.09847
408.83536,-0.04489
410.76382,-0.22641
412.69229,-0.20102
414.62076,0.02345
416.54923,0.24411
418.47770,0.37679
420.40617,0.23279
422.33464,0.10509
424.26311,0.16129
426.19157,0.19037
428.12004,0.13519
430.04851,0.10857
431.97698,0.12586
433.90545,0.09511
435.83392,0.02116
437.76239,-0.03145
439.69085,-0.03248
441.61932,-0.04218
443.54779,-0.13543
445.47626,-0.25484
447.40473,-0.28262
449.33320,-0.18662
451.26167,-0.07748
453.19013,-0.01628
455.11860,0.03838
457.04707,0.08452
458.97554,0.05598
460.90401,-0.01522
462.83248,-0.02971
464.76095,0.00651
466.68942,0.00754
468.61788,0.01574
470.54635,0.08144
472.47482,0.12923
474.40329,0.07155
476.33176,0.01140
478.26023,0.01934
480.18870,0.05389
482.11716,0.08870
484.04563,0.10006
485.97410,0.08703
487.90257,0.08152
489.83104,0.08341
491.75951,0.06647
493.68798,0.04190
495.61645,0.02921
497.54491,0.01664
499.47338,-0.00416
501.40185,-0.01603
503.33032,0.01364
505.25879,0.05373
507.18726,0.05816
509.11573,0.04236
511.04419,0.03173
512.97266,0.02144
514.90113,0.01102
516.82960,0.00804
518.75807,0.00970
520.68654,0.01342
522.61501,0.01814
524.54348,0.02038
526.47194,0.02579
528.40041,0.04775
530.32888,0.06995
532.25735,0.06588
534.18582,0.05112
536.11429,0.03850
538.04276,0.01989
539.97122,0.01975
541.89969,0.03959
543.82816,0.03038
545.75663,0.00781
547.68510,0.01679
549.61357,0.01107
551.54204,-0.01571
553.47051,-0.01387
555.39897,-0.00822
557.32744,-0.00564
559.25591,0.01878
561.18438,0.04215
563.11285,0.04737
565.04132,0.04073
566.96979,0.02759
568.89825,0.01601
570.82672,0.02038
572.75519,0.02796
574.68366,-0.00209
576.61213,-0.03411
578.54060,-0.00866
580.46907,0.03846
582.39754,0.07185
584.32600,0.09473
586.25447,0.09258
588.18294,0.06454
590.11141,0.02802
592.03988,-0.00859
593.96835,-0.01518
595.89682,0.01789
597.82528,0.04875
599.75375,0.06519
601.68222,0.07450
603.61069,0.05749
605.53916,0.02301
607.46763,0.00156
609.39610,-0.00333
611.32456,0.00165
613.25303,0.01344
615.18150,0.02200
617.10997,0.02309
619.03844,0.02618
620.96691,0.03318
622.89538,0.03926
624.82385,0.04576
626.75231,0.05482
628.68078,0.06252
630.60925,0.06635
632.53772,0.06064
634.46619,0.03750
636.39466,0.01452
638.32313,0.01545
640.25159,0.03629
642.18006,0.04560
644.10853,0.03443
646.03700,0.03481
647.96547,0.05122
649.89394,0.05567
651.82241,0.04705
653.75088,0.03238
655.67934,0.01614
657.60781,0.01374
659.53628,0.02607
661.46475,0.03947
663.39322,0.04248
665.32169,0.02812
667.25016,-0.00190
669.17862,-0.00993
671.10709,0.01962
673.03556,0.04310
674.96403,0.04992
676.89250,0.04278
678.82097,0.02536
680.74944,0.01727
682.67791,0.03087
684.60637,0.03685
686.53484,0.02251
688.46331,0.01313
690.39178,0.01591
692.32025,0.02658
694.24872,0.04133
696.17719,0.04567
698.10565,0.03927
700.03412,0.03564
701.96259,0.03759
703.89106,0.04229
705.81953,0.04984
707.74800,0.05584
709.67647,0.05496
711.60494,0.05280
713.53340,0.05243
715.46187,0.04617
717.39034,0.03802
719.31881,0.04804
721.24728,0.06803
723.17575,0.06902
725.10422,0.05978
727.03268,0.05601
728.96115,0.05100
730.88962,0.04526
732.81809,0.04998
734.74656,0.06050
736.67503,0.06002
738.60350,0.05094
740.53197,0.04562
742.46043,0.04690
744.38890,0.04875
746.31737,0.04352
748.24584,0.03295
750.17431,0.02723
752.10278,0.03551
754.03125,0.05105
755.95971,0.05655
757.88818,0.05304
759.81665,0.05503
761.74512,0.05686
763.67359,0.05041
765.60206,0.04764
767.53053,0.04570
769.45900,0.03536
771.38746,0.02980
773.31593,0.03783
775.24440,0.04988
777.17287,0.05273
779.10134,0.04479
781.02981,0.04167
782.95828,0.05232
784.88674,0.05942
786.81521,0.05224
788.74368,0.04413
790.67215,0.04023
792.60062,0.04059
794.52909,0.04680
796.45756,0.04528
798.38602,0.02949
800.31449,0.01939
802.24296,0.03290
804.17143,0.05623
806.09990,0.06761
808.02837,0.06438
809.95684,0.05522
811.88531,0.04727
813.81377,0.04349
815.74224,0.04767
817.67071,0.05490
819.59918,0.05172
821.52765,0.04169
823.45612,0.03987
825.38459,0.04493
827.31305,0.04820
829.24152,0.05283
831.16999,0.06000
833.09846,0.06423
835.02693,0.06331
836.95540,0.05792
838.88387,0.05292
840.81234,0.05141
842.74080,0.04944
844.66927,0.04844
846.59774,0.04791
848.52621,0.03778
850.45468,0.02630
852.38315,0.03205
854.31162,0.04695
856.24008,0.05484
858.16855,0.05799
860.09702,0.05699
862.02549,0.04585
863.95396,0.03377
865.88243,0.03015
867.81090,0.02939
869.73937,0.03303
871.66783,0.04584
873.59630,0.05468
875.52477,0.04612
877.45324,0.03074
879.38171,0.02376
881.31018,0.02512
883.23865,0.03247
885.16711,0.04150
887.09558,0.04392
889.02405,0.04063
890.95252,0.03687
892.88099,0.03801
894.80946,0.04297
896.73793,0.03928
898.66640,0.03196
900.59486,0.03957
902.52333,0.05523
904.45180,0.05909
906.38027,0.05129
908.30874,0.04290
910.23721,0.03838
912.16568,0.03606
914.09414,0.03610
916.02261,0.03963
917.95108,0.04108
919.87955,0.03796
921.80802,0.03739
923.73649,0.04227
925.66496,0.04650
927.59343,0.04628
929.52189,0.04527
931.45036,0.04572
933.37883,0.04643
935.30730,0.04337
937.23577,0.03163
939.16424,0.01839
941.09271,0.01784
943.02117,0.03043
944.94964,0.04372
946.87811,0.05044
948.80658,0.05184
950.73505,0.05161
952.66352,0.05145
954.59199,0.04889
956.52045,0.04712
958.44892,0.05268
960.37739,0.05952
962.30586,0.05683
964.23433,0.04769
966.16280,0.04562
968.09127,0.05164
970.01974,0.05443
971.94820,0.05448
973.87667,0.05696
975.80514,0.05425
977.73361,0.04523
979.66208,0.04022
981.59055,0.04177
983.51902,0.04414
985.44748,0.04235
987.37595,0.03805
989.30442,0.03652
991.23289,0.04055
993.16136,0.04839
995.08983,0.05194
997.01830,0.04959
998.94677,0.05099
1000.87523,0.05392
1002.80370,0.04909
1004.73217,0.04668
1006.66064,0.05681
1008.58911,0.06913
1010.51758,0.07348
1012.44605,0.07287
1014.37451,0.07322
1016.30298,0.07096
1018.23145,0.06263
1020.15992,0.05515
1022.08839,0.05077
1024.01686,0.04709
1025.94533,0.04739
1027.87380,0.04991
1029.80226,0.04726
1031.73073,0.04194
1033.65920,0.04309
1035.58767,0.04932
1037.51614,0.04872
1039.44461,0.04235
1041.37308,0.04679
1043.30154,0.05762
1045.23001,0.05538
1047.15848,0.04650
1049.08695,0.04528
1051.01542,0.04995
1052.94389,0.05738
1054.87236,0.06179
1056.80083,0.05528
1058.72929,0.04487
1060.65776,0.04224
1062.58623,0.04541
1064.51470,0.04691
1066.44317,0.04677
1068.37164,0.05163
1070.30011,0.05697
1072.22857,0.05006
1074.15704,0.03620
1076.08551,0.03269
1078.01398,0.04173
1079.94245,0.05031
1081.87092,0.05346
1083.79939,0.05556
1085.72786,0.06030
1087.65632,0.06694
1089.58479,0.06798
1091.51326,0.06296
1093.44173,0.06010
1095.37020,0.05946
1097.29867,0.05397
1099.22714,0.04631
1101.15560,0.04544
1103.08407,0.04961
1105.01254,0.04886
1106.94101,0.04345
1108.86948,0.04740
1110.79795,0.05764
1112.72642,0.05818
1114.65489,0.05211
1116.58335,0.04652
1118.51182,0.04144
1120.44029,0.03666
1122.36876,0.03526
1124.29723,0.04126
1126.22570,0.05011
1128.15417,0.05737
1130.08263,0.06200
1132.01110,0.05805
1133.93957,0.04599
1135.86804,0.03760
1137.79651,0.03814
1139.72498,0.03813
1141.65345,0.03249
1143.58191,0.03287
1145.51038,0.04480
1147.43885,0.05618
1149.36732,0.06010
1151.29579,0.06006
1153.22426,0.05769
1155.15273,0.05370
1157.08120,0.05318
1159.00966,0.05584
1160.93813,0.05180
1162.86660,0.04187
1164.79507,0.03811
1166.72354,0.04448
1168.65201,0.05309
1170.58048,0.05362
1172.50894,0.04835
1174.43741,0.04755
1176.36588,0.05066
1178.29435,0.05253
1180.22282,0.05391
1182.15129,0.05388
1184.07976,0.05134
1186.00823,0.04898
1187.93669,0.04983
1189.86516,0.05536
1191.79363,0.05998
1193.72210,0.06113
1195.65057,0.06418
1197.57904,0.06753
1199.50751,0.06711
1201.43597,0.06271
1203.36444,0.05579
1205.29291,0.05100
1207.22138,0.05190
1209.14985,0.05572
1211.07832,0.05513
1213.00679,0.05058
1214.93526,0.05018
1216.86372,0.05386
1218.79219,0.05546
1220.72066,0.05419
1222.64913,0.05324
1224.57760,0.05454
1226.50607,0.05609
1228.43454,0.05569
1230.36300,0.05620
1232.29147,0.05832
1234.21994,0.05994
1236.14841,0.06154
1238.07688,0.06204
1240.00535,0.06051
1241.93382,0.06070
1243.86229,0.06442
1245.79075,0.06399
1247.71922,0.05555
1249.64769,0.04982
1251.57616,0.05447
1253.50463,0.06160
1255.43310,0.06109
1257.36157,0.05680
1259.29003,0.05718
1261.21850,0.05908
1263.14697,0.05719
1265.07544,0.05546
1267.00391,0.05649
1268.93238,0.05612
1270.86085,0.05424
1272.78932,0.05485
1274.71778,0.05806
1276.64625,0.06127
1278.57472,0.06340
1280.50319,0.06335
1282.43166,0.06035
1284.36013,0.05658
1286.28860,0.05377
1288.21706,0.05444
1290.14553,0.05834
1292.07400,0.05980
1294.00247,0.05829
1295.93094,0.05635
1297.85941,0.05630
1299.78788,0.06011
1301.71634,0.06359
1303.64481,0.06095
1305.57328,0.05327
1307.50175,0.05051
1309.43022,0.05840
1311.35869,0.06670
1313.28716,0.06613
1315.21563,0.06024
1317.14409,0.05416
1319.07256,0.05061
1321.00103,0.05293
1322.92950,0.05949
1324.85797,0.06467
1326.78644,0.06654
1328.71491,0.06581
1330.64337,0.06379
1332.57184,0.06210
1334.50031,0.06078
1336.42878,0.06045
1338.35725,0.06141
1340.28572,0.06160
1342.21419,0.05821
1344.14266,0.05310
1346.07112,0.05345
1347.99959,0.06004
1349.92806,0.06571
1351.85653,0.06723
1353.78500,0.06517
1355.71347,0.06037
1357.64194,0.05641
1359.57040,0.05800
1361.49887,0.06273
1363.42734,0.06292
1365.35581,0.06019
1367.28428,0.05905
1369.21275,0.05767
1371.14122,0.05550
1373.06969,0.05680
1374.99815,0.06095
1376.92662,0.06060
1378.85509,0.05802
1380.78356,0.05754
1382.71203,0.05757
1384.64050,0.05841
1386.56897,0.06197
1388.49743,0.06614
1390.42590,0.06751
1392.35437,0.06610
1394.28284,0.06406
1396.21131,0.06424
1398.13978,0.06312
1400.06825,0.05778
1401.99672,0.05371
1403.92518,0.05334
1405.85365,0.05524
1407.78212,0.05776
1409.71059,0.05865
1411.63906,0.05695
1413.56753,0.05534
1415.49600,0.05670
1417.42446,0.06127
1419.35293,0.06654
1421.28140,0.06744
1423.20987,0.06529
1425.13834,0.06449
1427.06681,0.06717
1428.99528,0.07102
1430.92375,0.07157
1432.85221,0.06966
1434.78068,0.07049
1436.70915,0.07343
1438.63762,0.06956
1440.56609,0.06109
1442.49456,0.05684
1444.42303,0.05898
1446.35149,0.06346
1448.27996,0.06670
1450.20843,0.06704
1452.13690,0.06548
1454.06537,0.06440
1455.99384,0.06824
1457.92231,0.07442
1459.85077,0.07051
1461.77924,0.06496
1463.70771,0.06196
1465.63618,0.05998
1467.56465,0.06069
1469.49312,0.06478
1471.42159,0.06782
1473.35006,0.06652
1475.27852,0.06414
1477.20699,0.06118
1479.13546,0.05884
1481.06393,0.05849
1482.99240,0.05929
1484.92087,0.05994
1486.84934,0.05973
1488.77780,0.05983
1490.70627,0.06080
1492.63474,0.06116
1494.56321,0.06222
1496.49168,0.06615
1498.42015,0.06905
1500.34862,0.06655
1502.27709,0.06507
1504.20555,0.06717
1506.13402,0.06851
1508.06249,0.06675
1509.99096,0.06679
1511.91943,0.06766
1513.84790,0.06964
1515.77637,0.07503
1517.70483,0.08199
1519.63330,0.08192
1521.56177,0.07278
1523.49024,0.06425
1525.41871,0.06351
1527.34718,0.06667
1529.27565,0.06934
1531.20412,0.07229
1533.13258,0.07557
1535.06105,0.07506
1536.98952,0.07035
1538.91799,0.05933
1540.84646,0.05074
1542.77493,0.06058
1544.70340,0.06654
1546.63186,0.06546
1548.56033,0.06174
1550.48880,0.05842
1552.41727,0.06067
1554.34574,0.06579
1556.27421,0.06693
1558.20268,0.06511
1560.13115,0.06825
1562.05961,0.06851
1563.98808,0.06326
1565.91655,0.05858
1567.84502,0.06117
1569.77349,0.06858
1571.70196,0.07173
1573.63043,0.07128
1575.55889,0.06939
1577.48736,0.06502
1579.41583,0.06199
1581.34430,0.06244
1583.27277,0.06561
1585.20124,0.06987
1587.12971,0.07182
1589.05818,0.06677
1590.98664,0.05928
1592.91511,0.05820
1594.84358,0.06080
1596.77205,0.06139
1598.70052,0.06183
1600.62899,0.06322
1602.55746,0.06297
1604.48592,0.06155
1606.41439,0.06044
1608.34286,0.05984
1610.27133,0.06221
1612.19980,0.06797
1614.12827,0.07441
1616.05674,0.07674
1617.98521,0.07178
1619.91367,0.06814
1621.84214,0.06703
1623.77061,0.06556
1625.69908,0.06613
1627.62755,0.06813
1629.55602,0.06766
1631.48449,0.06551
1633.41295,0.06691
1635.34142,0.07615
1637.26989,0.07707
1639.19836,0.06680
1641.12683,0.06182
1643.05530,0.06495
1644.98377,0.07282
1646.91223,0.07771
1648.84070,0.07533
1650.76917,0.07483
1652.69764,0.07732
1654.62611,0.07397
1656.55458,0.06920
1658.48305,0.06806
1660.41152,0.06714
1662.33998,0.06476
1664.26845,0.06516
1666.19692,0.06835
1668.12539,0.07292
1670.05386,0.07725
1671.98233,0.07730
1673.91080,0.07666
1675.83926,0.07541
1677.76773,0.07204
1679.69620,0.07123
1681.62467,0.07605
1683.55314,0.08226
1685.48161,0.07805
1687.41008,0.07320
1689.33855,0.07220
1691.26701,0.06919
1693.19548,0.06743
1695.12395,0.07364
1697.05242,0.08155
1698.98089,0.07729
1700.90936,0.06854
1702.83783,0.06710
1704.76629,0.06675
1706.69476,0.06444
1708.62323,0.06424
1710.55170,0.06594
1712.48017,0.06656
1714.40864,0.06764
1716.33711,0.07084
1718.26558,0.06943
1720.19404,0.06670
1722.12251,0.06665
1724.05098,0.06586
1725.97945,0.06567
1727.90792,0.06761
1729.83639,0.06718
1731.76486,0.06412
1733.69332,0.06405
1735.62179,0.06585
1737.55026,0.06785
1739.47873,0.07079
1741.40720,0.07115
1743.33567,0.06960
1745.26414,0.06942
1747.19261,0.07156
1749.12107,0.07521
1751.04954,0.07360
1752.97801,0.06707
1754.90648,0.06310
1756.83495,0.06283
1758.76342,0.06408
1760.69189,0.06363
1762.62035,0.06115
1764.54882,0.05923
1766.47729,0.05831
1768.40576,0.05912
1770.33423,0.06379
1772.26270,0.06984
1774.19117,0.06979
1776.11964,0.06583
1778.04810,0.06214
1779.97657,0.05983
1781.90504,0.05964
1783.83351,0.06147
1785.76198,0.06466
1787.69045,0.06675
1789.61892,0.06721
1791.54738,0.06837
1793.47585,0.06987
1795.40432,0.06949
1797.33279,0.06817
1799.26126,0.06642
1801.18973,0.06475
1803.11820,0.06462
1805.04666,0.06429
1806.97513,0.06261
1808.90360,0.06292
1810.83207,0.06583
1812.76054,0.06757
1814.68901,0.06789
1816.61748,0.06722
1818.54595,0.06554
1820.47441,0.06486
1822.40288,0.06595
1824.33135,0.06786
1826.25982,0.06918
1828.18829,0.07067
1830.11676,0.07257
1832.04523,0.07243
1833.97369,0.07106
1835.90216,0.06900
1837.83063,0.06589
1839.75910,0.06376
1841.68757,0.06437
1843.61604,0.06655
1845.54451,0.06696
1847.47298,0.06489
1849.40144,0.06246
1851.32991,0.06263
1853.25838,0.06596
1855.18685,0.06841
1857.11532,0.06725
1859.04379,0.06422
1860.97226,0.06238
1862.90072,0.06323
1864.82919,0.06633
1866.75766,0.06977
1868.68613,0.07032
1870.61460,0.06766
1872.54307,0.06567
1874.47154,0.06530
1876.40001,0.06541
1878.32847,0.06520
1880.25694,0.06367
1882.18541,0.06206
1884.11388,0.06301
1886.04235,0.06449
1887.97082,0.06584
1889.89929,0.06773
1891.82775,0.06751
1893.75622,0.06678
1895.68469,0.06658
1897.61316,0.06543
1899.54163,0.06389
1901.47010,0.06231
1903.39857,0.06163
1905.32704,0.06252
1907.25550,0.06319
1909.18397,0.06247
1911.11244,0.06271
1913.04091,0.06478
1914.96938,0.06578
1916.89785,0.06442
1918.82632,0.06284
1920.75478,0.06364
1922.68325,0.06496
1924.61172,0.06365
1926.54019,0.06175
1928.46866,0.06281
1930.39713,0.06622
1932.32560,0.06777
1934.25407,0.06479
1936.18253,0.05958
1938.11100,0.05719
1940.03947,0.06091
1941.96794,0.06762
1943.89641,0.07041
1945.82488,0.06966
1947.75335,0.06808
1949.68181,0.06575
1951.61028,0.06523
1953.53875,0.06674
1955.46722,0.06810
1957.39569,0.06961
1959.32416,0.06918
1961.25263,0.06488
1963.18110,0.06134
1965.10956,0.06189
1967.03803,0.06332
1968.96650,0.06328
1970.89497,0.06414
1972.82344,0.06670
1974.75191,0.06733
1976.68038,0.06481
1978.60884,0.06262
1980.53731,0.06243
1982.46578,0.06216
1984.39425,0.06102
1986.32272,0.06143
1988.25119,0.06391
1990.17966,0.06580
1992.10812,0.06500
1994.03659,0.06209
1995.96506,0.06089
1997.89353,0.06337
1999.82200,0.06587
2001.75047,0.06592
2003.67894,0.06468
2005.60741,0.06345
2007.53587,0.06392
2009.46434,0.06466
2011.39281,0.06347
2013.32128,0.06324
2015.24975,0.06546
2017.17822,0.06682
2019.10669,0.06675
2021.03515,0.06803
2022.96362,0.07000
2024.89209,0.06914
2026.82056,0.06472
2028.74903,0.06029
2030.67750,0.05854
2032.60597,0.05888
2034.53444,0.06027
2036.46290,0.06160
2038.39137,0.06280
2040.31984,0.06420
2042.24831,0.06458
2044.17678,0.06400
2046.10525,0.06469
2048.03372,0.06691
2049.96218,0.06749
2051.89065,0.06608
2053.81912,0.06512
2055.74759,0.06416
2057.67606,0.06309
2059.60453,0.06304
2061.53300,0.06252
2063.46147,0.06145
2065.38993,0.06412
2067.31840,0.06966
2069.24687,0.07198
2071.17534,0.07126
2073.10381,0.07038
2075.03228,0.07050
2076.96075,0.07214
2078.88921,0.07285
2080.81768,0.07113
2082.74615,0.06879
2084.67462,0.06774
2086.60309,0.06839
2088.53156,0.06970
2090.46003,0.06977
2092.38850,0.06781
2094.31696,0.06627
2096.24543,0.06730
2098.17390,0.06987
2100.10237,0.07131
2102.03084,0.06881
2103.95931,0.06460
2105.88778,0.06401
2107.81624,0.06634
2109.74471,0.06819
2111.67318,0.06849
2113.60165,0.06652
2115.53012,0.06255
2117.45859,0.05823
2119.38706,0.05522
2121.31553,0.05566
2123.24399,0.05970
2125.17246,0.06413
2127.10093,0.06559
2129.02940,0.06416
2130.95787,0.06305
2132.88634,0.06344
2134.81481,0.06259
2136.74327,0.05960
2138.67174,0.05947
2140.60021,0.06311
2142.52868,0.06455
2144.45715,0.06333
2146.38562,0.06291
2148.31409,0.06417
2150.24255,0.06645
2152.17102,0.06825
2154.09949,0.06875
2156.02796,0.06874
2157.95643,0.06865
2159.88490,0.06752
2161.81337,0.06593
2163.74184,0.06517
2165.67030,0.06640
2167.59877,0.06981
2169.52724,0.07135
2171.45571,0.06935
2173.38418,0.06807
2175.31265,0.06923
2177.24112,0.06919
2179.16958,0.06688
2181.09805,0.06520
2183.02652,0.06412
2184.95499,0.06342
2186.88346,0.06423
2188.81193,0.06456
2190.74040,0.06372
2192.66887,0.06358
2194.59733,0.06336
2196.52580,0.06209
2198.45427,0.06152
2200.38274,0.06292
2202.31121,0.06617
2204.23968,0.06953
2206.16815,0.07024
2208.09661,0.06877
2210.02508,0.06772
2211.95355,0.06714
2213.88202,0.06683
2215.81049,0.06720
2217.73896,0.06732
2219.66743,0.06726
2221.59590,0.06850
2223.52436,0.06973
2225.45283,0.06755
2227.38130,0.06382
2229.30977,0.06356
2231.23824,0.06570
2233.16671,0.06575
2235.09518,0.06277
2237.02364,0.05949
2238.95211,0.05907
2240.88058,0.06224
2242.80905,0.06679
2244.73752,0.06937
2246.66599,0.06909
2248.59446,0.06699
2250.52293,0.06460
2252.45139,0.06393
2254.37986,0.06412
2256.30833,0.06524
2258.23680,0.06809
2260.16527,0.06992
2262.09374,0.07062
2264.02221,0.07146
2265.95067,0.07170
2267.87914,0.07136
2269.80761,0.06998
2271.73608,0.06735
2273.66455,0.06520
2275.59302,0.06436
2277.52149,0.06414
2279.44996,0.06402
2281.37842,0.06454
2283.30689,0.06588
2285.23536,0.06619
2287.16383,0.06534
2289.09230,0.06539
2291.02077,0.06573
2292.94924,0.06548
2294.87770,0.06571
2296.80617,0.06631
2298.73464,0.06580
2300.66311,0.06452
2302.59158,0.06225
2304.52005,0.05789
2306.44852,0.05514
2308.37699,0.05653
2310.30545,0.05868
2312.23392,0.06141
2314.16239,0.06685
2316.09086,0.07041
2318.01933,0.06862
2319.94780,0.06709
2321.87627,0.06568
2323.80473,0.05765
2325.73320,0.04803
2327.66167,0.04454
2329.59014,0.04734
2331.51861,0.05352
2333.44708,0.06418
2335.37555,0.07638
2337.30401,0.07317
2339.23248,0.05206
2341.16095,0.03420
2343.08942,0.03249
2345.01789,0.04115
2346.94636,0.04932
2348.87483,0.05408
2350.80330,0.05491
2352.73176,0.05108
2354.66023,0.04563
2356.58870,0.04347
2358.51717,0.05428
2360.44564,0.07001
2362.37411,0.06109
2364.30258,0.03895
2366.23104,0.03674
2368.15951,0.05324
2370.08798,0.06755
2372.01645,0.07033
2373.94492,0.06668
2375.87339,0.06229
2377.80186,0.05877
2379.73033,0.05884
2381.65879,0.06215
2383.58726,0.06286
2385.51573,0.06149
2387.44420,0.06380
2389.37267,0.06780
2391.30114,0.06820
2393.22961,0.06610
2395.15807,0.06545
2397.08654,0.06532
2399.01501,0.06363
2400.94348,0.06347
2402.87195,0.06530
2404.80042,0.06583
2406.72889,0.06546
2408.65736,0.06641
2410.58582,0.06880
2412.51429,0.07064
2414.44276,0.07031
2416.37123,0.06868
2418.29970,0.06746
2420.22817,0.06715
2422.15664,0.06709
2424.08510,0.06644
2426.01357,0.06571
2427.94204,0.06575
2429.87051,0.06667
2431.79898,0.06905
2433.72745,0.07084
2435.65592,0.06948
2437.58439,0.06790
2439.51285,0.06870
2441.44132,0.06987
2443.36979,0.06970
2445.29826,0.06917
2447.22673,0.06857
2449.15520,0.06586
2451.08367,0.06272
2453.01213,0.06437
2454.94060,0.06985
2456.86907,0.07389
2458.79754,0.07422
2460.72601,0.07174
2462.65448,0.06897
2464.58295,0.06709
2466.51142,0.06569
2468.43988,0.06577
2470.36835,0.06770
2472.29682,0.06951
2474.22529,0.07017
2476.15376,0.06964
2478.08223,0.06767
2480.01070,0.06589
2481.93916,0.06606
2483.86763,0.06654
2485.79610,0.06589
2487.72457,0.06480
2489.65304,0.06390
2491.58151,0.06400
2493.50998,0.06567
2495.43844,0.06768
2497.36691,0.06715
2499.29538,0.06412
2501.22385,0.06314
2503.15232,0.06559
2505.08079,0.06793
2507.00926,0.06853
2508.93773,0.06926
2510.86619,0.07063
2512.79466,0.07054
2514.72313,0.06796
2516.65160,0.06512
2518.58007,0.06510
2520.50854,0.06788
2522.43701,0.07150
2524.36547,0.07329
2526.29394,0.07216
2528.22241,0.07139
2530.15088,0.07224
2532.07935,0.07272
2534.00782,0.07260
2535.93629,0.07221
2537.86476,0.07167
2539.79322,0.07148
2541.72169,0.06991
2543.65016,0.06536
2545.57863,0.06247
2547.50710,0.06524
2549.43557,0.06993
2551.36404,0.07236
2553.29250,0.07246
2555.22097,0.07160
2557.14944,0.06985
2559.07791,0.06692
2561.00638,0.06430
2562.93485,0.06375
2564.86332,0.06602
2566.79179,0.06912
2568.72025,0.07000
2570.64872,0.06919
2572.57719,0.06829
2574.50566,0.06660
2576.43413,0.06455
2578.36260,0.06353
2580.29107,0.06308
2582.21953,0.06325
2584.14800,0.06397
2586.07647,0.06432
2588.00494,0.06567
2589.93341,0.06802
2591.86188,0.06750
2593.79035,0.06374
2595.71882,0.06112
2597.64728,0.06243
2599.57575,0.06599
2601.50422,0.06842
2603.43269,0.07042
2605.36116,0.07281
2607.28963,0.07339
2609.21810,0.07242
2611.14656,0.07051
2613.07503,0.06764
2615.00350,0.06512
2616.93197,0.06510
2618.86044,0.06904
2620.78891,0.07310
2622.71738,0.07279
2624.64585,0.07041
2626.57431,0.06979
2628.50278,0.07130
2630.43125,0.07263
2632.35972,0.07185
2634.28819,0.07011
2636.21666,0.06902
2638.14513,0.06845
2640.07359,0.06870
2642.00206,0.06938
2643.93053,0.06900
2645.85900,0.06837
2647.78747,0.06762
2649.71594,0.06727
2651.64441,0.07045
2653.57288,0.07540
2655.50134,0.07826
2657.42981,0.07851
2659.35828,0.07553
2661.28675,0.07097
2663.21522,0.06862
2665.14369,0.06897
2667.07216,0.06960
2669.00062,0.06980
2670.92909,0.07008
2672.85756,0.07071
2674.78603,0.07209
2676.71450,0.07090
2678.64297,0.06660
2680.57144,0.06619
2682.49990,0.06974
2684.42837,0.06998
2686.35684,0.06822
2688.28531,0.07037
2690.21378,0.07392
2692.14225,0.07366
2694.07072,0.07234
2695.99919,0.07297
2697.92765,0.07202
2699.85612,0.06882
2701.78459,0.06732
2703.71306,0.06838
2705.64153,0.07045
2707.57000,0.07388
2709.49847,0.07822
2711.42693,0.07922
2713.35540,0.07548
2715.28387,0.07098
2717.21234,0.06896
2719.14081,0.07135
2721.06928,0.07715
2722.99775,0.08067
2724.92622,0.07937
2726.85468,0.07536
2728.78315,0.07052
2730.71162,0.06879
2732.64009,0.07214
2734.56856,0.07496
2736.49703,0.07281
2738.42550,0.06952
2740.35396,0.06905
2742.28243,0.07046
2744.21090,0.07299
2746.13937,0.07378
2748.06784,0.07098
2749.99631,0.06922
2751.92478,0.07065
2753.85325,0.07284
2755.78171,0.07413
2757.71018,0.07487
2759.63865,0.07693
2761.56712,0.08084
2763.49559,0.08361
2765.42406,0.08270
2767.35253,0.07946
2769.28099,0.07513
2771.20946,0.07085
2773.13793,0.06935
2775.06640,0.07096
2776.99487,0.07348
2778.92334,0.07592
2780.85181,0.07746
2782.78028,0.07620
2784.70874,0.07391
2786.63721,0.07422
2788.56568,0.07656
2790.49415,0.07863
2792.42262,0.07912
2794.35109,0.07690
2796.27956,0.07240
2798.20802,0.06915
2800.13649,0.06909
2802.06496,0.06947
2803.99343,0.07035
2805.92190,0.07315
2807.85037,0.07483
2809.77884,0.07445
2811.70731,0.07417
2813.63577,0.07490
2815.56424,0.07562
2817.49271,0.07534
2819.42118,0.07531
2821.34965,0.07575
2823.27812,0.07511
2825.20659,0.07309
2827.13505,0.07155
2829.06352,0.07200
2830.99199,0.07432
2832.92046,0.07779
2834.84893,0.08030
2836.77740,0.08007
2838.70587,0.07772
2840.63433,0.07608
2842.56280,0.07585
2844.49127,0.07431
2846.41974,0.07097
2848.34821,0.06915
2850.27668,0.07225
2852.20515,0.07838
2854.13362,0.08125
2856.06208,0.07825
2857.99055,0.07294
2859.91902,0.07059
2861.84749,0.07313
2863.77596,0.07652
2865.70443,0.07656
2867.63290,0.07475
2869.56136,0.07373
2871.48983,0.07360
2873.41830,0.07407
2875.34677,0.07576
2877.27524,0.07849
2879.20371,0.08056
2881.13218,0.08078
2883.06065,0.07934
2884.98911,0.07656
2886.91758,0.07284
2888.84605,0.07051
2890.77452,0.07116
2892.70299,0.07337
2894.63146,0.07526
2896.55993,0.07630
2898.48839,0.07765
2900.41686,0.07886
2902.34533,0.07631
2904.27380,0.07125
2906.20227,0.06943
2908.13074,0.07144
2910.05921,0.07376
2911.98768,0.07363
2913.91614,0.07193
2915.84461,0.07270
2917.77308,0.07714
2919.70155,0.08127
2921.63002,0.08127
2923.55849,0.07870
2925.48696,0.07577
2927.41542,0.07566
2929.34389,0.07983
2931.27236,0.08083
2933.20083,0.07664
2935.12930,0.07465
2937.05777,0.07665
2938.98624,0.07873
2940.91471,0.07826
2942.84317,0.07353
2944.77164,0.06644
2946.70011,0.06326
2948.62858,0.06612
2950.55705,0.07230
2952.48552,0.07708
2954.41399,0.07795
2956.34245,0.07761
2958.27092,0.07845
2960.19939,0.08132
2962.12786,0.08473
2964.05633,0.08528
2965.98480,0.08148
2967.91327,0.07544
2969.84174,0.07210
2971.77020,0.07303
2973.69867,0.07400
2975.62714,0.07205
2977.55561,0.07106
2979.48408,0.07374
2981.41255,0.07573
2983.34102,0.07515
2985.26948,0.07367
2987.19795,0.07156
2989.12642,0.07206
2991.05489,0.07617
2992.98336,0.07860
2994.91183,0.07855
2996.84030,0.07955
2998.76877,0.08219
3000.69723,0.08319
3002.62570,0.07999
3004.55417,0.07588
3006.48264,0.07474
3008.41111,0.07596
3010.33958,0.07718
3012.26805,0.07745
3014.19651,0.07823
3016.12498,0.07950
3018.05345,0.07949
3019.98192,0.08003
3021.91039,0.08318
3023.83886,0.08513
3025.76733,0.08161
3027.69579,0.07568
3029.62426,0.07426
3031.55273,0.07721
3033.48120,0.07999
3035.40967,0.08094
3037.33814,0.07965
3039.26661,0.07961
3041.19508,0.08347
3043.12354,0.08603
3045.05201,0.08579
3046.98048,0.08669
3048.90895,0.08697
3050.83742,0.08315
3052.76589,0.07805
3054.69436,0.07664
3056.62282,0.07775
3058.55129,0.07695
3060.47976,0.07531
3062.40823,0.07463
3064.33670,0.07502
3066.26517,0.07687
3068.19364,0.07807
3070.12211,0.07759
3072.05057,0.07724
3073.97904,0.07687
3075.90751,0.07502
3077.83598,0.07255
3079.76445,0.07300
3081.69292,0.07853
3083.62139,0.08456
3085.54985,0.08571
3087.47832,0.08326
3089.40679,0.08057
3091.33526,0.07935
3093.26373,0.08141
3095.19220,0.08579
3097.12067,0.08627
3099.04914,0.08013
3100.97760,0.07273
3102.90607,0.07076
3104.83454,0.07340
3106.76301,0.07550
3108.69148,0.07887
3110.61995,0.08414
3112.54842,0.08524
3114.47688,0.08200
3116.40535,0.07819
3118.33382,0.07590
3120.26229,0.07799
3122.19076,0.08113
3124.11923,0.07955
3126.04770,0.07708
3127.97617,0.07704
3129.90463,0.07666
3131.83310,0.07680
3133.76157,0.07921
3135.69004,0.08111
3137.61851,0.07962
3139.54698,0.07573
3141.47545,0.07306
3143.40391,0.07137
3145.33238,0.06867
3147.26085,0.06720
3149.18932,0.06978
3151.11779,0.07742
3153.04626,0.08374
3154.97473,0.08189
3156.90320,0.07799
3158.83166,0.07688
3160.76013,0.07566
3162.68860,0.07490
3164.61707,0.07606
3166.54554,0.07655
3168.47401,0.07519
3170.40248,0.07447
3172.33094,0.07455
3174.25941,0.07383
3176.18788,0.07500
3178.11635,0.07837
3180.04482,0.07948
3181.97329,0.08155
3183.90176,0.08724
3185.83022,0.08974
3187.75869,0.08558
3189.68716,0.07859
3191.61563,0.07446
3193.54410,0.07588
3195.47257,0.07957
3197.40104,0.08103
3199.32951,0.08073
3201.25797,0.08024
3203.18644,0.07901
3205.11491,0.07666
3207.04338,0.07389
3208.97185,0.07450
3210.90032,0.07790
3212.82879,0.07769
3214.75725,0.07573
3216.68572,0.07744
3218.61419,0.07950
3220.54266,0.07792
3222.47113,0.07668
3224.39960,0.07921
3226.32807,0.08067
3228.25654,0.07825
3230.18500,0.07792
3232.11347,0.08262
3234.04194,0.08589
3235.97041,0.08402
3237.89888,0.08241
3239.82735,0.08329
3241.75582,0.08402
3243.68428,0.08569
3245.61275,0.08613
3247.54122,0.08129
3249.46969,0.07731
3251.39816,0.07887
3253.32663,0.08120
3255.25510,0.08135
3257.18357,0.07941
3259.11203,0.07831
3261.04050,0.07907
3262.96897,0.07800
3264.89744,0.07813
3266.82591,0.08097
3268.75438,0.08225
3270.68285,0.08115
3272.61131,0.07546
3274.53978,0.07000
3276.46825,0.07271
3278.39672,0.07554
3280.32519,0.07321
3282.25366,0.07372
3284.18213,0.07852
3286.11060,0.08032
3288.03906,0.07830
3289.96753,0.07863
3291.89600,0.08026
3293.82447,0.07893
3295.75294,0.07565
3297.68141,0.07326
3299.60988,0.07649
3301.53834,0.08355
3303.46681,0.08352
3305.39528,0.07707
3307.32375,0.07476
3309.25222,0.07592
3311.18069,0.07635
3313.10916,0.07661
3315.03763,0.07638
3316.96609,0.07402
3318.89456,0.07032
3320.82303,0.07017
3322.75150,0.07448
3324.67997,0.07853
3326.60844,0.07928
3328.53691,0.07846
3330.46537,0.07862
3332.39384,0.08030
3334.32231,0.08382
3336.25078,0.08770
3338.17925,0.09056
3340.10772,0.09131
3342.03619,0.09069
3343.96466,0.09116
3345.89312,0.08965
3347.82159,0.08371
3349.75006,0.07870
3351.67853,0.07756
3353.60700,0.07615
3355.53547,0.07467
3357.46394,0.07506
3359.39240,0.07543
3361.32087,0.07428
3363.24934,0.07111
3365.17781,0.07052
3367.10628,0.07597
3369.03475,0.08211
3370.96322,0.08440
3372.89168,0.08195
3374.82015,0.07492
3376.74862,0.06999
3378.67709,0.07332
3380.60556,0.07800
3382.53403,0.07517
3384.46250,0.06821
3386.39097,0.06509
3388.31943,0.06694
3390.24790,0.07020
3392.17637,0.07146
3394.10484,0.07275
3396.03331,0.07893
3397.96178,0.08254
3399.89025,0.07509
3401.81871,0.06438
3403.74718,0.05946
3405.67565,0.06207
3407.60412,0.06887
3409.53259,0.07116
3411.46106,0.06957
3413.38953,0.07212
3415.31800,0.07365
3417.24646,0.07071
3419.17493,0.07236
3421.10340,0.07996
3423.03187,0.08441
3424.96034,0.08148
3426.88881,0.07824
3428.81728,0.08019
3430.74574,0.08198
3432.67421,0.08042
3434.60268,0.07782
3436.53115,0.07498
3438.45962,0.07428
3440.38809,0.07732
3442.31656,0.07992
3444.24503,0.08061
3446.17349,0.07986
3448.10196,0.07586
3450.03043,0.07532
3451.95890,0.08075
3453.88737,0.08313
3455.81584,0.08199
3457.74431,0.08128
3459.67277,0.07713
3461.60124,0.07063
3463.52971,0.06823
3465.45818,0.06947
3467.38665,0.07201
3469.31512,0.07421
3471.24359,0.07195
3473.17206,0.06734
3475.10052,0.06822
3477.02899,0.07108
3478.95746,0.06904
3480.88593,0.06856
3482.81440,0.07197
3484.74287,0.07293
3486.67134,0.07160
3488.59980,0.06921
3490.52827,0.06605
3492.45674,0.06516
3494.38521,0.06796
3496.31368,0.07064
3498.24215,0.06882
3500.17062,0.06570
3502.09909,0.06701
3504.02755,0.07075
3505.95602,0.07365
3507.88449,0.07748
3509.81296,0.07854
3511.74143,0.07345
3513.66990,0.06636
3515.59837,0.06080
3517.52683,0.05912
3519.45530,0.06120
3521.38377,0.06484
3523.31224,0.06569
3525.24071,0.06094
3527.16918,0.05767
3529.09765,0.05740
3531.02611,0.05417
3532.95458,0.05171
3534.88305,0.05399
3536.81152,0.05780
3538.73999,0.06175
3540.66846,0.06562
3542.59693,0.06638
3544.52540,0.06526
3546.45386,0.06656
3548.38233,0.06574
3550.31080,0.06001
3552.23927,0.05677
3554.16774,0.06051
3556.09621,0.06531
3558.02468,0.06512
3559.95314,0.06291
3561.88161,0.06403
3563.81008,0.06413
3565.73855,0.05878
3567.66702,0.05505
3569.59549,0.05826
3571.52396,0.06147
3573.45243,0.06009
3575.38089,0.05614
3577.30936,0.05422
3579.23783,0.05407
3581.16630,0.05464
3583.09477,0.05692
3585.02324,0.06023
3586.95171,0.06317
3588.88017,0.06201
3590.80864,0.05675
3592.73711,0.05281
3594.66558,0.04963
3596.59405,0.04471
3598.52252,0.04400
3600.45099,0.04892
3602.37946,0.05371
3604.30792,0.05836
3606.23639,0.06183
3608.16486,0.06094
3610.09333,0.06288
3612.02180,0.07072
3613.95027,0.07321
3615.87874,0.06488
3617.80720,0.05368
3619.73567,0.05107
3621.66414,0.05821
3623.59261,0.06191
3625.52108,0.05884
3627.44955,0.05403
3629.37802,0.04993
3631.30649,0.04733
3633.23495,0.04752
3635.16342,0.05009
3637.09189,0.05375
3639.02036,0.05567
3640.94883,0.05359
3642.87730,0.04971
3644.80577,0.04869
3646.73423,0.05282
3648.66270,0.06026
3650.59117,0.06230
3652.51964,0.05762
3654.44811,0.05194
3656.37658,0.04848
3658.30505,0.04968
3660.23352,0.05284
3662.16198,0.05432
3664.09045,0.05513
3666.01892,0.05769
3667.94739,0.05834
3669.87586,0.05341
3671.80433,0.04860
3673.73280,0.04660
3675.66126,0.04870
3677.58973,0.05236
3679.51820,0.05341
3681.44667,0.05504
3683.37514,0.05385
3685.30361,0.04927
3687.23208,0.04642
3689.16055,0.04590
3691.08901,0.04736
3693.01748,0.05014
3694.94595,0.05013
3696.87442,0.04512
3698.80289,0.03793
3700.73136,0.03545
3702.65983,0.04067
3704.58829,0.04397
3706.51676,0.03962
3708.44523,0.03571
3710.37370,0.04049
3712.30217,0.05058
3714.23064,0.05694
3716.15911,0.05595
3718.08757,0.05090
3720.01604,0.04917
3721.94451,0.04979
3723.87298,0.04756
3725.80145,0.04455
3727.72992,0.04221
3729.65839,0.04158
3731.58686,0.04552
3733.51532,0.04975
3735.44379,0.04534
3737.37226,0.04283
3739.30073,0.04844
3741.22920,0.05343
3743.15767,0.05377
3745.08614,0.05222
3747.01460,0.05458
3748.94307,0.05634
3750.87154,0.04851
3752.80001,0.04154
3754.72848,0.04600
3756.65695,0.05163
3758.58542,0.05314
3760.51389,0.05263
3762.44235,0.05300
3764.37082,0.05445
3766.29929,0.05772
3768.22776,0.06377
3770.15623,0.06662
3772.08470,0.06137
3774.01317,0.05672
3775.94163,0.05641
3777.87010,0.05629
3779.79857,0.05398
3781.72704,0.05264
3783.65551,0.05409
3785.58398,0.05603
3787.51245,0.05698
3789.44092,0.05796
3791.36938,0.05645
3793.29785,0.05066
3795.22632,0.04744
3797.15479,0.05194
3799.08326,0.05718
3801.01173,0.05745
3802.94020,0.05475
3804.86866,0.05531
3806.79713,0.05660
3808.72560,0.05194
3810.65407,0.04643
3812.58254,0.04634
3814.51101,0.05126
3816.43948,0.05409
3818.36795,0.04978
3820.29641,0.04379
3822.22488,0.03919
3824.15335,0.03804
3826.08182,0.04056
3828.01029,0.04442
3829.93876,0.04497
3831.86723,0.04140
3833.79569,0.03771
3835.72416,0.03657
3837.65263,0.03890
3839.58110,0.04465
3841.50957,0.05023
3843.43804,0.05153
3845.36651,0.04578
3847.29498,0.03964
3849.22344,0.04042
3851.15191,0.04816
3853.08038,0.05575
3855.00885,0.04776
3856.93732,0.03900
3858.86579,0.03962
3860.79426,0.04466
3862.72272,0.04609
3864.65119,0.04086
3866.57966,0.03880
3868.50813,0.04804
3870.43660,0.05989
3872.36507,0.05717
3874.29354,0.04687
3876.22200,0.03877
3878.15047,0.03264
3880.07894,0.03029
3882.00741,0.03605
3883.93588,0.04455
3885.86435,0.04838
3887.79282,0.04638
3889.72129,0.04543
3891.64975,0.04664
3893.57822,0.04524
3895.50669,0.04353
3897.43516,0.04642
3899.36363,0.05292
3901.29210,0.05224
3903.22057,0.04257
3905.14903,0.03918
3907.07750,0.04205
3909.00597,0.04269
3910.93444,0.04136
3912.86291,0.03986
3914.79138,0.03817
3916.71985,0.03704
3918.64832,0.03895
3920.57678,0.04133
3922.50525,0.04144
3924.43372,0.04289
3926.36219,0.04848
3928.29066,0.05393
3930.21913,0.05137
3932.14760,0.04204
3934.07606,0.03707
3936.00453,0.03871
3937.93300,0.04431
3939.86147,0.05039
3941.78994,0.05052
3943.71841,0.04460
3945.64688,0.04028
3947.57535,0.03980
3949.50381,0.04259
3951.43228,0.04785
3953.36075,0.04971
3955.28922,0.04569
3957.21769,0.04216
3959.14616,0.04325
3961.07463,0.04566
3963.00309,0.04636
3964.93156,0.04618
3966.86003,0.04794
3968.78850,0.05224
3970.71697,0.05383
3972.64544,0.04948
3974.57391,0.04496
3976.50238,0.04219
3978.43084,0.03815
3980.35931,0.03522
3982.28778,0.03471
3984.21625,0.03509
3986.14472,0.03689
3988.07319,0.04072
3990.00166,0.04224
3991.93012,0.03803
3993.85859,0.03234
3995.78706,0.02897
3997.71553,0.02928
3999.64400,0.03253
4001.57247,0.03599
4003.50094,0.03803
4005.42941,0.03691
4007.35787,0.03330
4009.28634,0.03083
4011.21481,0.03184
4013.14328,0.03519
4015.07175,0.03702
4017.00022,0.03496
4018.92869,0.03324
4020.85715,0.03523
4022.78562,0.03492
4024.71409,0.03338
4026.64256,0.03858
4028.57103,0.04321
4030.49950,0.03937
4032.42797,0.03161
4034.35644,0.02484
4036.28490,0.02432
4038.21337,0.03047
4040.14184,0.03411
4042.07031,0.03022
4043.99878,0.02633
4045.92725,0.02726
4047.85572,0.02881
4049.78418,0.03197
4051.71265,0.03755
4053.64112,0.04078
4055.56959,0.03958
4057.49806,0.03783
4059.42653,0.03930
4061.35500,0.04176
4063.28346,0.04294
4065.21193,0.04050
4067.14040,0.03457
4069.06887,0.03095
4070.99734,0.03189
4072.92581,0.03429
4074.85428,0.03488
4076.78275,0.03328
4078.71121,0.03306
4080.63968,0.03489
4082.56815,0.03335
4084.49662,0.02960
4086.42509,0.03224
4088.35356,0.04108
4090.28203,0.04589
4092.21049,0.04361
4094.13896,0.04182
4096.06743,0.04305
4097.99590,0.04258
4099.92437,0.03789
4101.85284,0.03075
4103.78131,0.02774
4105.70978,0.03207
4107.63824,0.03498
4109.56671,0.03014
4111.49518,0.02548
4113.42365,0.02801
4115.35212,0.03290
4117.28059,0.03620
4119.20906,0.03842
4121.13752,0.03780
4123.06599,0.03681
4124.99446,0.03993
4126.92293,0.04514
4128.85140,0.04410
4130.77987,0.03456
4132.70834,0.02906
4134.63681,0.03367
4136.56527,0.03835
4138.49374,0.03693
4140.42221,0.03289
4142.35068,0.02843
4144.27915,0.02399
4146.20762,0.02244
4148.13609,0.02483
4150.06455,0.02679
4151.99302,0.02319
4153.92149,0.01839
4155.84996,0.02010
4157.77843,0.02442
4159.70690,0.02575
4161.63537,0.02857
4163.56384,0.03464
4165.49230,0.03696
4167.42077,0.03579
4169.34924,0.03598
4171.27771,0.03443
4173.20618,0.03047
4175.13465,0.02665
4177.06312,0.02275
4178.99158,0.02155
4180.92005,0.02263
4182.84852,0.02195
4184.77699,0.02250
4186.70546,0.02425
4188.63393,0.02481
4190.56240,0.02887
4192.49087,0.03521
4194.41933,0.03985
4196.34780,0.04240
4198.27627,0.03686
4200.20474,0.02496
4202.13321,0.01984
4204.06168,0.02264
4205.99015,0.02299
4207.91861,0.01844
4209.84708,0.01707
4211.77555,0.02397
4213.70402,0.03105
4215.63249,0.03067
4217.56096,0.02849
4219.48943,0.02845
4221.41789,0.02841
4223.34636,0.03043
4225.27483,0.03642
4227.20330,0.03921
4229.13177,0.03389
4231.06024,0.02873
4232.98871,0.02679
4234.91718,0.02429
4236.84564,0.02317
4238.77411,0.02245
4240.70258,0.01910
4242.63105,0.01856
4244.55952,0.02679
4246.48799,0.03802
4248.41646,0.04209
4250.34492,0.03582
4252.27339,0.02698
4254.20186,0.02417
4256.13033,0.02273
4258.05880,0.01706
4259.98727,0.01504
4261.91574,0.02244
4263.84421,0.02895
4265.77267,0.02775
4267.70114,0.02336
4269.62961,0.01807
4271.55808,0.01526
4273.48655,0.01581
4275.41502,0.01403
4277.34349,0.01396
4279.27195,0.02266
4281.20042,0.03039
4283.12889,0.02612
4285.05736,0.01877
4286.98583,0.02049
4288.91430,0.02462
4290.84277,0.02224
4292.77124,0.01756
4294.69970,0.01344
4296.62817,0.01093
4298.55664,0.01258
4300.48511,0.01708
4302.41358,0.02108
4304.34205,0.02153
4306.27052,0.02022
4308.19898,0.01815
4310.12745,0.01423
4312.05592,0.01383
4313.98439,0.01809
4315.91286,0.01893
4317.84133,0.01390
4319.76980,0.01079
4321.69827,0.01545
4323.62673,0.02300
4325.55520,0.02460
4327.48367,0.01635
4329.41214,0.00596
4331.34061,0.00647
4333.26908,0.01292
4335.19755,0.01190
4337.12601,0.01203
4339.05448,0.02234
4340.98295,0.02845
4342.91142,0.02038
4344.83989,0.00775
4346.76836,0.00408
4348.69683,0.01280
4350.62530,0.02015
4352.55376,0.01310
4354.48223,0.00170
4356.41070,-0.00014
4358.33917,0.00563
4360.26764,0.01384
4362.19611,0.02126
4364.12458,0.02543
4366.05304,0.02660
4367.98151,0.02387
4369.90998,0.01803
4371.83845,0.01224
4373.76692,0.00948
4375.69539,0.01351
4377.62386,0.02249
4379.55232,0.02618
4381.48079,0.02042
4383.40926,0.01411
4385.33773,0.01144
4387.26620,0.01007
4389.19467,0.00933
4391.12314,0.00561
4393.05161,-0.00100
4394.98007,-0.00304
4396.90854,0.00560
4398.83701,0.01751
4400.76548,0.01871
4402.69395,0.01140
4404.62242,0.00750
4406.55089,0.01043
4408.47935,0.01316
4410.40782,0.00932
4412.33629,0.00253
4414.26476,0.00044
4416.19323,0.00700
4418.12170,0.01631
4420.05017,0.01807
4421.97864,0.01111
4423.90710,0.00400
4425.83557,0.00579
4427.76404,0.01546
4429.69251,0.02163
4431.62098,0.01803
4433.54945,0.01266
4435.47792,0.01410
4437.40638,0.01669
4439.33485,0.01171
4441.26332,0.00843
4443.19179,0.01461
4445.12026,0.01589
4447.04873,0.00911
4448.97720,0.00220
4450.90567,-0.00804
4452.83413,-0.01348
4454.76260,-0.00576
4456.69107,0.00297
4458.61954,0.00290
4460.54801,0.00005
4462.47648,0.00483
4464.40495,0.01243
4466.33341,0.01373
4468.26188,0.01274
4470.19035,0.01205
4472.11882,0.00892
4474.04729,0.00383
4475.97576,0.00067
4477.90423,0.00295
4479.83270,0.00581
4481.76116,0.00361
4483.68963,0.00209
4485.61810,0.00562
4487.54657,0.00978
4489.47504,0.01102
4491.40351,0.00740
4493.33198,0.00166
4495.26044,-0.00237
4497.18891,-0.00562
4499.11738,-0.00612
4501.04585,-0.00275
4502.97432,0.00155
4504.90279,0.00634
4506.83126,0.01024
4508.75973,0.01097
4510.68819,0.01080
4512.61666,0.01437
4514.54513,0.02057
4516.47360,0.01974
4518.40207,0.00772
4520.33054,-0.00766
4522.25901,-0.01319
4524.18747,-0.00176
4526.11594,0.01477
4528.04441,0.02152
4529.97288,0.01822
4531.90135,0.01352
4533.82982,0.01535
4535.75829,0.02153
4537.68676,0.02160
4539.61522,0.01369
4541.54369,0.00806
4543.47216,0.00675
4545.40063,0.00164
4547.32910,-0.00575
4549.25757,-0.00230
4551.18604,0.01386
4553.11450,0.02479
4555.04297,0.01994
4556.97144,0.00833
4558.89991,0.00095
4560.82838,0.00006
4562.75685,0.00128
4564.68532,0.00018
4566.61378,-0.00273
4568.54225,-0.00499
4570.47072,-0.00530
4572.39919,-0.00608
4574.32766,-0.00970
4576.25613,-0.00807
4578.18460,-0.00065
4580.11307,0.00394
4582.04153,0.01034
4583.97000,0.01689
4585.89847,0.01477
4587.82694,0.00883
4589.75541,0.00608
4591.68388,0.00706
4593.61235,0.00699
4595.54081,0.00200
4597.46928,-0.00153
4599.39775,0.00236
4601.32622,0.00842
4603.25469,0.00929
4605.18316,0.00511
4607.11163,0.00523
4609.04010,0.01308
4610.96856,0.01609
4612.89703,0.00824
4614.82550,-0.00064
4616.75397,-0.00150
4618.68244,0.00238
4620.61091,0.00069
4622.53938,-0.00641
4624.46784,-0.01191
4626.39631,-0.01144
4628.32478,-0.00362
4630.25325,0.00609
4632.18172,0.01136
4634.11019,0.01315
4636.03866,0.01342
4637.96713,0.01010
4639.89559,0.00460
4641.82406,0.00204
4643.75253,0.00253
4645.68100,0.00579
4647.60947,0.00824
4649.53794,0.00362
4651.46641,-0.00283
4653.39487,-0.00385
4655.32334,-0.00075
4657.25181,0.00200
4659.18028,0.00181
4661.10875,0.00452
4663.03722,0.01425
4664.96569,0.01712
4666.89416,0.00861
4668.82262,0.00459
4670.75109,0.00542
4672.67956,0.00406
4674.60803,0.00408
4676.53650,0.00541
4678.46497,0.00531
4680.39344,0.00180
4682.32190,-0.00443
4684.25037,-0.00481
4686.17884,0.00503
4688.10731,0.01569
4690.03578,0.01613
4691.96425,0.00808
4693.89272,0.00430
4695.82119,0.01110
4697.74965,0.01825
4699.67812,0.01420
4701.60659,0.00236
4703.53506,-0.00893
4705.46353,-0.01666
4707.39200,-0.01358
4709.32047,0.00021
4711.24893,0.00628
4713.17740,-0.00247
4715.10587,-0.01058
4717.03434,-0.00584
4718.96281,0.00932
4720.89128,0.01922
4722.81975,0.01128
4724.74821,-0.00163
4726.67668,-0.00028
4728.60515,0.00944
4730.53362,0.01537
4732.46209,0.01893
4734.39056,0.02018
4736.31903,0.02012
4738.24750,0.02435
4740.17596,0.02223
4742.10443,0.00925
4744.03290,0.00311
4745.96137,0.00575
4747.88984,0.00234
4749.81831,-0.00814
4751.74678,-0.01481
4753.67524,-0.00938
4755.60371,0.00238
4757.53218,0.00272
4759.46065,-0.00776
4761.38912,-0.01709
4763.31759,-0.01768
4765.24606,-0.01028
4767.17453,-0.00569
4769.10299,-0.00409
4771.03146,-0.00054
4772.95993,0.00350
4774.88840,0.00592
4776.81687,0.01055
4778.74534,0.01667
4780.67381,0.01545
4782.60227,0.00794
4784.53074,0.00656
4786.45921,0.01105
4788.38768,0.00049
4790.31615,-0.02204
4792.24462,-0.02933
4794.17309,-0.01799
4796.10156,-0.00400
4798.03002,0.00790
4799.95849,0.01767
4801.88696,0.01388
4803.81543,-0.00692
4805.74390,-0.01836
4807.67237,-0.00240
4809.60084,0.01734
4811.52930,0.01763
4813.45777,0.00664
4815.38624,-0.00005
4817.31471,0.00476
4819.24318,0.01784
4821.17165,0.02091
4823.10012,0.01368
4825.02859,0.01516
4826.95705,0.01688
4828.88552,0.00648
4830.81399,-0.00039
4832.74246,0.00683
4834.67093,0.01298
4836.59940,0.00381
4838.52787,-0.00915
4840.45633,-0.00817
4842.38480,0.00399
4844.31327,0.00937
4846.24174,0.00071
4848.17021,-0.00734
4850.09868,-0.00117
4852.02715,0.00778
4853.95562,0.00524
4855.88408,0.00077
4857.81255,0.00350
4859.74102,0.00622
4861.66949,0.00714
4863.59796,0.00648
4865.52643,-0.00281
4867.45490,-0.01014
4869.38336,0.00165
4871.31183,0.02111
4873.24030,0.02865
4875.16877,0.02844
4877.09724,0.02814
4879.02571,0.02178
4880.95418,0.01367
4882.88265,0.01340
4884.81111,0.01361
4886.73958,0.00867
4888.66805,0.00060
4890.59652,-0.00861
4892.52499,-0.00675
4894.45346,0.00670
4896.38193,0.01373
4898.31039,0.01420
4900.23886,0.02075
4902.16733,0.02803
4904.09580,0.02524
4906.02427,0.01870
4907.95274,0.01706
4909.88121,0.01594
4911.80967,0.00974
4913.73814,0.00592
4915.66661,0.01433
4917.59508,0.02411
4919.52355,0.01973
4921.45202,0.00336
4923.38049,-0.00795
4925.30896,-0.00024
4927.23742,0.01115
4929.16589,0.00680
4931.09436,-0.00586
4933.02283,-0.01464
4934.95130,-0.01774
4936.87977,-0.01468
4938.80824,0.00174
4940.73670,0.02381
4942.66517,0.02970
4944.59364,0.02282
4946.52211,0.01820
4948.45058,0.01096
4950.37905,0.00149
4952.30752,0.00206
4954.23599,0.01053
4956.16445,0.01461
4958.09292,0.00681
4960.02139,-0.00671
4961.94986,-0.01017
4963.87833,-0.00609
4965.80680,-0.00509
4967.73527,0.00079
4969.66373,0.01696
4971.59220,0.02873
4973.52067,0.03056
4975.44914,0.02449
4977.37761,0.00733
4979.30608,-0.00697
4981.23455,-0.01092
4983.16302,-0.01079
4985.09148,-0.00194
4987.01995,0.01108
4988.94842,0.01899
4990.87689,0.02393
4992.80536,0.02565
4994.73383,0.01845
4996.66230,0.00493
4998.59076,0.00169
5000.51923,0.01186
5002.44770,0.01935
5004.37617,0.02004
5006.30464,0.02298
5008.23311,0.02667
5010.16158,0.02565
5012.09005,0.02073
5014.01851,0.01321
5015.94698,0.00213
5017.87545,0.00017
5019.80392,0.00975
5021.73239,0.00910
5023.66086,0.00017
5025.58933,-0.00334
5027.51779,-0.00617
5029.44626,-0.00294
5031.37473,0.01535
5033.30320,0.03400
5035.23167,0.03714
5037.16014,0.03131
5039.08861,0.02799
5041.01708,0.02315
5042.94554,0.01633
5044.87401,0.01346
5046.80248,0.00918
5048.73095,0.00723
5050.65942,0.01204
5052.58789,0.01503
5054.51636,0.01399
5056.44482,0.01082
5058.37329,0.00873
5060.30176,0.00959
5062.23023,0.01242
5064.15870,0.01207
5066.08717,0.00240
5068.01564,-0.00453
5069.94410,-0.00091
5071.87257,0.00714
5073.80104,0.01855
5075.72951,0.02350
5077.65798,0.01627
5079.58645,0.01064
5081.51492,0.01045
5083.44339,0.01170
5085.37185,0.00941
5087.30032,-0.00329
5089.22879,-0.00558
5091.15726,0.01792
5093.08573,0.03271
5095.01420,0.01950
5096.94267,0.00381
5098.87113,0.00381
5100.79960,0.00811
5102.72807,0.00425
5104.65654,-0.00516
5106.58501,-0.01464
5108.51348,-0.01196
5110.44195,0.00164
5112.37042,0.00623
5114.29888,0.00136
5116.22735,-0.00461
5118.15582,-0.00195
5120.08429,0.01398
5122.01276,0.01583
5123.94123,0.00277
5125.86970,0.01061
5127.79816,0.02671
5129.72663,0.01720
5131.65510,0.00052
5133.58357,0.00356
5135.51204,0.01411
5137.44051,0.01037
5139.36898,-0.00430
5141.29745,-0.01392
5143.22591,-0.00653
5145.15438,0.01462
5147.08285,0.02794
5149.01132,0.02425
5150.93979,0.01865
5152.86826,0.02412
5154.79673,0.03140
5156.72519,0.02362
5158.65366,0.00940
5160.58213,0.01219
5162.51060,0.02954
5164.43907,0.04324
5166.36754,0.05046
5168.29601,0.04804
5170.22448,0.02969
5172.15294,0.01136
5174.08141,0.00622
5176.00988,0.00715
5177.93835,0.01500
5179.86682,0.03030
5181.79529,0.03164
5183.72376,0.00409
5185.65222,-0.03041
5187.58069,-0.03907
5189.50916,-0.02575
5191.43763,-0.00529
5193.36610,0.02044
5195.29457,0.04125
5197.22304,0.04340
5199.15151,0.03288
5201.07997,0.03033
5203.00844,0.03610
5204.93691,0.03855
5206.86538,0.04003
5208.79385,0.03252
5210.72232,0.01477
5212.65079,0.01409
5214.57925,0.03016
5216.50772,0.03469
5218.43619,0.02548
5220.36466,0.01728
5222.29313,0.01432
5224.22160,0.01757
5226.15007,0.02031
5228.07854,0.01589
5230.00700,0.00928
5231.93547,0.00309
5233.86394,0.00490
5235.79241,0.01616
5237.72088,0.01777
5239.64935,0.00440
5241.57782,-0.00635
5243.50628,-0.00292
5245.43475,0.01235
5247.36322,0.02757
5249.29169,0.03608
5251.22016,0.03368
5253.14863,0.02167
5255.07710,0.01668
5257.00556,0.01815
5258.93403,0.01464
5260.86250,0.01347
5262.79097,0.01371
5264.71944,0.01212
5266.64791,0.01715
5268.57638,0.02728
5270.50485,0.03379
5272.43331,0.02621
5274.36178,0.01138
5276.29025,0.01065
5278.21872,0.02579
5280.14719,0.04389
5282.07566,0.04518
5284.00413,0.01916
5285.93259,-0.00083
5287.86106,0.00769
5289.78953,0.01253
5291.71800,-0.00290
5293.64647,-0.01072
5295.57494,0.00269
5297.50341,0.01540
5299.43188,0.00779
5301.36034,-0.00223
5303.28881,0.00135
5305.21728,0.00873
5307.14575,0.01186
5309.07422,0.00197
5311.00269,-0.01639
5312.93116,-0.01773
5314.85962,0.00211
5316.78809,0.01759
5318.71656,0.02711
5320.64503,0.04331
5322.57350,0.05667
5324.50197,0.06441
5326.43044,0.06348
5328.35891,0.05197
5330.28737,0.04610
5332.21584,0.04688
5334.14431,0.04539
5336.07278,0.03887
5338.00125,0.02595
5339.92972,0.01308
5341.85819,0.01803
5343.78665,0.02949
5345.71512,0.01835
5347.64359,0.01100
5349.57206,0.02624
5351.50053,0.04176
5353.42900,0.04274
5355.35747,0.03401
5357.28594,0.03250
5359.21440,0.03944
5361.14287,0.04281
5363.07134,0.03067
5364.99981,0.00101
5366.92828,-0.01841
5368.85675,-0.00095
5370.78522,0.03274
5372.71368,0.03975
5374.64215,0.01426
5376.57062,-0.00293
5378.49909,0.01071
5380.42756,0.03161
5382.35603,0.04322
5384.28450,0.02806
5386.21297,-0.00590
5388.14143,-0.01758
5390.06990,-0.01861
5391.99837,-0.01994
5393.92684,-0.00462
5395.85531,0.00757
5397.78378,0.01230
5399.71225,0.03237
5401.64071,0.04787
5403.56918,0.04005
5405.49765,0.02119
5407.42612,0.00274
5409.35459,-0.00129
5411.28306,0.01042
5413.21153,0.02674
5415.13999,0.05130
5417.06846,0.07579
5418.99693,0.08718
5420.92540,0.08383
5422.85387,0.06825
5424.78234,0.04725
5426.71081,0.03049
5428.63928,0.03030
5430.56774,0.04686
5432.49621,0.05771
5434.42468,0.04206
5436.35315,0.01253
5438.28162,-0.00222
5440.21009,-0.00320
5442.13856,0.00687
5444.06702,0.02620
5445.99549,0.03959
5447.92396,0.03780
5449.85243,0.02412
5451.78090,0.00515
5453.70937,-0.01110
5455.63784,-0.01986
5457.56631,-0.01616
5459.49477,0.01322
5461.42324,0.05348
5463.35171,0.05855
5465.28018,0.03226
5467.20865,0.01458
5469.13712,0.01394
5471.06559,0.01459
5472.99405,0.00574
5474.92252,0.00012
5476.85099,0.01390
5478.77946,0.02543
5480.70793,0.02123
5482.63640,0.02616
5484.56487,0.04055
5486.49334,0.03478
5488.42180,0.02082
5490.35027,0.00889
5492.27874,-0.01199
5494.20721,-0.01417
5496.13568,0.00007
5498.06415,0.00471
5499.99262,0.00271
5501.92108,0.00004
5503.84955,0.00909
5505.77802,0.03549
5507.70649,0.05464
5509.63496,0.05046
5511.56343,0.04553
5513.49190,0.04133
5515.42037,0.02085
5517.34883,0.00984
5519.27730,0.01443
5521.20577,0.00836
5523.13424,0.00380
5525.06271,0.00430
5526.99118,-0.00504
5528.91965,-0.00253
5530.84811,0.02864
5532.77658,0.06059
5534.70505,0.05240
5536.63352,0.01253
5538.56199,-0.00308
5540.49046,0.01542
5542.41893,0.03235
5544.34740,0.03119
5546.27586,0.02745
5548.20433,0.03377
5550.13280,0.03799
5552.06127,0.03860
5553.98974,0.04817
5555.91821,0.04757
5557.84668,0.02515
5559.77514,0.03339
5561.70361,0.07409
5563.63208,0.07622
5565.56055,0.04168
5567.48902,0.02388
5569.41749,0.02086
5571.34596,0.00784
5573.27443,-0.00457
5575.20289,0.00297
5577.13136,0.02774
5579.05983,0.04177
5580.98830,0.02257
5582.91677,0.00374
5584.84524,0.00534
5586.77371,0.00705
5588.70217,0.00764
5590.63064,0.00073
5592.55911,-0.01555
5594.48758,-0.01320
5596.41605,0.01340
5598.34452,0.03377
5600.27299,0.03490
5602.20145,0.02490
5604.12992,0.02205
5606.05839,0.03184
5607.98686,0.03382
5609.91533,0.03039
5611.84380,0.02558
5613.77227,0.01975
5615.70074,0.02438
5617.62920,0.01771
5619.55767,-0.00309
5621.48614,-0.00302
5623.41461,0.00895
5625.34308,-0.00550
5627.27155,-0.03038
5629.20002,-0.01951
5631.12848,0.01413
5633.05695,0.04003
5634.98542,0.06785
5636.91389,0.09793
5638.84236,0.09512
5640.77083,0.06601
5642.69930,0.05522
5644.62777,0.06810
5646.55623,0.07603
5648.48470,0.05575
5650.41317,0.02154
5652.34164,0.00025
5654.27011,-0.00670
5656.19858,0.00401
5658.12705,0.03674
5660.05551,0.07323
5661.98398,0.07778
5663.91245,0.05017
5665.84092,0.04034
5667.76939,0.05159
5669.69786,0.04369
5671.62633,0.02018
5673.55480,0.01144
5675.48326,0.01810
5677.41173,0.02524
5679.34020,0.03489
5681.26867,0.05058
5683.19714,0.06646
5685.12561,0.07144
5687.05408,0.05920
5688.98254,0.03393
5690.91101,0.01063
5692.83948,0.01221
5694.76795,0.03993
5696.69642,0.06276
5698.62489,0.06026
5700.55336,0.06312
5702.48183,0.07440
5704.41029,0.05332
5706.33876,0.01516
5708.26723,-0.00044
5710.19570,0.01432
5712.12417,0.03733
5714.05264,0.05785
5715.98111,0.06760
5717.90957,0.04145
5719.83804,0.02778
5721.76651,0.05225
5723.69498,0.06562
5725.62345,0.06449
5727.55192,0.06271
5729.48039,0.06024
5731.40886,0.04664
5733.33732,0.01603
5735.26579,0.00187
5737.19426,0.02387
5739.12273,0.04329
5741.05120,0.03673
5742.97967,0.01869
5744.90814,-0.00056
5746.83660,-0.00786
5748.76507,0.01635
5750.69354,0.06058
5752.62201,0.08296
5754.55048,0.07479
5756.47895,0.04623
5758.40742,0.00810
5760.33588,-0.00226
5762.26435,0.02592
5764.19282,0.05086
5766.12129,0.05568
5768.04976,0.05448
5769.97823,0.04341
5771.90670,0.03888
5773.83517,0.06306
5775.76363,0.07954
5777.69210,0.05889
5779.62057,0.03898
5781.54904,0.04511
5783.47751,0.05670
5785.40598,0.07703
5787.33445,0.09721
5789.26291,0.09256
5791.19138,0.09601
5793.11985,0.11243
5795.04832,0.08580
5796.97679,0.03394
5798.90526,0.02783
5800.83373,0.03724
5802.76220,0.00866
5804.69066,-0.02530
5806.61913,-0.02267
5808.54760,0.00263
5810.47607,0.02019
5812.40454,0.02787
5814.33301,0.03054
5816.26148,0.01401
5818.18994,-0.02055
5820.11841,-0.02973
5822.04688,0.00800
5823.97535,0.04811
5825.90382,0.04436
5827.83229,-0.00253
5829.76076,-0.03496
5831.68923,-0.01752
5833.61769,0.00700
5835.54616,0.01940
5837.47463,0.03887
5839.40310,0.04239
5841.33157,0.02550
5843.26004,0.02679
5845.18851,0.03908
5847.11697,0.04073
5849.04544,0.03514
5850.97391,0.03170
5852.90238,0.02843
5854.83085,0.03169
5856.75932,0.04803
5858.68779,0.05502
5860.61626,0.05311
5862.54472,0.04546
5864.47319,0.01962
5866.40166,-0.00767
5868.33013,-0.02025
5870.25860,-0.01745
5872.18707,0.00577
5874.11554,0.04606
5876.04400,0.07584
5877.97247,0.08416
5879.90094,0.07668
5881.82941,0.04595
5883.75788,0.02601
5885.68635,0.03968
5887.61482,0.05373
5889.54329,0.06933
5891.47175,0.07472
5893.40022,0.02614
5895.32869,-0.04162
5897.25716,-0.06723
5899.18563,-0.05063
5901.11410,-0.03202
5903.04257,-0.02090
5904.97103,0.00877
5906.89950,0.04494
5908.82797,0.05132
5910.75644,0.03770
5912.68491,0.03924
5914.61338,0.05546
5916.54185,0.07619
5918.47032,0.09166
5920.39878,0.08984
5922.32725,0.08753
5924.25572,0.09035
5926.18419,0.09928
5928.11266,0.12509
5930.04113,0.13496
5931.96960,0.10261
5933.89806,0.05362
5935.82653,0.00539
5937.75500,-0.03008
5939.68347,-0.02070
5941.61194,0.02108
5943.54041,0.02786
5945.46888,-0.01947
5947.39734,-0.03805
5949.32581,0.02976
5951.25428,0.10325
5953.18275,0.11848
5955.11122,0.11256
5957.03969,0.10660
5958.96816,0.08706
5960.89663,0.04230
5962.82509,-0.00482
5964.75356,-0.00967
5966.68203,0.03142
5968.61050,0.05466
5970.53897,0.02330
5972.46744,-0.00299
5974.39591,0.01268
5976.32437,0.02105
5978.25284,0.01195
5980.18131,0.01901
5982.10978,0.02245
5984.03825,0.00624
5985.96672,0.00927
5987.89519,0.02225
5989.82366,0.02423
5991.75212,0.04970
5993.68059,0.06598
5995.60906,0.02490
5997.53753,-0.00784
5999.46600,0.00995
6001.39447,0.03004
6003.32294,0.02299
6005.25140,0.00699
6007.17987,-0.00419
6009.10834,-0.00290
6011.03681,0.01982
6012.96528,0.04594
6014.89375,0.04645
6016.82222,0.03446
6018.75069,0.05364
6020.67915,0.08025
6022.60762,0.06802
6024.53609,0.05343
6026.46456,0.07238
6028.39303,0.08910
6030.32150,0.08009
6032.24997,0.07354
6034.17843,0.06918
6036.10690,0.04709
6038.03537,0.02942
6039.96384,0.05448
6041.89231,0.09883
6043.82078,0.12239
6045.74925,0.13330
6047.67772,0.12528
6049.60618,0.08292
6051.53465,0.04546
6053.46312,0.05215
6055.39159,0.07368
6057.32006,0.06857
6059.24853,0.06394
6061.17700,0.06593
6063.10546,0.03974
6065.03393,0.01332
6066.96240,0.01138
6068.89087,0.00342
6070.81934,0.00485
6072.74781,0.03640
6074.67628,0.05420
6076.60475,0.03192
6078.53321,-0.00912
6080.46168,-0.04560
6082.39015,-0.05223
6084.31862,-0.01231
6086.24709,0.02861
6088.17556,0.01022
6090.10403,-0.03903
6092.03249,-0.05306
6093.96096,-0.02165
6095.88943,0.02321
6097.81790,0.08315
6099.74637,0.11873
6101.67484,0.07007
6103.60331,-0.00067
6105.53177,-0.00918
6107.46024,0.02215
6109.38871,0.02297
6111.31718,-0.00191
6113.24565,-0.00896
6115.17412,-0.01243
6117.10259,-0.03527
6119.03106,-0.05695
6120.95952,-0.07335
6122.88799,-0.10167
6124.81646,-0.09931
6126.74493,-0.02862
6128.67340,0.05808
6130.60187,0.09317
6132.53034,0.08980
6134.45880,0.07959
6136.38727,0.05636
6138.31574,0.01872
6140.24421,-0.01115
6142.17268,-0.01203
6144.10115,0.00946
6146.02962,0.00774
6147.95809,-0.00281
6149.88655,0.04919
6151.81502,0.11227
6153.74349,0.08568
6155.67196,0.02156
6157.60043,0.00061
6159.52890,0.02988
6161.45737,0.07993
6163.38583,0.10498
6165.31430,0.09341
6167.24277,0.07503
6169.17124,0.04599
6171.09971,0.01014
6173.02818,-0.00043
6174.95665,0.01146
6176.88512,0.02257
6178.81358,0.02806
6180.74205,0.03703
6182.67052,0.01954
6184.59899,-0.00920
6186.52746,0.03971
6188.45593,0.14063
6190.38440,0.14898
6192.31286,0.06749
6194.24133,-0.00135
6196.16980,-0.02064
6198.09827,0.00897
6200.02674,0.05170
6201.95521,0.05286
6203.88368,0.02424
6205.81215,0.01335
6207.74061,-0.00022
6209.66908,-0.03805
6211.59755,-0.04231
6213.52602,-0.02027
6215.45449,-0.01270
6217.38296,0.01209
6219.31143,0.05667
6221.23989,0.08473
6223.16836,0.07066
6225.09683,0.02600
6227.02530,0.00589
6228.95377,0.02688
6230.88224,0.04995
6232.81071,0.05100
6234.73918,0.05300
6236.66764,0.06579
6238.59611,0.06911
6240.52458,0.05987
6242.45305,0.04078
6244.38152,0.00937
6246.30999,-0.00675
6248.23846,0.02085
6250.16692,0.05396
6252.09539,0.04410
6254.02386,0.01965
6255.95233,-0.00019
6257.88080,-0.01400
6259.80927,-0.00114
6261.73774,0.03519
6263.66621,0.05692
6265.59467,0.01900
6267.52314,-0.03219
6269.45161,-0.03530
6271.38008,-0.01087
6273.30855,0.05004
6275.23702,0.11952
6277.16549,0.12899
6279.09395,0.12399
6281.02242,0.13735
6282.95089,0.12789
6284.87936,0.08498
6286.80783,0.03710
6288.73630,0.00795
6290.66477,-0.00027
6292.59323,0.00623
6294.52170,-0.00373
6296.45017,-0.03188
6298.37864,0.00261
6300.30711,0.08084
6302.23558,0.09684
6304.16405,0.09934
6306.09252,0.14217
6308.02098,0.14006
6309.94945,0.07235
6311.87792,0.02522
6313.80639,0.02284
6315.73486,-0.00356
6317.66333,-0.03978
6319.59180,0.01725
6321.52026,0.13916
6323.44873,0.19320
6325.37720,0.18214
6327.30567,0.17748
6329.23414,0.16048
6331.16261,0.08630
6333.09108,-0.00287
6335.01955,-0.02223
6336.94801,0.02094
6338.87648,0.03400
6340.80495,0.00676
6342.73342,0.01676
6344.66189,0.04782
6346.59036,0.05461
6348.51883,0.10573
6350.44729,0.20010
6352.37576,0.20655
6354.30423,0.11998
6356.23270,0.04593
6358.16117,0.02262
6360.08964,0.01011
6362.01811,0.00721
6363.94658,0.03652
6365.87504,0.05439
6367.80351,0.03889
6369.73198,0.02330
6371.66045,0.03438
6373.58892,0.08475
6375.51739,0.10523
6377.44586,0.04851
6379.37432,0.02258
6381.30279,0.10147
6383.23126,0.17482
6385.15973,0.12684
6387.08820,0.02769
6389.01667,-0.04237
6390.94514,-0.04971
6392.87361,0.00579
6394.80207,0.04235
6396.73054,0.01762
6398.65901,0.00077
6400.58748,0.01840
6402.51595,0.00464
6404.44442,-0.02936
6406.37289,0.01627
6408.30135,0.10869
6410.22982,0.14488
6412.15829,0.15073
6414.08676,0.13781
6416.01523,0.06288
6417.94370,-0.01131
6419.87217,-0.00057
6421.80064,0.03828
6423.72910,0.02641
6425.65757,-0.04254
6427.58604,-0.08960
6429.51451,-0.03888
6431.44298,0.08335
6433.37145,0.14391
6435.29992,0.10431
6437.22838,0.05306
6439.15685,0.03687
6441.08532,0.02788
6443.01379,0.00095
6444.94226,-0.00669
6446.87073,0.03991
6448.79920,0.08909
6450.72766,0.07686
6452.65613,-0.00115
6454.58460,-0.07081
6456.51307,-0.06819
6458.44154,-0.04494
6460.37001,-0.05389
6462.29848,-0.06197
6464.22695,-0.06168
6466.15541,-0.03852
6468.08388,0.02339
6470.01235,0.06194
6471.94082,0.04924
6473.86929,0.02144
6475.79776,0.00314
6477.72623,0.03406
6479.65469,0.09868
6481.58316,0.14084
6483.51163,0.15400
6485.44010,0.15445
6487.36857,0.13627
6489.29704,0.09203
6491.22551,0.01217
6493.15398,-0.05146
6495.08244,-0.03569
6497.01091,-0.00261
6498.93938,0.00183
6500.86785,0.03153
6502.79632,0.07641
6504.72479,0.07041
6506.65326,0.04558
6508.58172,0.03277
6510.51019,0.01193
6512.43866,-0.04391
6514.36713,-0.13217
6516.29560,-0.12748
6518.22407,0.01407
6520.15254,0.10197
6522.08101,0.07371
6524.00947,0.03148
6525.93794,0.06631
6527.86641,0.16251
6529.79488,0.21030
6531.72335,0.17035
6533.65182,0.12848
6535.58029,0.15602
6537.50875,0.18318
6539.43722,0.11910
6541.36569,0.02712
6543.29416,-0.00516
6545.22263,-0.01182
6547.15110,-0.03093
6549.07957,-0.03784
6551.00804,-0.02653
6552.93650,0.00119
6554.86497,0.05352
6556.79344,0.11210
6558.72191,0.13507
6560.65038,0.07812
6562.57885,0.01771
6564.50732,0.07386
6566.43578,0.15711
6568.36425,0.13690
6570.29272,0.07536
6572.22119,0.01146
6574.14966,-0.05541
6576.07813,-0.06625
6578.00660,-0.04083
6579.93507,-0.02852
6581.86353,0.02338
6583.79200,0.10106
6585.72047,0.10555
6587.64894,0.08415
6589.57741,0.07540
6591.50588,0.03139
6593.43435,0.00615
6595.36281,0.06846
6597.29128,0.12408
6599.21975,0.08571
6601.14822,0.01060
6603.07669,-0.03191
6605.00516,-0.07553
6606.93363,-0.09787
6608.86210,-0.04176
6610.79056,0.03482
6612.71903,0.08199
6614.64750,0.12803
6616.57597,0.12089
6618.50444,0.02018
6620.43291,-0.02912
6622.36138,0.02321
6624.28984,0.06380
6626.21831,0.05736
6628.14678,0.03464
6630.07525,0.00216
6632.00372,-0.01630
6633.93219,-0.00438
6635.86066,0.01792
6637.78912,-0.00763
6639.71759,-0.06305
6641.64606,-0.08150
6643.57453,-0.05646
6645.50300,0.02049
6647.43147,0.08756
6649.35994,0.06964
6651.28841,0.04715
6653.21687,0.06534
6655.14534,0.09269
6657.07381,0.08931
6659.00228,0.00371
6660.93075,-0.08203
6662.85922,-0.03156
6664.78769,0.12029
6666.71615,0.19507
6668.64462,0.11514
6670.57309,0.11188
6672.50156,0.20661
6674.43003,0.14420
6676.35850,0.00362
6678.28697,-0.02110
6680.21544,0.03427
6682.14390,0.05902
6684.07237,-0.00797
6686.00084,-0.07799
6687.92931,-0.03804
6689.85778,0.03312
6691.78625,0.06726
6693.71472,0.09099
6695.64318,0.09018
6697.57165,0.06419
6699.50012,-0.00859
6701.42859,-0.11622
6703.35706,-0.20685
6705.28553,-0.21189
6707.21400,-0.14602
6709.14247,-0.11439
6711.07093,-0.11213
6712.99940,-0.08763
6714.92787,-0.04724
6716.85634,-0.01303
6718.78481,0.01523
6720.71328,0.07039
6722.64175,0.08699
6724.57021,0.03646
6726.49868,0.03266
6728.42715,0.07582
6730.35562,0.10398
6732.28409,0.09321
6734.21256,0.04078
6736.14103,0.02875
6738.06950,0.09100
6739.99796,0.13606
6741.92643,0.15230
6743.85490,0.20175
6745.78337,0.21172
6747.71184,0.11279
6749.64031,0.00723
6751.56878,-0.02584
6753.49724,-0.01153
6755.42571,0.04910
6757.35418,0.12306
6759.28265,0.18655
6761.21112,0.25880
6763.13959,0.27278
6765.06806,0.18671
6766.99653,0.09758
6768.92499,0.06518
6770.85346,0.05638
6772.78193,0.06411
6774.71040,0.08386
6776.63887,0.07807
6778.56734,0.02795
6780.49581,-0.00242
6782.42427,0.05721
6784.35274,0.15226
6786.28121,0.18723
6788.20968,0.15742
6790.13815,0.07688
6792.06662,-0.02602
6793.99509,-0.05355
6795.92355,0.03333
6797.85202,0.16756
6799.78049,0.24692
6801.70896,0.19333
6803.63743,0.04289
6805.56590,-0.04654
6807.49437,-0.02590
6809.42284,0.00182
6811.35130,0.02539
6813.27977,0.08659
6815.20824,0.10407
6817.13671,0.04369
6819.06518,0.00141
6820.99365,0.03289
6822.92212,0.07803
6824.85058,0.07281
6826.77905,0.05723
6828.70752,0.02381
6830.63599,0.00948
6832.56446,0.09151
6834.49293,0.15213
6836.42140,0.03850
6838.34987,-0.05540
6840.27833,0.03701
6842.20680,0.10188
6844.13527,0.07267
6846.06374,0.08048
6847.99221,0.10799
6849.92068,0.09216
6851.84915,0.02183
6853.77761,-0.05324
6855.70608,-0.04976
6857.63455,0.01568
6859.56302,0.01151
6861.49149,-0.04540
6863.41996,-0.03024
6865.34843,0.03439
6867.27690,0.11645
6869.20536,0.18965
6871.13383,0.15650
6873.06230,0.06159
6874.99077,0.00128
6876.91924,-0.02957
6878.84771,-0.03802
6880.77618,-0.03112
6882.70464,-0.02480
6884.63311,-0.02458
6886.56158,-0.04385
6888.49005,-0.04991
6890.41852,-0.02197
6892.34699,0.00726
6894.27546,0.01037
6896.20393,-0.01236
6898.13239,-0.02397
6900.06086,0.03917
6901.98933,0.14256
6903.91780,0.20459
6905.84627,0.19691
6907.77474,0.20813
6909.70321,0.27621
6911.63167,0.31902
6913.56014,0.25148
6915.48861,0.07390
6917.41708,-0.08219
6919.34555,-0.07191
6921.27402,-0.02381
6923.20249,-0.07057
6925.13096,-0.05924
6927.05942,0.03678
6928.98789,0.08810
6930.91636,0.12751
6932.84483,0.20302
6934.77330,0.21536
6936.70177,0.15872
6938.63024,0.03266
6940.55870,-0.13241
6942.48717,-0.14900
6944.41564,-0.00516
6946.34411,0.11747
6948.27258,0.13164
6950.20105,0.13207
6952.12952,0.15992
6954.05799,0.15959
6955.98645,0.10768
6957.91492,0.07148
6959.84339,0.07759
6961.77186,0.05609
6963.70033,0.01715
6965.62880,0.01271
6967.55727,0.02133
6969.48573,0.07696
6971.41420,0.24603
6973.34267,0.38316
6975.27114,0.27334
6977.19961,0.05581
6979.12808,-0.02161
6981.05655,0.03405
6982.98501,0.08021
6984.91348,0.05666
6986.84195,0.01680
6988.77042,-0.02171
6990.69889,-0.00163
6992.62736,0.07201
6994.55583,0.09428
6996.48430,0.05481
6998.41276,0.03896
7000.34123,0.06835
7002.26970,0.07002
7004.19817,0.03086
7006.12664,-0.03435
7008.05511,-0.11785
7009.98358,-0.14511
7011.91204,-0.08220
7013.84051,0.01356
7015.76898,0.05010
7017.69745,0.01225
7019.62592,-0.07491
7021.55439,-0.14043
7023.48286,-0.09436
7025.41133,0.01996
7027.33979,0.08232
7029.26826,0.04324
7031.19673,-0.05587
7033.12520,-0.09497
7035.05367,-0.00284
7036.98214,0.09771
7038.91061,0.10363
7040.83907,0.06345
7042.76754,0.08540
7044.69601,0.18136
7046.62448,0.19265
7048.55295,0.11736
7050.48142,0.07583
7052.40989,0.07784
7054.33836,0.11568
7056.26682,0.10234
7058.19529,-0.03953
7060.12376,-0.14274
7062.05223,-0.10613
7063.98070,0.00113
7065.90917,0.05753
7067.83764,0.06764
7069.76610,0.12905
7071.69457,0.23557
7073.62304,0.26171
7075.55151,0.18409
7077.47998,0.08244
7079.40845,0.00313
7081.33692,-0.02147
7083.26539,0.02174
7085.19385,0.05520
7087.12232,0.02375
7089.05079,-0.00760
7090.97926,0.01374
7092.90773,0.02247
7094.83620,0.01772
7096.76467,0.04817
7098.69313,0.09731
7100.62160,0.09584
7102.55007,0.06747
7104.47854,0.09013
7106.40701,0.15212
7108.33548,0.20317
7110.26395,0.23098
7112.19242,0.23366
7114.12088,0.20419
7116.04935,0.11670
7117.97782,0.04159
7119.90629,0.08917
7121.83476,0.13365
7123.76323,0.06074
7125.69170,-0.05743
7127.62016,-0.09430
7129.54863,-0.11844
7131.47710,-0.18076
7133.40557,-0.13729
7135.33404,-0.01188
7137.26251,0.04862
7139.19098,0.01562
7141.11944,-0.06052
7143.04791,-0.04324
7144.97638,0.08424
7146.90485,0.11931
7148.83332,0.01454
7150.76179,-0.10561
7152.69026,-0.16160
7154.61873,-0.14188
7156.54719,-0.10570
7158.47566,-0.08156
7160.40413,-0.08221
7162.33260,-0.12113
7164.26107,-0.17002
7166.18954,-0.16994
7168.11801,-0.11069
7170.04647,-0.05807
7171.97494,-0.07459
7173.90341,-0.17152
7175.83188,-0.19094
7177.76035,-0.00558
7179.68882,0.17759
7181.61729,0.21154
7183.54576,0.15030
7185.47422,0.08936
7187.40269,0.07637
7189.33116,0.11265
7191.25963,0.15546
7193.18810,0.14185
7195.11657,0.10924
7197.04504,0.08866
7198.97350,0.05504
7200.90197,0.06857
7202.83044,0.15508
7204.75891,0.19161
7206.68738,0.14863
7208.61585,0.16801
7210.54432,0.24370
7212.47279,0.22987
7214.40125,0.06645
7216.32972,-0.12139
7218.25819,-0.18722
7220.18666,-0.09995
7222.11513,-0.01933
7224.04360,0.02234
7225.97207,0.20740
7227.90053,0.42219
7229.82900,0.37479
7231.75747,0.17539
7233.68594,0.12158
7235.61441,0.16491
7237.54288,0.10464
7239.47135,-0.00555
7241.39982,0.09306
7243.32828,0.24463
7245.25675,0.09151
7247.18522,-0.10316
7249.11369,-0.07696
7251.04216,0.11370
7252.97063,0.23616
7254.89910,0.14651
7256.82756,0.03234
7258.75603,0.04132
7260.68450,0.15701
7262.61297,0.20494
7264.54144,0.14878
7266.46991,0.10541
7268.39838,0.05104
7270.32685,-0.14513
7272.25531,-0.33261
7274.18378,-0.19455
7276.11225,-0.03298
7278.04072,-0.02293
7279.96919,0.00828
7281.89766,0.15960
7283.82613,0.24383
7285.75459,0.20567
7287.68306,0.21158
7289.61153,0.28797
7291.54000,0.26185
7293.46847,0.17086
7295.39694,0.12099
7297.32541,0.06361
7299.25387,-0.04124
7301.18234,-0.13248
7303.11081,-0.11065
7305.03928,0.03595
7306.96775,0.21853
7308.89622,0.30996
7310.82469,0.27248
7312.75316,0.16636
7314.68162,-0.04698
7316.61009,-0.26608
7318.53856,-0.20810
7320.46703,0.05215
7322.39550,0.28403
7324.32397,0.29427
7326.25244,0.10986
7328.18090,-0.10188
7330.10937,-0.21923
7332.03784,-0.19632
7333.96631,-0.18324
7335.89478,-0.24528
7337.82325,-0.22211
7339.75172,0.03284
7341.68019,0.20739
7343.60865,0.15581
7345.53712,0.07955
7347.46559,-0.03111
7349.39406,-0.15247
7351.32253,-0.12651
7353.25100,-0.02688
7355.17947,-0.11316
7357.10793,-0.34254
7359.03640,-0.30861
7360.96487,0.10113
7362.89334,0.45281
7364.82181,0.46582
7366.75028,0.32871
7368.67875,0.21372
7370.60722,0.06878
7372.53568,-0.06944
7374.46415,-0.10588
7376.39262,-0.03662
7378.32109,0.02050
7380.24956,0.09252
7382.17803,0.22685
7384.10650,0.31802
7386.03496,0.20842
7387.96343,-0.02122
7389.89190,-0.08120
7391.82037,0.05220
7393.74884,0.17617
7395.67731,0.16048
7397.60578,0.07392
7399.53425,0.05850
7401.46271,0.16163
7403.39118,0.25157
7405.31965,0.17622
7407.24812,0.08163
7409.17659,0.10935
7411.10506,0.07591
7413.03353,-0.10466
7414.96199,-0.20853
7416.89046,-0.08345
7418.81893,0.12961
7420.74740,0.14242
7422.67587,0.07435
7424.60434,0.11847
7426.53281,0.24916
7428.46128,0.43035
7430.38974,0.55789
7432.31821,0.47349
7434.24668,0.22920
7436.17515,-0.02798
7438.10362,-0.05176
7440.03209,0.14762
7441.96056,0.26721
7443.88902,0.18372
7445.81749,0.02159
7447.74596,0.01457
7449.67443,0.24025
7451.60290,0.43204
7453.53137,0.38363
7455.45984,0.28607
7457.38831,0.21802
7459.31677,0.10273
7461.24524,0.07737
7463.17371,0.26604
7465.10218,0.42714
7467.03065,0.36871
7468.95912,0.22965
7470.88759,0.14384
7472.81605,0.04651
7474.74452,-0.06119
7476.67299,-0.04185
7478.60146,0.04463
7480.52993,0.03848
7482.45840,-0.03188
7484.38687,-0.17469
7486.31533,-0.28265
7488.24380,-0.16856
7490.17227,0.13326
7492.10074,0.23499
7494.02921,0.02208
7495.95768,-0.10445
7497.88615,-0.03402
