399.19301,0.37283
401.12148,0.10389
403.04995,0.31871
404.97842,0.11495
406.90689,-0.18399
408.83536,-0.28011
410.76382,-0.09697
412.69229,0.06520
414.62076,0.09425
416.54923,0.06039
418.47770,0.09387
420.40617,0.21849
422.33464,0.23530
424.26311,0.22521
426.19157,0.25596
428.12004,0.28137
430.04851,0.23577
431.97698,0.21346
433.90545,0.25565
435.83392,0.26784
437.76239,0.23206
439.69085,0.19850
441.61932,0.24436
443.54779,0.30439
445.47626,0.28358
447.40473,0.22953
449.33320,0.20552
451.26167,0.17518
453.19013,0.11947
455.11860,0.03300
457.04707,-0.03410
458.97554,0.01685
460.90401,0.04106
462.83248,-0.02070
464.76095,-0.06516
466.68942,-0.02998
468.61788,0.03818
470.54635,0.07417
472.47482,0.10434
474.40329,0.15877
476.33176,0.18062
478.26023,0.15006
480.18870,0.10418
482.11716,0.08293
484.04563,0.12997
485.97410,0.19073
487.90257,0.15417
489.83104,0.07522
491.75951,0.05286
493.68798,0.10227
495.61645,0.16900
497.54491,0.20043
499.47338,0.18836
501.40185,0.11565
503.33032,0.01249
505.25879,-0.04399
507.18726,-0.01018
509.11573,0.07283
511.04419,0.12873
512.97266,0.13665
514.90113,0.11341
516.82960,0.09824
518.75807,0.09783
520.68654,0.11636
522.61501,0.10287
524.54348,0.01231
526.47194,-0.05802
528.40041,-0.02256
530.32888,0.06293
532.25735,0.11405
534.18582,0.12466
536.11429,0.13473
538.04276,0.15202
539.97122,0.12564
541.89969,0.05127
543.82816,-0.01109
545.75663,-0.01583
547.68510,0.04328
549.61357,0.08449
551.54204,0.03440
553.47051,-0.03095
555.39897,-0.00145
557.32744,0.07173
559.25591,0.12028
561.18438,0.15188
563.11285,0.13667
565.04132,0.08352
566.96979,0.05190
568.89825,0.07478
570.82672,0.09535
572.75519,0.07662
574.68366,0.05097
576.61213,0.04453
578.54060,0.06175
580.46907,0.08333
582.39754,0.09299
584.32600,0.08420
586.25447,0.09090
588.18294,0.11612
590.11141,0.12433
592.03988,0.11091
593.96835,0.07879
595.89682,0.06156
597.82528,0.06159
599.75375,0.04866
601.68222,0.03774
603.61069,0.05679
605.53916,0.09210
607.46763,0.11402
609.39610,0.10637
611.32456,0.07696
613.25303,0.06596
615.18150,0.07834
617.10997,0.07852
619.03844,0.06404
620.96691,0.04973
622.89538,0.05117
624.82385,0.07142
626.75231,0.08897
628.68078,0.10438
630.60925,0.12343
632.53772,0.12621
634.46619,0.11384
636.39466,0.10983
638.32313,0.10613
640.25159,0.09012
642.18006,0.07283
644.10853,0.06073
646.03700,0.06432
647.96547,0.06898
649.89394,0.05785
651.82241,0.05931
653.75088,0.06933
655.67934,0.06282
657.60781,0.04880
659.53628,0.04120
661.46475,0.04188
663.39322,0.05269
665.32169,0.07296
667.25016,0.10525
669.17862,0.13488
671.10709,0.14783
673.03556,0.14846
674.96403,0.11836
676.89250,0.08136
678.82097,0.07333
680.74944,0.08784
682.67791,0.09624
684.60637,0.09167
686.53484,0.09607
688.46331,0.10998
690.39178,0.11286
692.32025,0.10133
694.24872,0.08828
696.17719,0.07013
698.10565,0.05191
700.03412,0.05561
701.96259,0.08172
703.89106,0.11027
705.81953,0.11680
707.74800,0.10358
709.67647,0.09546
711.60494,0.11075
713.53340,0.13296
715.46187,0.12890
717.39034,0.11575
719.31881,0.11687
721.24728,0.11386
723.17575,0.10551
725.10422,0.10570
727.03268,0.10247
728.96115,0.09732
730.88962,0.10339
732.81809,0.10906
734.74656,0.11062
736.67503,0.11135
738.60350,0.09995
740.53197,0.08319
742.46043,0.07730
744.38890,0.07912
746.31737,0.09000
748.24584,0.10564
750.17431,0.10050
752.10278,0.08527
754.03125,0.08462
755.95971,0.08731
757.88818,0.08982
759.81665,0.09464
761.74512,0.09144
763.67359,0.07867
765.60206,0.07171
767.53053,0.07989
769.45900,0.09798
771.38746,0.11152
773.31593,0.10694
775.24440,0.09661
777.17287,0.09393
779.10134,0.10011
781.02981,0.10849
782.95828,0.10427
784.88674,0.09361
786.81521,0.09102
788.74368,0.08767
790.67215,0.07961
792.60062,0.08566
794.52909,0.10084
796.45756,0.10706
798.38602,0.10236
800.31449,0.09063
802.24296,0.08501
804.17143,0.08004
806.09990,0.06941
808.02837,0.06444
809.95684,0.06908
811.88531,0.08390
813.81377,0.10631
815.74224,0.12714
817.67071,0.13630
819.59918,0.12910
821.52765,0.11763
823.45612,0.12044
825.38459,0.12511
827.31305,0.11612
829.24152,0.10741
831.16999,0.10605
833.09846,0.10605
835.02693,0.09924
836.95540,0.08953
838.88387,0.09321
840.81234,0.11030
842.74080,0.12235
844.66927,0.12053
846.59774,0.11353
848.52621,0.10799
850.45468,0.10785
852.38315,0.11188
854.31162,0.11574
856.24008,0.11474
858.16855,0.10937
860.09702,0.10573
862.02549,0.10290
863.95396,0.10040
865.88243,0.07059
867.81090,-0.00413
869.73937,-0.05196
871.66783,-0.01118
873.59630,0.06166
875.52477,0.09377
877.45324,0.09291
879.38171,0.09555
881.31018,0.11134
883.23865,0.12074
885.16711,0.11712
887.09558,0.11449
889.02405,0.11232
890.95252,0.11505
892.88099,0.12197
894.80946,0.11734
896.73793,0.10177
898.66640,0.08644
900.59486,0.07866
902.52333,0.08508
904.45180,0.09979
906.38027,0.10862
908.30874,0.11211
910.23721,0.10538
912.16568,0.08769
914.09414,0.07962
916.02261,0.09062
917.95108,0.11011
919.87955,0.12458
921.80802,0.13003
923.73649,0.12307
925.66496,0.11151
927.59343,0.10937
929.52189,0.10963
931.45036,0.10847
933.37883,0.11144
935.30730,0.11351
937.23577,0.10887
939.16424,0.10066
941.09271,0.09990
943.02117,0.11497
944.94964,0.13053
946.87811,0.12976
948.80658,0.12108
950.73505,0.11496
952.66352,0.11334
954.59199,0.11381
956.52045,0.11548
958.44892,0.11592
960.37739,0.11217
962.30586,0.11141
964.23433,0.11859
966.16280,0.12752
968.09127,0.12797
970.01974,0.12452
971.94820,0.12539
973.87667,0.12611
975.80514,0.12639
977.73361,0.12479
979.66208,0.11625
981.59055,0.10909
983.51902,0.11375
985.44748,0.12268
987.37595,0.12726
989.30442,0.12598
991.23289,0.12341
993.16136,0.12762
995.08983,0.13069
997.01830,0.12999
998.94677,0.12695
1000.87523,0.11899
1002.80370,0.11754
1004.73217,0.12394
1006.66064,0.12877
1008.58911,0.13135
1010.51758,0.13396
1012.44605,0.13693
1014.37451,0.14183
1016.30298,0.14343
1018.23145,0.13361
1020.15992,0.12299
1022.08839,0.12141
1024.01686,0.11183
1025.94533,0.07759
1027.87380,0.05484
1029.80226,0.08157
1031.73073,0.12045
1033.65920,0.13495
1035.58767,0.13909
1037.51614,0.14233
1039.44461,0.13787
1041.37308,0.12762
1043.30154,0.11698
1045.23001,0.11212
1047.15848,0.11735
1049.08695,0.12006
1051.01542,0.11755
1052.94389,0.12206
1054.87236,0.13163
1056.80083,0.13474
1058.72929,0.12892
1060.65776,0.12497
1062.58623,0.13269
1064.51470,0.14549
1066.44317,0.14666
1068.37164,0.13768
1070.30011,0.13077
1072.22857,0.12707
1074.15704,0.12707
1076.08551,0.13133
1078.01398,0.13505
1079.94245,0.13521
1081.87092,0.13312
1083.79939,0.13077
1085.72786,0.12979
1087.65632,0.12587
1089.58479,0.11807
1091.51326,0.11593
1093.44173,0.12430
1095.37020,0.13654
1097.29867,0.13980
1099.22714,0.14111
1101.15560,0.14984
1103.08407,0.14881
1105.01254,0.13506
1106.94101,0.12692
1108.86948,0.13128
1110.79795,0.13826
1112.72642,0.13741
1114.65489,0.13092
1116.58335,0.13149
1118.51182,0.14201
1120.44029,0.14645
1122.36876,0.13795
1124.29723,0.12577
1126.22570,0.11620
1128.15417,0.11098
1130.08263,0.11432
1132.01110,0.12395
1133.93957,0.12946
1135.86804,0.12587
1137.79651,0.12092
1139.72498,0.12535
1141.65345,0.13299
1143.58191,0.13686
1145.51038,0.13997
1147.43885,0.14054
1149.36732,0.13731
1151.29579,0.13287
1153.22426,0.13197
1155.15273,0.13619
1157.08120,0.13957
1159.00966,0.13895
1160.93813,0.13890
1162.86660,0.14114
1164.79507,0.14347
1166.72354,0.14426
1168.65201,0.14031
1170.58048,0.13554
1172.50894,0.13453
1174.43741,0.13447
1176.36588,0.13612
1178.29435,0.14095
1180.22282,0.14379
1182.15129,0.14262
1184.07976,0.14424
1186.00823,0.14654
1187.93669,0.14297
1189.86516,0.13625
1191.79363,0.12968
1193.72210,0.12651
1195.65057,0.12768
1197.57904,0.13203
1199.50751,0.13859
1201.43597,0.14404
1203.36444,0.14807
1205.29291,0.15076
1207.22138,0.14913
1209.14985,0.14327
1211.07832,0.13712
1213.00679,0.13564
1214.93526,0.14109
1216.86372,0.14694
1218.79219,0.14613
1220.72066,0.14083
1222.64913,0.13910
1224.57760,0.14328
1226.50607,0.14465
1228.43454,0.14378
1230.36300,0.14804
1232.29147,0.15294
1234.21994,0.15266
1236.14841,0.14911
1238.07688,0.14713
1240.00535,0.14699
1241.93382,0.14692
1243.86229,0.14735
1245.79075,0.14816
1247.71922,0.15033
1249.64769,0.15335
1251.57616,0.15339
1253.50463,0.14979
1255.43310,0.14687
1257.36157,0.14523
1259.29003,0.14400
1261.21850,0.14339
1263.14697,0.14007
1265.07544,0.14020
1267.00391,0.15112
1268.93238,0.16049
1270.86085,0.15761
1272.78932,0.15003
1274.71778,0.14710
1276.64625,0.14938
1278.57472,0.15269
1280.50319,0.15175
1282.43166,0.14875
1284.36013,0.15074
1286.28860,0.15648
1288.21706,0.16041
1290.14553,0.16097
1292.07400,0.16067
1294.00247,0.16088
1295.93094,0.15960
1297.85941,0.15508
1299.78788,0.15014
1301.71634,0.14998
1303.64481,0.15229
1305.57328,0.15280
1307.50175,0.15445
1309.43022,0.15779
1311.35869,0.15932
1313.28716,0.16040
1315.21563,0.16141
1317.14409,0.16096
1319.07256,0.16072
1321.00103,0.16086
1322.92950,0.16075
1324.85797,0.15815
1326.78644,0.15454
1328.71491,0.15486
1330.64337,0.15666
1332.57184,0.15591
1334.50031,0.15504
1336.42878,0.15902
1338.35725,0.16669
1340.28572,0.16511
1342.21419,0.14806
1344.14266,0.13471
1346.07112,0.13720
1347.99959,0.14594
1349.92806,0.15295
1351.85653,0.15603
1353.78500,0.15420
1355.71347,0.15173
1357.64194,0.15511
1359.57040,0.16275
1361.49887,0.16634
1363.42734,0.16329
1365.35581,0.15841
1367.28428,0.15719
1369.21275,0.16126
1371.14122,0.16813
1373.06969,0.17338
1374.99815,0.17426
1376.92662,0.17147
1378.85509,0.16624
1380.78356,0.16319
1382.71203,0.16535
1384.64050,0.17158
1386.56897,0.17677
1388.49743,0.17138
1390.42590,0.16380
1392.35437,0.16654
1394.28284,0.17350
1396.21131,0.17453
1398.13978,0.17076
1400.06825,0.16293
1401.99672,0.15826
1403.92518,0.15992
1405.85365,0.15989
1407.78212,0.15847
1409.71059,0.16183
1411.63906,0.16708
1413.56753,0.17000
1415.49600,0.17581
1417.42446,0.18485
1419.35293,0.18303
1421.28140,0.17257
1423.20987,0.16628
1425.13834,0.16421
1427.06681,0.16728
1428.99528,0.17409
1430.92375,0.17781
1432.85221,0.17794
1434.78068,0.17894
1436.70915,0.17648
1438.63762,0.16825
1440.56609,0.16304
1442.49456,0.16382
1444.42303,0.17052
1446.35149,0.17976
1448.27996,0.18162
1450.20843,0.17789
1452.13690,0.17952
1454.06537,0.18678
1455.99384,0.19930
1457.92231,0.20123
1459.85077,0.18573
1461.77924,0.17741
1463.70771,0.17894
1465.63618,0.18333
1467.56465,0.18579
1469.49312,0.19192
1471.42159,0.19813
1473.35006,0.19287
1475.27852,0.18533
1477.20699,0.18173
1479.13546,0.17763
1481.06393,0.17398
1482.99240,0.17354
1484.92087,0.17704
1486.84934,0.18252
1488.77780,0.18702
1490.70627,0.18471
1492.63474,0.17949
1494.56321,0.18269
1496.49168,0.19271
1498.42015,0.19217
1500.34862,0.18325
1502.27709,0.18294
1504.20555,0.20031
1506.13402,0.23488
1508.06249,0.23208
1509.99096,0.20201
1511.91943,0.18873
1513.84790,0.18986
1515.77637,0.19866
1517.70483,0.20361
1519.63330,0.20639
1521.56177,0.21657
1523.49024,0.21846
1525.41871,0.20864
1527.34718,0.19698
1529.27565,0.19041
1531.20412,0.19553
1533.13258,0.20638
1535.06105,0.20615
1536.98952,0.20415
1538.91799,0.21513
1540.84646,0.22829
1542.77493,0.21754
1544.70340,0.19937
1546.63186,0.18768
1548.56033,0.18705
1550.48880,0.19268
1552.41727,0.19969
1554.34574,0.20827
1556.27421,0.21948
1558.20268,0.23490
1560.13115,0.21732
1562.05961,0.19021
1563.98808,0.17964
1565.91655,0.17855
1567.84502,0.18569
1569.77349,0.19456
1571.70196,0.19322
1573.63043,0.19335
1575.55889,0.20136
1577.48736,0.20042
1579.41583,0.19014
1581.34430,0.18201
1583.27277,0.17600
1585.20124,0.17415
1587.12971,0.17617
1589.05818,0.17857
1590.98664,0.18166
1592.91511,0.18575
1594.84358,0.18657
1596.77205,0.18242
1598.70052,0.17857
1600.62899,0.17756
1602.55746,0.17842
1604.48592,0.18026
1606.41439,0.18452
1608.34286,0.18759
1610.27133,0.18290
1612.19980,0.18102
1614.12827,0.19203
1616.05674,0.20696
1617.98521,0.20602
1619.91367,0.20088
1621.84214,0.20048
1623.77061,0.19383
1625.69908,0.18786
1627.62755,0.18860
1629.55602,0.18780
1631.48449,0.18763
1633.41295,0.19481
1635.34142,0.20889
1637.26989,0.20850
1639.19836,0.19578
1641.12683,0.18731
1643.05530,0.18743
1644.98377,0.20041
1646.91223,0.22152
1648.84070,0.22477
1650.76917,0.22254
1652.69764,0.22603
1654.62611,0.21178
1656.55458,0.19465
1658.48305,0.18251
1660.41152,0.17448
1662.33998,0.17975
1664.26845,0.19152
1666.19692,0.19676
1668.12539,0.20467
1670.05386,0.21412
1671.98233,0.20854
1673.91080,0.19854
1675.83926,0.19359
1677.76773,0.19293
1679.69620,0.19732
1681.62467,0.21067
1683.55314,0.23067
1685.48161,0.22833
1687.41008,0.20994
1689.33855,0.19598
1691.26701,0.18950
1693.19548,0.19225
1695.12395,0.20111
1697.05242,0.20845
1698.98089,0.20920
1700.90936,0.20499
1702.83783,0.20325
1704.76629,0.20552
1706.69476,0.20179
1708.62323,0.19216
1710.55170,0.18915
1712.48017,0.19600
1714.40864,0.20698
1716.33711,0.21388
1718.26558,0.20880
1720.19404,0.19608
1722.12251,0.18588
1724.05098,0.18008
1725.97945,0.17872
1727.90792,0.18273
1729.83639,0.18829
1731.76486,0.19414
1733.69332,0.20246
1735.62179,0.20078
1737.55026,0.19427
1739.47873,0.19213
1741.40720,0.19104
1743.33567,0.19027
1745.26414,0.19544
1747.19261,0.20873
1749.12107,0.22132
1751.04954,0.21552
1752.97801,0.19937
1754.90648,0.19188
1756.83495,0.19056
1758.76342,0.18852
1760.69189,0.18872
1762.62035,0.19118
1764.54882,0.19134
1766.47729,0.19226
1768.40576,0.19738
1770.33423,0.20669
1772.26270,0.21124
1774.19117,0.20035
1776.11964,0.18790
1778.04810,0.18305
1779.97657,0.18369
1781.90504,0.18425
1783.83351,0.18280
1785.76198,0.18074
1787.69045,0.18099
1789.61892,0.18937
1791.54738,0.20203
1793.47585,0.20265
1795.40432,0.19442
1797.33279,0.18918
1799.26126,0.18830
1801.18973,0.18906
1803.11820,0.18819
1805.04666,0.18592
1806.97513,0.18606
1808.90360,0.18778
1810.83207,0.18719
1812.76054,0.18611
1814.68901,0.19171
1816.61748,0.21112
1818.54595,0.22693
1820.47441,0.21400
1822.40288,0.19018
1824.33135,0.18560
1826.25982,0.19638
1828.18829,0.20465
1830.11676,0.20434
1832.04523,0.19378
1833.97369,0.18642
1835.90216,0.18874
1837.83063,0.19046
1839.75910,0.18832
1841.68757,0.19025
1843.61604,0.19446
1845.54451,0.19281
1847.47298,0.19057
1849.40144,0.18997
1851.32991,0.18840
1853.25838,0.18796
1855.18685,0.18981
1857.11532,0.19190
1859.04379,0.19118
1860.97226,0.18878
1862.90072,0.18706
1864.82919,0.18801
1866.75766,0.19379
1868.68613,0.19869
1870.61460,0.19472
1872.54307,0.18823
1874.47154,0.18456
1876.40001,0.18278
1878.32847,0.18461
1880.25694,0.18669
1882.18541,0.18437
1884.11388,0.18310
1886.04235,0.18541
1887.97082,0.18708
1889.89929,0.18519
1891.82775,0.18319
1893.75622,0.18562
1895.68469,0.18942
1897.61316,0.19016
1899.54163,0.19025
1901.47010,0.19096
1903.39857,0.18841
1905.32704,0.18373
1907.25550,0.18107
1909.18397,0.18148
1911.11244,0.18273
1913.04091,0.18151
1914.96938,0.18224
1916.89785,0.19012
1918.82632,0.19753
1920.75478,0.19869
1922.68325,0.19882
1924.61172,0.19734
1926.54019,0.19391
1928.46866,0.19073
1930.39713,0.18698
1932.32560,0.18550
1934.25407,0.18820
1936.18253,0.19119
1938.11100,0.19155
1940.03947,0.19078
1941.96794,0.19030
1943.89641,0.18880
1945.82488,0.18690
1947.75335,0.18537
1949.68181,0.18349
1951.61028,0.18142
1953.53875,0.18067
1955.46722,0.18258
1957.39569,0.18502
1959.32416,0.18665
1961.25263,0.18808
1963.18110,0.18828
1965.10956,0.18664
1967.03803,0.18464
1968.96650,0.18369
1970.89497,0.18329
1972.82344,0.18378
1974.75191,0.18477
1976.68038,0.18326
1978.60884,0.17853
1980.53731,0.17624
1982.46578,0.18087
1984.39425,0.18791
1986.32272,0.19104
1988.25119,0.18936
1990.17966,0.18801
1992.10812,0.18914
1994.03659,0.18893
1995.96506,0.18834
1997.89353,0.18944
1999.82200,0.18876
2001.75047,0.18544
2003.67894,0.18368
2005.60741,0.18366
2007.53587,0.18380
2009.46434,0.18441
2011.39281,0.18571
2013.32128,0.18754
2015.24975,0.18790
2017.17822,0.18756
2019.10669,0.18728
2021.03515,0.18653
2022.96362,0.18707
2024.89209,0.18918
2026.82056,0.19222
2028.74903,0.19341
2030.67750,0.19213
2032.60597,0.19182
2034.53444,0.19203
2036.46290,0.19137
2038.39137,0.19020
2040.31984,0.18913
2042.24831,0.18997
2044.17678,0.19188
2046.10525,0.19137
2048.03372,0.19008
2049.96218,0.19017
2051.89065,0.18757
2053.81912,0.18216
2055.74759,0.18085
2057.67606,0.18470
2059.60453,0.18704
2061.53300,0.18631
2063.46147,0.18629
2065.38993,0.18912
2067.31840,0.19222
2069.24687,0.19162
2071.17534,0.19017
2073.10381,0.19082
2075.03228,0.19201
2076.96075,0.19211
2078.88921,0.19014
2080.81768,0.18610
2082.74615,0.18172
2084.67462,0.17925
2086.60309,0.17991
2088.53156,0.18407
2090.46003,0.18825
2092.38850,0.18769
2094.31696,0.18416
2096.24543,0.18346
2098.17390,0.18552
2100.10237,0.18617
2102.03084,0.18623
2103.95931,0.18771
2105.88778,0.18961
2107.81624,0.18993
2109.74471,0.18995
2111.67318,0.19077
2113.60165,0.19010
2115.53012,0.18884
2117.45859,0.18858
2119.38706,0.18870
2121.31553,0.18823
2123.24399,0.18667
2125.17246,0.18498
2127.10093,0.18463
2129.02940,0.18518
2130.95787,0.18551
2132.88634,0.18717
2134.81481,0.18983
2136.74327,0.19130
2138.67174,0.19222
2140.60021,0.19217
2142.52868,0.19047
2144.45715,0.19054
2146.38562,0.19312
2148.31409,0.19439
2150.24255,0.19384
2152.17102,0.19287
2154.09949,0.19298
2156.02796,0.19450
2157.95643,0.19461
2159.88490,0.19377
2161.81337,0.19410
2163.74184,0.19333
2165.67030,0.19001
2167.59877,0.18779
2169.52724,0.18961
2171.45571,0.19369
2173.38418,0.19573
2175.31265,0.19377
2177.24112,0.19225
2179.16958,0.19364
2181.09805,0.19444
2183.02652,0.19392
2184.95499,0.19169
2186.88346,0.18775
2188.81193,0.18610
2190.74040,0.18611
2192.66887,0.18521
2194.59733,0.18504
2196.52580,0.18488
2198.45427,0.18628
2200.38274,0.19289
2202.31121,0.20003
2204.23968,0.20229
2206.16815,0.19902
2208.09661,0.19382
2210.02508,0.19263
2211.95355,0.19476
2213.88202,0.19507
2215.81049,0.19331
2217.73896,0.19174
2219.66743,0.19029
2221.59590,0.19036
2223.52436,0.19231
2225.45283,0.19280
2227.38130,0.19013
2229.30977,0.18737
2231.23824,0.18820
2233.16671,0.19027
2235.09518,0.19182
2237.02364,0.19258
2238.95211,0.19081
2240.88058,0.18888
2242.80905,0.18940
2244.73752,0.19056
2246.66599,0.18991
2248.59446,0.19025
2250.52293,0.19326
2252.45139,0.19386
2254.37986,0.19107
2256.30833,0.18890
2258.23680,0.18822
2260.16527,0.18910
2262.09374,0.19217
2264.02221,0.19511
2265.95067,0.19533
2267.87914,0.19300
2269.80761,0.19180
2271.73608,0.19383
2273.66455,0.19502
2275.59302,0.19270
2277.52149,0.18812
2279.44996,0.18373
2281.37842,0.18330
2283.30689,0.18794
2285.23536,0.19241
2287.16383,0.19215
2289.09230,0.19038
2291.02077,0.19068
2292.94924,0.19155
2294.87770,0.19075
2296.80617,0.18828
2298.73464,0.18429
2300.66311,0.17886
2302.59158,0.17494
2304.52005,0.17518
2306.44852,0.17883
2308.37699,0.18092
2310.30545,0.17829
2312.23392,0.17559
2314.16239,0.17419
2316.09086,0.16813
2318.01933,0.15935
2319.94780,0.15875
2321.87627,0.16607
2323.80473,0.16991
2325.73320,0.16507
2327.66167,0.15766
2329.59014,0.15322
2331.51861,0.14616
2333.44708,0.13709
2335.37555,0.13630
2337.30401,0.14414
2339.23248,0.14702
2341.16095,0.14575
2343.08942,0.14798
2345.01789,0.14866
2346.94636,0.15203
2348.87483,0.15755
2350.80330,0.15881
2352.73176,0.14753
2354.66023,0.12910
2356.58870,0.12623
2358.51717,0.13139
2360.44564,0.13396
2362.37411,0.14069
2364.30258,0.14601
2366.23104,0.13728
2368.15951,0.13191
2370.08798,0.14431
2372.01645,0.15852
2373.94492,0.16813
2375.87339,0.17607
2377.80186,0.18003
2379.73033,0.18010
2381.65879,0.18190
2383.58726,0.18606
2385.51573,0.19059
2387.44420,0.19372
2389.37267,0.19339
2391.30114,0.19206
2393.22961,0.19231
2395.15807,0.19451
2397.08654,0.19716
2399.01501,0.19694
2400.94348,0.19452
2402.87195,0.19464
2404.80042,0.19789
2406.72889,0.19919
2408.65736,0.19790
2410.58582,0.19636
2412.51429,0.19467
2414.44276,0.19427
2416.37123,0.19623
2418.29970,0.19790
2420.22817,0.19782
2422.15664,0.19728
2424.08510,0.19504
2426.01357,0.19267
2427.94204,0.19365
2429.87051,0.19610
2431.79898,0.19679
2433.72745,0.19459
2435.65592,0.19214
2437.58439,0.19073
2439.51285,0.18882
2441.44132,0.18751
2443.36979,0.18886
2445.29826,0.19218
2447.22673,0.19393
2449.15520,0.19249
2451.08367,0.19062
2453.01213,0.19066
2454.94060,0.19015
2456.86907,0.18961
2458.79754,0.19270
2460.72601,0.19552
2462.65448,0.19340
2464.58295,0.18905
2466.51142,0.18826
2468.43988,0.19110
2470.36835,0.19362
2472.29682,0.19513
2474.22529,0.19453
2476.15376,0.19193
2478.08223,0.19020
2480.01070,0.19077
2481.93916,0.19294
2483.86763,0.19381
2485.79610,0.19195
2487.72457,0.19111
2489.65304,0.19316
2491.58151,0.19472
2493.50998,0.19531
2495.43844,0.19676
2497.36691,0.19951
2499.29538,0.20099
2501.22385,0.19913
2503.15232,0.19761
2505.08079,0.19802
2507.00926,0.19763
2508.93773,0.19691
2510.86619,0.19731
2512.79466,0.19783
2514.72313,0.19825
2516.65160,0.19731
2518.58007,0.19489
2520.50854,0.19297
2522.43701,0.19084
2524.36547,0.19017
2526.29394,0.19244
2528.22241,0.19522
2530.15088,0.19609
2532.07935,0.19594
2534.00782,0.19767
2535.93629,0.19951
2537.86476,0.19874
2539.79322,0.19657
2541.72169,0.19578
2543.65016,0.19598
2545.57863,0.19547
2547.50710,0.19500
2549.43557,0.19472
2551.36404,0.19488
2553.29250,0.19622
2555.22097,0.19896
2557.14944,0.19981
2559.07791,0.19741
2561.00638,0.19624
2562.93485,0.19733
2564.86332,0.20023
2566.79179,0.20287
2568.72025,0.20290
2570.64872,0.20232
2572.57719,0.20104
2574.50566,0.19943
2576.43413,0.20021
2578.36260,0.20027
2580.29107,0.19710
2582.21953,0.19524
2584.14800,0.19383
2586.07647,0.18995
2588.00494,0.18863
2589.93341,0.19209
2591.86188,0.19426
2593.79035,0.19376
2595.71882,0.19690
2597.64728,0.20042
2599.57575,0.19745
2601.50422,0.19270
2603.43269,0.19172
2605.36116,0.19492
2607.28963,0.20118
2609.21810,0.20483
2611.14656,0.20153
2613.07503,0.19790
2615.00350,0.19882
2616.93197,0.20089
2618.86044,0.20306
2620.78891,0.20499
2622.71738,0.20418
2624.64585,0.20235
2626.57431,0.20249
2628.50278,0.19995
2630.43125,0.19445
2632.35972,0.19508
2634.28819,0.20235
2636.21666,0.20652
2638.14513,0.20417
2640.07359,0.20077
2642.00206,0.19928
2643.93053,0.19962
2645.85900,0.20139
2647.78747,0.20424
2649.71594,0.20578
2651.64441,0.20233
2653.57288,0.19857
2655.50134,0.20060
2657.42981,0.20493
2659.35828,0.20522
2661.28675,0.20189
2663.21522,0.19996
2665.14369,0.20047
2667.07216,0.20164
2669.00062,0.20286
2670.92909,0.20457
2672.85756,0.20512
2674.78603,0.20350
2676.71450,0.20200
2678.64297,0.20083
2680.57144,0.20088
2682.49990,0.20341
2684.42837,0.20448
2686.35684,0.20268
2688.28531,0.20227
2690.21378,0.20301
2692.14225,0.20124
2694.07072,0.19923
2695.99919,0.20166
2697.92765,0.20910
2699.85612,0.21448
2701.78459,0.21259
2703.71306,0.20888
2705.64153,0.20666
2707.57000,0.20489
2709.49847,0.20369
2711.42693,0.20192
2713.35540,0.19881
2715.28387,0.19838
2717.21234,0.20487
2719.14081,0.21220
2721.06928,0.21101
2722.99775,0.20413
2724.92622,0.20142
2726.85468,0.20367
2728.78315,0.20378
2730.71162,0.19923
2732.64009,0.19561
2734.56856,0.19676
2736.49703,0.20016
2738.42550,0.20331
2740.35396,0.20507
2742.28243,0.20730
2744.21090,0.21034
2746.13937,0.21126
2748.06784,0.21130
2749.99631,0.21296
2751.92478,0.21421
2753.85325,0.21161
2755.78171,0.20792
2757.71018,0.20864
2759.63865,0.21418
2761.56712,0.21830
2763.49559,0.21820
2765.42406,0.22069
2767.35253,0.22384
2769.28099,0.21776
2771.20946,0.20666
2773.13793,0.20244
2775.06640,0.20428
2776.99487,0.20723
2778.92334,0.21117
2780.85181,0.21186
2782.78028,0.20725
2784.70874,0.20305
2786.63721,0.20192
2788.56568,0.20142
2790.49415,0.20318
2792.42262,0.20835
2794.35109,0.21258
2796.27956,0.21350
2798.20802,0.21191
2800.13649,0.21050
2802.06496,0.20960
2803.99343,0.20807
2805.92190,0.20678
2807.85037,0.20782
2809.77884,0.21184
2811.70731,0.21308
2813.63577,0.21000
2815.56424,0.20790
2817.49271,0.20860
2819.42118,0.21149
2821.34965,0.21515
2823.27812,0.21745
2825.20659,0.21790
2827.13505,0.21928
2829.06352,0.22189
2830.99199,0.22401
2832.92046,0.22519
2834.84893,0.22213
2836.77740,0.21525
2838.70587,0.20977
2840.63433,0.20858
2842.56280,0.21144
2844.49127,0.21572
2846.41974,0.21869
2848.34821,0.21970
2850.27668,0.21823
2852.20515,0.21364
2854.13362,0.20931
2856.06208,0.20928
2857.99055,0.21196
2859.91902,0.21353
2861.84749,0.21512
2863.77596,0.21708
2865.70443,0.21434
2867.63290,0.20922
2869.56136,0.20829
2871.48983,0.20952
2873.41830,0.20907
2875.34677,0.20992
2877.27524,0.21322
2879.20371,0.21535
2881.13218,0.21461
2883.06065,0.21172
2884.98911,0.21105
2886.91758,0.21331
2888.84605,0.21448
2890.77452,0.21417
2892.70299,0.21373
2894.63146,0.21467
2896.55993,0.21566
2898.48839,0.21432
2900.41686,0.21309
2902.34533,0.21437
2904.27380,0.21446
2906.20227,0.21228
2908.13074,0.21020
2910.05921,0.20658
2911.98768,0.20661
2913.91614,0.21488
2915.84461,0.22240
2917.77308,0.22208
2919.70155,0.21575
2921.63002,0.20400
2923.55849,0.18999
2925.48696,0.18405
2927.41542,0.18864
2929.34389,0.19779
2931.27236,0.20562
2933.20083,0.21044
2935.12930,0.21617
2937.05777,0.22086
2938.98624,0.22081
2940.91471,0.21997
2942.84317,0.22168
2944.77164,0.22372
2946.70011,0.22364
2948.62858,0.22052
2950.55705,0.21594
2952.48552,0.21461
2954.41399,0.21785
2956.34245,0.22011
2958.27092,0.21751
2960.19939,0.21547
2962.12786,0.21428
2964.05633,0.21119
2965.98480,0.21219
2967.91327,0.21448
2969.84174,0.21333
2971.77020,0.21475
2973.69867,0.21787
2975.62714,0.21592
2977.55561,0.21185
2979.48408,0.21195
2981.41255,0.21581
2983.34102,0.21942
2985.26948,0.21880
2987.19795,0.21466
2989.12642,0.21224
2991.05489,0.21504
2992.98336,0.22078
2994.91183,0.22441
2996.84030,0.22461
2998.76877,0.22443
3000.69723,0.22588
3002.62570,0.22597
3004.55417,0.22280
3006.48264,0.21837
3008.41111,0.21715
3010.33958,0.22037
3012.26805,0.22053
3014.19651,0.21279
3016.12498,0.20519
3018.05345,0.20749
3019.98192,0.21566
3021.91039,0.22060
3023.83886,0.21998
3025.76733,0.21666
3027.69579,0.21455
3029.62426,0.21415
3031.55273,0.21664
3033.48120,0.21877
3035.40967,0.21720
3037.33814,0.21777
3039.26661,0.21897
3041.19508,0.21710
3043.12354,0.21794
3045.05201,0.22056
3046.98048,0.21999
3048.90895,0.21906
3050.83742,0.21983
3052.76589,0.22023
3054.69436,0.22030
3056.62282,0.22281
3058.55129,0.22653
3060.47976,0.22560
3062.40823,0.22084
3064.33670,0.21765
3066.26517,0.21776
3068.19364,0.22004
3070.12211,0.21815
3072.05057,0.20981
3073.97904,0.20556
3075.90751,0.21038
3077.83598,0.21515
3079.76445,0.21471
3081.69292,0.21263
3083.62139,0.21218
3085.54985,0.21326
3087.47832,0.21255
3089.40679,0.20952
3091.33526,0.20821
3093.26373,0.21113
3095.19220,0.21652
3097.12067,0.21978
3099.04914,0.21836
3100.97760,0.21322
3102.90607,0.20965
3104.83454,0.21221
3106.76301,0.21560
3108.69148,0.21343
3110.61995,0.21070
3112.54842,0.21359
3114.47688,0.21886
3116.40535,0.22178
3118.33382,0.21967
3120.26229,0.21547
3122.19076,0.21598
3124.11923,0.22009
3126.04770,0.22142
3127.97617,0.21804
3129.90463,0.21689
3131.83310,0.22419
3133.76157,0.23300
3135.69004,0.23567
3137.61851,0.23776
3139.54698,0.24253
3141.47545,0.24174
3143.40391,0.23308
3145.33238,0.22464
3147.26085,0.22261
3149.18932,0.22569
3151.11779,0.22680
3153.04626,0.22022
3154.97473,0.21327
3156.90320,0.21308
3158.83166,0.21441
3160.76013,0.21809
3162.68860,0.22312
3164.61707,0.22550
3166.54554,0.22907
3168.47401,0.23134
3170.40248,0.22893
3172.33094,0.22717
3174.25941,0.23086
3176.18788,0.23488
3178.11635,0.23454
3180.04482,0.23296
3181.97329,0.23106
3183.90176,0.22995
3185.83022,0.22811
3187.75869,0.22227
3189.68716,0.22110
3191.61563,0.22991
3193.54410,0.23345
3195.47257,0.22441
3197.40104,0.21749
3199.32951,0.21616
3201.25797,0.21401
3203.18644,0.21626
3205.11491,0.22588
3207.04338,0.23313
3208.97185,0.22994
3210.90032,0.22057
3212.82879,0.21760
3214.75725,0.22419
3216.68572,0.22573
3218.61419,0.21784
3220.54266,0.21210
3222.47113,0.21172
3224.39960,0.21173
3226.32807,0.21023
3228.25654,0.20999
3230.18500,0.21505
3232.11347,0.22359
3234.04194,0.22711
3235.97041,0.22570
3237.89888,0.22687
3239.82735,0.22919
3241.75582,0.22666
3243.68428,0.22070
3245.61275,0.21653
3247.54122,0.21685
3249.46969,0.22199
3251.39816,0.22558
3253.32663,0.22699
3255.25510,0.23192
3257.18357,0.23402
3259.11203,0.23061
3261.04050,0.22801
3262.96897,0.22679
3264.89744,0.22453
3266.82591,0.22146
3268.75438,0.21847
3270.68285,0.21546
3272.61131,0.21531
3274.53978,0.21998
3276.46825,0.22613
3278.39672,0.22971
3280.32519,0.23105
3282.25366,0.23360
3284.18213,0.23490
3286.11060,0.23044
3288.03906,0.22360
3289.96753,0.21962
3291.89600,0.21957
3293.82447,0.22276
3295.75294,0.22618
3297.68141,0.22473
3299.60988,0.21788
3301.53834,0.21216
3303.46681,0.21166
3305.39528,0.21312
3307.32375,0.21578
3309.25222,0.22048
3311.18069,0.22262
3313.10916,0.21858
3315.03763,0.21225
3316.96609,0.21013
3318.89456,0.21259
3320.82303,0.21579
3322.75150,0.21775
3324.67997,0.22281
3326.60844,0.23021
3328.53691,0.22921
3330.46537,0.22295
3332.39384,0.22391
3334.32231,0.22938
3336.25078,0.22622
3338.17925,0.21470
3340.10772,0.20876
3342.03619,0.21396
3343.96466,0.22279
3345.89312,0.22384
3347.82159,0.21782
3349.75006,0.21503
3351.67853,0.21951
3353.60700,0.22644
3355.53547,0.22944
3357.46394,0.22569
3359.39240,0.21715
3361.32087,0.21271
3363.24934,0.21474
3365.17781,0.21776
3367.10628,0.22065
3369.03475,0.22517
3370.96322,0.23173
3372.89168,0.23349
3374.82015,0.22935
3376.74862,0.22540
3378.67709,0.22012
3380.60556,0.21286
3382.53403,0.20929
3384.46250,0.21294
3386.39097,0.21867
3388.31943,0.21759
3390.24790,0.21288
3392.17637,0.21725
3394.10484,0.22994
3396.03331,0.23804
3397.96178,0.23527
3399.89025,0.22674
3401.81871,0.22138
3403.74718,0.22081
3405.67565,0.22430
3407.60412,0.23002
3409.53259,0.23074
3411.46106,0.22409
3413.38953,0.21535
3415.31800,0.20786
3417.24646,0.20645
3419.17493,0.21230
3421.10340,0.20996
3423.03187,0.19661
3424.96034,0.19283
3426.88881,0.20292
3428.81728,0.20968
3430.74574,0.20548
3432.67421,0.20089
3434.60268,0.20202
3436.53115,0.20790
3438.45962,0.21322
3440.38809,0.21097
3442.31656,0.20646
3444.24503,0.20752
3446.17349,0.21095
3448.10196,0.20684
3450.03043,0.19760
3451.95890,0.19524
3453.88737,0.19700
3455.81584,0.19714
3457.74431,0.20052
3459.67277,0.20514
3461.60124,0.20438
3463.52971,0.20407
3465.45818,0.20752
3467.38665,0.21069
3469.31512,0.21410
3471.24359,0.21861
3473.17206,0.21764
3475.10052,0.20445
3477.02899,0.19233
3478.95746,0.19539
3480.88593,0.20558
3482.81440,0.21097
3484.74287,0.20973
3486.67134,0.20481
3488.59980,0.19777
3490.52827,0.19419
3492.45674,0.19638
3494.38521,0.19721
3496.31368,0.19536
3498.24215,0.19631
3500.17062,0.19806
3502.09909,0.19709
3504.02755,0.19417
3505.95602,0.18954
3507.88449,0.18780
3509.81296,0.18937
3511.74143,0.18958
3513.66990,0.19042
3515.59837,0.19271
3517.52683,0.19324
3519.45530,0.18896
3521.38377,0.18210
3523.31224,0.17856
3525.24071,0.18144
3527.16918,0.18599
3529.09765,0.18475
3531.02611,0.18062
3532.95458,0.17651
3534.88305,0.17192
3536.81152,0.16926
3538.73999,0.16915
3540.66846,0.17112
3542.59693,0.17451
3544.52540,0.17803
3546.45386,0.17803
3548.38233,0.17179
3550.31080,0.16670
3552.23927,0.16929
3554.16774,0.17126
3556.09621,0.16647
3558.02468,0.16426
3559.95314,0.16828
3561.88161,0.17280
3563.81008,0.17852
3565.73855,0.18822
3567.66702,0.18837
3569.59549,0.17525
3571.52396,0.16845
3573.45243,0.16859
3575.38089,0.16643
3577.30936,0.16107
3579.23783,0.15899
3581.16630,0.16396
3583.09477,0.17245
3585.02324,0.17890
3586.95171,0.17666
3588.88017,0.16826
3590.80864,0.16646
3592.73711,0.16655
3594.66558,0.16185
3596.59405,0.15855
3598.52252,0.15954
3600.45099,0.16038
3602.37946,0.15894
3604.30792,0.15505
3606.23639,0.15439
3608.16486,0.16200
3610.09333,0.17276
3612.02180,0.17916
3613.95027,0.17790
3615.87874,0.17586
3617.80720,0.17760
3619.73567,0.16875
3621.66414,0.14890
3623.59261,0.14099
3625.52108,0.14941
3627.44955,0.16438
3629.37802,0.17069
3631.30649,0.16665
3633.23495,0.16366
3635.16342,0.15873
3637.09189,0.15072
3639.02036,0.14000
3640.94883,0.13153
3642.87730,0.13334
3644.80577,0.14204
3646.73423,0.15846
3648.66270,0.17925
3650.59117,0.17289
3652.51964,0.15587
3654.44811,0.14968
3656.37658,0.14825
3658.30505,0.14388
3660.23352,0.13811
3662.16198,0.13483
3664.09045,0.13558
3666.01892,0.13918
3667.94739,0.14688
3669.87586,0.15680
3671.80433,0.15830
3673.73280,0.16065
3675.66126,0.16474
3677.58973,0.15784
3679.51820,0.14948
3681.44667,0.14220
3683.37514,0.13651
3685.30361,0.13812
3687.23208,0.14552
3689.16055,0.14758
3691.08901,0.14175
3693.01748,0.13628
3694.94595,0.13301
3696.87442,0.13123
3698.80289,0.13198
3700.73136,0.13697
3702.65983,0.14159
3704.58829,0.14168
3706.51676,0.14038
3708.44523,0.14438
3710.37370,0.14754
3712.30217,0.13477
3714.23064,0.12887
3716.15911,0.13320
3718.08757,0.13584
3720.01604,0.13688
3721.94451,0.13776
3723.87298,0.13748
3725.80145,0.13627
3727.72992,0.13636
3729.65839,0.13626
3731.58686,0.13775
3733.51532,0.14981
3735.44379,0.16559
3737.37226,0.16393
3739.30073,0.15311
3741.22920,0.14882
3743.15767,0.15645
3745.08614,0.16844
3747.01460,0.16969
3748.94307,0.16718
3750.87154,0.16112
3752.80001,0.14612
3754.72848,0.13574
3756.65695,0.13716
3758.58542,0.14198
3760.51389,0.13887
3762.44235,0.13664
3764.37082,0.13998
3766.29929,0.14171
3768.22776,0.13886
3770.15623,0.13421
3772.08470,0.12916
3774.01317,0.12547
3775.94163,0.12703
3777.87010,0.13039
3779.79857,0.12970
3781.72704,0.12987
3783.65551,0.13113
3785.58398,0.12903
3787.51245,0.12593
3789.44092,0.12488
3791.36938,0.12539
3793.29785,0.12994
3795.22632,0.13831
3797.15479,0.14299
3799.08326,0.14444
3801.01173,0.14501
3802.94020,0.13686
3804.86866,0.13240
3806.79713,0.13781
3808.72560,0.13744
3810.65407,0.13156
3812.58254,0.12969
3814.51101,0.13301
3816.43948,0.14038
3818.36795,0.14397
3820.29641,0.14295
3822.22488,0.14020
3824.15335,0.13489
3826.08182,0.12688
3828.01029,0.12349
3829.93876,0.12846
3831.86723,0.13515
3833.79569,0.14471
3835.72416,0.15383
3837.65263,0.14616
3839.58110,0.12889
3841.50957,0.12705
3843.43804,0.12779
3845.36651,0.11880
3847.29498,0.11349
3849.22344,0.12067
3851.15191,0.13805
3853.08038,0.15171
3855.00885,0.14085
3856.93732,0.13053
3858.86579,0.12669
3860.79426,0.12573
3862.72272,0.12800
3864.65119,0.13015
3866.57966,0.13086
3868.50813,0.13659
3870.43660,0.14118
3872.36507,0.13413
3874.29354,0.12872
3876.22200,0.12938
3878.15047,0.13318
3880.07894,0.13814
3882.00741,0.13555
3883.93588,0.12803
3885.86435,0.11873
3887.79282,0.11150
3889.72129,0.11514
3891.64975,0.12376
3893.57822,0.12162
3895.50669,0.11653
3897.43516,0.11995
3899.36363,0.13071
3901.29210,0.14120
3903.22057,0.14428
3905.14903,0.13516
3907.07750,0.11763
3909.00597,0.10474
3910.93444,0.10159
3912.86291,0.10335
3914.79138,0.10671
3916.71985,0.11098
3918.64832,0.11299
3920.57678,0.11358
3922.50525,0.11655
3924.43372,0.11911
3926.36219,0.11753
3928.29066,0.11315
3930.21913,0.11081
3932.14760,0.11513
3934.07606,0.11848
3936.00453,0.11590
3937.93300,0.11181
3939.86147,0.10962
3941.78994,0.11054
3943.71841,0.11246
3945.64688,0.11382
3947.57535,0.11295
3949.50381,0.10826
3951.43228,0.10327
3953.36075,0.10273
3955.28922,0.10276
3957.21769,0.09949
3959.14616,0.10025
3961.07463,0.10734
3963.00309,0.11281
3964.93156,0.11173
3966.86003,0.10666
3968.78850,0.10309
3970.71697,0.10143
3972.64544,0.09484
3974.57391,0.08719
3976.50238,0.09244
3978.43084,0.10323
3980.35931,0.10395
3982.28778,0.09642
3984.21625,0.08977
3986.14472,0.08869
3988.07319,0.09271
3990.00166,0.09863
3991.93012,0.10372
3993.85859,0.10627
3995.78706,0.10307
3997.71553,0.09776
3999.64400,0.09963
4001.57247,0.10386
4003.50094,0.09835
4005.42941,0.08841
4007.35787,0.08779
4009.28634,0.09521
4011.21481,0.09847
4013.14328,0.09338
4015.07175,0.09047
4017.00022,0.09784
4018.92869,0.10677
4020.85715,0.10576
4022.78562,0.09890
4024.71409,0.09768
4026.64256,0.09767
4028.57103,0.09157
4030.49950,0.08738
4032.42797,0.08920
4034.35644,0.09159
4036.28490,0.09111
4038.21337,0.08911
4040.14184,0.08681
4042.07031,0.08366
4043.99878,0.07864
4045.92725,0.07293
4047.85572,0.07306
4049.78418,0.08258
4051.71265,0.09628
4053.64112,0.10448
4055.56959,0.10325
4057.49806,0.09773
4059.42653,0.09254
4061.35500,0.08735
4063.28346,0.08249
4065.21193,0.08068
4067.14040,0.08146
4069.06887,0.08310
4070.99734,0.08676
4072.92581,0.09563
4074.85428,0.10638
4076.78275,0.11120
4078.71121,0.10733
4080.63968,0.09737
4082.56815,0.09326
4084.49662,0.09595
4086.42509,0.09350
4088.35356,0.08604
4090.28203,0.07776
4092.21049,0.07653
4094.13896,0.08827
4096.06743,0.09889
4097.99590,0.09593
4099.92437,0.08742
4101.85284,0.08225
4103.78131,0.08178
4105.70978,0.08534
4107.63824,0.08859
4109.56671,0.09071
4111.49518,0.09156
4113.42365,0.08797
4115.35212,0.08639
4117.28059,0.09181
4119.20906,0.09286
4121.13752,0.08574
4123.06599,0.08308
4124.99446,0.08516
4126.92293,0.08337
4128.85140,0.08190
4130.77987,0.08405
4132.70834,0.08231
4134.63681,0.07746
4136.56527,0.07818
4138.49374,0.08351
4140.42221,0.08690
4142.35068,0.08498
4144.27915,0.08255
4146.20762,0.08432
4148.13609,0.08393
4150.06455,0.07580
4151.99302,0.06578
4153.92149,0.06408
4155.84996,0.06646
4157.77843,0.06531
4159.70690,0.06697
4161.63537,0.07073
4163.56384,0.06994
4165.49230,0.06705
4167.42077,0.06627
4169.34924,0.06778
4171.27771,0.06984
4173.20618,0.07328
4175.13465,0.07729
4177.06312,0.07727
4178.99158,0.07585
4180.92005,0.07845
4182.84852,0.07636
4184.77699,0.06452
4186.70546,0.05919
4188.63393,0.06751
4190.56240,0.07495
4192.49087,0.07468
4194.41933,0.07081
4196.34780,0.06560
4198.27627,0.06398
4200.20474,0.06825
4202.13321,0.07430
4204.06168,0.07573
4205.99015,0.07015
4207.91861,0.06421
4209.84708,0.06012
4211.77555,0.05423
4213.70402,0.04503
4215.63249,0.03878
4217.56096,0.04336
4219.48943,0.05056
4221.41789,0.04990
4223.34636,0.04797
4225.27483,0.05325
4227.20330,0.05861
4229.13177,0.06096
4231.06024,0.06252
4232.98871,0.05766
4234.91718,0.05293
4236.84564,0.05708
4238.77411,0.06052
4240.70258,0.05485
4242.63105,0.05085
4244.55952,0.05493
4246.48799,0.05532
4248.41646,0.04879
4250.34492,0.04545
4252.27339,0.04989
4254.20186,0.05467
4256.13033,0.05235
4258.05880,0.04508
4259.98727,0.03921
4261.91574,0.03768
4263.84421,0.04316
4265.77267,0.05716
4267.70114,0.06860
4269.62961,0.07032
4271.55808,0.06685
4273.48655,0.06310
4275.41502,0.05856
4277.34349,0.04970
4279.27195,0.04275
4281.20042,0.04122
4283.12889,0.03913
4285.05736,0.03365
4286.98583,0.03116
4288.91430,0.03553
4290.84277,0.03538
4292.77124,0.03118
4294.69970,0.03964
4296.62817,0.05313
4298.55664,0.05239
4300.48511,0.04505
4302.41358,0.04372
4304.34205,0.04790
4306.27052,0.05368
4308.19898,0.05492
4310.12745,0.04868
4312.05592,0.04133
4313.98439,0.03998
4315.91286,0.03826
4317.84133,0.03248
4319.76980,0.03084
4321.69827,0.03547
4323.62673,0.03728
4325.55520,0.02794
4327.48367,0.01875
4329.41214,0.02257
4331.34061,0.03171
4333.26908,0.03744
4335.19755,0.03914
4337.12601,0.03342
4339.05448,0.02205
4340.98295,0.01839
4342.91142,0.02534
4344.83989,0.03203
4346.76836,0.03355
4348.69683,0.03282
4350.62530,0.03395
4352.55376,0.03733
4354.48223,0.03828
4356.41070,0.03261
4358.33917,0.02093
4360.26764,0.01064
4362.19611,0.00898
4364.12458,0.01223
4366.05304,0.01362
4367.98151,0.01250
4369.90998,0.01185
4371.83845,0.01570
4373.76692,0.02128
4375.69539,0.02457
4377.62386,0.02547
4379.55232,0.01909
4381.48079,0.00893
4383.40926,0.00638
4385.33773,0.01111
4387.26620,0.01952
4389.19467,0.02509
4391.12314,0.01719
4393.05161,0.00191
4394.98007,-0.00526
4396.90854,-0.00137
4398.83701,0.00652
4400.76548,0.01246
4402.69395,0.01566
4404.62242,0.01725
4406.55089,0.02039
4408.47935,0.02497
4410.40782,0.02296
4412.33629,0.01482
4414.26476,0.01040
4416.19323,0.01364
4418.12170,0.01843
4420.05017,0.01750
4421.97864,0.01004
4423.90710,-0.00188
4425.83557,-0.00732
4427.76404,-0.00031
4429.69251,0.00550
4431.62098,0.00334
4433.54945,0.00229
4435.47792,0.00575
4437.40638,0.00944
4439.33485,0.01095
4441.26332,0.00621
4443.19179,-0.00101
4445.12026,-0.00142
4447.04873,0.00252
4448.97720,0.00489
4450.90567,0.00581
4452.83413,0.01391
4454.76260,0.02744
4456.69107,0.02858
4458.61954,0.02292
4460.54801,0.02547
4462.47648,0.01929
4464.40495,-0.00026
4466.33341,-0.00818
4468.26188,-0.00319
4470.19035,0.00052
4472.11882,-0.00104
4474.04729,-0.00767
4475.97576,-0.01238
4477.90423,-0.01112
4479.83270,-0.00509
4481.76116,0.00534
4483.68963,0.01723
4485.61810,0.02450
4487.54657,0.02344
4489.47504,0.02037
4491.40351,0.02080
4493.33198,0.02277
4495.26044,0.02232
4497.18891,0.01682
4499.11738,0.00944
4501.04585,0.00554
4502.97432,0.00884
4504.90279,0.01670
4506.83126,0.01543
4508.75973,0.00301
4510.68819,-0.00270
4512.61666,-0.00133
4514.54513,-0.00204
4516.47360,0.00007
4518.40207,0.00610
4520.33054,0.00719
4522.25901,0.00006
4524.18747,-0.00229
4526.11594,0.00487
4528.04441,0.01175
4529.97288,0.01198
4531.90135,0.00483
4533.82982,-0.00326
4535.75829,-0.00533
4537.68676,0.00166
4539.61522,0.01146
4541.54369,0.01515
4543.47216,0.01506
4545.40063,0.01610
4547.32910,0.01398
4549.25757,0.00686
4551.18604,0.00466
4553.11450,0.00756
4555.04297,0.00980
4556.97144,0.01309
4558.89991,0.01280
4560.82838,0.00510
4562.75685,-0.00034
4564.68532,0.00231
4566.61378,0.00769
4568.54225,0.01143
4570.47072,0.01025
4572.39919,0.00529
4574.32766,0.00214
4576.25613,0.00229
4578.18460,-0.00416
4580.11307,-0.01633
4582.04153,-0.01699
4583.97000,-0.00804
4585.89847,-0.00031
4587.82694,0.00418
4589.75541,0.00498
4591.68388,0.00151
4593.61235,-0.00109
4595.54081,0.00055
4597.46928,-0.00038
4599.39775,-0.00715
4601.32622,-0.01831
4603.25469,-0.02190
4605.18316,-0.01124
4607.11163,-0.00148
4609.04010,-0.00586
4610.96856,-0.01821
4612.89703,-0.01691
4614.82550,-0.00127
4616.75397,0.00701
4618.68244,0.00465
4620.61091,0.00091
4622.53938,-0.00321
4624.46784,-0.00669
4626.39631,-0.00671
4628.32478,-0.00047
4630.25325,0.01094
4632.18172,0.01240
4634.11019,-0.00079
4636.03866,-0.00877
4637.96713,-0.00579
4639.89559,-0.00481
4641.82406,-0.00457
4643.75253,0.00191
4645.68100,0.00672
4647.60947,0.00493
4649.53794,-0.00052
4651.46641,-0.00675
4653.39487,-0.00624
4655.32334,0.00583
4657.25181,0.01761
4659.18028,0.01003
4661.10875,-0.00144
4663.03722,0.00724
4664.96569,0.01815
4666.89416,0.01867
4668.82262,0.02688
4670.75109,0.03916
4672.67956,0.03198
4674.60803,0.01194
4676.53650,0.00254
4678.46497,-0.00225
4680.39344,-0.01228
4682.32190,-0.01984
4684.25037,-0.01651
4686.17884,-0.00742
4688.10731,-0.00843
4690.03578,-0.01160
4691.96425,0.00537
4693.89272,0.02887
4695.82119,0.02999
4697.74965,0.01572
4699.67812,0.00599
4701.60659,0.00433
4703.53506,0.00314
4705.46353,0.00105
4707.39200,0.00609
4709.32047,0.01263
4711.24893,0.01546
4713.17740,0.01890
4715.10587,0.01717
4717.03434,0.00644
4718.96281,0.00289
4720.89128,0.01769
4722.81975,0.02926
4724.74821,0.02044
4726.67668,0.00736
4728.60515,0.00531
4730.53362,0.00310
4732.46209,-0.01057
4734.39056,-0.02198
4736.31903,-0.01531
4738.24750,0.00313
4740.17596,0.01451
4742.10443,0.01473
4744.03290,0.01299
4745.96137,0.01287
4747.88984,0.01468
4749.81831,0.01051
4751.74678,-0.00767
4753.67524,-0.02446
4755.60371,-0.02420
4757.53218,-0.01713
4759.46065,-0.01131
4761.38912,-0.00600
4763.31759,-0.00601
4765.24606,-0.00951
4767.17453,-0.01099
4769.10299,-0.00434
4771.03146,0.00872
4772.95993,0.00920
4774.88840,-0.00423
4776.81687,-0.00385
4778.74534,0.01521
4780.67381,0.02986
4782.60227,0.03595
4784.53074,0.03420
4786.45921,0.01806
4788.38768,-0.00083
4790.31615,-0.00432
4792.24462,0.00207
4794.17309,0.00089
4796.10156,-0.00187
4798.03002,0.00637
4799.95849,0.01395
4801.88696,0.00572
4803.81543,-0.00468
4805.74390,-0.00006
4807.67237,0.00909
4809.60084,0.01238
4811.52930,0.00760
4813.45777,0.00551
4815.38624,0.01213
4817.31471,0.01061
4819.24318,0.00199
4821.17165,-0.00286
4823.10012,-0.00199
4825.02859,0.00752
4826.95705,0.01919
4828.88552,0.01892
4830.81399,0.01040
4832.74246,0.00551
4834.67093,0.00022
4836.59940,-0.01049
4838.52787,-0.01304
4840.45633,0.00385
4842.38480,0.01963
4844.31327,0.01742
4846.24174,0.01342
4848.17021,0.01698
4850.09868,0.01190
4852.02715,-0.00182
4853.95562,-0.00367
4855.88408,-0.00291
4857.81255,-0.00969
4859.74102,-0.00819
4861.66949,-0.00058
4863.59796,0.00076
4865.52643,0.00369
4867.45490,0.01067
4869.38336,0.01031
4871.31183,0.00772
4873.24030,0.01210
4875.16877,0.01926
4877.09724,0.02228
4879.02571,0.01778
4880.95418,0.01031
4882.88265,0.00546
4884.81111,0.00708
4886.73958,0.01299
4888.66805,0.01575
4890.59652,0.01365
4892.52499,0.00991
4894.45346,0.01088
4896.38193,0.01321
4898.31039,0.01191
4900.23886,0.00782
4902.16733,-0.00851
4904.09580,-0.03272
4906.02427,-0.03693
4907.95274,-0.01944
4909.88121,-0.00155
4911.80967,0.01294
4913.73814,0.02235
4915.66661,0.02513
4917.59508,0.03032
4919.52355,0.03126
4921.45202,0.01423
4923.38049,-0.01131
4925.30896,-0.02392
4927.23742,-0.02322
4929.16589,-0.02015
4931.09436,-0.00812
4933.02283,0.00914
4934.95130,0.01923
4936.87977,0.02694
4938.80824,0.03118
4940.73670,0.02548
4942.66517,0.01408
4944.59364,0.00560
4946.52211,0.00220
4948.45058,-0.00207
4950.37905,-0.01054
4952.30752,-0.02223
4954.23599,-0.02279
4956.16445,-0.00272
4958.09292,0.01234
4960.02139,0.00900
4961.94986,0.00543
4963.87833,0.00661
4965.80680,0.01343
4967.73527,0.02686
4969.66373,0.02828
4971.59220,0.01494
4973.52067,0.00704
4975.44914,0.00586
4977.37761,0.00786
4979.30608,0.01948
4981.23455,0.02886
4983.16302,0.02659
4985.09148,0.01730
4987.01995,0.00912
4988.94842,0.00927
4990.87689,0.01360
4992.80536,0.01862
4994.73383,0.01735
4996.66230,0.00280
4998.59076,-0.00847
5000.51923,-0.00810
5002.44770,-0.01183
5004.37617,-0.01981
5006.30464,-0.01221
5008.23311,0.00932
5010.16158,0.01748
5012.09005,0.01109
5014.01851,0.00675
5015.94698,-0.00193
5017.87545,-0.00733
5019.80392,0.00202
5021.73239,0.01509
5023.66086,0.02917
5025.58933,0.03925
5027.51779,0.02683
5029.44626,0.00453
5031.37473,0.00163
5033.30320,0.00815
5035.23167,0.00364
5037.16014,-0.00266
5039.08861,0.00200
5041.01708,0.01174
5042.94554,0.01914
5044.87401,0.02230
5046.80248,0.01409
5048.73095,0.00229
5050.65942,-0.00876
5052.58789,-0.02105
5054.51636,-0.01801
5056.44482,0.00038
5058.37329,0.01084
5060.30176,0.00557
5062.23023,-0.00567
5064.15870,-0.01961
5066.08717,-0.02100
5068.01564,0.00559
5069.94410,0.03286
5071.87257,0.03302
5073.80104,0.02217
5075.72951,0.02665
5077.65798,0.03466
5079.58645,0.02602
5081.51492,0.01361
5083.44339,0.01186
5085.37185,0.01958
5087.30032,0.02754
5089.22879,0.02126
5091.15726,0.01346
5093.08573,0.02121
5095.01420,0.02585
5096.94267,0.02558
5098.87113,0.03021
5100.79960,0.02644
5102.72807,0.01473
5104.65654,0.01435
5106.58501,0.03136
5108.51348,0.04688
5110.44195,0.04821
5112.37042,0.03647
5114.29888,0.02309
5116.22735,0.02041
5118.15582,0.01370
5120.08429,-0.00414
5122.01276,-0.01890
5123.94123,-0.01259
5125.86970,0.01451
5127.79816,0.02467
5129.72663,0.01308
5131.65510,0.01958
5133.58357,0.03412
5135.51204,0.02693
5137.44051,0.03193
5139.36898,0.06862
5141.29745,0.08234
5143.22591,0.04541
5145.15438,0.01055
5147.08285,0.01872
5149.01132,0.03587
5150.93979,0.02497
5152.86826,-0.00458
5154.79673,-0.02089
5156.72519,-0.00431
5158.65366,0.01847
5160.58213,0.01765
5162.51060,0.01050
5164.43907,0.01761
5166.36754,0.02452
5168.29601,0.01790
5170.22448,0.00543
5172.15294,0.00711
5174.08141,0.03117
5176.00988,0.04707
5177.93835,0.02852
5179.86682,-0.00446
5181.79529,-0.01509
5183.72376,0.00120
5185.65222,0.01339
5187.58069,0.00237
5189.50916,-0.00737
5191.43763,0.00814
5193.36610,0.03613
5195.29457,0.05173
5197.22304,0.03347
5199.15151,-0.00979
5201.07997,-0.03690
5203.00844,-0.04289
5204.93691,-0.04018
5206.86538,-0.00908
5208.79385,0.04561
5210.72232,0.06492
5212.65079,0.03870
5214.57925,0.00745
5216.50772,-0.00776
5218.43619,-0.00981
5220.36466,-0.00665
5222.29313,-0.00032
5224.22160,0.02037
5226.15007,0.04569
5228.07854,0.04428
5230.00700,0.02884
5231.93547,0.01877
5233.86394,0.00835
5235.79241,-0.00552
5237.72088,-0.02062
5239.64935,-0.01979
5241.57782,-0.00821
5243.50628,-0.01128
5245.43475,-0.02340
5247.36322,-0.02169
5249.29169,0.00177
5251.22016,0.01997
5253.14863,0.01931
5255.07710,0.02155
5257.00556,0.02815
5258.93403,0.02575
5260.86250,0.02299
5262.79097,0.02496
5264.71944,0.02255
5266.64791,0.02276
5268.57638,0.02330
5270.50485,0.01617
5272.43331,0.01536
5274.36178,0.03071
5276.29025,0.05062
5278.21872,0.06334
5280.14719,0.07789
5282.07566,0.09696
5284.00413,0.09854
5285.93259,0.07636
5287.86106,0.06342
5289.78953,0.06834
5291.71800,0.05521
5293.64647,0.02830
5295.57494,0.02716
5297.50341,0.04140
5299.43188,0.03044
5301.36034,0.02117
5303.28881,0.05365
5305.21728,0.07663
5307.14575,0.05314
5309.07422,0.02845
5311.00269,0.03298
5312.93116,0.04789
5314.85962,0.05775
5316.78809,0.05556
5318.71656,0.04792
5320.64503,0.04438
5322.57350,0.04136
5324.50197,0.04500
5326.43044,0.04861
5328.35891,0.04028
5330.28737,0.03284
5332.21584,0.04523
5334.14431,0.07715
5336.07278,0.08091
5338.00125,0.04583
5339.92972,0.02785
5341.85819,0.02948
5343.78665,0.02350
5345.71512,0.03662
5347.64359,0.06963
5349.57206,0.06205
5351.50053,0.02041
5353.42900,0.00696
5355.35747,0.02074
5357.28594,0.02300
5359.21440,0.01466
5361.14287,0.01264
5363.07134,0.02167
5364.99981,0.02820
5366.92828,0.01843
5368.85675,0.00002
5370.78522,-0.00983
5372.71368,0.00074
5374.64215,0.02235
5376.57062,0.03696
5378.49909,0.05281
5380.42756,0.07067
5382.35603,0.08906
5384.28450,0.10926
5386.21297,0.10362
5388.14143,0.05787
5390.06990,0.01786
5391.99837,0.01392
5393.92684,0.01828
5395.85531,0.01098
5397.78378,0.01206
5399.71225,0.03172
5401.64071,0.05120
5403.56918,0.05099
5405.49765,0.04531
5407.42612,0.04178
5409.35459,0.04915
5411.28306,0.07716
5413.21153,0.08488
5415.13999,0.05126
5417.06846,0.02449
5418.99693,0.02506
5420.92540,0.03333
5422.85387,0.02771
5424.78234,0.01575
5426.71081,0.02911
5428.63928,0.05362
5430.56774,0.05202
5432.49621,0.03049
5434.42468,0.00172
5436.35315,-0.00136
5438.28162,0.03187
5440.21009,0.07788
5442.13856,0.10447
5444.06702,0.07612
5445.99549,0.00451
5447.92396,-0.05486
5449.85243,-0.07672
5451.78090,-0.07282
5453.70937,-0.04034
5455.63784,0.02025
5457.56631,0.06398
5459.49477,0.06238
5461.42324,0.05843
5463.35171,0.07134
5465.28018,0.07599
5467.20865,0.07294
5469.13712,0.06535
5471.06559,0.04652
5472.99405,0.02793
5474.92252,0.02653
5476.85099,0.03933
5478.77946,0.04526
5480.70793,0.04635
5482.63640,0.04717
5484.56487,0.05086
5486.49334,0.07787
5488.42180,0.11534
5490.35027,0.12472
5492.27874,0.08911
5494.20721,0.02229
5496.13568,-0.00816
5498.06415,0.03209
5499.99262,0.09334
5501.92108,0.11117
5503.84955,0.09208
5505.77802,0.08595
5507.70649,0.09598
5509.63496,0.08799
5511.56343,0.08069
5513.49190,0.08423
5515.42037,0.06641
5517.34883,0.04937
5519.27730,0.06880
5521.20577,0.09473
5523.13424,0.09164
5525.06271,0.07592
5526.99118,0.05902
5528.91965,0.03908
5530.84811,0.04708
5532.77658,0.05601
5534.70505,0.02660
5536.63352,0.01343
5538.56199,0.05312
5540.49046,0.08476
5542.41893,0.06473
5544.34740,0.04900
5546.27586,0.06897
5548.20433,0.08283
5550.13280,0.07896
5552.06127,0.06057
5553.98974,0.01736
5555.91821,-0.02575
5557.84668,-0.04011
5559.77514,-0.03113
5561.70361,0.00688
5563.63208,0.07029
5565.56055,0.12680
5567.48902,0.13740
5569.41749,0.10468
5571.34596,0.08977
5573.27443,0.09796
5575.20289,0.09253
5577.13136,0.08845
5579.05983,0.08774
5580.98830,0.08053
5582.91677,0.08714
5584.84524,0.10220
5586.77371,0.09892
5588.70217,0.06943
5590.63064,0.05304
5592.55911,0.07153
5594.48758,0.08074
5596.41605,0.07152
5598.34452,0.06014
5600.27299,0.05176
5602.20145,0.04014
5604.12992,0.01064
5606.05839,-0.01872
5607.98686,-0.02598
5609.91533,0.02004
5611.84380,0.11686
5613.77227,0.18293
5615.70074,0.16466
5617.62920,0.08698
5619.55767,0.02380
5621.48614,0.02269
5623.41461,0.04801
5625.34308,0.06379
5627.27155,0.07689
5629.20002,0.07111
5631.12848,0.06020
5633.05695,0.08237
5634.98542,0.11759
5636.91389,0.13998
5638.84236,0.13843
5640.77083,0.12104
5642.69930,0.10570
5644.62777,0.07723
5646.55623,0.03113
5648.48470,0.00554
5650.41317,0.02733
5652.34164,0.06119
5654.27011,0.07135
5656.19858,0.08243
5658.12705,0.10449
5660.05551,0.10605
5661.98398,0.09523
5663.91245,0.07737
5665.84092,0.03343
5667.76939,0.00876
5669.69786,0.02655
5671.62633,0.05146
5673.55480,0.06660
5675.48326,0.07774
5677.41173,0.08837
5679.34020,0.07926
5681.26867,0.03534
5683.19714,-0.01211
5685.12561,-0.01553
5687.05408,0.01388
5688.98254,0.05075
5690.91101,0.09420
5692.83948,0.11774
5694.76795,0.10293
5696.69642,0.07233
5698.62489,0.04830
5700.55336,0.01791
5702.48183,0.01082
5704.41029,0.06834
5706.33876,0.13409
5708.26723,0.14647
5710.19570,0.11015
5712.12417,0.06888
5714.05264,0.05749
5715.98111,0.06681
5717.90957,0.06613
5719.83804,0.05716
5721.76651,0.07440
5723.69498,0.10094
5725.62345,0.09496
5727.55192,0.07363
5729.48039,0.07146
5731.40886,0.07066
5733.33732,0.04543
5735.26579,0.02686
5737.19426,0.06383
5739.12273,0.11345
5741.05120,0.10823
5742.97967,0.08147
5744.90814,0.06883
5746.83660,0.05927
5748.76507,0.05345
5750.69354,0.05831
5752.62201,0.07342
5754.55048,0.08865
5756.47895,0.09419
5758.40742,0.09367
5760.33588,0.10235
5762.26435,0.10466
5764.19282,0.07747
5766.12129,0.05626
5768.04976,0.05458
5769.97823,0.05562
5771.90670,0.06095
5773.83517,0.06514
5775.76363,0.08160
5777.69210,0.11692
5779.62057,0.12343
5781.54904,0.08273
5783.47751,0.04271
5785.40598,0.04012
5787.33445,0.07622
5789.26291,0.12078
5791.19138,0.13711
5793.11985,0.12204
5795.04832,0.09527
5796.97679,0.09048
5798.90526,0.13005
5800.83373,0.18794
5802.76220,0.19868
5804.69066,0.13280
5806.61913,0.04612
5808.54760,0.00827
5810.47607,0.04045
5812.40454,0.09428
5814.33301,0.11698
5816.26148,0.11276
5818.18994,0.08311
5820.11841,0.04766
5822.04688,0.05130
5823.97535,0.09888
5825.90382,0.13842
5827.83229,0.11207
5829.76076,0.05545
5831.68923,0.06359
5833.61769,0.14324
5835.54616,0.20283
5837.47463,0.18680
5839.40310,0.13746
5841.33157,0.09784
5843.26004,0.07846
5845.18851,0.07297
5847.11697,0.05842
5849.04544,0.06107
5850.97391,0.08766
5852.90238,0.07854
5854.83085,0.03922
5856.75932,0.00720
5858.68779,-0.01701
5860.61626,-0.03042
5862.54472,-0.01420
5864.47319,0.02391
5866.40166,0.05847
5868.33013,0.08225
5870.25860,0.10191
5872.18707,0.12743
5874.11554,0.15189
5876.04400,0.15868
5877.97247,0.14979
5879.90094,0.14136
5881.82941,0.14225
5883.75788,0.13508
5885.68635,0.10530
5887.61482,0.07880
5889.54329,0.08194
5891.47175,0.10035
5893.40022,0.10195
5895.32869,0.06792
5897.25716,0.03612
5899.18563,0.04754
5901.11410,0.07723
5903.04257,0.09687
5904.97103,0.10860
5906.89950,0.12394
5908.82797,0.12216
5910.75644,0.09402
5912.68491,0.07935
5914.61338,0.08728
5916.54185,0.09923
5918.47032,0.08610
5920.39878,0.04766
5922.32725,0.03822
5924.25572,0.06514
5926.18419,0.07420
5928.11266,0.04686
5930.04113,0.01336
5931.96960,-0.00701
5933.89806,-0.01173
5935.82653,-0.00552
5937.75500,0.02479
5939.68347,0.07199
5941.61194,0.09057
5943.54041,0.07337
5945.46888,0.05117
5947.39734,0.04731
5949.32581,0.05306
5951.25428,0.04598
5953.18275,0.03020
5955.11122,0.03369
5957.03969,0.08196
5958.96816,0.16150
5960.89663,0.21960
5962.82509,0.21157
5964.75356,0.15156
5966.68203,0.08489
5968.61050,0.04494
5970.53897,0.02848
5972.46744,0.02337
5974.39591,0.04015
5976.32437,0.06017
5978.25284,0.07590
5980.18131,0.10178
5982.10978,0.11025
5984.03825,0.09361
5985.96672,0.09546
5987.89519,0.10726
5989.82366,0.07892
5991.75212,0.03662
5993.68059,0.02311
5995.60906,0.01982
5997.53753,0.00706
5999.46600,0.00678
6001.39447,0.03826
6003.32294,0.08318
6005.25140,0.12275
6007.17987,0.15134
6009.10834,0.13273
6011.03681,0.07870
6012.96528,0.08976
6014.89375,0.17840
6016.82222,0.22203
6018.75069,0.15845
6020.67915,0.09161
6022.60762,0.10631
6024.53609,0.15290
6026.46456,0.16166
6028.39303,0.12144
6030.32150,0.08392
6032.24997,0.10162
6034.17843,0.14895
6036.10690,0.17100
6038.03537,0.15720
6039.96384,0.14381
6041.89231,0.15799
6043.82078,0.15699
6045.74925,0.11096
6047.67772,0.08770
6049.60618,0.13026
6051.53465,0.15722
6053.46312,0.11749
6055.39159,0.05712
6057.32006,0.01703
6059.24853,0.01849
6061.17700,0.07605
6063.10546,0.16336
6065.03393,0.20573
6066.96240,0.17872
6068.89087,0.14184
6070.81934,0.13603
6072.74781,0.12245
6074.67628,0.07485
6076.60475,0.04953
6078.53321,0.07009
6080.46168,0.10364
6082.39015,0.12263
6084.31862,0.11487
6086.24709,0.07771
6088.17556,0.01059
6090.10403,-0.02978
6092.03249,0.01091
6093.96096,0.08706
6095.88943,0.10655
6097.81790,0.06298
6099.74637,0.02850
6101.67484,0.02357
6103.60331,0.01046
6105.53177,-0.01306
6107.46024,-0.01187
6109.38871,-0.00562
6111.31718,-0.01774
6113.24565,-0.00470
6115.17412,0.04431
6117.10259,0.09450
6119.03106,0.12467
6120.95952,0.15733
6122.88799,0.17637
6124.81646,0.15452
6126.74493,0.11636
6128.67340,0.06921
6130.60187,0.01191
6132.53034,-0.01784
6134.45880,-0.00599
6136.38727,0.02044
6138.31574,0.06231
6140.24421,0.10788
6142.17268,0.13490
6144.10115,0.14711
6146.02962,0.12307
6147.95809,0.05754
6149.88655,-0.01900
6151.81502,-0.04602
6153.74349,-0.01923
6155.67196,0.00235
6157.60043,-0.00350
6159.52890,-0.02832
6161.45737,-0.01322
6163.38583,0.05036
6165.31430,0.07240
6167.24277,0.05533
6169.17124,0.05574
6171.09971,0.03575
6173.02818,0.00137
6174.95665,0.01934
6176.88512,0.05415
6178.81358,0.04035
6180.74205,0.00607
6182.67052,0.02640
6184.59899,0.06893
6186.52746,0.09217
6188.45593,0.09839
6190.38440,0.05192
6192.31286,-0.00144
6194.24133,-0.03360
6196.16980,-0.03399
6198.09827,0.04842
6200.02674,0.15538
6201.95521,0.17683
6203.88368,0.08550
6205.81215,0.01208
6207.74061,0.05008
6209.66908,0.10417
6211.59755,0.09699
6213.52602,0.08913
6215.45449,0.09446
6217.38296,0.07403
6219.31143,0.06174
6221.23989,0.10563
6223.16836,0.16227
6225.09683,0.13299
6227.02530,0.08220
6228.95377,0.09354
6230.88224,0.06928
6232.81071,0.00526
6234.73918,-0.01782
6236.66764,-0.02964
6238.59611,-0.01381
6240.52458,0.05908
6242.45305,0.10944
6244.38152,0.11747
6246.30999,0.15341
6248.23846,0.17368
6250.16692,0.07737
6252.09539,-0.06461
6254.02386,-0.07330
6255.95233,0.03649
6257.88080,0.09592
6259.80927,0.05390
6261.73774,0.02933
6263.66621,0.10414
6265.59467,0.18995
6267.52314,0.18724
6269.45161,0.17436
6271.38008,0.18926
6273.30855,0.17314
6275.23702,0.14003
6277.16549,0.10793
6279.09395,0.04930
6281.02242,0.00971
6282.95089,0.01401
6284.87936,0.03291
6286.80783,0.06409
6288.73630,0.10646
6290.66477,0.15719
6292.59323,0.16268
6294.52170,0.04473
6296.45017,-0.08117
6298.37864,-0.06430
6300.30711,0.01010
6302.23558,0.02759
6304.16405,0.01610
6306.09252,0.01435
6308.02098,0.06155
6309.94945,0.10734
6311.87792,0.04493
6313.80639,-0.03113
6315.73486,-0.03426
6317.66333,-0.04127
6319.59180,-0.07656
6321.52026,-0.05953
6323.44873,0.02594
6325.37720,0.07453
6327.30567,0.03731
6329.23414,-0.03926
6331.16261,-0.05423
6333.09108,0.02208
6335.01955,0.05903
6336.94801,-0.00066
6338.87648,-0.03063
6340.80495,0.02874
6342.73342,0.07478
6344.66189,0.05134
6346.59036,0.02568
6348.51883,0.06353
6350.44729,0.13640
6352.37576,0.15303
6354.30423,0.07701
6356.23270,-0.00215
6358.16117,-0.00919
6360.08964,0.04334
6362.01811,0.11824
6363.94658,0.15123
6365.87504,0.13362
6367.80351,0.12000
6369.73198,0.11886
6371.66045,0.12629
6373.58892,0.10218
6375.51739,0.03324
6377.44586,-0.03243
6379.37432,-0.05892
6381.30279,-0.01923
6383.23126,0.07836
6385.15973,0.17019
6387.08820,0.23183
6389.01667,0.23884
6390.94514,0.14425
6392.87361,0.02627
6394.80207,0.05362
6396.73054,0.19004
6398.65901,0.26207
6400.58748,0.24561
6402.51595,0.18708
6404.44442,0.06225
6406.37289,-0.07852
6408.30135,-0.15317
6410.22982,-0.11600
6412.15829,0.05486
6414.08676,0.22435
6416.01523,0.25972
6417.94370,0.18865
6419.87217,0.12522
6421.80064,0.09790
6423.72910,0.05283
6425.65757,-0.01339
6427.58604,-0.02547
6429.51451,0.04311
6431.44298,0.11233
6433.37145,0.13985
6435.29992,0.17621
6437.22838,0.23107
6439.15685,0.24215
6441.08532,0.19751
6443.01379,0.12113
6444.94226,0.08631
6446.87073,0.13303
6448.79920,0.15655
6450.72766,0.10423
6452.65613,0.04450
6454.58460,0.03697
6456.51307,0.08813
6458.44154,0.14624
6460.37001,0.14283
6462.29848,0.07159
6464.22695,0.03730
6466.15541,0.11091
6468.08388,0.18316
6470.01235,0.16349
6471.94082,0.12838
6473.86929,0.14176
6475.79776,0.17644
6477.72623,0.14650
6479.65469,0.05277
6481.58316,0.02471
6483.51163,0.08160
6485.44010,0.12353
6487.36857,0.09308
6489.29704,0.00702
6491.22551,-0.05704
6493.15398,-0.00523
6495.08244,0.10910
6497.01091,0.13619
6498.93938,0.09768
6500.86785,0.06604
6502.79632,0.02598
6504.72479,-0.02681
6506.65326,-0.05212
6508.58172,-0.04321
6510.51019,-0.06827
6512.43866,-0.10087
6514.36713,-0.05046
6516.29560,0.03505
6518.22407,0.03843
6520.15254,-0.05163
6522.08101,-0.11970
6524.00947,-0.08348
6525.93794,-0.02387
6527.86641,-0.01972
6529.79488,0.00624
6531.72335,0.06125
6533.65182,0.07886
6535.58029,0.05295
6537.50875,-0.02352
6539.43722,-0.09840
6541.36569,-0.09442
6543.29416,-0.04194
6545.22263,0.01369
6547.15110,0.06927
6549.07957,0.08171
6551.00804,0.01521
6552.93650,-0.04532
6554.86497,-0.05027
6556.79344,-0.00369
6558.72191,0.09558
6560.65038,0.17650
6562.57885,0.18685
6564.50732,0.16647
6566.43578,0.17246
6568.36425,0.19891
6570.29272,0.17375
6572.22119,0.07196
6574.14966,-0.01062
6576.07813,-0.00422
6578.00660,0.02430
6579.93507,0.00525
6581.86353,0.00001
6583.79200,0.09746
6585.72047,0.23784
6587.64894,0.27923
6589.57741,0.21200
6591.50588,0.17532
6593.43435,0.17853
6595.36281,0.12171
6597.29128,0.06231
6599.21975,0.02076
6601.14822,-0.03515
6603.07669,-0.01222
6605.00516,0.08896
6606.93363,0.08693
6608.86210,-0.08246
6610.79056,-0.18620
6612.71903,-0.06482
6614.64750,0.10690
6616.57597,0.15167
6618.50444,0.13287
6620.43291,0.12242
6622.36138,0.07642
6624.28984,0.01094
6626.21831,-0.02044
6628.14678,0.02552
6630.07525,0.13970
6632.00372,0.18826
6633.93219,0.14036
6635.86066,0.08511
6637.78912,0.04449
6639.71759,-0.00206
6641.64606,-0.03276
6643.57453,-0.04913
6645.50300,-0.04343
6647.43147,0.03391
6649.35994,0.10807
6651.28841,0.05793
6653.21687,-0.06791
6655.14534,-0.13059
6657.07381,-0.10929
6659.00228,-0.07894
6660.93075,-0.04325
6662.85922,-0.01268
6664.78769,-0.04274
6666.71615,-0.08540
6668.64462,-0.02388
6670.57309,0.09785
6672.50156,0.09091
6674.43003,-0.03881
6676.35850,-0.08060
6678.28697,0.00301
6680.21544,0.05313
6682.14390,0.02319
6684.07237,0.02950
6686.00084,0.07697
6687.92931,0.06388
6689.85778,0.02954
6691.78625,0.01224
6693.71472,-0.04961
6695.64318,-0.10943
6697.57165,-0.06211
6699.50012,0.06808
6701.42859,0.12871
6703.35706,0.09525
6705.28553,0.06224
6707.21400,0.02088
6709.14247,0.02238
6711.07093,0.10787
6712.99940,0.17183
6714.92787,0.19833
6716.85634,0.24160
6718.78481,0.25157
6720.71328,0.19384
6722.64175,0.14366
6724.57021,0.11010
6726.49868,0.11937
6728.42715,0.19260
6730.35562,0.19013
6732.28409,0.08450
6734.21256,0.06221
6736.14103,0.09463
6738.06950,0.01741
6739.99796,-0.11029
6741.92643,-0.16015
6743.85490,-0.09673
6745.78337,0.03126
6747.71184,0.14364
6749.64031,0.17779
6751.56878,0.13945
6753.49724,0.09312
6755.42571,0.07458
6757.35418,0.04074
6759.28265,-0.01411
6761.21112,-0.00393
6763.13959,0.01937
6765.06806,-0.03173
6766.99653,-0.05913
6768.92499,-0.02997
6770.85346,-0.00351
6772.78193,0.01764
6774.71040,0.01425
6776.63887,-0.01524
6778.56734,0.00930
6780.49581,0.06172
6782.42427,0.03850
6784.35274,0.00277
6786.28121,0.05176
6788.20968,0.13595
6790.13815,0.14380
6792.06662,0.04363
6793.99509,0.01467
6795.92355,0.11557
6797.85202,0.18384
6799.78049,0.13456
6801.70896,0.06592
6803.63743,0.08589
6805.56590,0.11175
6807.49437,0.09921
6809.42284,0.08244
6811.35130,0.00846
6813.27977,-0.13188
6815.20824,-0.17879
6817.13671,-0.06364
6819.06518,0.04701
6820.99365,0.10677
6822.92212,0.17902
6824.85058,0.16567
6826.77905,0.02708
6828.70752,-0.06619
6830.63599,-0.00959
6832.56446,0.10038
6834.49293,0.18653
6836.42140,0.20121
6838.34987,0.15512
6840.27833,0.07531
6842.20680,-0.02727
6844.13527,-0.09192
6846.06374,-0.13595
6847.99221,-0.22109
6849.92068,-0.25076
6851.84915,-0.13110
6853.77761,0.02009
6855.70608,0.10146
6857.63455,0.12851
6859.56302,0.13535
6861.49149,0.14430
6863.41996,0.13701
6865.34843,0.12062
6867.27690,0.07652
6869.20536,-0.01678
6871.13383,-0.03861
6873.06230,0.11382
6874.99077,0.25190
6876.91924,0.20323
6878.84771,0.12284
6880.77618,0.11420
6882.70464,0.09281
6884.63311,0.09390
6886.56158,0.09002
6888.49005,0.01572
6890.41852,0.00893
6892.34699,0.14318
6894.27546,0.21500
6896.20393,0.16113
6898.13239,0.05243
6900.06086,-0.03461
6901.98933,0.00725
6903.91780,0.09484
6905.84627,0.08151
6907.77474,0.04447
6909.70321,0.06194
6911.63167,0.07869
6913.56014,0.09289
6915.48861,0.10656
6917.41708,0.08980
6919.34555,0.10159
6921.27402,0.21390
6923.20249,0.29044
6925.13096,0.23250
6927.05942,0.10719
6928.98789,0.07159
6930.91636,0.16883
6932.84483,0.16072
6934.77330,0.04594
6936.70177,0.11801
6938.63024,0.34390
6940.55870,0.35703
6942.48717,0.11581
6944.41564,-0.01313
6946.34411,0.03972
6948.27258,0.02239
6950.20105,-0.13617
6952.12952,-0.24610
6954.05799,-0.16852
6955.98645,-0.01254
6957.91492,0.03060
6959.84339,0.05941
6961.77186,0.12658
6963.70033,0.11668
6965.62880,0.05524
6967.55727,0.05074
6969.48573,0.04945
6971.41420,-0.00223
6973.34267,0.03972
6975.27114,0.14613
6977.19961,0.14252
6979.12808,0.06363
6981.05655,0.04482
6982.98501,0.08622
6984.91348,0.08804
6986.84195,0.10838
6988.77042,0.17284
6990.69889,0.19387
6992.62736,0.18621
6994.55583,0.17303
6996.48430,0.15089
6998.41276,0.09364
7000.34123,-0.03937
7002.26970,-0.08405
7004.19817,0.02991
7006.12664,0.11544
7008.05511,0.11476
7009.98358,0.10178
7011.91204,0.07567
7013.84051,0.05440
7015.76898,0.06145
7017.69745,0.04807
7019.62592,-0.00508
7021.55439,-0.02049
7023.48286,0.07788
7025.41133,0.17205
7027.33979,0.11475
7029.26826,0.01460
7031.19673,0.04186
7033.12520,0.14871
7035.05367,0.13541
7036.98214,-0.01712
7038.91061,-0.09308
7040.83907,-0.09151
7042.76754,-0.09314
7044.69601,-0.06137
7046.62448,-0.01113
7048.55295,0.02190
7050.48142,0.07462
7052.40989,0.06485
7054.33836,-0.03534
7056.26682,-0.03544
7058.19529,0.07173
7060.12376,0.15103
7062.05223,0.18473
7063.98070,0.15146
7065.90917,0.16873
7067.83764,0.28542
7069.76610,0.33315
7071.69457,0.19802
7073.62304,0.04712
7075.55151,0.02487
7077.47998,0.08435
7079.40845,0.14746
7081.33692,0.15718
7083.26539,0.11995
7085.19385,0.06283
7087.12232,0.02358
7089.05079,0.04619
7090.97926,0.03113
7092.90773,-0.05767
7094.83620,-0.08468
7096.76467,-0.01243
7098.69313,0.05199
7100.62160,0.09935
7102.55007,0.16138
7104.47854,0.19799
7106.40701,0.21014
7108.33548,0.17443
7110.26395,0.06208
7112.19242,-0.05486
7114.12088,-0.07081
7116.04935,0.00433
7117.97782,0.09877
7119.90629,0.19767
7121.83476,0.26352
7123.76323,0.16816
7125.69170,-0.05732
7127.62016,-0.16859
7129.54863,-0.13516
7131.47710,-0.02934
7133.40557,0.07951
7135.33404,0.11879
7137.26251,0.11854
7139.19098,0.09959
7141.11944,0.06856
7143.04791,0.09532
7144.97638,0.19737
7146.90485,0.25243
7148.83332,0.15032
7150.76179,0.07068
7152.69026,0.18472
7154.61873,0.31297
7156.54719,0.21686
7158.47566,0.06207
7160.40413,0.09066
7162.33260,0.23064
7164.26107,0.24747
7166.18954,0.12917
7168.11801,0.14763
7170.04647,0.35375
7171.97494,0.41138
7173.90341,0.26143
7175.83188,0.25170
7177.76035,0.42386
7179.68882,0.43891
7181.61729,0.25718
7183.54576,0.01683
7185.47422,-0.05629
7187.40269,0.09856
7189.33116,0.19281
7191.25963,0.07503
7193.18810,0.01939
7195.11657,0.06293
7197.04504,-0.00408
7198.97350,-0.03178
7200.90197,0.06021
7202.83044,0.07925
7204.75891,0.04367
7206.68738,0.06218
7208.61585,0.07128
7210.54432,0.08179
7212.47279,0.08112
7214.40125,0.14919
7216.32972,0.30465
7218.25819,0.29815
7220.18666,0.19742
7222.11513,0.19200
7224.04360,0.22115
7225.97207,0.18399
7227.90053,0.01741
7229.82900,-0.14755
7231.75747,-0.14551
7233.68594,-0.05296
7235.61441,-0.03049
7237.54288,-0.07378
7239.47135,-0.15678
7241.39982,-0.25941
7243.32828,-0.20894
7245.25675,0.04032
7247.18522,0.27227
7249.11369,0.36815
7251.04216,0.34458
7252.97063,0.22264
7254.89910,0.07991
7256.82756,0.06021
7258.75603,0.10648
7260.68450,0.19438
7262.61297,0.28097
7264.54144,0.31688
7266.46991,0.46958
7268.39838,0.64976
7270.32685,0.54898
7272.25531,0.15469
7274.18378,-0.01484
7276.11225,0.03934
7278.04072,0.01428
7279.96919,-0.11831
7281.89766,-0.11985
7283.82613,0.07717
7285.75459,0.24621
7287.68306,0.29772
7289.61153,0.23085
7291.54000,0.05000
7293.46847,-0.03549
7295.39694,0.00880
7297.32541,-0.00323
7299.25387,-0.09137
7301.18234,-0.14514
7303.11081,-0.11214
7305.03928,-0.05772
7306.96775,-0.01870
7308.89622,0.11167
7310.82469,0.18779
7312.75316,0.08321
7314.68162,0.02125
7316.61009,0.10676
7318.53856,0.18161
7320.46703,0.11529
7322.39550,0.06197
7324.32397,0.11441
7326.25244,0.11418
7328.18090,0.05667
7330.10937,0.04431
7332.03784,0.12996
7333.96631,0.20325
7335.89478,0.22486
7337.82325,0.20808
7339.75172,-0.03156
7341.68019,-0.29484
7343.60865,-0.24903
7345.53712,0.02047
7347.46559,0.26167
7349.39406,0.21991
7351.32253,0.05070
7353.25100,0.00798
7355.17947,0.05651
7357.10793,0.00740
7359.03640,-0.16375
7360.96487,-0.17055
7362.89334,-0.06412
7364.82181,-0.10756
7366.75028,-0.17799
7368.67875,-0.11051
7370.60722,0.03698
7372.53568,0.11059
7374.46415,0.03164
7376.39262,-0.02036
7378.32109,0.13770
7380.24956,0.27284
7382.17803,0.13374
7384.10650,-0.11397
7386.03496,-0.10125
7387.96343,-0.00166
7389.89190,-0.08466
7391.82037,-0.15403
7393.74884,-0.10814
7395.67731,-0.00746
7397.60578,0.14327
7399.53425,0.23074
7401.46271,0.22753
7403.39118,0.24745
7405.31965,0.26653
7407.24812,0.21509
7409.17659,0.09519
7411.10506,-0.02627
7413.03353,-0.00234
7414.96199,0.22295
7416.89046,0.49952
7418.81893,0.46482
7420.74740,0.19434
7422.67587,0.23546
7424.60434,0.37201
7426.53281,0.34105
7428.46128,0.17520
7430.38974,-0.17645
7432.31821,-0.38298
7434.24668,-0.20080
7436.17515,0.00291
7438.10362,0.10530
7440.03209,0.20808
7441.96056,0.27735
7443.88902,0.24966
7445.81749,0.02812
7447.74596,-0.21867
7449.67443,-0.34408
7451.60290,-0.30552
7453.53137,-0.09316
7455.45984,0.09944
7457.38831,0.21178
7459.31677,0.19540
7461.24524,0.04264
7463.17371,-0.02249
7465.10218,0.03110
7467.03065,0.14015
7468.95912,0.24081
7470.88759,0.23865
7472.81605,0.11411
7474.74452,-0.05689
7476.67299,-0.27077
7478.60146,-0.32804
7480.52993,-0.11531
7482.45840,0.07296
7484.38687,0.13421
7486.31533,0.19315
7488.24380,0.21120
7490.17227,0.15053
7492.10074,0.20395
7494.02921,0.33083
7495.95768,0.31247
7497.88615,0.10232
