399.19301,4.67962
401.12148,0.59854
403.04995,0.04265
404.97842,0.01231
406.90689,0.09344
408.83536,0.10049
410.76382,-0.00394
412.69229,-0.05619
414.62076,0.03913
416.54923,0.19536
418.47770,0.31919
420.40617,0.26109
422.33464,0.14694
424.26311,0.09248
426.19157,0.04292
428.12004,-0.03323
430.04851,-0.08297
431.97698,-0.07005
433.90545,-0.04927
435.83392,-0.03399
437.76239,-0.01206
439.69085,0.02473
441.61932,0.00379
443.54779,-0.12091
445.47626,-0.13998
447.40473,-0.01741
449.33320,0.05928
451.26167,0.06164
453.19013,0.05274
455.11860,0.01022
457.04707,-0.03664
458.97554,-0.01157
460.90401,0.01094
462.83248,-0.02379
464.76095,-0.03457
466.68942,-0.00645
468.61788,-0.03152
470.54635,-0.06407
472.47482,-0.03114
474.40329,-0.01992
476.33176,-0.02920
478.26023,0.00350
480.18870,0.04281
482.11716,0.07931
484.04563,0.09042
485.97410,0.03720
487.90257,-0.02208
489.83104,0.00888
491.75951,0.10039
493.68798,0.13117
495.61645,0.09007
497.54491,0.03586
499.47338,-0.00725
501.40185,-0.00927
503.33032,0.04298
505.25879,0.08767
507.18726,0.10206
509.11573,0.09583
511.04419,0.06149
512.97266,0.05955
514.90113,0.10669
516.82960,0.10535
518.75807,0.05145
520.68654,0.03772
522.61501,0.06052
524.54348,0.06902
526.47194,0.05790
528.40041,0.06395
530.32888,0.10688
532.25735,0.13190
534.18582,0.10419
536.11429,0.06474
538.04276,0.03656
539.97122,0.03784
541.89969,0.07294
543.82816,0.08330
545.75663,0.05900
547.68510,0.05513
549.61357,0.07795
551.54204,0.20853
553.47051,0.39734
555.39897,0.36964
557.32744,0.18525
559.25591,0.09069
561.18438,0.06661
563.11285,0.06855
565.04132,0.07805
566.96979,0.06512
568.89825,0.05284
570.82672,0.04810
572.75519,0.06392
574.68366,0.09724
576.61213,0.10170
578.54060,0.09829
580.46907,0.11653
582.39754,0.11508
584.32600,0.09727
586.25447,0.09659
588.18294,0.09631
590.11141,0.08902
592.03988,0.08063
593.96835,0.06661
595.89682,0.05697
597.82528,0.06828
599.75375,0.09518
601.68222,0.10165
603.61069,0.07512
605.53916,0.05418
607.46763,0.04946
609.39610,0.04635
611.32456,0.06156
613.25303,0.09177
615.18150,0.10036
617.10997,0.08189
619.03844,0.06571
620.96691,0.06423
622.89538,0.05609
624.82385,0.03317
626.75231,0.01529
628.68078,0.02446
630.60925,0.05109
632.53772,0.05475
634.46619,0.03485
636.39466,0.03191
638.32313,0.05220
640.25159,0.07356
642.18006,0.07976
644.10853,0.07758
646.03700,0.07988
647.96547,0.08137
649.89394,0.07500
651.82241,0.06752
653.75088,0.07395
655.67934,0.08567
657.60781,0.08137
659.53628,0.07411
661.46475,0.06507
663.39322,0.04350
665.32169,0.03002
667.25016,0.03984
669.17862,0.07220
671.10709,0.10407
673.03556,0.11638
674.96403,0.10007
676.89250,0.07731
678.82097,0.08206
680.74944,0.09844
682.67791,0.09966
684.60637,0.10113
686.53484,0.11107
688.46331,0.10983
690.39178,0.09532
692.32025,0.08745
694.24872,0.08593
696.17719,0.07659
698.10565,0.07883
700.03412,0.09772
701.96259,0.09914
703.89106,0.08942
705.81953,0.09295
707.74800,0.08831
709.67647,0.05881
711.60494,0.03517
713.53340,0.05099
715.46187,0.08650
717.39034,0.10463
719.31881,0.10653
721.24728,0.10415
723.17575,0.10040
725.10422,0.09357
727.03268,0.08615
728.96115,0.08529
730.88962,0.08485
732.81809,0.07900
734.74656,0.07619
736.67503,0.08064
738.60350,0.08806
740.53197,0.09448
742.46043,0.09892
744.38890,0.10408
746.31737,0.10735
748.24584,0.10951
750.17431,0.11997
752.10278,0.12815
754.03125,0.11720
755.95971,0.09856
757.88818,0.08338
759.81665,0.06991
761.74512,0.06952
763.67359,0.08024
765.60206,0.08122
767.53053,0.07659
769.45900,0.08402
771.38746,0.10272
773.31593,0.11735
775.24440,0.11569
777.17287,0.10337
779.10134,0.09830
781.02981,0.10261
782.95828,0.09626
784.88674,0.07671
786.81521,0.07137
788.74368,0.08042
790.67215,0.07869
792.60062,0.07613
794.52909,0.09118
796.45756,0.10017
798.38602,0.08475
800.31449,0.07328
802.24296,0.07809
804.17143,0.07759
806.09990,0.07213
808.02837,0.07402
809.95684,0.08511
811.88531,0.10358
813.81377,0.11654
815.74224,0.11508
817.67071,0.11234
819.59918,0.11189
821.52765,0.10122
823.45612,0.08673
825.38459,0.08987
827.31305,0.10772
829.24152,0.11944
831.16999,0.11732
833.09846,0.10525
835.02693,0.09966
836.95540,0.10309
838.88387,0.10154
840.81234,0.09859
842.74080,0.09979
844.66927,0.10521
846.59774,0.11371
848.52621,0.12130
850.45468,0.12528
852.38315,0.12230
854.31162,0.11211
856.24008,0.09565
858.16855,0.08192
860.09702,0.08600
862.02549,0.09893
863.95396,0.10253
865.88243,0.09962
867.81090,0.08201
869.73937,0.04437
871.66783,0.03362
873.59630,0.07275
875.52477,0.11674
877.45324,0.13185
879.38171,0.12388
881.31018,0.11433
883.23865,0.11084
885.16711,0.10832
887.09558,0.11236
889.02405,0.11568
890.95252,0.10816
892.88099,0.10401
894.80946,0.10860
896.73793,0.11066
898.66640,0.11301
900.59486,0.11870
902.52333,0.11744
904.45180,0.11039
906.38027,0.10778
908.30874,0.11414
910.23721,0.12584
912.16568,0.12824
914.09414,0.11622
916.02261,0.10489
917.95108,0.10566
919.87955,0.11674
921.80802,0.12725
923.73649,0.12627
925.66496,0.11780
927.59343,0.11454
929.52189,0.12124
931.45036,0.12737
933.37883,0.12622
935.30730,0.12456
937.23577,0.12164
939.16424,0.11413
941.09271,0.11016
943.02117,0.11230
944.94964,0.11176
946.87811,0.11024
948.80658,0.11578
950.73505,0.12080
952.66352,0.11626
954.59199,0.11002
956.52045,0.10966
958.44892,0.11394
960.37739,0.12291
962.30586,0.13111
964.23433,0.13256
966.16280,0.12605
968.09127,0.11585
970.01974,0.11598
971.94820,0.12467
973.87667,0.12408
975.80514,0.11566
977.73361,0.10819
979.66208,0.09943
981.59055,0.09373
983.51902,0.09499
985.44748,0.10061
987.37595,0.11051
989.30442,0.11959
991.23289,0.12656
993.16136,0.13198
995.08983,0.12999
997.01830,0.12226
998.94677,0.11800
1000.87523,0.12552
1002.80370,0.13937
1004.73217,0.14081
1006.66064,0.12730
1008.58911,0.11647
1010.51758,0.11634
1012.44605,0.12225
1014.37451,0.13169
1016.30298,0.13680
1018.23145,0.13418
1020.15992,0.13244
1022.08839,0.13115
1024.01686,0.12291
1025.94533,0.10646
1027.87380,0.09093
1029.80226,0.08845
1031.73073,0.09830
1033.65920,0.11468
1035.58767,0.12943
1037.51614,0.13144
1039.44461,0.12537
1041.37308,0.12163
1043.30154,0.12200
1045.23001,0.12789
1047.15848,0.13449
1049.08695,0.13383
1051.01542,0.12752
1052.94389,0.12059
1054.87236,0.11864
1056.80083,0.12350
1058.72929,0.12803
1060.65776,0.12848
1062.58623,0.13175
1064.51470,0.14132
1066.44317,0.14343
1068.37164,0.13126
1070.30011,0.12353
1072.22857,0.12930
1074.15704,0.13612
1076.08551,0.13491
1078.01398,0.12746
1079.94245,0.12594
1081.87092,0.13467
1083.79939,0.14376
1085.72786,0.14866
1087.65632,0.14800
1089.58479,0.14257
1091.51326,0.13504
1093.44173,0.12397
1095.37020,0.11608
1097.29867,0.11650
1099.22714,0.11450
1101.15560,0.11010
1103.08407,0.11936
1105.01254,0.13399
1106.94101,0.13383
1108.86948,0.13039
1110.79795,0.13725
1112.72642,0.14251
1114.65489,0.13757
1116.58335,0.13149
1118.51182,0.13500
1120.44029,0.14089
1122.36876,0.13517
1124.29723,0.12266
1126.22570,0.11778
1128.15417,0.12308
1130.08263,0.12848
1132.01110,0.12764
1133.93957,0.12566
1135.86804,0.12566
1137.79651,0.12660
1139.72498,0.12833
1141.65345,0.12675
1143.58191,0.12254
1145.51038,0.12553
1147.43885,0.13600
1149.36732,0.14303
1151.29579,0.14391
1153.22426,0.14446
1155.15273,0.14640
1157.08120,0.14617
1159.00966,0.14468
1160.93813,0.14499
1162.86660,0.14373
1164.79507,0.13933
1166.72354,0.13439
1168.65201,0.13307
1170.58048,0.13555
1172.50894,0.13685
1174.43741,0.13738
1176.36588,0.13821
1178.29435,0.13794
1180.22282,0.13742
1182.15129,0.13697
1184.07976,0.13987
1186.00823,0.14787
1187.93669,0.15085
1189.86516,0.14437
1191.79363,0.14090
1193.72210,0.14548
1195.65057,0.14972
1197.57904,0.14837
1199.50751,0.14201
1201.43597,0.13630
1203.36444,0.13691
1205.29291,0.14097
1207.22138,0.14470
1209.14985,0.14798
1211.07832,0.14972
1213.00679,0.14935
1214.93526,0.14638
1216.86372,0.14227
1218.79219,0.13945
1220.72066,0.13775
1222.64913,0.13966
1224.57760,0.14540
1226.50607,0.14702
1228.43454,0.14306
1230.36300,0.14117
1232.29147,0.14252
1234.21994,0.14172
1236.14841,0.13984
1238.07688,0.14202
1240.00535,0.14448
1241.93382,0.14285
1243.86229,0.14201
1245.79075,0.14497
1247.71922,0.14818
1249.64769,0.14880
1251.57616,0.14669
1253.50463,0.14357
1255.43310,0.14193
1257.36157,0.14006
1259.29003,0.13646
1261.21850,0.13349
1263.14697,0.13087
1265.07544,0.12887
1267.00391,0.12927
1268.93238,0.13102
1270.86085,0.13448
1272.78932,0.13886
1274.71778,0.14120
1276.64625,0.14201
1278.57472,0.14016
1280.50319,0.13404
1282.43166,0.13176
1284.36013,0.13827
1286.28860,0.14477
1288.21706,0.14964
1290.14553,0.15694
1292.07400,0.15880
1294.00247,0.15189
1295.93094,0.14194
1297.85941,0.13273
1299.78788,0.12319
1301.71634,0.10319
1303.64481,0.07910
1305.57328,0.08321
1307.50175,0.11748
1309.43022,0.14523
1311.35869,0.15249
1313.28716,0.15110
1315.21563,0.14980
1317.14409,0.15423
1319.07256,0.16007
1321.00103,0.15830
1322.92950,0.15211
1324.85797,0.14436
1326.78644,0.13659
1328.71491,0.13272
1330.64337,0.12791
1332.57184,0.12583
1334.50031,0.13129
1336.42878,0.13670
1338.35725,0.14282
1340.28572,0.14224
1342.21419,0.13907
1344.14266,0.15257
1346.07112,0.16150
1347.99959,0.14817
1349.92806,0.13638
1351.85653,0.13783
1353.78500,0.14029
1355.71347,0.13915
1357.64194,0.13922
1359.57040,0.14494
1361.49887,0.15606
1363.42734,0.16264
1365.35581,0.15949
1367.28428,0.15556
1369.21275,0.15510
1371.14122,0.15705
1373.06969,0.15997
1374.99815,0.16209
1376.92662,0.16353
1378.85509,0.16481
1380.78356,0.16534
1382.71203,0.16613
1384.64050,0.17018
1386.56897,0.17643
1388.49743,0.17531
1390.42590,0.16918
1392.35437,0.17149
1394.28284,0.18139
1396.21131,0.18410
1398.13978,0.17693
1400.06825,0.16905
1401.99672,0.16569
1403.92518,0.16497
1405.85365,0.16247
1407.78212,0.16041
1409.71059,0.16206
1411.63906,0.16508
1413.56753,0.16785
1415.49600,0.17252
1417.42446,0.18053
1419.35293,0.18433
1421.28140,0.17770
1423.20987,0.17019
1425.13834,0.16796
1427.06681,0.17133
1428.99528,0.17476
1430.92375,0.17316
1432.85221,0.17124
1434.78068,0.17426
1436.70915,0.17696
1438.63762,0.17146
1440.56609,0.16554
1442.49456,0.16428
1444.42303,0.16542
1446.35149,0.16762
1448.27996,0.17206
1450.20843,0.17728
1452.13690,0.18215
1454.06537,0.18870
1455.99384,0.19882
1457.92231,0.19998
1459.85077,0.18578
1461.77924,0.17850
1463.70771,0.18322
1465.63618,0.18983
1467.56465,0.18892
1469.49312,0.19148
1471.42159,0.20392
1473.35006,0.20909
1475.27852,0.19640
1477.20699,0.18490
1479.13546,0.17978
1481.06393,0.17806
1482.99240,0.17913
1484.92087,0.18641
1486.84934,0.19892
1488.77780,0.20916
1490.70627,0.20609
1492.63474,0.19676
1494.56321,0.19736
1496.49168,0.20731
1498.42015,0.20733
1500.34862,0.19554
1502.27709,0.19080
1504.20555,0.20386
1506.13402,0.23826
1508.06249,0.24673
1509.99096,0.22096
1511.91943,0.20383
1513.84790,0.20029
1515.77637,0.20764
1517.70483,0.21419
1519.63330,0.21854
1521.56177,0.22025
1523.49024,0.20914
1525.41871,0.20122
1527.34718,0.19740
1529.27565,0.19371
1531.20412,0.19809
1533.13258,0.20333
1535.06105,0.19720
1536.98952,0.19912
1538.91799,0.22536
1540.84646,0.25622
1542.77493,0.24858
1544.70340,0.22591
1546.63186,0.20662
1548.56033,0.20150
1550.48880,0.20478
1552.41727,0.20679
1554.34574,0.21134
1556.27421,0.22189
1558.20268,0.23139
1560.13115,0.21484
1562.05961,0.19950
1563.98808,0.19493
1565.91655,0.19339
1567.84502,0.19642
1569.77349,0.20006
1571.70196,0.19400
1573.63043,0.19016
1575.55889,0.19853
1577.48736,0.20343
1579.41583,0.19602
1581.34430,0.19094
1583.27277,0.18871
1585.20124,0.18417
1587.12971,0.17993
1589.05818,0.18113
1590.98664,0.18477
1592.91511,0.18482
1594.84358,0.18210
1596.77205,0.17889
1598.70052,0.17516
1600.62899,0.17363
1602.55746,0.17682
1604.48592,0.18262
1606.41439,0.18941
1608.34286,0.19430
1610.27133,0.19158
1612.19980,0.18649
1614.12827,0.18899
1616.05674,0.19637
1617.98521,0.19482
1619.91367,0.19014
1621.84214,0.19211
1623.77061,0.19684
1625.69908,0.19796
1627.62755,0.19812
1629.55602,0.19753
1631.48449,0.19732
1633.41295,0.20753
1635.34142,0.22745
1637.26989,0.22073
1639.19836,0.20152
1641.12683,0.19517
1643.05530,0.19918
1644.98377,0.21229
1646.91223,0.22291
1648.84070,0.21677
1650.76917,0.22386
1652.69764,0.25413
1654.62611,0.24748
1656.55458,0.21700
1658.48305,0.19708
1660.41152,0.18308
1662.33998,0.17739
1664.26845,0.18444
1666.19692,0.19708
1668.12539,0.20902
1670.05386,0.21217
1671.98233,0.20740
1673.91080,0.20847
1675.83926,0.21205
1677.76773,0.21162
1679.69620,0.21501
1681.62467,0.23145
1683.55314,0.25857
1685.48161,0.25264
1687.41008,0.22559
1689.33855,0.20960
1691.26701,0.20130
1693.19548,0.20157
1695.12395,0.21378
1697.05242,0.22770
1698.98089,0.22980
1700.90936,0.22310
1702.83783,0.22044
1704.76629,0.22337
1706.69476,0.21606
1708.62323,0.19991
1710.55170,0.19321
1712.48017,0.19903
1714.40864,0.21508
1716.33711,0.23662
1718.26558,0.23317
1720.19404,0.20840
1722.12251,0.19330
1724.05098,0.18787
1725.97945,0.18523
1727.90792,0.18514
1729.83639,0.19190
1731.76486,0.20707
1733.69332,0.21684
1735.62179,0.20597
1737.55026,0.19886
1739.47873,0.20096
1741.40720,0.20160
1743.33567,0.19868
1745.26414,0.19925
1747.19261,0.20649
1749.12107,0.21245
1751.04954,0.20629
1752.97801,0.19671
1754.90648,0.19416
1756.83495,0.19543
1758.76342,0.19679
1760.69189,0.19987
1762.62035,0.20008
1764.54882,0.19477
1766.47729,0.19294
1768.40576,0.19742
1770.33423,0.20537
1772.26270,0.21209
1774.19117,0.20735
1776.11964,0.19642
1778.04810,0.18872
1779.97657,0.18592
1781.90504,0.18541
1783.83351,0.18627
1785.76198,0.18860
1787.69045,0.19154
1789.61892,0.19783
1791.54738,0.20634
1793.47585,0.20643
1795.40432,0.19961
1797.33279,0.19538
1799.26126,0.19550
1801.18973,0.19742
1803.11820,0.19753
1805.04666,0.19572
1806.97513,0.19334
1808.90360,0.19142
1810.83207,0.18996
1812.76054,0.18559
1814.68901,0.17982
1816.61748,0.17976
1818.54595,0.19387
1820.47441,0.21319
1822.40288,0.21411
1824.33135,0.20093
1826.25982,0.19548
1828.18829,0.19824
1830.11676,0.19988
1832.04523,0.19459
1833.97369,0.18903
1835.90216,0.18854
1837.83063,0.18982
1839.75910,0.19187
1841.68757,0.19728
1843.61604,0.20395
1845.54451,0.20360
1847.47298,0.19705
1849.40144,0.18996
1851.32991,0.18555
1853.25838,0.18476
1855.18685,0.18503
1857.11532,0.18488
1859.04379,0.18344
1860.97226,0.18228
1862.90072,0.18445
1864.82919,0.19071
1866.75766,0.20055
1868.68613,0.20562
1870.61460,0.19763
1872.54307,0.18764
1874.47154,0.18347
1876.40001,0.18244
1878.32847,0.18234
1880.25694,0.18442
1882.18541,0.18671
1884.11388,0.18610
1886.04235,0.18517
1887.97082,0.18781
1889.89929,0.19077
1891.82775,0.18985
1893.75622,0.18831
1895.68469,0.18540
1897.61316,0.18092
1899.54163,0.18099
1901.47010,0.18472
1903.39857,0.18679
1905.32704,0.18593
1907.25550,0.18545
1909.18397,0.18776
1911.11244,0.18921
1913.04091,0.19064
1914.96938,0.19539
1916.89785,0.19964
1918.82632,0.19944
1920.75478,0.19782
1922.68325,0.19752
1924.61172,0.19615
1926.54019,0.19359
1928.46866,0.19117
1930.39713,0.18778
1932.32560,0.18567
1934.25407,0.18652
1936.18253,0.18705
1938.11100,0.18669
1940.03947,0.18705
1941.96794,0.18796
1943.89641,0.18932
1945.82488,0.18978
1947.75335,0.18930
1949.68181,0.19033
1951.61028,0.19101
1953.53875,0.18854
1955.46722,0.18608
1957.39569,0.18727
1959.32416,0.19107
1961.25263,0.19324
1963.18110,0.19360
1965.10956,0.19688
1967.03803,0.20074
1968.96650,0.19945
1970.89497,0.19475
1972.82344,0.19050
1974.75191,0.19048
1976.68038,0.19436
1978.60884,0.19702
1980.53731,0.19501
1982.46578,0.18921
1984.39425,0.18597
1986.32272,0.18732
1988.25119,0.19028
1990.17966,0.19452
1992.10812,0.19639
1994.03659,0.19449
1995.96506,0.19168
1997.89353,0.18726
1999.82200,0.18361
2001.75047,0.18408
2003.67894,0.18513
2005.60741,0.18487
2007.53587,0.18668
2009.46434,0.19014
2011.39281,0.19188
2013.32128,0.19278
2015.24975,0.19496
2017.17822,0.19569
2019.10669,0.19230
2021.03515,0.18861
2022.96362,0.18871
2024.89209,0.19091
2026.82056,0.19142
2028.74903,0.19177
2030.67750,0.19416
2032.60597,0.19546
2034.53444,0.19501
2036.46290,0.19489
2038.39137,0.19323
2040.31984,0.19033
2042.24831,0.18830
2044.17678,0.18645
2046.10525,0.18737
2048.03372,0.19173
2049.96218,0.19331
2051.89065,0.19019
2053.81912,0.18877
2055.74759,0.19199
2057.67606,0.19455
2059.60453,0.19399
2061.53300,0.19396
2063.46147,0.19517
2065.38993,0.19482
2067.31840,0.19301
2069.24687,0.19069
2071.17534,0.18838
2073.10381,0.18755
2075.03228,0.18883
2076.96075,0.19231
2078.88921,0.19501
2080.81768,0.19463
2082.74615,0.19386
2084.67462,0.19392
2086.60309,0.19282
2088.53156,0.19091
2090.46003,0.18991
2092.38850,0.18948
2094.31696,0.19094
2096.24543,0.19355
2098.17390,0.19335
2100.10237,0.19239
2102.03084,0.19281
2103.95931,0.19216
2105.88778,0.19062
2107.81624,0.18888
2109.74471,0.18667
2111.67318,0.18600
2113.60165,0.18808
2115.53012,0.19099
2117.45859,0.19178
2119.38706,0.18977
2121.31553,0.18705
2123.24399,0.18615
2125.17246,0.18937
2127.10093,0.19523
2129.02940,0.19725
2130.95787,0.19383
2132.88634,0.19055
2134.81481,0.19646
2136.74327,0.21143
2138.67174,0.21450
2140.60021,0.20182
2142.52868,0.19548
2144.45715,0.19704
2146.38562,0.19699
2148.31409,0.19776
2150.24255,0.19953
2152.17102,0.19917
2154.09949,0.19724
2156.02796,0.19457
2157.95643,0.19177
2159.88490,0.19010
2161.81337,0.18979
2163.74184,0.19127
2165.67030,0.19243
2167.59877,0.19116
2169.52724,0.19065
2171.45571,0.19305
2173.38418,0.19512
2175.31265,0.19262
2177.24112,0.18849
2179.16958,0.18966
2181.09805,0.19354
2183.02652,0.19359
2184.95499,0.19244
2186.88346,0.19396
2188.81193,0.19586
2190.74040,0.19505
2192.66887,0.19178
2194.59733,0.19005
2196.52580,0.19198
2198.45427,0.19473
2200.38274,0.19533
2202.31121,0.19428
2204.23968,0.19470
2206.16815,0.19731
2208.09661,0.19932
2210.02508,0.19950
2211.95355,0.19775
2213.88202,0.19339
2215.81049,0.18922
2217.73896,0.18855
2219.66743,0.19051
2221.59590,0.19192
2223.52436,0.19036
2225.45283,0.18854
2227.38130,0.18887
2229.30977,0.18918
2231.23824,0.19070
2233.16671,0.19584
2235.09518,0.19914
2237.02364,0.19775
2238.95211,0.19831
2240.88058,0.20088
2242.80905,0.19966
2244.73752,0.19651
2246.66599,0.19491
2248.59446,0.19401
2250.52293,0.19380
2252.45139,0.19486
2254.37986,0.19538
2256.30833,0.19512
2258.23680,0.19570
2260.16527,0.19653
2262.09374,0.19602
2264.02221,0.19542
2265.95067,0.19653
2267.87914,0.19684
2269.80761,0.19436
2271.73608,0.19136
2273.66455,0.19063
2275.59302,0.19359
2277.52149,0.19788
2279.44996,0.19996
2281.37842,0.20043
2283.30689,0.19880
2285.23536,0.19367
2287.16383,0.18871
2289.09230,0.18734
2291.02077,0.18738
2292.94924,0.18600
2294.87770,0.18646
2296.80617,0.19306
2298.73464,0.20019
2300.66311,0.19997
2302.59158,0.19424
2304.52005,0.18918
2306.44852,0.18837
2308.37699,0.19140
2310.30545,0.19655
2312.23392,0.20310
2314.16239,0.20493
2316.09086,0.19551
2318.01933,0.18232
2319.94780,0.18063
2321.87627,0.18846
2323.80473,0.18608
2325.73320,0.17765
2327.66167,0.18256
2329.59014,0.19335
2331.51861,0.19633
2333.44708,0.19918
2335.37555,0.20402
2337.30401,0.20417
2339.23248,0.20361
2341.16095,0.20419
2343.08942,0.20757
2345.01789,0.21107
2346.94636,0.20801
2348.87483,0.20409
2350.80330,0.19996
2352.73176,0.19566
2354.66023,0.19826
2356.58870,0.20463
2358.51717,0.20696
2360.44564,0.21158
2362.37411,0.21933
2364.30258,0.21258
2366.23104,0.19241
2368.15951,0.18101
2370.08798,0.18478
2372.01645,0.19300
2373.94492,0.19649
2375.87339,0.19665
2377.80186,0.19701
2379.73033,0.19656
2381.65879,0.19529
2383.58726,0.19504
2385.51573,0.19330
2387.44420,0.19085
2389.37267,0.19325
2391.30114,0.19777
2393.22961,0.19917
2395.15807,0.19914
2397.08654,0.19985
2399.01501,0.20001
2400.94348,0.19839
2402.87195,0.19470
2404.80042,0.19089
2406.72889,0.19138
2408.65736,0.19545
2410.58582,0.19816
2412.51429,0.19638
2414.44276,0.19175
2416.37123,0.18973
2418.29970,0.19173
2420.22817,0.19444
2422.15664,0.19556
2424.08510,0.19565
2426.01357,0.19615
2427.94204,0.19763
2429.87051,0.19883
2431.79898,0.19865
2433.72745,0.19660
2435.65592,0.19274
2437.58439,0.19167
2439.51285,0.19453
2441.44132,0.19498
2443.36979,0.19178
2445.29826,0.19126
2447.22673,0.19565
2449.15520,0.20421
2451.08367,0.21953
2453.01213,0.23344
2454.94060,0.22952
2456.86907,0.21277
2458.79754,0.20248
2460.72601,0.20076
2462.65448,0.19971
2464.58295,0.19787
2466.51142,0.19744
2468.43988,0.19995
2470.36835,0.20349
2472.29682,0.20526
2474.22529,0.20318
2476.15376,0.19826
2478.08223,0.19605
2480.01070,0.19879
2481.93916,0.20188
2483.86763,0.20106
2485.79610,0.19912
2487.72457,0.19718
2489.65304,0.19342
2491.58151,0.19145
2493.50998,0.19350
2495.43844,0.19778
2497.36691,0.20192
2499.29538,0.20290
2501.22385,0.20133
2503.15232,0.20024
2505.08079,0.19978
2507.00926,0.19909
2508.93773,0.19879
2510.86619,0.19917
2512.79466,0.19942
2514.72313,0.19995
2516.65160,0.20155
2518.58007,0.20390
2520.50854,0.20557
2522.43701,0.20428
2524.36547,0.20104
2526.29394,0.19923
2528.22241,0.19962
2530.15088,0.20156
2532.07935,0.20301
2534.00782,0.20159
2535.93629,0.19917
2537.86476,0.19923
2539.79322,0.20074
2541.72169,0.20065
2543.65016,0.20002
2545.57863,0.19995
2547.50710,0.20001
2549.43557,0.20197
2551.36404,0.20473
2553.29250,0.20658
2555.22097,0.20818
2557.14944,0.20708
2559.07791,0.20179
2561.00638,0.19772
2562.93485,0.19967
2564.86332,0.20340
2566.79179,0.20356
2568.72025,0.20136
2570.64872,0.19931
2572.57719,0.19821
2574.50566,0.19752
2576.43413,0.19745
2578.36260,0.19806
2580.29107,0.19766
2582.21953,0.19829
2584.14800,0.20294
2586.07647,0.20640
2588.00494,0.20302
2589.93341,0.19786
2591.86188,0.19789
2593.79035,0.20102
2595.71882,0.20150
2597.64728,0.20055
2599.57575,0.20137
2601.50422,0.20328
2603.43269,0.20590
2605.36116,0.20797
2607.28963,0.20887
2609.21810,0.20345
2611.14656,0.18759
2613.07503,0.17867
2615.00350,0.18948
2616.93197,0.20249
2618.86044,0.20380
2620.78891,0.20153
2622.71738,0.20185
2624.64585,0.20136
2626.57431,0.19864
2628.50278,0.19656
2630.43125,0.19739
2632.35972,0.19776
2634.28819,0.19545
2636.21666,0.19570
2638.14513,0.20054
2640.07359,0.20437
2642.00206,0.20346
2643.93053,0.19950
2645.85900,0.19709
2647.78747,0.19938
2649.71594,0.20274
2651.64441,0.20251
2653.57288,0.19950
2655.50134,0.19693
2657.42981,0.19686
2659.35828,0.19960
2661.28675,0.20399
2663.21522,0.20683
2665.14369,0.20761
2667.07216,0.20954
2669.00062,0.21079
2670.92909,0.20739
2672.85756,0.20417
2674.78603,0.20493
2676.71450,0.20396
2678.64297,0.20100
2680.57144,0.20141
2682.49990,0.20387
2684.42837,0.20564
2686.35684,0.20836
2688.28531,0.21225
2690.21378,0.21422
2692.14225,0.21453
2694.07072,0.21410
2695.99919,0.21240
2697.92765,0.21057
2699.85612,0.20678
2701.78459,0.20247
2703.71306,0.20265
2705.64153,0.20483
2707.57000,0.20636
2709.49847,0.20815
2711.42693,0.20862
2713.35540,0.20653
2715.28387,0.20426
2717.21234,0.20302
2719.14081,0.20104
2721.06928,0.20002
2722.99775,0.20214
2724.92622,0.20497
2726.85468,0.20787
2728.78315,0.21075
2730.71162,0.21189
2732.64009,0.21295
2734.56856,0.21457
2736.49703,0.21402
2738.42550,0.21175
2740.35396,0.21173
2742.28243,0.21353
2744.21090,0.21217
2746.13937,0.20918
2748.06784,0.20937
2749.99631,0.21198
2751.92478,0.21378
2753.85325,0.21234
2755.78171,0.20944
2757.71018,0.21012
2759.63865,0.21337
2761.56712,0.21432
2763.49559,0.21281
2765.42406,0.20977
2767.35253,0.20747
2769.28099,0.20962
2771.20946,0.21343
2773.13793,0.21324
2775.06640,0.20950
2776.99487,0.20807
2778.92334,0.21205
2780.85181,0.21815
2782.78028,0.21993
2784.70874,0.21704
2786.63721,0.21610
2788.56568,0.21561
2790.49415,0.21123
2792.42262,0.20778
2794.35109,0.20850
2796.27956,0.21034
2798.20802,0.21161
2800.13649,0.21432
2802.06496,0.21841
2803.99343,0.22021
2805.92190,0.21914
2807.85037,0.21850
2809.77884,0.21776
2811.70731,0.21397
2813.63577,0.21153
2815.56424,0.21483
2817.49271,0.21813
2819.42118,0.21797
2821.34965,0.21680
2823.27812,0.21461
2825.20659,0.21247
2827.13505,0.21289
2829.06352,0.21612
2830.99199,0.21927
2832.92046,0.21861
2834.84893,0.21617
2836.77740,0.21669
2838.70587,0.21881
2840.63433,0.21755
2842.56280,0.21432
2844.49127,0.21502
2846.41974,0.21870
2848.34821,0.21936
2850.27668,0.21447
2852.20515,0.20909
2854.13362,0.20891
2856.06208,0.20964
2857.99055,0.20839
2859.91902,0.20696
2861.84749,0.20317
2863.77596,0.20002
2865.70443,0.20228
2867.63290,0.20692
2869.56136,0.20919
2871.48983,0.20965
2873.41830,0.21247
2875.34677,0.21649
2877.27524,0.21886
2879.20371,0.21964
2881.13218,0.21731
2883.06065,0.21180
2884.98911,0.20856
2886.91758,0.21175
2888.84605,0.21561
2890.77452,0.21447
2892.70299,0.20863
2894.63146,0.20009
2896.55993,0.19845
2898.48839,0.20667
2900.41686,0.21211
2902.34533,0.21015
2904.27380,0.20486
2906.20227,0.20068
2908.13074,0.20398
2910.05921,0.21092
2911.98768,0.21414
2913.91614,0.21056
2915.84461,0.20137
2917.77308,0.20030
2919.70155,0.20885
2921.63002,0.21219
2923.55849,0.20512
2925.48696,0.19595
2927.41542,0.20049
2929.34389,0.21246
2931.27236,0.21182
2933.20083,0.20391
2935.12930,0.19322
2937.05777,0.18068
2938.98624,0.18508
2940.91471,0.20290
2942.84317,0.21120
2944.77164,0.20408
2946.70011,0.18944
2948.62858,0.18669
2950.55705,0.20090
2952.48552,0.21142
2954.41399,0.20668
2956.34245,0.18973
2958.27092,0.17917
2960.19939,0.19180
2962.12786,0.20989
2964.05633,0.21448
2965.98480,0.20774
2967.91327,0.19731
2969.84174,0.19775
2971.77020,0.20760
2973.69867,0.21259
2975.62714,0.21060
2977.55561,0.20240
2979.48408,0.19939
2981.41255,0.21136
2983.34102,0.22342
2985.26948,0.22118
2987.19795,0.20846
2989.12642,0.20155
2991.05489,0.20879
2992.98336,0.21945
2994.91183,0.22445
2996.84030,0.22334
2998.76877,0.22080
3000.69723,0.22154
3002.62570,0.22149
3004.55417,0.21626
3006.48264,0.20711
3008.41111,0.19774
3010.33958,0.18251
3012.26805,0.14832
3014.19651,0.09953
3016.12498,0.06653
3018.05345,0.08841
3019.98192,0.15608
3021.91039,0.20960
3023.83886,0.22455
3025.76733,0.22170
3027.69579,0.21691
3029.62426,0.21528
3031.55273,0.21677
3033.48120,0.21701
3035.40967,0.21179
3037.33814,0.20350
3039.26661,0.20516
3041.19508,0.21875
3043.12354,0.22841
3045.05201,0.22412
3046.98048,0.21056
3048.90895,0.20431
3050.83742,0.21319
3052.76589,0.22300
3054.69436,0.21836
3056.62282,0.20403
3058.55129,0.20163
3060.47976,0.21306
3062.40823,0.21731
3064.33670,0.20544
3066.26517,0.19170
3068.19364,0.19739
3070.12211,0.21766
3072.05057,0.22688
3073.97904,0.21478
3075.90751,0.19832
3077.83598,0.20085
3079.76445,0.21495
3081.69292,0.21788
3083.62139,0.21195
3085.54985,0.21490
3087.47832,0.22894
3089.40679,0.23751
3091.33526,0.22925
3093.26373,0.20810
3095.19220,0.19393
3097.12067,0.20150
3099.04914,0.21634
3100.97760,0.21541
3102.90607,0.19726
3104.83454,0.19007
3106.76301,0.20607
3108.69148,0.22171
3110.61995,0.21736
3112.54842,0.20110
3114.47688,0.19794
3116.40535,0.20762
3118.33382,0.21396
3120.26229,0.21370
3122.19076,0.20677
3124.11923,0.20353
3126.04770,0.21159
3127.97617,0.21919
3129.90463,0.21617
3131.83310,0.21152
3133.76157,0.21415
3135.69004,0.21785
3137.61851,0.21667
3139.54698,0.21431
3141.47545,0.21876
3143.40391,0.22574
3145.33238,0.22608
3147.26085,0.21989
3149.18932,0.21523
3151.11779,0.21945
3153.04626,0.22407
3154.97473,0.22144
3156.90320,0.21834
3158.83166,0.22152
3160.76013,0.22733
3162.68860,0.22719
3164.61707,0.22182
3166.54554,0.21856
3168.47401,0.22045
3170.40248,0.22184
3172.33094,0.21924
3174.25941,0.21903
3176.18788,0.22057
3178.11635,0.21869
3180.04482,0.21843
3181.97329,0.22275
3183.90176,0.22756
3185.83022,0.23222
3187.75869,0.23535
3189.68716,0.23345
3191.61563,0.22974
3193.54410,0.22691
3195.47257,0.22114
3197.40104,0.21607
3199.32951,0.21774
3201.25797,0.22169
3203.18644,0.22633
3205.11491,0.23066
3207.04338,0.22891
3208.97185,0.22480
3210.90032,0.22361
3212.82879,0.22304
3214.75725,0.22293
3216.68572,0.22511
3218.61419,0.22832
3220.54266,0.22912
3222.47113,0.22770
3224.39960,0.22611
3226.32807,0.22321
3228.25654,0.21971
3230.18500,0.21766
3232.11347,0.21725
3234.04194,0.22037
3235.97041,0.22752
3237.89888,0.23206
3239.82735,0.22919
3241.75582,0.22596
3243.68428,0.23193
3245.61275,0.24009
3247.54122,0.23594
3249.46969,0.22260
3251.39816,0.21300
3253.32663,0.21337
3255.25510,0.21985
3257.18357,0.22429
3259.11203,0.22358
3261.04050,0.22055
3262.96897,0.22001
3264.89744,0.22156
3266.82591,0.22301
3268.75438,0.22531
3270.68285,0.22507
3272.61131,0.22119
3274.53978,0.22079
3276.46825,0.22272
3278.39672,0.22011
3280.32519,0.21837
3282.25366,0.22269
3284.18213,0.22769
3286.11060,0.22901
3288.03906,0.22729
3289.96753,0.22426
3291.89600,0.22086
3293.82447,0.22011
3295.75294,0.22246
3297.68141,0.22259
3299.60988,0.22064
3301.53834,0.22056
3303.46681,0.22140
3305.39528,0.22105
3307.32375,0.22108
3309.25222,0.22276
3311.18069,0.22202
3313.10916,0.21997
3315.03763,0.22173
3316.96609,0.22660
3318.89456,0.23209
3320.82303,0.23344
3322.75150,0.22980
3324.67997,0.22420
3326.60844,0.21833
3328.53691,0.21695
3330.46537,0.22008
3332.39384,0.22312
3334.32231,0.22463
3336.25078,0.22336
3338.17925,0.21905
3340.10772,0.21758
3342.03619,0.22082
3343.96466,0.22042
3345.89312,0.21578
3347.82159,0.21365
3349.75006,0.21708
3351.67853,0.22663
3353.60700,0.23717
3355.53547,0.23989
3357.46394,0.23441
3359.39240,0.23056
3361.32087,0.23178
3363.24934,0.23365
3365.17781,0.23274
3367.10628,0.22784
3369.03475,0.22411
3370.96322,0.22599
3372.89168,0.22936
3374.82015,0.22909
3376.74862,0.22684
3378.67709,0.22575
3380.60556,0.22611
3382.53403,0.22751
3384.46250,0.22673
3386.39097,0.22263
3388.31943,0.21847
3390.24790,0.21780
3392.17637,0.22049
3394.10484,0.21868
3396.03331,0.21692
3397.96178,0.22358
3399.89025,0.22066
3401.81871,0.20416
3403.74718,0.19656
3405.67565,0.20129
3407.60412,0.21055
3409.53259,0.22061
3411.46106,0.22570
3413.38953,0.22694
3415.31800,0.22808
3417.24646,0.22666
3419.17493,0.22003
3421.10340,0.21253
3423.03187,0.20986
3424.96034,0.21054
3426.88881,0.21271
3428.81728,0.21756
3430.74574,0.22469
3432.67421,0.22656
3434.60268,0.21783
3436.53115,0.21137
3438.45962,0.21745
3440.38809,0.22596
3442.31656,0.22768
3444.24503,0.22607
3446.17349,0.22437
3448.10196,0.21929
3450.03043,0.21186
3451.95890,0.20768
3453.88737,0.20550
3455.81584,0.20194
3457.74431,0.20048
3459.67277,0.20541
3461.60124,0.20968
3463.52971,0.20542
3465.45818,0.20275
3467.38665,0.20758
3469.31512,0.20867
3471.24359,0.20343
3473.17206,0.20161
3475.10052,0.20478
3477.02899,0.20340
3478.95746,0.19760
3480.88593,0.19371
3482.81440,0.19068
3484.74287,0.19360
3486.67134,0.20258
3488.59980,0.20592
3490.52827,0.20224
3492.45674,0.19907
3494.38521,0.19838
3496.31368,0.19816
3498.24215,0.19922
3500.17062,0.20124
3502.09909,0.20047
3504.02755,0.19454
3505.95602,0.18706
3507.88449,0.18617
3509.81296,0.19262
3511.74143,0.19472
3513.66990,0.18949
3515.59837,0.18787
3517.52683,0.18853
3519.45530,0.18505
3521.38377,0.18302
3523.31224,0.18257
3525.24071,0.18182
3527.16918,0.18574
3529.09765,0.19171
3531.02611,0.19342
3532.95458,0.19200
3534.88305,0.19041
3536.81152,0.18724
3538.73999,0.18078
3540.66846,0.17539
3542.59693,0.17626
3544.52540,0.18177
3546.45386,0.18385
3548.38233,0.18113
3550.31080,0.18022
3552.23927,0.17980
3554.16774,0.17752
3556.09621,0.17644
3558.02468,0.17344
3559.95314,0.16583
3561.88161,0.15989
3563.81008,0.16414
3565.73855,0.17945
3567.66702,0.18967
3569.59549,0.18418
3571.52396,0.17444
3573.45243,0.16588
3575.38089,0.16230
3577.30936,0.16305
3579.23783,0.16276
3581.16630,0.16393
3583.09477,0.16995
3585.02324,0.17714
3586.95171,0.17858
3588.88017,0.17169
3590.80864,0.16723
3592.73711,0.16954
3594.66558,0.17211
3596.59405,0.16861
3598.52252,0.16238
3600.45099,0.15842
3602.37946,0.15717
3604.30792,0.15752
3606.23639,0.16074
3608.16486,0.16333
3610.09333,0.15779
3612.02180,0.15357
3613.95027,0.15900
3615.87874,0.16718
3617.80720,0.17532
3619.73567,0.17646
3621.66414,0.16571
3623.59261,0.15926
3625.52108,0.16532
3627.44955,0.17903
3629.37802,0.17872
3631.30649,0.16355
3633.23495,0.15755
3635.16342,0.15556
3637.09189,0.14961
3639.02036,0.14407
3640.94883,0.14509
3642.87730,0.15008
3644.80577,0.15618
3646.73423,0.17128
3648.66270,0.19563
3650.59117,0.18872
3652.51964,0.16251
3654.44811,0.15254
3656.37658,0.15489
3658.30505,0.15239
3660.23352,0.14448
3662.16198,0.13899
3664.09045,0.13719
3666.01892,0.13885
3667.94739,0.14580
3669.87586,0.15473
3671.80433,0.15949
3673.73280,0.16926
3675.66126,0.17815
3677.58973,0.17081
3679.51820,0.16118
3681.44667,0.15180
3683.37514,0.14281
3685.30361,0.13899
3687.23208,0.14522
3689.16055,0.15886
3691.08901,0.15791
3693.01748,0.14382
3694.94595,0.13353
3696.87442,0.13189
3698.80289,0.13721
3700.73136,0.14303
3702.65983,0.14308
3704.58829,0.14170
3706.51676,0.14220
3708.44523,0.14498
3710.37370,0.15519
3712.30217,0.15996
3714.23064,0.15140
3716.15911,0.14347
3718.08757,0.13736
3720.01604,0.13455
3721.94451,0.13697
3723.87298,0.14085
3725.80145,0.14383
3727.72992,0.14619
3729.65839,0.15012
3731.58686,0.15699
3733.51532,0.16521
3735.44379,0.16935
3737.37226,0.16422
3739.30073,0.15488
3741.22920,0.15144
3743.15767,0.16433
3745.08614,0.18210
3747.01460,0.17350
3748.94307,0.15622
3750.87154,0.15026
3752.80001,0.15326
3754.72848,0.15241
3756.65695,0.15017
3758.58542,0.14835
3760.51389,0.14299
3762.44235,0.13738
3764.37082,0.13588
3766.29929,0.13675
3768.22776,0.13841
3770.15623,0.13791
3772.08470,0.13277
3774.01317,0.12659
3775.94163,0.12405
3777.87010,0.12824
3779.79857,0.13553
3781.72704,0.14010
3783.65551,0.13812
3785.58398,0.12723
3787.51245,0.11816
3789.44092,0.11803
3791.36938,0.12097
3793.29785,0.12571
3795.22632,0.13389
3797.15479,0.13821
3799.08326,0.13864
3801.01173,0.14322
3802.94020,0.14481
3804.86866,0.14652
3806.79713,0.15107
3808.72560,0.14418
3810.65407,0.13245
3812.58254,0.12951
3814.51101,0.13510
3816.43948,0.14056
3818.36795,0.14076
3820.29641,0.13930
3822.22488,0.13834
3824.15335,0.13872
3826.08182,0.13820
3828.01029,0.13591
3829.93876,0.13395
3831.86723,0.13311
3833.79569,0.13382
3835.72416,0.13747
3837.65263,0.13943
3839.58110,0.13229
3841.50957,0.12566
3843.43804,0.12584
3845.36651,0.12550
3847.29498,0.12220
3849.22344,0.12089
3851.15191,0.12643
3853.08038,0.14035
3855.00885,0.14154
3856.93732,0.13016
3858.86579,0.12328
3860.79426,0.12481
3862.72272,0.13280
3864.65119,0.13482
3866.57966,0.12764
3868.50813,0.12732
3870.43660,0.13377
3872.36507,0.13517
3874.29354,0.13565
3876.22200,0.13178
3878.15047,0.12344
3880.07894,0.12187
3882.00741,0.12962
3883.93588,0.13566
3885.86435,0.13224
3887.79282,0.12483
3889.72129,0.12402
3891.64975,0.12994
3893.57822,0.13445
3895.50669,0.13176
3897.43516,0.12703
3899.36363,0.12733
3901.29210,0.13180
3903.22057,0.13244
3905.14903,0.12480
3907.07750,0.11615
3909.00597,0.11351
3910.93444,0.11363
3912.86291,0.11374
3914.79138,0.11695
3916.71985,0.12467
3918.64832,0.12926
3920.57678,0.12691
3922.50525,0.12565
3924.43372,0.12547
3926.36219,0.12104
3928.29066,0.11565
3930.21913,0.11263
3932.14760,0.11096
3934.07606,0.11091
3936.00453,0.11316
3937.93300,0.11405
3939.86147,0.11291
3941.78994,0.11314
3943.71841,0.11622
3945.64688,0.11926
3947.57535,0.11628
3949.50381,0.10900
3951.43228,0.10802
3953.36075,0.11472
3955.28922,0.11816
3957.21769,0.11231
3959.14616,0.10443
3961.07463,0.10113
3963.00309,0.10180
3964.93156,0.10577
3966.86003,0.11074
3968.78850,0.10996
3970.71697,0.10354
3972.64544,0.10080
3974.57391,0.10495
3976.50238,0.10863
3978.43084,0.10696
3980.35931,0.10406
3982.28778,0.10439
3984.21625,0.10726
3986.14472,0.10735
3988.07319,0.10399
3990.00166,0.10056
3991.93012,0.09556
3993.85859,0.09160
3995.78706,0.09211
3997.71553,0.09384
3999.64400,0.09873
4001.57247,0.10706
4003.50094,0.10625
4005.42941,0.09505
4007.35787,0.09117
4009.28634,0.09744
4011.21481,0.10156
4013.14328,0.09988
4015.07175,0.09354
4017.00022,0.08788
4018.92869,0.08881
4020.85715,0.09256
4022.78562,0.09669
4024.71409,0.10113
4026.64256,0.10293
4028.57103,0.10300
4030.49950,0.09997
4032.42797,0.09165
4034.35644,0.08531
4036.28490,0.08548
4038.21337,0.08633
4040.14184,0.08666
4042.07031,0.09070
4043.99878,0.09709
4045.92725,0.10257
4047.85572,0.10285
4049.78418,0.09675
4051.71265,0.09323
4053.64112,0.09746
4055.56959,0.10126
4057.49806,0.09699
4059.42653,0.08861
4061.35500,0.08365
4063.28346,0.08419
4065.21193,0.08874
4067.14040,0.09203
4069.06887,0.08758
4070.99734,0.08141
4072.92581,0.08399
4074.85428,0.09059
4076.78275,0.09167
4078.71121,0.08887
4080.63968,0.09064
4082.56815,0.09726
4084.49662,0.10146
4086.42509,0.10047
4088.35356,0.09663
4090.28203,0.09612
4092.21049,0.09794
4094.13896,0.09399
4096.06743,0.08527
4097.99590,0.08198
4099.92437,0.08987
4101.85284,0.09668
4103.78131,0.09089
4105.70978,0.08138
4107.63824,0.07523
4109.56671,0.07071
4111.49518,0.07003
4113.42365,0.07329
4115.35212,0.07815
4117.28059,0.08459
4119.20906,0.08710
4121.13752,0.07948
4123.06599,0.06812
4124.99446,0.06624
4126.92293,0.07606
4128.85140,0.08554
4130.77987,0.08645
4132.70834,0.08419
4134.63681,0.08466
4136.56527,0.08604
4138.49374,0.08750
4140.42221,0.08744
4142.35068,0.08211
4144.27915,0.07755
4146.20762,0.07849
4148.13609,0.07963
4150.06455,0.07916
4151.99302,0.07670
4153.92149,0.07167
4155.84996,0.06996
4157.77843,0.07079
4159.70690,0.06587
4161.63537,0.06179
4163.56384,0.06662
4165.49230,0.06939
4167.42077,0.06541
4169.34924,0.06647
4171.27771,0.07321
4173.20618,0.07479
4175.13465,0.06933
4177.06312,0.06469
4178.99158,0.06621
4180.92005,0.06902
4182.84852,0.06703
4184.77699,0.06210
4186.70546,0.06224
4188.63393,0.06838
4190.56240,0.07076
4192.49087,0.07035
4194.41933,0.07584
4196.34780,0.08357
4198.27627,0.08339
4200.20474,0.07428
4202.13321,0.06505
4204.06168,0.05797
4205.99015,0.04945
4207.91861,0.04535
4209.84708,0.05029
4211.77555,0.05513
4213.70402,0.05419
4215.63249,0.05383
4217.56096,0.05809
4219.48943,0.06253
4221.41789,0.06358
4223.34636,0.06031
4225.27483,0.05384
4227.20330,0.05031
4229.13177,0.05177
4231.06024,0.05525
4232.98871,0.05799
4234.91718,0.05801
4236.84564,0.05855
4238.77411,0.06119
4240.70258,0.05982
4242.63105,0.05399
4244.55952,0.05196
4246.48799,0.05445
4248.41646,0.05788
4250.34492,0.06325
4252.27339,0.06800
4254.20186,0.06857
4256.13033,0.06695
4258.05880,0.06136
4259.98727,0.04956
4261.91574,0.04113
4263.84421,0.04183
4265.77267,0.04372
4267.70114,0.04280
4269.62961,0.04389
4271.55808,0.04503
4273.48655,0.04292
4275.41502,0.04086
4277.34349,0.03404
4279.27195,0.02313
4281.20042,0.02024
4283.12889,0.02540
4285.05736,0.03007
4286.98583,0.03078
4288.91430,0.03120
4290.84277,0.03449
4292.77124,0.03885
4294.69970,0.04189
4296.62817,0.04241
4298.55664,0.04149
4300.48511,0.04091
4302.41358,0.04005
4304.34205,0.03966
4306.27052,0.04146
4308.19898,0.04300
4310.12745,0.04365
4312.05592,0.04463
4313.98439,0.04281
4315.91286,0.04000
4317.84133,0.04209
4319.76980,0.04290
4321.69827,0.03657
4323.62673,0.03044
4325.55520,0.02759
4327.48367,0.03152
4329.41214,0.04246
4331.34061,0.04400
4333.26908,0.03587
4335.19755,0.03563
4337.12601,0.04157
4339.05448,0.04022
4340.98295,0.03011
4342.91142,0.02266
4344.83989,0.02633
4346.76836,0.03321
4348.69683,0.03113
4350.62530,0.02683
4352.55376,0.03504
4354.48223,0.04247
4356.41070,0.03107
4358.33917,0.01782
4360.26764,0.01977
4362.19611,0.02621
4364.12458,0.02543
4366.05304,0.01810
4367.98151,0.00660
4369.90998,-0.00054
4371.83845,0.00494
4373.76692,0.01657
4375.69539,0.02507
4377.62386,0.02725
4379.55232,0.02831
4381.48079,0.03083
4383.40926,0.02575
4385.33773,0.01603
4387.26620,0.01884
4389.19467,0.02942
4391.12314,0.03012
4393.05161,0.02690
4394.98007,0.02635
4396.90854,0.02245
4398.83701,0.01785
4400.76548,0.01445
4402.69395,0.00981
4404.62242,0.00536
4406.55089,0.00273
4408.47935,0.00679
4410.40782,0.01847
4412.33629,0.02723
4414.26476,0.02428
4416.19323,0.01092
4418.12170,-0.00017
4420.05017,0.00078
4421.97864,0.00972
4423.90710,0.01910
4425.83557,0.02205
4427.76404,0.01869
4429.69251,0.01769
4431.62098,0.02154
4433.54945,0.02407
4435.47792,0.02312
4437.40638,0.02204
4439.33485,0.02453
4441.26332,0.02899
4443.19179,0.02638
4445.12026,0.01834
4447.04873,0.01592
4448.97720,0.01953
4450.90567,0.02047
4452.83413,0.01399
4454.76260,0.00337
4456.69107,-0.00576
4458.61954,-0.00641
4460.54801,0.00009
4462.47648,0.00643
4464.40495,0.01005
4466.33341,0.00741
4468.26188,0.00071
4470.19035,0.00094
4472.11882,0.00924
4474.04729,0.01577
4475.97576,0.01869
4477.90423,0.01830
4479.83270,0.01021
4481.76116,-0.00036
4483.68963,-0.00162
4485.61810,0.00413
4487.54657,0.00177
4489.47504,-0.00433
4491.40351,-0.00131
4493.33198,0.00244
4495.26044,-0.00130
4497.18891,-0.00576
4499.11738,-0.00620
4501.04585,-0.00723
4502.97432,-0.00698
4504.90279,-0.00164
4506.83126,-0.00133
4508.75973,-0.00510
4510.68819,-0.00097
4512.61666,0.00569
4514.54513,0.00902
4516.47360,0.00807
4518.40207,0.00361
4520.33054,0.00922
4522.25901,0.02686
4524.18747,0.03884
4526.11594,0.03373
4528.04441,0.01929
4529.97288,0.01199
4531.90135,0.01069
4533.82982,0.00667
4535.75829,0.00555
4537.68676,0.01169
4539.61522,0.01633
4541.54369,0.01475
4543.47216,0.01271
4545.40063,0.01078
4547.32910,0.00478
4549.25757,0.00212
4551.18604,0.00624
4553.11450,0.00203
4555.04297,-0.00825
4556.97144,-0.00209
4558.89991,0.01640
4560.82838,0.02275
4562.75685,0.01366
4564.68532,0.00122
4566.61378,-0.00830
4568.54225,-0.01423
4570.47072,-0.01802
4572.39919,-0.01646
4574.32766,-0.00597
4576.25613,0.00697
4578.18460,0.01130
4580.11307,0.00307
4582.04153,-0.00659
4583.97000,-0.00718
4585.89847,-0.00295
4587.82694,0.00271
4589.75541,0.01186
4591.68388,0.02060
4593.61235,0.02522
4595.54081,0.02766
4597.46928,0.02528
4599.39775,0.01539
4601.32622,0.00449
4603.25469,0.00202
4605.18316,0.00914
4607.11163,0.01218
4609.04010,0.00824
4610.96856,0.00572
4612.89703,0.00358
4614.82550,0.00321
4616.75397,0.00242
4618.68244,-0.00290
4620.61091,-0.00286
4622.53938,0.00290
4624.46784,0.00397
4626.39631,-0.00009
4628.32478,-0.00296
4630.25325,-0.00011
4632.18172,0.00598
4634.11019,0.01058
4636.03866,0.01199
4637.96713,0.00947
4639.89559,0.00497
4641.82406,0.00309
4643.75253,0.00697
4645.68100,0.01067
4647.60947,0.00517
4649.53794,-0.00175
4651.46641,-0.00043
4653.39487,0.00665
4655.32334,0.01975
4657.25181,0.03323
4659.18028,0.03119
4661.10875,0.01488
4663.03722,0.00465
4664.96569,0.00666
4666.89416,0.00828
4668.82262,0.00343
4670.75109,-0.00114
4672.67956,-0.00459
4674.60803,-0.00518
4676.53650,0.00564
4678.46497,0.01483
4680.39344,0.01028
4682.32190,0.00766
4684.25037,0.01070
4686.17884,0.00726
4688.10731,-0.00222
4690.03578,-0.01150
4691.96425,-0.01384
4693.89272,-0.00580
4695.82119,0.00521
4697.74965,0.01442
4699.67812,0.01565
4701.60659,0.00231
4703.53506,-0.01187
4705.46353,-0.01549
4707.39200,-0.00887
4709.32047,0.00825
4711.24893,0.02194
4713.17740,0.01999
4715.10587,0.01248
4717.03434,0.01094
4718.96281,0.01759
4720.89128,0.02454
4722.81975,0.02179
4724.74821,0.01136
4726.67668,0.00166
4728.60515,0.00154
4730.53362,0.00679
4732.46209,0.00444
4734.39056,-0.00217
4736.31903,-0.00407
4738.24750,0.00094
4740.17596,0.00941
4742.10443,0.01412
4744.03290,0.01414
4745.96137,0.00532
4747.88984,-0.01109
4749.81831,-0.01261
4751.74678,0.00296
4753.67524,0.00867
4755.60371,-0.00119
4757.53218,-0.00851
4759.46065,-0.00510
4761.38912,0.00231
4763.31759,0.00459
4765.24606,-0.00721
4767.17453,-0.02135
4769.10299,-0.00948
4771.03146,0.01227
4772.95993,0.00310
4774.88840,-0.02207
4776.81687,-0.02125
4778.74534,-0.00049
4780.67381,0.01132
4782.60227,0.01551
4784.53074,0.02070
4786.45921,0.02055
4788.38768,0.01358
4790.31615,0.01114
4792.24462,0.01411
4794.17309,0.01098
4796.10156,0.00234
4798.03002,-0.00173
4799.95849,0.00374
4801.88696,0.01211
4803.81543,0.01217
4805.74390,0.00548
4807.67237,0.00102
4809.60084,-0.00231
4811.52930,-0.00201
4813.45777,0.01322
4815.38624,0.03334
4817.31471,0.03301
4819.24318,0.00921
4821.17165,-0.01519
4823.10012,-0.02074
4825.02859,-0.00847
4826.95705,0.01195
4828.88552,0.02628
4830.81399,0.02564
4832.74246,0.01558
4834.67093,0.00668
4836.59940,0.00561
4838.52787,0.00522
4840.45633,-0.00302
4842.38480,-0.01252
4844.31327,-0.01651
4846.24174,-0.01393
4848.17021,0.00050
4850.09868,0.02274
4852.02715,0.03045
4853.95562,0.01687
4855.88408,0.00350
4857.81255,0.00162
4859.74102,0.00091
4861.66949,-0.00324
4863.59796,-0.00268
4865.52643,0.00691
4867.45490,0.01911
4869.38336,0.02694
4871.31183,0.03032
4873.24030,0.02990
4875.16877,0.02195
4877.09724,0.00129
4879.02571,-0.01721
4880.95418,-0.01228
4882.88265,0.00607
4884.81111,0.02475
4886.73958,0.03672
4888.66805,0.03384
4890.59652,0.02290
4892.52499,0.01215
4894.45346,0.00603
4896.38193,0.00722
4898.31039,0.01430
4900.23886,0.02147
4902.16733,0.01936
4904.09580,0.01192
4906.02427,0.01469
4907.95274,0.02545
4909.88121,0.02695
4911.80967,0.01830
4913.73814,0.01756
4915.66661,0.02449
4917.59508,0.01670
4919.52355,0.00023
4921.45202,-0.00191
4923.38049,-0.00127
4925.30896,-0.00527
4927.23742,0.00279
4929.16589,0.01572
4931.09436,0.01150
4933.02283,-0.00081
4934.95130,-0.00289
4936.87977,-0.00157
4938.80824,-0.00348
4940.73670,-0.00160
4942.66517,0.00742
4944.59364,0.01011
4946.52211,0.00091
4948.45058,0.00030
4950.37905,0.00950
4952.30752,0.01172
4954.23599,0.00471
4956.16445,-0.00405
4958.09292,-0.00689
4960.02139,-0.00358
4961.94986,0.00212
4963.87833,0.01336
4965.80680,0.02951
4967.73527,0.03113
4969.66373,0.01077
4971.59220,-0.00559
4973.52067,-0.00342
4975.44914,0.00171
4977.37761,0.00282
4979.30608,0.01199
4981.23455,0.02214
4983.16302,0.01521
4985.09148,0.00505
4987.01995,0.00041
4988.94842,-0.00414
4990.87689,0.00035
4992.80536,0.01079
4994.73383,0.01603
4996.66230,0.01823
4998.59076,0.01820
5000.51923,0.01722
5002.44770,0.01817
5004.37617,0.01539
5006.30464,0.01270
5008.23311,0.01226
5010.16158,0.00984
5012.09005,0.00766
5014.01851,-0.00074
5015.94698,-0.01550
5017.87545,-0.02327
5019.80392,-0.01536
5021.73239,-0.00163
5023.66086,-0.00068
5025.58933,-0.00358
5027.51779,0.01068
5029.44626,0.03181
5031.37473,0.03546
5033.30320,0.02238
5035.23167,0.00909
5037.16014,0.00154
5039.08861,-0.00670
5041.01708,-0.01603
5042.94554,-0.01745
5044.87401,-0.01241
5046.80248,-0.00830
5048.73095,-0.00584
5050.65942,-0.00195
5052.58789,0.00174
5054.51636,0.00208
5056.44482,-0.00047
5058.37329,-0.00851
5060.30176,-0.01816
5062.23023,-0.00721
5064.15870,0.02176
5066.08717,0.03519
5068.01564,0.02468
5069.94410,0.01392
5071.87257,0.01558
5073.80104,0.01195
5075.72951,-0.00561
5077.65798,-0.01265
5079.58645,-0.00368
5081.51492,0.00474
5083.44339,0.01394
5085.37185,0.02692
5087.30032,0.03445
5089.22879,0.04258
5091.15726,0.04937
5093.08573,0.03441
5095.01420,0.00618
5096.94267,-0.01234
5098.87113,-0.00826
5100.79960,0.00877
5102.72807,0.01644
5104.65654,0.01752
5106.58501,0.02371
5108.51348,0.02798
5110.44195,0.01916
5112.37042,0.00660
5114.29888,0.00658
5116.22735,0.02037
5118.15582,0.03812
5120.08429,0.04669
5122.01276,0.04599
5123.94123,0.04069
5125.86970,0.02404
5127.79816,0.00376
5129.72663,-0.00308
5131.65510,-0.00461
5133.58357,-0.01472
5135.51204,-0.01898
5137.44051,-0.00857
5139.36898,0.00136
5141.29745,-0.00200
5143.22591,-0.03049
5145.15438,-0.06364
5147.08285,-0.05702
5149.01132,-0.02438
5150.93979,-0.01275
5152.86826,-0.02347
5154.79673,-0.01799
5156.72519,0.02152
5158.65366,0.05520
5160.58213,0.05006
5162.51060,0.02314
5164.43907,0.00710
5166.36754,0.01205
5168.29601,0.01942
5170.22448,0.01286
5172.15294,0.01606
5174.08141,0.04397
5176.00988,0.06843
5177.93835,0.08471
5179.86682,0.09370
5181.79529,0.07338
5183.72376,0.03910
5185.65222,0.02487
5187.58069,0.02670
5189.50916,0.02209
5191.43763,0.00269
5193.36610,-0.01381
5195.29457,-0.00229
5197.22304,0.02751
5199.15151,0.04432
5201.07997,0.04308
5203.00844,0.03393
5204.93691,0.02107
5206.86538,0.00761
5208.79385,-0.00128
5210.72232,0.00312
5212.65079,0.01833
5214.57925,0.02894
5216.50772,0.02479
5218.43619,0.02031
5220.36466,0.03142
5222.29313,0.04193
5224.22160,0.03953
5226.15007,0.02788
5228.07854,0.00979
5230.00700,-0.00638
5231.93547,-0.00036
5233.86394,0.01683
5235.79241,0.00841
5237.72088,-0.00584
5239.64935,0.00686
5241.57782,0.02945
5243.50628,0.04136
5245.43475,0.05020
5247.36322,0.06173
5249.29169,0.06143
5251.22016,0.04798
5253.14863,0.03582
5255.07710,0.02145
5257.00556,0.00133
5258.93403,0.00527
5260.86250,0.03543
5262.79097,0.05507
5264.71944,0.06051
5266.64791,0.06351
5268.57638,0.05692
5270.50485,0.02872
5272.43331,0.00358
5274.36178,0.01657
5276.29025,0.04144
5278.21872,0.04096
5280.14719,0.03043
5282.07566,0.02811
5284.00413,0.02559
5285.93259,0.03032
5287.86106,0.04045
5289.78953,0.03521
5291.71800,0.02097
5293.64647,0.01838
5295.57494,0.03117
5297.50341,0.05113
5299.43188,0.07540
5301.36034,0.08893
5303.28881,0.06890
5305.21728,0.03429
5307.14575,0.01424
5309.07422,0.00231
5311.00269,-0.00711
5312.93116,0.00259
5314.85962,0.03065
5316.78809,0.05724
5318.71656,0.06392
5320.64503,0.05317
5322.57350,0.05103
5324.50197,0.06704
5326.43044,0.07993
5328.35891,0.07010
5330.28737,0.05429
5332.21584,0.05007
5334.14431,0.04539
5336.07278,0.03568
5338.00125,0.03038
5339.92972,0.02644
5341.85819,0.01913
5343.78665,0.01842
5345.71512,0.03980
5347.64359,0.06721
5349.57206,0.07934
5351.50053,0.08870
5353.42900,0.09312
5355.35747,0.07472
5357.28594,0.05554
5359.21440,0.04922
5361.14287,0.04843
5363.07134,0.05163
5364.99981,0.05744
5366.92828,0.05091
5368.85675,0.02453
5370.78522,0.00251
5372.71368,0.01395
5374.64215,0.05243
5376.57062,0.07442
5378.49909,0.06524
5380.42756,0.06347
5382.35603,0.06964
5384.28450,0.06068
5386.21297,0.05475
5388.14143,0.05219
5390.06990,0.03749
5391.99837,0.03572
5393.92684,0.04902
5395.85531,0.05078
5397.78378,0.04326
5399.71225,0.04601
5401.64071,0.05155
5403.56918,0.03992
5405.49765,0.02705
5407.42612,0.03464
5409.35459,0.06415
5411.28306,0.08441
5413.21153,0.06044
5415.13999,0.03627
5417.06846,0.03592
5418.99693,0.03203
5420.92540,0.04835
5422.85387,0.09197
5424.78234,0.10461
5426.71081,0.08382
5428.63928,0.06766
5430.56774,0.04975
5432.49621,0.03943
5434.42468,0.05539
5436.35315,0.06659
5438.28162,0.05881
5440.21009,0.05430
5442.13856,0.05231
5444.06702,0.05291
5445.99549,0.05969
5447.92396,0.05243
5449.85243,0.04312
5451.78090,0.06359
5453.70937,0.09327
5455.63784,0.09363
5457.56631,0.07123
5459.49477,0.05571
5461.42324,0.06053
5463.35171,0.08482
5465.28018,0.09326
5467.20865,0.08132
5469.13712,0.08212
5471.06559,0.09768
5472.99405,0.10021
5474.92252,0.06634
5476.85099,0.02817
5478.77946,0.02514
5480.70793,0.03691
5482.63640,0.04555
5484.56487,0.04428
5486.49334,0.03005
5488.42180,0.02428
5490.35027,0.03901
5492.27874,0.04880
5494.20721,0.04247
5496.13568,0.02835
5498.06415,0.02137
5499.99262,0.03216
5501.92108,0.03727
5503.84955,0.03655
5505.77802,0.05416
5507.70649,0.07698
5509.63496,0.07824
5511.56343,0.07103
5513.49190,0.08083
5515.42037,0.09630
5517.34883,0.09855
5519.27730,0.08085
5521.20577,0.05432
5523.13424,0.05224
5525.06271,0.07282
5526.99118,0.08570
5528.91965,0.08036
5530.84811,0.05656
5532.77658,0.03467
5534.70505,0.04345
5536.63352,0.06908
5538.56199,0.07853
5540.49046,0.07575
5542.41893,0.07157
5544.34740,0.06847
5546.27586,0.06660
5548.20433,0.06281
5550.13280,0.07050
5552.06127,0.08898
5553.98974,0.09176
5555.91821,0.07449
5557.84668,0.06828
5559.77514,0.07567
5561.70361,0.06747
5563.63208,0.04747
5565.56055,0.04113
5567.48902,0.07197
5569.41749,0.11747
5571.34596,0.12248
5573.27443,0.09464
5575.20289,0.07717
5577.13136,0.06580
5579.05983,0.05275
5580.98830,0.06762
5582.91677,0.11375
5584.84524,0.14302
5586.77371,0.11844
5588.70217,0.08290
5590.63064,0.09827
5592.55911,0.11874
5594.48758,0.09522
5596.41605,0.06163
5598.34452,0.04889
5600.27299,0.03838
5602.20145,0.01616
5604.12992,0.00514
5606.05839,0.01858
5607.98686,0.04554
5609.91533,0.07016
5611.84380,0.07516
5613.77227,0.05547
5615.70074,0.05011
5617.62920,0.10413
5619.55767,0.18332
5621.48614,0.20684
5623.41461,0.16525
5625.34308,0.11266
5627.27155,0.09006
5629.20002,0.09433
5631.12848,0.08859
5633.05695,0.06893
5634.98542,0.06236
5636.91389,0.07403
5638.84236,0.08020
5640.77083,0.06093
5642.69930,0.03637
5644.62777,0.02851
5646.55623,0.03395
5648.48470,0.03660
5650.41317,0.02250
5652.34164,0.01715
5654.27011,0.04955
5656.19858,0.08581
5658.12705,0.08840
5660.05551,0.07868
5661.98398,0.06324
5663.91245,0.03836
5665.84092,0.04656
5667.76939,0.07498
5669.69786,0.07788
5671.62633,0.07040
5673.55480,0.05698
5675.48326,0.03863
5677.41173,0.05858
5679.34020,0.10615
5681.26867,0.13206
5683.19714,0.13153
5685.12561,0.12277
5687.05408,0.11669
5688.98254,0.10206
5690.91101,0.07433
5692.83948,0.06051
5694.76795,0.06137
5696.69642,0.05632
5698.62489,0.06541
5700.55336,0.09307
5702.48183,0.10503
5704.41029,0.10470
5706.33876,0.09934
5708.26723,0.07011
5710.19570,0.03910
5712.12417,0.05415
5714.05264,0.09969
5715.98111,0.11080
5717.90957,0.06660
5719.83804,0.02254
5721.76651,0.02871
5723.69498,0.05688
5725.62345,0.07672
5727.55192,0.09460
5729.48039,0.10415
5731.40886,0.09886
5733.33732,0.08573
5735.26579,0.05604
5737.19426,0.01371
5739.12273,0.00420
5741.05120,0.03744
5742.97967,0.06787
5744.90814,0.06616
5746.83660,0.05384
5748.76507,0.07145
5750.69354,0.11066
5752.62201,0.14946
5754.55048,0.16952
5756.47895,0.14065
5758.40742,0.08835
5760.33588,0.03694
5762.26435,0.00559
5764.19282,0.00789
5766.12129,-0.00738
5768.04976,-0.03217
5769.97823,-0.00633
5771.90670,0.04512
5773.83517,0.04061
5775.76363,0.00310
5777.69210,0.03313
5779.62057,0.09705
5781.54904,0.09836
5783.47751,0.06494
5785.40598,0.04635
5787.33445,0.02720
5789.26291,0.02180
5791.19138,0.04734
5793.11985,0.05455
5795.04832,0.04137
5796.97679,0.05128
5798.90526,0.07409
5800.83373,0.07921
5802.76220,0.06911
5804.69066,0.07765
5806.61913,0.10087
5808.54760,0.09874
5810.47607,0.09178
5812.40454,0.09652
5814.33301,0.09842
5816.26148,0.10583
5818.18994,0.09215
5820.11841,0.05748
5822.04688,0.05444
5823.97535,0.07190
5825.90382,0.06684
5827.83229,0.03537
5829.76076,0.02126
5831.68923,0.03134
5833.61769,0.03406
5835.54616,0.04378
5837.47463,0.06366
5839.40310,0.07474
5841.33157,0.08108
5843.26004,0.08043
5845.18851,0.07169
5847.11697,0.07237
5849.04544,0.09385
5850.97391,0.11694
5852.90238,0.09860
5854.83085,0.06350
5856.75932,0.07374
5858.68779,0.11018
5860.61626,0.13231
5862.54472,0.14948
5864.47319,0.16056
5866.40166,0.12579
5868.33013,0.05914
5870.25860,0.02326
5872.18707,0.01727
5874.11554,0.02921
5876.04400,0.08691
5877.97247,0.15368
5879.90094,0.16568
5881.82941,0.13723
5883.75788,0.09701
5885.68635,0.09213
5887.61482,0.13459
5889.54329,0.15535
5891.47175,0.15128
5893.40022,0.15260
5895.32869,0.13837
5897.25716,0.09828
5899.18563,0.06641
5901.11410,0.06793
5903.04257,0.08781
5904.97103,0.10059
5906.89950,0.08862
5908.82797,0.06994
5910.75644,0.07161
5912.68491,0.06880
5914.61338,0.06326
5916.54185,0.09331
5918.47032,0.10813
5920.39878,0.06666
5922.32725,0.03997
5924.25572,0.05542
5926.18419,0.07340
5928.11266,0.07510
5930.04113,0.06506
5931.96960,0.05128
5933.89806,0.04870
5935.82653,0.05099
5937.75500,0.03480
5939.68347,0.02044
5941.61194,0.01888
5943.54041,0.02352
5945.46888,0.04531
5947.39734,0.07770
5949.32581,0.11171
5951.25428,0.11087
5953.18275,0.05157
5955.11122,0.02474
5957.03969,0.06890
5958.96816,0.09610
5960.89663,0.08760
5962.82509,0.08636
5964.75356,0.07408
5966.68203,0.04639
5968.61050,0.05684
5970.53897,0.11456
5972.46744,0.14085
5974.39591,0.09623
5976.32437,0.03188
5978.25284,-0.00444
5980.18131,0.01002
5982.10978,0.07489
5984.03825,0.13102
5985.96672,0.11695
5987.89519,0.07153
5989.82366,0.05956
5991.75212,0.06476
5993.68059,0.06179
5995.60906,0.08162
5997.53753,0.12680
5999.46600,0.13776
6001.39447,0.10543
6003.32294,0.08265
6005.25140,0.09060
6007.17987,0.08881
6009.10834,0.07473
6011.03681,0.08395
6012.96528,0.08734
6014.89375,0.06293
6016.82222,0.04162
6018.75069,0.02589
6020.67915,0.00399
6022.60762,-0.01070
6024.53609,-0.01226
6026.46456,-0.00581
6028.39303,0.03329
6030.32150,0.08756
6032.24997,0.10119
6034.17843,0.09614
6036.10690,0.09257
6038.03537,0.08250
6039.96384,0.05909
6041.89231,0.02614
6043.82078,0.03356
6045.74925,0.07820
6047.67772,0.10867
6049.60618,0.09714
6051.53465,0.05126
6053.46312,0.01638
6055.39159,0.00627
6057.32006,-0.00134
6059.24853,0.00271
6061.17700,0.01619
6063.10546,0.01587
6065.03393,0.00841
6066.96240,0.00997
6068.89087,0.03893
6070.81934,0.07532
6072.74781,0.05716
6074.67628,0.01889
6076.60475,0.03949
6078.53321,0.08335
6080.46168,0.10316
6082.39015,0.09638
6084.31862,0.06534
6086.24709,0.04510
6088.17556,0.02636
6090.10403,-0.01367
6092.03249,-0.01046
6093.96096,0.04440
6095.88943,0.07167
6097.81790,0.04633
6099.74637,0.02204
6101.67484,0.04740
6103.60331,0.05017
6105.53177,-0.00384
6107.46024,0.00540
6109.38871,0.07915
6111.31718,0.08756
6113.24565,0.03632
6115.17412,0.00000
6117.10259,0.01392
6119.03106,0.06451
6120.95952,0.08986
6122.88799,0.07702
6124.81646,0.06826
6126.74493,0.07182
6128.67340,0.07183
6130.60187,0.07026
6132.53034,0.07129
6134.45880,0.09056
6136.38727,0.12444
6138.31574,0.11053
6140.24421,0.04012
6142.17268,0.03421
6144.10115,0.09427
6146.02962,0.09466
6147.95809,0.08782
6149.88655,0.11727
6151.81502,0.10239
6153.74349,0.07254
6155.67196,0.09126
6157.60043,0.10116
6159.52890,0.06954
6161.45737,0.03675
6163.38583,0.03042
6165.31430,0.03712
6167.24277,0.05698
6169.17124,0.11187
6171.09971,0.16139
6173.02818,0.14894
6174.95665,0.10665
6176.88512,0.08136
6178.81358,0.08733
6180.74205,0.09857
6182.67052,0.08226
6184.59899,0.05448
6186.52746,0.01779
6188.45593,-0.00033
6190.38440,0.04951
6192.31286,0.06245
6194.24133,-0.00154
6196.16980,0.01347
6198.09827,0.10456
6200.02674,0.12454
6201.95521,0.07703
6203.88368,0.02571
6205.81215,0.00833
6207.74061,0.03788
6209.66908,0.07240
6211.59755,0.06549
6213.52602,0.05336
6215.45449,0.06359
6217.38296,0.04915
6219.31143,0.00009
6221.23989,-0.04407
6223.16836,-0.05183
6225.09683,0.00689
6227.02530,0.10606
6228.95377,0.16251
6230.88224,0.14732
6232.81071,0.09312
6234.73918,0.03288
6236.66764,-0.00006
6238.59611,-0.00143
6240.52458,-0.00221
6242.45305,0.01517
6244.38152,0.10470
6246.30999,0.19609
6248.23846,0.16880
6250.16692,0.08560
6252.09539,0.03425
6254.02386,-0.01237
6255.95233,-0.01644
6257.88080,0.03189
6259.80927,0.04011
6261.73774,0.01702
6263.66621,0.04433
6265.59467,0.09514
6267.52314,0.11660
6269.45161,0.15011
6271.38008,0.20051
6273.30855,0.22490
6275.23702,0.21030
6277.16549,0.17100
6279.09395,0.09410
6281.02242,0.00676
6282.95089,0.01114
6284.87936,0.08824
6286.80783,0.11616
6288.73630,0.08449
6290.66477,0.06038
6292.59323,0.09591
6294.52170,0.12866
6296.45017,0.07807
6298.37864,0.03578
6300.30711,0.10615
6302.23558,0.20161
6304.16405,0.20813
6306.09252,0.16685
6308.02098,0.12562
6309.94945,0.09132
6311.87792,0.05594
6313.80639,0.02717
6315.73486,0.03192
6317.66333,0.04679
6319.59180,0.03646
6321.52026,0.02803
6323.44873,0.06884
6325.37720,0.09832
6327.30567,0.05473
6329.23414,0.03681
6331.16261,0.11034
6333.09108,0.14423
6335.01955,0.05640
6336.94801,-0.02355
6338.87648,0.00530
6340.80495,0.05902
6342.73342,0.07568
6344.66189,0.09108
6346.59036,0.08792
6348.51883,0.02767
6350.44729,-0.03767
6352.37576,-0.04717
6354.30423,-0.01530
6356.23270,0.03346
6358.16117,0.07487
6360.08964,0.08262
6362.01811,0.09259
6363.94658,0.12399
6365.87504,0.12145
6367.80351,0.09889
6369.73198,0.10675
6371.66045,0.09163
6373.58892,0.00505
6375.51739,-0.05137
6377.44586,-0.03037
6379.37432,-0.03335
6381.30279,-0.04798
6383.23126,0.03790
6385.15973,0.15789
6387.08820,0.17858
6389.01667,0.12733
6390.94514,0.05329
6392.87361,0.02904
6394.80207,0.07656
6396.73054,0.07732
6398.65901,0.05190
6400.58748,0.04973
6402.51595,0.03303
6404.44442,0.04005
6406.37289,0.08218
6408.30135,0.12119
6410.22982,0.18524
6412.15829,0.23450
6414.08676,0.19839
6416.01523,0.11911
6417.94370,0.06597
6419.87217,0.05155
6421.80064,0.02012
6423.72910,-0.02563
6425.65757,-0.01562
6427.58604,0.06995
6429.51451,0.17423
6431.44298,0.18185
6433.37145,0.07235
6435.29992,-0.00130
6437.22838,0.03218
6439.15685,0.07271
6441.08532,0.06951
6443.01379,0.07583
6444.94226,0.08877
6446.87073,0.08857
6448.79920,0.07872
6450.72766,0.04467
6452.65613,0.00445
6454.58460,-0.01292
6456.51307,-0.00881
6458.44154,0.01299
6460.37001,0.04336
6462.29848,0.06212
6464.22695,0.04687
6466.15541,0.04281
6468.08388,0.09853
6470.01235,0.14914
6471.94082,0.16452
6473.86929,0.18483
6475.79776,0.20500
6477.72623,0.17860
6479.65469,0.09386
6481.58316,0.01191
6483.51163,-0.03451
6485.44010,-0.04000
6487.36857,-0.01009
6489.29704,0.02194
6491.22551,0.03568
6493.15398,0.04728
6495.08244,0.06452
6497.01091,0.04287
6498.93938,0.00936
6500.86785,0.01186
6502.79632,-0.01604
6504.72479,-0.05331
6506.65326,-0.01877
6508.58172,0.01717
6510.51019,-0.01399
6512.43866,-0.01646
6514.36713,0.05947
6516.29560,0.11465
6518.22407,0.13736
6520.15254,0.16699
6522.08101,0.15767
6524.00947,0.07266
6525.93794,-0.04825
6527.86641,-0.11719
6529.79488,-0.09975
6531.72335,-0.02469
6533.65182,0.07061
6535.58029,0.13291
6537.50875,0.12178
6539.43722,0.07502
6541.36569,0.06423
6543.29416,0.06786
6545.22263,0.05813
6547.15110,0.06670
6549.07957,0.08455
6551.00804,0.07982
6552.93650,0.03542
6554.86497,-0.01326
6556.79344,-0.00744
6558.72191,0.02965
6560.65038,0.04040
6562.57885,0.01584
6564.50732,-0.01806
6566.43578,-0.01837
6568.36425,0.01645
6570.29272,0.06740
6572.22119,0.13712
6574.14966,0.15371
6576.07813,0.08633
6578.00660,0.07405
6579.93507,0.17299
6581.86353,0.23357
6583.79200,0.17356
6585.72047,0.03544
6587.64894,-0.08178
6589.57741,-0.08573
6591.50588,-0.03075
6593.43435,0.02957
6595.36281,0.07529
6597.29128,0.06842
6599.21975,0.06407
6601.14822,0.11334
6603.07669,0.12427
6605.00516,0.02744
6606.93363,-0.05962
6608.86210,-0.03494
6610.79056,0.03535
6612.71903,0.05447
6614.64750,0.02482
6616.57597,0.01050
6618.50444,0.00336
6620.43291,0.00453
6622.36138,0.00157
6624.28984,-0.06733
6626.21831,-0.15461
6628.14678,-0.12992
6630.07525,0.04598
6632.00372,0.13944
6633.93219,0.02126
6635.86066,-0.09049
6637.78912,-0.00463
6639.71759,0.14216
6641.64606,0.18369
6643.57453,0.10985
6645.50300,0.06357
6647.43147,0.10994
6649.35994,0.12499
6651.28841,0.07111
6653.21687,0.01650
6655.14534,0.02701
6657.07381,0.06715
6659.00228,-0.00463
6660.93075,-0.10673
6662.85922,-0.05073
6664.78769,0.07667
6666.71615,0.09566
6668.64462,0.02503
6670.57309,-0.00066
6672.50156,0.02906
6674.43003,0.03112
6676.35850,-0.02878
6678.28697,-0.07578
6680.21544,-0.00679
6682.14390,0.14051
6684.07237,0.22087
6686.00084,0.20454
6687.92931,0.16324
6689.85778,0.09237
6691.78625,0.01249
6693.71472,0.01849
6695.64318,0.11138
6697.57165,0.18398
6699.50012,0.21030
6701.42859,0.22930
6703.35706,0.20465
6705.28553,0.17477
6707.21400,0.21740
6709.14247,0.25307
6711.07093,0.19371
6712.99940,0.07521
6714.92787,-0.00883
6716.85634,-0.02874
6718.78481,-0.05306
6720.71328,-0.06113
6722.64175,-0.00942
6724.57021,0.04285
6726.49868,0.00866
6728.42715,-0.07598
6730.35562,-0.08304
6732.28409,-0.04298
6734.21256,-0.04523
6736.14103,-0.05821
6738.06950,0.01069
6739.99796,0.16659
6741.92643,0.24464
6743.85490,0.17865
6745.78337,0.08676
6747.71184,0.01084
6749.64031,-0.03608
6751.56878,-0.01978
6753.49724,0.02167
6755.42571,0.03830
6757.35418,0.03634
6759.28265,0.04941
6761.21112,0.11938
6763.13959,0.14165
6765.06806,0.02858
6766.99653,-0.09863
6768.92499,-0.09216
6770.85346,-0.00073
6772.78193,0.06651
6774.71040,0.12000
6776.63887,0.16908
6778.56734,0.19193
6780.49581,0.17126
6782.42427,0.13273
6784.35274,0.14694
6786.28121,0.18153
6788.20968,0.11148
6790.13815,-0.09240
6792.06662,-0.18842
6793.99509,-0.10475
6795.92355,-0.07005
6797.85202,-0.08071
6799.78049,-0.05360
6801.70896,0.03947
6803.63743,0.17063
6805.56590,0.17220
6807.49437,0.06929
6809.42284,-0.00804
6811.35130,-0.04855
6813.27977,-0.04535
6815.20824,-0.02400
6817.13671,0.00378
6819.06518,0.05414
6820.99365,0.08168
6822.92212,0.05291
6824.85058,0.04101
6826.77905,0.12162
6828.70752,0.17421
6830.63599,0.06589
6832.56446,0.00270
6834.49293,0.07919
6836.42140,0.12966
6838.34987,0.11457
6840.27833,0.05539
6842.20680,-0.01676
6844.13527,-0.00568
6846.06374,0.07994
6847.99221,0.16094
6849.92068,0.14634
6851.84915,0.08912
6853.77761,0.07328
6855.70608,0.03396
6857.63455,-0.00612
6859.56302,0.05115
6861.49149,0.16416
6863.41996,0.20986
6865.34843,0.10502
6867.27690,-0.06671
6869.20536,-0.11154
6871.13383,-0.04372
6873.06230,0.01892
6874.99077,0.06401
6876.91924,0.11850
6878.84771,0.13565
6880.77618,0.03923
6882.70464,-0.08473
6884.63311,-0.09048
6886.56158,-0.01008
6888.49005,0.03551
6890.41852,0.01076
6892.34699,-0.05442
6894.27546,-0.07319
6896.20393,-0.06360
6898.13239,-0.07948
6900.06086,-0.04899
6901.98933,-0.02881
6903.91780,-0.10821
6905.84627,-0.14057
6907.77474,-0.02919
6909.70321,0.03424
6911.63167,-0.00766
6913.56014,-0.03787
6915.48861,0.00194
6917.41708,0.07617
6919.34555,0.09661
6921.27402,0.11159
6923.20249,0.19387
6925.13096,0.19376
6927.05942,0.09873
6928.98789,0.03435
6930.91636,0.03969
6932.84483,0.07224
6934.77330,0.09360
6936.70177,0.12045
6938.63024,0.12938
6940.55870,0.06733
6942.48717,0.00355
6944.41564,0.02879
6946.34411,0.10545
6948.27258,0.10795
6950.20105,0.06209
6952.12952,0.10558
6954.05799,0.19432
6955.98645,0.16577
6957.91492,0.10789
6959.84339,0.13719
6961.77186,0.13273
6963.70033,0.05230
6965.62880,0.03052
6967.55727,0.13826
6969.48573,0.25870
6971.41420,0.26952
6973.34267,0.21081
6975.27114,0.16664
6977.19961,0.17423
6979.12808,0.15300
6981.05655,0.04197
6982.98501,-0.08704
6984.91348,-0.11544
6986.84195,-0.03689
6988.77042,0.00643
6990.69889,-0.04588
6992.62736,-0.05353
6994.55583,0.04269
6996.48430,0.09838
6998.41276,0.02626
7000.34123,-0.06769
7002.26970,-0.16401
7004.19817,-0.17477
7006.12664,-0.01157
7008.05511,0.07238
7009.98358,-0.01208
7011.91204,-0.07709
7013.84051,-0.08663
7015.76898,-0.07200
7017.69745,0.02126
7019.62592,0.14948
7021.55439,0.16528
7023.48286,0.11329
7025.41133,0.09967
7027.33979,0.05760
7029.26826,-0.02372
7031.19673,-0.07786
7033.12520,-0.06937
7035.05367,0.01994
7036.98214,0.10162
7038.91061,0.16581
7040.83907,0.22193
7042.76754,0.13462
7044.69601,-0.06124
7046.62448,-0.08026
7048.55295,0.07151
7050.48142,0.16585
7052.40989,0.07975
7054.33836,-0.09713
7056.26682,-0.06304
7058.19529,0.17053
7060.12376,0.24872
7062.05223,0.22488
7063.98070,0.22677
7065.90917,0.14147
7067.83764,0.01469
7069.76610,0.02320
7071.69457,0.12974
7073.62304,0.20771
7075.55151,0.24080
7077.47998,0.25880
7079.40845,0.26981
7081.33692,0.18746
7083.26539,0.05495
7085.19385,0.00375
7087.12232,0.01478
7089.05079,0.09884
7090.97926,0.20447
7092.90773,0.16932
7094.83620,-0.06993
7096.76467,-0.32781
7098.69313,-0.31602
7100.62160,-0.12098
7102.55007,-0.05012
7104.47854,-0.11170
7106.40701,-0.16300
7108.33548,-0.12165
7110.26395,-0.03396
7112.19242,0.05989
7114.12088,0.04459
7116.04935,-0.07619
7117.97782,-0.11012
7119.90629,-0.06807
7121.83476,-0.02122
7123.76323,0.03398
7125.69170,0.06518
7127.62016,0.09580
7129.54863,0.08313
7131.47710,0.02219
7133.40557,0.04114
7135.33404,0.13979
7137.26251,0.17998
7139.19098,0.13507
7141.11944,0.09802
7143.04791,0.20947
7144.97638,0.37467
7146.90485,0.24753
7148.83332,0.00323
7150.76179,-0.06607
7152.69026,-0.04969
7154.61873,-0.08022
7156.54719,-0.06198
7158.47566,0.13868
7160.40413,0.39328
7162.33260,0.37848
7164.26107,0.07181
7166.18954,-0.14973
7168.11801,-0.04325
7170.04647,0.24155
7171.97494,0.36169
7173.90341,0.22249
7175.83188,0.00862
7177.76035,-0.02516
7179.68882,0.18795
7181.61729,0.40605
7183.54576,0.48239
7185.47422,0.39379
7187.40269,0.19563
7189.33116,0.06890
7191.25963,-0.01116
7193.18810,-0.20719
7195.11657,-0.32558
7197.04504,-0.20067
7198.97350,-0.01090
7200.90197,0.08550
7202.83044,0.06205
7204.75891,-0.14851
7206.68738,-0.29172
7208.61585,-0.13662
7210.54432,0.06692
7212.47279,0.11375
7214.40125,0.07111
7216.32972,0.01180
7218.25819,-0.03579
7220.18666,0.06700
7222.11513,0.17749
7224.04360,0.16103
7225.97207,0.15430
7227.90053,0.19269
7229.82900,0.18857
7231.75747,0.13468
7233.68594,0.06005
7235.61441,0.06984
7237.54288,0.08948
7239.47135,0.04265
7241.39982,0.02499
7243.32828,0.08067
7245.25675,0.16747
7247.18522,0.15477
7249.11369,0.03325
7251.04216,-0.07786
7252.97063,-0.08950
7254.89910,0.00365
7256.82756,0.06989
7258.75603,0.06405
7260.68450,0.04408
7262.61297,0.05003
7264.54144,0.05810
7266.46991,0.12297
7268.39838,0.15698
7270.32685,0.00545
7272.25531,-0.15246
7274.18378,-0.06574
7276.11225,0.03344
7278.04072,0.04353
7279.96919,0.06108
7281.89766,0.11492
7283.82613,0.13023
7285.75459,0.13963
7287.68306,0.18333
7289.61153,0.30137
7291.54000,0.44950
7293.46847,0.47984
7295.39694,0.46309
7297.32541,0.39597
7299.25387,0.20218
7301.18234,0.05151
7303.11081,0.07493
7305.03928,0.18354
7306.96775,0.27909
7308.89622,0.32146
7310.82469,0.24759
7312.75316,0.11546
7314.68162,0.00285
7316.61009,-0.05548
7318.53856,-0.03286
7320.46703,-0.04723
7322.39550,-0.18216
7324.32397,-0.28090
7326.25244,-0.16536
7328.18090,0.09022
7330.10937,0.27727
7332.03784,0.34154
7333.96631,0.24796
7335.89478,0.01288
7337.82325,-0.17143
7339.75172,-0.19448
7341.68019,0.00116
7343.60865,0.29412
7345.53712,0.36722
7347.46559,0.17536
7349.39406,0.13163
7351.32253,0.20831
7353.25100,0.08946
7355.17947,-0.06684
7357.10793,0.10223
7359.03640,0.45228
7360.96487,0.43829
7362.89334,0.27643
7364.82181,0.29100
7366.75028,0.32105
7368.67875,0.34023
7370.60722,0.43112
7372.53568,0.40573
7374.46415,0.09283
7376.39262,-0.17977
7378.32109,-0.04938
7380.24956,0.20500
7382.17803,0.32208
7384.10650,0.30915
7386.03496,0.31517
7387.96343,0.22911
7389.89190,0.02258
7391.82037,-0.13795
7393.74884,-0.23029
7395.67731,-0.33531
7397.60578,-0.34791
7399.53425,-0.15888
7401.46271,-0.04570
7403.39118,-0.18563
7405.31965,-0.27795
7407.24812,-0.15706
7409.17659,0.04798
7411.10506,0.25968
7413.03353,0.35582
7414.96199,0.29677
7416.89046,0.21275
7418.81893,0.23023
7420.74740,0.20016
7422.67587,0.07842
7424.60434,0.00066
7426.53281,0.01921
7428.46128,0.07860
7430.38974,0.09430
7432.31821,0.12369
7434.24668,0.17430
7436.17515,0.16489
7438.10362,0.13263
7440.03209,0.12899
7441.96056,0.10848
7443.88902,0.00022
7445.81749,-0.10703
7447.74596,-0.08647
7449.67443,0.00959
7451.60290,0.13408
7453.53137,0.24912
7455.45984,0.26217
7457.38831,0.25078
7459.31677,0.28645
7461.24524,0.21439
7463.17371,-0.02116
7465.10218,-0.18460
7467.03065,-0.13726
7468.95912,0.01046
7470.88759,0.12713
7472.81605,0.17667
7474.74452,0.19980
7476.67299,0.13602
7478.60146,-0.01713
7480.52993,-0.09164
7482.45840,-0.00132
7484.38687,0.15843
7486.31533,0.22648
7488.24380,0.10686
7490.17227,-0.10144
7492.10074,-0.17666
7494.02921,-0.10433
7495.95768,-0.01008
7497.88615,0.03143
