399.19301,3.21445
401.12148,0.58159
403.04995,-0.52972
404.97842,-0.59888
406.90689,-0.19388
408.83536,0.05223
410.76382,0.09147
412.69229,0.20124
414.62076,0.24332
416.54923,0.13625
418.47770,0.10794
420.40617,0.20847
422.33464,0.26820
424.26311,0.26003
426.19157,0.18061
428.12004,0.10407
430.04851,0.06969
431.97698,0.03371
433.90545,-0.03338
435.83392,-0.11304
437.76239,-0.17691
439.69085,-0.16583
441.61932,-0.07928
443.54779,-0.01767
445.47626,0.01866
447.40473,0.11376
449.33320,0.22097
451.26167,0.24235
453.19013,0.15502
455.11860,0.01154
457.04707,-0.03535
458.97554,0.03312
460.90401,0.05144
462.83248,0.05044
464.76095,0.03613
466.68942,-0.04620
468.61788,-0.06993
470.54635,0.03144
472.47482,0.17362
474.40329,0.21279
476.33176,0.14037
478.26023,0.07109
480.18870,0.01187
482.11716,0.00304
484.04563,0.06327
485.97410,0.09666
487.90257,0.06401
489.83104,0.04620
491.75951,0.07327
493.68798,0.09076
495.61645,0.08780
497.54491,0.09911
499.47338,0.12840
501.40185,0.14825
503.33032,0.14893
505.25879,0.15331
507.18726,0.15088
509.11573,0.11520
511.04419,0.07250
512.97266,0.06612
514.90113,0.08548
516.82960,0.08013
518.75807,0.06670
520.68654,0.06590
522.61501,0.05252
524.54348,0.06570
526.47194,0.11382
528.40041,0.11547
530.32888,0.06561
532.25735,0.03243
534.18582,0.05565
536.11429,0.07864
538.04276,0.05282
539.97122,0.01891
541.89969,0.00360
543.82816,-0.00840
545.75663,-0.00714
547.68510,0.02798
549.61357,0.21583
551.54204,0.83061
553.47051,1.43095
555.39897,1.16007
557.32744,0.40567
559.25591,0.07278
561.18438,0.07625
563.11285,0.08870
565.04132,0.08700
566.96979,0.11085
568.89825,0.15005
570.82672,0.16012
572.75519,0.12916
574.68366,0.08481
576.61213,0.05983
578.54060,0.05759
580.46907,0.07193
582.39754,0.07690
584.32600,0.06260
586.25447,0.05454
588.18294,0.06011
590.11141,0.05636
592.03988,0.03162
593.96835,0.01717
595.89682,0.02674
597.82528,0.04820
599.75375,0.07552
601.68222,0.10661
603.61069,0.12955
605.53916,0.13557
607.46763,0.13218
609.39610,0.11249
611.32456,0.08243
613.25303,0.06185
615.18150,0.05396
617.10997,0.06225
619.03844,0.07982
620.96691,0.08034
622.89538,0.06439
624.82385,0.06770
626.75231,0.09334
628.68078,0.10465
630.60925,0.09442
632.53772,0.08053
634.46619,0.06763
636.39466,0.05776
638.32313,0.05299
640.25159,0.05817
642.18006,0.07730
644.10853,0.10353
646.03700,0.11926
647.96547,0.10348
649.89394,0.08050
651.82241,0.09280
653.75088,0.11963
655.67934,0.12405
657.60781,0.10672
659.53628,0.08456
661.46475,0.07101
663.39322,0.06803
665.32169,0.06687
667.25016,0.06660
669.17862,0.07639
671.10709,0.10082
673.03556,0.12284
674.96403,0.11374
676.89250,0.08760
678.82097,0.07778
680.74944,0.07349
682.67791,0.07635
684.60637,0.10544
686.53484,0.13654
688.46331,0.13557
690.39178,0.11798
692.32025,0.10493
694.24872,0.10369
696.17719,0.11264
698.10565,0.10698
700.03412,0.08697
701.96259,0.08429
703.89106,0.09959
705.81953,0.10736
707.74800,0.11099
709.67647,0.14040
711.60494,0.17624
713.53340,0.16593
715.46187,0.13157
717.39034,0.11649
719.31881,0.10683
721.24728,0.09670
723.17575,0.10178
725.10422,0.11111
727.03268,0.10034
728.96115,0.08119
730.88962,0.08116
732.81809,0.08829
734.74656,0.08745
736.67503,0.09304
738.60350,0.10357
740.53197,0.10839
742.46043,0.11132
744.38890,0.10885
746.31737,0.10341
748.24584,0.10573
750.17431,0.10866
752.10278,0.10245
754.03125,0.09619
755.95971,0.09736
757.88818,0.09962
759.81665,0.10308
761.74512,0.10603
763.67359,0.10118
765.60206,0.08812
767.53053,0.07240
769.45900,0.06797
771.38746,0.08294
773.31593,0.10422
775.24440,0.11630
777.17287,0.12097
779.10134,0.12321
781.02981,0.11897
782.95828,0.10559
784.88674,0.09052
786.81521,0.08528
788.74368,0.09156
790.67215,0.10165
792.60062,0.10725
794.52909,0.10681
796.45756,0.10361
798.38602,0.09885
800.31449,0.09627
802.24296,0.09665
804.17143,0.09182
806.09990,0.08037
808.02837,0.07979
809.95684,0.09653
811.88531,0.10184
813.81377,0.08667
815.74224,0.08230
817.67071,0.09180
819.59918,0.09492
821.52765,0.09434
823.45612,0.09103
825.38459,0.08340
827.31305,0.08482
829.24152,0.09530
831.16999,0.10427
833.09846,0.11261
835.02693,0.11798
836.95540,0.11534
838.88387,0.10510
840.81234,0.09544
842.74080,0.09999
844.66927,0.11113
846.59774,0.11158
848.52621,0.10911
850.45468,0.11329
852.38315,0.11295
854.31162,0.10541
856.24008,0.10111
858.16855,0.10097
860.09702,0.10686
862.02549,0.11545
863.95396,0.11228
865.88243,0.10630
867.81090,0.11879
869.73937,0.13449
871.66783,0.12744
873.59630,0.10743
875.52477,0.09594
877.45324,0.09824
879.38171,0.10430
881.31018,0.10669
883.23865,0.11171
885.16711,0.12219
887.09558,0.12819
889.02405,0.12342
890.95252,0.11484
892.88099,0.10905
894.80946,0.10638
896.73793,0.10132
898.66640,0.09439
900.59486,0.09734
902.52333,0.10866
904.45180,0.11606
906.38027,0.11847
908.30874,0.12073
910.23721,0.11957
912.16568,0.11585
914.09414,0.11801
916.02261,0.12369
917.95108,0.13016
919.87955,0.13584
921.80802,0.13479
923.73649,0.13065
925.66496,0.12785
927.59343,0.12539
929.52189,0.12843
931.45036,0.13563
933.37883,0.13725
935.30730,0.13721
937.23577,0.13782
939.16424,0.12891
941.09271,0.11504
943.02117,0.11241
944.94964,0.11924
946.87811,0.12166
948.80658,0.11527
950.73505,0.10211
952.66352,0.08900
954.59199,0.08500
956.52045,0.08770
958.44892,0.09158
960.37739,0.10073
962.30586,0.11816
964.23433,0.13688
966.16280,0.14616
968.09127,0.14062
970.01974,0.12676
971.94820,0.11846
973.87667,0.12071
975.80514,0.12247
977.73361,0.11795
979.66208,0.11632
981.59055,0.12051
983.51902,0.12887
985.44748,0.13857
987.37595,0.14176
989.30442,0.13569
991.23289,0.12483
993.16136,0.11998
995.08983,0.12193
997.01830,0.12359
998.94677,0.13033
1000.87523,0.13878
1002.80370,0.13550
1004.73217,0.12293
1006.66064,0.11476
1008.58911,0.11590
1010.51758,0.11268
1012.44605,0.10162
1014.37451,0.10045
1016.30298,0.11255
1018.23145,0.12427
1020.15992,0.12695
1022.08839,0.12554
1024.01686,0.12493
1025.94533,0.13302
1027.87380,0.15250
1029.80226,0.15289
1031.73073,0.13025
1033.65920,0.11840
1035.58767,0.12091
1037.51614,0.12372
1039.44461,0.12214
1041.37308,0.12141
1043.30154,0.12134
1045.23001,0.11601
1047.15848,0.11371
1049.08695,0.12072
1051.01542,0.13182
1052.94389,0.13958
1054.87236,0.13787
1056.80083,0.12735
1058.72929,0.11939
1060.65776,0.12548
1062.58623,0.13746
1064.51470,0.14200
1066.44317,0.14339
1068.37164,0.14684
1070.30011,0.14716
1072.22857,0.14544
1074.15704,0.14730
1076.08551,0.15109
1078.01398,0.15122
1079.94245,0.14455
1081.87092,0.13691
1083.79939,0.13553
1085.72786,0.13776
1087.65632,0.13649
1089.58479,0.12701
1091.51326,0.11614
1093.44173,0.11696
1095.37020,0.12511
1097.29867,0.12839
1099.22714,0.13070
1101.15560,0.14141
1103.08407,0.15268
1105.01254,0.14820
1106.94101,0.13981
1108.86948,0.14618
1110.79795,0.15259
1112.72642,0.14671
1114.65489,0.13588
1116.58335,0.12558
1118.51182,0.12300
1120.44029,0.12887
1122.36876,0.13198
1124.29723,0.12936
1126.22570,0.12821
1128.15417,0.12886
1130.08263,0.12564
1132.01110,0.12326
1133.93957,0.12686
1135.86804,0.12919
1137.79651,0.12861
1139.72498,0.13062
1141.65345,0.13548
1143.58191,0.13898
1145.51038,0.13791
1147.43885,0.13766
1149.36732,0.13999
1151.29579,0.14086
1153.22426,0.14329
1155.15273,0.14718
1157.08120,0.14869
1159.00966,0.14726
1160.93813,0.14416
1162.86660,0.14472
1164.79507,0.14811
1166.72354,0.14575
1168.65201,0.13841
1170.58048,0.13417
1172.50894,0.13425
1174.43741,0.13402
1176.36588,0.13265
1178.29435,0.13464
1180.22282,0.14075
1182.15129,0.14583
1184.07976,0.15963
1186.00823,0.18497
1187.93669,0.18515
1189.86516,0.15449
1191.79363,0.13280
1193.72210,0.13121
1195.65057,0.13902
1197.57904,0.14627
1199.50751,0.14648
1201.43597,0.14574
1203.36444,0.14928
1205.29291,0.15163
1207.22138,0.14788
1209.14985,0.14503
1211.07832,0.14821
1213.00679,0.15363
1214.93526,0.15695
1216.86372,0.15338
1218.79219,0.14703
1220.72066,0.14565
1222.64913,0.14614
1224.57760,0.14826
1226.50607,0.15348
1228.43454,0.15385
1230.36300,0.14850
1232.29147,0.14604
1234.21994,0.14821
1236.14841,0.14895
1238.07688,0.14522
1240.00535,0.13912
1241.93382,0.13566
1243.86229,0.13768
1245.79075,0.14057
1247.71922,0.14364
1249.64769,0.14736
1251.57616,0.14607
1253.50463,0.14302
1255.43310,0.14320
1257.36157,0.14188
1259.29003,0.14078
1261.21850,0.14609
1263.14697,0.15207
1265.07544,0.15087
1267.00391,0.14528
1268.93238,0.14411
1270.86085,0.14782
1272.78932,0.14866
1274.71778,0.14682
1276.64625,0.14760
1278.57472,0.15013
1280.50319,0.14998
1282.43166,0.14832
1284.36013,0.14873
1286.28860,0.14588
1288.21706,0.13893
1290.14553,0.13977
1292.07400,0.15056
1294.00247,0.15865
1295.93094,0.15526
1297.85941,0.14636
1299.78788,0.14006
1301.71634,0.13197
1303.64481,0.12156
1305.57328,0.12338
1307.50175,0.14022
1309.43022,0.15507
1311.35869,0.16275
1313.28716,0.16821
1315.21563,0.16684
1317.14409,0.16044
1319.07256,0.15645
1321.00103,0.15588
1322.92950,0.15807
1324.85797,0.15771
1326.78644,0.15160
1328.71491,0.14569
1330.64337,0.14487
1332.57184,0.15107
1334.50031,0.15858
1336.42878,0.15941
1338.35725,0.15887
1340.28572,0.16040
1342.21419,0.16802
1344.14266,0.18319
1346.07112,0.18431
1347.99959,0.16947
1349.92806,0.15975
1351.85653,0.15502
1353.78500,0.15239
1355.71347,0.15433
1357.64194,0.15456
1359.57040,0.15069
1361.49887,0.14929
1363.42734,0.15225
1365.35581,0.15528
1367.28428,0.15840
1369.21275,0.15970
1371.14122,0.15971
1373.06969,0.16314
1374.99815,0.16840
1376.92662,0.16858
1378.85509,0.16148
1380.78356,0.15433
1382.71203,0.15793
1384.64050,0.17065
1386.56897,0.17808
1388.49743,0.17287
1390.42590,0.16987
1392.35437,0.17640
1394.28284,0.18352
1396.21131,0.18504
1398.13978,0.18380
1400.06825,0.17853
1401.99672,0.17255
1403.92518,0.17057
1405.85365,0.16918
1407.78212,0.16787
1409.71059,0.16926
1411.63906,0.16963
1413.56753,0.16861
1415.49600,0.17094
1417.42446,0.17611
1419.35293,0.17678
1421.28140,0.17297
1423.20987,0.17153
1425.13834,0.17094
1427.06681,0.17134
1428.99528,0.17388
1430.92375,0.17473
1432.85221,0.17314
1434.78068,0.17536
1436.70915,0.18266
1438.63762,0.18249
1440.56609,0.17674
1442.49456,0.17248
1444.42303,0.17243
1446.35149,0.17982
1448.27996,0.18635
1450.20843,0.18380
1452.13690,0.18189
1454.06537,0.18626
1455.99384,0.19412
1457.92231,0.19660
1459.85077,0.18805
1461.77924,0.18229
1463.70771,0.18459
1465.63618,0.18478
1467.56465,0.17867
1469.49312,0.18059
1471.42159,0.19496
1473.35006,0.20677
1475.27852,0.20037
1477.20699,0.18858
1479.13546,0.18184
1481.06393,0.18079
1482.99240,0.18306
1484.92087,0.18916
1486.84934,0.19823
1488.77780,0.20419
1490.70627,0.19746
1492.63474,0.18716
1494.56321,0.18995
1496.49168,0.20384
1498.42015,0.20483
1500.34862,0.19267
1502.27709,0.18851
1504.20555,0.19872
1506.13402,0.22018
1508.06249,0.22130
1509.99096,0.20557
1511.91943,0.19532
1513.84790,0.19350
1515.77637,0.20025
1517.70483,0.20592
1519.63330,0.20853
1521.56177,0.20804
1523.49024,0.20006
1525.41871,0.19688
1527.34718,0.19678
1529.27565,0.19530
1531.20412,0.20184
1533.13258,0.21322
1535.06105,0.21292
1536.98952,0.21781
1538.91799,0.24187
1540.84646,0.24894
1542.77493,0.22490
1544.70340,0.20724
1546.63186,0.19418
1548.56033,0.18999
1550.48880,0.19245
1552.41727,0.19276
1554.34574,0.19342
1556.27421,0.20596
1558.20268,0.22942
1560.13115,0.21540
1562.05961,0.19581
1563.98808,0.19234
1565.91655,0.19362
1567.84502,0.20136
1569.77349,0.21006
1571.70196,0.20771
1573.63043,0.20755
1575.55889,0.21294
1577.48736,0.20634
1579.41583,0.19464
1581.34430,0.19035
1583.27277,0.18844
1585.20124,0.18499
1587.12971,0.18142
1589.05818,0.18017
1590.98664,0.18204
1592.91511,0.18464
1594.84358,0.18622
1596.77205,0.18477
1598.70052,0.18174
1600.62899,0.18324
1602.55746,0.18820
1604.48592,0.18882
1606.41439,0.18561
1608.34286,0.18461
1610.27133,0.18521
1612.19980,0.18565
1614.12827,0.19170
1616.05674,0.20524
1617.98521,0.20784
1619.91367,0.20111
1621.84214,0.20180
1623.77061,0.20494
1625.69908,0.20244
1627.62755,0.19739
1629.55602,0.19064
1631.48449,0.18715
1633.41295,0.19265
1635.34142,0.20569
1637.26989,0.20831
1639.19836,0.20078
1641.12683,0.19568
1643.05530,0.19738
1644.98377,0.21045
1646.91223,0.22402
1648.84070,0.21761
1650.76917,0.21825
1652.69764,0.23723
1654.62611,0.22573
1656.55458,0.20127
1658.48305,0.19314
1660.41152,0.19316
1662.33998,0.19616
1664.26845,0.19970
1666.19692,0.20404
1668.12539,0.21458
1670.05386,0.21910
1671.98233,0.20788
1673.91080,0.20267
1675.83926,0.20455
1677.76773,0.20558
1679.69620,0.20880
1681.62467,0.21858
1683.55314,0.23502
1685.48161,0.23470
1687.41008,0.22310
1689.33855,0.21579
1691.26701,0.20641
1693.19548,0.20089
1695.12395,0.21115
1697.05242,0.22832
1698.98089,0.22940
1700.90936,0.21660
1702.83783,0.20640
1704.76629,0.20181
1706.69476,0.19699
1708.62323,0.19216
1710.55170,0.19075
1712.48017,0.19478
1714.40864,0.20699
1716.33711,0.22285
1718.26558,0.22201
1720.19404,0.20850
1722.12251,0.19679
1724.05098,0.18745
1725.97945,0.18413
1727.90792,0.18800
1729.83639,0.19450
1731.76486,0.20487
1733.69332,0.21726
1735.62179,0.21102
1737.55026,0.19883
1739.47873,0.19484
1741.40720,0.19619
1743.33567,0.19747
1745.26414,0.19885
1747.19261,0.20289
1749.12107,0.20555
1751.04954,0.19889
1752.97801,0.18922
1754.90648,0.18609
1756.83495,0.18742
1758.76342,0.18877
1760.69189,0.19001
1762.62035,0.18887
1764.54882,0.18770
1766.47729,0.19290
1768.40576,0.20343
1770.33423,0.21346
1772.26270,0.21568
1774.19117,0.20585
1776.11964,0.19618
1778.04810,0.19447
1779.97657,0.19650
1781.90504,0.19369
1783.83351,0.18712
1785.76198,0.18313
1787.69045,0.18459
1789.61892,0.19102
1791.54738,0.19901
1793.47585,0.20348
1795.40432,0.20299
1797.33279,0.19947
1799.26126,0.19659
1801.18973,0.19451
1803.11820,0.19094
1805.04666,0.18804
1806.97513,0.18682
1808.90360,0.18697
1810.83207,0.18691
1812.76054,0.18392
1814.68901,0.18399
1816.61748,0.19785
1818.54595,0.22067
1820.47441,0.22944
1822.40288,0.21521
1824.33135,0.19574
1826.25982,0.19094
1828.18829,0.19573
1830.11676,0.19583
1832.04523,0.18986
1833.97369,0.18688
1835.90216,0.18922
1837.83063,0.19102
1839.75910,0.19005
1841.68757,0.19263
1843.61604,0.19793
1845.54451,0.19596
1847.47298,0.18976
1849.40144,0.18483
1851.32991,0.18169
1853.25838,0.18215
1855.18685,0.18437
1857.11532,0.18463
1859.04379,0.18469
1860.97226,0.18796
1862.90072,0.19297
1864.82919,0.19965
1866.75766,0.20748
1868.68613,0.20675
1870.61460,0.19548
1872.54307,0.18728
1874.47154,0.18605
1876.40001,0.18804
1878.32847,0.18952
1880.25694,0.18870
1882.18541,0.18688
1884.11388,0.18650
1886.04235,0.18773
1887.97082,0.19040
1889.89929,0.19370
1891.82775,0.19473
1893.75622,0.19270
1895.68469,0.18985
1897.61316,0.18853
1899.54163,0.18740
1901.47010,0.18616
1903.39857,0.18802
1905.32704,0.19067
1907.25550,0.19066
1909.18397,0.19163
1911.11244,0.19393
1913.04091,0.19339
1914.96938,0.19279
1916.89785,0.19499
1918.82632,0.19538
1920.75478,0.19501
1922.68325,0.19640
1924.61172,0.19435
1926.54019,0.19045
1928.46866,0.18847
1930.39713,0.18612
1932.32560,0.18352
1934.25407,0.18346
1936.18253,0.18469
1938.11100,0.18511
1940.03947,0.18674
1941.96794,0.18953
1943.89641,0.19101
1945.82488,0.19268
1947.75335,0.19379
1949.68181,0.19247
1951.61028,0.19246
1953.53875,0.19541
1955.46722,0.19690
1957.39569,0.19451
1959.32416,0.19144
1961.25263,0.19063
1963.18110,0.19061
1965.10956,0.18917
1967.03803,0.18655
1968.96650,0.18610
1970.89497,0.18869
1972.82344,0.19029
1974.75191,0.18940
1976.68038,0.18722
1978.60884,0.18588
1980.53731,0.18676
1982.46578,0.18791
1984.39425,0.18952
1986.32272,0.19264
1988.25119,0.19589
1990.17966,0.19764
1992.10812,0.19588
1994.03659,0.19278
1995.96506,0.19181
1997.89353,0.19236
1999.82200,0.19271
2001.75047,0.19193
2003.67894,0.19086
2005.60741,0.18983
2007.53587,0.18751
2009.46434,0.18514
2011.39281,0.18696
2013.32128,0.19156
2015.24975,0.19297
2017.17822,0.19075
2019.10669,0.18760
2021.03515,0.18538
2022.96362,0.18576
2024.89209,0.18824
2026.82056,0.18983
2028.74903,0.18856
2030.67750,0.18726
2032.60597,0.18941
2034.53444,0.19029
2036.46290,0.18594
2038.39137,0.18346
2040.31984,0.18680
2042.24831,0.18995
2044.17678,0.19040
2046.10525,0.19187
2048.03372,0.19325
2049.96218,0.19134
2051.89065,0.18768
2053.81912,0.18451
2055.74759,0.18338
2057.67606,0.18448
2059.60453,0.18706
2061.53300,0.19061
2063.46147,0.19396
2065.38993,0.19600
2067.31840,0.19686
2069.24687,0.19633
2071.17534,0.19330
2073.10381,0.18862
2075.03228,0.18494
2076.96075,0.18668
2078.88921,0.19365
2080.81768,0.19728
2082.74615,0.19466
2084.67462,0.19307
2086.60309,0.19486
2088.53156,0.19478
2090.46003,0.19252
2092.38850,0.19012
2094.31696,0.18711
2096.24543,0.18527
2098.17390,0.18691
2100.10237,0.19057
2102.03084,0.19242
2103.95931,0.19223
2105.88778,0.19178
2107.81624,0.19030
2109.74471,0.18784
2111.67318,0.18590
2113.60165,0.18520
2115.53012,0.18750
2117.45859,0.19207
2119.38706,0.19441
2121.31553,0.19440
2123.24399,0.19400
2125.17246,0.19214
2127.10093,0.18994
2129.02940,0.18961
2130.95787,0.18939
2132.88634,0.18919
2134.81481,0.19154
2136.74327,0.19447
2138.67174,0.19511
2140.60021,0.19550
2142.52868,0.19655
2144.45715,0.19433
2146.38562,0.19041
2148.31409,0.18963
2150.24255,0.18976
2152.17102,0.18846
2154.09949,0.18740
2156.02796,0.18829
2157.95643,0.19080
2159.88490,0.19322
2161.81337,0.19500
2163.74184,0.19509
2165.67030,0.19425
2167.59877,0.19610
2169.52724,0.19871
2171.45571,0.19774
2173.38418,0.19462
2175.31265,0.19363
2177.24112,0.19568
2179.16958,0.19660
2181.09805,0.19658
2183.02652,0.19775
2184.95499,0.19633
2186.88346,0.19323
2188.81193,0.19285
2190.74040,0.19369
2192.66887,0.19322
2194.59733,0.19316
2196.52580,0.19468
2198.45427,0.19537
2200.38274,0.19326
2202.31121,0.18976
2204.23968,0.18855
2206.16815,0.19082
2208.09661,0.19478
2210.02508,0.19823
2211.95355,0.19829
2213.88202,0.19604
2215.81049,0.19622
2217.73896,0.19646
2219.66743,0.19334
2221.59590,0.19092
2223.52436,0.18998
2225.45283,0.18835
2227.38130,0.18721
2229.30977,0.18923
2231.23824,0.19495
2233.16671,0.19902
2235.09518,0.19776
2237.02364,0.19521
2238.95211,0.19541
2240.88058,0.19700
2242.80905,0.19742
2244.73752,0.19542
2246.66599,0.19343
2248.59446,0.19481
2250.52293,0.19684
2252.45139,0.19645
2254.37986,0.19330
2256.30833,0.18882
2258.23680,0.18610
2260.16527,0.18520
2262.09374,0.18546
2264.02221,0.18734
2265.95067,0.19094
2267.87914,0.19499
2269.80761,0.19654
2271.73608,0.19502
2273.66455,0.19148
2275.59302,0.18625
2277.52149,0.18332
2279.44996,0.18779
2281.37842,0.19638
2283.30689,0.20002
2285.23536,0.19679
2287.16383,0.19447
2289.09230,0.19586
2291.02077,0.19650
2292.94924,0.19678
2294.87770,0.19780
2296.80617,0.19807
2298.73464,0.19740
2300.66311,0.19587
2302.59158,0.19492
2304.52005,0.19590
2306.44852,0.19855
2308.37699,0.20089
2310.30545,0.20051
2312.23392,0.19948
2314.16239,0.19910
2316.09086,0.19676
2318.01933,0.19412
2319.94780,0.19175
2321.87627,0.18841
2323.80473,0.19154
2325.73320,0.20158
2327.66167,0.20745
2329.59014,0.20709
2331.51861,0.20815
2333.44708,0.21155
2335.37555,0.21206
2337.30401,0.21279
2339.23248,0.21284
2341.16095,0.20673
2343.08942,0.20034
2345.01789,0.20036
2346.94636,0.20440
2348.87483,0.20407
2350.80330,0.19736
2352.73176,0.18931
2354.66023,0.18616
2356.58870,0.19423
2358.51717,0.20791
2360.44564,0.20021
2362.37411,0.17103
2364.30258,0.15578
2366.23104,0.17023
2368.15951,0.19410
2370.08798,0.20210
2372.01645,0.19376
2373.94492,0.18840
2375.87339,0.18952
2377.80186,0.19000
2379.73033,0.19224
2381.65879,0.19658
2383.58726,0.19836
2385.51573,0.19620
2387.44420,0.19251
2389.37267,0.19000
2391.30114,0.18986
2393.22961,0.19287
2395.15807,0.19595
2397.08654,0.19411
2399.01501,0.19088
2400.94348,0.19308
2402.87195,0.19766
2404.80042,0.19855
2406.72889,0.19719
2408.65736,0.19600
2410.58582,0.19449
2412.51429,0.19390
2414.44276,0.19616
2416.37123,0.20067
2418.29970,0.20385
2420.22817,0.20332
2422.15664,0.20154
2424.08510,0.20154
2426.01357,0.20071
2427.94204,0.19582
2429.87051,0.19113
2431.79898,0.19046
2433.72745,0.19165
2435.65592,0.19343
2437.58439,0.19540
2439.51285,0.19749
2441.44132,0.19988
2443.36979,0.19984
2445.29826,0.19726
2447.22673,0.19654
2449.15520,0.20245
2451.08367,0.21458
2453.01213,0.22172
2454.94060,0.21422
2456.86907,0.20030
2458.79754,0.19466
2460.72601,0.19615
2462.65448,0.19595
2464.58295,0.19450
2466.51142,0.19485
2468.43988,0.19685
2470.36835,0.19739
2472.29682,0.19400
2474.22529,0.19114
2476.15376,0.19427
2478.08223,0.20030
2480.01070,0.20268
2481.93916,0.20102
2483.86763,0.19998
2485.79610,0.20214
2487.72457,0.20332
2489.65304,0.20064
2491.58151,0.19657
2493.50998,0.19235
2495.43844,0.19142
2497.36691,0.19554
2499.29538,0.20016
2501.22385,0.20358
2503.15232,0.20508
2505.08079,0.20342
2507.00926,0.20139
2508.93773,0.19913
2510.86619,0.19460
2512.79466,0.19238
2514.72313,0.19572
2516.65160,0.19816
2518.58007,0.19541
2520.50854,0.19291
2522.43701,0.19483
2524.36547,0.19874
2526.29394,0.20045
2528.22241,0.19860
2530.15088,0.19682
2532.07935,0.19826
2534.00782,0.20046
2535.93629,0.20105
2537.86476,0.20145
2539.79322,0.20086
2541.72169,0.19897
2543.65016,0.19960
2545.57863,0.20178
2547.50710,0.20111
2549.43557,0.19950
2551.36404,0.20020
2553.29250,0.20111
2555.22097,0.20077
2557.14944,0.20164
2559.07791,0.20324
2561.00638,0.20211
2562.93485,0.20034
2564.86332,0.20048
2566.79179,0.19915
2568.72025,0.19753
2570.64872,0.19887
2572.57719,0.19973
2574.50566,0.19974
2576.43413,0.20218
2578.36260,0.20420
2580.29107,0.20224
2582.21953,0.19814
2584.14800,0.19493
2586.07647,0.19489
2588.00494,0.19902
2589.93341,0.20354
2591.86188,0.20276
2593.79035,0.19833
2595.71882,0.19621
2597.64728,0.19733
2599.57575,0.19894
2601.50422,0.19884
2603.43269,0.19728
2605.36116,0.19651
2607.28963,0.19741
2609.21810,0.19860
2611.14656,0.19936
2613.07503,0.20126
2615.00350,0.20377
2616.93197,0.20248
2618.86044,0.19708
2620.78891,0.19447
2622.71738,0.19697
2624.64585,0.20037
2626.57431,0.20356
2628.50278,0.20517
2630.43125,0.20305
2632.35972,0.20045
2634.28819,0.19968
2636.21666,0.19923
2638.14513,0.19990
2640.07359,0.20355
2642.00206,0.20970
2643.93053,0.21399
2645.85900,0.21238
2647.78747,0.20780
2649.71594,0.20461
2651.64441,0.20352
2653.57288,0.20291
2655.50134,0.20218
2657.42981,0.20366
2659.35828,0.20531
2661.28675,0.20327
2663.21522,0.19992
2665.14369,0.19871
2667.07216,0.19969
2669.00062,0.20263
2670.92909,0.20664
2672.85756,0.20786
2674.78603,0.20496
2676.71450,0.20113
2678.64297,0.20019
2680.57144,0.20366
2682.49990,0.20663
2684.42837,0.20471
2686.35684,0.20137
2688.28531,0.19999
2690.21378,0.20020
2692.14225,0.20103
2694.07072,0.20263
2695.99919,0.20563
2697.92765,0.20805
2699.85612,0.20924
2701.78459,0.21013
2703.71306,0.21072
2705.64153,0.21280
2707.57000,0.21355
2709.49847,0.20922
2711.42693,0.20594
2713.35540,0.20755
2715.28387,0.20805
2717.21234,0.20605
2719.14081,0.20620
2721.06928,0.20762
2722.99775,0.20850
2724.92622,0.21027
2726.85468,0.21160
2728.78315,0.21120
2730.71162,0.21066
2732.64009,0.20992
2734.56856,0.20790
2736.49703,0.20638
2738.42550,0.20712
2740.35396,0.21048
2742.28243,0.21379
2744.21090,0.21302
2746.13937,0.21031
2748.06784,0.20806
2749.99631,0.20577
2751.92478,0.20563
2753.85325,0.20776
2755.78171,0.20931
2757.71018,0.20877
2759.63865,0.20671
2761.56712,0.20542
2763.49559,0.20558
2765.42406,0.20598
2767.35253,0.20585
2769.28099,0.20679
2771.20946,0.20937
2773.13793,0.21022
2775.06640,0.20965
2776.99487,0.20896
2778.92334,0.20654
2780.85181,0.20658
2782.78028,0.21314
2784.70874,0.22103
2786.63721,0.22305
2788.56568,0.21848
2790.49415,0.21350
2792.42262,0.21282
2794.35109,0.21438
2796.27956,0.21521
2798.20802,0.21413
2800.13649,0.21117
2802.06496,0.20979
2803.99343,0.21198
2805.92190,0.21387
2807.85037,0.21302
2809.77884,0.21350
2811.70731,0.21612
2813.63577,0.21643
2815.56424,0.21642
2817.49271,0.21978
2819.42118,0.22203
2821.34965,0.21957
2823.27812,0.21583
2825.20659,0.21378
2827.13505,0.21281
2829.06352,0.21223
2830.99199,0.21178
2832.92046,0.21181
2834.84893,0.21395
2836.77740,0.21625
2838.70587,0.21627
2840.63433,0.21451
2842.56280,0.21217
2844.49127,0.21266
2846.41974,0.21449
2848.34821,0.21327
2850.27668,0.21047
2852.20515,0.21021
2854.13362,0.21630
2856.06208,0.22428
2857.99055,0.22511
2859.91902,0.22168
2861.84749,0.22056
2863.77596,0.21888
2865.70443,0.21617
2867.63290,0.21611
2869.56136,0.21707
2871.48983,0.21676
2873.41830,0.21461
2875.34677,0.21180
2877.27524,0.21202
2879.20371,0.21620
2881.13218,0.21885
2883.06065,0.21764
2884.98911,0.21794
2886.91758,0.22002
2888.84605,0.22037
2890.77452,0.21811
2892.70299,0.21344
2894.63146,0.20980
2896.55993,0.20985
2898.48839,0.21076
2900.41686,0.21169
2902.34533,0.21314
2904.27380,0.21105
2906.20227,0.20809
2908.13074,0.21173
2910.05921,0.21799
2911.98768,0.21986
2913.91614,0.21733
2915.84461,0.21241
2917.77308,0.20812
2919.70155,0.20596
2921.63002,0.20446
2923.55849,0.20289
2925.48696,0.20265
2927.41542,0.20639
2929.34389,0.21072
2931.27236,0.21130
2933.20083,0.21093
2935.12930,0.20833
2937.05777,0.20431
2938.98624,0.20805
2940.91471,0.21551
2942.84317,0.21545
2944.77164,0.20779
2946.70011,0.19910
2948.62858,0.19923
2950.55705,0.20684
2952.48552,0.21205
2954.41399,0.21252
2956.34245,0.20541
2958.27092,0.19935
2960.19939,0.20673
2962.12786,0.21702
2964.05633,0.22004
2965.98480,0.21774
2967.91327,0.21327
2969.84174,0.21271
2971.77020,0.21513
2973.69867,0.21486
2975.62714,0.21064
2977.55561,0.20460
2979.48408,0.20400
2981.41255,0.20882
2983.34102,0.21207
2985.26948,0.21318
2987.19795,0.21317
2989.12642,0.21450
2991.05489,0.21947
2992.98336,0.22349
2994.91183,0.22379
2996.84030,0.22440
2998.76877,0.22735
3000.69723,0.22878
3002.62570,0.22562
3004.55417,0.22144
3006.48264,0.21951
3008.41111,0.21720
3010.33958,0.21053
3012.26805,0.19372
3014.19651,0.16324
3016.12498,0.13656
3018.05345,0.14435
3019.98192,0.18033
3021.91039,0.20732
3023.83886,0.21744
3025.76733,0.21988
3027.69579,0.21589
3029.62426,0.21471
3031.55273,0.21982
3033.48120,0.22020
3035.40967,0.21380
3037.33814,0.21123
3039.26661,0.21664
3041.19508,0.21940
3043.12354,0.21466
3045.05201,0.21160
3046.98048,0.21213
3048.90895,0.21303
3050.83742,0.21704
3052.76589,0.22186
3054.69436,0.21790
3056.62282,0.20675
3058.55129,0.20444
3060.47976,0.21440
3062.40823,0.22205
3064.33670,0.21578
3066.26517,0.20414
3068.19364,0.20674
3070.12211,0.21788
3072.05057,0.22169
3073.97904,0.21716
3075.90751,0.20794
3077.83598,0.20482
3079.76445,0.21091
3081.69292,0.21607
3083.62139,0.21343
3085.54985,0.20969
3087.47832,0.21573
3089.40679,0.22090
3091.33526,0.21525
3093.26373,0.20669
3095.19220,0.20503
3097.12067,0.21291
3099.04914,0.21835
3100.97760,0.21331
3102.90607,0.20512
3104.83454,0.20632
3106.76301,0.21776
3108.69148,0.22183
3110.61995,0.21027
3112.54842,0.19998
3114.47688,0.20606
3116.40535,0.21882
3118.33382,0.22243
3120.26229,0.21619
3122.19076,0.21066
3124.11923,0.21304
3126.04770,0.21844
3127.97617,0.22078
3129.90463,0.21887
3131.83310,0.21609
3133.76157,0.21785
3135.69004,0.22400
3137.61851,0.22857
3139.54698,0.22719
3141.47545,0.22445
3143.40391,0.22917
3145.33238,0.23870
3147.26085,0.23971
3149.18932,0.23060
3151.11779,0.22186
3153.04626,0.21941
3154.97473,0.22263
3156.90320,0.22689
3158.83166,0.22797
3160.76013,0.22667
3162.68860,0.22791
3164.61707,0.23043
3166.54554,0.22946
3168.47401,0.22789
3170.40248,0.22724
3172.33094,0.22540
3174.25941,0.22327
3176.18788,0.22261
3178.11635,0.22702
3180.04482,0.23700
3181.97329,0.24384
3183.90176,0.24217
3185.83022,0.23547
3187.75869,0.22796
3189.68716,0.22353
3191.61563,0.22346
3193.54410,0.22473
3195.47257,0.22538
3197.40104,0.22795
3199.32951,0.23343
3201.25797,0.23694
3203.18644,0.23469
3205.11491,0.22857
3207.04338,0.22254
3208.97185,0.21845
3210.90032,0.21823
3212.82879,0.22341
3214.75725,0.23018
3216.68572,0.23196
3218.61419,0.22547
3220.54266,0.21480
3222.47113,0.21050
3224.39960,0.21286
3226.32807,0.21322
3228.25654,0.21449
3230.18500,0.22020
3232.11347,0.22376
3234.04194,0.22185
3235.97041,0.22059
3237.89888,0.22408
3239.82735,0.22471
3241.75582,0.22036
3243.68428,0.22023
3245.61275,0.22425
3247.54122,0.22685
3249.46969,0.22920
3251.39816,0.22680
3253.32663,0.22035
3255.25510,0.22240
3257.18357,0.22959
3259.11203,0.23312
3261.04050,0.23329
3262.96897,0.22981
3264.89744,0.22612
3266.82591,0.22539
3268.75438,0.22560
3270.68285,0.22500
3272.61131,0.22439
3274.53978,0.22608
3276.46825,0.22842
3278.39672,0.22656
3280.32519,0.22209
3282.25366,0.21992
3284.18213,0.22001
3286.11060,0.22187
3288.03906,0.22409
3289.96753,0.22097
3291.89600,0.21359
3293.82447,0.21187
3295.75294,0.21794
3297.68141,0.22500
3299.60988,0.22902
3301.53834,0.22918
3303.46681,0.22587
3305.39528,0.22183
3307.32375,0.21974
3309.25222,0.22093
3311.18069,0.22317
3313.10916,0.22089
3315.03763,0.21541
3316.96609,0.21243
3318.89456,0.21454
3320.82303,0.22222
3322.75150,0.23022
3324.67997,0.23083
3326.60844,0.22528
3328.53691,0.22325
3330.46537,0.22662
3332.39384,0.22716
3334.32231,0.22416
3336.25078,0.22301
3338.17925,0.22195
3340.10772,0.21659
3342.03619,0.21279
3343.96466,0.21781
3345.89312,0.22549
3347.82159,0.22953
3349.75006,0.23224
3351.67853,0.23504
3353.60700,0.23845
3355.53547,0.23840
3357.46394,0.23171
3359.39240,0.22767
3361.32087,0.22977
3363.24934,0.23051
3365.17781,0.22743
3367.10628,0.22442
3369.03475,0.22389
3370.96322,0.22455
3372.89168,0.22542
3374.82015,0.22521
3376.74862,0.22446
3378.67709,0.22673
3380.60556,0.22946
3382.53403,0.22741
3384.46250,0.22523
3386.39097,0.22767
3388.31943,0.22981
3390.24790,0.22988
3392.17637,0.23080
3394.10484,0.23144
3396.03331,0.22991
3397.96178,0.23009
3399.89025,0.23108
3401.81871,0.22533
3403.74718,0.21770
3405.67565,0.21755
3407.60412,0.22164
3409.53259,0.22283
3411.46106,0.22051
3413.38953,0.21655
3415.31800,0.21227
3417.24646,0.21062
3419.17493,0.21141
3421.10340,0.21380
3423.03187,0.21837
3424.96034,0.22125
3426.88881,0.21945
3428.81728,0.21468
3430.74574,0.21061
3432.67421,0.21107
3434.60268,0.21593
3436.53115,0.21922
3438.45962,0.21753
3440.38809,0.21535
3442.31656,0.21422
3444.24503,0.21389
3446.17349,0.21757
3448.10196,0.22105
3450.03043,0.21681
3451.95890,0.20704
3453.88737,0.20077
3455.81584,0.20069
3457.74431,0.20356
3459.67277,0.20973
3461.60124,0.21511
3463.52971,0.21662
3465.45818,0.21762
3467.38665,0.21840
3469.31512,0.21806
3471.24359,0.21623
3473.17206,0.21268
3475.10052,0.20894
3477.02899,0.20722
3478.95746,0.20722
3480.88593,0.20652
3482.81440,0.20356
3484.74287,0.20278
3486.67134,0.20581
3488.59980,0.20357
3490.52827,0.19606
3492.45674,0.19332
3494.38521,0.19710
3496.31368,0.19906
3498.24215,0.19237
3500.17062,0.18553
3502.09909,0.18920
3504.02755,0.19764
3505.95602,0.19679
3507.88449,0.19004
3509.81296,0.18802
3511.74143,0.18643
3513.66990,0.18122
3515.59837,0.17778
3517.52683,0.17970
3519.45530,0.18468
3521.38377,0.18854
3523.31224,0.19293
3525.24071,0.19653
3527.16918,0.19621
3529.09765,0.19600
3531.02611,0.19556
3532.95458,0.19330
3534.88305,0.19157
3536.81152,0.18759
3538.73999,0.18158
3540.66846,0.18077
3542.59693,0.18499
3544.52540,0.19069
3546.45386,0.19470
3548.38233,0.19235
3550.31080,0.18739
3552.23927,0.18115
3554.16774,0.17320
3556.09621,0.17022
3558.02468,0.16887
3559.95314,0.16329
3561.88161,0.16204
3563.81008,0.17046
3565.73855,0.18031
3567.66702,0.18211
3569.59549,0.17739
3571.52396,0.17522
3573.45243,0.17729
3575.38089,0.17947
3577.30936,0.17878
3579.23783,0.17404
3581.16630,0.16772
3583.09477,0.16700
3585.02324,0.17523
3586.95171,0.18542
3588.88017,0.18337
3590.80864,0.17466
3592.73711,0.16983
3594.66558,0.16809
3596.59405,0.16701
3598.52252,0.16490
3600.45099,0.15944
3602.37946,0.15398
3604.30792,0.15424
3606.23639,0.15842
3608.16486,0.16024
3610.09333,0.15893
3612.02180,0.16231
3613.95027,0.17115
3615.87874,0.17569
3617.80720,0.16998
3619.73567,0.15813
3621.66414,0.15178
3623.59261,0.15213
3625.52108,0.15635
3627.44955,0.16595
3629.37802,0.17416
3631.30649,0.16948
3633.23495,0.16200
3635.16342,0.15652
3637.09189,0.15393
3639.02036,0.15356
3640.94883,0.15363
3642.87730,0.15643
3644.80577,0.16698
3646.73423,0.18648
3648.66270,0.19690
3650.59117,0.17306
3652.51964,0.14955
3654.44811,0.14435
3656.37658,0.14910
3658.30505,0.15229
3660.23352,0.15311
3662.16198,0.15236
3664.09045,0.14996
3666.01892,0.15151
3667.94739,0.16197
3669.87586,0.17343
3671.80433,0.16846
3673.73280,0.15954
3675.66126,0.15279
3677.58973,0.14610
3679.51820,0.14321
3681.44667,0.14039
3683.37514,0.13431
3685.30361,0.12885
3687.23208,0.13336
3689.16055,0.15054
3691.08901,0.15824
3693.01748,0.15205
3694.94595,0.14729
3696.87442,0.14465
3698.80289,0.14312
3700.73136,0.14544
3702.65983,0.14744
3704.58829,0.14355
3706.51676,0.13940
3708.44523,0.14305
3710.37370,0.15348
3712.30217,0.15488
3714.23064,0.14466
3716.15911,0.14034
3718.08757,0.14725
3720.01604,0.15418
3721.94451,0.15165
3723.87298,0.14604
3725.80145,0.14314
3727.72992,0.14379
3729.65839,0.14928
3731.58686,0.15695
3733.51532,0.16155
3735.44379,0.16082
3737.37226,0.15677
3739.30073,0.15622
3741.22920,0.15927
3743.15767,0.16265
3745.08614,0.16344
3747.01460,0.16089
3748.94307,0.16060
3750.87154,0.16187
3752.80001,0.15618
3754.72848,0.14980
3756.65695,0.15067
3758.58542,0.15420
3760.51389,0.14787
3762.44235,0.13808
3764.37082,0.13406
3766.29929,0.13317
3768.22776,0.13542
3770.15623,0.13649
3772.08470,0.13182
3774.01317,0.13021
3775.94163,0.13550
3777.87010,0.14410
3779.79857,0.14526
3781.72704,0.13684
3783.65551,0.13306
3785.58398,0.13613
3787.51245,0.13613
3789.44092,0.13020
3791.36938,0.12501
3793.29785,0.12601
3795.22632,0.13373
3797.15479,0.14308
3799.08326,0.14663
3801.01173,0.14373
3802.94020,0.13860
3804.86866,0.13881
3806.79713,0.14190
3808.72560,0.13841
3810.65407,0.13013
3812.58254,0.12568
3814.51101,0.12592
3816.43948,0.12604
3818.36795,0.13022
3820.29641,0.14484
3822.22488,0.15440
3824.15335,0.14785
3826.08182,0.13813
3828.01029,0.13217
3829.93876,0.13305
3831.86723,0.13886
3833.79569,0.14792
3835.72416,0.15990
3837.65263,0.16822
3839.58110,0.16395
3841.50957,0.15394
3843.43804,0.14291
3845.36651,0.13131
3847.29498,0.12740
3849.22344,0.13400
3851.15191,0.14429
3853.08038,0.14813
3855.00885,0.13916
3856.93732,0.12789
3858.86579,0.12042
3860.79426,0.12134
3862.72272,0.12797
3864.65119,0.12767
3866.57966,0.12251
3868.50813,0.12875
3870.43660,0.14546
3872.36507,0.15009
3874.29354,0.13867
3876.22200,0.12441
3878.15047,0.12098
3880.07894,0.12687
3882.00741,0.12650
3883.93588,0.12030
3885.86435,0.11565
3887.79282,0.11498
3889.72129,0.12129
3891.64975,0.12776
3893.57822,0.12367
3895.50669,0.11764
3897.43516,0.11652
3899.36363,0.11789
3901.29210,0.12424
3903.22057,0.13619
3905.14903,0.13633
3907.07750,0.12471
3909.00597,0.11787
3910.93444,0.11661
3912.86291,0.11444
3914.79138,0.11018
3916.71985,0.10767
3918.64832,0.10968
3920.57678,0.11447
3922.50525,0.12038
3924.43372,0.12191
3926.36219,0.11374
3928.29066,0.10622
3930.21913,0.10844
3932.14760,0.11495
3934.07606,0.11472
3936.00453,0.10752
3937.93300,0.10534
3939.86147,0.11206
3941.78994,0.11831
3943.71841,0.12117
3945.64688,0.12185
3947.57535,0.11524
3949.50381,0.10340
3951.43228,0.09721
3953.36075,0.09729
3955.28922,0.09747
3957.21769,0.09790
3959.14616,0.10251
3961.07463,0.10679
3963.00309,0.10510
3964.93156,0.10397
3966.86003,0.10386
3968.78850,0.09871
3970.71697,0.09518
3972.64544,0.09822
3974.57391,0.10314
3976.50238,0.10800
3978.43084,0.11246
3980.35931,0.11519
3982.28778,0.11385
3984.21625,0.10908
3986.14472,0.10642
3988.07319,0.10638
3990.00166,0.10648
3991.93012,0.10858
3993.85859,0.11208
3995.78706,0.11123
3997.71553,0.10280
3999.64400,0.09229
4001.57247,0.08775
4003.50094,0.08783
4005.42941,0.08759
4007.35787,0.08987
4009.28634,0.09684
4011.21481,0.10251
4013.14328,0.10340
4015.07175,0.10150
4017.00022,0.09862
4018.92869,0.09722
4020.85715,0.09819
4022.78562,0.09909
4024.71409,0.09856
4026.64256,0.09780
4028.57103,0.09857
4030.49950,0.10052
4032.42797,0.10098
4034.35644,0.09595
4036.28490,0.08609
4038.21337,0.08230
4040.14184,0.08625
4042.07031,0.08736
4043.99878,0.08671
4045.92725,0.08678
4047.85572,0.08505
4049.78418,0.08689
4051.71265,0.09260
4053.64112,0.09047
4055.56959,0.07985
4057.49806,0.07498
4059.42653,0.07807
4061.35500,0.08209
4063.28346,0.08719
4065.21193,0.09159
4067.14040,0.08913
4069.06887,0.08217
4070.99734,0.07821
4072.92581,0.07836
4074.85428,0.08293
4076.78275,0.08797
4078.71121,0.08862
4080.63968,0.09278
4082.56815,0.10008
4084.49662,0.09820
4086.42509,0.09170
4088.35356,0.09131
4090.28203,0.09154
4092.21049,0.08780
4094.13896,0.08467
4096.06743,0.08407
4097.99590,0.08070
4099.92437,0.07336
4101.85284,0.07202
4103.78131,0.07784
4105.70978,0.08122
4107.63824,0.08003
4109.56671,0.07676
4111.49518,0.07193
4113.42365,0.06915
4115.35212,0.07210
4117.28059,0.07798
4119.20906,0.08217
4121.13752,0.08042
4123.06599,0.07305
4124.99446,0.06740
4126.92293,0.07001
4128.85140,0.07846
4130.77987,0.08422
4132.70834,0.08235
4134.63681,0.07399
4136.56527,0.06777
4138.49374,0.07056
4140.42221,0.07818
4142.35068,0.08086
4144.27915,0.07612
4146.20762,0.06889
4148.13609,0.06041
4150.06455,0.05492
4151.99302,0.05743
4153.92149,0.06362
4155.84996,0.06761
4157.77843,0.06788
4159.70690,0.06841
4161.63537,0.07188
4163.56384,0.07387
4165.49230,0.07404
4167.42077,0.07596
4169.34924,0.07560
4171.27771,0.06885
4173.20618,0.06232
4175.13465,0.06203
4177.06312,0.06376
4178.99158,0.06274
4180.92005,0.05828
4182.84852,0.05446
4184.77699,0.05619
4186.70546,0.05964
4188.63393,0.06286
4190.56240,0.06754
4192.49087,0.06930
4194.41933,0.06766
4196.34780,0.06595
4198.27627,0.06176
4200.20474,0.05535
4202.13321,0.05473
4204.06168,0.06312
4205.99015,0.07260
4207.91861,0.07078
4209.84708,0.05939
4211.77555,0.05314
4213.70402,0.05413
4215.63249,0.05568
4217.56096,0.05474
4219.48943,0.05453
4221.41789,0.05923
4223.34636,0.06318
4225.27483,0.06327
4227.20330,0.06025
4229.13177,0.05324
4231.06024,0.04827
4232.98871,0.04806
4234.91718,0.05017
4236.84564,0.05237
4238.77411,0.05163
4240.70258,0.05218
4242.63105,0.05673
4244.55952,0.06156
4246.48799,0.06465
4248.41646,0.06361
4250.34492,0.06137
4252.27339,0.06294
4254.20186,0.06246
4256.13033,0.05519
4258.05880,0.04822
4259.98727,0.04211
4261.91574,0.03280
4263.84421,0.03009
4265.77267,0.03893
4267.70114,0.04930
4269.62961,0.05523
4271.55808,0.05546
4273.48655,0.04985
4275.41502,0.04797
4277.34349,0.05262
4279.27195,0.05211
4281.20042,0.04682
4283.12889,0.04515
4285.05736,0.04722
4286.98583,0.04883
4288.91430,0.04827
4290.84277,0.04766
4292.77124,0.04508
4294.69970,0.04256
4296.62817,0.04507
4298.55664,0.04941
4300.48511,0.05260
4302.41358,0.05089
4304.34205,0.04223
4306.27052,0.03395
4308.19898,0.03104
4310.12745,0.03015
4312.05592,0.02996
4313.98439,0.03433
4315.91286,0.04006
4317.84133,0.03813
4319.76980,0.03029
4321.69827,0.02929
4323.62673,0.03850
4325.55520,0.04351
4327.48367,0.03617
4329.41214,0.02932
4331.34061,0.03083
4333.26908,0.03133
4335.19755,0.02631
4337.12601,0.02244
4339.05448,0.02469
4340.98295,0.03356
4342.91142,0.04271
4344.83989,0.03998
4346.76836,0.02886
4348.69683,0.02675
4350.62530,0.02838
4352.55376,0.01971
4354.48223,0.01342
4356.41070,0.01837
4358.33917,0.02335
4360.26764,0.02275
4362.19611,0.01798
4364.12458,0.01325
4366.05304,0.01406
4367.98151,0.01977
4369.90998,0.02374
4371.83845,0.02555
4373.76692,0.02659
4375.69539,0.02298
4377.62386,0.01756
4379.55232,0.01622
4381.48079,0.02038
4383.40926,0.02174
4385.33773,0.01409
4387.26620,0.00756
4389.19467,0.00533
4391.12314,0.00362
4393.05161,0.00846
4394.98007,0.01990
4396.90854,0.02791
4398.83701,0.03077
4400.76548,0.03205
4402.69395,0.02806
4404.62242,0.02037
4406.55089,0.01993
4408.47935,0.02427
4410.40782,0.02261
4412.33629,0.01786
4414.26476,0.01530
4416.19323,0.01549
4418.12170,0.01950
4420.05017,0.02567
4421.97864,0.02781
4423.90710,0.02087
4425.83557,0.01237
4427.76404,0.00895
4429.69251,0.00861
4431.62098,0.01289
4433.54945,0.02089
4435.47792,0.02625
4437.40638,0.02504
4439.33485,0.01741
4441.26332,0.00619
4443.19179,-0.00512
4445.12026,-0.01454
4447.04873,-0.01825
4448.97720,-0.01438
4450.90567,-0.00782
4452.83413,-0.00402
4454.76260,-0.00122
4456.69107,0.00844
4458.61954,0.02186
4460.54801,0.02769
4462.47648,0.02448
4464.40495,0.01971
4466.33341,0.01905
4468.26188,0.01792
4470.19035,0.01435
4472.11882,0.01287
4474.04729,0.01230
4475.97576,0.01282
4477.90423,0.01515
4479.83270,0.01323
4481.76116,0.00808
4483.68963,0.00738
4485.61810,0.01068
4487.54657,0.01760
4489.47504,0.02802
4491.40351,0.03055
4493.33198,0.02243
4495.26044,0.01190
4497.18891,-0.00052
4499.11738,-0.00276
4501.04585,0.01258
4502.97432,0.01980
4504.90279,0.00582
4506.83126,-0.01151
4508.75973,-0.01961
4510.68819,-0.02256
4512.61666,-0.02308
4514.54513,-0.01233
4516.47360,0.00359
4518.40207,0.00515
4520.33054,0.00092
4522.25901,0.00408
4524.18747,0.00439
4526.11594,-0.00023
4528.04441,-0.00088
4529.97288,0.00779
4531.90135,0.01706
4533.82982,0.00845
4535.75829,-0.00867
4537.68676,-0.01332
4539.61522,-0.00904
4541.54369,-0.00283
4543.47216,-0.00262
4545.40063,-0.01333
4547.32910,-0.01566
4549.25757,-0.00443
4551.18604,0.00158
4553.11450,0.00084
4555.04297,0.00229
4556.97144,0.01089
4558.89991,0.02352
4560.82838,0.02421
4562.75685,0.01354
4564.68532,0.01132
4566.61378,0.01539
4568.54225,0.01350
4570.47072,0.01422
4572.39919,0.01996
4574.32766,0.02004
4576.25613,0.01462
4578.18460,0.00526
4580.11307,-0.00640
4582.04153,-0.01161
4583.97000,-0.01158
4585.89847,-0.01227
4587.82694,-0.00911
4589.75541,-0.00562
4591.68388,-0.00781
4593.61235,-0.00502
4595.54081,0.00652
4597.46928,0.01802
4599.39775,0.01961
4601.32622,0.00967
4603.25469,0.00737
4605.18316,0.01609
4607.11163,0.01300
4609.04010,0.00366
4610.96856,0.00377
4612.89703,0.00190
4614.82550,-0.00548
4616.75397,-0.00710
4618.68244,-0.00457
4620.61091,0.00233
4622.53938,0.01406
4624.46784,0.01484
4626.39631,0.00226
4628.32478,-0.01069
4630.25325,-0.01448
4632.18172,-0.00286
4634.11019,0.01232
4636.03866,0.01729
4637.96713,0.01486
4639.89559,0.01064
4641.82406,0.01030
4643.75253,0.01756
4645.68100,0.02332
4647.60947,0.01833
4649.53794,0.01026
4651.46641,0.00140
4653.39487,-0.01170
4655.32334,-0.01785
4657.25181,-0.01232
4659.18028,-0.00385
4661.10875,-0.00195
4663.03722,-0.00421
4664.96569,0.00257
4666.89416,0.01288
4668.82262,0.01155
4670.75109,0.00239
4672.67956,-0.00226
4674.60803,-0.00262
4676.53650,0.00064
4678.46497,0.00856
4680.39344,0.01022
4682.32190,0.00749
4684.25037,0.00789
4686.17884,0.00458
4688.10731,-0.00363
4690.03578,-0.01141
4691.96425,-0.01152
4693.89272,-0.00022
4695.82119,0.00959
4697.74965,0.01258
4699.67812,0.01932
4701.60659,0.02449
4703.53506,0.01457
4705.46353,-0.00142
4707.39200,-0.00904
4709.32047,-0.00959
4711.24893,-0.00441
4713.17740,0.00868
4715.10587,0.02005
4717.03434,0.02096
4718.96281,0.01550
4720.89128,0.01145
4722.81975,0.01324
4724.74821,0.01170
4726.67668,0.00299
4728.60515,0.00278
4730.53362,0.01316
4732.46209,0.01965
4734.39056,0.01485
4736.31903,0.00748
4738.24750,0.00470
4740.17596,-0.00196
4742.10443,-0.01018
4744.03290,-0.00767
4745.96137,0.00165
4747.88984,0.00165
4749.81831,-0.00523
4751.74678,-0.00192
4753.67524,-0.00036
4755.60371,-0.01540
4757.53218,-0.02775
4759.46065,-0.02028
4761.38912,-0.00029
4763.31759,0.01753
4765.24606,0.02421
4767.17453,0.01884
4769.10299,0.00808
4771.03146,0.00201
4772.95993,0.00021
4774.88840,-0.00541
4776.81687,-0.00840
4778.74534,-0.00087
4780.67381,0.01125
4782.60227,0.02283
4784.53074,0.02776
4786.45921,0.01734
4788.38768,0.00156
4790.31615,0.00063
4792.24462,0.00682
4794.17309,0.00220
4796.10156,-0.00530
4798.03002,-0.00251
4799.95849,0.01039
4801.88696,0.02937
4803.81543,0.03940
4805.74390,0.02656
4807.67237,0.01100
4809.60084,0.01138
4811.52930,0.01106
4813.45777,0.00106
4815.38624,-0.00802
4817.31471,-0.01083
4819.24318,-0.00910
4821.17165,-0.00598
4823.10012,0.00672
4825.02859,0.02852
4826.95705,0.03743
4828.88552,0.03639
4830.81399,0.03480
4832.74246,0.02464
4834.67093,0.01448
4836.59940,0.01020
4838.52787,0.00225
4840.45633,-0.00753
4842.38480,-0.01121
4844.31327,-0.00912
4846.24174,-0.00408
4848.17021,0.00446
4850.09868,0.01770
4852.02715,0.03092
4853.95562,0.03649
4855.88408,0.03435
4857.81255,0.02340
4859.74102,0.00456
4861.66949,-0.00743
4863.59796,-0.00624
4865.52643,-0.00390
4867.45490,-0.00164
4869.38336,0.00707
4871.31183,0.00977
4873.24030,-0.00151
4875.16877,-0.01216
4877.09724,-0.01041
4879.02571,-0.00375
4880.95418,-0.00390
4882.88265,-0.01355
4884.81111,-0.01680
4886.73958,-0.00837
4888.66805,-0.00600
4890.59652,-0.01243
4892.52499,-0.01400
4894.45346,-0.01128
4896.38193,-0.01027
4898.31039,-0.00832
4900.23886,-0.00046
4902.16733,0.00963
4904.09580,0.01388
4906.02427,0.01218
4907.95274,0.01202
4909.88121,0.00994
4911.80967,0.00730
4913.73814,0.00633
4915.66661,0.00205
4917.59508,-0.00105
4919.52355,0.00669
4921.45202,0.01678
4923.38049,0.01885
4925.30896,0.01707
4927.23742,0.02210
4929.16589,0.03630
4931.09436,0.04418
4933.02283,0.03705
4934.95130,0.02542
4936.87977,0.01324
4938.80824,0.00301
4940.73670,0.00186
4942.66517,0.00648
4944.59364,0.00797
4946.52211,0.00655
4948.45058,-0.00137
4950.37905,-0.01426
4952.30752,-0.01083
4954.23599,0.00653
4956.16445,0.01213
4958.09292,0.01152
4960.02139,0.01875
4961.94986,0.01953
4963.87833,0.01002
4965.80680,0.00645
4967.73527,0.00792
4969.66373,0.00630
4971.59220,0.00779
4973.52067,0.01899
4975.44914,0.02483
4977.37761,0.01324
4979.30608,-0.00203
4981.23455,-0.01221
4983.16302,-0.01699
4985.09148,-0.00555
4987.01995,0.01376
4988.94842,0.01293
4990.87689,0.00705
4992.80536,0.02146
4994.73383,0.03731
4996.66230,0.03594
4998.59076,0.02480
5000.51923,0.02357
5002.44770,0.03297
5004.37617,0.03217
5006.30464,0.01735
5008.23311,0.01052
5010.16158,0.01786
5012.09005,0.02152
5014.01851,0.02467
5015.94698,0.03210
5017.87545,0.03528
5019.80392,0.03341
5021.73239,0.02508
5023.66086,0.01301
5025.58933,0.00007
5027.51779,-0.00690
5029.44626,-0.00018
5031.37473,0.00725
5033.30320,0.00266
5035.23167,-0.00459
5037.16014,-0.00145
5039.08861,0.00948
5041.01708,0.01456
5042.94554,0.00558
5044.87401,-0.00407
5046.80248,-0.00393
5048.73095,-0.00542
5050.65942,-0.01228
5052.58789,-0.01500
5054.51636,-0.00456
5056.44482,0.01039
5058.37329,0.01236
5060.30176,0.00479
5062.23023,0.00181
5064.15870,0.00840
5066.08717,0.01760
5068.01564,0.02183
5069.94410,0.02052
5071.87257,0.01518
5073.80104,0.00727
5075.72951,0.00138
5077.65798,0.01255
5079.58645,0.03870
5081.51492,0.03897
5083.44339,0.01389
5085.37185,-0.00374
5087.30032,-0.01108
5089.22879,-0.00436
5091.15726,0.00578
5093.08573,0.00126
5095.01420,0.00471
5096.94267,0.02162
5098.87113,0.02169
5100.79960,0.01365
5102.72807,0.02199
5104.65654,0.02979
5106.58501,0.01894
5108.51348,-0.00129
5110.44195,-0.01312
5112.37042,-0.00821
5114.29888,0.00863
5116.22735,0.02188
5118.15582,0.02053
5120.08429,0.01261
5122.01276,0.00726
5123.94123,0.00353
5125.86970,0.00343
5127.79816,0.00823
5129.72663,0.01266
5131.65510,0.00967
5133.58357,-0.00195
5135.51204,-0.01170
5137.44051,-0.00908
5139.36898,0.01728
5141.29745,0.06680
5143.22591,0.09945
5145.15438,0.08191
5147.08285,0.03519
5149.01132,0.01232
5150.93979,0.03078
5152.86826,0.05086
5154.79673,0.05087
5156.72519,0.03989
5158.65366,0.02664
5160.58213,0.01678
5162.51060,0.01093
5164.43907,0.01071
5166.36754,0.00552
5168.29601,-0.00327
5170.22448,-0.00213
5172.15294,-0.00200
5174.08141,0.00064
5176.00988,0.01522
5177.93835,0.01457
5179.86682,-0.00025
5181.79529,0.00810
5183.72376,0.03179
5185.65222,0.04491
5187.58069,0.04670
5189.50916,0.03612
5191.43763,0.02446
5193.36610,0.03281
5195.29457,0.04804
5197.22304,0.05492
5199.15151,0.06733
5201.07997,0.07015
5203.00844,0.04439
5204.93691,0.01923
5206.86538,0.01549
5208.79385,0.01540
5210.72232,0.00696
5212.65079,-0.01017
5214.57925,-0.02442
5216.50772,-0.01141
5218.43619,0.02069
5220.36466,0.03113
5222.29313,0.02541
5224.22160,0.03129
5226.15007,0.03274
5228.07854,0.02130
5230.00700,0.01999
5231.93547,0.03339
5233.86394,0.04512
5235.79241,0.04594
5237.72088,0.04314
5239.64935,0.02731
5241.57782,-0.00616
5243.50628,-0.03059
5245.43475,-0.02279
5247.36322,0.01075
5249.29169,0.04515
5251.22016,0.07051
5253.14863,0.08015
5255.07710,0.06087
5257.00556,0.03163
5258.93403,0.02347
5260.86250,0.04146
5262.79097,0.06660
5264.71944,0.08228
5266.64791,0.08308
5268.57638,0.07707
5270.50485,0.06450
5272.43331,0.02984
5274.36178,-0.00222
5276.29025,-0.00381
5278.21872,0.00433
5280.14719,0.00653
5282.07566,0.00950
5284.00413,0.01258
5285.93259,0.01186
5287.86106,0.00988
5289.78953,0.01295
5291.71800,0.01802
5293.64647,0.02020
5295.57494,0.02910
5297.50341,0.05677
5299.43188,0.09971
5301.36034,0.12776
5303.28881,0.13039
5305.21728,0.11868
5307.14575,0.08182
5309.07422,0.03827
5311.00269,0.02092
5312.93116,0.02695
5314.85962,0.04461
5316.78809,0.06016
5318.71656,0.06617
5320.64503,0.05843
5322.57350,0.04485
5324.50197,0.02911
5326.43044,-0.00231
5328.35891,-0.01293
5330.28737,0.02652
5332.21584,0.05553
5334.14431,0.05083
5336.07278,0.06812
5338.00125,0.10190
5339.92972,0.10397
5341.85819,0.10074
5343.78665,0.11671
5345.71512,0.12237
5347.64359,0.10131
5349.57206,0.05960
5351.50053,0.01390
5353.42900,-0.00003
5355.35747,0.00565
5357.28594,0.00238
5359.21440,0.01007
5361.14287,0.03280
5363.07134,0.04825
5364.99981,0.04533
5366.92828,0.03656
5368.85675,0.03212
5370.78522,0.02879
5372.71368,0.03103
5374.64215,0.03213
5376.57062,0.03261
5378.49909,0.05790
5380.42756,0.08192
5382.35603,0.07657
5384.28450,0.06205
5386.21297,0.06170
5388.14143,0.07056
5390.06990,0.07096
5391.99837,0.05753
5393.92684,0.05612
5395.85531,0.08979
5397.78378,0.11566
5399.71225,0.09501
5401.64071,0.05846
5403.56918,0.03820
5405.49765,0.01684
5407.42612,-0.00336
5409.35459,0.01684
5411.28306,0.06312
5413.21153,0.07688
5415.13999,0.05871
5417.06846,0.05347
5418.99693,0.06085
5420.92540,0.05421
5422.85387,0.05432
5424.78234,0.08188
5426.71081,0.10391
5428.63928,0.10080
5430.56774,0.08017
5432.49621,0.05508
5434.42468,0.04159
5436.35315,0.04277
5438.28162,0.04556
5440.21009,0.04852
5442.13856,0.05152
5444.06702,0.04120
5445.99549,0.01887
5447.92396,0.00454
5449.85243,0.00685
5451.78090,0.01015
5453.70937,0.00442
5455.63784,0.00080
5457.56631,0.01096
5459.49477,0.04608
5461.42324,0.09860
5463.35171,0.11995
5465.28018,0.10691
5467.20865,0.10287
5469.13712,0.10667
5471.06559,0.11447
5472.99405,0.13017
5474.92252,0.13271
5476.85099,0.11926
5478.77946,0.09516
5480.70793,0.06685
5482.63640,0.05624
5484.56487,0.07013
5486.49334,0.09844
5488.42180,0.11045
5490.35027,0.08688
5492.27874,0.05107
5494.20721,0.02379
5496.13568,0.02064
5498.06415,0.04288
5499.99262,0.05797
5501.92108,0.06348
5503.84955,0.08301
5505.77802,0.09516
5507.70649,0.07534
5509.63496,0.05030
5511.56343,0.05209
5513.49190,0.05647
5515.42037,0.03036
5517.34883,0.00634
5519.27730,0.02278
5521.20577,0.05327
5523.13424,0.05328
5525.06271,0.02883
5526.99118,0.02005
5528.91965,0.03666
5530.84811,0.05502
5532.77658,0.07073
5534.70505,0.09166
5536.63352,0.08791
5538.56199,0.06174
5540.49046,0.06339
5542.41893,0.08636
5544.34740,0.08439
5546.27586,0.05716
5548.20433,0.05139
5550.13280,0.08501
5552.06127,0.10702
5553.98974,0.08286
5555.91821,0.05813
5557.84668,0.05789
5559.77514,0.04955
5561.70361,0.03830
5563.63208,0.03908
5565.56055,0.05037
5567.48902,0.07726
5569.41749,0.10013
5571.34596,0.10962
5573.27443,0.11484
5575.20289,0.10806
5577.13136,0.09090
5579.05983,0.07021
5580.98830,0.06055
5582.91677,0.07307
5584.84524,0.08476
5586.77371,0.09282
5588.70217,0.09848
5590.63064,0.08611
5592.55911,0.06136
5594.48758,0.04496
5596.41605,0.05685
5598.34452,0.07650
5600.27299,0.07443
5602.20145,0.06383
5604.12992,0.05574
5606.05839,0.05669
5607.98686,0.08110
5609.91533,0.11614
5611.84380,0.12492
5613.77227,0.12272
5615.70074,0.17331
5617.62920,0.25758
5619.55767,0.28247
5621.48614,0.21718
5623.41461,0.13373
5625.34308,0.11865
5627.27155,0.13725
5629.20002,0.11307
5631.12848,0.07446
5633.05695,0.03470
5634.98542,0.00250
5636.91389,0.01929
5638.84236,0.05418
5640.77083,0.06275
5642.69930,0.05854
5644.62777,0.05054
5646.55623,0.03150
5648.48470,0.01774
5650.41317,0.01725
5652.34164,0.03268
5654.27011,0.06464
5656.19858,0.07542
5658.12705,0.05677
5660.05551,0.04689
5661.98398,0.06483
5663.91245,0.08945
5665.84092,0.09386
5667.76939,0.08497
5669.69786,0.08933
5671.62633,0.11571
5673.55480,0.14563
5675.48326,0.15299
5677.41173,0.13826
5679.34020,0.12599
5681.26867,0.10884
5683.19714,0.06890
5685.12561,0.03125
5687.05408,0.03371
5688.98254,0.05042
5690.91101,0.04275
5692.83948,0.04395
5694.76795,0.06188
5696.69642,0.07286
5698.62489,0.07085
5700.55336,0.04906
5702.48183,0.01788
5704.41029,0.00134
5706.33876,0.01903
5708.26723,0.05894
5710.19570,0.09222
5712.12417,0.10115
5714.05264,0.08846
5715.98111,0.08288
5717.90957,0.07790
5719.83804,0.05598
5721.76651,0.04419
5723.69498,0.05441
5725.62345,0.05461
5727.55192,0.02898
5729.48039,0.01844
5731.40886,0.03903
5733.33732,0.04031
5735.26579,0.01888
5737.19426,0.03828
5739.12273,0.08560
5741.05120,0.09947
5742.97967,0.08748
5744.90814,0.07556
5746.83660,0.06580
5748.76507,0.05823
5750.69354,0.05691
5752.62201,0.05453
5754.55048,0.05075
5756.47895,0.06615
5758.40742,0.10168
5760.33588,0.14435
5762.26435,0.16575
5764.19282,0.14508
5766.12129,0.10356
5768.04976,0.06438
5769.97823,0.04833
5771.90670,0.05179
5773.83517,0.05318
5775.76363,0.06002
5777.69210,0.06703
5779.62057,0.05888
5781.54904,0.04946
5783.47751,0.05150
5785.40598,0.05909
5787.33445,0.08695
5789.26291,0.12813
5791.19138,0.12949
5793.11985,0.10677
5795.04832,0.11696
5796.97679,0.13582
5798.90526,0.11388
5800.83373,0.08776
5802.76220,0.09882
5804.69066,0.10463
5806.61913,0.08680
5808.54760,0.08384
5810.47607,0.09594
5812.40454,0.11158
5814.33301,0.12243
5816.26148,0.10480
5818.18994,0.08219
5820.11841,0.09738
5822.04688,0.12208
5823.97535,0.11601
5825.90382,0.09165
5827.83229,0.08019
5829.76076,0.06681
5831.68923,0.02700
5833.61769,0.02841
5835.54616,0.09490
5837.47463,0.12421
5839.40310,0.08774
5841.33157,0.05933
5843.26004,0.07077
5845.18851,0.08098
5847.11697,0.07807
5849.04544,0.09424
5850.97391,0.10386
5852.90238,0.07077
5854.83085,0.03643
5856.75932,0.03432
5858.68779,0.04810
5860.61626,0.06182
5862.54472,0.07004
5864.47319,0.08126
5866.40166,0.09456
5868.33013,0.08130
5870.25860,0.04044
5872.18707,0.00758
5874.11554,0.01778
5876.04400,0.06485
5877.97247,0.08351
5879.90094,0.06618
5881.82941,0.06242
5883.75788,0.05559
5885.68635,0.05084
5887.61482,0.06425
5889.54329,0.05248
5891.47175,0.03192
5893.40022,0.03142
5895.32869,0.03349
5897.25716,0.04208
5899.18563,0.06483
5901.11410,0.07606
5903.04257,0.05950
5904.97103,0.05239
5906.89950,0.07393
5908.82797,0.09969
5910.75644,0.12487
5912.68491,0.17228
5914.61338,0.20500
5916.54185,0.16060
5918.47032,0.07798
5920.39878,0.02455
5922.32725,0.00481
5924.25572,0.00048
5926.18419,0.00591
5928.11266,0.02634
5930.04113,0.05381
5931.96960,0.05574
5933.89806,0.04040
5935.82653,0.07034
5937.75500,0.12371
5939.68347,0.12870
5941.61194,0.09331
5943.54041,0.07345
5945.46888,0.08441
5947.39734,0.09150
5949.32581,0.07249
5951.25428,0.05758
5953.18275,0.07580
5955.11122,0.08864
5957.03969,0.06314
5958.96816,0.03496
5960.89663,0.04864
5962.82509,0.07824
5964.75356,0.08365
5966.68203,0.07249
5968.61050,0.06376
5970.53897,0.06937
5972.46744,0.07961
5974.39591,0.07227
5976.32437,0.05937
5978.25284,0.06208
5980.18131,0.04450
5982.10978,-0.01775
5984.03825,-0.03975
5985.96672,0.02072
5987.89519,0.04884
5989.82366,-0.01337
5991.75212,-0.04680
5993.68059,0.02184
5995.60906,0.09081
5997.53753,0.08679
5999.46600,0.05948
6001.39447,0.03743
6003.32294,0.02255
6005.25140,0.01505
6007.17987,-0.01015
6009.10834,-0.04014
6011.03681,-0.01495
6012.96528,0.05766
6014.89375,0.09151
6016.82222,0.04985
6018.75069,0.02390
6020.67915,0.07376
6022.60762,0.12767
6024.53609,0.14042
6026.46456,0.10203
6028.39303,0.05747
6030.32150,0.10197
6032.24997,0.15102
6034.17843,0.09369
6036.10690,0.01910
6038.03537,0.00443
6039.96384,0.04735
6041.89231,0.08921
6043.82078,0.06030
6045.74925,0.03444
6047.67772,0.07294
6049.60618,0.12539
6051.53465,0.13317
6053.46312,0.10316
6055.39159,0.08840
6057.32006,0.09632
6059.24853,0.09513
6061.17700,0.08840
6063.10546,0.09560
6065.03393,0.10746
6066.96240,0.12337
6068.89087,0.14344
6070.81934,0.12759
6072.74781,0.10357
6074.67628,0.12479
6076.60475,0.15023
6078.53321,0.16080
6080.46168,0.16615
6082.39015,0.14022
6084.31862,0.09776
6086.24709,0.06698
6088.17556,0.03759
6090.10403,0.03071
6092.03249,0.06939
6093.96096,0.08826
6095.88943,0.06361
6097.81790,0.05790
6099.74637,0.07190
6101.67484,0.06920
6103.60331,0.04165
6105.53177,0.02441
6107.46024,0.06413
6109.38871,0.13621
6111.31718,0.16679
6113.24565,0.14452
6115.17412,0.10787
6117.10259,0.08079
6119.03106,0.09543
6120.95952,0.11742
6122.88799,0.08233
6124.81646,0.04424
6126.74493,0.05654
6128.67340,0.09964
6130.60187,0.15027
6132.53034,0.16367
6134.45880,0.11486
6136.38727,0.06330
6138.31574,0.05543
6140.24421,0.07101
6142.17268,0.08597
6144.10115,0.10353
6146.02962,0.13012
6147.95809,0.11833
6149.88655,0.04971
6151.81502,0.02244
6153.74349,0.09472
6155.67196,0.16521
6157.60043,0.15266
6159.52890,0.08751
6161.45737,0.01690
6163.38583,-0.01850
6165.31430,0.01944
6167.24277,0.07763
6169.17124,0.08225
6171.09971,0.02682
6173.02818,-0.04033
6174.95665,-0.04279
6176.88512,0.02303
6178.81358,0.05205
6180.74205,0.01243
6182.67052,-0.01502
6184.59899,-0.00230
6186.52746,0.03525
6188.45593,0.08886
6190.38440,0.12214
6192.31286,0.11085
6194.24133,0.07249
6196.16980,0.04728
6198.09827,0.05569
6200.02674,0.09250
6201.95521,0.13168
6203.88368,0.11911
6205.81215,0.05737
6207.74061,0.03374
6209.66908,0.08855
6211.59755,0.14527
6213.52602,0.13714
6215.45449,0.11369
6217.38296,0.11668
6219.31143,0.11611
6221.23989,0.11266
6223.16836,0.11893
6225.09683,0.06807
6227.02530,-0.02937
6228.95377,-0.04604
6230.88224,0.03876
6232.81071,0.10697
6234.73918,0.11908
6236.66764,0.12337
6238.59611,0.10042
6240.52458,0.08938
6242.45305,0.13671
6244.38152,0.15794
6246.30999,0.08587
6248.23846,-0.01720
6250.16692,-0.06816
6252.09539,-0.09920
6254.02386,-0.12751
6255.95233,-0.06789
6257.88080,0.04726
6259.80927,0.05370
6261.73774,-0.04730
6263.66621,-0.10656
6265.59467,-0.07942
6267.52314,-0.01633
6269.45161,0.01901
6271.38008,-0.00527
6273.30855,-0.01531
6275.23702,0.04989
6277.16549,0.11390
6279.09395,0.09814
6281.02242,0.04955
6282.95089,0.03801
6284.87936,0.04235
6286.80783,0.06043
6288.73630,0.08385
6290.66477,0.04597
6292.59323,0.00029
6294.52170,0.02843
6296.45017,0.08503
6298.37864,0.12000
6300.30711,0.12278
6302.23558,0.07064
6304.16405,-0.00705
6306.09252,-0.04588
6308.02098,-0.03319
6309.94945,0.00619
6311.87792,0.02164
6313.80639,0.01697
6315.73486,0.04663
6317.66333,0.10518
6319.59180,0.16017
6321.52026,0.19564
6323.44873,0.18902
6325.37720,0.13140
6327.30567,0.06464
6329.23414,0.02880
6331.16261,0.02970
6333.09108,0.07679
6335.01955,0.14251
6336.94801,0.17167
6338.87648,0.15612
6340.80495,0.12432
6342.73342,0.09051
6344.66189,0.07569
6346.59036,0.07916
6348.51883,0.01646
6350.44729,-0.09510
6352.37576,-0.09649
6354.30423,-0.00788
6356.23270,0.03358
6358.16117,0.02838
6360.08964,0.03653
6362.01811,0.05031
6363.94658,0.03107
6365.87504,-0.02316
6367.80351,-0.02559
6369.73198,0.06657
6371.66045,0.15414
6373.58892,0.17542
6375.51739,0.18016
6377.44586,0.15942
6379.37432,0.07952
6381.30279,0.02016
6383.23126,0.05052
6385.15973,0.09445
6387.08820,0.09297
6389.01667,0.08539
6390.94514,0.06345
6392.87361,0.01433
6394.80207,-0.00531
6396.73054,-0.02029
6398.65901,-0.05551
6400.58748,-0.03377
6402.51595,0.03299
6404.44442,0.07327
6406.37289,0.11654
6408.30135,0.16306
6410.22982,0.17678
6412.15829,0.17591
6414.08676,0.14919
6416.01523,0.08554
6417.94370,0.02291
6419.87217,-0.00644
6421.80064,-0.03717
6423.72910,-0.06743
6425.65757,-0.02449
6427.58604,0.06378
6429.51451,0.08070
6431.44298,0.00863
6433.37145,-0.02490
6435.29992,0.02982
6437.22838,0.08409
6439.15685,0.09010
6441.08532,0.05012
6443.01379,-0.00627
6444.94226,0.02172
6446.87073,0.11268
6448.79920,0.12727
6450.72766,0.03837
6452.65613,-0.03755
6454.58460,-0.02241
6456.51307,0.03510
6458.44154,0.02270
6460.37001,-0.04098
6462.29848,-0.02107
6464.22695,0.06301
6466.15541,0.05749
6468.08388,-0.03781
6470.01235,-0.09217
6471.94082,-0.07485
6473.86929,-0.02713
6475.79776,0.04090
6477.72623,0.10829
6479.65469,0.14856
6481.58316,0.16472
6483.51163,0.14934
6485.44010,0.10188
6487.36857,0.07749
6489.29704,0.08521
6491.22551,0.07141
6493.15398,0.05311
6495.08244,0.07293
6497.01091,0.08673
6498.93938,0.05224
6500.86785,0.03330
6502.79632,0.07165
6504.72479,0.10221
6506.65326,0.12585
6508.58172,0.14613
6510.51019,0.13546
6512.43866,0.10610
6514.36713,0.06016
6516.29560,0.00851
6518.22407,-0.00276
6520.15254,0.04751
6522.08101,0.07927
6524.00947,0.02242
6525.93794,0.00289
6527.86641,0.08632
6529.79488,0.14671
6531.72335,0.14765
6533.65182,0.13259
6535.58029,0.16587
6537.50875,0.23116
6539.43722,0.20741
6541.36569,0.11804
6543.29416,0.03601
6545.22263,-0.00170
6547.15110,0.05446
6549.07957,0.14539
6551.00804,0.17240
6552.93650,0.10972
6554.86497,-0.00234
6556.79344,-0.08904
6558.72191,-0.09186
6560.65038,0.00808
6562.57885,0.11217
6564.50732,0.10623
6566.43578,0.02418
6568.36425,-0.03285
6570.29272,-0.00392
6572.22119,0.06689
6574.14966,0.07960
6576.07813,0.09411
6578.00660,0.18180
6579.93507,0.20854
6581.86353,0.09611
6583.79200,-0.02230
6585.72047,-0.04364
6587.64894,-0.00406
6589.57741,0.02715
6591.50588,0.02837
6593.43435,0.03674
6595.36281,0.07556
6597.29128,0.11220
6599.21975,0.09978
6601.14822,0.01331
6603.07669,-0.06673
6605.00516,-0.02493
6606.93363,0.09983
6608.86210,0.19285
6610.79056,0.25416
6612.71903,0.28295
6614.64750,0.25500
6616.57597,0.20903
6618.50444,0.12306
6620.43291,0.00110
6622.36138,-0.07933
6624.28984,-0.07929
6626.21831,-0.01106
6628.14678,0.07850
6630.07525,0.10286
6632.00372,0.03800
6633.93219,-0.03305
6635.86066,-0.03083
6637.78912,0.03950
6639.71759,0.10896
6641.64606,0.10356
6643.57453,0.04224
6645.50300,0.06749
6647.43147,0.12735
6649.35994,0.04392
6651.28841,-0.06012
6653.21687,0.00859
6655.14534,0.18259
6657.07381,0.25273
6659.00228,0.20194
6660.93075,0.14765
6662.85922,0.06596
6664.78769,-0.05335
6666.71615,-0.11989
6668.64462,-0.06722
6670.57309,0.05183
6672.50156,0.10901
6674.43003,0.09538
6676.35850,0.13987
6678.28697,0.24132
6680.21544,0.27044
6682.14390,0.19830
6684.07237,0.10786
6686.00084,0.02496
6687.92931,-0.02358
6689.85778,0.04689
6691.78625,0.17209
6693.71472,0.30296
6695.64318,0.43933
6697.57165,0.46005
6699.50012,0.32272
6701.42859,0.16649
6703.35706,0.08589
6705.28553,0.04631
6707.21400,0.05994
6709.14247,0.15678
6711.07093,0.22726
6712.99940,0.19462
6714.92787,0.11155
6716.85634,0.06370
6718.78481,0.04036
6720.71328,0.01166
6722.64175,0.00075
6724.57021,0.00209
6726.49868,-0.02605
6728.42715,-0.10334
6730.35562,-0.13131
6732.28409,-0.07273
6734.21256,-0.06092
6736.14103,-0.09097
6738.06950,-0.09605
6739.99796,-0.10172
6741.92643,-0.08232
6743.85490,-0.01254
6745.78337,0.06943
6747.71184,0.11271
6749.64031,0.11422
6751.56878,0.13496
6753.49724,0.14400
6755.42571,0.11573
6757.35418,0.12487
6759.28265,0.20734
6761.21112,0.30300
6763.13959,0.30708
6765.06806,0.22399
6766.99653,0.13060
6768.92499,0.08793
6770.85346,0.10365
6772.78193,0.10689
6774.71040,0.05332
6776.63887,0.00762
6778.56734,-0.02389
6780.49581,-0.05003
6782.42427,0.00619
6784.35274,0.07539
6786.28121,0.07206
6788.20968,0.05223
6790.13815,0.03172
6792.06662,0.01830
6793.99509,0.00413
6795.92355,-0.01062
6797.85202,0.02242
6799.78049,0.02311
6801.70896,-0.04796
6803.63743,-0.01911
6805.56590,0.07631
6807.49437,0.03983
6809.42284,-0.00763
6811.35130,0.03902
6813.27977,0.00187
6815.20824,-0.09079
6817.13671,-0.03394
6819.06518,0.06133
6820.99365,0.00217
6822.92212,-0.15218
6824.85058,-0.13740
6826.77905,0.04333
6828.70752,0.16191
6830.63599,0.15075
6832.56446,0.15592
6834.49293,0.17223
6836.42140,0.15493
6838.34987,0.18976
6840.27833,0.25348
6842.20680,0.25602
6844.13527,0.19566
6846.06374,0.11778
6847.99221,0.06497
6849.92068,0.10019
6851.84915,0.15624
6853.77761,0.13526
6855.70608,0.13161
6857.63455,0.16634
6859.56302,0.10156
6861.49149,0.00602
6863.41996,0.00090
6865.34843,-0.03063
6867.27690,-0.10893
6869.20536,-0.10574
6871.13383,-0.02583
6873.06230,0.07558
6874.99077,0.13885
6876.91924,0.14036
6878.84771,0.10074
6880.77618,0.08661
6882.70464,0.08263
6884.63311,0.03189
6886.56158,0.00528
6888.49005,0.07056
6890.41852,0.18613
6892.34699,0.23315
6894.27546,0.18745
6896.20393,0.15822
6898.13239,0.17870
6900.06086,0.12129
6901.98933,-0.01384
6903.91780,-0.05877
6905.84627,-0.02848
6907.77474,-0.01801
6909.70321,0.02453
6911.63167,0.08051
6913.56014,0.10440
6915.48861,0.05558
6917.41708,-0.07044
6919.34555,-0.12755
6921.27402,-0.04424
6923.20249,0.06592
6925.13096,0.14692
6927.05942,0.14539
6928.98789,0.04602
6930.91636,-0.02140
6932.84483,0.07507
6934.77330,0.23573
6936.70177,0.31724
6938.63024,0.29929
6940.55870,0.22094
6942.48717,0.17356
6944.41564,0.16024
6946.34411,0.09978
6948.27258,0.00726
6950.20105,-0.06911
6952.12952,-0.13851
6954.05799,-0.09570
6955.98645,0.11994
6957.91492,0.25552
6959.84339,0.19385
6961.77186,0.04728
6963.70033,-0.02342
6965.62880,0.02840
6967.55727,0.14068
6969.48573,0.21218
6971.41420,0.18297
6973.34267,0.16937
6975.27114,0.21666
6977.19961,0.16036
6979.12808,0.03988
6981.05655,-0.01454
6982.98501,-0.01973
6984.91348,0.01951
6986.84195,0.05677
6988.77042,0.02851
6990.69889,0.05700
6992.62736,0.17291
6994.55583,0.26536
6996.48430,0.31304
6998.41276,0.36440
7000.34123,0.35087
7002.26970,0.16706
7004.19817,-0.05387
7006.12664,-0.12335
7008.05511,-0.04891
7009.98358,0.00914
7011.91204,-0.02067
7013.84051,-0.09025
7015.76898,-0.12390
7017.69745,-0.11837
7019.62592,-0.04578
7021.55439,0.09576
7023.48286,0.16980
7025.41133,0.10726
7027.33979,0.07837
7029.26826,0.17347
7031.19673,0.20284
7033.12520,0.15608
7035.05367,0.21370
7036.98214,0.32840
7038.91061,0.33872
7040.83907,0.19867
7042.76754,0.01333
7044.69601,-0.03473
7046.62448,-0.02287
7048.55295,0.01058
7050.48142,0.10217
7052.40989,0.10097
7054.33836,-0.01833
7056.26682,-0.05670
7058.19529,0.02814
7060.12376,0.09960
7062.05223,0.10833
7063.98070,0.03956
7065.90917,-0.06082
7067.83764,-0.10686
7069.76610,-0.05745
7071.69457,0.05249
7073.62304,0.07645
7075.55151,0.00800
7077.47998,-0.06899
7079.40845,-0.16153
7081.33692,-0.20993
7083.26539,-0.13811
7085.19385,-0.05951
7087.12232,-0.02997
7089.05079,-0.05548
7090.97926,-0.10637
7092.90773,-0.10665
7094.83620,-0.04413
7096.76467,0.05736
7098.69313,0.20419
7100.62160,0.26984
7102.55007,0.18210
7104.47854,0.07111
7106.40701,0.07274
7108.33548,0.13987
7110.26395,0.15324
7112.19242,0.09177
7114.12088,-0.02188
7116.04935,-0.10222
7117.97782,-0.00452
7119.90629,0.14852
7121.83476,0.17501
7123.76323,0.09423
7125.69170,-0.07136
7127.62016,-0.16387
7129.54863,-0.09280
7131.47710,-0.03344
7133.40557,-0.04562
7135.33404,-0.02050
7137.26251,0.08297
7139.19098,0.22662
7141.11944,0.30796
7143.04791,0.26726
7144.97638,0.12940
7146.90485,0.01174
7148.83332,0.04477
7150.76179,0.14638
7152.69026,0.18612
7154.61873,0.14369
7156.54719,0.06732
7158.47566,0.02585
7160.40413,0.02114
7162.33260,-0.00073
7164.26107,0.05058
7166.18954,0.21546
7168.11801,0.28353
7170.04647,0.15729
7171.97494,0.04973
7173.90341,0.06573
7175.83188,-0.03903
7177.76035,-0.22091
7179.68882,-0.25932
7181.61729,-0.22902
7183.54576,-0.09854
7185.47422,0.06039
7187.40269,0.16092
7189.33116,0.27281
7191.25963,0.25269
7193.18810,0.04758
7195.11657,-0.12824
7197.04504,-0.14989
7198.97350,-0.02930
7200.90197,0.08066
7202.83044,0.06153
7204.75891,-0.13875
7206.68738,-0.35834
7208.61585,-0.32463
7210.54432,-0.08923
7212.47279,0.14217
7214.40125,0.26962
7216.32972,0.25376
7218.25819,0.16050
7220.18666,0.17386
7222.11513,0.20101
7224.04360,0.18096
7225.97207,0.17171
7227.90053,0.25489
7229.82900,0.34679
7231.75747,0.21878
7233.68594,-0.01708
7235.61441,-0.14780
7237.54288,-0.18580
7239.47135,-0.08639
7241.39982,0.14605
7243.32828,0.34996
7245.25675,0.34655
7247.18522,0.20573
7249.11369,0.03127
7251.04216,-0.17117
7252.97063,-0.36792
7254.89910,-0.29916
7256.82756,-0.06468
7258.75603,0.08415
7260.68450,0.12018
7262.61297,0.18834
7264.54144,0.34481
7266.46991,0.50475
7268.39838,0.48994
7270.32685,0.24382
7272.25531,-0.01471
7274.18378,-0.06661
7276.11225,0.01677
7278.04072,0.20831
7279.96919,0.40219
7281.89766,0.39281
7283.82613,0.32504
7285.75459,0.25218
7287.68306,0.08551
7289.61153,-0.05603
7291.54000,-0.01311
7293.46847,0.08198
7295.39694,0.10944
7297.32541,0.12648
7299.25387,0.14830
7301.18234,0.09769
7303.11081,-0.09069
7305.03928,-0.20948
7306.96775,0.01724
7308.89622,0.39160
7310.82469,0.41594
7312.75316,0.15797
7314.68162,-0.00131
7316.61009,0.07332
7318.53856,0.18993
7320.46703,0.30765
7322.39550,0.35073
7324.32397,0.22549
7326.25244,0.22384
7328.18090,0.47299
7330.10937,0.52747
7332.03784,0.17542
7333.96631,-0.07658
7335.89478,-0.01820
7337.82325,0.24950
7339.75172,0.58810
7341.68019,0.54968
7343.60865,0.25748
7345.53712,0.08919
7347.46559,0.12929
7349.39406,0.21201
7351.32253,0.32363
7353.25100,0.46639
7355.17947,0.43034
7357.10793,0.20553
7359.03640,0.07578
7360.96487,0.12515
7362.89334,0.14125
7364.82181,0.12926
7366.75028,0.17196
7368.67875,0.13507
7370.60722,-0.01110
7372.53568,-0.15465
7374.46415,-0.20175
7376.39262,-0.08593
7378.32109,0.01192
7380.24956,0.13284
7382.17803,0.27327
7384.10650,0.32273
7386.03496,0.28060
7387.96343,0.09973
7389.89190,-0.09326
7391.82037,-0.15002
7393.74884,-0.02844
7395.67731,0.12259
7397.60578,0.01313
7399.53425,-0.21191
7401.46271,-0.29413
7403.39118,-0.26140
7405.31965,-0.05618
7407.24812,0.27537
7409.17659,0.35910
7411.10506,0.19114
7413.03353,0.12922
7414.96199,0.15957
7416.89046,0.12625
7418.81893,0.15332
7420.74740,0.30566
7422.67587,0.33771
7424.60434,0.29303
7426.53281,0.22980
7428.46128,0.10832
7430.38974,-0.02700
7432.31821,-0.09176
7434.24668,-0.08941
7436.17515,-0.04294
7438.10362,0.01909
7440.03209,0.05604
7441.96056,0.05048
7443.88902,0.10019
7445.81749,0.21893
7447.74596,0.24084
7449.67443,0.08407
7451.60290,-0.06409
7453.53137,-0.04823
7455.45984,-0.02232
7457.38831,-0.07591
7459.31677,-0.12925
7461.24524,0.02192
7463.17371,0.28759
7465.10218,0.27948
7467.03065,-0.01115
7468.95912,-0.17152
7470.88759,-0.17902
7472.81605,-0.27388
7474.74452,-0.38507
7476.67299,-0.28233
7478.60146,-0.06097
7480.52993,-0.06701
7482.45840,-0.19043
7484.38687,-0.09543
7486.31533,0.15990
7488.24380,0.45309
7490.17227,0.60538
7492.10074,0.42730
7494.02921,0.15574
7495.95768,0.07629
7497.88615,0.28874
