399.19301,-0.77923
401.12148,0.07192
403.04995,0.71198
404.97842,0.71604
406.90689,0.51788
408.83536,0.36346
410.76382,0.30844
412.69229,0.32979
414.62076,0.24805
416.54923,-0.09536
418.47770,-0.57426
420.40617,-0.61175
422.33464,-0.32374
424.26311,-0.11310
426.19157,-0.04106
428.12004,0.04107
430.04851,0.11818
431.97698,0.06881
433.90545,-0.02378
435.83392,-0.07632
437.76239,-0.11187
439.69085,-0.12622
441.61932,-0.09440
443.54779,-0.03096
445.47626,0.06029
447.40473,0.15931
449.33320,0.25140
451.26167,0.28617
453.19013,0.27687
455.11860,0.29327
457.04707,0.29333
458.97554,0.18292
460.90401,0.05392
462.83248,0.02500
464.76095,-0.00341
466.68942,-0.07934
468.61788,-0.07588
470.54635,0.01760
472.47482,0.12042
474.40329,0.18482
476.33176,0.14860
478.26023,0.05718
480.18870,0.00431
482.11716,0.00753
484.04563,-0.00003
485.97410,-0.05094
487.90257,-0.05292
489.83104,0.02576
491.75951,0.12105
493.68798,0.22886
495.61645,0.30323
497.54491,0.25913
499.47338,0.16167
501.40185,0.11026
503.33032,0.07557
505.25879,0.01410
507.18726,-0.02122
509.11573,-0.00800
511.04419,-0.00523
512.97266,-0.00614
514.90113,0.02465
516.82960,0.05779
518.75807,0.05876
520.68654,0.04396
522.61501,0.03216
524.54348,0.03153
526.47194,0.03949
528.40041,0.03962
530.32888,0.01327
532.25735,-0.01845
534.18582,-0.00024
536.11429,0.05975
538.04276,0.11396
539.97122,0.13727
541.89969,0.11859
543.82816,0.06098
545.75663,0.00326
547.68510,-0.01223
549.61357,0.07897
551.54204,0.33106
553.47051,0.50092
555.39897,0.37387
557.32744,0.18901
559.25591,0.14135
561.18438,0.11375
563.11285,0.05302
565.04132,0.01908
566.96979,0.02483
568.89825,0.02535
570.82672,0.00396
572.75519,0.01078
574.68366,0.05183
576.61213,0.07476
578.54060,0.08507
580.46907,0.09715
582.39754,0.09700
584.32600,0.09354
586.25447,0.08914
588.18294,0.07651
590.11141,0.06463
592.03988,0.06145
593.96835,0.08164
595.89682,0.10952
597.82528,0.12304
599.75375,0.12966
601.68222,0.12088
603.61069,0.09437
605.53916,0.06014
607.46763,0.03672
609.39610,0.04710
611.32456,0.08052
613.25303,0.10645
615.18150,0.11249
617.10997,0.10165
619.03844,0.08923
620.96691,0.09503
622.89538,0.10974
624.82385,0.12092
626.75231,0.11466
628.68078,0.08557
630.60925,0.06044
632.53772,0.06598
634.46619,0.09477
636.39466,0.10435
638.32313,0.10155
640.25159,0.12474
642.18006,0.16189
644.10853,0.17316
646.03700,0.14872
647.96547,0.10527
649.89394,0.06581
651.82241,0.05516
653.75088,0.06054
655.67934,0.05828
657.60781,0.05374
659.53628,0.05283
661.46475,0.05921
663.39322,0.07019
665.32169,0.07654
667.25016,0.08991
669.17862,0.11759
671.10709,0.11369
673.03556,0.08335
674.96403,0.05908
676.89250,0.06791
678.82097,0.09495
680.74944,0.10626
682.67791,0.09927
684.60637,0.09526
686.53484,0.10391
688.46331,0.11107
690.39178,0.10504
692.32025,0.09054
694.24872,0.07748
696.17719,0.07211
698.10565,0.07496
700.03412,0.08022
701.96259,0.08375
703.89106,0.09135
705.81953,0.10450
707.74800,0.10790
709.67647,0.09641
711.60494,0.08902
713.53340,0.09192
715.46187,0.09114
717.39034,0.08489
719.31881,0.08872
721.24728,0.10602
723.17575,0.12243
725.10422,0.13035
727.03268,0.12760
728.96115,0.11775
730.88962,0.10729
732.81809,0.09522
734.74656,0.08053
736.67503,0.06780
738.60350,0.06919
740.53197,0.08527
742.46043,0.10077
744.38890,0.11493
746.31737,0.12635
748.24584,0.12322
750.17431,0.10790
752.10278,0.09322
754.03125,0.09246
755.95971,0.10486
757.88818,0.11306
759.81665,0.11160
761.74512,0.10955
763.67359,0.10876
765.60206,0.10516
767.53053,0.09985
769.45900,0.09452
771.38746,0.09431
773.31593,0.10470
775.24440,0.10962
777.17287,0.09476
779.10134,0.08113
781.02981,0.08799
782.95828,0.10477
784.88674,0.11221
786.81521,0.10519
788.74368,0.10052
790.67215,0.10613
792.60062,0.10354
794.52909,0.08947
796.45756,0.08711
798.38602,0.10052
800.31449,0.10914
802.24296,0.10690
804.17143,0.11213
806.09990,0.13048
808.02837,0.14358
809.95684,0.13487
811.88531,0.10818
813.81377,0.08594
815.74224,0.08138
817.67071,0.08349
819.59918,0.07967
821.52765,0.07473
823.45612,0.08251
825.38459,0.09850
827.31305,0.10942
829.24152,0.11727
831.16999,0.12346
833.09846,0.12915
835.02693,0.13091
836.95540,0.11535
838.88387,0.09282
840.81234,0.08848
842.74080,0.10320
844.66927,0.10861
846.59774,0.10120
848.52621,0.11431
850.45468,0.14111
852.38315,0.14783
854.31162,0.13474
856.24008,0.12118
858.16855,0.11319
860.09702,0.10477
862.02549,0.09326
863.95396,0.08175
865.88243,0.08631
867.81090,0.11061
869.73937,0.12358
871.66783,0.11349
873.59630,0.10250
875.52477,0.09944
877.45324,0.10443
879.38171,0.11484
881.31018,0.11878
883.23865,0.11560
885.16711,0.11225
887.09558,0.10681
889.02405,0.09980
890.95252,0.10136
892.88099,0.10927
894.80946,0.11360
896.73793,0.11593
898.66640,0.11951
900.59486,0.12523
902.52333,0.13017
904.45180,0.12628
906.38027,0.11498
908.30874,0.11105
910.23721,0.11941
912.16568,0.12843
914.09414,0.12598
916.02261,0.11181
917.95108,0.10214
919.87955,0.10228
921.80802,0.10196
923.73649,0.10476
925.66496,0.11199
927.59343,0.11265
929.52189,0.10632
931.45036,0.10271
933.37883,0.11104
935.30730,0.12827
937.23577,0.13865
939.16424,0.13094
941.09271,0.11291
943.02117,0.10694
944.94964,0.11491
946.87811,0.12221
948.80658,0.12370
950.73505,0.12012
952.66352,0.11895
954.59199,0.12488
956.52045,0.13005
958.44892,0.12692
960.37739,0.11988
962.30586,0.11804
964.23433,0.12156
966.16280,0.12576
968.09127,0.12748
970.01974,0.12392
971.94820,0.11824
973.87667,0.11567
975.80514,0.11697
977.73361,0.12248
979.66208,0.12411
981.59055,0.11760
983.51902,0.11422
985.44748,0.11668
987.37595,0.11521
989.30442,0.10641
991.23289,0.09863
993.16136,0.09630
995.08983,0.10215
997.01830,0.11507
998.94677,0.12341
1000.87523,0.12460
1002.80370,0.12526
1004.73217,0.12872
1006.66064,0.12751
1008.58911,0.12368
1010.51758,0.12773
1012.44605,0.13338
1014.37451,0.13780
1016.30298,0.14278
1018.23145,0.14153
1020.15992,0.13491
1022.08839,0.12788
1024.01686,0.12925
1025.94533,0.16403
1027.87380,0.19744
1029.80226,0.16538
1031.73073,0.11721
1033.65920,0.11007
1035.58767,0.11814
1037.51614,0.12111
1039.44461,0.12175
1041.37308,0.12446
1043.30154,0.12773
1045.23001,0.12855
1047.15848,0.12561
1049.08695,0.12313
1051.01542,0.12732
1052.94389,0.12773
1054.87236,0.11779
1056.80083,0.11525
1058.72929,0.12617
1060.65776,0.13652
1062.58623,0.14321
1064.51470,0.14311
1066.44317,0.13360
1068.37164,0.12806
1070.30011,0.13517
1072.22857,0.14426
1074.15704,0.14559
1076.08551,0.14234
1078.01398,0.13727
1079.94245,0.13323
1081.87092,0.13087
1083.79939,0.13470
1085.72786,0.14413
1087.65632,0.14268
1089.58479,0.13142
1091.51326,0.12893
1093.44173,0.13977
1095.37020,0.14848
1097.29867,0.14530
1099.22714,0.14001
1101.15560,0.13778
1103.08407,0.13541
1105.01254,0.13573
1106.94101,0.14036
1108.86948,0.14384
1110.79795,0.14254
1112.72642,0.13789
1114.65489,0.13187
1116.58335,0.13049
1118.51182,0.13668
1120.44029,0.14039
1122.36876,0.13782
1124.29723,0.13540
1126.22570,0.13565
1128.15417,0.13566
1130.08263,0.13096
1132.01110,0.12310
1133.93957,0.11976
1135.86804,0.12488
1137.79651,0.12906
1139.72498,0.12987
1141.65345,0.13903
1143.58191,0.15076
1145.51038,0.15087
1147.43885,0.14207
1149.36732,0.13276
1151.29579,0.12877
1153.22426,0.13196
1155.15273,0.13485
1157.08120,0.13395
1159.00966,0.13665
1160.93813,0.14261
1162.86660,0.14401
1164.79507,0.14243
1166.72354,0.14332
1168.65201,0.14529
1170.58048,0.14531
1172.50894,0.14032
1174.43741,0.13455
1176.36588,0.13729
1178.29435,0.14350
1180.22282,0.14396
1182.15129,0.15163
1184.07976,0.18378
1186.00823,0.20968
1187.93669,0.19219
1189.86516,0.15782
1191.79363,0.13742
1193.72210,0.12915
1195.65057,0.13232
1197.57904,0.13908
1199.50751,0.13798
1201.43597,0.13599
1203.36444,0.14133
1205.29291,0.14581
1207.22138,0.14229
1209.14985,0.13879
1211.07832,0.13924
1213.00679,0.13827
1214.93526,0.13715
1216.86372,0.13810
1218.79219,0.13748
1220.72066,0.13438
1222.64913,0.13350
1224.57760,0.13729
1226.50607,0.14395
1228.43454,0.15090
1230.36300,0.15423
1232.29147,0.15142
1234.21994,0.14360
1236.14841,0.13937
1238.07688,0.14379
1240.00535,0.14689
1241.93382,0.14434
1243.86229,0.14345
1245.79075,0.14715
1247.71922,0.15226
1249.64769,0.15286
1251.57616,0.14521
1253.50463,0.13667
1255.43310,0.13533
1257.36157,0.13379
1259.29003,0.12490
1261.21850,0.11659
1263.14697,0.11548
1265.07544,0.11952
1267.00391,0.12636
1268.93238,0.13266
1270.86085,0.13667
1272.78932,0.13710
1274.71778,0.13251
1276.64625,0.12988
1278.57472,0.13469
1280.50319,0.13824
1282.43166,0.13691
1284.36013,0.13877
1286.28860,0.14033
1288.21706,0.13885
1290.14553,0.14229
1292.07400,0.14679
1294.00247,0.14521
1295.93094,0.13877
1297.85941,0.12961
1299.78788,0.11803
1301.71634,0.10280
1303.64481,0.09026
1305.57328,0.09907
1307.50175,0.13040
1309.43022,0.15365
1311.35869,0.15643
1313.28716,0.15598
1315.21563,0.15748
1317.14409,0.15556
1319.07256,0.15026
1321.00103,0.14536
1322.92950,0.14503
1324.85797,0.14510
1326.78644,0.14274
1328.71491,0.14233
1330.64337,0.14082
1332.57184,0.13933
1334.50031,0.13996
1336.42878,0.13729
1338.35725,0.13473
1340.28572,0.11983
1342.21419,0.08261
1344.14266,0.06224
1346.07112,0.08680
1347.99959,0.12729
1349.92806,0.14305
1351.85653,0.13950
1353.78500,0.13813
1355.71347,0.14108
1357.64194,0.14507
1359.57040,0.14966
1361.49887,0.15342
1363.42734,0.15047
1365.35581,0.14511
1367.28428,0.14872
1369.21275,0.15901
1371.14122,0.16671
1373.06969,0.17012
1374.99815,0.17073
1376.92662,0.16570
1378.85509,0.15763
1380.78356,0.15389
1382.71203,0.15619
1384.64050,0.16288
1386.56897,0.16923
1388.49743,0.16914
1390.42590,0.16767
1392.35437,0.17216
1394.28284,0.18113
1396.21131,0.18542
1398.13978,0.18234
1400.06825,0.17685
1401.99672,0.17360
1403.92518,0.17198
1405.85365,0.16763
1407.78212,0.16494
1409.71059,0.16641
1411.63906,0.16576
1413.56753,0.16562
1415.49600,0.17414
1417.42446,0.18925
1419.35293,0.19167
1421.28140,0.17653
1423.20987,0.16591
1425.13834,0.16320
1427.06681,0.16567
1428.99528,0.17256
1430.92375,0.17680
1432.85221,0.17773
1434.78068,0.18212
1436.70915,0.18264
1438.63762,0.17400
1440.56609,0.16775
1442.49456,0.16356
1444.42303,0.16155
1446.35149,0.16636
1448.27996,0.17376
1450.20843,0.17605
1452.13690,0.17950
1454.06537,0.19457
1455.99384,0.21746
1457.92231,0.21125
1459.85077,0.18459
1461.77924,0.17682
1463.70771,0.18020
1465.63618,0.18097
1467.56465,0.17983
1469.49312,0.18643
1471.42159,0.19983
1473.35006,0.20422
1475.27852,0.19347
1477.20699,0.18324
1479.13546,0.18118
1481.06393,0.18374
1482.99240,0.18341
1484.92087,0.18475
1486.84934,0.19386
1488.77780,0.20373
1490.70627,0.19903
1492.63474,0.18747
1494.56321,0.18596
1496.49168,0.19450
1498.42015,0.19579
1500.34862,0.19078
1502.27709,0.19403
1504.20555,0.20626
1506.13402,0.22920
1508.06249,0.23290
1509.99096,0.20882
1511.91943,0.19569
1513.84790,0.19987
1515.77637,0.21488
1517.70483,0.22729
1519.63330,0.23541
1521.56177,0.24099
1523.49024,0.22687
1525.41871,0.20672
1527.34718,0.19594
1529.27565,0.19398
1531.20412,0.20021
1533.13258,0.20849
1535.06105,0.20370
1536.98952,0.20087
1538.91799,0.22492
1540.84646,0.26494
1542.77493,0.25459
1544.70340,0.22085
1546.63186,0.19923
1548.56033,0.19577
1550.48880,0.19731
1552.41727,0.19644
1554.34574,0.20344
1556.27421,0.22781
1558.20268,0.26273
1560.13115,0.24117
1562.05961,0.20643
1563.98808,0.19632
1565.91655,0.19565
1567.84502,0.19721
1569.77349,0.19502
1571.70196,0.18744
1573.63043,0.18678
1575.55889,0.19471
1577.48736,0.19764
1579.41583,0.19345
1581.34430,0.18910
1583.27277,0.18186
1585.20124,0.17451
1587.12971,0.17533
1589.05818,0.18242
1590.98664,0.18690
1592.91511,0.18566
1594.84358,0.18018
1596.77205,0.17512
1598.70052,0.17647
1600.62899,0.18196
1602.55746,0.18554
1604.48592,0.18539
1606.41439,0.18387
1608.34286,0.18378
1610.27133,0.18227
1612.19980,0.17791
1614.12827,0.17977
1616.05674,0.19427
1617.98521,0.20307
1619.91367,0.19965
1621.84214,0.19872
1623.77061,0.19782
1625.69908,0.19703
1627.62755,0.19813
1629.55602,0.19470
1631.48449,0.19389
1633.41295,0.20470
1635.34142,0.21940
1637.26989,0.21052
1639.19836,0.19429
1641.12683,0.19098
1643.05530,0.19922
1644.98377,0.21766
1646.91223,0.23423
1648.84070,0.22715
1650.76917,0.22476
1652.69764,0.23879
1654.62611,0.22561
1656.55458,0.19921
1658.48305,0.18425
1660.41152,0.18226
1662.33998,0.19328
1664.26845,0.19927
1666.19692,0.19864
1668.12539,0.20616
1670.05386,0.21342
1671.98233,0.20892
1673.91080,0.20603
1675.83926,0.20062
1677.76773,0.19157
1679.69620,0.19430
1681.62467,0.21606
1683.55314,0.24731
1685.48161,0.24335
1687.41008,0.21855
1689.33855,0.20215
1691.26701,0.19290
1693.19548,0.19486
1695.12395,0.21187
1697.05242,0.23311
1698.98089,0.23833
1700.90936,0.22317
1702.83783,0.20798
1704.76629,0.20430
1706.69476,0.20362
1708.62323,0.19894
1710.55170,0.19398
1712.48017,0.19620
1714.40864,0.20948
1716.33711,0.22466
1718.26558,0.21569
1720.19404,0.19498
1722.12251,0.18515
1724.05098,0.18204
1725.97945,0.18167
1727.90792,0.18745
1729.83639,0.19831
1731.76486,0.21061
1733.69332,0.21825
1735.62179,0.20963
1737.55026,0.20177
1739.47873,0.20258
1741.40720,0.20475
1743.33567,0.20609
1745.26414,0.21008
1747.19261,0.21406
1749.12107,0.21331
1751.04954,0.20457
1752.97801,0.19374
1754.90648,0.19044
1756.83495,0.19069
1758.76342,0.18859
1760.69189,0.19005
1762.62035,0.19166
1764.54882,0.18780
1766.47729,0.18875
1768.40576,0.19983
1770.33423,0.21615
1772.26270,0.22316
1774.19117,0.20802
1776.11964,0.19149
1778.04810,0.18740
1779.97657,0.18792
1781.90504,0.18485
1783.83351,0.18438
1785.76198,0.18667
1787.69045,0.18715
1789.61892,0.19146
1791.54738,0.20114
1793.47585,0.20508
1795.40432,0.20273
1797.33279,0.20107
1799.26126,0.19904
1801.18973,0.19292
1803.11820,0.18492
1805.04666,0.18124
1806.97513,0.18393
1808.90360,0.19187
1810.83207,0.19813
1812.76054,0.19565
1814.68901,0.18488
1816.61748,0.16898
1818.54595,0.15940
1820.47441,0.16484
1822.40288,0.17710
1824.33135,0.18550
1826.25982,0.18994
1828.18829,0.19718
1830.11676,0.20286
1832.04523,0.19866
1833.97369,0.19237
1835.90216,0.18914
1837.83063,0.18465
1839.75910,0.17971
1841.68757,0.18176
1843.61604,0.18966
1845.54451,0.19284
1847.47298,0.19033
1849.40144,0.18693
1851.32991,0.18486
1853.25838,0.18557
1855.18685,0.18787
1857.11532,0.19013
1859.04379,0.19043
1860.97226,0.18761
1862.90072,0.18320
1864.82919,0.18278
1866.75766,0.19083
1868.68613,0.19896
1870.61460,0.19592
1872.54307,0.18905
1874.47154,0.18530
1876.40001,0.18369
1878.32847,0.18223
1880.25694,0.18192
1882.18541,0.18365
1884.11388,0.18485
1886.04235,0.18518
1887.97082,0.18873
1889.89929,0.19336
1891.82775,0.19256
1893.75622,0.18840
1895.68469,0.18391
1897.61316,0.18153
1899.54163,0.18396
1901.47010,0.18643
1903.39857,0.18509
1905.32704,0.18380
1907.25550,0.18452
1909.18397,0.18646
1911.11244,0.18831
1913.04091,0.18870
1914.96938,0.19019
1916.89785,0.19364
1918.82632,0.19390
1920.75478,0.19217
1922.68325,0.19180
1924.61172,0.18995
1926.54019,0.18791
1928.46866,0.18648
1930.39713,0.18498
1932.32560,0.18571
1934.25407,0.18762
1936.18253,0.18705
1938.11100,0.18431
1940.03947,0.18579
1941.96794,0.19199
1943.89641,0.19305
1945.82488,0.18891
1947.75335,0.18761
1949.68181,0.18849
1951.61028,0.18687
1953.53875,0.18469
1955.46722,0.18379
1957.39569,0.18294
1959.32416,0.18567
1961.25263,0.19015
1963.18110,0.18962
1965.10956,0.18677
1967.03803,0.18556
1968.96650,0.18397
1970.89497,0.18297
1972.82344,0.18578
1974.75191,0.19157
1976.68038,0.19575
1978.60884,0.19517
1980.53731,0.19080
1982.46578,0.18500
1984.39425,0.18223
1986.32272,0.18406
1988.25119,0.18631
1990.17966,0.18756
1992.10812,0.18907
1994.03659,0.18912
1995.96506,0.18705
1997.89353,0.18590
1999.82200,0.18576
2001.75047,0.18593
2003.67894,0.18643
2005.60741,0.18453
2007.53587,0.18262
2009.46434,0.18424
2011.39281,0.18686
2013.32128,0.18835
2015.24975,0.18934
2017.17822,0.18997
2019.10669,0.19054
2021.03515,0.19199
2022.96362,0.19191
2024.89209,0.18856
2026.82056,0.18503
2028.74903,0.18419
2030.67750,0.18585
2032.60597,0.18881
2034.53444,0.19186
2036.46290,0.19189
2038.39137,0.18900
2040.31984,0.18843
2042.24831,0.19025
2044.17678,0.19124
2046.10525,0.19117
2048.03372,0.18892
2049.96218,0.18436
2051.89065,0.18147
2053.81912,0.18405
2055.74759,0.18907
2057.67606,0.19052
2059.60453,0.18882
2061.53300,0.18837
2063.46147,0.18930
2065.38993,0.18709
2067.31840,0.18282
2069.24687,0.18222
2071.17534,0.18499
2073.10381,0.18753
2075.03228,0.18879
2076.96075,0.18918
2078.88921,0.18795
2080.81768,0.18593
2082.74615,0.18553
2084.67462,0.18581
2086.60309,0.18545
2088.53156,0.18597
2090.46003,0.18673
2092.38850,0.18495
2094.31696,0.18263
2096.24543,0.18375
2098.17390,0.18759
2100.10237,0.19075
2102.03084,0.19091
2103.95931,0.18946
2105.88778,0.18882
2107.81624,0.18816
2109.74471,0.18701
2111.67318,0.18629
2113.60165,0.18665
2115.53012,0.18685
2117.45859,0.18481
2119.38706,0.18317
2121.31553,0.18508
2123.24399,0.18859
2125.17246,0.19124
2127.10093,0.19255
2129.02940,0.19284
2130.95787,0.19346
2132.88634,0.19295
2134.81481,0.18980
2136.74327,0.18877
2138.67174,0.19051
2140.60021,0.18994
2142.52868,0.18812
2144.45715,0.18968
2146.38562,0.19394
2148.31409,0.19487
2150.24255,0.19053
2152.17102,0.18580
2154.09949,0.18417
2156.02796,0.18619
2157.95643,0.18979
2159.88490,0.19135
2161.81337,0.19117
2163.74184,0.19203
2165.67030,0.19345
2167.59877,0.19250
2169.52724,0.18965
2171.45571,0.18806
2173.38418,0.18815
2175.31265,0.18865
2177.24112,0.18866
2179.16958,0.18873
2181.09805,0.18949
2183.02652,0.18966
2184.95499,0.18942
2186.88346,0.18943
2188.81193,0.18944
2190.74040,0.19043
2192.66887,0.19121
2194.59733,0.19088
2196.52580,0.19146
2198.45427,0.19085
2200.38274,0.18778
2202.31121,0.18708
2204.23968,0.19037
2206.16815,0.19332
2208.09661,0.19329
2210.02508,0.19210
2211.95355,0.19127
2213.88202,0.19021
2215.81049,0.18833
2217.73896,0.18761
2219.66743,0.19013
2221.59590,0.19384
2223.52436,0.19632
2225.45283,0.19740
2227.38130,0.19837
2229.30977,0.19923
2231.23824,0.19755
2233.16671,0.19434
2235.09518,0.19211
2237.02364,0.19101
2238.95211,0.19232
2240.88058,0.19427
2242.80905,0.19320
2244.73752,0.19070
2246.66599,0.18905
2248.59446,0.18979
2250.52293,0.19253
2252.45139,0.19328
2254.37986,0.19130
2256.30833,0.18827
2258.23680,0.18595
2260.16527,0.18682
2262.09374,0.18877
2264.02221,0.18821
2265.95067,0.18795
2267.87914,0.19182
2269.80761,0.19590
2271.73608,0.19613
2273.66455,0.19554
2275.59302,0.19564
2277.52149,0.19494
2279.44996,0.19235
2281.37842,0.18912
2283.30689,0.18975
2285.23536,0.19227
2287.16383,0.19200
2289.09230,0.19258
2291.02077,0.19669
2292.94924,0.20051
2294.87770,0.20146
2296.80617,0.20005
2298.73464,0.19690
2300.66311,0.19381
2302.59158,0.19299
2304.52005,0.19515
2306.44852,0.20081
2308.37699,0.20707
2310.30545,0.21099
2312.23392,0.21563
2314.16239,0.22065
2316.09086,0.22287
2318.01933,0.22533
2319.94780,0.22992
2321.87627,0.23058
2323.80473,0.22485
2325.73320,0.22154
2327.66167,0.22675
2329.59014,0.23361
2331.51861,0.23381
2333.44708,0.23346
2335.37555,0.24060
2337.30401,0.24981
2339.23248,0.25063
2341.16095,0.24253
2343.08942,0.23185
2345.01789,0.22475
2346.94636,0.22550
2348.87483,0.22683
2350.80330,0.22331
2352.73176,0.22185
2354.66023,0.23332
2356.58870,0.24482
2358.51717,0.23520
2360.44564,0.22312
2362.37411,0.23712
2364.30258,0.25829
2366.23104,0.25528
2368.15951,0.23766
2370.08798,0.22790
2372.01645,0.22149
2373.94492,0.21227
2375.87339,0.20721
2377.80186,0.20758
2379.73033,0.20796
2381.65879,0.20349
2383.58726,0.19580
2385.51573,0.19104
2387.44420,0.19061
2389.37267,0.19177
2391.30114,0.19206
2393.22961,0.19215
2395.15807,0.19422
2397.08654,0.19472
2399.01501,0.19126
2400.94348,0.18957
2402.87195,0.19158
2404.80042,0.19319
2406.72889,0.19288
2408.65736,0.19140
2410.58582,0.19042
2412.51429,0.19017
2414.44276,0.18980
2416.37123,0.19025
2418.29970,0.19144
2420.22817,0.19251
2422.15664,0.19327
2424.08510,0.19319
2426.01357,0.19195
2427.94204,0.19030
2429.87051,0.19018
2431.79898,0.19321
2433.72745,0.19726
2435.65592,0.19880
2437.58439,0.19769
2439.51285,0.19639
2441.44132,0.19757
2443.36979,0.19821
2445.29826,0.19367
2447.22673,0.18827
2449.15520,0.18895
2451.08367,0.19336
2453.01213,0.19571
2454.94060,0.19778
2456.86907,0.20099
2458.79754,0.20106
2460.72601,0.19738
2462.65448,0.19424
2464.58295,0.19330
2466.51142,0.19235
2468.43988,0.19024
2470.36835,0.18785
2472.29682,0.18748
2474.22529,0.19066
2476.15376,0.19465
2478.08223,0.19619
2480.01070,0.19613
2481.93916,0.19715
2483.86763,0.19936
2485.79610,0.20100
2487.72457,0.20002
2489.65304,0.19460
2491.58151,0.18904
2493.50998,0.18936
2495.43844,0.19316
2497.36691,0.19662
2499.29538,0.19950
2501.22385,0.19967
2503.15232,0.19634
2505.08079,0.19510
2507.00926,0.19927
2508.93773,0.20348
2510.86619,0.20152
2512.79466,0.19585
2514.72313,0.19360
2516.65160,0.19527
2518.58007,0.19750
2520.50854,0.19856
2522.43701,0.19723
2524.36547,0.19533
2526.29394,0.19496
2528.22241,0.19525
2530.15088,0.19506
2532.07935,0.19371
2534.00782,0.19287
2535.93629,0.19454
2537.86476,0.19577
2539.79322,0.19407
2541.72169,0.19314
2543.65016,0.19590
2545.57863,0.19983
2547.50710,0.20201
2549.43557,0.20164
2551.36404,0.20048
2553.29250,0.19948
2555.22097,0.19770
2557.14944,0.19761
2559.07791,0.19905
2561.00638,0.19890
2562.93485,0.19707
2564.86332,0.19445
2566.79179,0.19307
2568.72025,0.19253
2570.64872,0.19146
2572.57719,0.19174
2574.50566,0.19204
2576.43413,0.19092
2578.36260,0.19124
2580.29107,0.19222
2582.21953,0.19153
2584.14800,0.19233
2586.07647,0.19585
2588.00494,0.19830
2589.93341,0.19919
2591.86188,0.19977
2593.79035,0.19906
2595.71882,0.19736
2597.64728,0.19502
2599.57575,0.19206
2601.50422,0.19087
2603.43269,0.19289
2605.36116,0.19287
2607.28963,0.18474
2609.21810,0.17851
2611.14656,0.18701
2613.07503,0.19935
2615.00350,0.20215
2616.93197,0.20203
2618.86044,0.20349
2620.78891,0.20352
2622.71738,0.20512
2624.64585,0.20847
2626.57431,0.20852
2628.50278,0.20460
2630.43125,0.20002
2632.35972,0.19631
2634.28819,0.19404
2636.21666,0.19500
2638.14513,0.19790
2640.07359,0.20096
2642.00206,0.20316
2643.93053,0.20269
2645.85900,0.20243
2647.78747,0.20472
2649.71594,0.20621
2651.64441,0.20429
2653.57288,0.19996
2655.50134,0.19641
2657.42981,0.19591
2659.35828,0.19679
2661.28675,0.19796
2663.21522,0.20201
2665.14369,0.20711
2667.07216,0.20779
2669.00062,0.20523
2670.92909,0.20387
2672.85756,0.20491
2674.78603,0.20596
2676.71450,0.20355
2678.64297,0.20003
2680.57144,0.20078
2682.49990,0.20413
2684.42837,0.20662
2686.35684,0.20907
2688.28531,0.20964
2690.21378,0.20836
2692.14225,0.20920
2694.07072,0.21080
2695.99919,0.21045
2697.92765,0.20724
2699.85612,0.20174
2701.78459,0.19803
2703.71306,0.19824
2705.64153,0.20085
2707.57000,0.20398
2709.49847,0.20653
2711.42693,0.20883
2713.35540,0.21056
2715.28387,0.20940
2717.21234,0.20629
2719.14081,0.20459
2721.06928,0.20345
2722.99775,0.20223
2724.92622,0.20327
2726.85468,0.20634
2728.78315,0.21104
2730.71162,0.21611
2732.64009,0.21556
2734.56856,0.20843
2736.49703,0.20364
2738.42550,0.20380
2740.35396,0.20196
2742.28243,0.19991
2744.21090,0.20237
2746.13937,0.20417
2748.06784,0.20397
2749.99631,0.20682
2751.92478,0.20866
2753.85325,0.20475
2755.78171,0.20201
2757.71018,0.20397
2759.63865,0.20572
2761.56712,0.20689
2763.49559,0.21064
2765.42406,0.21482
2767.35253,0.21656
2769.28099,0.21655
2771.20946,0.21520
2773.13793,0.21331
2775.06640,0.21138
2776.99487,0.20854
2778.92334,0.20472
2780.85181,0.20256
2782.78028,0.20494
2784.70874,0.20910
2786.63721,0.21111
2788.56568,0.21344
2790.49415,0.21729
2792.42262,0.21693
2794.35109,0.21115
2796.27956,0.20628
2798.20802,0.20629
2800.13649,0.20959
2802.06496,0.21136
2803.99343,0.20999
2805.92190,0.21016
2807.85037,0.21245
2809.77884,0.21292
2811.70731,0.21345
2813.63577,0.21489
2815.56424,0.21375
2817.49271,0.21038
2819.42118,0.20852
2821.34965,0.20927
2823.27812,0.21019
2825.20659,0.21007
2827.13505,0.20901
2829.06352,0.20914
2830.99199,0.21252
2832.92046,0.21682
2834.84893,0.21837
2836.77740,0.21558
2838.70587,0.21118
2840.63433,0.20995
2842.56280,0.21135
2844.49127,0.20972
2846.41974,0.20573
2848.34821,0.20795
2850.27668,0.21530
2852.20515,0.21619
2854.13362,0.21011
2856.06208,0.20697
2857.99055,0.20983
2859.91902,0.21395
2861.84749,0.21558
2863.77596,0.21571
2865.70443,0.21395
2867.63290,0.20977
2869.56136,0.20814
2871.48983,0.21150
2873.41830,0.21568
2875.34677,0.21794
2877.27524,0.21970
2879.20371,0.22008
2881.13218,0.21397
2883.06065,0.20129
2884.98911,0.19347
2886.91758,0.19824
2888.84605,0.20688
2890.77452,0.20951
2892.70299,0.20729
2894.63146,0.20567
2896.55993,0.20684
2898.48839,0.20881
2900.41686,0.20942
2902.34533,0.20859
2904.27380,0.20496
2906.20227,0.20015
2908.13074,0.19965
2910.05921,0.20303
2911.98768,0.20710
2913.91614,0.20699
2915.84461,0.20029
2917.77308,0.19806
2919.70155,0.20871
2921.63002,0.21788
2923.55849,0.20140
2925.48696,0.17319
2927.41542,0.17468
2929.34389,0.19655
2931.27236,0.20679
2933.20083,0.20769
2935.12930,0.20021
2937.05777,0.18774
2938.98624,0.19132
2940.91471,0.20516
2942.84317,0.20887
2944.77164,0.19946
2946.70011,0.18462
2948.62858,0.18414
2950.55705,0.20040
2952.48552,0.21104
2954.41399,0.20736
2956.34245,0.19198
2958.27092,0.18179
2960.19939,0.19388
2962.12786,0.21096
2964.05633,0.21271
2965.98480,0.20067
2967.91327,0.18742
2969.84174,0.18971
2971.77020,0.20555
2973.69867,0.21492
2975.62714,0.20625
2977.55561,0.18990
2979.48408,0.19007
2981.41255,0.20817
2983.34102,0.22005
2985.26948,0.21454
2987.19795,0.20180
2989.12642,0.19941
2991.05489,0.20967
2992.98336,0.21583
2994.91183,0.21308
2996.84030,0.20930
2998.76877,0.20816
3000.69723,0.21159
3002.62570,0.21695
3004.55417,0.21508
3006.48264,0.20431
3008.41111,0.19224
3010.33958,0.17467
3012.26805,0.14043
3014.19651,0.09662
3016.12498,0.07126
3018.05345,0.09379
3019.98192,0.15114
3021.91039,0.19771
3023.83886,0.21771
3025.76733,0.21760
3027.69579,0.20760
3029.62426,0.20486
3031.55273,0.20996
3033.48120,0.21266
3035.40967,0.21105
3037.33814,0.20878
3039.26661,0.21182
3041.19508,0.21656
3043.12354,0.21692
3045.05201,0.21309
3046.98048,0.20586
3048.90895,0.20374
3050.83742,0.20943
3052.76589,0.21131
3054.69436,0.19879
3056.62282,0.17773
3058.55129,0.17527
3060.47976,0.19499
3062.40823,0.20992
3064.33670,0.20724
3066.26517,0.19763
3068.19364,0.19985
3070.12211,0.20832
3072.05057,0.20696
3073.97904,0.19640
3075.90751,0.18389
3077.83598,0.18294
3079.76445,0.19184
3081.69292,0.19430
3083.62139,0.18730
3085.54985,0.18237
3087.47832,0.19033
3089.40679,0.20524
3091.33526,0.21316
3093.26373,0.20495
3095.19220,0.19437
3097.12067,0.20265
3099.04914,0.21791
3100.97760,0.21514
3102.90607,0.19448
3104.83454,0.18443
3106.76301,0.19765
3108.69148,0.21591
3110.61995,0.21936
3112.54842,0.20653
3114.47688,0.20037
3116.40535,0.20933
3118.33382,0.21383
3120.26229,0.20434
3122.19076,0.19725
3124.11923,0.20922
3126.04770,0.22619
3127.97617,0.22683
3129.90463,0.21332
3131.83310,0.20473
3133.76157,0.20890
3135.69004,0.21428
3137.61851,0.21180
3139.54698,0.20498
3141.47545,0.20673
3143.40391,0.21813
3145.33238,0.22357
3147.26085,0.21638
3149.18932,0.21011
3151.11779,0.21747
3153.04626,0.22906
3154.97473,0.23076
3156.90320,0.22361
3158.83166,0.22105
3160.76013,0.22656
3162.68860,0.22800
3164.61707,0.22461
3166.54554,0.22564
3168.47401,0.23110
3170.40248,0.23313
3172.33094,0.22735
3174.25941,0.22007
3176.18788,0.22000
3178.11635,0.22438
3180.04482,0.22383
3181.97329,0.21830
3183.90176,0.21732
3185.83022,0.22274
3187.75869,0.22637
3189.68716,0.22977
3191.61563,0.23596
3193.54410,0.23576
3195.47257,0.22835
3197.40104,0.22136
3199.32951,0.21432
3201.25797,0.21036
3203.18644,0.21564
3205.11491,0.22184
3207.04338,0.22146
3208.97185,0.21994
3210.90032,0.22014
3212.82879,0.22292
3214.75725,0.22672
3216.68572,0.22361
3218.61419,0.21532
3220.54266,0.21208
3222.47113,0.21658
3224.39960,0.22172
3226.32807,0.22176
3228.25654,0.22096
3230.18500,0.22531
3232.11347,0.23043
3234.04194,0.22722
3235.97041,0.21955
3237.89888,0.22014
3239.82735,0.22961
3241.75582,0.23718
3243.68428,0.23340
3245.61275,0.21960
3247.54122,0.21179
3249.46969,0.21585
3251.39816,0.21780
3253.32663,0.21567
3255.25510,0.21722
3257.18357,0.22046
3259.11203,0.22085
3261.04050,0.21750
3262.96897,0.21431
3264.89744,0.21546
3266.82591,0.21912
3268.75438,0.22016
3270.68285,0.21873
3272.61131,0.21738
3274.53978,0.21720
3276.46825,0.21854
3278.39672,0.21776
3280.32519,0.21584
3282.25366,0.21666
3284.18213,0.21996
3286.11060,0.22411
3288.03906,0.22506
3289.96753,0.22052
3291.89600,0.21591
3293.82447,0.21616
3295.75294,0.21667
3297.68141,0.21659
3299.60988,0.22025
3301.53834,0.22272
3303.46681,0.22003
3305.39528,0.21674
3307.32375,0.21776
3309.25222,0.22133
3311.18069,0.21949
3313.10916,0.21462
3315.03763,0.21691
3316.96609,0.22185
3318.89456,0.22067
3320.82303,0.21655
3322.75150,0.21428
3324.67997,0.21282
3326.60844,0.20869
3328.53691,0.20590
3330.46537,0.21152
3332.39384,0.21811
3334.32231,0.21972
3336.25078,0.22220
3338.17925,0.22305
3340.10772,0.21999
3342.03619,0.22093
3343.96466,0.22576
3345.89312,0.22612
3347.82159,0.22409
3349.75006,0.22681
3351.67853,0.22862
3353.60700,0.22458
3355.53547,0.22232
3357.46394,0.22350
3359.39240,0.22268
3361.32087,0.22222
3363.24934,0.22338
3365.17781,0.22194
3367.10628,0.22224
3369.03475,0.22669
3370.96322,0.22696
3372.89168,0.22223
3374.82015,0.21873
3376.74862,0.21654
3378.67709,0.21585
3380.60556,0.21974
3382.53403,0.22379
3384.46250,0.22132
3386.39097,0.21598
3388.31943,0.21384
3390.24790,0.21475
3392.17637,0.21785
3394.10484,0.22301
3396.03331,0.22607
3397.96178,0.22307
3399.89025,0.22018
3401.81871,0.22367
3403.74718,0.22625
3405.67565,0.22069
3407.60412,0.21183
3409.53259,0.20778
3411.46106,0.20888
3413.38953,0.21057
3415.31800,0.21422
3417.24646,0.22091
3419.17493,0.22506
3421.10340,0.22455
3423.03187,0.21944
3424.96034,0.21082
3426.88881,0.20664
3428.81728,0.20711
3430.74574,0.20643
3432.67421,0.20771
3434.60268,0.21023
3436.53115,0.21065
3438.45962,0.21059
3440.38809,0.20844
3442.31656,0.20641
3444.24503,0.21009
3446.17349,0.21490
3448.10196,0.21116
3450.03043,0.20492
3451.95890,0.20837
3453.88737,0.21315
3455.81584,0.20671
3457.74431,0.19587
3459.67277,0.19444
3461.60124,0.20292
3463.52971,0.20938
3465.45818,0.20807
3467.38665,0.20436
3469.31512,0.20519
3471.24359,0.20791
3473.17206,0.20472
3475.10052,0.19974
3477.02899,0.19942
3478.95746,0.20276
3480.88593,0.20766
3482.81440,0.20675
3484.74287,0.19833
3486.67134,0.19192
3488.59980,0.19106
3490.52827,0.19503
3492.45674,0.20168
3494.38521,0.20505
3496.31368,0.20169
3498.24215,0.19395
3500.17062,0.18923
3502.09909,0.18891
3504.02755,0.18758
3505.95602,0.18819
3507.88449,0.19373
3509.81296,0.19647
3511.74143,0.18990
3513.66990,0.18085
3515.59837,0.17763
3517.52683,0.17777
3519.45530,0.17901
3521.38377,0.18251
3523.31224,0.18302
3525.24071,0.18079
3527.16918,0.18187
3529.09765,0.18044
3531.02611,0.17227
3532.95458,0.16569
3534.88305,0.16613
3536.81152,0.17039
3538.73999,0.17543
3540.66846,0.18063
3542.59693,0.18211
3544.52540,0.18064
3546.45386,0.17955
3548.38233,0.17488
3550.31080,0.16976
3552.23927,0.16963
3554.16774,0.17352
3556.09621,0.18108
3558.02468,0.18631
3559.95314,0.18087
3561.88161,0.17184
3563.81008,0.17480
3565.73855,0.18981
3567.66702,0.19501
3569.59549,0.18220
3571.52396,0.16958
3573.45243,0.16371
3575.38089,0.16054
3577.30936,0.15636
3579.23783,0.15484
3581.16630,0.15747
3583.09477,0.16370
3585.02324,0.17580
3586.95171,0.18518
3588.88017,0.17917
3590.80864,0.17100
3592.73711,0.16831
3594.66558,0.16599
3596.59405,0.16189
3598.52252,0.16125
3600.45099,0.16861
3602.37946,0.17552
3604.30792,0.17654
3606.23639,0.17722
3608.16486,0.17604
3610.09333,0.17183
3612.02180,0.16952
3613.95027,0.16774
3615.87874,0.16776
3617.80720,0.17310
3619.73567,0.17562
3621.66414,0.16775
3623.59261,0.15970
3625.52108,0.16257
3627.44955,0.18173
3629.37802,0.19307
3631.30649,0.17820
3633.23495,0.16725
3635.16342,0.16052
3637.09189,0.15059
3639.02036,0.14101
3640.94883,0.13877
3642.87730,0.14498
3644.80577,0.15663
3646.73423,0.17363
3648.66270,0.18764
3650.59117,0.17741
3652.51964,0.16143
3654.44811,0.15639
3656.37658,0.15431
3658.30505,0.14881
3660.23352,0.14441
3662.16198,0.14047
3664.09045,0.13980
3666.01892,0.14878
3667.94739,0.16438
3669.87586,0.17063
3671.80433,0.16063
3673.73280,0.15728
3675.66126,0.16100
3677.58973,0.15403
3679.51820,0.14319
3681.44667,0.13639
3683.37514,0.13472
3685.30361,0.13859
3687.23208,0.14998
3689.16055,0.16701
3691.08901,0.16995
3693.01748,0.15782
3694.94595,0.14728
3696.87442,0.14173
3698.80289,0.13988
3700.73136,0.14143
3702.65983,0.13926
3704.58829,0.13166
3706.51676,0.13185
3708.44523,0.14694
3710.37370,0.16366
3712.30217,0.15350
3714.23064,0.13221
3716.15911,0.12340
3718.08757,0.12535
3720.01604,0.13350
3721.94451,0.13949
3723.87298,0.14049
3725.80145,0.14302
3727.72992,0.14885
3729.65839,0.15604
3731.58686,0.16471
3733.51532,0.17379
3735.44379,0.17318
3737.37226,0.16007
3739.30073,0.15038
3741.22920,0.14874
3743.15767,0.15658
3745.08614,0.16959
3747.01460,0.17289
3748.94307,0.17624
3750.87154,0.18141
3752.80001,0.17045
3754.72848,0.15577
3756.65695,0.14871
3758.58542,0.14412
3760.51389,0.13718
3762.44235,0.13234
3764.37082,0.13121
3766.29929,0.13138
3768.22776,0.13014
3770.15623,0.12669
3772.08470,0.12304
3774.01317,0.12023
3775.94163,0.11825
3777.87010,0.11893
3779.79857,0.12263
3781.72704,0.12566
3783.65551,0.12691
3785.58398,0.12581
3787.51245,0.12384
3789.44092,0.12469
3791.36938,0.12596
3793.29785,0.12565
3795.22632,0.12796
3797.15479,0.13621
3799.08326,0.14675
3801.01173,0.15209
3802.94020,0.14703
3804.86866,0.14493
3806.79713,0.14508
3808.72560,0.13397
3810.65407,0.12291
3812.58254,0.12415
3814.51101,0.13404
3816.43948,0.14239
3818.36795,0.14870
3820.29641,0.15549
3822.22488,0.14741
3824.15335,0.13394
3826.08182,0.13048
3828.01029,0.13095
3829.93876,0.12901
3831.86723,0.12901
3833.79569,0.13292
3835.72416,0.13567
3837.65263,0.13542
3839.58110,0.13426
3841.50957,0.13253
3843.43804,0.12511
3845.36651,0.11997
3847.29498,0.12720
3849.22344,0.13939
3851.15191,0.15220
3853.08038,0.16430
3855.00885,0.15422
3856.93732,0.13862
3858.86579,0.13097
3860.79426,0.12925
3862.72272,0.13258
3864.65119,0.13445
3866.57966,0.13395
3868.50813,0.13636
3870.43660,0.13374
3872.36507,0.12492
3874.29354,0.11913
3876.22200,0.11520
3878.15047,0.11627
3880.07894,0.12329
3882.00741,0.12783
3883.93588,0.13119
3885.86435,0.13319
3887.79282,0.12906
3889.72129,0.12713
3891.64975,0.12876
3893.57822,0.12693
3895.50669,0.12413
3897.43516,0.12490
3899.36363,0.12791
3901.29210,0.13084
3903.22057,0.12840
3905.14903,0.11590
3907.07750,0.10665
3909.00597,0.10765
3910.93444,0.11149
3912.86291,0.11198
3914.79138,0.10919
3916.71985,0.10596
3918.64832,0.10532
3920.57678,0.10854
3922.50525,0.11542
3924.43372,0.12242
3926.36219,0.12402
3928.29066,0.12188
3930.21913,0.12048
3932.14760,0.11992
3934.07606,0.11704
3936.00453,0.11282
3937.93300,0.11127
3939.86147,0.11181
3941.78994,0.11055
3943.71841,0.10920
3945.64688,0.11292
3947.57535,0.11826
3949.50381,0.11919
3951.43228,0.11587
3953.36075,0.10911
3955.28922,0.10110
3957.21769,0.09846
3959.14616,0.10226
3961.07463,0.10525
3963.00309,0.10343
3964.93156,0.10004
3966.86003,0.10034
3968.78850,0.10599
3970.71697,0.11133
3972.64544,0.11049
3974.57391,0.10875
3976.50238,0.11047
3978.43084,0.10844
3980.35931,0.10418
3982.28778,0.10516
3984.21625,0.10696
3986.14472,0.10604
3988.07319,0.10567
3990.00166,0.10871
3991.93012,0.11284
3993.85859,0.11178
3995.78706,0.10783
3997.71553,0.10396
3999.64400,0.09475
4001.57247,0.08546
4003.50094,0.08913
4005.42941,0.09909
4007.35787,0.10014
4009.28634,0.09466
4011.21481,0.09223
4013.14328,0.09193
4015.07175,0.08878
4017.00022,0.08620
4018.92869,0.09029
4020.85715,0.09653
4022.78562,0.09587
4024.71409,0.08978
4026.64256,0.08864
4028.57103,0.09772
4030.49950,0.10678
4032.42797,0.10301
4034.35644,0.09362
4036.28490,0.09242
4038.21337,0.09724
4040.14184,0.09938
4042.07031,0.09655
4043.99878,0.09343
4045.92725,0.09452
4047.85572,0.09685
4049.78418,0.09399
4051.71265,0.08980
4053.64112,0.09281
4055.56959,0.09795
4057.49806,0.09727
4059.42653,0.09200
4061.35500,0.08667
4063.28346,0.08564
4065.21193,0.08802
4067.14040,0.08889
4069.06887,0.08758
4070.99734,0.08661
4072.92581,0.08411
4074.85428,0.07886
4076.78275,0.07634
4078.71121,0.07920
4080.63968,0.08305
4082.56815,0.08220
4084.49662,0.07755
4086.42509,0.07825
4088.35356,0.08492
4090.28203,0.08712
4092.21049,0.08500
4094.13896,0.08465
4096.06743,0.08425
4097.99590,0.08137
4099.92437,0.07886
4101.85284,0.07896
4103.78131,0.07791
4105.70978,0.07582
4107.63824,0.07554
4109.56671,0.07556
4111.49518,0.07634
4113.42365,0.07816
4115.35212,0.07979
4117.28059,0.07468
4119.20906,0.06092
4121.13752,0.05410
4123.06599,0.06261
4124.99446,0.07601
4126.92293,0.08297
4128.85140,0.08019
4130.77987,0.07356
4132.70834,0.07224
4134.63681,0.07683
4136.56527,0.07890
4138.49374,0.07567
4140.42221,0.07246
4142.35068,0.07295
4144.27915,0.07709
4146.20762,0.07909
4148.13609,0.07486
4150.06455,0.07225
4151.99302,0.07574
4153.92149,0.07929
4155.84996,0.07941
4157.77843,0.07772
4159.70690,0.07250
4161.63537,0.06352
4163.56384,0.06075
4165.49230,0.06684
4167.42077,0.06981
4169.34924,0.06756
4171.27771,0.06996
4173.20618,0.07620
4175.13465,0.07879
4177.06312,0.07741
4178.99158,0.07192
4180.92005,0.06143
4182.84852,0.05335
4184.77699,0.05200
4186.70546,0.05172
4188.63393,0.05232
4190.56240,0.05504
4192.49087,0.05722
4194.41933,0.05809
4196.34780,0.05814
4198.27627,0.06093
4200.20474,0.06224
4202.13321,0.05743
4204.06168,0.05468
4205.99015,0.05847
4207.91861,0.06490
4209.84708,0.06744
4211.77555,0.06286
4213.70402,0.05355
4215.63249,0.04546
4217.56096,0.04903
4219.48943,0.06076
4221.41789,0.06172
4223.34636,0.05311
4225.27483,0.05113
4227.20330,0.05511
4229.13177,0.05673
4231.06024,0.05248
4232.98871,0.04741
4234.91718,0.05028
4236.84564,0.05920
4238.77411,0.06672
4240.70258,0.06658
4242.63105,0.06012
4244.55952,0.05546
4246.48799,0.05146
4248.41646,0.04405
4250.34492,0.04009
4252.27339,0.04581
4254.20186,0.05578
4256.13033,0.05994
4258.05880,0.05642
4259.98727,0.05362
4261.91574,0.05454
4263.84421,0.05277
4265.77267,0.04421
4267.70114,0.03348
4269.62961,0.03202
4271.55808,0.04036
4273.48655,0.04606
4275.41502,0.04366
4277.34349,0.03988
4279.27195,0.04359
4281.20042,0.05307
4283.12889,0.06025
4285.05736,0.06221
4286.98583,0.05905
4288.91430,0.05409
4290.84277,0.05136
4292.77124,0.04903
4294.69970,0.04604
4296.62817,0.04554
4298.55664,0.04466
4300.48511,0.03715
4302.41358,0.02645
4304.34205,0.02361
4306.27052,0.03126
4308.19898,0.03824
4310.12745,0.03887
4312.05592,0.03824
4313.98439,0.03807
4315.91286,0.03683
4317.84133,0.03648
4319.76980,0.03921
4321.69827,0.04117
4323.62673,0.03945
4325.55520,0.03881
4327.48367,0.04225
4329.41214,0.04434
4331.34061,0.04141
4333.26908,0.03797
4335.19755,0.03888
4337.12601,0.04113
4339.05448,0.03818
4340.98295,0.03200
4342.91142,0.02543
4344.83989,0.01690
4346.76836,0.01212
4348.69683,0.01395
4350.62530,0.01648
4352.55376,0.01901
4354.48223,0.02139
4356.41070,0.01923
4358.33917,0.01912
4360.26764,0.02717
4362.19611,0.03421
4364.12458,0.03548
4366.05304,0.03276
4367.98151,0.02820
4369.90998,0.02635
4371.83845,0.02825
4373.76692,0.03060
4375.69539,0.02731
4377.62386,0.01807
4379.55232,0.01204
4381.48079,0.01731
4383.40926,0.03013
4385.33773,0.03578
4387.26620,0.03121
4389.19467,0.02631
4391.12314,0.02063
4393.05161,0.01403
4394.98007,0.01626
4396.90854,0.02125
4398.83701,0.01659
4400.76548,0.01019
4402.69395,0.01251
4404.62242,0.01812
4406.55089,0.01757
4408.47935,0.01140
4410.40782,0.00497
4412.33629,0.00171
4414.26476,0.00471
4416.19323,0.01044
4418.12170,0.01035
4420.05017,0.00613
4421.97864,0.00493
4423.90710,0.00675
4425.83557,0.01155
4427.76404,0.02092
4429.69251,0.02609
4431.62098,0.01601
4433.54945,-0.00123
4435.47792,-0.01105
4437.40638,-0.00809
4439.33485,0.00491
4441.26332,0.01380
4443.19179,0.01647
4445.12026,0.01968
4447.04873,0.01783
4448.97720,0.01545
4450.90567,0.01682
4452.83413,0.01057
4454.76260,0.00017
4456.69107,-0.00114
4458.61954,0.00473
4460.54801,0.01071
4462.47648,0.01291
4464.40495,0.00832
4466.33341,0.00084
4468.26188,-0.00367
4470.19035,-0.00617
4472.11882,-0.00771
4474.04729,-0.00324
4475.97576,0.00820
4477.90423,0.01704
4479.83270,0.02123
4481.76116,0.02805
4483.68963,0.03264
4485.61810,0.02536
4487.54657,0.01336
4489.47504,0.00911
4491.40351,0.01276
4493.33198,0.01320
4495.26044,0.00395
4497.18891,-0.00716
4499.11738,-0.01203
4501.04585,-0.00813
4502.97432,0.00211
4504.90279,0.00439
4506.83126,-0.00521
4508.75973,-0.00613
4510.68819,0.00996
4512.61666,0.02326
4514.54513,0.01927
4516.47360,0.00689
4518.40207,-0.00154
4520.33054,-0.00384
4522.25901,-0.00093
4524.18747,0.00852
4526.11594,0.02081
4528.04441,0.02283
4529.97288,0.01022
4531.90135,-0.00148
4533.82982,-0.00041
4535.75829,0.00624
4537.68676,0.00595
4539.61522,-0.00006
4541.54369,0.00324
4543.47216,0.01328
4545.40063,0.01198
4547.32910,0.00476
4549.25757,0.00533
4551.18604,0.00985
4553.11450,0.01228
4555.04297,0.01048
4556.97144,0.00553
4558.89991,0.00440
4560.82838,0.00421
4562.75685,-0.00271
4564.68532,-0.00517
4566.61378,-0.00069
4568.54225,-0.00643
4570.47072,-0.01556
4572.39919,-0.00818
4574.32766,0.00896
4576.25613,0.01525
4578.18460,0.01544
4580.11307,0.01995
4582.04153,0.01579
4583.97000,0.00094
4585.89847,-0.01090
4587.82694,-0.01406
4589.75541,-0.00651
4591.68388,0.01018
4593.61235,0.02565
4595.54081,0.03311
4597.46928,0.03175
4599.39775,0.01789
4601.32622,-0.00282
4603.25469,-0.01181
4605.18316,-0.00331
4607.11163,0.00525
4609.04010,0.00413
4610.96856,0.00125
4612.89703,-0.00081
4614.82550,-0.00299
4616.75397,-0.00590
4618.68244,-0.01164
4620.61091,-0.01367
4622.53938,-0.00811
4624.46784,0.00066
4626.39631,0.00647
4628.32478,-0.00002
4630.25325,-0.00987
4632.18172,-0.00684
4634.11019,0.00012
4636.03866,-0.00159
4637.96713,-0.00996
4639.89559,-0.01562
4641.82406,-0.01206
4643.75253,-0.00552
4645.68100,-0.00569
4647.60947,-0.01399
4649.53794,-0.01703
4651.46641,-0.00439
4653.39487,0.00747
4655.32334,0.00891
4657.25181,0.01083
4659.18028,0.00867
4661.10875,0.00117
4663.03722,0.00428
4664.96569,0.01255
4666.89416,0.01115
4668.82262,0.00980
4670.75109,0.01399
4672.67956,0.00821
4674.60803,-0.00483
4676.53650,-0.00848
4678.46497,-0.00087
4680.39344,0.01275
4682.32190,0.02001
4684.25037,0.01167
4686.17884,-0.00024
4688.10731,-0.00098
4690.03578,0.00714
4691.96425,0.01545
4693.89272,0.02326
4695.82119,0.02404
4697.74965,0.01407
4699.67812,0.01313
4701.60659,0.02589
4703.53506,0.03123
4705.46353,0.02559
4707.39200,0.01810
4709.32047,0.01240
4711.24893,0.01717
4713.17740,0.03254
4715.10587,0.04264
4717.03434,0.03778
4718.96281,0.02361
4720.89128,0.01017
4722.81975,-0.00610
4724.74821,-0.02324
4726.67668,-0.02228
4728.60515,-0.01423
4730.53362,-0.02077
4732.46209,-0.02501
4734.39056,-0.00751
4736.31903,0.01923
4738.24750,0.03412
4740.17596,0.03129
4742.10443,0.01913
4744.03290,0.00917
4745.96137,0.00878
4747.88984,0.01080
4749.81831,0.00177
4751.74678,-0.01158
4753.67524,-0.01323
4755.60371,-0.00774
4757.53218,-0.00733
4759.46065,-0.00847
4761.38912,-0.00704
4763.31759,-0.00419
4765.24606,-0.00022
4767.17453,-0.00298
4769.10299,-0.01164
4771.03146,-0.01056
4772.95993,-0.00287
4774.88840,-0.00100
4776.81687,0.00448
4778.74534,0.02018
4780.67381,0.03021
4782.60227,0.02218
4784.53074,0.00520
4786.45921,-0.00572
4788.38768,-0.00761
4790.31615,-0.00485
4792.24462,-0.00090
4794.17309,0.00270
4796.10156,0.00498
4798.03002,0.00644
4799.95849,0.01434
4801.88696,0.03026
4803.81543,0.03826
4805.74390,0.03144
4807.67237,0.02084
4809.60084,0.01478
4811.52930,0.01706
4813.45777,0.01907
4815.38624,0.01135
4817.31471,0.00136
4819.24318,-0.00523
4821.17165,-0.01007
4823.10012,-0.01099
4825.02859,-0.00289
4826.95705,0.01263
4828.88552,0.02035
4830.81399,0.00922
4832.74246,-0.00696
4834.67093,-0.01062
4836.59940,-0.00752
4838.52787,-0.00868
4840.45633,-0.00670
4842.38480,0.00571
4844.31327,0.01434
4846.24174,0.01177
4848.17021,0.00923
4850.09868,0.00585
4852.02715,-0.00123
4853.95562,0.00306
4855.88408,0.01879
4857.81255,0.02172
4859.74102,0.00798
4861.66949,-0.00188
4863.59796,0.00028
4865.52643,0.00578
4867.45490,0.00244
4869.38336,-0.00617
4871.31183,-0.00394
4873.24030,0.00687
4875.16877,0.01534
4877.09724,0.02945
4879.02571,0.04935
4880.95418,0.04921
4882.88265,0.02624
4884.81111,0.00899
4886.73958,0.01160
4888.66805,0.02369
4890.59652,0.02959
4892.52499,0.02760
4894.45346,0.02298
4896.38193,0.01295
4898.31039,0.00093
4900.23886,-0.00544
4902.16733,-0.00937
4904.09580,-0.01126
4906.02427,-0.00604
4907.95274,0.00320
4909.88121,0.01227
4911.80967,0.02030
4913.73814,0.02446
4915.66661,0.02491
4917.59508,0.01879
4919.52355,0.00509
4921.45202,-0.00442
4923.38049,-0.00585
4925.30896,-0.00547
4927.23742,-0.00589
4929.16589,-0.00345
4931.09436,-0.00041
4933.02283,-0.00476
4934.95130,-0.01198
4936.87977,-0.01690
4938.80824,-0.00914
4940.73670,0.01527
4942.66517,0.02322
4944.59364,0.00037
4946.52211,-0.01980
4948.45058,-0.01969
4950.37905,-0.01289
4952.30752,-0.00649
4954.23599,0.00387
4956.16445,0.01245
4958.09292,0.01039
4960.02139,0.00600
4961.94986,0.00344
4963.87833,0.00361
4965.80680,0.01562
4967.73527,0.02865
4969.66373,0.02294
4971.59220,0.00231
4973.52067,-0.01023
4975.44914,-0.00474
4977.37761,0.00533
4979.30608,0.00214
4981.23455,-0.01201
4983.16302,-0.01622
4985.09148,-0.01063
4987.01995,-0.00659
4988.94842,0.00423
4990.87689,0.02624
4992.80536,0.03533
4994.73383,0.02207
4996.66230,0.01423
4998.59076,0.01695
5000.51923,0.01404
5002.44770,0.01056
5004.37617,0.01051
5006.30464,0.00273
5008.23311,-0.00436
5010.16158,0.00603
5012.09005,0.02081
5014.01851,0.02327
5015.94698,0.01001
5017.87545,-0.01158
5019.80392,-0.01779
5021.73239,-0.00425
5023.66086,0.00636
5025.58933,0.00777
5027.51779,0.01043
5029.44626,0.01333
5031.37473,0.01566
5033.30320,0.02579
5035.23167,0.03247
5037.16014,0.02113
5039.08861,0.00845
5041.01708,0.00750
5042.94554,0.01106
5044.87401,0.00937
5046.80248,-0.00190
5048.73095,-0.00514
5050.65942,0.00751
5052.58789,0.02084
5054.51636,0.03488
5056.44482,0.04412
5058.37329,0.03119
5060.30176,0.00775
5062.23023,-0.00291
5064.15870,-0.00500
5066.08717,-0.00847
5068.01564,-0.00486
5069.94410,0.00894
5071.87257,0.02446
5073.80104,0.03878
5075.72951,0.04096
5077.65798,0.02088
5079.58645,-0.00901
5081.51492,-0.02739
5083.44339,-0.02227
5085.37185,0.00243
5087.30032,0.02736
5089.22879,0.03517
5091.15726,0.03323
5093.08573,0.03555
5095.01420,0.04016
5096.94267,0.03928
5098.87113,0.03330
5100.79960,0.02821
5102.72807,0.02187
5104.65654,0.01316
5106.58501,0.00297
5108.51348,-0.00704
5110.44195,-0.00277
5112.37042,0.01438
5114.29888,0.02411
5116.22735,0.02169
5118.15582,0.01131
5120.08429,0.00178
5122.01276,0.00823
5123.94123,0.01973
5125.86970,0.01111
5127.79816,-0.00075
5129.72663,0.01145
5131.65510,0.02652
5133.58357,0.02350
5135.51204,0.01654
5137.44051,0.01375
5139.36898,0.00813
5141.29745,0.00463
5143.22591,0.01684
5145.15438,0.03429
5147.08285,0.03609
5149.01132,0.03062
5150.93979,0.03216
5152.86826,0.03798
5154.79673,0.03658
5156.72519,0.01798
5158.65366,-0.00272
5160.58213,-0.00262
5162.51060,0.01745
5164.43907,0.04058
5166.36754,0.04081
5168.29601,0.01679
5170.22448,0.00297
5172.15294,0.00400
5174.08141,-0.00173
5176.00988,0.00100
5177.93835,0.02410
5179.86682,0.04385
5181.79529,0.04897
5183.72376,0.04644
5185.65222,0.03734
5187.58069,0.03445
5189.50916,0.04213
5191.43763,0.04731
5193.36610,0.05175
5195.29457,0.05344
5197.22304,0.04419
5199.15151,0.03295
5201.07997,0.02139
5203.00844,0.00884
5204.93691,0.01121
5206.86538,0.02724
5208.79385,0.03433
5210.72232,0.03169
5212.65079,0.03444
5214.57925,0.04981
5216.50772,0.06411
5218.43619,0.05935
5220.36466,0.04227
5222.29313,0.02643
5224.22160,0.00567
5226.15007,-0.01633
5228.07854,-0.01490
5230.00700,0.01099
5231.93547,0.03825
5233.86394,0.04904
5235.79241,0.05548
5237.72088,0.06771
5239.64935,0.07211
5241.57782,0.06825
5243.50628,0.05189
5245.43475,0.01989
5247.36322,0.00497
5249.29169,0.01844
5251.22016,0.02947
5253.14863,0.03426
5255.07710,0.04907
5257.00556,0.05892
5258.93403,0.05776
5260.86250,0.06931
5262.79097,0.08767
5264.71944,0.08052
5266.64791,0.04425
5268.57638,0.00375
5270.50485,-0.00924
5272.43331,0.00782
5274.36178,0.02698
5276.29025,0.03920
5278.21872,0.04229
5280.14719,0.04046
5282.07566,0.05110
5284.00413,0.06416
5285.93259,0.06011
5287.86106,0.05690
5289.78953,0.06458
5291.71800,0.05288
5293.64647,0.03424
5295.57494,0.04356
5297.50341,0.06104
5299.43188,0.06607
5301.36034,0.06785
5303.28881,0.06963
5305.21728,0.06103
5307.14575,0.04678
5309.07422,0.03951
5311.00269,0.02961
5312.93116,0.02374
5314.85962,0.03294
5316.78809,0.03967
5318.71656,0.04168
5320.64503,0.05501
5322.57350,0.07487
5324.50197,0.08135
5326.43044,0.06728
5328.35891,0.04743
5330.28737,0.03841
5332.21584,0.03370
5334.14431,0.02529
5336.07278,0.03021
5338.00125,0.05948
5339.92972,0.08755
5341.85819,0.08438
5343.78665,0.05418
5345.71512,0.04209
5347.64359,0.05973
5349.57206,0.05243
5351.50053,0.00800
5353.42900,-0.02216
5355.35747,-0.01231
5357.28594,0.00235
5359.21440,0.01621
5361.14287,0.03901
5363.07134,0.05517
5364.99981,0.06378
5366.92828,0.07236
5368.85675,0.07020
5370.78522,0.05589
5372.71368,0.04340
5374.64215,0.04499
5376.57062,0.05103
5378.49909,0.04791
5380.42756,0.04303
5382.35603,0.04150
5384.28450,0.04530
5386.21297,0.04385
5388.14143,0.03288
5390.06990,0.02776
5391.99837,0.02844
5393.92684,0.02688
5395.85531,0.01241
5397.78378,-0.01002
5399.71225,-0.02035
5401.64071,-0.01781
5403.56918,-0.00479
5405.49765,0.01328
5407.42612,0.02660
5409.35459,0.03654
5411.28306,0.04316
5413.21153,0.05789
5415.13999,0.06898
5417.06846,0.05863
5418.99693,0.04925
5420.92540,0.04619
5422.85387,0.03731
5424.78234,0.02534
5426.71081,0.02068
5428.63928,0.01776
5430.56774,0.00825
5432.49621,0.01327
5434.42468,0.03761
5436.35315,0.04914
5438.28162,0.03398
5440.21009,0.02584
5442.13856,0.04910
5444.06702,0.07948
5445.99549,0.09485
5447.92396,0.08759
5449.85243,0.07298
5451.78090,0.07830
5453.70937,0.08608
5455.63784,0.06530
5457.56631,0.03475
5459.49477,0.03275
5461.42324,0.05937
5463.35171,0.09037
5465.28018,0.09393
5467.20865,0.07694
5469.13712,0.07830
5471.06559,0.09737
5472.99405,0.10359
5474.92252,0.08433
5476.85099,0.04169
5478.77946,-0.00032
5480.70793,-0.00944
5482.63640,0.01892
5484.56487,0.04662
5486.49334,0.04263
5488.42180,0.03344
5490.35027,0.04738
5492.27874,0.05981
5494.20721,0.05445
5496.13568,0.03539
5498.06415,0.01532
5499.99262,0.02963
5501.92108,0.06662
5503.84955,0.07575
5505.77802,0.06479
5507.70649,0.06892
5509.63496,0.08188
5511.56343,0.10008
5513.49190,0.11972
5515.42037,0.09998
5517.34883,0.05394
5519.27730,0.03921
5521.20577,0.05779
5523.13424,0.08217
5525.06271,0.09655
5526.99118,0.09968
5528.91965,0.10225
5530.84811,0.10154
5532.77658,0.08102
5534.70505,0.04653
5536.63352,0.01872
5538.56199,0.01713
5540.49046,0.04476
5542.41893,0.06805
5544.34740,0.06641
5546.27586,0.05855
5548.20433,0.06316
5550.13280,0.08657
5552.06127,0.10208
5553.98974,0.07870
5555.91821,0.03876
5557.84668,0.03060
5559.77514,0.06168
5561.70361,0.07626
5563.63208,0.04966
5565.56055,0.02948
5567.48902,0.02947
5569.41749,0.03102
5571.34596,0.03456
5573.27443,0.05105
5575.20289,0.07397
5577.13136,0.07874
5579.05983,0.08311
5580.98830,0.09410
5582.91677,0.08086
5584.84524,0.06300
5586.77371,0.05859
5588.70217,0.05196
5590.63064,0.04947
5592.55911,0.04744
5594.48758,0.03308
5596.41605,0.02246
5598.34452,0.03657
5600.27299,0.07558
5602.20145,0.09433
5604.12992,0.06657
5606.05839,0.04786
5607.98686,0.04733
5609.91533,0.01705
5611.84380,-0.01682
5613.77227,-0.02127
5615.70074,0.00048
5617.62920,0.05298
5619.55767,0.09674
5621.48614,0.09981
5623.41461,0.07823
5625.34308,0.05009
5627.27155,0.03911
5629.20002,0.05030
5631.12848,0.07394
5633.05695,0.10749
5634.98542,0.13771
5636.91389,0.13159
5638.84236,0.08400
5640.77083,0.05063
5642.69930,0.04860
5644.62777,0.03267
5646.55623,-0.00261
5648.48470,-0.00895
5650.41317,0.02739
5652.34164,0.05880
5654.27011,0.06040
5656.19858,0.05959
5658.12705,0.07223
5660.05551,0.08834
5661.98398,0.09092
5663.91245,0.06881
5665.84092,0.03798
5667.76939,0.03584
5669.69786,0.05808
5671.62633,0.05754
5673.55480,0.04368
5675.48326,0.06138
5677.41173,0.08494
5679.34020,0.07398
5681.26867,0.06229
5683.19714,0.07519
5685.12561,0.07734
5687.05408,0.05309
5688.98254,0.04214
5690.91101,0.07283
5692.83948,0.11103
5694.76795,0.10907
5696.69642,0.07861
5698.62489,0.07007
5700.55336,0.08494
5702.48183,0.08522
5704.41029,0.05595
5706.33876,0.01891
5708.26723,0.01320
5710.19570,0.03840
5712.12417,0.05189
5714.05264,0.05153
5715.98111,0.06627
5717.90957,0.08210
5719.83804,0.08407
5721.76651,0.07577
5723.69498,0.05637
5725.62345,0.04585
5727.55192,0.05279
5729.48039,0.05754
5731.40886,0.05576
5733.33732,0.04534
5735.26579,0.02135
5737.19426,0.01366
5739.12273,0.03508
5741.05120,0.05466
5742.97967,0.06185
5744.90814,0.05255
5746.83660,0.03435
5748.76507,0.01709
5750.69354,-0.00054
5752.62201,0.01204
5754.55048,0.03958
5756.47895,0.04253
5758.40742,0.04405
5760.33588,0.07409
5762.26435,0.12291
5764.19282,0.15233
5766.12129,0.16268
5768.04976,0.15794
5769.97823,0.12076
5771.90670,0.08011
5773.83517,0.06202
5775.76363,0.04928
5777.69210,0.03285
5779.62057,0.03549
5781.54904,0.05685
5783.47751,0.06807
5785.40598,0.06874
5787.33445,0.05376
5789.26291,0.03134
5791.19138,0.03945
5793.11985,0.06569
5795.04832,0.07841
5796.97679,0.07320
5798.90526,0.05403
5800.83373,0.05841
5802.76220,0.11050
5804.69066,0.15584
5806.61913,0.15323
5808.54760,0.12482
5810.47607,0.08545
5812.40454,0.04712
5814.33301,0.03481
5816.26148,0.04695
5818.18994,0.05505
5820.11841,0.04995
5822.04688,0.04299
5823.97535,0.02139
5825.90382,0.01233
5827.83229,0.06483
5829.76076,0.11212
5831.68923,0.09132
5833.61769,0.06101
5835.54616,0.05416
5837.47463,0.04802
5839.40310,0.03448
5841.33157,0.03393
5843.26004,0.06967
5845.18851,0.10312
5847.11697,0.10122
5849.04544,0.11175
5850.97391,0.13594
5852.90238,0.11835
5854.83085,0.07948
5856.75932,0.04524
5858.68779,-0.00070
5860.61626,-0.02102
5862.54472,0.02544
5864.47319,0.08042
5866.40166,0.09933
5868.33013,0.10258
5870.25860,0.09734
5872.18707,0.08876
5874.11554,0.08738
5876.04400,0.09750
5877.97247,0.09421
5879.90094,0.03448
5881.82941,-0.02819
5883.75788,0.01451
5885.68635,0.10544
5887.61482,0.11845
5889.54329,0.09664
5891.47175,0.09600
5893.40022,0.07699
5895.32869,0.04712
5897.25716,0.02973
5899.18563,0.01608
5901.11410,0.00983
5903.04257,0.01781
5904.97103,0.03814
5906.89950,0.06531
5908.82797,0.08347
5910.75644,0.09256
5912.68491,0.10337
5914.61338,0.09304
5916.54185,0.05711
5918.47032,0.02664
5920.39878,0.01799
5922.32725,0.04519
5924.25572,0.08412
5926.18419,0.08071
5928.11266,0.06248
5930.04113,0.07569
5931.96960,0.09719
5933.89806,0.12136
5935.82653,0.14076
5937.75500,0.10696
5939.68347,0.05860
5941.61194,0.07700
5943.54041,0.12684
5945.46888,0.13004
5947.39734,0.10368
5949.32581,0.07420
5951.25428,0.03242
5953.18275,0.02117
5955.11122,0.05565
5957.03969,0.09427
5958.96816,0.13372
5960.89663,0.13867
5962.82509,0.06810
5964.75356,-0.00549
5966.68203,-0.01897
5968.61050,-0.00370
5970.53897,0.02799
5972.46744,0.06436
5974.39591,0.05100
5976.32437,0.02142
5978.25284,0.04144
5980.18131,0.08919
5982.10978,0.12035
5984.03825,0.12907
5985.96672,0.11960
5987.89519,0.10282
5989.82366,0.08235
5991.75212,0.06175
5993.68059,0.06641
5995.60906,0.08308
5997.53753,0.07023
5999.46600,0.02356
6001.39447,-0.00713
6003.32294,0.01719
6005.25140,0.05454
6007.17987,0.06747
6009.10834,0.07527
6011.03681,0.09084
6012.96528,0.09493
6014.89375,0.07523
6016.82222,0.05073
6018.75069,0.04341
6020.67915,0.05034
6022.60762,0.07053
6024.53609,0.10295
6026.46456,0.11820
6028.39303,0.12470
6030.32150,0.14385
6032.24997,0.15782
6034.17843,0.15336
6036.10690,0.11625
6038.03537,0.06730
6039.96384,0.03860
6041.89231,0.00248
6043.82078,-0.03053
6045.74925,-0.01328
6047.67772,0.01224
6049.60618,0.02921
6051.53465,0.08798
6053.46312,0.15246
6055.39159,0.17520
6057.32006,0.15085
6059.24853,0.08434
6061.17700,0.02978
6063.10546,0.02865
6065.03393,0.04567
6066.96240,0.05285
6068.89087,0.06886
6070.81934,0.07805
6072.74781,0.04501
6074.67628,-0.00386
6076.60475,-0.01569
6078.53321,0.02505
6080.46168,0.08149
6082.39015,0.10746
6084.31862,0.10965
6086.24709,0.10268
6088.17556,0.08208
6090.10403,0.03175
6092.03249,-0.02431
6093.96096,-0.01659
6095.88943,0.04474
6097.81790,0.10565
6099.74637,0.12333
6101.67484,0.08813
6103.60331,0.05729
6105.53177,0.05067
6107.46024,0.05740
6109.38871,0.07686
6111.31718,0.07095
6113.24565,0.02351
6115.17412,-0.00328
6117.10259,0.01210
6119.03106,0.02905
6120.95952,0.04576
6122.88799,0.06670
6124.81646,0.08211
6126.74493,0.07990
6128.67340,0.05681
6130.60187,0.05785
6132.53034,0.08846
6134.45880,0.10554
6136.38727,0.12576
6138.31574,0.16680
6140.24421,0.17776
6142.17268,0.15135
6144.10115,0.14684
6146.02962,0.16201
6147.95809,0.13316
6149.88655,0.04510
6151.81502,-0.02563
6153.74349,-0.02035
6155.67196,0.03315
6157.60043,0.08926
6159.52890,0.10626
6161.45737,0.08017
6163.38583,0.05661
6165.31430,0.07688
6167.24277,0.12774
6169.17124,0.15627
6171.09971,0.15932
6173.02818,0.14691
6174.95665,0.10517
6176.88512,0.09236
6178.81358,0.14053
6180.74205,0.15713
6182.67052,0.10261
6184.59899,0.05990
6186.52746,0.05516
6188.45593,0.02473
6190.38440,-0.02997
6192.31286,-0.05551
6194.24133,-0.03716
6196.16980,0.00008
6198.09827,-0.00187
6200.02674,-0.05706
6201.95521,-0.09117
6203.88368,-0.07739
6205.81215,-0.07747
6207.74061,-0.07048
6209.66908,-0.01997
6211.59755,0.01274
6213.52602,0.00437
6215.45449,0.00892
6217.38296,0.06321
6219.31143,0.11275
6221.23989,0.09884
6223.16836,0.07485
6225.09683,0.09951
6227.02530,0.12508
6228.95377,0.10801
6230.88224,0.06993
6232.81071,0.05046
6234.73918,0.05008
6236.66764,0.02614
6238.59611,-0.00474
6240.52458,0.00747
6242.45305,0.05790
6244.38152,0.12012
6246.30999,0.16081
6248.23846,0.18551
6250.16692,0.23049
6252.09539,0.23566
6254.02386,0.15798
6255.95233,0.07384
6257.88080,0.03856
6259.80927,0.03985
6261.73774,0.07864
6263.66621,0.13941
6265.59467,0.14503
6267.52314,0.08310
6269.45161,0.04528
6271.38008,0.06906
6273.30855,0.08709
6275.23702,0.04829
6277.16549,0.02659
6279.09395,0.06131
6281.02242,0.11710
6282.95089,0.18778
6284.87936,0.24812
6286.80783,0.23422
6288.73630,0.14577
6290.66477,0.07180
6292.59323,0.06088
6294.52170,0.05946
6296.45017,0.04158
6298.37864,0.04048
6300.30711,0.04618
6302.23558,0.03248
6304.16405,0.06002
6306.09252,0.14367
6308.02098,0.17261
6309.94945,0.12149
6311.87792,0.09651
6313.80639,0.08544
6315.73486,0.02219
6317.66333,-0.02679
6319.59180,-0.02606
6321.52026,0.00555
6323.44873,0.09358
6325.37720,0.18921
6327.30567,0.22552
6329.23414,0.21199
6331.16261,0.18140
6333.09108,0.13229
6335.01955,0.03141
6336.94801,-0.06236
6338.87648,-0.03260
6340.80495,0.07607
6342.73342,0.12075
6344.66189,0.08734
6346.59036,0.02688
6348.51883,-0.00827
6350.44729,0.05297
6352.37576,0.14144
6354.30423,0.14075
6356.23270,0.08946
6358.16117,0.05734
6360.08964,0.06786
6362.01811,0.06094
6363.94658,-0.00620
6365.87504,-0.03488
6367.80351,0.04784
6369.73198,0.12575
6371.66045,0.12116
6373.58892,0.08358
6375.51739,0.03956
6377.44586,0.00454
6379.37432,-0.00956
6381.30279,-0.00413
6383.23126,0.04543
6385.15973,0.07618
6387.08820,0.03146
6389.01667,-0.00582
6390.94514,-0.01290
6392.87361,-0.01747
6394.80207,0.01409
6396.73054,0.05257
6398.65901,0.05032
6400.58748,0.03083
6402.51595,0.01759
6404.44442,0.00563
6406.37289,0.01788
6408.30135,0.05630
6410.22982,0.05676
6412.15829,0.04537
6414.08676,0.11558
6416.01523,0.19841
6417.94370,0.14817
6419.87217,0.03415
6421.80064,-0.00707
6423.72910,-0.04424
6425.65757,-0.12533
6427.58604,-0.16590
6429.51451,-0.10676
6431.44298,-0.00720
6433.37145,0.06058
6435.29992,0.11739
6437.22838,0.15424
6439.15685,0.13307
6441.08532,0.09311
6443.01379,0.03929
6444.94226,-0.01693
6446.87073,0.00336
6448.79920,0.08215
6450.72766,0.14528
6452.65613,0.17010
6454.58460,0.14071
6456.51307,0.05553
6458.44154,0.00559
6460.37001,0.04192
6462.29848,0.07832
6464.22695,0.06476
6466.15541,0.05164
6468.08388,0.05897
6470.01235,0.05633
6471.94082,0.07193
6473.86929,0.13993
6475.79776,0.20085
6477.72623,0.17640
6479.65469,0.08310
6481.58316,0.04809
6483.51163,0.13950
6485.44010,0.22309
6487.36857,0.17866
6489.29704,0.09195
6491.22551,0.08502
6493.15398,0.11477
6495.08244,0.12958
6497.01091,0.12857
6498.93938,0.07986
6500.86785,0.01889
6502.79632,0.02643
6504.72479,0.06622
6506.65326,0.06046
6508.58172,-0.00257
6510.51019,-0.02665
6512.43866,0.05601
6514.36713,0.14010
6516.29560,0.17707
6518.22407,0.17371
6520.15254,0.11963
6522.08101,0.05968
6524.00947,0.03726
6525.93794,0.04151
6527.86641,0.02739
6529.79488,0.01369
6531.72335,0.04908
6533.65182,0.13736
6535.58029,0.20015
6537.50875,0.11067
6539.43722,-0.04179
6541.36569,-0.03187
6543.29416,0.11910
6545.22263,0.21158
6547.15110,0.17211
6549.07957,0.09697
6551.00804,0.05949
6552.93650,0.03794
6554.86497,0.06020
6556.79344,0.11753
6558.72191,0.14486
6560.65038,0.14946
6562.57885,0.15878
6564.50732,0.17271
6566.43578,0.12927
6568.36425,0.02628
6570.29272,-0.02183
6572.22119,-0.02474
6574.14966,-0.06112
6576.07813,-0.04947
6578.00660,0.05271
6579.93507,0.11668
6581.86353,0.14444
6583.79200,0.19277
6585.72047,0.15594
6587.64894,0.05335
6589.57741,0.00362
6591.50588,-0.00610
6593.43435,-0.01824
6595.36281,-0.00748
6597.29128,0.02521
6599.21975,0.03280
6601.14822,0.03380
6603.07669,0.08480
6605.00516,0.13079
6606.93363,0.12724
6608.86210,0.13016
6610.79056,0.14024
6612.71903,0.06739
6614.64750,-0.03868
6616.57597,-0.05893
6618.50444,-0.03965
6620.43291,-0.01926
6622.36138,0.02103
6624.28984,0.04333
6626.21831,0.04555
6628.14678,0.02653
6630.07525,0.01607
6632.00372,0.03403
6633.93219,0.00426
6635.86066,0.00580
6637.78912,0.14982
6639.71759,0.28637
6641.64606,0.27679
6643.57453,0.16658
6645.50300,0.08744
6647.43147,0.08287
6649.35994,0.10504
6651.28841,0.11550
6653.21687,0.10870
6655.14534,0.09559
6657.07381,0.09430
6659.00228,0.09888
6660.93075,0.08736
6662.85922,0.10682
6664.78769,0.17333
6666.71615,0.20657
6668.64462,0.15079
6670.57309,0.07613
6672.50156,0.07269
6674.43003,0.11459
6676.35850,0.08719
6678.28697,-0.02027
6680.21544,-0.08824
6682.14390,-0.08552
6684.07237,-0.07038
6686.00084,-0.04210
6687.92931,-0.01236
6689.85778,-0.01484
6691.78625,-0.00517
6693.71472,0.00674
6695.64318,-0.02413
6697.57165,-0.06880
6699.50012,-0.08823
6701.42859,-0.06022
6703.35706,0.01095
6705.28553,0.03686
6707.21400,-0.03823
6709.14247,-0.07467
6711.07093,0.00495
6712.99940,0.05208
6714.92787,0.00963
6716.85634,-0.04680
6718.78481,-0.03388
6720.71328,0.08050
6722.64175,0.18246
6724.57021,0.17773
6726.49868,0.13017
6728.42715,0.07693
6730.35562,0.00726
6732.28409,0.02057
6734.21256,0.12635
6736.14103,0.15374
6738.06950,0.09253
6739.99796,0.03513
6741.92643,-0.00000
6743.85490,-0.04445
6745.78337,-0.07863
6747.71184,-0.05073
6749.64031,-0.00664
6751.56878,-0.00896
6753.49724,0.00982
6755.42571,0.08258
6757.35418,0.09677
6759.28265,0.06697
6761.21112,0.09865
6763.13959,0.12042
6765.06806,0.05324
6766.99653,-0.04179
6768.92499,-0.05683
6770.85346,0.02897
6772.78193,0.10824
6774.71040,0.11722
6776.63887,0.08330
6778.56734,0.03614
6780.49581,0.02580
6782.42427,0.05667
6784.35274,0.05778
6786.28121,0.02028
6788.20968,0.00189
6790.13815,0.01553
6792.06662,0.01696
6793.99509,0.01770
6795.92355,0.03450
6797.85202,0.00928
6799.78049,-0.08123
6801.70896,-0.14732
6803.63743,-0.08418
6805.56590,0.03521
6807.49437,0.05856
6809.42284,-0.00752
6811.35130,-0.05997
6813.27977,-0.09612
6815.20824,-0.12895
6817.13671,-0.05801
6819.06518,0.04628
6820.99365,0.07680
6822.92212,0.07970
6824.85058,0.08474
6826.77905,0.14370
6828.70752,0.21686
6830.63599,0.15927
6832.56446,0.02671
6834.49293,-0.04537
6836.42140,-0.01239
6838.34987,0.03160
6840.27833,0.02494
6842.20680,-0.00042
6844.13527,-0.05195
6846.06374,-0.11816
6847.99221,-0.17832
6849.92068,-0.20261
6851.84915,-0.17557
6853.77761,-0.03768
6855.70608,0.13066
6857.63455,0.11876
6859.56302,0.03559
6861.49149,0.09162
6863.41996,0.19645
6865.34843,0.18874
6867.27690,0.09807
6869.20536,0.02243
6871.13383,-0.00616
6873.06230,0.01154
6874.99077,0.01820
6876.91924,-0.00483
6878.84771,0.00976
6880.77618,0.06861
6882.70464,0.10386
6884.63311,0.08160
6886.56158,0.01806
6888.49005,-0.02813
6890.41852,-0.01355
6892.34699,-0.00520
6894.27546,-0.01672
6896.20393,0.04014
6898.13239,0.08197
6900.06086,0.02881
6901.98933,-0.02887
6903.91780,-0.07808
6905.84627,-0.12960
6907.77474,-0.10608
6909.70321,0.00795
6911.63167,0.11302
6913.56014,0.15483
6915.48861,0.18690
6917.41708,0.22237
6919.34555,0.19600
6921.27402,0.16745
6923.20249,0.19801
6925.13096,0.20083
6927.05942,0.16384
6928.98789,0.19160
6930.91636,0.28129
6932.84483,0.23832
6934.77330,0.09468
6936.70177,-0.02277
6938.63024,-0.12715
6940.55870,-0.15607
6942.48717,-0.07168
6944.41564,0.05595
6946.34411,0.13809
6948.27258,0.12102
6950.20105,0.13242
6952.12952,0.19077
6954.05799,0.13525
6955.98645,0.02848
6957.91492,0.05510
6959.84339,0.10691
6961.77186,0.12047
6963.70033,0.14293
6965.62880,0.10328
6967.55727,-0.00899
6969.48573,-0.03661
6971.41420,0.13088
6973.34267,0.36822
6975.27114,0.35965
6977.19961,0.13018
6979.12808,-0.01534
6981.05655,-0.04025
6982.98501,0.03891
6984.91348,0.19099
6986.84195,0.27558
6988.77042,0.27479
6990.69889,0.21891
6992.62736,0.12109
6994.55583,0.05253
6996.48430,0.01660
6998.41276,-0.05921
7000.34123,-0.17793
7002.26970,-0.22726
7004.19817,-0.16305
7006.12664,-0.06103
7008.05511,0.07809
7009.98358,0.21434
7011.91204,0.22363
7013.84051,0.08881
7015.76898,-0.03954
7017.69745,-0.13791
7019.62592,-0.26590
7021.55439,-0.35845
7023.48286,-0.33819
7025.41133,-0.17062
7027.33979,0.07931
7029.26826,0.18410
7031.19673,0.09524
7033.12520,0.00565
7035.05367,-0.04292
7036.98214,-0.03990
7038.91061,-0.01756
7040.83907,-0.05959
7042.76754,-0.06165
7044.69601,0.02838
7046.62448,0.06930
7048.55295,0.11906
7050.48142,0.15598
7052.40989,0.04968
7054.33836,-0.06542
7056.26682,-0.02406
7058.19529,0.04190
7060.12376,0.04354
7062.05223,0.08095
7063.98070,0.16964
7065.90917,0.23628
7067.83764,0.23979
7069.76610,0.21357
7071.69457,0.15317
7073.62304,0.04741
7075.55151,-0.02555
7077.47998,-0.07038
7079.40845,-0.10653
7081.33692,-0.01262
7083.26539,0.13270
7085.19385,0.11917
7087.12232,0.03619
7089.05079,0.02883
7090.97926,0.03652
7092.90773,0.01106
7094.83620,0.02352
7096.76467,-0.01705
7098.69313,-0.15218
7100.62160,-0.14245
7102.55007,-0.02856
7104.47854,-0.00675
7106.40701,-0.09852
7108.33548,-0.18901
7110.26395,-0.19208
7112.19242,-0.10843
7114.12088,-0.01928
7116.04935,0.03347
7117.97782,0.05813
7119.90629,0.00742
7121.83476,-0.01748
7123.76323,0.04240
7125.69170,0.04919
7127.62016,0.03128
7129.54863,0.09811
7131.47710,0.12850
7133.40557,0.05307
7135.33404,0.00716
7137.26251,0.02097
7139.19098,0.01480
7141.11944,0.03639
7143.04791,0.19108
7144.97638,0.33124
7146.90485,0.26146
7148.83332,0.16693
7150.76179,0.12848
7152.69026,0.09043
7154.61873,0.11337
7156.54719,0.12621
7158.47566,0.02407
7160.40413,-0.07784
7162.33260,-0.06533
7164.26107,-0.00668
7166.18954,0.02847
7168.11801,0.08119
7170.04647,0.13789
7171.97494,0.12515
7173.90341,0.09666
7175.83188,0.05698
7177.76035,-0.02835
7179.68882,-0.04467
7181.61729,0.08676
7183.54576,0.28434
7185.47422,0.33002
7187.40269,0.27688
7189.33116,0.23113
7191.25963,0.13749
7193.18810,0.06284
7195.11657,0.05246
7197.04504,0.12409
7198.97350,0.25506
7200.90197,0.25771
7202.83044,0.12174
7204.75891,0.05406
7206.68738,0.15211
7208.61585,0.20962
7210.54432,0.10405
7212.47279,-0.09886
7214.40125,-0.22199
7216.32972,-0.19061
7218.25819,-0.12925
7220.18666,-0.14825
7222.11513,-0.16406
7224.04360,-0.07490
7225.97207,0.12809
7227.90053,0.24166
7229.82900,0.26178
7231.75747,0.19773
7233.68594,0.04375
7235.61441,-0.04191
7237.54288,-0.04948
7239.47135,-0.05550
7241.39982,-0.09316
7243.32828,-0.17917
7245.25675,-0.21190
7247.18522,-0.18564
7249.11369,-0.15312
7251.04216,-0.08164
7252.97063,-0.10486
7254.89910,-0.20896
7256.82756,-0.19772
7258.75603,-0.06715
7260.68450,0.11259
7262.61297,0.15842
7264.54144,0.06089
7266.46991,0.05406
7268.39838,0.12293
7270.32685,0.21732
7272.25531,0.31100
7274.18378,0.29517
7276.11225,0.23803
7278.04072,0.17175
7279.96919,0.12242
7281.89766,0.20988
7283.82613,0.33756
7285.75459,0.34127
7287.68306,0.26135
7289.61153,0.21767
7291.54000,0.21362
7293.46847,0.19709
7295.39694,0.14545
7297.32541,0.07053
7299.25387,0.05536
7301.18234,0.14801
7303.11081,0.29841
7305.03928,0.44911
7306.96775,0.54665
7308.89622,0.47601
7310.82469,0.32621
7312.75316,0.25352
7314.68162,0.09596
7316.61009,-0.18649
7318.53856,-0.20217
7320.46703,0.06154
7322.39550,0.32081
7324.32397,0.42580
7326.25244,0.34233
7328.18090,0.14362
7330.10937,0.05273
7332.03784,0.12226
7333.96631,0.09872
7335.89478,0.01222
7337.82325,-0.01203
7339.75172,-0.04569
7341.68019,-0.08452
7343.60865,0.06557
7345.53712,0.28663
7347.46559,0.33443
7349.39406,0.29693
7351.32253,0.33267
7353.25100,0.30487
7355.17947,0.12103
7357.10793,-0.22815
7359.03640,-0.52210
7360.96487,-0.35959
7362.89334,0.05144
7364.82181,0.29259
7366.75028,0.33386
7368.67875,0.27508
7370.60722,0.17072
7372.53568,0.10607
7374.46415,0.13076
7376.39262,0.14313
7378.32109,0.16956
7380.24956,0.29350
7382.17803,0.22793
7384.10650,-0.10293
7386.03496,-0.36888
7387.96343,-0.35091
7389.89190,-0.12196
7391.82037,-0.01966
7393.74884,-0.12189
7395.67731,-0.09111
7397.60578,0.09946
7399.53425,0.13638
7401.46271,0.05269
7403.39118,0.06044
7405.31965,0.17778
7407.24812,0.31041
7409.17659,0.40547
7411.10506,0.40613
7413.03353,0.34299
7414.96199,0.25297
7416.89046,0.04283
7418.81893,-0.30401
7420.74740,-0.42894
7422.67587,-0.33065
7424.60434,-0.24864
7426.53281,-0.17340
7428.46128,-0.03315
7430.38974,0.14312
7432.31821,0.21925
7434.24668,0.20669
7436.17515,0.12405
7438.10362,0.07090
7440.03209,0.09048
7441.96056,0.04574
7443.88902,-0.02278
7445.81749,-0.00153
7447.74596,0.06817
7449.67443,0.18465
7451.60290,0.34897
7453.53137,0.33591
7455.45984,0.13657
7457.38831,-0.11685
7459.31677,-0.34533
7461.24524,-0.24433
7463.17371,0.08092
7465.10218,0.23754
7467.03065,0.21274
7468.95912,0.24560
7470.88759,0.36725
7472.81605,0.40824
7474.74452,0.38278
7476.67299,0.24242
7478.60146,-0.09971
7480.52993,-0.28923
7482.45840,-0.04185
7484.38687,0.19765
7486.31533,0.12843
7488.24380,0.05486
7490.17227,0.16498
7492.10074,0.22841
7494.02921,0.16482
7495.95768,0.11722
7497.88615,0.16436
