399.19301,1.51074
401.12148,0.66210
403.04995,0.11718
404.97842,-0.21690
406.90689,-0.33606
408.83536,-0.25672
410.76382,0.01508
412.69229,0.32190
414.62076,0.42014
416.54923,0.31670
418.47770,0.10855
420.40617,0.00491
422.33464,0.08539
424.26311,0.16187
426.19157,0.17543
428.12004,0.11927
430.04851,0.04915
431.97698,0.06737
433.90545,0.09529
435.83392,0.07228
437.76239,0.06693
439.69085,0.10331
441.61932,0.08592
443.54779,-0.01154
445.47626,-0.05748
447.40473,-0.03938
449.33320,0.00278
451.26167,0.03963
453.19013,0.02057
455.11860,-0.01918
457.04707,0.03165
458.97554,0.15152
460.90401,0.19225
462.83248,0.16328
464.76095,0.13246
466.68942,0.07865
468.61788,0.02085
470.54635,0.03940
472.47482,0.09614
474.40329,0.05740
476.33176,-0.01537
478.26023,-0.02533
480.18870,0.01928
482.11716,0.09430
484.04563,0.15526
485.97410,0.15578
487.90257,0.09026
489.83104,0.02899
491.75951,0.01336
493.68798,0.00829
495.61645,0.01357
497.54491,0.02906
499.47338,0.00252
501.40185,-0.04699
503.33032,-0.03920
505.25879,0.01206
507.18726,0.07353
509.11573,0.12951
511.04419,0.13533
512.97266,0.10075
514.90113,0.08221
516.82960,0.11152
518.75807,0.14758
520.68654,0.14587
522.61501,0.12001
524.54348,0.10874
526.47194,0.14668
528.40041,0.16363
530.32888,0.11534
532.25735,0.07354
534.18582,0.09386
536.11429,0.12737
538.04276,0.11888
539.97122,0.09211
541.89969,0.07123
543.82816,0.06601
545.75663,0.06999
547.68510,0.05381
549.61357,0.14144
551.54204,0.79775
553.47051,1.62189
555.39897,1.41642
557.32744,0.54187
559.25591,0.14522
561.18438,0.12025
563.11285,0.11049
565.04132,0.09755
566.96979,0.09562
568.89825,0.11185
570.82672,0.12184
572.75519,0.09716
574.68366,0.03842
576.61213,0.02209
578.54060,0.04996
580.46907,0.06109
582.39754,0.06019
584.32600,0.06386
586.25447,0.06482
588.18294,0.05975
590.11141,0.04692
592.03988,0.04225
593.96835,0.05224
595.89682,0.06057
597.82528,0.08166
599.75375,0.10334
601.68222,0.09240
603.61069,0.07057
605.53916,0.08631
607.46763,0.12385
609.39610,0.13471
611.32456,0.11804
613.25303,0.09794
615.18150,0.08782
617.10997,0.07567
619.03844,0.05090
620.96691,0.02291
622.89538,0.01255
624.82385,0.02946
626.75231,0.06082
628.68078,0.08797
630.60925,0.08699
632.53772,0.06926
634.46619,0.06738
636.39466,0.06942
638.32313,0.06150
640.25159,0.05533
642.18006,0.05585
644.10853,0.06779
646.03700,0.09592
647.96547,0.12232
649.89394,0.12649
651.82241,0.11812
653.75088,0.11444
655.67934,0.10891
657.60781,0.09658
659.53628,0.09048
661.46475,0.09739
663.39322,0.09707
665.32169,0.07407
667.25016,0.04423
669.17862,0.05201
671.10709,0.08623
673.03556,0.09403
674.96403,0.07787
676.89250,0.06936
678.82097,0.07649
680.74944,0.08696
682.67791,0.09123
684.60637,0.08901
686.53484,0.09825
688.46331,0.11951
690.39178,0.11461
692.32025,0.08543
694.24872,0.07561
696.17719,0.08459
698.10565,0.09154
700.03412,0.09367
701.96259,0.09347
703.89106,0.09472
705.81953,0.09622
707.74800,0.10485
709.67647,0.13877
711.60494,0.17405
713.53340,0.16389
715.46187,0.12951
717.39034,0.11176
719.31881,0.10586
721.24728,0.10517
723.17575,0.10928
725.10422,0.10830
727.03268,0.09717
728.96115,0.08841
730.88962,0.09601
732.81809,0.11427
734.74656,0.12330
736.67503,0.11378
738.60350,0.10184
740.53197,0.10528
742.46043,0.11147
744.38890,0.10092
746.31737,0.09085
748.24584,0.10053
750.17431,0.11138
752.10278,0.11121
754.03125,0.10752
755.95971,0.09901
757.88818,0.09478
759.81665,0.10817
761.74512,0.12251
763.67359,0.11634
765.60206,0.09901
767.53053,0.09213
769.45900,0.09985
771.38746,0.11311
773.31593,0.11974
775.24440,0.11208
777.17287,0.09830
779.10134,0.09110
781.02981,0.08834
782.95828,0.08302
784.88674,0.08546
786.81521,0.10007
788.74368,0.09939
790.67215,0.07719
792.60062,0.06507
794.52909,0.07419
796.45756,0.08083
798.38602,0.07430
800.31449,0.07712
802.24296,0.09653
804.17143,0.10009
806.09990,0.08076
808.02837,0.07410
809.95684,0.09141
811.88531,0.10696
813.81377,0.10236
815.74224,0.09365
817.67071,0.09648
819.59918,0.09235
821.52765,0.08387
823.45612,0.09051
825.38459,0.10512
827.31305,0.11366
829.24152,0.11035
831.16999,0.10378
833.09846,0.10389
835.02693,0.11158
836.95540,0.12060
838.88387,0.12168
840.81234,0.11908
842.74080,0.11992
844.66927,0.12453
846.59774,0.12811
848.52621,0.12225
850.45468,0.11045
852.38315,0.10262
854.31162,0.09781
856.24008,0.09458
858.16855,0.09755
860.09702,0.10145
862.02549,0.09649
863.95396,0.08830
865.88243,0.08818
867.81090,0.10434
869.73937,0.13402
871.66783,0.15130
873.59630,0.14184
875.52477,0.12363
877.45324,0.11222
879.38171,0.10573
881.31018,0.10431
883.23865,0.10772
885.16711,0.10933
887.09558,0.11443
889.02405,0.12779
890.95252,0.13609
892.88099,0.12698
894.80946,0.10959
896.73793,0.10297
898.66640,0.10424
900.59486,0.10536
902.52333,0.11016
904.45180,0.11410
906.38027,0.11418
908.30874,0.11807
910.23721,0.12159
912.16568,0.11629
914.09414,0.11507
916.02261,0.12675
917.95108,0.13393
919.87955,0.12577
921.80802,0.11244
923.73649,0.10495
925.66496,0.10753
927.59343,0.11291
929.52189,0.10932
931.45036,0.10282
933.37883,0.10266
935.30730,0.10776
937.23577,0.11709
939.16424,0.12389
941.09271,0.11828
943.02117,0.10461
944.94964,0.09834
946.87811,0.10460
948.80658,0.11483
950.73505,0.12215
952.66352,0.12668
954.59199,0.13289
956.52045,0.13881
958.44892,0.13272
960.37739,0.11928
962.30586,0.11505
964.23433,0.11761
966.16280,0.11917
968.09127,0.12210
970.01974,0.12557
971.94820,0.12387
973.87667,0.11609
975.80514,0.10786
977.73361,0.10585
979.66208,0.11280
981.59055,0.12229
983.51902,0.12634
985.44748,0.12317
987.37595,0.11651
989.30442,0.11623
991.23289,0.12167
993.16136,0.12141
995.08983,0.11507
997.01830,0.10935
998.94677,0.11058
1000.87523,0.12182
1002.80370,0.13074
1004.73217,0.12558
1006.66064,0.11539
1008.58911,0.11035
1010.51758,0.11170
1012.44605,0.11917
1014.37451,0.12672
1016.30298,0.12683
1018.23145,0.12243
1020.15992,0.12102
1022.08839,0.12017
1024.01686,0.11590
1025.94533,0.12585
1027.87380,0.15901
1029.80226,0.17320
1031.73073,0.14678
1033.65920,0.12645
1035.58767,0.13377
1037.51614,0.14146
1039.44461,0.14065
1041.37308,0.13949
1043.30154,0.13390
1045.23001,0.12576
1047.15848,0.12659
1049.08695,0.13145
1051.01542,0.12900
1052.94389,0.12292
1054.87236,0.11823
1056.80083,0.11607
1058.72929,0.11983
1060.65776,0.12727
1062.58623,0.13417
1064.51470,0.14092
1066.44317,0.14483
1068.37164,0.13926
1070.30011,0.13141
1072.22857,0.13188
1074.15704,0.13288
1076.08551,0.13497
1078.01398,0.14053
1079.94245,0.13576
1081.87092,0.12342
1083.79939,0.11670
1085.72786,0.11825
1087.65632,0.12625
1089.58479,0.13518
1091.51326,0.14083
1093.44173,0.13963
1095.37020,0.13269
1097.29867,0.13392
1099.22714,0.14286
1101.15560,0.14245
1103.08407,0.13494
1105.01254,0.13109
1106.94101,0.12809
1108.86948,0.12282
1110.79795,0.11973
1112.72642,0.12068
1114.65489,0.11934
1116.58335,0.11785
1118.51182,0.12625
1120.44029,0.13784
1122.36876,0.14349
1124.29723,0.14541
1126.22570,0.14159
1128.15417,0.13595
1130.08263,0.13672
1132.01110,0.13713
1133.93957,0.13356
1135.86804,0.13158
1137.79651,0.12892
1139.72498,0.12290
1141.65345,0.11890
1143.58191,0.12623
1145.51038,0.14352
1147.43885,0.15257
1149.36732,0.14642
1151.29579,0.13606
1153.22426,0.13569
1155.15273,0.14766
1157.08120,0.15085
1159.00966,0.13819
1160.93813,0.12897
1162.86660,0.12925
1164.79507,0.13439
1166.72354,0.14025
1168.65201,0.14012
1170.58048,0.13777
1172.50894,0.13926
1174.43741,0.13681
1176.36588,0.12776
1178.29435,0.12256
1180.22282,0.12468
1182.15129,0.13102
1184.07976,0.13835
1186.00823,0.14135
1187.93669,0.14083
1189.86516,0.14153
1191.79363,0.14142
1193.72210,0.13806
1195.65057,0.13441
1197.57904,0.13540
1199.50751,0.14215
1201.43597,0.14848
1203.36444,0.14995
1205.29291,0.14917
1207.22138,0.14719
1209.14985,0.14146
1211.07832,0.13483
1213.00679,0.13604
1214.93526,0.14362
1216.86372,0.14629
1218.79219,0.14273
1220.72066,0.13987
1222.64913,0.14106
1224.57760,0.14408
1226.50607,0.14536
1228.43454,0.14515
1230.36300,0.14405
1232.29147,0.14265
1234.21994,0.14181
1236.14841,0.14138
1238.07688,0.14444
1240.00535,0.14867
1241.93382,0.14566
1243.86229,0.13840
1245.79075,0.13701
1247.71922,0.14331
1249.64769,0.14827
1251.57616,0.14448
1253.50463,0.13790
1255.43310,0.13515
1257.36157,0.13559
1259.29003,0.13732
1261.21850,0.13776
1263.14697,0.13785
1265.07544,0.14115
1267.00391,0.14425
1268.93238,0.14309
1270.86085,0.13995
1272.78932,0.13507
1274.71778,0.13174
1276.64625,0.13397
1278.57472,0.13650
1280.50319,0.13497
1282.43166,0.13281
1284.36013,0.13530
1286.28860,0.14065
1288.21706,0.14654
1290.14553,0.15207
1292.07400,0.14898
1294.00247,0.13775
1295.93094,0.12800
1297.85941,0.12283
1299.78788,0.11712
1301.71634,0.10260
1303.64481,0.08695
1305.57328,0.09547
1307.50175,0.12857
1309.43022,0.15168
1311.35869,0.15291
1313.28716,0.15013
1315.21563,0.15059
1317.14409,0.15266
1319.07256,0.15172
1321.00103,0.14652
1322.92950,0.14437
1324.85797,0.14180
1326.78644,0.13607
1328.71491,0.13388
1330.64337,0.13040
1332.57184,0.12776
1334.50031,0.13266
1336.42878,0.13590
1338.35725,0.13591
1340.28572,0.13097
1342.21419,0.12507
1344.14266,0.13030
1346.07112,0.13643
1347.99959,0.13645
1349.92806,0.13457
1351.85653,0.13248
1353.78500,0.13535
1355.71347,0.14211
1357.64194,0.14532
1359.57040,0.14678
1361.49887,0.15360
1363.42734,0.16022
1365.35581,0.15914
1367.28428,0.15580
1369.21275,0.15314
1371.14122,0.15433
1373.06969,0.16210
1374.99815,0.16800
1376.92662,0.16562
1378.85509,0.16580
1380.78356,0.16981
1382.71203,0.16880
1384.64050,0.16692
1386.56897,0.16775
1388.49743,0.16370
1390.42590,0.16097
1392.35437,0.16999
1394.28284,0.18491
1396.21131,0.19103
1398.13978,0.18710
1400.06825,0.17867
1401.99672,0.17027
1403.92518,0.16788
1405.85365,0.16958
1407.78212,0.16760
1409.71059,0.16379
1411.63906,0.16186
1413.56753,0.16168
1415.49600,0.16489
1417.42446,0.17202
1419.35293,0.17497
1421.28140,0.17147
1423.20987,0.17061
1425.13834,0.17099
1427.06681,0.17216
1428.99528,0.17584
1430.92375,0.17838
1432.85221,0.18209
1434.78068,0.18904
1436.70915,0.18696
1438.63762,0.17180
1440.56609,0.16073
1442.49456,0.15759
1444.42303,0.16110
1446.35149,0.16991
1448.27996,0.17681
1450.20843,0.17709
1452.13690,0.17838
1454.06537,0.18746
1455.99384,0.20617
1457.92231,0.21221
1459.85077,0.19385
1461.77924,0.18365
1463.70771,0.18431
1465.63618,0.18106
1467.56465,0.17197
1469.49312,0.17543
1471.42159,0.19800
1473.35006,0.21786
1475.27852,0.21003
1477.20699,0.19464
1479.13546,0.18679
1481.06393,0.18498
1482.99240,0.18340
1484.92087,0.18569
1486.84934,0.19777
1488.77780,0.21214
1490.70627,0.20913
1492.63474,0.19838
1494.56321,0.19916
1496.49168,0.20890
1498.42015,0.20811
1500.34862,0.19763
1502.27709,0.19721
1504.20555,0.21533
1506.13402,0.24948
1508.06249,0.24507
1509.99096,0.21181
1511.91943,0.19687
1513.84790,0.19841
1515.77637,0.20833
1517.70483,0.21833
1519.63330,0.23084
1521.56177,0.24050
1523.49024,0.22832
1525.41871,0.20988
1527.34718,0.19676
1529.27565,0.19322
1531.20412,0.19864
1533.13258,0.20392
1535.06105,0.20430
1536.98952,0.21315
1538.91799,0.23862
1540.84646,0.25185
1542.77493,0.23139
1544.70340,0.21140
1546.63186,0.19863
1548.56033,0.19622
1550.48880,0.19805
1552.41727,0.19939
1554.34574,0.20294
1556.27421,0.21328
1558.20268,0.23420
1560.13115,0.22074
1562.05961,0.19598
1563.98808,0.18991
1565.91655,0.19129
1567.84502,0.19557
1569.77349,0.19912
1571.70196,0.19608
1573.63043,0.19628
1575.55889,0.20207
1577.48736,0.19899
1579.41583,0.18985
1581.34430,0.18436
1583.27277,0.18057
1585.20124,0.17715
1587.12971,0.17530
1589.05818,0.17652
1590.98664,0.18002
1592.91511,0.18114
1594.84358,0.17722
1596.77205,0.17338
1598.70052,0.17611
1600.62899,0.18250
1602.55746,0.18644
1604.48592,0.18668
1606.41439,0.18480
1608.34286,0.18260
1610.27133,0.17932
1612.19980,0.17694
1614.12827,0.18313
1616.05674,0.19878
1617.98521,0.20190
1619.91367,0.19304
1621.84214,0.19117
1623.77061,0.19243
1625.69908,0.19272
1627.62755,0.19648
1629.55602,0.19748
1631.48449,0.19490
1633.41295,0.20014
1635.34142,0.21959
1637.26989,0.22522
1639.19836,0.21058
1641.12683,0.20027
1643.05530,0.20117
1644.98377,0.21358
1646.91223,0.22822
1648.84070,0.22838
1650.76917,0.23293
1652.69764,0.24948
1654.62611,0.23193
1656.55458,0.20164
1658.48305,0.18769
1660.41152,0.18682
1662.33998,0.19014
1664.26845,0.18973
1666.19692,0.19392
1668.12539,0.20850
1670.05386,0.22029
1671.98233,0.21924
1673.91080,0.21909
1675.83926,0.21350
1677.76773,0.20351
1679.69620,0.20493
1681.62467,0.22067
1683.55314,0.24125
1685.48161,0.23573
1687.41008,0.21890
1689.33855,0.20953
1691.26701,0.20378
1693.19548,0.20526
1695.12395,0.21716
1697.05242,0.23137
1698.98089,0.23985
1700.90936,0.23342
1702.83783,0.21805
1704.76629,0.21246
1706.69476,0.20899
1708.62323,0.20124
1710.55170,0.19631
1712.48017,0.19714
1714.40864,0.20970
1716.33711,0.23405
1718.26558,0.23283
1720.19404,0.20650
1722.12251,0.19009
1724.05098,0.18554
1725.97945,0.18623
1727.90792,0.18938
1729.83639,0.19577
1731.76486,0.20747
1733.69332,0.21671
1735.62179,0.20734
1737.55026,0.19735
1739.47873,0.19398
1741.40720,0.19377
1743.33567,0.19689
1745.26414,0.19952
1747.19261,0.20202
1749.12107,0.20857
1751.04954,0.20822
1752.97801,0.19679
1754.90648,0.18902
1756.83495,0.18925
1758.76342,0.19307
1760.69189,0.19531
1762.62035,0.18982
1764.54882,0.18182
1766.47729,0.18251
1768.40576,0.19222
1770.33423,0.20521
1772.26270,0.21185
1774.19117,0.20255
1776.11964,0.19042
1778.04810,0.18729
1779.97657,0.19056
1781.90504,0.19138
1783.83351,0.19051
1785.76198,0.19262
1787.69045,0.19623
1789.61892,0.20174
1791.54738,0.20843
1793.47585,0.20761
1795.40432,0.20136
1797.33279,0.19810
1799.26126,0.19903
1801.18973,0.19820
1803.11820,0.19170
1805.04666,0.18582
1806.97513,0.18408
1808.90360,0.18603
1810.83207,0.18787
1812.76054,0.18570
1814.68901,0.18441
1816.61748,0.18727
1818.54595,0.19203
1820.47441,0.19588
1822.40288,0.19806
1824.33135,0.19873
1826.25982,0.19705
1828.18829,0.19611
1830.11676,0.19572
1832.04523,0.19023
1833.97369,0.18435
1835.90216,0.18252
1837.83063,0.18320
1839.75910,0.18670
1841.68757,0.19505
1843.61604,0.20490
1845.54451,0.20443
1847.47298,0.19613
1849.40144,0.18893
1851.32991,0.18189
1853.25838,0.17643
1855.18685,0.17665
1857.11532,0.18117
1859.04379,0.18469
1860.97226,0.18449
1862.90072,0.18301
1864.82919,0.18608
1866.75766,0.19684
1868.68613,0.20564
1870.61460,0.19929
1872.54307,0.18776
1874.47154,0.18161
1876.40001,0.17957
1878.32847,0.18035
1880.25694,0.18389
1882.18541,0.18577
1884.11388,0.18562
1886.04235,0.18828
1887.97082,0.19388
1889.89929,0.19631
1891.82775,0.19302
1893.75622,0.18800
1895.68469,0.18327
1897.61316,0.18079
1899.54163,0.18124
1901.47010,0.18285
1903.39857,0.18479
1905.32704,0.18707
1907.25550,0.19115
1909.18397,0.19545
1911.11244,0.19436
1913.04091,0.19003
1914.96938,0.18892
1916.89785,0.19034
1918.82632,0.19038
1920.75478,0.18951
1922.68325,0.18864
1924.61172,0.18691
1926.54019,0.18510
1928.46866,0.18469
1930.39713,0.18461
1932.32560,0.18303
1934.25407,0.18251
1936.18253,0.18474
1938.11100,0.18817
1940.03947,0.19289
1941.96794,0.19573
1943.89641,0.19326
1945.82488,0.19019
1947.75335,0.18915
1949.68181,0.18892
1951.61028,0.18877
1953.53875,0.18784
1955.46722,0.18716
1957.39569,0.18712
1959.32416,0.18679
1961.25263,0.18645
1963.18110,0.18734
1965.10956,0.19045
1967.03803,0.19293
1968.96650,0.19171
1970.89497,0.18874
1972.82344,0.18596
1974.75191,0.18092
1976.68038,0.17556
1978.60884,0.17516
1980.53731,0.17643
1982.46578,0.17941
1984.39425,0.18575
1986.32272,0.18981
1988.25119,0.19092
1990.17966,0.19092
1992.10812,0.19052
1994.03659,0.18971
1995.96506,0.18769
1997.89353,0.18632
1999.82200,0.18587
2001.75047,0.18463
2003.67894,0.18277
2005.60741,0.18262
2007.53587,0.18413
2009.46434,0.18487
2011.39281,0.18557
2013.32128,0.18717
2015.24975,0.19052
2017.17822,0.19537
2019.10669,0.19632
2021.03515,0.19187
2022.96362,0.18689
2024.89209,0.18540
2026.82056,0.18734
2028.74903,0.18877
2030.67750,0.18838
2032.60597,0.18867
2034.53444,0.18945
2036.46290,0.18896
2038.39137,0.18875
2040.31984,0.18957
2042.24831,0.18810
2044.17678,0.18535
2046.10525,0.18636
2048.03372,0.19030
2049.96218,0.19193
2051.89065,0.19023
2053.81912,0.18776
2055.74759,0.18640
2057.67606,0.18742
2059.60453,0.18959
2061.53300,0.19138
2063.46147,0.19327
2065.38993,0.19345
2067.31840,0.19146
2069.24687,0.19044
2071.17534,0.18969
2073.10381,0.18800
2075.03228,0.18829
2076.96075,0.18933
2078.88921,0.18775
2080.81768,0.18626
2082.74615,0.18667
2084.67462,0.18640
2086.60309,0.18525
2088.53156,0.18526
2090.46003,0.18691
2092.38850,0.18953
2094.31696,0.19241
2096.24543,0.19319
2098.17390,0.19007
2100.10237,0.18692
2102.03084,0.18801
2103.95931,0.19138
2105.88778,0.19216
2107.81624,0.19038
2109.74471,0.19085
2111.67318,0.19315
2113.60165,0.19362
2115.53012,0.19206
2117.45859,0.19014
2119.38706,0.19032
2121.31553,0.19188
2123.24399,0.19194
2125.17246,0.19100
2127.10093,0.19044
2129.02940,0.19039
2130.95787,0.19013
2132.88634,0.18912
2134.81481,0.19041
2136.74327,0.19468
2138.67174,0.19480
2140.60021,0.18929
2142.52868,0.18722
2144.45715,0.19050
2146.38562,0.19245
2148.31409,0.19172
2150.24255,0.19007
2152.17102,0.18747
2154.09949,0.18583
2156.02796,0.18755
2157.95643,0.19125
2159.88490,0.19333
2161.81337,0.19270
2163.74184,0.19174
2165.67030,0.19230
2167.59877,0.19240
2169.52724,0.19059
2171.45571,0.18893
2173.38418,0.18937
2175.31265,0.19196
2177.24112,0.19472
2179.16958,0.19442
2181.09805,0.19080
2183.02652,0.18806
2184.95499,0.18760
2186.88346,0.18696
2188.81193,0.18691
2190.74040,0.18914
2192.66887,0.19121
2194.59733,0.19065
2196.52580,0.18898
2198.45427,0.18858
2200.38274,0.18932
2202.31121,0.19062
2204.23968,0.19300
2206.16815,0.19503
2208.09661,0.19444
2210.02508,0.19149
2211.95355,0.18844
2213.88202,0.18739
2215.81049,0.18798
2217.73896,0.18877
2219.66743,0.18847
2221.59590,0.18686
2223.52436,0.18550
2225.45283,0.18598
2227.38130,0.18809
2229.30977,0.18963
2231.23824,0.19009
2233.16671,0.19053
2235.09518,0.19132
2237.02364,0.19230
2238.95211,0.19227
2240.88058,0.19022
2242.80905,0.18783
2244.73752,0.18777
2246.66599,0.18891
2248.59446,0.18850
2250.52293,0.18665
2252.45139,0.18598
2254.37986,0.18928
2256.30833,0.19442
2258.23680,0.19602
2260.16527,0.19386
2262.09374,0.19202
2264.02221,0.19241
2265.95067,0.19375
2267.87914,0.19392
2269.80761,0.19224
2271.73608,0.19078
2273.66455,0.19129
2275.59302,0.19187
2277.52149,0.19035
2279.44996,0.18858
2281.37842,0.18962
2283.30689,0.19226
2285.23536,0.19398
2287.16383,0.19391
2289.09230,0.19196
2291.02077,0.18851
2292.94924,0.18475
2294.87770,0.18540
2296.80617,0.18972
2298.73464,0.19230
2300.66311,0.19597
2302.59158,0.20007
2304.52005,0.19997
2306.44852,0.19961
2308.37699,0.20278
2310.30545,0.20654
2312.23392,0.20790
2314.16239,0.20892
2316.09086,0.21200
2318.01933,0.21530
2319.94780,0.21509
2321.87627,0.21129
2323.80473,0.21006
2325.73320,0.21727
2327.66167,0.22600
2329.59014,0.22301
2331.51861,0.21925
2333.44708,0.22527
2335.37555,0.22479
2337.30401,0.21753
2339.23248,0.21676
2341.16095,0.22155
2343.08942,0.21952
2345.01789,0.21130
2346.94636,0.21410
2348.87483,0.22623
2350.80330,0.23774
2352.73176,0.24159
2354.66023,0.23694
2356.58870,0.23421
2358.51717,0.23666
2360.44564,0.24048
2362.37411,0.24961
2364.30258,0.25924
2366.23104,0.24780
2368.15951,0.22194
2370.08798,0.20874
2372.01645,0.20665
2373.94492,0.20665
2375.87339,0.20906
2377.80186,0.21145
2379.73033,0.21135
2381.65879,0.20697
2383.58726,0.19891
2385.51573,0.19307
2387.44420,0.19225
2389.37267,0.19273
2391.30114,0.19109
2393.22961,0.18941
2395.15807,0.19118
2397.08654,0.19602
2399.01501,0.20018
2400.94348,0.19855
2402.87195,0.19328
2404.80042,0.19167
2406.72889,0.19342
2408.65736,0.19645
2410.58582,0.20173
2412.51429,0.20542
2414.44276,0.20309
2416.37123,0.19643
2418.29970,0.19075
2420.22817,0.18930
2422.15664,0.18895
2424.08510,0.18749
2426.01357,0.18797
2427.94204,0.19160
2429.87051,0.19431
2431.79898,0.19395
2433.72745,0.19307
2435.65592,0.19159
2437.58439,0.18975
2439.51285,0.19046
2441.44132,0.19408
2443.36979,0.19653
2445.29826,0.19423
2447.22673,0.18954
2449.15520,0.19263
2451.08367,0.20839
2453.01213,0.22063
2454.94060,0.22162
2456.86907,0.21671
2458.79754,0.20487
2460.72601,0.19667
2462.65448,0.19694
2464.58295,0.19524
2466.51142,0.19137
2468.43988,0.19111
2470.36835,0.19481
2472.29682,0.19726
2474.22529,0.19671
2476.15376,0.19634
2478.08223,0.19522
2480.01070,0.19227
2481.93916,0.18988
2483.86763,0.18936
2485.79610,0.19187
2487.72457,0.19541
2489.65304,0.19452
2491.58151,0.19103
2493.50998,0.19153
2495.43844,0.19577
2497.36691,0.19846
2499.29538,0.19926
2501.22385,0.19934
2503.15232,0.19700
2505.08079,0.19361
2507.00926,0.19272
2508.93773,0.19528
2510.86619,0.19868
2512.79466,0.20034
2514.72313,0.19976
2516.65160,0.19900
2518.58007,0.19856
2520.50854,0.19615
2522.43701,0.19449
2524.36547,0.19599
2526.29394,0.19759
2528.22241,0.19852
2530.15088,0.20038
2532.07935,0.20135
2534.00782,0.19922
2535.93629,0.19723
2537.86476,0.19783
2539.79322,0.19890
2541.72169,0.20051
2543.65016,0.20216
2545.57863,0.20019
2547.50710,0.19607
2549.43557,0.19388
2551.36404,0.19420
2553.29250,0.19560
2555.22097,0.19585
2557.14944,0.19533
2559.07791,0.19575
2561.00638,0.19610
2562.93485,0.19573
2564.86332,0.19512
2566.79179,0.19399
2568.72025,0.19356
2570.64872,0.19504
2572.57719,0.19616
2574.50566,0.19428
2576.43413,0.19028
2578.36260,0.18818
2580.29107,0.19052
2582.21953,0.19492
2584.14800,0.19862
2586.07647,0.20140
2588.00494,0.20171
2589.93341,0.19817
2591.86188,0.19405
2593.79035,0.19253
2595.71882,0.19294
2597.64728,0.19481
2599.57575,0.19719
2601.50422,0.19717
2603.43269,0.19501
2605.36116,0.19371
2607.28963,0.19601
2609.21810,0.20243
2611.14656,0.20779
2613.07503,0.20804
2615.00350,0.20465
2616.93197,0.20043
2618.86044,0.19900
2620.78891,0.19990
2622.71738,0.19939
2624.64585,0.19928
2626.57431,0.20089
2628.50278,0.20061
2630.43125,0.19828
2632.35972,0.19666
2634.28819,0.19570
2636.21666,0.19614
2638.14513,0.20013
2640.07359,0.20427
2642.00206,0.20436
2643.93053,0.20407
2645.85900,0.20640
2647.78747,0.20670
2649.71594,0.20367
2651.64441,0.20155
2653.57288,0.20003
2655.50134,0.19884
2657.42981,0.19947
2659.35828,0.20033
2661.28675,0.20091
2663.21522,0.20179
2665.14369,0.20333
2667.07216,0.20540
2669.00062,0.20585
2670.92909,0.20367
2672.85756,0.20118
2674.78603,0.20062
2676.71450,0.20179
2678.64297,0.20317
2680.57144,0.20406
2682.49990,0.20481
2684.42837,0.20515
2686.35684,0.20577
2688.28531,0.20532
2690.21378,0.20234
2692.14225,0.20117
2694.07072,0.20227
2695.99919,0.20095
2697.92765,0.19870
2699.85612,0.19964
2701.78459,0.20183
2703.71306,0.20243
2705.64153,0.20339
2707.57000,0.20508
2709.49847,0.20340
2711.42693,0.19801
2713.35540,0.19596
2715.28387,0.20173
2717.21234,0.20872
2719.14081,0.20983
2721.06928,0.20856
2722.99775,0.20698
2724.92622,0.20198
2726.85468,0.19892
2728.78315,0.20283
2730.71162,0.20779
2732.64009,0.20878
2734.56856,0.20747
2736.49703,0.20605
2738.42550,0.20492
2740.35396,0.20413
2742.28243,0.20362
2744.21090,0.20378
2746.13937,0.20471
2748.06784,0.20527
2749.99631,0.20607
2751.92478,0.20824
2753.85325,0.21069
2755.78171,0.21307
2757.71018,0.21482
2759.63865,0.21376
2761.56712,0.21068
2763.49559,0.20802
2765.42406,0.20593
2767.35253,0.20358
2769.28099,0.20102
2771.20946,0.19970
2773.13793,0.20171
2775.06640,0.20577
2776.99487,0.20866
2778.92334,0.21057
2780.85181,0.21049
2782.78028,0.20789
2784.70874,0.20532
2786.63721,0.20248
2788.56568,0.20102
2790.49415,0.20323
2792.42262,0.20597
2794.35109,0.20744
2796.27956,0.20953
2798.20802,0.21282
2800.13649,0.21522
2802.06496,0.21590
2803.99343,0.21603
2805.92190,0.21591
2807.85037,0.21519
2809.77884,0.21419
2811.70731,0.21300
2813.63577,0.21198
2815.56424,0.21199
2817.49271,0.21179
2819.42118,0.21097
2821.34965,0.21127
2823.27812,0.21298
2825.20659,0.21268
2827.13505,0.20808
2829.06352,0.20409
2830.99199,0.20382
2832.92046,0.20405
2834.84893,0.20316
2836.77740,0.20419
2838.70587,0.20897
2840.63433,0.21341
2842.56280,0.21403
2844.49127,0.21102
2846.41974,0.20897
2848.34821,0.21075
2850.27668,0.20845
2852.20515,0.20080
2854.13362,0.19792
2856.06208,0.19986
2857.99055,0.20043
2859.91902,0.20113
2861.84749,0.20380
2863.77596,0.20573
2865.70443,0.20655
2867.63290,0.20749
2869.56136,0.20701
2871.48983,0.20471
2873.41830,0.20364
2875.34677,0.20774
2877.27524,0.21648
2879.20371,0.22103
2881.13218,0.21650
2883.06065,0.20972
2884.98911,0.20685
2886.91758,0.20767
2888.84605,0.20928
2890.77452,0.21040
2892.70299,0.21106
2894.63146,0.20992
2896.55993,0.20907
2898.48839,0.20988
2900.41686,0.20794
2902.34533,0.20294
2904.27380,0.19961
2906.20227,0.20262
2908.13074,0.21199
2910.05921,0.21831
2911.98768,0.21737
2913.91614,0.21060
2915.84461,0.19829
2917.77308,0.19114
2919.70155,0.19513
2921.63002,0.20219
2923.55849,0.20439
2925.48696,0.20506
2927.41542,0.21840
2929.34389,0.23501
2931.27236,0.23086
2933.20083,0.21372
2935.12930,0.19978
2937.05777,0.19020
2938.98624,0.19183
2940.91471,0.20301
2942.84317,0.20761
2944.77164,0.19802
2946.70011,0.18145
2948.62858,0.17939
2950.55705,0.19487
2952.48552,0.20478
2954.41399,0.20076
2956.34245,0.18807
2958.27092,0.18160
2960.19939,0.19323
2962.12786,0.20665
2964.05633,0.20715
2965.98480,0.19766
2967.91327,0.18751
2969.84174,0.19120
2971.77020,0.20607
2973.69867,0.21534
2975.62714,0.20921
2977.55561,0.19357
2979.48408,0.19042
2981.41255,0.20067
2983.34102,0.20689
2985.26948,0.20595
2987.19795,0.19804
2989.12642,0.19339
2991.05489,0.20272
2992.98336,0.21241
2994.91183,0.21262
2996.84030,0.20961
2998.76877,0.20867
3000.69723,0.21094
3002.62570,0.21251
3004.55417,0.20922
3006.48264,0.20289
3008.41111,0.19527
3010.33958,0.17820
3012.26805,0.14063
3014.19651,0.09038
3016.12498,0.06226
3018.05345,0.09031
3019.98192,0.15447
3021.91039,0.20041
3023.83886,0.21496
3025.76733,0.21632
3027.69579,0.21453
3029.62426,0.21653
3031.55273,0.22322
3033.48120,0.22523
3035.40967,0.21951
3037.33814,0.21384
3039.26661,0.21533
3041.19508,0.22060
3043.12354,0.22105
3045.05201,0.21475
3046.98048,0.20836
3048.90895,0.21085
3050.83742,0.21791
3052.76589,0.21854
3054.69436,0.21151
3056.62282,0.20069
3058.55129,0.19616
3060.47976,0.20172
3062.40823,0.20725
3064.33670,0.20292
3066.26517,0.19252
3068.19364,0.19495
3070.12211,0.20935
3072.05057,0.21477
3073.97904,0.20458
3075.90751,0.19270
3077.83598,0.19743
3079.76445,0.20978
3081.69292,0.20684
3083.62139,0.18618
3085.54985,0.17232
3087.47832,0.18589
3089.40679,0.20510
3091.33526,0.20593
3093.26373,0.19460
3095.19220,0.18969
3097.12067,0.20140
3099.04914,0.21557
3100.97760,0.21597
3102.90607,0.20284
3104.83454,0.19617
3106.76301,0.20633
3108.69148,0.21253
3110.61995,0.20223
3112.54842,0.18954
3114.47688,0.19532
3116.40535,0.21523
3118.33382,0.22203
3120.26229,0.20830
3122.19076,0.19683
3124.11923,0.20627
3126.04770,0.22103
3127.97617,0.21958
3129.90463,0.20623
3131.83310,0.20127
3133.76157,0.21095
3135.69004,0.21672
3137.61851,0.20837
3139.54698,0.19970
3141.47545,0.20391
3143.40391,0.21492
3145.33238,0.22157
3147.26085,0.22032
3149.18932,0.21444
3151.11779,0.21374
3153.04626,0.22011
3154.97473,0.22385
3156.90320,0.22096
3158.83166,0.21776
3160.76013,0.21833
3162.68860,0.21942
3164.61707,0.21706
3166.54554,0.21528
3168.47401,0.22039
3170.40248,0.22550
3172.33094,0.22353
3174.25941,0.21912
3176.18788,0.21767
3178.11635,0.22082
3180.04482,0.22512
3181.97329,0.22473
3183.90176,0.21993
3185.83022,0.21667
3187.75869,0.21874
3189.68716,0.22166
3191.61563,0.21965
3193.54410,0.21644
3195.47257,0.21635
3197.40104,0.21656
3199.32951,0.21601
3201.25797,0.21616
3203.18644,0.21707
3205.11491,0.21906
3207.04338,0.22196
3208.97185,0.22406
3210.90032,0.22568
3212.82879,0.22847
3214.75725,0.22808
3216.68572,0.22125
3218.61419,0.21584
3220.54266,0.21680
3222.47113,0.21932
3224.39960,0.22045
3226.32807,0.21785
3228.25654,0.21174
3230.18500,0.20937
3232.11347,0.21415
3234.04194,0.22140
3235.97041,0.22488
3237.89888,0.22502
3239.82735,0.22430
3241.75582,0.22352
3243.68428,0.22693
3245.61275,0.22982
3247.54122,0.22304
3249.46969,0.21232
3251.39816,0.20734
3253.32663,0.20924
3255.25510,0.21512
3257.18357,0.22148
3259.11203,0.22294
3261.04050,0.21807
3262.96897,0.21191
3264.89744,0.20906
3266.82591,0.21160
3268.75438,0.21678
3270.68285,0.22085
3272.61131,0.22546
3274.53978,0.22893
3276.46825,0.22596
3278.39672,0.22002
3280.32519,0.21550
3282.25366,0.21273
3284.18213,0.21423
3286.11060,0.21651
3288.03906,0.21528
3289.96753,0.21393
3291.89600,0.21253
3293.82447,0.21001
3295.75294,0.21005
3297.68141,0.21203
3299.60988,0.21200
3301.53834,0.21157
3303.46681,0.21127
3305.39528,0.20959
3307.32375,0.20975
3309.25222,0.21179
3311.18069,0.21201
3313.10916,0.21137
3315.03763,0.21291
3316.96609,0.21537
3318.89456,0.21670
3320.82303,0.21901
3322.75150,0.22057
3324.67997,0.21887
3326.60844,0.22032
3328.53691,0.22481
3330.46537,0.22496
3332.39384,0.22475
3334.32231,0.22785
3336.25078,0.22869
3338.17925,0.22579
3340.10772,0.22231
3342.03619,0.22148
3343.96466,0.22432
3345.89312,0.22530
3347.82159,0.22171
3349.75006,0.22090
3351.67853,0.22463
3353.60700,0.22684
3355.53547,0.22563
3357.46394,0.22229
3359.39240,0.22280
3361.32087,0.22876
3363.24934,0.23056
3365.17781,0.22684
3367.10628,0.22493
3369.03475,0.22635
3370.96322,0.22936
3372.89168,0.23108
3374.82015,0.22998
3376.74862,0.22646
3378.67709,0.21986
3380.60556,0.21528
3382.53403,0.21834
3384.46250,0.22355
3386.39097,0.22610
3388.31943,0.22735
3390.24790,0.22495
3392.17637,0.22010
3394.10484,0.21969
3396.03331,0.22225
3397.96178,0.22203
3399.89025,0.21747
3401.81871,0.20868
3403.74718,0.20133
3405.67565,0.20554
3407.60412,0.21724
3409.53259,0.22010
3411.46106,0.21574
3413.38953,0.21655
3415.31800,0.22119
3417.24646,0.22281
3419.17493,0.21956
3421.10340,0.21772
3423.03187,0.22202
3424.96034,0.22530
3426.88881,0.22209
3428.81728,0.21762
3430.74574,0.21622
3432.67421,0.21245
3434.60268,0.20514
3436.53115,0.20392
3438.45962,0.21264
3440.38809,0.22350
3442.31656,0.22747
3444.24503,0.22494
3446.17349,0.22261
3448.10196,0.21888
3450.03043,0.21128
3451.95890,0.20727
3453.88737,0.20675
3455.81584,0.20320
3457.74431,0.19994
3459.67277,0.20160
3461.60124,0.20314
3463.52971,0.19964
3465.45818,0.19548
3467.38665,0.19712
3469.31512,0.20242
3471.24359,0.20028
3473.17206,0.19178
3475.10052,0.19055
3477.02899,0.19396
3478.95746,0.19250
3480.88593,0.18917
3482.81440,0.18996
3484.74287,0.19547
3486.67134,0.19998
3488.59980,0.19827
3490.52827,0.19336
3492.45674,0.19174
3494.38521,0.19384
3496.31368,0.19561
3498.24215,0.19809
3500.17062,0.20127
3502.09909,0.19845
3504.02755,0.18928
3505.95602,0.18537
3507.88449,0.19167
3509.81296,0.19782
3511.74143,0.19639
3513.66990,0.19459
3515.59837,0.19660
3517.52683,0.19761
3519.45530,0.19390
3521.38377,0.18768
3523.31224,0.18337
3525.24071,0.18342
3527.16918,0.18623
3529.09765,0.18711
3531.02611,0.18412
3532.95458,0.17940
3534.88305,0.17515
3536.81152,0.17375
3538.73999,0.17559
3540.66846,0.17797
3542.59693,0.18072
3544.52540,0.18630
3546.45386,0.19237
3548.38233,0.19214
3550.31080,0.18558
3552.23927,0.17608
3554.16774,0.16714
3556.09621,0.16514
3558.02468,0.17208
3559.95314,0.18058
3561.88161,0.18525
3563.81008,0.19082
3565.73855,0.19791
3567.66702,0.19294
3569.59549,0.17591
3571.52396,0.16449
3573.45243,0.16066
3575.38089,0.15991
3577.30936,0.16039
3579.23783,0.15826
3581.16630,0.15461
3583.09477,0.15911
3585.02324,0.17381
3586.95171,0.18657
3588.88017,0.18424
3590.80864,0.17913
3592.73711,0.18035
3594.66558,0.18034
3596.59405,0.17400
3598.52252,0.16774
3600.45099,0.16377
3602.37946,0.16017
3604.30792,0.15923
3606.23639,0.16125
3608.16486,0.16260
3610.09333,0.16542
3612.02180,0.17447
3613.95027,0.18032
3615.87874,0.17629
3617.80720,0.17250
3619.73567,0.16816
3621.66414,0.15958
3623.59261,0.15779
3625.52108,0.16469
3627.44955,0.17670
3629.37802,0.18402
3631.30649,0.17482
3633.23495,0.16336
3635.16342,0.15692
3637.09189,0.15377
3639.02036,0.15227
3640.94883,0.15127
3642.87730,0.14999
3644.80577,0.15407
3646.73423,0.17087
3648.66270,0.19062
3650.59117,0.18308
3652.51964,0.16596
3654.44811,0.15800
3656.37658,0.15266
3658.30505,0.14530
3660.23352,0.14029
3662.16198,0.13714
3664.09045,0.13483
3666.01892,0.13811
3667.94739,0.15202
3669.87586,0.16966
3671.80433,0.17237
3673.73280,0.16837
3675.66126,0.16229
3677.58973,0.15230
3679.51820,0.14354
3681.44667,0.13686
3683.37514,0.13634
3685.30361,0.14334
3687.23208,0.15475
3689.16055,0.16223
3691.08901,0.15602
3693.01748,0.14596
3694.94595,0.13975
3696.87442,0.13672
3698.80289,0.13751
3700.73136,0.14162
3702.65983,0.14206
3704.58829,0.13743
3706.51676,0.13679
3708.44523,0.14376
3710.37370,0.15273
3712.30217,0.15436
3714.23064,0.15138
3716.15911,0.14906
3718.08757,0.14516
3720.01604,0.14022
3721.94451,0.13900
3723.87298,0.14190
3725.80145,0.14474
3727.72992,0.14316
3729.65839,0.13828
3731.58686,0.13803
3733.51532,0.15207
3735.44379,0.16352
3737.37226,0.14998
3739.30073,0.13861
3741.22920,0.13836
3743.15767,0.14091
3745.08614,0.14818
3747.01460,0.16074
3748.94307,0.16978
3750.87154,0.16272
3752.80001,0.14262
3754.72848,0.13231
3756.65695,0.13553
3758.58542,0.14894
3760.51389,0.15581
3762.44235,0.14827
3764.37082,0.13693
3766.29929,0.13045
3768.22776,0.13095
3770.15623,0.12929
3772.08470,0.12129
3774.01317,0.11627
3775.94163,0.11949
3777.87010,0.13000
3779.79857,0.13667
3781.72704,0.13391
3783.65551,0.13256
3785.58398,0.13261
3787.51245,0.13037
3789.44092,0.12867
3791.36938,0.12958
3793.29785,0.13384
3795.22632,0.14005
3797.15479,0.14555
3799.08326,0.15056
3801.01173,0.15112
3802.94020,0.13919
3804.86866,0.12951
3806.79713,0.12611
3808.72560,0.12229
3810.65407,0.11997
3812.58254,0.12286
3814.51101,0.13247
3816.43948,0.14209
3818.36795,0.14875
3820.29641,0.15803
3822.22488,0.14948
3824.15335,0.13126
3826.08182,0.12674
3828.01029,0.12903
3829.93876,0.13213
3831.86723,0.14106
3833.79569,0.15338
3835.72416,0.16119
3837.65263,0.15571
3839.58110,0.13999
3841.50957,0.13155
3843.43804,0.12747
3845.36651,0.12444
3847.29498,0.12366
3849.22344,0.12424
3851.15191,0.13117
3853.08038,0.14691
3855.00885,0.14489
3856.93732,0.13082
3858.86579,0.12411
3860.79426,0.12998
3862.72272,0.14338
3864.65119,0.14240
3866.57966,0.12924
3868.50813,0.12678
3870.43660,0.13389
3872.36507,0.13743
3874.29354,0.13741
3876.22200,0.13325
3878.15047,0.12884
3880.07894,0.13164
3882.00741,0.13410
3883.93588,0.12946
3885.86435,0.12435
3887.79282,0.12127
3889.72129,0.12090
3891.64975,0.12197
3893.57822,0.11860
3895.50669,0.11362
3897.43516,0.11228
3899.36363,0.11740
3901.29210,0.12662
3903.22057,0.13148
3905.14903,0.12922
3907.07750,0.12140
3909.00597,0.11384
3910.93444,0.11108
3912.86291,0.11098
3914.79138,0.11180
3916.71985,0.11590
3918.64832,0.12196
3920.57678,0.12617
3922.50525,0.13032
3924.43372,0.13092
3926.36219,0.12288
3928.29066,0.11421
3930.21913,0.11260
3932.14760,0.11640
3934.07606,0.11544
3936.00453,0.10817
3937.93300,0.10505
3939.86147,0.11066
3941.78994,0.11824
3943.71841,0.12021
3945.64688,0.11977
3947.57535,0.12069
3949.50381,0.11895
3951.43228,0.11571
3953.36075,0.11546
3955.28922,0.11024
3957.21769,0.09584
3959.14616,0.08867
3961.07463,0.09658
3963.00309,0.10489
3964.93156,0.10461
3966.86003,0.10168
3968.78850,0.10055
3970.71697,0.10089
3972.64544,0.10232
3974.57391,0.10304
3976.50238,0.10214
3978.43084,0.10077
3980.35931,0.09821
3982.28778,0.09659
3984.21625,0.09676
3986.14472,0.09321
3988.07319,0.08924
3990.00166,0.09391
3991.93012,0.10312
3993.85859,0.10422
3995.78706,0.09766
3997.71553,0.09706
3999.64400,0.10255
4001.57247,0.10139
4003.50094,0.09460
4005.42941,0.09236
4007.35787,0.09468
4009.28634,0.09678
4011.21481,0.09775
4013.14328,0.09664
4015.07175,0.09437
4017.00022,0.09466
4018.92869,0.09603
4020.85715,0.09695
4022.78562,0.09737
4024.71409,0.09357
4026.64256,0.09030
4028.57103,0.09322
4030.49950,0.09560
4032.42797,0.09612
4034.35644,0.09862
4036.28490,0.10105
4038.21337,0.10222
4040.14184,0.09921
4042.07031,0.09116
4043.99878,0.08619
4045.92725,0.08448
4047.85572,0.08189
4049.78418,0.08363
4051.71265,0.08888
4053.64112,0.09183
4055.56959,0.09253
4057.49806,0.09286
4059.42653,0.09349
4061.35500,0.09244
4063.28346,0.08825
4065.21193,0.08426
4067.14040,0.08332
4069.06887,0.08517
4070.99734,0.09032
4072.92581,0.09452
4074.85428,0.09277
4076.78275,0.09093
4078.71121,0.09236
4080.63968,0.09042
4082.56815,0.08056
4084.49662,0.07131
4086.42509,0.07403
4088.35356,0.08225
4090.28203,0.08298
4092.21049,0.07744
4094.13896,0.07752
4096.06743,0.08532
4097.99590,0.08930
4099.92437,0.08455
4101.85284,0.07740
4103.78131,0.07427
4105.70978,0.07593
4107.63824,0.08147
4109.56671,0.08466
4111.49518,0.07940
4113.42365,0.07441
4115.35212,0.07851
4117.28059,0.08548
4119.20906,0.08505
4121.13752,0.07839
4123.06599,0.07164
4124.99446,0.06555
4126.92293,0.06141
4128.85140,0.06314
4130.77987,0.07027
4132.70834,0.07614
4134.63681,0.07937
4136.56527,0.08085
4138.49374,0.07766
4140.42221,0.07191
4142.35068,0.06948
4144.27915,0.07114
4146.20762,0.07282
4148.13609,0.07618
4150.06455,0.08366
4151.99302,0.08955
4153.92149,0.08763
4155.84996,0.07946
4157.77843,0.07209
4159.70690,0.06801
4161.63537,0.06499
4163.56384,0.06138
4165.49230,0.05825
4167.42077,0.05817
4169.34924,0.06210
4171.27771,0.06596
4173.20618,0.06601
4175.13465,0.06377
4177.06312,0.05687
4178.99158,0.04929
4180.92005,0.05017
4182.84852,0.05530
4184.77699,0.06005
4186.70546,0.06343
4188.63393,0.06233
4190.56240,0.05958
4192.49087,0.06047
4194.41933,0.06014
4196.34780,0.05185
4198.27627,0.04515
4200.20474,0.05227
4202.13321,0.06579
4204.06168,0.06925
4205.99015,0.06006
4207.91861,0.05406
4209.84708,0.06045
4211.77555,0.06672
4213.70402,0.06389
4215.63249,0.05760
4217.56096,0.05325
4219.48943,0.05238
4221.41789,0.05137
4223.34636,0.04610
4225.27483,0.04156
4227.20330,0.04152
4229.13177,0.04326
4231.06024,0.04428
4232.98871,0.04324
4234.91718,0.04420
4236.84564,0.05043
4238.77411,0.05632
4240.70258,0.05612
4242.63105,0.05063
4244.55952,0.04566
4246.48799,0.04393
4248.41646,0.04268
4250.34492,0.04226
4252.27339,0.04197
4254.20186,0.03813
4256.13033,0.03628
4258.05880,0.04052
4259.98727,0.04377
4261.91574,0.04481
4263.84421,0.04742
4265.77267,0.04759
4267.70114,0.04440
4269.62961,0.04251
4271.55808,0.03988
4273.48655,0.03737
4275.41502,0.03768
4277.34349,0.03723
4279.27195,0.03782
4281.20042,0.04155
4283.12889,0.04528
4285.05736,0.04724
4286.98583,0.04669
4288.91430,0.04402
4290.84277,0.04191
4292.77124,0.04254
4294.69970,0.04656
4296.62817,0.05305
4298.55664,0.05404
4300.48511,0.04780
4302.41358,0.04302
4304.34205,0.04166
4306.27052,0.04278
4308.19898,0.04382
4310.12745,0.04026
4312.05592,0.03412
4313.98439,0.03140
4315.91286,0.03528
4317.84133,0.04188
4319.76980,0.04675
4321.69827,0.04809
4323.62673,0.04347
4325.55520,0.03655
4327.48367,0.03330
4329.41214,0.03198
4331.34061,0.02956
4333.26908,0.02739
4335.19755,0.02554
4337.12601,0.02534
4339.05448,0.03030
4340.98295,0.03246
4342.91142,0.02442
4344.83989,0.01636
4346.76836,0.01664
4348.69683,0.02057
4350.62530,0.02196
4352.55376,0.01846
4354.48223,0.01360
4356.41070,0.01732
4358.33917,0.02819
4360.26764,0.03040
4362.19611,0.02340
4364.12458,0.02118
4366.05304,0.02342
4367.98151,0.02170
4369.90998,0.02017
4371.83845,0.02024
4373.76692,0.01680
4375.69539,0.01391
4377.62386,0.01398
4379.55232,0.01398
4381.48079,0.01505
4383.40926,0.01679
4385.33773,0.01929
4387.26620,0.02497
4389.19467,0.02644
4391.12314,0.01865
4393.05161,0.01125
4394.98007,0.00971
4396.90854,0.01223
4398.83701,0.01765
4400.76548,0.02135
4402.69395,0.01937
4404.62242,0.01410
4406.55089,0.00784
4408.47935,0.00455
4410.40782,0.00723
4412.33629,0.00788
4414.26476,0.00404
4416.19323,0.00394
4418.12170,0.00694
4420.05017,0.00832
4421.97864,0.00884
4423.90710,0.00896
4425.83557,0.00786
4427.76404,0.00903
4429.69251,0.01551
4431.62098,0.02062
4433.54945,0.02049
4435.47792,0.01689
4437.40638,0.01035
4439.33485,0.00795
4441.26332,0.01090
4443.19179,0.01248
4445.12026,0.01206
4447.04873,0.01028
4448.97720,0.00783
4450.90567,0.00735
4452.83413,0.01004
4454.76260,0.01104
4456.69107,0.00698
4458.61954,0.00230
4460.54801,0.00006
4462.47648,0.00113
4464.40495,0.00594
4466.33341,0.00924
4468.26188,0.00675
4470.19035,0.00308
4472.11882,0.00403
4474.04729,0.00963
4475.97576,0.01859
4477.90423,0.02818
4479.83270,0.02754
4481.76116,0.01429
4483.68963,0.00425
4485.61810,0.00640
4487.54657,0.01210
4489.47504,0.01155
4491.40351,0.01162
4493.33198,0.01992
4495.26044,0.02704
4497.18891,0.02308
4499.11738,0.00950
4501.04585,0.00214
4502.97432,0.00573
4504.90279,0.00443
4506.83126,-0.00143
4508.75973,0.00323
4510.68819,0.01285
4512.61666,0.01220
4514.54513,0.00631
4516.47360,0.00624
4518.40207,0.00633
4520.33054,0.00048
4522.25901,-0.00152
4524.18747,0.00841
4526.11594,0.02029
4528.04441,0.02113
4529.97288,0.01145
4531.90135,-0.00128
4533.82982,-0.01231
4535.75829,-0.01778
4537.68676,-0.01697
4539.61522,-0.00992
4541.54369,0.00201
4543.47216,0.00951
4545.40063,0.00921
4547.32910,0.00942
4549.25757,0.01210
4551.18604,0.01321
4553.11450,0.01016
4555.04297,0.00494
4556.97144,0.00678
4558.89991,0.01097
4560.82838,0.00757
4562.75685,0.00551
4564.68532,0.00431
4566.61378,-0.00632
4568.54225,-0.01122
4570.47072,0.00333
4572.39919,0.01586
4574.32766,0.00897
4576.25613,-0.00049
4578.18460,0.00632
4580.11307,0.01932
4582.04153,0.02045
4583.97000,0.01526
4585.89847,0.01528
4587.82694,0.01746
4589.75541,0.01389
4591.68388,0.00506
4593.61235,-0.00262
4595.54081,-0.00286
4597.46928,0.00510
4599.39775,0.01557
4601.32622,0.02003
4603.25469,0.01588
4605.18316,0.00736
4607.11163,0.00653
4609.04010,0.01515
4610.96856,0.01832
4612.89703,0.01068
4614.82550,0.00130
4616.75397,-0.00999
4618.68244,-0.01329
4620.61091,0.00426
4622.53938,0.01783
4624.46784,0.00364
4626.39631,-0.01451
4628.32478,-0.00948
4630.25325,0.00523
4632.18172,0.01276
4634.11019,0.00435
4636.03866,-0.00919
4637.96713,-0.00764
4639.89559,0.00631
4641.82406,0.01639
4643.75253,0.02351
4645.68100,0.03003
4647.60947,0.02726
4649.53794,0.01386
4651.46641,-0.00050
4653.39487,-0.00643
4655.32334,-0.00509
4657.25181,-0.00571
4659.18028,-0.01334
4661.10875,-0.01724
4663.03722,-0.00715
4664.96569,0.00635
4666.89416,0.01248
4668.82262,0.01487
4670.75109,0.01373
4672.67956,0.00861
4674.60803,0.00641
4676.53650,0.00971
4678.46497,0.01175
4680.39344,0.00975
4682.32190,0.00599
4684.25037,0.00387
4686.17884,0.00496
4688.10731,0.00668
4690.03578,0.00943
4691.96425,0.00870
4693.89272,0.00373
4695.82119,0.00401
4697.74965,0.00565
4699.67812,0.00502
4701.60659,0.01034
4703.53506,0.01709
4705.46353,0.01509
4707.39200,0.01068
4709.32047,0.01298
4711.24893,0.01652
4713.17740,0.01143
4715.10587,-0.00062
4717.03434,-0.00827
4718.96281,-0.00420
4720.89128,0.00462
4722.81975,0.00601
4724.74821,0.00037
4726.67668,-0.00487
4728.60515,-0.00132
4730.53362,0.01630
4732.46209,0.02891
4734.39056,0.01791
4736.31903,0.00434
4738.24750,0.00957
4740.17596,0.01708
4742.10443,0.00801
4744.03290,-0.00635
4745.96137,-0.00961
4747.88984,-0.00385
4749.81831,0.00161
4751.74678,0.00182
4753.67524,-0.00073
4755.60371,-0.00031
4757.53218,0.00199
4759.46065,0.00094
4761.38912,-0.00159
4763.31759,0.00227
4765.24606,0.01133
4767.17453,0.01633
4769.10299,0.01342
4771.03146,0.00369
4772.95993,-0.00449
4774.88840,-0.00392
4776.81687,-0.00200
4778.74534,-0.00234
4780.67381,-0.00178
4782.60227,-0.00393
4784.53074,-0.00334
4786.45921,0.00500
4788.38768,0.00980
4790.31615,0.01317
4792.24462,0.02230
4794.17309,0.02654
4796.10156,0.02402
4798.03002,0.01883
4799.95849,0.00872
4801.88696,0.00223
4803.81543,0.00404
4805.74390,0.00907
4807.67237,0.01540
4809.60084,0.01952
4811.52930,0.02493
4813.45777,0.03242
4815.38624,0.02702
4817.31471,0.00543
4819.24318,-0.01330
4821.17165,-0.01677
4823.10012,-0.00757
4825.02859,0.00928
4826.95705,0.02028
4828.88552,0.01751
4830.81399,0.01268
4832.74246,0.01402
4834.67093,0.01726
4836.59940,0.01593
4838.52787,0.00749
4840.45633,-0.00813
4842.38480,-0.02122
4844.31327,-0.01726
4846.24174,0.00072
4848.17021,0.01788
4850.09868,0.02997
4852.02715,0.03211
4853.95562,0.01327
4855.88408,-0.01212
4857.81255,-0.01349
4859.74102,0.00423
4861.66949,0.01482
4863.59796,0.01619
4865.52643,0.01129
4867.45490,0.00003
4869.38336,-0.00513
4871.31183,-0.00222
4873.24030,-0.00305
4875.16877,-0.00542
4877.09724,0.00412
4879.02571,0.02205
4880.95418,0.02834
4882.88265,0.01443
4884.81111,-0.00116
4886.73958,-0.00353
4888.66805,0.00282
4890.59652,0.00265
4892.52499,-0.00727
4894.45346,-0.00991
4896.38193,-0.00501
4898.31039,-0.00463
4900.23886,-0.00630
4902.16733,-0.00621
4904.09580,-0.00018
4906.02427,0.00782
4907.95274,0.00387
4909.88121,-0.00710
4911.80967,-0.01089
4913.73814,-0.00447
4915.66661,0.01022
4917.59508,0.02323
4919.52355,0.02124
4921.45202,0.00677
4923.38049,-0.00129
4925.30896,0.01087
4927.23742,0.02518
4929.16589,0.02584
4931.09436,0.02244
4933.02283,0.01505
4934.95130,0.00810
4936.87977,0.00620
4938.80824,0.00032
4940.73670,0.00057
4942.66517,0.01216
4944.59364,0.01292
4946.52211,0.00202
4948.45058,0.00124
4950.37905,0.01067
4952.30752,0.01722
4954.23599,0.01006
4956.16445,-0.00597
4958.09292,-0.00842
4960.02139,0.00262
4961.94986,0.01023
4963.87833,0.00863
4965.80680,-0.00163
4967.73527,-0.01035
4969.66373,-0.00669
4971.59220,0.00798
4973.52067,0.02337
4975.44914,0.02861
4977.37761,0.02512
4979.30608,0.02290
4981.23455,0.02533
4983.16302,0.02283
4985.09148,0.01005
4987.01995,-0.00264
4988.94842,-0.00307
4990.87689,0.00069
4992.80536,-0.00996
4994.73383,-0.02521
4996.66230,-0.02220
4998.59076,-0.00394
5000.51923,0.01455
5002.44770,0.03338
5004.37617,0.04926
5006.30464,0.04672
5008.23311,0.02913
5010.16158,0.00991
5012.09005,-0.00449
5014.01851,-0.01146
5015.94698,-0.01542
5017.87545,-0.02124
5019.80392,-0.01879
5021.73239,-0.01331
5023.66086,-0.01812
5025.58933,-0.01520
5027.51779,0.00116
5029.44626,0.01573
5031.37473,0.02673
5033.30320,0.03400
5035.23167,0.02919
5037.16014,0.01424
5039.08861,0.00463
5041.01708,0.00811
5042.94554,0.01342
5044.87401,0.01295
5046.80248,0.00860
5048.73095,-0.00066
5050.65942,-0.01773
5052.58789,-0.03636
5054.51636,-0.03506
5056.44482,-0.00777
5058.37329,0.01908
5060.30176,0.02353
5062.23023,0.01783
5064.15870,0.02052
5066.08717,0.02429
5068.01564,0.01903
5069.94410,0.00940
5071.87257,0.00341
5073.80104,0.00498
5075.72951,0.01568
5077.65798,0.02917
5079.58645,0.03414
5081.51492,0.02776
5083.44339,0.01749
5085.37185,0.01702
5087.30032,0.02336
5089.22879,0.01768
5091.15726,0.00272
5093.08573,-0.00004
5095.01420,0.01147
5096.94267,0.01424
5098.87113,-0.00234
5100.79960,-0.01154
5102.72807,0.00612
5104.65654,0.03138
5106.58501,0.04813
5108.51348,0.05475
5110.44195,0.04704
5112.37042,0.02253
5114.29888,-0.00014
5116.22735,0.00209
5118.15582,0.01213
5120.08429,0.01151
5122.01276,0.01374
5123.94123,0.02484
5125.86970,0.03422
5127.79816,0.03842
5129.72663,0.03669
5131.65510,0.02476
5133.58357,0.01413
5135.51204,0.01806
5137.44051,0.03240
5139.36898,0.03824
5141.29745,0.02065
5143.22591,0.00040
5145.15438,0.00667
5147.08285,0.02569
5149.01132,0.02603
5150.93979,0.01210
5152.86826,0.00293
5154.79673,0.00040
5156.72519,0.00497
5158.65366,0.00887
5160.58213,-0.00013
5162.51060,-0.00421
5164.43907,0.01164
5166.36754,0.02644
5168.29601,0.03003
5170.22448,0.02853
5172.15294,0.02970
5174.08141,0.04312
5176.00988,0.05934
5177.93835,0.06024
5179.86682,0.04502
5181.79529,0.03248
5183.72376,0.03361
5185.65222,0.03804
5187.58069,0.03631
5189.50916,0.02647
5191.43763,0.01431
5193.36610,0.01256
5195.29457,0.01492
5197.22304,0.00971
5199.15151,0.00554
5201.07997,0.00438
5203.00844,0.00200
5204.93691,0.00374
5206.86538,0.01685
5208.79385,0.03932
5210.72232,0.05232
5212.65079,0.04907
5214.57925,0.03575
5216.50772,0.02046
5218.43619,0.01355
5220.36466,0.01218
5222.29313,0.01475
5224.22160,0.02936
5226.15007,0.04210
5228.07854,0.02901
5230.00700,0.00897
5231.93547,0.01145
5233.86394,0.01815
5235.79241,0.00072
5237.72088,-0.01937
5239.64935,-0.01665
5241.57782,-0.01073
5243.50628,-0.00597
5245.43475,0.01489
5247.36322,0.02555
5249.29169,0.01685
5251.22016,0.02662
5253.14863,0.05146
5255.07710,0.05776
5257.00556,0.04777
5258.93403,0.04190
5260.86250,0.04429
5262.79097,0.04847
5264.71944,0.03566
5266.64791,0.01520
5268.57638,0.00963
5270.50485,0.01630
5272.43331,0.03102
5274.36178,0.03785
5276.29025,0.02367
5278.21872,0.00379
5280.14719,-0.00335
5282.07566,0.00305
5284.00413,0.01415
5285.93259,0.02919
5287.86106,0.04624
5289.78953,0.05779
5291.71800,0.06873
5293.64647,0.08400
5295.57494,0.08492
5297.50341,0.05273
5299.43188,0.01213
5301.36034,0.00336
5303.28881,0.01943
5305.21728,0.03260
5307.14575,0.03427
5309.07422,0.02829
5311.00269,0.02555
5312.93116,0.03096
5314.85962,0.04005
5316.78809,0.03941
5318.71656,0.02086
5320.64503,-0.00982
5322.57350,-0.03571
5324.50197,-0.03692
5326.43044,-0.01682
5328.35891,0.00998
5330.28737,0.03246
5332.21584,0.05488
5334.14431,0.07920
5336.07278,0.07266
5338.00125,0.03694
5339.92972,0.02555
5341.85819,0.03709
5343.78665,0.04615
5345.71512,0.05896
5347.64359,0.07695
5349.57206,0.08553
5351.50053,0.07566
5353.42900,0.05557
5355.35747,0.04396
5357.28594,0.04083
5359.21440,0.03490
5361.14287,0.03512
5363.07134,0.04518
5364.99981,0.05030
5366.92828,0.05681
5368.85675,0.06062
5370.78522,0.04678
5372.71368,0.02647
5374.64215,0.00913
5376.57062,0.00261
5378.49909,0.00671
5380.42756,0.00241
5382.35603,-0.01258
5384.28450,-0.02196
5386.21297,-0.00657
5388.14143,0.02260
5390.06990,0.04081
5391.99837,0.04820
5393.92684,0.05421
5395.85531,0.05845
5397.78378,0.05461
5399.71225,0.03856
5401.64071,0.01817
5403.56918,0.01950
5405.49765,0.04634
5407.42612,0.06220
5409.35459,0.06076
5411.28306,0.07702
5413.21153,0.10063
5415.13999,0.08557
5417.06846,0.04870
5418.99693,0.02790
5420.92540,0.02643
5422.85387,0.03228
5424.78234,0.03817
5426.71081,0.04041
5428.63928,0.03793
5430.56774,0.03097
5432.49621,0.02509
5434.42468,0.01927
5436.35315,0.01560
5438.28162,0.02793
5440.21009,0.05148
5442.13856,0.06491
5444.06702,0.06367
5445.99549,0.05550
5447.92396,0.04275
5449.85243,0.03126
5451.78090,0.02472
5453.70937,0.03352
5455.63784,0.06847
5457.56631,0.10718
5459.49477,0.10793
5461.42324,0.07104
5463.35171,0.04639
5465.28018,0.05372
5467.20865,0.06172
5469.13712,0.04423
5471.06559,0.02417
5472.99405,0.04095
5474.92252,0.06841
5476.85099,0.06387
5478.77946,0.04353
5480.70793,0.03924
5482.63640,0.07033
5484.56487,0.11025
5486.49334,0.11626
5488.42180,0.09344
5490.35027,0.06917
5492.27874,0.06072
5494.20721,0.07654
5496.13568,0.09935
5498.06415,0.10098
5499.99262,0.07707
5501.92108,0.06057
5503.84955,0.07106
5505.77802,0.08207
5507.70649,0.07964
5509.63496,0.07152
5511.56343,0.05251
5513.49190,0.02635
5515.42037,-0.00361
5517.34883,-0.01347
5519.27730,0.03254
5521.20577,0.08271
5523.13424,0.08547
5525.06271,0.07531
5526.99118,0.06458
5528.91965,0.04315
5530.84811,0.04177
5532.77658,0.07028
5534.70505,0.10261
5536.63352,0.12221
5538.56199,0.12337
5540.49046,0.11207
5542.41893,0.09646
5544.34740,0.07015
5546.27586,0.04067
5548.20433,0.02639
5550.13280,0.03104
5552.06127,0.05435
5553.98974,0.06867
5555.91821,0.04887
5557.84668,0.02246
5559.77514,0.02699
5561.70361,0.06736
5563.63208,0.09121
5565.56055,0.06478
5567.48902,0.04555
5569.41749,0.05400
5571.34596,0.05979
5573.27443,0.06135
5575.20289,0.05627
5577.13136,0.03638
5579.05983,0.01310
5580.98830,0.01877
5582.91677,0.04373
5584.84524,0.04547
5586.77371,0.03957
5588.70217,0.04637
5590.63064,0.04842
5592.55911,0.04003
5594.48758,0.03037
5596.41605,0.02706
5598.34452,0.03521
5600.27299,0.05185
5602.20145,0.06166
5604.12992,0.04940
5606.05839,0.04694
5607.98686,0.08922
5609.91533,0.13741
5611.84380,0.14448
5613.77227,0.10906
5615.70074,0.04812
5617.62920,-0.00977
5619.55767,-0.02583
5621.48614,-0.01054
5623.41461,0.00595
5625.34308,0.04920
5627.27155,0.09346
5629.20002,0.07390
5631.12848,0.04450
5633.05695,0.05925
5634.98542,0.07747
5636.91389,0.06716
5638.84236,0.04769
5640.77083,0.03519
5642.69930,0.03626
5644.62777,0.04880
5646.55623,0.05001
5648.48470,0.05457
5650.41317,0.09611
5652.34164,0.12364
5654.27011,0.09422
5656.19858,0.05852
5658.12705,0.05925
5660.05551,0.08922
5661.98398,0.12038
5663.91245,0.11427
5665.84092,0.07270
5667.76939,0.04998
5669.69786,0.05268
5671.62633,0.04950
5673.55480,0.05096
5675.48326,0.07006
5677.41173,0.08587
5679.34020,0.07457
5681.26867,0.05169
5683.19714,0.04570
5685.12561,0.05230
5687.05408,0.06190
5688.98254,0.07642
5690.91101,0.08425
5692.83948,0.07962
5694.76795,0.08108
5696.69642,0.09709
5698.62489,0.10989
5700.55336,0.10189
5702.48183,0.09040
5704.41029,0.09291
5706.33876,0.10416
5708.26723,0.12312
5710.19570,0.13556
5712.12417,0.11767
5714.05264,0.08050
5715.98111,0.06294
5717.90957,0.06184
5719.83804,0.06164
5721.76651,0.07992
5723.69498,0.10798
5725.62345,0.11342
5727.55192,0.08571
5729.48039,0.05187
5731.40886,0.03678
5733.33732,0.03358
5735.26579,0.05147
5737.19426,0.08599
5739.12273,0.08555
5741.05120,0.04862
5742.97967,0.02800
5744.90814,0.04104
5746.83660,0.05407
5748.76507,0.04064
5750.69354,0.03920
5752.62201,0.06224
5754.55048,0.07080
5756.47895,0.07249
5758.40742,0.08350
5760.33588,0.08451
5762.26435,0.04767
5764.19282,0.00660
5766.12129,0.01523
5768.04976,0.05854
5769.97823,0.11119
5771.90670,0.16664
5773.83517,0.19036
5775.76363,0.14288
5777.69210,0.06955
5779.62057,0.05221
5781.54904,0.08565
5783.47751,0.09760
5785.40598,0.06330
5787.33445,0.04016
5789.26291,0.05597
5791.19138,0.07435
5793.11985,0.06717
5795.04832,0.04392
5796.97679,0.02778
5798.90526,0.02304
5800.83373,0.03457
5802.76220,0.05859
5804.69066,0.07083
5806.61913,0.07466
5808.54760,0.08052
5810.47607,0.07212
5812.40454,0.06673
5814.33301,0.07991
5816.26148,0.07577
5818.18994,0.06511
5820.11841,0.05841
5822.04688,0.01823
5823.97535,-0.00472
5825.90382,0.02946
5827.83229,0.06849
5829.76076,0.07887
5831.68923,0.06626
5833.61769,0.06093
5835.54616,0.06876
5837.47463,0.07030
5839.40310,0.08194
5841.33157,0.08753
5843.26004,0.06769
5845.18851,0.07691
5847.11697,0.11788
5849.04544,0.10213
5850.97391,0.01409
5852.90238,-0.02968
5854.83085,0.03098
5856.75932,0.11204
5858.68779,0.12936
5860.61626,0.11934
5862.54472,0.13225
5864.47319,0.16310
5866.40166,0.17909
5868.33013,0.14203
5870.25860,0.07636
5872.18707,0.04192
5874.11554,0.03926
5876.04400,0.04046
5877.97247,0.03573
5879.90094,0.03142
5881.82941,0.03177
5883.75788,0.02704
5885.68635,0.01851
5887.61482,0.01771
5889.54329,0.04285
5891.47175,0.08073
5893.40022,0.08216
5895.32869,0.05316
5897.25716,0.02443
5899.18563,-0.00758
5901.11410,-0.04160
5903.04257,-0.04462
5904.97103,0.00069
5906.89950,0.05103
5908.82797,0.06550
5910.75644,0.04810
5912.68491,0.02877
5914.61338,0.03918
5916.54185,0.07087
5918.47032,0.09808
5920.39878,0.12511
5922.32725,0.14230
5924.25572,0.13532
5926.18419,0.11778
5928.11266,0.09696
5930.04113,0.09045
5931.96960,0.10344
5933.89806,0.12323
5935.82653,0.14186
5937.75500,0.11839
5939.68347,0.04987
5941.61194,0.00177
5943.54041,0.01362
5945.46888,0.05388
5947.39734,0.06871
5949.32581,0.05446
5951.25428,0.05050
5953.18275,0.07123
5955.11122,0.10526
5957.03969,0.11295
5958.96816,0.07220
5960.89663,0.03129
5962.82509,0.03179
5964.75356,0.07001
5966.68203,0.11237
5968.61050,0.14478
5970.53897,0.18057
5972.46744,0.17731
5974.39591,0.12395
5976.32437,0.07865
5978.25284,0.05888
5980.18131,0.06496
5982.10978,0.09605
5984.03825,0.10617
5985.96672,0.07447
5987.89519,0.05731
5989.82366,0.07749
5991.75212,0.09579
5993.68059,0.07850
5995.60906,0.04067
5997.53753,0.03130
5999.46600,0.05441
6001.39447,0.08738
6003.32294,0.11906
6005.25140,0.12649
6007.17987,0.07440
6009.10834,0.00010
6011.03681,-0.01378
6012.96528,0.02213
6014.89375,0.04666
6016.82222,0.04374
6018.75069,0.02831
6020.67915,0.02865
6022.60762,0.06860
6024.53609,0.11383
6026.46456,0.11271
6028.39303,0.09232
6030.32150,0.09604
6032.24997,0.10316
6034.17843,0.09519
6036.10690,0.08545
6038.03537,0.08514
6039.96384,0.08337
6041.89231,0.07055
6043.82078,0.06905
6045.74925,0.08758
6047.67772,0.09243
6049.60618,0.07621
6051.53465,0.05568
6053.46312,0.03318
6055.39159,0.03889
6057.32006,0.08535
6059.24853,0.12491
6061.17700,0.11416
6063.10546,0.05507
6065.03393,0.02124
6066.96240,0.05254
6068.89087,0.07504
6070.81934,0.03232
6072.74781,-0.00777
6074.67628,0.02782
6076.60475,0.07900
6078.53321,0.05608
6080.46168,0.00938
6082.39015,0.01106
6084.31862,0.01990
6086.24709,0.01774
6088.17556,0.03761
6090.10403,0.04451
6092.03249,0.01954
6093.96096,0.01888
6095.88943,0.04445
6097.81790,0.04595
6099.74637,0.03525
6101.67484,0.06863
6103.60331,0.12916
6105.53177,0.14741
6107.46024,0.12748
6109.38871,0.09864
6111.31718,0.06623
6113.24565,0.05027
6115.17412,0.04938
6117.10259,0.06755
6119.03106,0.12020
6120.95952,0.16737
6122.88799,0.16335
6124.81646,0.09519
6126.74493,0.01082
6128.67340,-0.00072
6130.60187,0.02540
6132.53034,0.03169
6134.45880,0.05099
6136.38727,0.07488
6138.31574,0.09533
6140.24421,0.14062
6142.17268,0.18862
6144.10115,0.17374
6146.02962,0.11565
6147.95809,0.10137
6149.88655,0.12548
6151.81502,0.11755
6153.74349,0.06182
6155.67196,0.00514
6157.60043,-0.00788
6159.52890,-0.00771
6161.45737,-0.04592
6163.38583,-0.04968
6165.31430,0.03397
6167.24277,0.09419
6169.17124,0.07782
6171.09971,0.06709
6173.02818,0.12103
6174.95665,0.19570
6176.88512,0.23236
6178.81358,0.20437
6180.74205,0.13690
6182.67052,0.09931
6184.59899,0.11417
6186.52746,0.12177
6188.45593,0.07635
6190.38440,0.04680
6192.31286,0.06300
6194.24133,0.03321
6196.16980,-0.05641
6198.09827,-0.09023
6200.02674,-0.03801
6201.95521,-0.01134
6203.88368,-0.05391
6205.81215,-0.06055
6207.74061,-0.00430
6209.66908,0.01570
6211.59755,-0.00458
6213.52602,-0.00310
6215.45449,0.00533
6217.38296,0.01261
6219.31143,0.01324
6221.23989,0.01160
6223.16836,0.05318
6225.09683,0.09718
6227.02530,0.05652
6228.95377,-0.00859
6230.88224,-0.00933
6232.81071,0.03729
6234.73918,0.06900
6236.66764,0.05648
6238.59611,0.03979
6240.52458,0.06205
6242.45305,0.06131
6244.38152,0.02084
6246.30999,0.03447
6248.23846,0.08885
6250.16692,0.10642
6252.09539,0.07954
6254.02386,0.05968
6255.95233,0.09733
6257.88080,0.15549
6259.80927,0.18154
6261.73774,0.19585
6263.66621,0.20143
6265.59467,0.16761
6267.52314,0.09418
6269.45161,0.04460
6271.38008,0.05776
6273.30855,0.09724
6275.23702,0.13292
6277.16549,0.14263
6279.09395,0.11008
6281.02242,0.09586
6282.95089,0.13116
6284.87936,0.13841
6286.80783,0.07789
6288.73630,0.03264
6290.66477,0.05506
6292.59323,0.09085
6294.52170,0.09112
6296.45017,0.05237
6298.37864,0.02521
6300.30711,0.04153
6302.23558,0.05975
6304.16405,0.07239
6306.09252,0.07460
6308.02098,0.04742
6309.94945,0.06889
6311.87792,0.14733
6313.80639,0.16047
6315.73486,0.12009
6317.66333,0.12780
6319.59180,0.15581
6321.52026,0.12566
6323.44873,0.07210
6325.37720,0.04786
6327.30567,0.05069
6329.23414,0.06307
6331.16261,0.05289
6333.09108,0.04022
6335.01955,0.05307
6336.94801,0.08641
6338.87648,0.14058
6340.80495,0.18525
6342.73342,0.20115
6344.66189,0.20472
6346.59036,0.20861
6348.51883,0.20000
6350.44729,0.13827
6352.37576,0.06777
6354.30423,0.08172
6356.23270,0.13742
6358.16117,0.14963
6360.08964,0.11693
6362.01811,0.09725
6363.94658,0.11361
6365.87504,0.09429
6367.80351,0.00678
6369.73198,-0.04936
6371.66045,-0.02179
6373.58892,0.03502
6375.51739,0.04712
6377.44586,0.04168
6379.37432,0.06790
6381.30279,0.10490
6383.23126,0.11371
6385.15973,0.08897
6387.08820,0.06842
6389.01667,0.06936
6390.94514,0.09511
6392.87361,0.11634
6394.80207,0.07914
6396.73054,0.03072
6398.65901,0.01801
6400.58748,0.02830
6402.51595,0.05613
6404.44442,0.10917
6406.37289,0.16881
6408.30135,0.17158
6410.22982,0.12282
6412.15829,0.07863
6414.08676,0.03628
6416.01523,-0.01158
6417.94370,-0.05777
6419.87217,-0.06017
6421.80064,-0.01898
6423.72910,0.00489
6425.65757,0.02101
6427.58604,0.05424
6429.51451,0.05865
6431.44298,-0.00132
6433.37145,-0.05078
6435.29992,-0.02024
6437.22838,0.01755
6439.15685,0.02484
6441.08532,0.06256
6443.01379,0.07065
6444.94226,-0.00834
6446.87073,-0.02818
6448.79920,0.06888
6450.72766,0.13404
6452.65613,0.07553
6454.58460,-0.02620
6456.51307,-0.09370
6458.44154,-0.09235
6460.37001,0.00071
6462.29848,0.11876
6464.22695,0.15588
6466.15541,0.15450
6468.08388,0.16023
6470.01235,0.14504
6471.94082,0.15148
6473.86929,0.18170
6475.79776,0.15157
6477.72623,0.04502
6479.65469,-0.07797
6481.58316,-0.14868
6483.51163,-0.12281
6485.44010,-0.04219
6487.36857,0.03232
6489.29704,0.08197
6491.22551,0.11318
6493.15398,0.11654
6495.08244,0.09792
6497.01091,0.07402
6498.93938,0.05060
6500.86785,0.07082
6502.79632,0.11906
6504.72479,0.09250
6506.65326,-0.00627
6508.58172,-0.08931
6510.51019,-0.09059
6512.43866,-0.00455
6514.36713,0.07470
6516.29560,0.08131
6518.22407,0.07098
6520.15254,0.08919
6522.08101,0.12160
6524.00947,0.15672
6525.93794,0.16737
6527.86641,0.15162
6529.79488,0.16586
6531.72335,0.18004
6533.65182,0.10814
6535.58029,0.00056
6537.50875,-0.02332
6539.43722,0.04410
6541.36569,0.10348
6543.29416,0.10906
6545.22263,0.09787
6547.15110,0.08266
6549.07957,0.06241
6551.00804,0.08400
6552.93650,0.15033
6554.86497,0.18378
6556.79344,0.18754
6558.72191,0.18807
6560.65038,0.15701
6562.57885,0.15758
6564.50732,0.21332
6566.43578,0.19867
6568.36425,0.10955
6570.29272,0.03777
6572.22119,0.00092
6574.14966,-0.01389
6576.07813,-0.01496
6578.00660,0.00112
6579.93507,-0.00784
6581.86353,-0.05509
6583.79200,-0.03284
6585.72047,0.07510
6587.64894,0.15273
6589.57741,0.13035
6591.50588,0.05776
6593.43435,0.03750
6595.36281,0.06629
6597.29128,0.06325
6599.21975,0.02625
6601.14822,0.02331
6603.07669,0.08760
6605.00516,0.14450
6606.93363,0.13745
6608.86210,0.08860
6610.79056,0.08138
6612.71903,0.12114
6614.64750,0.11923
6616.57597,0.08570
6618.50444,0.06470
6620.43291,0.05434
6622.36138,0.06459
6624.28984,0.08240
6626.21831,0.06928
6628.14678,0.03893
6630.07525,0.05031
6632.00372,0.09671
6633.93219,0.12524
6635.86066,0.08538
6637.78912,0.01462
6639.71759,0.02430
6641.64606,0.08334
6643.57453,0.09012
6645.50300,0.04074
6647.43147,0.00368
6649.35994,-0.02619
6651.28841,-0.06073
6653.21687,-0.04836
6655.14534,0.02232
6657.07381,0.09076
6659.00228,0.11691
6660.93075,0.07845
6662.85922,-0.02290
6664.78769,-0.05118
6666.71615,0.03635
6668.64462,0.11364
6670.57309,0.07935
6672.50156,-0.02657
6674.43003,-0.06296
6676.35850,-0.01086
6678.28697,0.02676
6680.21544,0.03314
6682.14390,0.03883
6684.07237,0.04742
6686.00084,0.03285
6687.92931,-0.02198
6689.85778,-0.04275
6691.78625,0.02066
6693.71472,0.08466
6695.64318,0.09459
6697.57165,0.09551
6699.50012,0.14631
6701.42859,0.16456
6703.35706,0.12641
6705.28553,0.12203
6707.21400,0.14585
6709.14247,0.12418
6711.07093,0.02813
6712.99940,-0.06531
6714.92787,-0.04885
6716.85634,0.04125
6718.78481,0.08544
6720.71328,0.03965
6722.64175,-0.05252
6724.57021,-0.07726
6726.49868,0.00493
6728.42715,0.08695
6730.35562,0.09471
6732.28409,0.09875
6734.21256,0.10835
6736.14103,0.04389
6738.06950,-0.02866
6739.99796,-0.02835
6741.92643,-0.02412
6743.85490,-0.07056
6745.78337,-0.10843
6747.71184,-0.09727
6749.64031,-0.04602
6751.56878,-0.00751
6753.49724,0.02382
6755.42571,0.12284
6757.35418,0.20727
6759.28265,0.15967
6761.21112,0.04534
6763.13959,-0.00446
6765.06806,0.03734
6766.99653,0.09615
6768.92499,0.11833
6770.85346,0.14819
6772.78193,0.15625
6774.71040,0.11060
6776.63887,0.08024
6778.56734,0.05074
6780.49581,-0.01764
6782.42427,-0.02953
6784.35274,0.05174
6786.28121,0.12162
6788.20968,0.08298
6790.13815,-0.03339
6792.06662,-0.04741
6793.99509,0.05097
6795.92355,0.10570
6797.85202,0.11557
6799.78049,0.11928
6801.70896,0.09076
6803.63743,0.02200
6805.56590,-0.03166
6807.49437,-0.05668
6809.42284,-0.08864
6811.35130,-0.06451
6813.27977,0.05446
6815.20824,0.12525
6817.13671,0.05696
6819.06518,-0.03991
6820.99365,-0.03736
6822.92212,0.03886
6824.85058,0.05519
6826.77905,0.03604
6828.70752,0.03822
6830.63599,0.08455
6832.56446,0.17429
6834.49293,0.21174
6836.42140,0.17379
6838.34987,0.15362
6840.27833,0.16367
6842.20680,0.11052
6844.13527,-0.03642
6846.06374,-0.12812
6847.99221,-0.07010
6849.92068,0.02036
6851.84915,0.05447
6853.77761,0.09070
6855.70608,0.10945
6857.63455,0.06796
6859.56302,0.06104
6861.49149,0.09741
6863.41996,0.13712
6865.34843,0.18524
6867.27690,0.16474
6869.20536,0.10597
6871.13383,0.08558
6873.06230,0.01231
6874.99077,-0.06961
6876.91924,-0.03523
6878.84771,0.03383
6880.77618,0.06556
6882.70464,0.08872
6884.63311,0.09109
6886.56158,0.06995
6888.49005,0.02292
6890.41852,-0.03068
6892.34699,-0.01597
6894.27546,0.04775
6896.20393,0.06641
6898.13239,0.03549
6900.06086,0.01911
6901.98933,0.03728
6903.91780,0.03377
6905.84627,-0.06412
6907.77474,-0.11754
6909.70321,0.00297
6911.63167,0.14610
6913.56014,0.15904
6915.48861,0.09860
6917.41708,0.06428
6919.34555,0.05703
6921.27402,0.08827
6923.20249,0.15705
6925.13096,0.15736
6927.05942,0.04368
6928.98789,-0.09682
6930.91636,-0.15336
6932.84483,-0.07204
6934.77330,0.04920
6936.70177,0.12567
6938.63024,0.18214
6940.55870,0.17798
6942.48717,0.11987
6944.41564,0.09562
6946.34411,0.09751
6948.27258,0.12040
6950.20105,0.13699
6952.12952,0.08026
6954.05799,-0.05506
6955.98645,-0.11877
6957.91492,-0.00327
6959.84339,0.13992
6961.77186,0.16803
6963.70033,0.10714
6965.62880,0.05559
6967.55727,0.03729
6969.48573,0.03347
6971.41420,0.05010
6973.34267,0.08596
6975.27114,0.09904
6977.19961,0.06271
6979.12808,0.03690
6981.05655,-0.01310
6982.98501,-0.11330
6984.91348,-0.11133
6986.84195,-0.02982
6988.77042,0.00989
6990.69889,0.07637
6992.62736,0.13829
6994.55583,0.08118
6996.48430,0.01195
6998.41276,0.12463
7000.34123,0.28102
7002.26970,0.23340
7004.19817,0.06211
7006.12664,0.00478
7008.05511,0.07351
7009.98358,0.06546
7011.91204,0.00820
7013.84051,0.00118
7015.76898,-0.00889
7017.69745,-0.00209
7019.62592,0.02361
7021.55439,-0.03430
7023.48286,-0.10396
7025.41133,-0.07123
7027.33979,0.05770
7029.26826,0.23165
7031.19673,0.32204
7033.12520,0.34546
7035.05367,0.31225
7036.98214,0.21062
7038.91061,0.12878
7040.83907,0.13234
7042.76754,0.15777
7044.69601,0.02388
7046.62448,-0.19385
7048.55295,-0.23564
7050.48142,-0.11208
7052.40989,0.00828
7054.33836,0.03943
7056.26682,-0.01365
7058.19529,-0.07643
7060.12376,-0.03001
7062.05223,0.07196
7063.98070,0.12510
7065.90917,0.15671
7067.83764,0.15041
7069.76610,0.08273
7071.69457,0.04161
7073.62304,0.05122
7075.55151,0.04981
7077.47998,0.04058
7079.40845,0.05106
7081.33692,0.07822
7083.26539,0.11801
7085.19385,0.16911
7087.12232,0.22606
7089.05079,0.23341
7090.97926,0.18003
7092.90773,0.18390
7094.83620,0.24036
7096.76467,0.23941
7098.69313,0.16841
7100.62160,0.08898
7102.55007,0.05227
7104.47854,0.04783
7106.40701,0.03828
7108.33548,0.02510
7110.26395,0.01324
7112.19242,0.02286
7114.12088,0.04016
7116.04935,0.05287
7117.97782,0.09221
7119.90629,0.00714
7121.83476,-0.17679
7123.76323,-0.20421
7125.69170,-0.11672
7127.62016,-0.07571
7129.54863,-0.03898
7131.47710,0.03153
7133.40557,0.11037
7135.33404,0.18947
7137.26251,0.21411
7139.19098,0.15824
7141.11944,0.10015
7143.04791,0.03942
7144.97638,0.02069
7146.90485,0.12724
7148.83332,0.22497
7150.76179,0.27214
7152.69026,0.30158
7154.61873,0.26557
7156.54719,0.16978
7158.47566,0.09650
7160.40413,0.06457
7162.33260,-0.01479
7164.26107,-0.09556
7166.18954,-0.06756
7168.11801,-0.01201
7170.04647,0.02427
7171.97494,0.05302
7173.90341,0.03207
7175.83188,0.04128
7177.76035,0.20462
7179.68882,0.34607
7181.61729,0.22924
7183.54576,0.07265
7185.47422,0.11719
7187.40269,0.17124
7189.33116,0.16338
7191.25963,0.07818
7193.18810,0.01762
7195.11657,0.14910
7197.04504,0.23885
7198.97350,0.15442
7200.90197,0.04192
7202.83044,-0.04316
7204.75891,-0.04521
7206.68738,0.08339
7208.61585,0.11522
7210.54432,0.02911
7212.47279,0.03577
7214.40125,0.11369
7216.32972,0.04403
7218.25819,-0.10311
7220.18666,-0.06598
7222.11513,-0.00120
7224.04360,-0.00473
7225.97207,-0.04441
7227.90053,-0.08295
7229.82900,-0.03300
7231.75747,0.07529
7233.68594,0.05467
7235.61441,-0.05916
7237.54288,-0.15165
7239.47135,-0.23438
7241.39982,-0.28659
7243.32828,-0.16668
7245.25675,0.04114
7247.18522,0.13797
7249.11369,0.09641
7251.04216,-0.04645
7252.97063,-0.24121
7254.89910,-0.22781
7256.82756,-0.04843
7258.75603,0.09573
7260.68450,0.12729
7262.61297,0.14404
7264.54144,0.18299
7266.46991,0.16182
7268.39838,0.14543
7270.32685,0.15361
7272.25531,0.17441
7274.18378,0.24419
7276.11225,0.33434
7278.04072,0.38293
7279.96919,0.23573
7281.89766,-0.00192
7283.82613,-0.03223
7285.75459,0.06220
7287.68306,0.17662
7289.61153,0.30349
7291.54000,0.30185
7293.46847,0.18980
7295.39694,0.14511
7297.32541,0.16971
7299.25387,0.19617
7301.18234,0.16201
7303.11081,0.10464
7305.03928,0.10586
7306.96775,0.09302
7308.89622,0.12976
7310.82469,0.26531
7312.75316,0.28691
7314.68162,0.18453
7316.61009,0.06055
7318.53856,0.10680
7320.46703,0.32044
7322.39550,0.38082
7324.32397,0.20940
7326.25244,0.14512
7328.18090,0.23202
7330.10937,0.25073
7332.03784,0.09444
7333.96631,-0.04869
7335.89478,-0.02373
7337.82325,0.02329
7339.75172,0.02505
7341.68019,0.13872
7343.60865,0.25129
7345.53712,0.29952
7347.46559,0.35367
7349.39406,0.30308
7351.32253,0.10455
7353.25100,0.00510
7355.17947,0.04616
7357.10793,0.02888
7359.03640,-0.09912
7360.96487,-0.12916
7362.89334,-0.01199
7364.82181,0.07735
7366.75028,0.09596
7368.67875,0.13155
7370.60722,0.16155
7372.53568,0.20805
7374.46415,0.31528
7376.39262,0.29084
7378.32109,0.19148
7380.24956,0.12515
7382.17803,-0.01333
7384.10650,-0.08612
7386.03496,0.02124
7387.96343,0.05760
7389.89190,0.01526
7391.82037,0.05003
7393.74884,0.01851
7395.67731,-0.06905
7397.60578,-0.00679
7399.53425,0.07426
7401.46271,0.10739
7403.39118,0.23367
7405.31965,0.32025
7407.24812,0.22792
7409.17659,0.11801
7411.10506,0.05884
7413.03353,0.02246
7414.96199,-0.01842
7416.89046,-0.11963
7418.81893,-0.14184
7420.74740,0.08906
7422.67587,0.19707
7424.60434,0.05660
7426.53281,-0.11310
7428.46128,-0.12969
7430.38974,-0.00152
7432.31821,0.09340
7434.24668,0.07075
7436.17515,-0.03717
7438.10362,-0.03183
7440.03209,0.06384
7441.96056,0.05665
7443.88902,0.00444
7445.81749,0.04357
7447.74596,0.15148
7449.67443,0.26963
7451.60290,0.36727
7453.53137,0.31199
7455.45984,0.14503
7457.38831,0.07593
7459.31677,0.06596
7461.24524,-0.05024
7463.17371,-0.07798
7465.10218,0.08683
7467.03065,0.23503
7468.95912,0.28072
7470.88759,0.27070
7472.81605,0.21111
7474.74452,0.15767
7476.67299,0.10625
7478.60146,-0.02358
7480.52993,-0.14921
7482.45840,-0.06710
7484.38687,0.10470
7486.31533,0.06710
7488.24380,-0.06051
7490.17227,0.03794
7492.10074,0.22332
7494.02921,0.24730
7495.95768,0.13616
7497.88615,-0.02351
