399.19301,5.93252
401.12148,1.14645
403.04995,0.41369
404.97842,0.01295
406.90689,-0.20214
408.83536,-0.18056
410.76382,0.12041
412.69229,0.32965
414.62076,0.26378
416.54923,0.07657
418.47770,-0.22231
420.40617,-0.45984
422.33464,-0.42852
424.26311,-0.34529
426.19157,-0.29720
428.12004,-0.27258
430.04851,-0.22159
431.97698,-0.14242
433.90545,-0.12495
435.83392,-0.11969
437.76239,-0.07928
439.69085,-0.00593
441.61932,0.11611
443.54779,0.22440
445.47626,0.20561
447.40473,0.09242
449.33320,-0.01451
451.26167,-0.02177
453.19013,0.01768
455.11860,0.00842
457.04707,-0.00742
458.97554,0.01581
460.90401,0.03547
462.83248,-0.03238
464.76095,-0.15018
466.68942,-0.20586
468.61788,-0.15395
470.54635,-0.07244
472.47482,-0.04119
474.40329,-0.01364
476.33176,0.03642
478.26023,0.04076
480.18870,0.06993
482.11716,0.18699
484.04563,0.21840
485.97410,0.12935
487.90257,0.13001
489.83104,0.14990
491.75951,0.09901
493.68798,0.10465
495.61645,0.18060
497.54491,0.18826
499.47338,0.13614
501.40185,0.11637
503.33032,0.11435
505.25879,0.08071
507.18726,0.07166
509.11573,0.15433
511.04419,0.19981
512.97266,0.13207
514.90113,0.03049
516.82960,-0.01610
518.75807,0.02320
520.68654,0.09233
522.61501,0.10510
524.54348,0.04384
526.47194,-0.01312
528.40041,-0.05087
530.32888,-0.05411
532.25735,0.01053
534.18582,0.09396
536.11429,0.12629
538.04276,0.09349
539.97122,0.04520
541.89969,-0.00031
543.82816,-0.03825
545.75663,-0.04723
547.68510,-0.03455
549.61357,0.06376
551.54204,0.70895
553.47051,1.57654
555.39897,1.39125
557.32744,0.48084
559.25591,0.08934
561.18438,0.08514
563.11285,0.08477
565.04132,0.07782
566.96979,0.04077
568.89825,0.00487
570.82672,0.02716
572.75519,0.07593
574.68366,0.08714
576.61213,0.08777
578.54060,0.08710
580.46907,0.08630
582.39754,0.09653
584.32600,0.08056
586.25447,0.04713
588.18294,0.02694
590.11141,0.00279
592.03988,0.00595
593.96835,0.06626
595.89682,0.12244
597.82528,0.13405
599.75375,0.12008
601.68222,0.11226
603.61069,0.11536
605.53916,0.12673
607.46763,0.12398
609.39610,0.09970
611.32456,0.07841
613.25303,0.07146
615.18150,0.10495
617.10997,0.16472
619.03844,0.18704
620.96691,0.17245
622.89538,0.15056
624.82385,0.12172
626.75231,0.11944
628.68078,0.16266
630.60925,0.20149
632.53772,0.20926
634.46619,0.18775
636.39466,0.15140
638.32313,0.12718
640.25159,0.13113
642.18006,0.14606
644.10853,0.13971
646.03700,0.12840
647.96547,0.13222
649.89394,0.10984
651.82241,0.05058
653.75088,0.01645
655.67934,0.03144
657.60781,0.06326
659.53628,0.09189
661.46475,0.12143
663.39322,0.14986
665.32169,0.17092
667.25016,0.18169
669.17862,0.16739
671.10709,0.14141
673.03556,0.11569
674.96403,0.09784
676.89250,0.09108
678.82097,0.09063
680.74944,0.10205
682.67791,0.10536
684.60637,0.08878
686.53484,0.07660
688.46331,0.07862
690.39178,0.07765
692.32025,0.07878
694.24872,0.09134
696.17719,0.09852
698.10565,0.08933
700.03412,0.07064
701.96259,0.06152
703.89106,0.06817
705.81953,0.07440
707.74800,0.07854
709.67647,0.10394
711.60494,0.14650
713.53340,0.16443
715.46187,0.15364
717.39034,0.13891
719.31881,0.12169
721.24728,0.10808
723.17575,0.10247
725.10422,0.09090
727.03268,0.08132
728.96115,0.08691
730.88962,0.09464
732.81809,0.10325
734.74656,0.11872
736.67503,0.12667
738.60350,0.11951
740.53197,0.10814
742.46043,0.10046
744.38890,0.09158
746.31737,0.08615
748.24584,0.09440
750.17431,0.09680
752.10278,0.07940
754.03125,0.07795
755.95971,0.10858
757.88818,0.13621
759.81665,0.14755
761.74512,0.14398
763.67359,0.11506
765.60206,0.08173
767.53053,0.07046
769.45900,0.07528
771.38746,0.09604
773.31593,0.12760
775.24440,0.13710
777.17287,0.12086
779.10134,0.10500
781.02981,0.09576
782.95828,0.09763
784.88674,0.10986
786.81521,0.11860
788.74368,0.12140
790.67215,0.12190
792.60062,0.12700
794.52909,0.13222
796.45756,0.11796
798.38602,0.08961
800.31449,0.07194
802.24296,0.07328
804.17143,0.08097
806.09990,0.08536
808.02837,0.08947
809.95684,0.10013
811.88531,0.11759
813.81377,0.13158
815.74224,0.13524
817.67071,0.12904
819.59918,0.11535
821.52765,0.10911
823.45612,0.11551
825.38459,0.10938
827.31305,0.08531
829.24152,0.07421
831.16999,0.09064
833.09846,0.11242
835.02693,0.11681
836.95540,0.11212
838.88387,0.10898
840.81234,0.10713
842.74080,0.10039
844.66927,0.08852
846.59774,0.08711
848.52621,0.09399
850.45468,0.10006
852.38315,0.10452
854.31162,0.09935
856.24008,0.09338
858.16855,0.10061
860.09702,0.10836
862.02549,0.10397
863.95396,0.08830
865.88243,0.07608
867.81090,0.06136
869.73937,0.01406
871.66783,-0.00947
873.59630,0.04472
875.52477,0.10080
877.45324,0.10902
879.38171,0.09714
881.31018,0.08694
883.23865,0.09365
885.16711,0.10482
887.09558,0.09043
889.02405,0.06264
890.95252,0.05683
892.88099,0.07285
894.80946,0.08805
896.73793,0.09184
898.66640,0.08884
900.59486,0.09503
902.52333,0.10582
904.45180,0.09397
906.38027,0.06548
908.30874,0.05326
910.23721,0.06553
912.16568,0.08913
914.09414,0.11237
916.02261,0.11768
917.95108,0.09816
919.87955,0.08033
921.80802,0.08881
923.73649,0.11385
925.66496,0.13305
927.59343,0.13391
929.52189,0.11993
931.45036,0.11394
933.37883,0.11817
935.30730,0.11354
937.23577,0.11125
939.16424,0.12015
941.09271,0.11815
943.02117,0.10405
944.94964,0.10264
946.87811,0.11181
948.80658,0.11186
950.73505,0.10550
952.66352,0.10334
954.59199,0.10637
956.52045,0.10714
958.44892,0.10336
960.37739,0.10349
962.30586,0.10720
964.23433,0.10681
966.16280,0.10674
968.09127,0.11402
970.01974,0.12332
971.94820,0.12572
973.87667,0.11990
975.80514,0.11265
977.73361,0.11359
979.66208,0.12468
981.59055,0.12877
983.51902,0.11863
985.44748,0.11169
987.37595,0.11409
989.30442,0.12093
991.23289,0.12789
993.16136,0.12995
995.08983,0.12983
997.01830,0.12901
998.94677,0.12025
1000.87523,0.11021
1002.80370,0.11834
1004.73217,0.13679
1006.66064,0.13911
1008.58911,0.13119
1010.51758,0.13529
1012.44605,0.13865
1014.37451,0.12673
1016.30298,0.11401
1018.23145,0.10833
1020.15992,0.11249
1022.08839,0.12770
1024.01686,0.13838
1025.94533,0.14924
1027.87380,0.17301
1029.80226,0.17428
1031.73073,0.14384
1033.65920,0.12535
1035.58767,0.12036
1037.51614,0.11527
1039.44461,0.11685
1041.37308,0.12460
1043.30154,0.12950
1045.23001,0.11691
1047.15848,0.09755
1049.08695,0.09396
1051.01542,0.10083
1052.94389,0.11597
1054.87236,0.13695
1056.80083,0.14477
1058.72929,0.14216
1060.65776,0.14134
1062.58623,0.13846
1064.51470,0.13302
1066.44317,0.12659
1068.37164,0.11893
1070.30011,0.11799
1072.22857,0.12819
1074.15704,0.13602
1076.08551,0.13076
1078.01398,0.12343
1079.94245,0.12131
1081.87092,0.12121
1083.79939,0.13069
1085.72786,0.14522
1087.65632,0.14242
1089.58479,0.12189
1091.51326,0.10539
1093.44173,0.11280
1095.37020,0.13466
1097.29867,0.13326
1099.22714,0.11182
1101.15560,0.11504
1103.08407,0.13776
1105.01254,0.14048
1106.94101,0.13012
1108.86948,0.13298
1110.79795,0.14197
1112.72642,0.14402
1114.65489,0.14688
1116.58335,0.15050
1118.51182,0.14973
1120.44029,0.14659
1122.36876,0.13796
1124.29723,0.13260
1126.22570,0.14350
1128.15417,0.15948
1130.08263,0.16225
1132.01110,0.15895
1133.93957,0.16350
1135.86804,0.16124
1137.79651,0.14453
1139.72498,0.13413
1141.65345,0.13278
1143.58191,0.12851
1145.51038,0.12335
1147.43885,0.12373
1149.36732,0.12828
1151.29579,0.13189
1153.22426,0.13482
1155.15273,0.13764
1157.08120,0.14379
1159.00966,0.15499
1160.93813,0.16134
1162.86660,0.16153
1164.79507,0.15642
1166.72354,0.14084
1168.65201,0.12622
1170.58048,0.12882
1172.50894,0.13952
1174.43741,0.13972
1176.36588,0.13333
1178.29435,0.13367
1180.22282,0.13896
1182.15129,0.13903
1184.07976,0.14017
1186.00823,0.15284
1187.93669,0.15943
1189.86516,0.15212
1191.79363,0.15357
1193.72210,0.15938
1195.65057,0.15197
1197.57904,0.14748
1199.50751,0.15145
1201.43597,0.14852
1203.36444,0.14269
1205.29291,0.13951
1207.22138,0.13574
1209.14985,0.13659
1211.07832,0.14388
1213.00679,0.15169
1214.93526,0.15681
1216.86372,0.15630
1218.79219,0.15241
1220.72066,0.15078
1222.64913,0.15421
1224.57760,0.15950
1226.50607,0.15668
1228.43454,0.14847
1230.36300,0.14613
1232.29147,0.14603
1234.21994,0.14054
1236.14841,0.13692
1238.07688,0.14171
1240.00535,0.14910
1241.93382,0.15151
1243.86229,0.14863
1245.79075,0.14718
1247.71922,0.14789
1249.64769,0.14691
1251.57616,0.14456
1253.50463,0.14569
1255.43310,0.14914
1257.36157,0.14668
1259.29003,0.14245
1261.21850,0.14395
1263.14697,0.14863
1265.07544,0.15272
1267.00391,0.15462
1268.93238,0.15451
1270.86085,0.15258
1272.78932,0.14983
1274.71778,0.15001
1276.64625,0.15549
1278.57472,0.16159
1280.50319,0.16110
1282.43166,0.15570
1284.36013,0.15155
1286.28860,0.14697
1288.21706,0.14081
1290.14553,0.13871
1292.07400,0.14238
1294.00247,0.14763
1295.93094,0.15373
1297.85941,0.16122
1299.78788,0.16263
1301.71634,0.15439
1303.64481,0.14358
1305.57328,0.14090
1307.50175,0.15225
1309.43022,0.16435
1311.35869,0.16372
1313.28716,0.15872
1315.21563,0.15880
1317.14409,0.16292
1319.07256,0.16732
1321.00103,0.16973
1322.92950,0.16919
1324.85797,0.16189
1326.78644,0.15365
1328.71491,0.15445
1330.64337,0.15751
1332.57184,0.15382
1334.50031,0.15284
1336.42878,0.16403
1338.35725,0.17467
1340.28572,0.16585
1342.21419,0.16349
1344.14266,0.20756
1346.07112,0.24004
1347.99959,0.19744
1349.92806,0.15413
1351.85653,0.15801
1353.78500,0.16460
1355.71347,0.15986
1357.64194,0.15361
1359.57040,0.15411
1361.49887,0.16285
1363.42734,0.16959
1365.35581,0.16729
1367.28428,0.16232
1369.21275,0.16079
1371.14122,0.16556
1373.06969,0.17493
1374.99815,0.17676
1376.92662,0.16996
1378.85509,0.16305
1380.78356,0.15843
1382.71203,0.15872
1384.64050,0.16523
1386.56897,0.17129
1388.49743,0.16770
1390.42590,0.16608
1392.35437,0.17400
1394.28284,0.18177
1396.21131,0.18418
1398.13978,0.17940
1400.06825,0.16339
1401.99672,0.15257
1403.92518,0.15426
1405.85365,0.15536
1407.78212,0.15347
1409.71059,0.15519
1411.63906,0.15977
1413.56753,0.16395
1415.49600,0.16599
1417.42446,0.16697
1419.35293,0.17087
1421.28140,0.17577
1423.20987,0.17658
1425.13834,0.17434
1427.06681,0.17541
1428.99528,0.17915
1430.92375,0.17596
1432.85221,0.16966
1434.78068,0.16846
1436.70915,0.16979
1438.63762,0.16929
1440.56609,0.16715
1442.49456,0.16585
1444.42303,0.16901
1446.35149,0.17623
1448.27996,0.17987
1450.20843,0.17781
1452.13690,0.17680
1454.06537,0.18595
1455.99384,0.21472
1457.92231,0.22816
1459.85077,0.20044
1461.77924,0.18161
1463.70771,0.17750
1465.63618,0.17582
1467.56465,0.17248
1469.49312,0.17829
1471.42159,0.19622
1473.35006,0.20861
1475.27852,0.20063
1477.20699,0.18773
1479.13546,0.18218
1481.06393,0.18461
1482.99240,0.18716
1484.92087,0.18950
1486.84934,0.20015
1488.77780,0.21711
1490.70627,0.21325
1492.63474,0.19481
1494.56321,0.18914
1496.49168,0.19401
1498.42015,0.19008
1500.34862,0.17835
1502.27709,0.17501
1504.20555,0.18873
1506.13402,0.22710
1508.06249,0.24881
1509.99096,0.23093
1511.91943,0.21793
1513.84790,0.21681
1515.77637,0.21904
1517.70483,0.21433
1519.63330,0.21968
1521.56177,0.24048
1523.49024,0.23825
1525.41871,0.21944
1527.34718,0.20317
1529.27565,0.19323
1531.20412,0.19789
1533.13258,0.21395
1535.06105,0.21734
1536.98952,0.21621
1538.91799,0.23308
1540.84646,0.25110
1542.77493,0.23507
1544.70340,0.21193
1546.63186,0.19642
1548.56033,0.19214
1550.48880,0.19457
1552.41727,0.19802
1554.34574,0.20169
1556.27421,0.21456
1558.20268,0.24447
1560.13115,0.22863
1562.05961,0.19461
1563.98808,0.18207
1565.91655,0.17897
1567.84502,0.18428
1569.77349,0.19463
1571.70196,0.19948
1573.63043,0.20910
1575.55889,0.22319
1577.48736,0.21645
1579.41583,0.19976
1581.34430,0.19023
1583.27277,0.18323
1585.20124,0.17507
1587.12971,0.17161
1589.05818,0.17761
1590.98664,0.18234
1592.91511,0.17904
1594.84358,0.17558
1596.77205,0.17406
1598.70052,0.17168
1600.62899,0.17335
1602.55746,0.18309
1604.48592,0.19172
1606.41439,0.19097
1608.34286,0.18599
1610.27133,0.18370
1612.19980,0.18580
1614.12827,0.19325
1616.05674,0.20400
1617.98521,0.20611
1619.91367,0.20557
1621.84214,0.21089
1623.77061,0.20981
1625.69908,0.19776
1627.62755,0.18806
1629.55602,0.18894
1631.48449,0.19901
1633.41295,0.21502
1635.34142,0.23611
1637.26989,0.23525
1639.19836,0.21456
1641.12683,0.19863
1643.05530,0.19492
1644.98377,0.20977
1646.91223,0.23326
1648.84070,0.23331
1650.76917,0.23529
1652.69764,0.25360
1654.62611,0.23502
1656.55458,0.20854
1658.48305,0.20336
1660.41152,0.20683
1662.33998,0.20566
1664.26845,0.19527
1666.19692,0.19019
1668.12539,0.20119
1670.05386,0.21856
1671.98233,0.22709
1673.91080,0.23141
1675.83926,0.21944
1677.76773,0.20020
1679.69620,0.19802
1681.62467,0.21351
1683.55314,0.23467
1685.48161,0.23272
1687.41008,0.21817
1689.33855,0.20569
1691.26701,0.19710
1693.19548,0.20150
1695.12395,0.21732
1697.05242,0.22604
1698.98089,0.22215
1700.90936,0.21373
1702.83783,0.20803
1704.76629,0.21106
1706.69476,0.20873
1708.62323,0.19425
1710.55170,0.18608
1712.48017,0.19120
1714.40864,0.20400
1716.33711,0.21787
1718.26558,0.21253
1720.19404,0.19335
1722.12251,0.18333
1724.05098,0.18032
1725.97945,0.18060
1727.90792,0.18790
1729.83639,0.19887
1731.76486,0.20758
1733.69332,0.21274
1735.62179,0.20511
1737.55026,0.19993
1739.47873,0.20753
1741.40720,0.21426
1743.33567,0.21294
1745.26414,0.21328
1747.19261,0.21699
1749.12107,0.21665
1751.04954,0.20787
1752.97801,0.19818
1754.90648,0.19314
1756.83495,0.18935
1758.76342,0.18396
1760.69189,0.18104
1762.62035,0.17900
1764.54882,0.17705
1766.47729,0.18074
1768.40576,0.18994
1770.33423,0.20302
1772.26270,0.21183
1774.19117,0.20381
1776.11964,0.19528
1778.04810,0.19646
1779.97657,0.20018
1781.90504,0.20222
1783.83351,0.20270
1785.76198,0.19639
1787.69045,0.18704
1789.61892,0.18510
1791.54738,0.19085
1793.47585,0.19612
1795.40432,0.19728
1797.33279,0.19374
1799.26126,0.18926
1801.18973,0.19045
1803.11820,0.19137
1805.04666,0.18658
1806.97513,0.18482
1808.90360,0.19289
1810.83207,0.19857
1812.76054,0.19273
1814.68901,0.18693
1816.61748,0.19997
1818.54595,0.23509
1820.47441,0.26237
1822.40288,0.25919
1824.33135,0.22734
1826.25982,0.19599
1828.18829,0.19251
1830.11676,0.19720
1832.04523,0.19257
1833.97369,0.18941
1835.90216,0.18963
1837.83063,0.18673
1839.75910,0.18515
1841.68757,0.19417
1843.61604,0.20667
1845.54451,0.20456
1847.47298,0.19355
1849.40144,0.18614
1851.32991,0.18237
1853.25838,0.18189
1855.18685,0.18370
1857.11532,0.18505
1859.04379,0.18505
1860.97226,0.18487
1862.90072,0.18720
1864.82919,0.19181
1866.75766,0.19538
1868.68613,0.19484
1870.61460,0.19277
1872.54307,0.19228
1874.47154,0.18975
1876.40001,0.18484
1878.32847,0.18184
1880.25694,0.18182
1882.18541,0.18451
1884.11388,0.18694
1886.04235,0.18608
1887.97082,0.18497
1889.89929,0.18370
1891.82775,0.18360
1893.75622,0.18650
1895.68469,0.18708
1897.61316,0.18303
1899.54163,0.17952
1901.47010,0.18237
1903.39857,0.18751
1905.32704,0.18646
1907.25550,0.18304
1909.18397,0.18589
1911.11244,0.19183
1913.04091,0.19209
1914.96938,0.18851
1916.89785,0.18758
1918.82632,0.18948
1920.75478,0.18948
1922.68325,0.18397
1924.61172,0.17705
1926.54019,0.17616
1928.46866,0.17862
1930.39713,0.18151
1932.32560,0.18538
1934.25407,0.18763
1936.18253,0.19036
1938.11100,0.19550
1940.03947,0.19880
1941.96794,0.19692
1943.89641,0.19027
1945.82488,0.18660
1947.75335,0.18858
1949.68181,0.18828
1951.61028,0.18385
1953.53875,0.18061
1955.46722,0.18041
1957.39569,0.18262
1959.32416,0.18736
1961.25263,0.19358
1963.18110,0.19637
1965.10956,0.19402
1967.03803,0.18909
1968.96650,0.18473
1970.89497,0.18578
1972.82344,0.18959
1974.75191,0.18990
1976.68038,0.18726
1978.60884,0.18542
1980.53731,0.18673
1982.46578,0.18769
1984.39425,0.18531
1986.32272,0.18300
1988.25119,0.18180
1990.17966,0.17976
1992.10812,0.17876
1994.03659,0.18182
1995.96506,0.18622
1997.89353,0.18804
1999.82200,0.18816
2001.75047,0.18856
2003.67894,0.18837
2005.60741,0.18933
2007.53587,0.19274
2009.46434,0.19287
2011.39281,0.18892
2013.32128,0.18775
2015.24975,0.19040
2017.17822,0.19197
2019.10669,0.19000
2021.03515,0.18666
2022.96362,0.18612
2024.89209,0.18904
2026.82056,0.19035
2028.74903,0.18708
2030.67750,0.18322
2032.60597,0.18404
2034.53444,0.18627
2036.46290,0.18488
2038.39137,0.18411
2040.31984,0.18576
2042.24831,0.18722
2044.17678,0.18692
2046.10525,0.18319
2048.03372,0.18031
2049.96218,0.18238
2051.89065,0.18831
2053.81912,0.19552
2055.74759,0.19725
2057.67606,0.19140
2059.60453,0.18729
2061.53300,0.18964
2063.46147,0.19154
2065.38993,0.18940
2067.31840,0.18702
2069.24687,0.18631
2071.17534,0.18573
2073.10381,0.18403
2075.03228,0.18097
2076.96075,0.17872
2078.88921,0.17950
2080.81768,0.18129
2082.74615,0.18169
2084.67462,0.18134
2086.60309,0.18269
2088.53156,0.18462
2090.46003,0.18476
2092.38850,0.18697
2094.31696,0.19249
2096.24543,0.19567
2098.17390,0.19260
2100.10237,0.18774
2102.03084,0.19058
2103.95931,0.19920
2105.88778,0.20210
2107.81624,0.19756
2109.74471,0.19340
2111.67318,0.19344
2113.60165,0.19355
2115.53012,0.19177
2117.45859,0.19227
2119.38706,0.19480
2121.31553,0.19559
2123.24399,0.19543
2125.17246,0.19584
2127.10093,0.19539
2129.02940,0.19361
2130.95787,0.19212
2132.88634,0.19068
2134.81481,0.18668
2136.74327,0.18062
2138.67174,0.17903
2140.60021,0.18363
2142.52868,0.18775
2144.45715,0.18942
2146.38562,0.19188
2148.31409,0.19538
2150.24255,0.19688
2152.17102,0.19620
2154.09949,0.19583
2156.02796,0.19365
2157.95643,0.19042
2159.88490,0.19103
2161.81337,0.19335
2163.74184,0.19425
2165.67030,0.19266
2167.59877,0.18852
2169.52724,0.18812
2171.45571,0.19092
2173.38418,0.19039
2175.31265,0.18957
2177.24112,0.19030
2179.16958,0.18991
2181.09805,0.18939
2183.02652,0.19091
2184.95499,0.19481
2186.88346,0.19735
2188.81193,0.19454
2190.74040,0.18874
2192.66887,0.18464
2194.59733,0.18388
2196.52580,0.18723
2198.45427,0.19250
2200.38274,0.19402
2202.31121,0.19190
2204.23968,0.18988
2206.16815,0.18719
2208.09661,0.18385
2210.02508,0.18444
2211.95355,0.19071
2213.88202,0.19804
2215.81049,0.19960
2217.73896,0.19368
2219.66743,0.18805
2221.59590,0.18889
2223.52436,0.19214
2225.45283,0.19471
2227.38130,0.19545
2229.30977,0.19145
2231.23824,0.18670
2233.16671,0.18586
2235.09518,0.18722
2237.02364,0.18947
2238.95211,0.19226
2240.88058,0.19292
2242.80905,0.19061
2244.73752,0.19068
2246.66599,0.19445
2248.59446,0.19682
2250.52293,0.19706
2252.45139,0.19646
2254.37986,0.19344
2256.30833,0.18887
2258.23680,0.18801
2260.16527,0.19160
2262.09374,0.19569
2264.02221,0.19697
2265.95067,0.19334
2267.87914,0.18925
2269.80761,0.19041
2271.73608,0.19462
2273.66455,0.19837
2275.59302,0.20046
2277.52149,0.19973
2279.44996,0.19628
2281.37842,0.19336
2283.30689,0.19410
2285.23536,0.19504
2287.16383,0.19484
2289.09230,0.19922
2291.02077,0.20926
2292.94924,0.21896
2294.87770,0.22124
2296.80617,0.21723
2298.73464,0.20969
2300.66311,0.20033
2302.59158,0.20010
2304.52005,0.20746
2306.44852,0.21200
2308.37699,0.21416
2310.30545,0.21046
2312.23392,0.20165
2314.16239,0.19648
2316.09086,0.19474
2318.01933,0.19664
2319.94780,0.20548
2321.87627,0.21595
2323.80473,0.22056
2325.73320,0.21912
2327.66167,0.21980
2329.59014,0.23339
2331.51861,0.24579
2333.44708,0.24368
2335.37555,0.25205
2337.30401,0.27293
2339.23248,0.27710
2341.16095,0.26433
2343.08942,0.24898
2345.01789,0.23323
2346.94636,0.22314
2348.87483,0.22173
2350.80330,0.22535
2352.73176,0.22780
2354.66023,0.21670
2356.58870,0.18274
2358.51717,0.14449
2360.44564,0.14430
2362.37411,0.19414
2364.30258,0.24455
2366.23104,0.24923
2368.15951,0.22746
2370.08798,0.20748
2372.01645,0.19746
2373.94492,0.19675
2375.87339,0.19903
2377.80186,0.20204
2379.73033,0.20361
2381.65879,0.20015
2383.58726,0.19225
2385.51573,0.18824
2387.44420,0.19251
2389.37267,0.19540
2391.30114,0.19253
2393.22961,0.19091
2395.15807,0.19339
2397.08654,0.19687
2399.01501,0.19776
2400.94348,0.19550
2402.87195,0.19119
2404.80042,0.18813
2406.72889,0.19023
2408.65736,0.19317
2410.58582,0.19226
2412.51429,0.19101
2414.44276,0.19184
2416.37123,0.19259
2418.29970,0.19196
2420.22817,0.19131
2422.15664,0.19198
2424.08510,0.19421
2426.01357,0.19667
2427.94204,0.19541
2429.87051,0.19153
2431.79898,0.19126
2433.72745,0.19396
2435.65592,0.19436
2437.58439,0.19302
2439.51285,0.19189
2441.44132,0.19126
2443.36979,0.19346
2445.29826,0.19580
2447.22673,0.19430
2449.15520,0.19046
2451.08367,0.18931
2453.01213,0.19537
2454.94060,0.19768
2456.86907,0.19068
2458.79754,0.18850
2460.72601,0.19079
2462.65448,0.18941
2464.58295,0.18562
2466.51142,0.18224
2468.43988,0.18589
2470.36835,0.19403
2472.29682,0.19635
2474.22529,0.19630
2476.15376,0.19812
2478.08223,0.19716
2480.01070,0.19468
2481.93916,0.19495
2483.86763,0.19527
2485.79610,0.19287
2487.72457,0.19063
2489.65304,0.19109
2491.58151,0.19095
2493.50998,0.18723
2495.43844,0.18404
2497.36691,0.18470
2499.29538,0.18805
2501.22385,0.19278
2503.15232,0.19739
2505.08079,0.19976
2507.00926,0.19927
2508.93773,0.19968
2510.86619,0.20101
2512.79466,0.20037
2514.72313,0.19981
2516.65160,0.19824
2518.58007,0.19603
2520.50854,0.19520
2522.43701,0.19069
2524.36547,0.18445
2526.29394,0.18424
2528.22241,0.18698
2530.15088,0.18887
2532.07935,0.19286
2534.00782,0.19715
2535.93629,0.19849
2537.86476,0.19875
2539.79322,0.19896
2541.72169,0.19987
2543.65016,0.20240
2545.57863,0.20384
2547.50710,0.20224
2549.43557,0.19946
2551.36404,0.19711
2553.29250,0.19535
2555.22097,0.19517
2557.14944,0.19657
2559.07791,0.19808
2561.00638,0.19974
2562.93485,0.20022
2564.86332,0.19790
2566.79179,0.19538
2568.72025,0.19504
2570.64872,0.19547
2572.57719,0.19394
2574.50566,0.19063
2576.43413,0.18992
2578.36260,0.19400
2580.29107,0.20023
2582.21953,0.20609
2584.14800,0.20910
2586.07647,0.20773
2588.00494,0.20401
2589.93341,0.20245
2591.86188,0.20423
2593.79035,0.20420
2595.71882,0.20236
2597.64728,0.20041
2599.57575,0.19594
2601.50422,0.19474
2603.43269,0.20136
2605.36116,0.20700
2607.28963,0.20612
2609.21810,0.20323
2611.14656,0.19827
2613.07503,0.19542
2615.00350,0.19975
2616.93197,0.19960
2618.86044,0.19598
2620.78891,0.19859
2622.71738,0.19986
2624.64585,0.19931
2626.57431,0.20180
2628.50278,0.20089
2630.43125,0.19456
2632.35972,0.18903
2634.28819,0.18718
2636.21666,0.18888
2638.14513,0.19481
2640.07359,0.20365
2642.00206,0.21117
2643.93053,0.21527
2645.85900,0.21477
2647.78747,0.20805
2649.71594,0.20041
2651.64441,0.19865
2653.57288,0.19861
2655.50134,0.19506
2657.42981,0.19496
2659.35828,0.20233
2661.28675,0.20869
2663.21522,0.20841
2665.14369,0.20392
2667.07216,0.20164
2669.00062,0.20265
2670.92909,0.20017
2672.85756,0.19452
2674.78603,0.19239
2676.71450,0.19478
2678.64297,0.19787
2680.57144,0.20081
2682.49990,0.20542
2684.42837,0.21005
2686.35684,0.21157
2688.28531,0.21174
2690.21378,0.21197
2692.14225,0.20937
2694.07072,0.20493
2695.99919,0.20123
2697.92765,0.20054
2699.85612,0.20482
2701.78459,0.20744
2703.71306,0.20289
2705.64153,0.19839
2707.57000,0.20181
2709.49847,0.20765
2711.42693,0.20784
2713.35540,0.20640
2715.28387,0.20694
2717.21234,0.20556
2719.14081,0.20164
2721.06928,0.19839
2722.99775,0.19914
2724.92622,0.20303
2726.85468,0.20379
2728.78315,0.20138
2730.71162,0.20267
2732.64009,0.20816
2734.56856,0.21021
2736.49703,0.20731
2738.42550,0.20582
2740.35396,0.20495
2742.28243,0.20292
2744.21090,0.20228
2746.13937,0.20295
2748.06784,0.20458
2749.99631,0.20504
2751.92478,0.20362
2753.85325,0.20398
2755.78171,0.20734
2757.71018,0.20873
2759.63865,0.20379
2761.56712,0.19912
2763.49559,0.20132
2765.42406,0.20593
2767.35253,0.20771
2769.28099,0.20624
2771.20946,0.20379
2773.13793,0.20570
2775.06640,0.21240
2776.99487,0.21394
2778.92334,0.20769
2780.85181,0.20506
2782.78028,0.20964
2784.70874,0.21220
2786.63721,0.20868
2788.56568,0.20419
2790.49415,0.20388
2792.42262,0.20787
2794.35109,0.21215
2796.27956,0.21220
2798.20802,0.20892
2800.13649,0.20874
2802.06496,0.20949
2803.99343,0.20509
2805.92190,0.20130
2807.85037,0.20334
2809.77884,0.20838
2811.70731,0.21426
2813.63577,0.21625
2815.56424,0.21061
2817.49271,0.20519
2819.42118,0.20625
2821.34965,0.20725
2823.27812,0.20482
2825.20659,0.20239
2827.13505,0.20229
2829.06352,0.20657
2830.99199,0.21141
2832.92046,0.21286
2834.84893,0.21284
2836.77740,0.21129
2838.70587,0.20959
2840.63433,0.20852
2842.56280,0.20745
2844.49127,0.21034
2846.41974,0.21518
2848.34821,0.21473
2850.27668,0.21164
2852.20515,0.21073
2854.13362,0.20935
2856.06208,0.20665
2857.99055,0.20328
2859.91902,0.20203
2861.84749,0.20770
2863.77596,0.21425
2865.70443,0.21417
2867.63290,0.21364
2869.56136,0.21748
2871.48983,0.21860
2873.41830,0.21468
2875.34677,0.21012
2877.27524,0.20594
2879.20371,0.20458
2881.13218,0.20776
2883.06065,0.21154
2884.98911,0.21132
2886.91758,0.20929
2888.84605,0.21156
2890.77452,0.21694
2892.70299,0.21993
2894.63146,0.21916
2896.55993,0.21647
2898.48839,0.21485
2900.41686,0.21507
2902.34533,0.21254
2904.27380,0.20476
2906.20227,0.19866
2908.13074,0.19963
2910.05921,0.20168
2911.98768,0.20237
2913.91614,0.20695
2915.84461,0.21345
2917.77308,0.21518
2919.70155,0.21266
2921.63002,0.21256
2923.55849,0.21567
2925.48696,0.21847
2927.41542,0.22229
2929.34389,0.22639
2931.27236,0.22332
2933.20083,0.21033
2935.12930,0.19617
2937.05777,0.18892
2938.98624,0.18971
2940.91471,0.19583
2942.84317,0.20258
2944.77164,0.20661
2946.70011,0.20805
2948.62858,0.21191
2950.55705,0.22066
2952.48552,0.22949
2954.41399,0.23106
2956.34245,0.22283
2958.27092,0.21283
2960.19939,0.20610
2962.12786,0.20225
2964.05633,0.20677
2965.98480,0.21438
2967.91327,0.21281
2969.84174,0.20888
2971.77020,0.21244
2973.69867,0.21935
2975.62714,0.22220
2977.55561,0.22058
2979.48408,0.21987
2981.41255,0.22091
2983.34102,0.22205
2985.26948,0.22325
2987.19795,0.22380
2989.12642,0.22376
2991.05489,0.22383
2992.98336,0.22415
2994.91183,0.22509
2996.84030,0.22539
2998.76877,0.22183
3000.69723,0.21913
3002.62570,0.22204
3004.55417,0.22315
3006.48264,0.22060
3008.41111,0.22097
3010.33958,0.22171
3012.26805,0.21392
3014.19651,0.20002
3016.12498,0.19244
3018.05345,0.19724
3019.98192,0.20955
3021.91039,0.21873
3023.83886,0.22281
3025.76733,0.22837
3027.69579,0.23208
3029.62426,0.22690
3031.55273,0.21904
3033.48120,0.21869
3035.40967,0.22333
3037.33814,0.22428
3039.26661,0.21960
3041.19508,0.21717
3043.12354,0.22130
3045.05201,0.22255
3046.98048,0.21657
3048.90895,0.21249
3050.83742,0.21404
3052.76589,0.21472
3054.69436,0.21045
3056.62282,0.20344
3058.55129,0.20457
3060.47976,0.21647
3062.40823,0.22300
3064.33670,0.21941
3066.26517,0.21405
3068.19364,0.21149
3070.12211,0.21252
3072.05057,0.21576
3073.97904,0.22270
3075.90751,0.23006
3077.83598,0.23150
3079.76445,0.22937
3081.69292,0.22794
3083.62139,0.22387
3085.54985,0.21310
3087.47832,0.20682
3089.40679,0.21340
3091.33526,0.21796
3093.26373,0.21536
3095.19220,0.21638
3097.12067,0.22015
3099.04914,0.22412
3100.97760,0.22491
3102.90607,0.21415
3104.83454,0.20294
3106.76301,0.20863
3108.69148,0.22386
3110.61995,0.23344
3112.54842,0.23604
3114.47688,0.23543
3116.40535,0.23262
3118.33382,0.22722
3120.26229,0.21807
3122.19076,0.20905
3124.11923,0.21054
3126.04770,0.22219
3127.97617,0.23205
3129.90463,0.23156
3131.83310,0.22220
3133.76157,0.21816
3135.69004,0.22353
3137.61851,0.22349
3139.54698,0.21555
3141.47545,0.21279
3143.40391,0.21759
3145.33238,0.22427
3147.26085,0.23158
3149.18932,0.23534
3151.11779,0.23405
3153.04626,0.23048
3154.97473,0.22315
3156.90320,0.21357
3158.83166,0.20959
3160.76013,0.21466
3162.68860,0.22269
3164.61707,0.22893
3166.54554,0.22858
3168.47401,0.21856
3170.40248,0.21518
3172.33094,0.23071
3174.25941,0.24683
3176.18788,0.24299
3178.11635,0.22399
3180.04482,0.21080
3181.97329,0.21434
3183.90176,0.22605
3185.83022,0.23184
3187.75869,0.22844
3189.68716,0.22742
3191.61563,0.23337
3193.54410,0.23823
3195.47257,0.23765
3197.40104,0.23388
3199.32951,0.23343
3201.25797,0.23371
3203.18644,0.22902
3205.11491,0.22650
3207.04338,0.22510
3208.97185,0.21875
3210.90032,0.21826
3212.82879,0.22427
3214.75725,0.22384
3216.68572,0.22347
3218.61419,0.22867
3220.54266,0.22862
3222.47113,0.22453
3224.39960,0.22438
3226.32807,0.22500
3228.25654,0.22300
3230.18500,0.22069
3232.11347,0.21946
3234.04194,0.22148
3235.97041,0.22595
3237.89888,0.22633
3239.82735,0.22641
3241.75582,0.23372
3243.68428,0.23950
3245.61275,0.23689
3247.54122,0.23199
3249.46969,0.23120
3251.39816,0.23580
3253.32663,0.23552
3255.25510,0.22734
3257.18357,0.22439
3259.11203,0.22783
3261.04050,0.22665
3262.96897,0.22220
3264.89744,0.22250
3266.82591,0.21884
3268.75438,0.20822
3270.68285,0.20502
3272.61131,0.20860
3274.53978,0.21281
3276.46825,0.21984
3278.39672,0.22600
3280.32519,0.22470
3282.25366,0.21587
3284.18213,0.20978
3286.11060,0.21834
3288.03906,0.23242
3289.96753,0.23164
3291.89600,0.21932
3293.82447,0.21325
3295.75294,0.21752
3297.68141,0.22284
3299.60988,0.22060
3301.53834,0.21811
3303.46681,0.22150
3305.39528,0.21920
3307.32375,0.21282
3309.25222,0.21480
3311.18069,0.21724
3313.10916,0.21595
3315.03763,0.21923
3316.96609,0.22179
3318.89456,0.21902
3320.82303,0.21984
3322.75150,0.22483
3324.67997,0.22393
3326.60844,0.21893
3328.53691,0.21778
3330.46537,0.21583
3332.39384,0.20952
3334.32231,0.20651
3336.25078,0.20995
3338.17925,0.21723
3340.10772,0.22777
3342.03619,0.23744
3343.96466,0.23762
3345.89312,0.22565
3347.82159,0.21356
3349.75006,0.21330
3351.67853,0.21802
3353.60700,0.21722
3355.53547,0.21289
3357.46394,0.21609
3359.39240,0.23487
3361.32087,0.25076
3363.24934,0.23777
3365.17781,0.21258
3367.10628,0.20571
3369.03475,0.21268
3370.96322,0.22053
3372.89168,0.22552
3374.82015,0.21929
3376.74862,0.20701
3378.67709,0.20499
3380.60556,0.21172
3382.53403,0.22113
3384.46250,0.22724
3386.39097,0.22135
3388.31943,0.21252
3390.24790,0.21573
3392.17637,0.22529
3394.10484,0.22807
3396.03331,0.22624
3397.96178,0.22221
3399.89025,0.22033
3401.81871,0.22751
3403.74718,0.23149
3405.67565,0.22542
3407.60412,0.21773
3409.53259,0.21255
3411.46106,0.21042
3413.38953,0.21068
3415.31800,0.21354
3417.24646,0.21721
3419.17493,0.21623
3421.10340,0.21165
3423.03187,0.21034
3424.96034,0.21342
3426.88881,0.21982
3428.81728,0.22510
3430.74574,0.21908
3432.67421,0.20807
3434.60268,0.20833
3436.53115,0.21502
3438.45962,0.21500
3440.38809,0.20743
3442.31656,0.20073
3444.24503,0.20497
3446.17349,0.21470
3448.10196,0.21009
3450.03043,0.19568
3451.95890,0.19526
3453.88737,0.20848
3455.81584,0.21982
3457.74431,0.22083
3459.67277,0.21138
3461.60124,0.20058
3463.52971,0.19562
3465.45818,0.19533
3467.38665,0.19410
3469.31512,0.18918
3471.24359,0.18697
3473.17206,0.18943
3475.10052,0.18888
3477.02899,0.18543
3478.95746,0.18749
3480.88593,0.19055
3482.81440,0.18720
3484.74287,0.18771
3486.67134,0.19741
3488.59980,0.20173
3490.52827,0.19450
3492.45674,0.19505
3494.38521,0.20805
3496.31368,0.21137
3498.24215,0.20079
3500.17062,0.19071
3502.09909,0.18463
3504.02755,0.18056
3505.95602,0.18228
3507.88449,0.19192
3509.81296,0.19851
3511.74143,0.19156
3513.66990,0.17958
3515.59837,0.17586
3517.52683,0.18137
3519.45530,0.18687
3521.38377,0.19340
3523.31224,0.20512
3525.24071,0.21085
3527.16918,0.20679
3529.09765,0.19953
3531.02611,0.19114
3532.95458,0.18504
3534.88305,0.18392
3536.81152,0.18217
3538.73999,0.17192
3540.66846,0.16252
3542.59693,0.17104
3544.52540,0.18932
3546.45386,0.19477
3548.38233,0.18855
3550.31080,0.18217
3552.23927,0.17851
3554.16774,0.17476
3556.09621,0.16712
3558.02468,0.16696
3559.95314,0.18349
3561.88161,0.19906
3563.81008,0.20449
3565.73855,0.20792
3567.66702,0.19713
3569.59549,0.17788
3571.52396,0.17068
3573.45243,0.17152
3575.38089,0.17460
3577.30936,0.17529
3579.23783,0.17408
3581.16630,0.17175
3583.09477,0.16685
3585.02324,0.17138
3586.95171,0.18783
3588.88017,0.19017
3590.80864,0.18190
3592.73711,0.17552
3594.66558,0.16582
3596.59405,0.16226
3598.52252,0.16817
3600.45099,0.16736
3602.37946,0.16008
3604.30792,0.15779
3606.23639,0.15721
3608.16486,0.15231
3610.09333,0.15359
3612.02180,0.16731
3613.95027,0.17935
3615.87874,0.18022
3617.80720,0.17364
3619.73567,0.15882
3621.66414,0.14618
3623.59261,0.14965
3625.52108,0.16455
3627.44955,0.17778
3629.37802,0.17213
3631.30649,0.15772
3633.23495,0.15474
3635.16342,0.15511
3637.09189,0.15124
3639.02036,0.14538
3640.94883,0.14046
3642.87730,0.14036
3644.80577,0.14716
3646.73423,0.16215
3648.66270,0.18409
3650.59117,0.18140
3652.51964,0.15988
3654.44811,0.14933
3656.37658,0.14545
3658.30505,0.13942
3660.23352,0.13669
3662.16198,0.13811
3664.09045,0.14012
3666.01892,0.14623
3667.94739,0.16135
3669.87586,0.17235
3671.80433,0.15956
3673.73280,0.14584
3675.66126,0.14681
3677.58973,0.14887
3679.51820,0.14384
3681.44667,0.14061
3683.37514,0.14120
3685.30361,0.14754
3687.23208,0.16695
3689.16055,0.18875
3691.08901,0.17848
3693.01748,0.15515
3694.94595,0.14564
3696.87442,0.14546
3698.80289,0.14409
3700.73136,0.14028
3702.65983,0.13834
3704.58829,0.13848
3706.51676,0.14042
3708.44523,0.14706
3710.37370,0.15958
3712.30217,0.16657
3714.23064,0.16161
3716.15911,0.15469
3718.08757,0.14548
3720.01604,0.13786
3721.94451,0.14401
3723.87298,0.15521
3725.80145,0.15240
3727.72992,0.14398
3729.65839,0.14939
3731.58686,0.17194
3733.51532,0.19852
3735.44379,0.20032
3737.37226,0.17467
3739.30073,0.15092
3741.22920,0.14060
3743.15767,0.14324
3745.08614,0.14865
3747.01460,0.15148
3748.94307,0.16459
3750.87154,0.17810
3752.80001,0.17063
3754.72848,0.16180
3756.65695,0.15676
3758.58542,0.14722
3760.51389,0.13430
3762.44235,0.12638
3764.37082,0.12497
3766.29929,0.12747
3768.22776,0.13028
3770.15623,0.13069
3772.08470,0.12791
3774.01317,0.12351
3775.94163,0.12291
3777.87010,0.13098
3779.79857,0.13946
3781.72704,0.13953
3783.65551,0.13819
3785.58398,0.14060
3787.51245,0.14216
3789.44092,0.13597
3791.36938,0.12822
3793.29785,0.12936
3795.22632,0.13617
3797.15479,0.13968
3799.08326,0.14421
3801.01173,0.15320
3802.94020,0.15025
3804.86866,0.14033
3806.79713,0.13232
3808.72560,0.12417
3810.65407,0.11909
3812.58254,0.11764
3814.51101,0.12331
3816.43948,0.13778
3818.36795,0.14621
3820.29641,0.14138
3822.22488,0.13365
3824.15335,0.13490
3826.08182,0.13602
3828.01029,0.13195
3829.93876,0.13080
3831.86723,0.13922
3833.79569,0.15366
3835.72416,0.16286
3837.65263,0.15511
3839.58110,0.13953
3841.50957,0.13305
3843.43804,0.12595
3845.36651,0.12035
3847.29498,0.12029
3849.22344,0.12158
3851.15191,0.13030
3853.08038,0.14958
3855.00885,0.15066
3856.93732,0.13848
3858.86579,0.12772
3860.79426,0.12128
3862.72272,0.12574
3864.65119,0.13365
3866.57966,0.13359
3868.50813,0.13716
3870.43660,0.14529
3872.36507,0.13985
3874.29354,0.12260
3876.22200,0.11207
3878.15047,0.11640
3880.07894,0.12834
3882.00741,0.13473
3883.93588,0.13056
3885.86435,0.12295
3887.79282,0.12512
3889.72129,0.13389
3891.64975,0.13022
3893.57822,0.11772
3895.50669,0.12059
3897.43516,0.13175
3899.36363,0.13682
3901.29210,0.13729
3903.22057,0.13724
3905.14903,0.13485
3907.07750,0.12767
3909.00597,0.11951
3910.93444,0.11405
3912.86291,0.10904
3914.79138,0.11005
3916.71985,0.12057
3918.64832,0.12860
3920.57678,0.12843
3922.50525,0.12472
3924.43372,0.12081
3926.36219,0.11794
3928.29066,0.11713
3930.21913,0.11971
3932.14760,0.12451
3934.07606,0.12590
3936.00453,0.12245
3937.93300,0.11710
3939.86147,0.11084
3941.78994,0.10907
3943.71841,0.11640
3945.64688,0.12541
3947.57535,0.12382
3949.50381,0.11161
3951.43228,0.10720
3953.36075,0.11250
3955.28922,0.11460
3957.21769,0.10858
3959.14616,0.09944
3961.07463,0.10170
3963.00309,0.11376
3964.93156,0.11548
3966.86003,0.10724
3968.78850,0.10486
3970.71697,0.10787
3972.64544,0.10771
3974.57391,0.10962
3976.50238,0.11579
3978.43084,0.11450
3980.35931,0.10789
3982.28778,0.10603
3984.21625,0.10686
3986.14472,0.10990
3988.07319,0.11402
3990.00166,0.11025
3991.93012,0.09979
3993.85859,0.09289
3995.78706,0.08966
3997.71553,0.08910
3999.64400,0.09676
4001.57247,0.11022
4003.50094,0.11561
4005.42941,0.10276
4007.35787,0.08477
4009.28634,0.08214
4011.21481,0.09237
4013.14328,0.09823
4015.07175,0.09325
4017.00022,0.08618
4018.92869,0.08465
4020.85715,0.08588
4022.78562,0.08488
4024.71409,0.08678
4026.64256,0.09177
4028.57103,0.09170
4030.49950,0.09035
4032.42797,0.08825
4034.35644,0.08435
4036.28490,0.09075
4038.21337,0.10818
4040.14184,0.11751
4042.07031,0.11249
4043.99878,0.10427
4045.92725,0.09473
4047.85572,0.08093
4049.78418,0.06953
4051.71265,0.06908
4053.64112,0.07396
4055.56959,0.07310
4057.49806,0.07097
4059.42653,0.07556
4061.35500,0.08374
4063.28346,0.08683
4065.21193,0.08307
4067.14040,0.08352
4069.06887,0.09348
4070.99734,0.10026
4072.92581,0.09995
4074.85428,0.10141
4076.78275,0.10130
4078.71121,0.09613
4080.63968,0.09481
4082.56815,0.09833
4084.49662,0.09807
4086.42509,0.09491
4088.35356,0.09411
4090.28203,0.09234
4092.21049,0.08824
4094.13896,0.08932
4096.06743,0.09300
4097.99590,0.08723
4099.92437,0.07773
4101.85284,0.07723
4103.78131,0.08560
4105.70978,0.09397
4107.63824,0.09322
4109.56671,0.08573
4111.49518,0.07930
4113.42365,0.07629
4115.35212,0.07614
4117.28059,0.07875
4119.20906,0.08451
4121.13752,0.09090
4123.06599,0.09289
4124.99446,0.09137
4126.92293,0.08735
4128.85140,0.07506
4130.77987,0.06050
4132.70834,0.05593
4134.63681,0.05579
4136.56527,0.05210
4138.49374,0.05458
4140.42221,0.06525
4142.35068,0.06815
4144.27915,0.06313
4146.20762,0.06338
4148.13609,0.06885
4150.06455,0.07126
4151.99302,0.06996
4153.92149,0.07223
4155.84996,0.07874
4157.77843,0.07995
4159.70690,0.07214
4161.63537,0.06204
4163.56384,0.05600
4165.49230,0.05565
4167.42077,0.06179
4169.34924,0.07552
4171.27771,0.08503
4173.20618,0.08095
4175.13465,0.07576
4177.06312,0.07632
4178.99158,0.07833
4180.92005,0.07323
4182.84852,0.05792
4184.77699,0.04925
4186.70546,0.05733
4188.63393,0.07269
4190.56240,0.07761
4192.49087,0.06054
4194.41933,0.03870
4196.34780,0.03421
4198.27627,0.03902
4200.20474,0.04252
4202.13321,0.05051
4204.06168,0.05967
4205.99015,0.06128
4207.91861,0.05510
4209.84708,0.04505
4211.77555,0.04067
4213.70402,0.04988
4215.63249,0.06382
4217.56096,0.06614
4219.48943,0.05631
4221.41789,0.04939
4223.34636,0.05149
4225.27483,0.05498
4227.20330,0.05723
4229.13177,0.05327
4231.06024,0.03966
4232.98871,0.03117
4234.91718,0.03989
4236.84564,0.05644
4238.77411,0.06130
4240.70258,0.05594
4242.63105,0.05587
4244.55952,0.06092
4246.48799,0.06656
4248.41646,0.06426
4250.34492,0.04793
4252.27339,0.03072
4254.20186,0.02595
4256.13033,0.03467
4258.05880,0.04259
4259.98727,0.03641
4261.91574,0.02559
4263.84421,0.02365
4265.77267,0.03062
4267.70114,0.04113
4269.62961,0.05090
4271.55808,0.06073
4273.48655,0.07301
4275.41502,0.07838
4277.34349,0.06970
4279.27195,0.05930
4281.20042,0.05832
4283.12889,0.06067
4285.05736,0.05407
4286.98583,0.04266
4288.91430,0.04153
4290.84277,0.05160
4292.77124,0.05915
4294.69970,0.05568
4296.62817,0.04607
4298.55664,0.03594
4300.48511,0.03529
4302.41358,0.04869
4304.34205,0.05561
4306.27052,0.04498
4308.19898,0.03290
4310.12745,0.02772
4312.05592,0.02900
4313.98439,0.03415
4315.91286,0.03203
4317.84133,0.02903
4319.76980,0.03637
4321.69827,0.04407
4323.62673,0.05032
4325.55520,0.05588
4327.48367,0.04780
4329.41214,0.03378
4331.34061,0.03280
4333.26908,0.03516
4335.19755,0.02983
4337.12601,0.02505
4339.05448,0.02549
4340.98295,0.02716
4342.91142,0.02809
4344.83989,0.03265
4346.76836,0.03306
4348.69683,0.02430
4350.62530,0.02382
4352.55376,0.03309
4354.48223,0.04309
4356.41070,0.05351
4358.33917,0.04977
4360.26764,0.02831
4362.19611,0.01109
4364.12458,0.00633
4366.05304,0.00224
4367.98151,-0.00621
4369.90998,-0.00649
4371.83845,0.00326
4373.76692,0.00441
4375.69539,-0.00555
4377.62386,-0.01034
4379.55232,-0.00239
4381.48079,0.01455
4383.40926,0.03248
4385.33773,0.04433
4387.26620,0.04865
4389.19467,0.04731
4391.12314,0.04674
4393.05161,0.04816
4394.98007,0.04159
4396.90854,0.02798
4398.83701,0.01889
4400.76548,0.01668
4402.69395,0.01906
4404.62242,0.02560
4406.55089,0.02646
4408.47935,0.02070
4410.40782,0.02673
4412.33629,0.03488
4414.26476,0.02402
4416.19323,0.01019
4418.12170,0.00977
4420.05017,0.01717
4421.97864,0.02300
4423.90710,0.02219
4425.83557,0.01698
4427.76404,0.00800
4429.69251,-0.00145
4431.62098,-0.00226
4433.54945,0.00579
4435.47792,0.01619
4437.40638,0.02213
4439.33485,0.02275
4441.26332,0.02414
4443.19179,0.02488
4445.12026,0.02267
4447.04873,0.02043
4448.97720,0.01312
4450.90567,0.00355
4452.83413,0.00674
4454.76260,0.01751
4456.69107,0.01458
4458.61954,-0.00152
4460.54801,-0.00606
4462.47648,0.00381
4464.40495,0.00769
4466.33341,0.00314
4468.26188,0.00108
4470.19035,0.00683
4472.11882,0.01673
4474.04729,0.02330
4475.97576,0.03129
4477.90423,0.04963
4479.83270,0.05808
4481.76116,0.04738
4483.68963,0.04251
4485.61810,0.03787
4487.54657,0.02089
4489.47504,0.00867
4491.40351,0.00825
4493.33198,0.01402
4495.26044,0.02105
4497.18891,0.01946
4499.11738,0.00666
4501.04585,0.00109
4502.97432,0.01014
4504.90279,0.01854
4506.83126,0.01840
4508.75973,0.01433
4510.68819,0.01104
4512.61666,0.00984
4514.54513,0.00401
4516.47360,-0.00545
4518.40207,-0.00125
4520.33054,0.00879
4522.25901,0.00804
4524.18747,0.00651
4526.11594,0.01141
4528.04441,0.01821
4529.97288,0.01887
4531.90135,0.00987
4533.82982,-0.00187
4535.75829,-0.00385
4537.68676,0.00896
4539.61522,0.02211
4541.54369,0.01725
4543.47216,-0.00188
4545.40063,-0.01759
4547.32910,-0.03055
4549.25757,-0.04002
4551.18604,-0.02426
4553.11450,0.00744
4555.04297,0.01546
4556.97144,-0.00502
4558.89991,-0.03001
4560.82838,-0.03989
4562.75685,-0.02764
4564.68532,-0.00772
4566.61378,0.00682
4568.54225,0.01728
4570.47072,0.02075
4572.39919,0.01218
4574.32766,-0.00866
4576.25613,-0.02617
4578.18460,-0.02522
4580.11307,-0.00897
4582.04153,0.00196
4583.97000,-0.00157
4585.89847,-0.01054
4587.82694,-0.01446
4589.75541,-0.00956
4591.68388,-0.00652
4593.61235,-0.01548
4595.54081,-0.02528
4597.46928,-0.01872
4599.39775,-0.00078
4601.32622,0.00712
4603.25469,-0.00025
4605.18316,-0.01487
4607.11163,-0.02507
4609.04010,-0.02065
4610.96856,-0.00710
4612.89703,0.00149
4614.82550,0.00140
4616.75397,0.00117
4618.68244,-0.00009
4620.61091,-0.00647
4622.53938,-0.01297
4624.46784,-0.02087
4626.39631,-0.02067
4628.32478,-0.00481
4630.25325,0.00720
4632.18172,0.00318
4634.11019,-0.00441
4636.03866,-0.00207
4637.96713,0.00777
4639.89559,0.01429
4641.82406,0.00786
4643.75253,-0.00550
4645.68100,-0.01015
4647.60947,-0.00968
4649.53794,-0.00640
4651.46641,0.00711
4653.39487,0.01894
4655.32334,0.02038
4657.25181,0.02514
4659.18028,0.03557
4661.10875,0.03118
4663.03722,0.00989
4664.96569,-0.01293
4666.89416,-0.01534
4668.82262,0.01497
4670.75109,0.04682
4672.67956,0.04544
4674.60803,0.01995
4676.53650,-0.00721
4678.46497,-0.02206
4680.39344,-0.01936
4682.32190,-0.00175
4684.25037,0.02474
4686.17884,0.03980
4688.10731,0.02745
4690.03578,0.00583
4691.96425,-0.00400
4693.89272,-0.00061
4695.82119,0.00310
4697.74965,0.00092
4699.67812,0.00540
4701.60659,0.01078
4703.53506,0.00249
4705.46353,-0.00822
4707.39200,-0.01527
4709.32047,-0.02500
4711.24893,-0.02720
4713.17740,-0.01214
4715.10587,0.00232
4717.03434,-0.00404
4718.96281,-0.01605
4720.89128,-0.01535
4722.81975,-0.00500
4724.74821,0.01317
4726.67668,0.03191
4728.60515,0.03572
4730.53362,0.01866
4732.46209,-0.00489
4734.39056,-0.00180
4736.31903,0.02659
4738.24750,0.03524
4740.17596,0.01108
4742.10443,-0.00598
4744.03290,-0.00030
4745.96137,0.00062
4747.88984,-0.00077
4749.81831,0.01021
4751.74678,0.01143
4753.67524,0.00071
4755.60371,-0.00263
4757.53218,-0.00558
4759.46065,-0.01629
4761.38912,-0.02436
4763.31759,-0.01164
4765.24606,0.01730
4767.17453,0.03301
4769.10299,0.03160
4771.03146,0.02980
4772.95993,0.02495
4774.88840,0.00960
4776.81687,-0.00150
4778.74534,0.00183
4780.67381,0.01228
4782.60227,0.02274
4784.53074,0.02199
4786.45921,0.01226
4788.38768,0.00513
4790.31615,0.00184
4792.24462,0.00331
4794.17309,0.00695
4796.10156,0.00988
4798.03002,0.00888
4799.95849,0.00652
4801.88696,0.01328
4803.81543,0.02283
4805.74390,0.01712
4807.67237,-0.00329
4809.60084,-0.01525
4811.52930,-0.00712
4813.45777,0.00996
4815.38624,0.02104
4817.31471,0.01643
4819.24318,0.00175
4821.17165,-0.01030
4823.10012,-0.01256
4825.02859,-0.00084
4826.95705,0.01571
4828.88552,0.01827
4830.81399,0.01111
4832.74246,0.00952
4834.67093,0.01617
4836.59940,0.01922
4838.52787,0.00038
4840.45633,-0.01595
4842.38480,0.00556
4844.31327,0.02947
4846.24174,0.02240
4848.17021,0.01469
4850.09868,0.01587
4852.02715,0.01086
4853.95562,0.00455
4855.88408,-0.00299
4857.81255,-0.00549
4859.74102,0.00616
4861.66949,0.01535
4863.59796,0.02106
4865.52643,0.03742
4867.45490,0.04363
4869.38336,0.02896
4871.31183,0.01647
4873.24030,0.01053
4875.16877,0.00801
4877.09724,0.02135
4879.02571,0.04382
4880.95418,0.04242
4882.88265,0.01835
4884.81111,-0.00080
4886.73958,-0.01333
4888.66805,-0.01739
4890.59652,-0.01247
4892.52499,-0.00348
4894.45346,0.01523
4896.38193,0.02688
4898.31039,0.02049
4900.23886,0.01034
4902.16733,-0.01184
4904.09580,-0.03512
4906.02427,-0.02757
4907.95274,-0.00295
4909.88121,0.01303
4911.80967,0.01002
4913.73814,-0.00867
4915.66661,-0.02598
4917.59508,-0.02626
4919.52355,-0.01322
4921.45202,-0.00139
4923.38049,0.01379
4925.30896,0.02997
4927.23742,0.03248
4929.16589,0.03439
4931.09436,0.05581
4933.02283,0.07279
4934.95130,0.05535
4936.87977,0.02807
4938.80824,0.01409
4940.73670,0.00813
4942.66517,0.00291
4944.59364,-0.00974
4946.52211,-0.01929
4948.45058,-0.01027
4950.37905,0.01083
4952.30752,0.02680
4954.23599,0.03364
4956.16445,0.03676
4958.09292,0.02051
4960.02139,-0.01314
4961.94986,-0.02571
4963.87833,-0.00844
4965.80680,0.00778
4967.73527,0.00429
4969.66373,-0.00303
4971.59220,-0.00583
4973.52067,-0.01956
4975.44914,-0.04208
4977.37761,-0.04497
4979.30608,-0.01364
4981.23455,0.02458
4983.16302,0.03847
4985.09148,0.02887
4987.01995,0.01336
4988.94842,0.01090
4990.87689,0.02683
4992.80536,0.03701
4994.73383,0.01758
4996.66230,-0.00223
4998.59076,0.00834
5000.51923,0.02509
5002.44770,0.02388
5004.37617,0.01483
5006.30464,0.02016
5008.23311,0.03379
5010.16158,0.03161
5012.09005,0.02173
5014.01851,0.02144
5015.94698,0.02072
5017.87545,0.01068
5019.80392,-0.01039
5021.73239,-0.03767
5023.66086,-0.04700
5025.58933,-0.03550
5027.51779,-0.02326
5029.44626,-0.00657
5031.37473,0.01259
5033.30320,0.02185
5035.23167,0.02139
5037.16014,0.00799
5039.08861,-0.00247
5041.01708,0.01127
5042.94554,0.03500
5044.87401,0.04418
5046.80248,0.03491
5048.73095,0.02570
5050.65942,0.02377
5052.58789,0.02104
5054.51636,0.01543
5056.44482,0.01027
5058.37329,0.00571
5060.30176,-0.00415
5062.23023,-0.01181
5064.15870,-0.01553
5066.08717,-0.02449
5068.01564,-0.02182
5069.94410,-0.01305
5071.87257,-0.02954
5073.80104,-0.05618
5075.72951,-0.05496
5077.65798,-0.01823
5079.58645,0.03389
5081.51492,0.07778
5083.44339,0.09281
5085.37185,0.07086
5087.30032,0.03350
5089.22879,0.01081
5091.15726,0.00586
5093.08573,-0.00278
5095.01420,-0.02004
5096.94267,-0.02454
5098.87113,-0.00712
5100.79960,0.00611
5102.72807,-0.00656
5104.65654,-0.02331
5106.58501,-0.02282
5108.51348,-0.00697
5110.44195,0.02088
5112.37042,0.05905
5114.29888,0.08121
5116.22735,0.05396
5118.15582,0.00849
5120.08429,-0.01264
5122.01276,-0.01975
5123.94123,-0.02463
5125.86970,-0.02504
5127.79816,-0.01770
5129.72663,-0.00370
5131.65510,0.00560
5133.58357,0.00400
5135.51204,0.00383
5137.44051,0.00721
5139.36898,0.00409
5141.29745,-0.00352
5143.22591,-0.01402
5145.15438,-0.00811
5147.08285,0.02549
5149.01132,0.05064
5150.93979,0.03708
5152.86826,0.00829
5154.79673,0.01003
5156.72519,0.02772
5158.65366,0.03635
5160.58213,0.04863
5162.51060,0.03629
5164.43907,-0.00811
5166.36754,-0.02627
5168.29601,-0.00094
5170.22448,0.02419
5172.15294,0.00878
5174.08141,-0.02843
5176.00988,-0.03703
5177.93835,-0.01168
5179.86682,0.01171
5181.79529,0.01937
5183.72376,0.02589
5185.65222,0.04510
5187.58069,0.06964
5189.50916,0.08660
5191.43763,0.08909
5193.36610,0.06079
5195.29457,0.01155
5197.22304,-0.01277
5199.15151,0.00880
5201.07997,0.03466
5203.00844,0.02883
5204.93691,0.01303
5206.86538,0.01719
5208.79385,0.02982
5210.72232,0.03291
5212.65079,0.02444
5214.57925,-0.00107
5216.50772,-0.02629
5218.43619,-0.01869
5220.36466,0.00488
5222.29313,0.01066
5224.22160,-0.00826
5226.15007,-0.04981
5228.07854,-0.07504
5230.00700,-0.05407
5231.93547,-0.01691
5233.86394,-0.00280
5235.79241,-0.00638
5237.72088,-0.00005
5239.64935,0.01972
5241.57782,0.03927
5243.50628,0.04829
5245.43475,0.03032
5247.36322,-0.00198
5249.29169,-0.00575
5251.22016,0.01376
5253.14863,0.02618
5255.07710,0.02661
5257.00556,0.04302
5258.93403,0.09305
5260.86250,0.13148
5262.79097,0.13483
5264.71944,0.11217
5266.64791,0.05961
5268.57638,0.01350
5270.50485,-0.00546
5272.43331,-0.01628
5274.36178,-0.00695
5276.29025,0.02341
5278.21872,0.03880
5280.14719,0.04329
5282.07566,0.04789
5284.00413,0.03852
5285.93259,0.03013
5287.86106,0.02581
5289.78953,0.00801
5291.71800,-0.00164
5293.64647,0.00747
5295.57494,0.01300
5297.50341,0.03465
5299.43188,0.09277
5301.36034,0.13970
5303.28881,0.13300
5305.21728,0.10594
5307.14575,0.08981
5309.07422,0.06901
5311.00269,0.05814
5312.93116,0.06272
5314.85962,0.04547
5316.78809,0.01390
5318.71656,-0.01220
5320.64503,-0.03318
5322.57350,-0.01998
5324.50197,0.02898
5326.43044,0.06301
5328.35891,0.06399
5330.28737,0.05121
5332.21584,0.04054
5334.14431,0.04285
5336.07278,0.04950
5338.00125,0.06517
5339.92972,0.08312
5341.85819,0.07415
5343.78665,0.05994
5345.71512,0.05250
5347.64359,0.02801
5349.57206,0.00851
5351.50053,0.00538
5353.42900,-0.00078
5355.35747,-0.00135
5357.28594,0.00484
5359.21440,0.01529
5361.14287,0.03501
5363.07134,0.05191
5364.99981,0.06345
5366.92828,0.07159
5368.85675,0.07389
5370.78522,0.08035
5372.71368,0.08966
5374.64215,0.06946
5376.57062,0.04241
5378.49909,0.05704
5380.42756,0.05638
5382.35603,0.03486
5384.28450,0.03254
5386.21297,0.02106
5388.14143,0.01167
5390.06990,0.03982
5391.99837,0.05962
5393.92684,0.04137
5395.85531,0.03664
5397.78378,0.06497
5399.71225,0.09006
5401.64071,0.08923
5403.56918,0.06385
5405.49765,0.04631
5407.42612,0.05447
5409.35459,0.06386
5411.28306,0.07697
5413.21153,0.12579
5415.13999,0.16525
5417.06846,0.13186
5418.99693,0.06870
5420.92540,0.04480
5422.85387,0.03356
5424.78234,-0.01103
5426.71081,-0.04425
5428.63928,-0.01165
5430.56774,0.05918
5432.49621,0.09881
5434.42468,0.08277
5436.35315,0.04733
5438.28162,0.02005
5440.21009,-0.00530
5442.13856,-0.02078
5444.06702,-0.00652
5445.99549,0.04488
5447.92396,0.07508
5449.85243,0.04519
5451.78090,0.02802
5453.70937,0.07364
5455.63784,0.15161
5457.56631,0.19116
5459.49477,0.16582
5461.42324,0.11855
5463.35171,0.09097
5465.28018,0.07392
5467.20865,0.02912
5469.13712,-0.01265
5471.06559,0.00166
5472.99405,0.04349
5474.92252,0.06018
5476.85099,0.04628
5478.77946,0.05730
5480.70793,0.09099
5482.63640,0.09503
5484.56487,0.09031
5486.49334,0.10908
5488.42180,0.09094
5490.35027,0.01388
5492.27874,-0.02276
5494.20721,0.01203
5496.13568,0.02717
5498.06415,0.00261
5499.99262,-0.00927
5501.92108,0.03108
5503.84955,0.11061
5505.77802,0.16235
5507.70649,0.13877
5509.63496,0.08111
5511.56343,0.03747
5513.49190,0.00204
5515.42037,-0.01645
5517.34883,0.00004
5519.27730,0.01970
5521.20577,0.04162
5523.13424,0.08613
5525.06271,0.10382
5526.99118,0.08104
5528.91965,0.06952
5530.84811,0.07764
5532.77658,0.08814
5534.70505,0.09383
5536.63352,0.08671
5538.56199,0.07284
5540.49046,0.05297
5542.41893,0.04208
5544.34740,0.06752
5546.27586,0.10418
5548.20433,0.11698
5550.13280,0.10514
5552.06127,0.08092
5553.98974,0.07664
5555.91821,0.12204
5557.84668,0.16990
5559.77514,0.15395
5561.70361,0.10029
5563.63208,0.06052
5565.56055,0.04174
5567.48902,0.03786
5569.41749,0.04476
5571.34596,0.04946
5573.27443,0.05620
5575.20289,0.06385
5577.13136,0.06376
5579.05983,0.07908
5580.98830,0.10292
5582.91677,0.10395
5584.84524,0.10485
5586.77371,0.12822
5588.70217,0.13162
5590.63064,0.08241
5592.55911,0.03017
5594.48758,0.02153
5596.41605,0.04531
5598.34452,0.07402
5600.27299,0.08860
5602.20145,0.06970
5604.12992,0.03302
5606.05839,0.02140
5607.98686,0.03426
5609.91533,0.04576
5611.84380,0.04221
5613.77227,0.01587
5615.70074,-0.00141
5617.62920,0.01827
5619.55767,0.02564
5621.48614,0.00921
5623.41461,0.03088
5625.34308,0.07885
5627.27155,0.07391
5629.20002,0.01216
5631.12848,-0.03062
5633.05695,-0.01919
5634.98542,0.02159
5636.91389,0.05601
5638.84236,0.06962
5640.77083,0.04708
5642.69930,0.01010
5644.62777,0.00663
5646.55623,0.01826
5648.48470,0.03168
5650.41317,0.06635
5652.34164,0.09138
5654.27011,0.07671
5656.19858,0.04446
5658.12705,0.01911
5660.05551,0.00245
5661.98398,0.02259
5663.91245,0.08415
5665.84092,0.11603
5667.76939,0.08204
5669.69786,0.01260
5671.62633,-0.02288
5673.55480,0.01865
5675.48326,0.05451
5677.41173,0.03361
5679.34020,0.02327
5681.26867,0.03615
5683.19714,0.06199
5685.12561,0.08851
5687.05408,0.09091
5688.98254,0.09645
5690.91101,0.11905
5692.83948,0.12447
5694.76795,0.09820
5696.69642,0.05826
5698.62489,0.01725
5700.55336,-0.00397
5702.48183,0.01931
5704.41029,0.05997
5706.33876,0.08800
5708.26723,0.12448
5710.19570,0.16536
5712.12417,0.16439
5714.05264,0.12714
5715.98111,0.09234
5717.90957,0.07933
5719.83804,0.09455
5721.76651,0.10394
5723.69498,0.06673
5725.62345,0.01512
5727.55192,0.01253
5729.48039,0.03256
5731.40886,0.02896
5733.33732,0.02708
5735.26579,0.04845
5737.19426,0.08148
5739.12273,0.08492
5741.05120,0.04465
5742.97967,0.02259
5744.90814,0.06519
5746.83660,0.11602
5748.76507,0.10077
5750.69354,0.04279
5752.62201,0.02792
5754.55048,0.09520
5756.47895,0.16312
5758.40742,0.15122
5760.33588,0.09613
5762.26435,0.05749
5764.19282,0.04905
5766.12129,0.04520
5768.04976,0.05659
5769.97823,0.11771
5771.90670,0.16738
5773.83517,0.17283
5775.76363,0.21967
5777.69210,0.29775
5779.62057,0.30962
5781.54904,0.25926
5783.47751,0.19120
5785.40598,0.14286
5787.33445,0.14034
5789.26291,0.13700
5791.19138,0.11902
5793.11985,0.09335
5795.04832,0.04076
5796.97679,0.02961
5798.90526,0.09279
5800.83373,0.11670
5802.76220,0.05493
5804.69066,-0.00013
5806.61913,-0.01524
5808.54760,-0.01639
5810.47607,0.01168
5812.40454,0.02272
5814.33301,-0.00969
5816.26148,0.00330
5818.18994,0.07895
5820.11841,0.14296
5822.04688,0.15357
5823.97535,0.10814
5825.90382,0.05741
5827.83229,0.04387
5829.76076,0.02935
5831.68923,0.00943
5833.61769,0.02627
5835.54616,0.05413
5837.47463,0.05083
5839.40310,0.02856
5841.33157,0.01787
5843.26004,0.02500
5845.18851,0.04227
5847.11697,0.06836
5849.04544,0.10987
5850.97391,0.13387
5852.90238,0.09827
5854.83085,0.06636
5856.75932,0.10443
5858.68779,0.17399
5860.61626,0.22480
5862.54472,0.24266
5864.47319,0.22238
5866.40166,0.17021
5868.33013,0.12663
5870.25860,0.11606
5872.18707,0.10193
5874.11554,0.07018
5876.04400,0.06254
5877.97247,0.06825
5879.90094,0.05741
5881.82941,0.09214
5883.75788,0.16309
5885.68635,0.14433
5887.61482,0.02715
5889.54329,-0.04691
5891.47175,0.00120
5893.40022,0.08950
5895.32869,0.13384
5897.25716,0.17070
5899.18563,0.23087
5901.11410,0.26682
5903.04257,0.22742
5904.97103,0.13613
5906.89950,0.08353
5908.82797,0.07516
5910.75644,0.06629
5912.68491,0.08593
5914.61338,0.11592
5916.54185,0.10324
5918.47032,0.07365
5920.39878,0.05381
5922.32725,0.04261
5924.25572,0.03504
5926.18419,0.01967
5928.11266,0.00747
5930.04113,0.01687
5931.96960,0.05822
5933.89806,0.09395
5935.82653,0.07108
5937.75500,0.03246
5939.68347,0.00370
5941.61194,-0.03858
5943.54041,-0.03695
5945.46888,0.05843
5947.39734,0.16890
5949.32581,0.20215
5951.25428,0.15101
5953.18275,0.06442
5955.11122,0.00247
5957.03969,-0.02007
5958.96816,-0.01707
5960.89663,0.00392
5962.82509,0.02938
5964.75356,0.06529
5966.68203,0.08922
5968.61050,0.07793
5970.53897,0.09621
5972.46744,0.17695
5974.39591,0.21177
5976.32437,0.11542
5978.25284,0.00403
5980.18131,0.00717
5982.10978,0.08289
5984.03825,0.13504
5985.96672,0.10861
5987.89519,0.03336
5989.82366,-0.02399
5991.75212,-0.04816
5993.68059,-0.00278
5995.60906,0.11065
5997.53753,0.16496
5999.46600,0.10077
6001.39447,0.05493
6003.32294,0.12601
6005.25140,0.19138
6007.17987,0.16908
6009.10834,0.12013
6011.03681,0.10060
6012.96528,0.11835
6014.89375,0.10496
6016.82222,0.03109
6018.75069,-0.02163
6020.67915,-0.01473
6022.60762,0.01341
6024.53609,0.05063
6026.46456,0.04221
6028.39303,-0.01594
6030.32150,-0.00571
6032.24997,0.03405
6034.17843,-0.02689
6036.10690,-0.08770
6038.03537,-0.01845
6039.96384,0.03945
6041.89231,0.00691
6043.82078,-0.00710
6045.74925,-0.00065
6047.67772,0.00614
6049.60618,0.06261
6051.53465,0.11431
6053.46312,0.09670
6055.39159,0.03167
6057.32006,-0.02427
6059.24853,-0.04457
6061.17700,-0.03273
6063.10546,0.01350
6065.03393,0.05197
6066.96240,0.05730
6068.89087,0.01888
6070.81934,-0.06523
6072.74781,-0.08403
6074.67628,-0.00832
6076.60475,0.01549
6078.53321,-0.01600
6080.46168,-0.01193
6082.39015,-0.00870
6084.31862,-0.02517
6086.24709,0.00252
6088.17556,0.05406
6090.10403,0.03366
6092.03249,-0.03416
6093.96096,-0.05700
6095.88943,-0.01718
6097.81790,0.04767
6099.74637,0.08575
6101.67484,0.08396
6103.60331,0.08050
6105.53177,0.09889
6107.46024,0.11472
6109.38871,0.08944
6111.31718,-0.00212
6113.24565,-0.09443
6115.17412,-0.07520
6117.10259,0.00229
6119.03106,0.05945
6120.95952,0.09899
6122.88799,0.09015
6124.81646,0.08778
6126.74493,0.17241
6128.67340,0.28809
6130.60187,0.30919
6132.53034,0.20963
6134.45880,0.11852
6136.38727,0.11686
6138.31574,0.12991
6140.24421,0.11709
6142.17268,0.10297
6144.10115,0.06101
6146.02962,0.01306
6147.95809,0.02142
6149.88655,0.07004
6151.81502,0.06166
6153.74349,-0.01974
6155.67196,-0.03878
6157.60043,0.01147
6159.52890,0.02369
6161.45737,0.00404
6163.38583,0.00895
6165.31430,0.02199
6167.24277,0.02049
6169.17124,0.02759
6171.09971,0.03052
6173.02818,-0.03887
6174.95665,-0.12937
6176.88512,-0.09091
6178.81358,0.01775
6180.74205,0.05231
6182.67052,0.06036
6184.59899,0.07306
6186.52746,0.09856
6188.45593,0.17116
6190.38440,0.19107
6192.31286,0.12687
6194.24133,0.07321
6196.16980,0.04273
6198.09827,-0.01349
6200.02674,-0.06188
6201.95521,-0.03286
6203.88368,0.06717
6205.81215,0.16748
6207.74061,0.17397
6209.66908,0.10566
6211.59755,0.12315
6213.52602,0.19741
6215.45449,0.18305
6217.38296,0.09545
6219.31143,0.02005
6221.23989,0.00655
6223.16836,0.04308
6225.09683,0.08597
6227.02530,0.12622
6228.95377,0.14439
6230.88224,0.12675
6232.81071,0.08591
6234.73918,0.06163
6236.66764,0.05861
6238.59611,0.01605
6240.52458,-0.07117
6242.45305,-0.14152
6244.38152,-0.13318
6246.30999,-0.07522
6248.23846,-0.02947
6250.16692,0.06192
6252.09539,0.19663
6254.02386,0.23732
6255.95233,0.16386
6257.88080,0.08684
6259.80927,0.05627
6261.73774,0.04838
6263.66621,0.06211
6265.59467,0.08735
6267.52314,0.09535
6269.45161,0.08063
6271.38008,0.05802
6273.30855,0.01290
6275.23702,-0.07336
6277.16549,-0.13940
6279.09395,-0.09077
6281.02242,0.04089
6282.95089,0.14561
6284.87936,0.17310
6286.80783,0.07581
6288.73630,-0.07863
6290.66477,-0.09383
6292.59323,0.00310
6294.52170,0.05216
6296.45017,0.07963
6298.37864,0.11977
6300.30711,0.08891
6302.23558,0.01124
6304.16405,-0.00725
6306.09252,0.01952
6308.02098,0.04404
6309.94945,0.02194
6311.87792,-0.03131
6313.80639,-0.03993
6315.73486,0.00429
6317.66333,0.02928
6319.59180,-0.00504
6321.52026,-0.02810
6323.44873,0.00853
6325.37720,0.02744
6327.30567,-0.02248
6329.23414,-0.06690
6331.16261,0.00721
6333.09108,0.18203
6335.01955,0.32708
6336.94801,0.34237
6338.87648,0.21085
6340.80495,0.08437
6342.73342,0.06338
6344.66189,-0.01855
6346.59036,-0.17841
6348.51883,-0.20920
6350.44729,-0.11560
6352.37576,-0.03926
6354.30423,0.02668
6356.23270,0.10390
6358.16117,0.09584
6360.08964,0.02509
6362.01811,0.02768
6363.94658,0.05650
6365.87504,-0.05802
6367.80351,-0.23674
6369.73198,-0.19951
6371.66045,0.00516
6373.58892,0.12183
6375.51739,0.12777
6377.44586,0.13400
6379.37432,0.13291
6381.30279,0.05484
6383.23126,-0.06400
6385.15973,-0.09472
6387.08820,-0.05743
6389.01667,-0.01963
6390.94514,0.02575
6392.87361,0.04688
6394.80207,0.01151
6396.73054,-0.01552
6398.65901,-0.00962
6400.58748,-0.00036
6402.51595,0.04411
6404.44442,0.18841
6406.37289,0.34338
6408.30135,0.30715
6410.22982,0.12378
6412.15829,-0.01483
6414.08676,-0.05300
6416.01523,-0.00954
6417.94370,0.04974
6419.87217,0.04910
6421.80064,0.02460
6423.72910,0.04924
6425.65757,0.11946
6427.58604,0.16952
6429.51451,0.17449
6431.44298,0.13206
6433.37145,0.09207
6435.29992,0.10439
6437.22838,0.11369
6439.15685,0.07601
6441.08532,0.01178
6443.01379,-0.03285
6444.94226,-0.00845
6446.87073,0.00634
6448.79920,-0.00463
6450.72766,0.05473
6452.65613,0.11803
6454.58460,0.08716
6456.51307,0.01601
6458.44154,-0.02064
6460.37001,-0.04988
6462.29848,-0.11184
6464.22695,-0.16225
6466.15541,-0.14637
6468.08388,-0.05699
6470.01235,0.03842
6471.94082,0.01663
6473.86929,-0.11846
6475.79776,-0.18349
6477.72623,-0.08683
6479.65469,0.02969
6481.58316,0.07019
6483.51163,0.11188
6485.44010,0.14846
6487.36857,0.02439
6489.29704,-0.17205
6491.22551,-0.16724
6493.15398,0.00307
6495.08244,0.09697
6497.01091,0.10104
6498.93938,0.07378
6500.86785,0.00702
6502.79632,-0.03470
6504.72479,-0.01308
6506.65326,0.02362
6508.58172,0.03585
6510.51019,0.03960
6512.43866,0.13049
6514.36713,0.27380
6516.29560,0.31487
6518.22407,0.24003
6520.15254,0.16395
6522.08101,0.15139
6524.00947,0.14553
6525.93794,0.05225
6527.86641,-0.01912
6529.79488,0.02815
6531.72335,0.07383
6533.65182,0.04528
6535.58029,0.00832
6537.50875,0.04455
6539.43722,0.11401
6541.36569,0.09207
6543.29416,-0.00359
6545.22263,-0.03402
6547.15110,0.00073
6549.07957,-0.00145
6551.00804,-0.04242
6552.93650,-0.00495
6554.86497,0.15210
6556.79344,0.24210
6558.72191,0.16453
6560.65038,0.09830
6562.57885,0.11125
6564.50732,0.18437
6566.43578,0.33842
6568.36425,0.37305
6570.29272,0.23717
6572.22119,0.15809
6574.14966,0.15972
6576.07813,0.13162
6578.00660,0.07628
6579.93507,0.07638
6581.86353,0.09959
6583.79200,0.04968
6585.72047,-0.01212
6587.64894,-0.10183
6589.57741,-0.22991
6591.50588,-0.25751
6593.43435,-0.16757
6595.36281,-0.06397
6597.29128,0.04289
6599.21975,0.14110
6601.14822,0.17518
6603.07669,0.18998
6605.00516,0.16278
6606.93363,0.09250
6608.86210,0.14441
6610.79056,0.27343
6612.71903,0.25764
6614.64750,0.15835
6616.57597,0.11273
6618.50444,0.05364
6620.43291,0.00033
6622.36138,0.02133
6624.28984,0.04437
6626.21831,-0.04698
6628.14678,-0.21566
6630.07525,-0.23217
6632.00372,-0.08233
6633.93219,0.02330
6635.86066,0.11975
6637.78912,0.23493
6639.71759,0.22067
6641.64606,0.17744
6643.57453,0.16880
6645.50300,0.08589
6647.43147,-0.01807
6649.35994,-0.02189
6651.28841,0.07836
6653.21687,0.13976
6655.14534,0.10764
6657.07381,0.10952
6659.00228,0.13986
6660.93075,0.13156
6662.85922,0.11299
6664.78769,0.02023
6666.71615,-0.14590
6668.64462,-0.17200
6670.57309,-0.00196
6672.50156,0.12860
6674.43003,0.05034
6676.35850,-0.08291
6678.28697,-0.11207
6680.21544,-0.04841
6682.14390,0.08685
6684.07237,0.21088
6686.00084,0.20529
6687.92931,0.13170
6689.85778,0.08718
6691.78625,0.04774
6693.71472,0.03101
6695.64318,0.06418
6697.57165,0.09893
6699.50012,0.06074
6701.42859,-0.03274
6703.35706,0.00449
6705.28553,0.13969
6707.21400,0.14858
6709.14247,0.05812
6711.07093,0.05940
6712.99940,0.11799
6714.92787,0.08820
6716.85634,0.02963
6718.78481,0.02741
6720.71328,-0.03591
6722.64175,-0.14182
6724.57021,-0.08401
6726.49868,0.09793
6728.42715,0.21918
6730.35562,0.23268
6732.28409,0.20696
6734.21256,0.20767
6736.14103,0.21240
6738.06950,0.18537
6739.99796,0.07783
6741.92643,-0.11739
6743.85490,-0.15936
6745.78337,0.05075
6747.71184,0.23186
6749.64031,0.19510
6751.56878,0.14226
6753.49724,0.17608
6755.42571,0.19127
6757.35418,0.19718
6759.28265,0.25192
6761.21112,0.22792
6763.13959,0.02970
6765.06806,-0.09135
6766.99653,-0.01095
6768.92499,0.07175
6770.85346,0.06381
6772.78193,0.06977
6774.71040,0.08847
6776.63887,0.07916
6778.56734,0.06230
6780.49581,-0.02194
6782.42427,-0.07732
6784.35274,-0.06033
6786.28121,-0.11485
6788.20968,-0.15802
6790.13815,-0.11256
6792.06662,-0.05574
6793.99509,0.00541
6795.92355,0.05252
6797.85202,0.00397
6799.78049,-0.17530
6801.70896,-0.41941
6803.63743,-0.56871
6805.56590,-0.49697
6807.49437,-0.27293
6809.42284,-0.01938
6811.35130,0.17972
6813.27977,0.24646
6815.20824,0.25109
6817.13671,0.24561
6819.06518,0.24597
6820.99365,0.33795
6822.92212,0.42622
6824.85058,0.32752
6826.77905,0.22141
6828.70752,0.23263
6830.63599,0.20046
6832.56446,0.09713
6834.49293,0.03069
6836.42140,0.03106
6838.34987,0.07008
6840.27833,0.12609
6842.20680,0.17613
6844.13527,0.14257
6846.06374,0.09620
6847.99221,0.09813
6849.92068,0.03039
6851.84915,0.03665
6853.77761,0.16453
6855.70608,0.21957
6857.63455,0.25580
6859.56302,0.29354
6861.49149,0.21833
6863.41996,0.12524
6865.34843,0.07810
6867.27690,0.03938
6869.20536,0.01346
6871.13383,0.05025
6873.06230,0.13499
6874.99077,0.10963
6876.91924,-0.01084
6878.84771,-0.16608
6880.77618,-0.26991
6882.70464,-0.13049
6884.63311,0.12121
6886.56158,0.18719
6888.49005,0.03998
6890.41852,-0.07842
6892.34699,-0.03570
6894.27546,0.00218
6896.20393,-0.05711
6898.13239,-0.12946
6900.06086,-0.23321
6901.98933,-0.34000
6903.91780,-0.34059
6905.84627,-0.24424
6907.77474,-0.06581
6909.70321,0.13101
6911.63167,0.23310
6913.56014,0.30075
6915.48861,0.40746
6917.41708,0.46712
6919.34555,0.29893
6921.27402,-0.09053
6923.20249,-0.25580
6925.13096,-0.00938
6927.05942,0.28333
6928.98789,0.34719
6930.91636,0.28952
6932.84483,0.21880
6934.77330,0.12136
6936.70177,0.06602
6938.63024,0.15014
6940.55870,0.32496
6942.48717,0.36563
6944.41564,0.23954
6946.34411,0.01195
6948.27258,-0.20150
6950.20105,-0.21668
6952.12952,-0.11377
6954.05799,-0.10635
6955.98645,-0.13769
6957.91492,-0.02005
6959.84339,0.19782
6961.77186,0.29563
6963.70033,0.25040
6965.62880,0.22333
6967.55727,0.20091
6969.48573,0.16119
6971.41420,0.16583
6973.34267,0.16427
6975.27114,0.14941
6977.19961,0.17055
6979.12808,0.13343
6981.05655,0.01771
6982.98501,-0.04517
6984.91348,-0.06280
6986.84195,-0.11180
6988.77042,-0.10621
6990.69889,-0.01509
6992.62736,0.09655
6994.55583,0.15640
6996.48430,0.16326
6998.41276,0.27499
7000.34123,0.39107
7002.26970,0.26404
7004.19817,0.06068
7006.12664,-0.09318
7008.05511,-0.23404
7009.98358,-0.26409
7011.91204,-0.14951
7013.84051,-0.04478
7015.76898,-0.09119
7017.69745,-0.16726
7019.62592,-0.09698
7021.55439,0.00573
7023.48286,-0.17756
7025.41133,-0.51775
7027.33979,-0.58417
7029.26826,-0.39892
7031.19673,-0.27213
7033.12520,-0.19970
7035.05367,-0.05881
7036.98214,0.10080
7038.91061,0.21861
7040.83907,0.29118
7042.76754,0.18621
7044.69601,-0.09220
7046.62448,-0.21302
7048.55295,-0.00779
7050.48142,0.23208
7052.40989,0.21165
7054.33836,0.05216
7056.26682,-0.05513
7058.19529,-0.11209
7060.12376,0.01820
7062.05223,0.35822
7063.98070,0.61231
7065.90917,0.56101
7067.83764,0.35229
7069.76610,0.22176
7071.69457,0.25115
7073.62304,0.29113
7075.55151,0.24976
7077.47998,0.22153
7079.40845,0.40275
7081.33692,0.59348
7083.26539,0.34956
7085.19385,-0.04127
7087.12232,-0.25809
7089.05079,-0.17925
7090.97926,0.05929
7092.90773,0.13549
7094.83620,0.01568
7096.76467,-0.08170
7098.69313,-0.10539
7100.62160,-0.06922
7102.55007,0.03354
7104.47854,0.18934
7106.40701,0.35021
7108.33548,0.39930
7110.26395,0.34107
7112.19242,0.21549
7114.12088,0.03468
7116.04935,-0.05637
7117.97782,-0.00231
7119.90629,-0.04415
7121.83476,-0.11046
7123.76323,-0.02264
7125.69170,0.07015
7127.62016,0.04397
7129.54863,0.02851
7131.47710,0.10941
7133.40557,0.13241
7135.33404,0.03856
7137.26251,-0.00196
7139.19098,0.06197
7141.11944,0.11744
7143.04791,0.20550
7144.97638,0.47768
7146.90485,0.69914
7148.83332,0.53255
7150.76179,0.06883
7152.69026,-0.30793
7154.61873,-0.15396
7156.54719,0.24206
7158.47566,0.32823
7160.40413,0.12684
7162.33260,-0.03428
7164.26107,0.03094
7166.18954,0.20114
7168.11801,0.29320
7170.04647,0.31314
7171.97494,0.29447
7173.90341,0.25902
7175.83188,0.26005
7177.76035,0.22646
7179.68882,0.08189
7181.61729,-0.03458
7183.54576,0.01282
7185.47422,0.09259
7187.40269,0.11726
7189.33116,0.16000
7191.25963,0.17019
7193.18810,0.06133
7195.11657,0.00221
7197.04504,0.04633
7198.97350,0.08886
7200.90197,0.18017
7202.83044,0.38113
7204.75891,0.56341
7206.68738,0.39277
7208.61585,0.04772
7210.54432,-0.14807
7212.47279,-0.20647
7214.40125,-0.22630
7216.32972,-0.12778
7218.25819,0.19347
7220.18666,0.30408
7222.11513,0.11406
7224.04360,0.04559
7225.97207,0.15417
7227.90053,0.10920
7229.82900,-0.12433
7231.75747,-0.32915
7233.68594,-0.44510
7235.61441,-0.44692
7237.54288,-0.20489
7239.47135,0.04774
7241.39982,0.02809
7243.32828,-0.06026
7245.25675,0.01519
7247.18522,0.15547
7249.11369,0.21939
7251.04216,0.08273
7252.97063,-0.10797
7254.89910,-0.06729
7256.82756,0.11859
7258.75603,0.33631
7260.68450,0.49799
7262.61297,0.54670
7264.54144,0.58061
7266.46991,0.58866
7268.39838,0.41558
7270.32685,0.09554
7272.25531,-0.07286
7274.18378,-0.03285
7276.11225,-0.00393
7278.04072,0.02748
7279.96919,0.07074
7281.89766,0.09063
7283.82613,0.04379
7285.75459,-0.01709
7287.68306,0.16628
7289.61153,0.56241
7291.54000,0.78078
7293.46847,0.72988
7295.39694,0.56813
7297.32541,0.35880
7299.25387,0.16675
7301.18234,0.07029
7303.11081,0.08329
7305.03928,0.09219
7306.96775,-0.08227
7308.89622,-0.44635
7310.82469,-0.56260
7312.75316,-0.23389
7314.68162,0.13359
7316.61009,0.12346
7318.53856,0.02020
7320.46703,0.17374
7322.39550,0.31292
7324.32397,0.18483
7326.25244,-0.04774
7328.18090,-0.15074
7330.10937,-0.13395
7332.03784,-0.10248
7333.96631,-0.10757
7335.89478,-0.10183
7337.82325,0.00356
7339.75172,0.16786
7341.68019,0.25296
7343.60865,0.26794
7345.53712,0.17488
7347.46559,0.02058
7349.39406,-0.00864
7351.32253,0.08575
7353.25100,0.03566
7355.17947,-0.28055
7357.10793,-0.44331
7359.03640,-0.01822
7360.96487,0.42375
7362.89334,0.42640
7364.82181,0.23614
7366.75028,0.12292
7368.67875,0.11934
7370.60722,0.20508
7372.53568,0.41537
7374.46415,0.49383
7376.39262,0.09356
7378.32109,-0.22074
7380.24956,-0.20066
7382.17803,-0.01830
7384.10650,0.13212
7386.03496,0.27619
7387.96343,0.39909
7389.89190,0.23756
7391.82037,-0.12699
7393.74884,-0.45301
7395.67731,-0.55510
7397.60578,-0.36905
7399.53425,-0.19906
7401.46271,-0.18443
7403.39118,-0.17510
7405.31965,-0.08707
7407.24812,0.11778
7409.17659,0.31564
7411.10506,0.27971
7413.03353,0.17978
7414.96199,0.33637
7416.89046,0.64788
7418.81893,0.54304
7420.74740,-0.08133
7422.67587,-0.34808
7424.60434,-0.16934
7426.53281,-0.05366
7428.46128,-0.04938
7430.38974,0.20158
7432.31821,0.53107
7434.24668,0.66247
7436.17515,0.67944
7438.10362,0.60607
7440.03209,0.37673
7441.96056,0.09014
7443.88902,0.01057
7445.81749,0.16087
7447.74596,0.13279
7449.67443,-0.30248
7451.60290,-0.52106
7453.53137,-0.13691
7455.45984,0.15330
7457.38831,0.19329
7459.31677,0.32442
7461.24524,0.49606
7463.17371,0.34944
7465.10218,0.05859
7467.03065,-0.00254
7468.95912,0.21007
7470.88759,0.25882
7472.81605,0.22419
7474.74452,0.30884
7476.67299,0.27121
7478.60146,0.03031
7480.52993,-0.22429
7482.45840,-0.35342
7484.38687,-0.33468
7486.31533,-0.16779
7488.24380,-0.01987
7490.17227,0.01661
7492.10074,0.10115
7494.02921,0.05332
7495.95768,-0.18131
7497.88615,-0.35645
