399.19301,1.58757
401.12148,0.15606
403.04995,0.14136
404.97842,0.07885
406.90689,0.03572
408.83536,0.20186
410.76382,0.43994
412.69229,0.41100
414.62076,0.22994
416.54923,0.15998
418.47770,0.24102
420.40617,0.21396
422.33464,0.03677
424.26311,-0.14532
426.19157,-0.20957
428.12004,-0.10255
430.04851,0.11614
431.97698,0.21675
433.90545,0.04280
435.83392,-0.12889
437.76239,-0.17235
439.69085,-0.19981
441.61932,-0.21948
443.54779,-0.15946
445.47626,-0.05954
447.40473,0.02900
449.33320,0.06384
451.26167,0.01642
453.19013,-0.06457
455.11860,-0.08517
457.04707,-0.07199
458.97554,-0.09602
460.90401,-0.07336
462.83248,0.02591
464.76095,0.10042
466.68942,0.12229
468.61788,0.12188
470.54635,0.11141
472.47482,0.10306
474.40329,0.12129
476.33176,0.14252
478.26023,0.10395
480.18870,0.04488
482.11716,0.01816
484.04563,-0.00650
485.97410,-0.04793
487.90257,-0.03307
489.83104,0.04362
491.75951,0.08641
493.68798,0.06963
495.61645,0.03426
497.54491,0.00322
499.47338,0.00215
501.40185,0.02050
503.33032,0.02595
505.25879,0.01174
507.18726,-0.01431
509.11573,-0.02718
511.04419,-0.03109
512.97266,-0.04219
514.90113,-0.05701
516.82960,-0.03688
518.75807,0.04975
520.68654,0.11448
522.61501,0.11431
524.54348,0.12117
526.47194,0.14697
528.40041,0.13434
530.32888,0.10934
532.25735,0.09064
534.18582,0.03753
536.11429,-0.03736
538.04276,-0.04507
539.97122,0.01944
541.89969,0.05519
543.82816,0.03091
545.75663,0.01142
547.68510,0.00439
549.61357,-0.01410
551.54204,0.05372
553.47051,0.17485
555.39897,0.12642
557.32744,-0.00145
559.25591,0.01432
561.18438,0.07087
563.11285,0.09767
565.04132,0.14996
566.96979,0.18679
568.89825,0.16119
570.82672,0.10583
572.75519,0.07837
574.68366,0.10667
576.61213,0.13980
578.54060,0.14244
580.46907,0.12946
582.39754,0.10435
584.32600,0.07957
586.25447,0.06594
588.18294,0.06265
590.11141,0.05823
592.03988,0.05523
593.96835,0.08077
595.89682,0.11058
597.82528,0.11147
599.75375,0.08477
601.68222,0.03869
603.61069,0.01792
605.53916,0.04943
607.46763,0.08731
609.39610,0.08619
611.32456,0.05830
613.25303,0.04526
615.18150,0.05957
617.10997,0.07918
619.03844,0.08866
620.96691,0.08477
622.89538,0.06629
624.82385,0.05593
626.75231,0.06886
628.68078,0.08055
630.60925,0.07315
632.53772,0.06652
634.46619,0.08199
636.39466,0.10720
638.32313,0.12044
640.25159,0.10740
642.18006,0.08265
644.10853,0.08203
646.03700,0.10556
647.96547,0.11986
649.89394,0.10848
651.82241,0.09283
653.75088,0.09484
655.67934,0.11782
657.60781,0.13226
659.53628,0.10696
661.46475,0.07194
663.39322,0.06114
665.32169,0.06770
667.25016,0.08501
669.17862,0.09814
671.10709,0.09790
673.03556,0.10407
674.96403,0.10632
676.89250,0.09810
678.82097,0.09246
680.74944,0.09814
682.67791,0.10704
684.60637,0.09092
686.53484,0.06305
688.46331,0.07001
690.39178,0.09344
692.32025,0.09787
694.24872,0.10516
696.17719,0.12971
698.10565,0.14035
700.03412,0.12130
701.96259,0.08850
703.89106,0.06521
705.81953,0.06249
707.74800,0.06633
709.67647,0.06226
711.60494,0.05300
713.53340,0.05566
715.46187,0.07616
717.39034,0.09257
719.31881,0.09128
721.24728,0.08765
723.17575,0.09459
725.10422,0.10146
727.03268,0.10441
728.96115,0.10330
730.88962,0.08889
732.81809,0.07360
734.74656,0.07318
736.67503,0.08339
738.60350,0.10445
740.53197,0.12458
742.46043,0.12890
744.38890,0.13053
746.31737,0.12542
748.24584,0.09994
750.17431,0.07602
752.10278,0.07472
754.03125,0.09388
755.95971,0.11393
757.88818,0.11380
759.81665,0.10042
761.74512,0.09350
763.67359,0.09501
765.60206,0.09033
767.53053,0.07894
769.45900,0.07114
771.38746,0.06934
773.31593,0.08319
775.24440,0.10583
777.17287,0.10730
779.10134,0.09744
781.02981,0.09971
782.95828,0.10156
784.88674,0.09859
786.81521,0.10394
788.74368,0.11941
790.67215,0.13024
792.60062,0.12337
794.52909,0.10702
796.45756,0.09512
798.38602,0.09152
800.31449,0.09736
802.24296,0.10778
804.17143,0.11476
806.09990,0.11669
808.02837,0.11435
809.95684,0.10852
811.88531,0.10137
813.81377,0.09996
815.74224,0.09971
817.67071,0.08775
819.59918,0.08450
821.52765,0.10276
823.45612,0.11803
825.38459,0.12384
827.31305,0.12414
829.24152,0.11531
831.16999,0.10709
833.09846,0.10557
835.02693,0.10532
836.95540,0.10422
838.88387,0.10812
840.81234,0.11819
842.74080,0.12010
844.66927,0.10978
846.59774,0.10128
848.52621,0.10431
850.45468,0.11924
852.38315,0.13314
854.31162,0.13212
856.24008,0.12470
858.16855,0.12386
860.09702,0.12178
862.02549,0.11171
863.95396,0.09865
865.88243,0.09355
867.81090,0.10464
869.73937,0.12262
871.66783,0.13855
873.59630,0.14152
875.52477,0.12807
877.45324,0.12018
879.38171,0.12431
881.31018,0.12287
883.23865,0.10657
885.16711,0.09255
887.09558,0.10049
889.02405,0.11809
890.95252,0.12498
892.88099,0.12182
894.80946,0.12260
896.73793,0.13041
898.66640,0.12745
900.59486,0.11467
902.52333,0.11749
904.45180,0.12386
906.38027,0.11618
908.30874,0.11400
910.23721,0.11646
912.16568,0.11419
914.09414,0.11374
916.02261,0.11030
917.95108,0.10733
919.87955,0.11588
921.80802,0.12765
923.73649,0.13479
925.66496,0.13713
927.59343,0.12979
929.52189,0.11674
931.45036,0.10659
933.37883,0.10136
935.30730,0.10096
937.23577,0.10267
939.16424,0.10588
941.09271,0.10979
943.02117,0.11210
944.94964,0.11622
946.87811,0.12123
948.80658,0.12024
950.73505,0.11783
952.66352,0.12067
954.59199,0.12964
956.52045,0.13897
958.44892,0.13311
960.37739,0.11715
962.30586,0.11006
964.23433,0.11148
966.16280,0.11327
968.09127,0.11232
970.01974,0.10962
971.94820,0.10722
973.87667,0.10604
975.80514,0.10513
977.73361,0.10310
979.66208,0.10296
981.59055,0.11333
983.51902,0.13149
985.44748,0.13879
987.37595,0.13166
989.30442,0.12075
991.23289,0.11413
993.16136,0.11850
995.08983,0.12868
997.01830,0.13137
998.94677,0.12411
1000.87523,0.11514
1002.80370,0.11177
1004.73217,0.11434
1006.66064,0.12022
1008.58911,0.12670
1010.51758,0.12486
1012.44605,0.11424
1014.37451,0.11260
1016.30298,0.12065
1018.23145,0.11914
1020.15992,0.11121
1022.08839,0.11555
1024.01686,0.13124
1025.94533,0.14019
1027.87380,0.13317
1029.80226,0.12765
1031.73073,0.13542
1033.65920,0.13856
1035.58767,0.13067
1037.51614,0.12347
1039.44461,0.12289
1041.37308,0.12851
1043.30154,0.13320
1045.23001,0.12690
1047.15848,0.11411
1049.08695,0.11141
1051.01542,0.12388
1052.94389,0.13799
1054.87236,0.13714
1056.80083,0.12808
1058.72929,0.12696
1060.65776,0.12877
1062.58623,0.12399
1064.51470,0.11247
1066.44317,0.10305
1068.37164,0.10679
1070.30011,0.11451
1072.22857,0.11946
1074.15704,0.13214
1076.08551,0.14258
1078.01398,0.13997
1079.94245,0.13724
1081.87092,0.13646
1083.79939,0.12873
1085.72786,0.11779
1087.65632,0.11482
1089.58479,0.12230
1091.51326,0.13153
1093.44173,0.13480
1095.37020,0.13075
1097.29867,0.12306
1099.22714,0.12460
1101.15560,0.13631
1103.08407,0.13695
1105.01254,0.12861
1106.94101,0.13617
1108.86948,0.15450
1110.79795,0.15836
1112.72642,0.14530
1114.65489,0.13181
1116.58335,0.12573
1118.51182,0.12248
1120.44029,0.12181
1122.36876,0.12876
1124.29723,0.13855
1126.22570,0.13971
1128.15417,0.13290
1130.08263,0.12675
1132.01110,0.12359
1133.93957,0.12749
1135.86804,0.13900
1137.79651,0.14517
1139.72498,0.13799
1141.65345,0.13055
1143.58191,0.13418
1145.51038,0.13791
1147.43885,0.13976
1149.36732,0.14913
1151.29579,0.15527
1153.22426,0.14813
1155.15273,0.13746
1157.08120,0.13116
1159.00966,0.12995
1160.93813,0.13297
1162.86660,0.13561
1164.79507,0.13933
1166.72354,0.14370
1168.65201,0.14301
1170.58048,0.14124
1172.50894,0.14054
1174.43741,0.13832
1176.36588,0.13602
1178.29435,0.13478
1180.22282,0.13455
1182.15129,0.13345
1184.07976,0.12915
1186.00823,0.12689
1187.93669,0.13002
1189.86516,0.13180
1191.79363,0.13140
1193.72210,0.13249
1195.65057,0.13664
1197.57904,0.14303
1199.50751,0.14366
1201.43597,0.13983
1203.36444,0.14227
1205.29291,0.15052
1207.22138,0.15615
1209.14985,0.15278
1211.07832,0.14452
1213.00679,0.14432
1214.93526,0.15055
1216.86372,0.15003
1218.79219,0.14567
1220.72066,0.14616
1222.64913,0.14900
1224.57760,0.15140
1226.50607,0.15299
1228.43454,0.15253
1230.36300,0.14944
1232.29147,0.14547
1234.21994,0.14554
1236.14841,0.14750
1238.07688,0.14643
1240.00535,0.14477
1241.93382,0.14440
1243.86229,0.14672
1245.79075,0.15211
1247.71922,0.15721
1249.64769,0.16157
1251.57616,0.16414
1253.50463,0.15996
1255.43310,0.15136
1257.36157,0.14629
1259.29003,0.14561
1261.21850,0.14809
1263.14697,0.15300
1265.07544,0.15339
1267.00391,0.14869
1268.93238,0.14992
1270.86085,0.15409
1272.78932,0.15071
1274.71778,0.14850
1276.64625,0.15257
1278.57472,0.15540
1280.50319,0.15619
1282.43166,0.15525
1284.36013,0.15330
1286.28860,0.15263
1288.21706,0.15254
1290.14553,0.15182
1292.07400,0.15035
1294.00247,0.15116
1295.93094,0.15392
1297.85941,0.15590
1299.78788,0.15644
1301.71634,0.14924
1303.64481,0.13395
1305.57328,0.12604
1307.50175,0.13451
1309.43022,0.14999
1311.35869,0.16086
1313.28716,0.16232
1315.21563,0.15606
1317.14409,0.14963
1319.07256,0.14664
1321.00103,0.14798
1322.92950,0.15669
1324.85797,0.16649
1326.78644,0.16829
1328.71491,0.16402
1330.64337,0.15844
1332.57184,0.15653
1334.50031,0.15850
1336.42878,0.15859
1338.35725,0.15818
1340.28572,0.15535
1342.21419,0.13241
1344.14266,0.08627
1346.07112,0.05948
1347.99959,0.09064
1349.92806,0.13933
1351.85653,0.15817
1353.78500,0.15948
1355.71347,0.15943
1357.64194,0.15816
1359.57040,0.15756
1361.49887,0.15879
1363.42734,0.15816
1365.35581,0.15733
1367.28428,0.16053
1369.21275,0.16511
1371.14122,0.17012
1373.06969,0.17459
1374.99815,0.17373
1376.92662,0.17050
1378.85509,0.16915
1380.78356,0.16725
1382.71203,0.16486
1384.64050,0.16671
1386.56897,0.17295
1388.49743,0.17315
1390.42590,0.16711
1392.35437,0.16792
1394.28284,0.17733
1396.21131,0.18277
1398.13978,0.17606
1400.06825,0.16535
1401.99672,0.16441
1403.92518,0.16976
1405.85365,0.16950
1407.78212,0.16824
1409.71059,0.17160
1411.63906,0.17362
1413.56753,0.17258
1415.49600,0.17204
1417.42446,0.17195
1419.35293,0.16511
1421.28140,0.15937
1423.20987,0.16442
1425.13834,0.17040
1427.06681,0.17366
1428.99528,0.17993
1430.92375,0.18385
1432.85221,0.17987
1434.78068,0.17581
1436.70915,0.17373
1438.63762,0.16852
1440.56609,0.16442
1442.49456,0.16363
1444.42303,0.16571
1446.35149,0.17346
1448.27996,0.18456
1450.20843,0.18988
1452.13690,0.19270
1454.06537,0.20235
1455.99384,0.21601
1457.92231,0.20582
1459.85077,0.18308
1461.77924,0.17865
1463.70771,0.18514
1465.63618,0.18528
1467.56465,0.17778
1469.49312,0.18077
1471.42159,0.19842
1473.35006,0.21093
1475.27852,0.20265
1477.20699,0.19075
1479.13546,0.18351
1481.06393,0.18010
1482.99240,0.17956
1484.92087,0.18481
1486.84934,0.20044
1488.77780,0.21881
1490.70627,0.21159
1492.63474,0.19103
1494.56321,0.18515
1496.49168,0.19602
1498.42015,0.20495
1500.34862,0.19980
1502.27709,0.20066
1504.20555,0.22497
1506.13402,0.26632
1508.06249,0.25659
1509.99096,0.22174
1511.91943,0.20453
1513.84790,0.20117
1515.77637,0.21026
1517.70483,0.21801
1519.63330,0.22186
1521.56177,0.22405
1523.49024,0.21393
1525.41871,0.20430
1527.34718,0.19850
1529.27565,0.19496
1531.20412,0.20080
1533.13258,0.21225
1535.06105,0.21263
1536.98952,0.21603
1538.91799,0.24116
1540.84646,0.26156
1542.77493,0.24518
1544.70340,0.22046
1546.63186,0.19805
1548.56033,0.18813
1550.48880,0.18770
1552.41727,0.18955
1554.34574,0.19725
1556.27421,0.21970
1558.20268,0.24906
1560.13115,0.22378
1562.05961,0.19885
1563.98808,0.20054
1565.91655,0.20808
1567.84502,0.21390
1569.77349,0.21135
1571.70196,0.20101
1573.63043,0.20092
1575.55889,0.20718
1577.48736,0.20063
1579.41583,0.18946
1581.34430,0.18429
1583.27277,0.18315
1585.20124,0.18442
1587.12971,0.18669
1589.05818,0.18798
1590.98664,0.18750
1592.91511,0.18608
1594.84358,0.18296
1596.77205,0.17712
1598.70052,0.17373
1600.62899,0.17684
1602.55746,0.18076
1604.48592,0.18108
1606.41439,0.18371
1608.34286,0.19052
1610.27133,0.19389
1612.19980,0.19339
1614.12827,0.19729
1616.05674,0.20497
1617.98521,0.19995
1619.91367,0.19226
1621.84214,0.20049
1623.77061,0.21548
1625.69908,0.21482
1627.62755,0.20103
1629.55602,0.18744
1631.48449,0.18547
1633.41295,0.19944
1635.34142,0.22492
1637.26989,0.22509
1639.19836,0.20461
1641.12683,0.19207
1643.05530,0.19387
1644.98377,0.21402
1646.91223,0.23891
1648.84070,0.23599
1650.76917,0.23276
1652.69764,0.24389
1654.62611,0.22488
1656.55458,0.19761
1658.48305,0.19285
1660.41152,0.20292
1662.33998,0.20943
1664.26845,0.20503
1666.19692,0.20158
1668.12539,0.20698
1670.05386,0.21807
1671.98233,0.21810
1673.91080,0.21194
1675.83926,0.20502
1677.76773,0.20137
1679.69620,0.20692
1681.62467,0.22166
1683.55314,0.23746
1685.48161,0.22570
1687.41008,0.20506
1689.33855,0.19536
1691.26701,0.19289
1693.19548,0.19721
1695.12395,0.20936
1697.05242,0.22252
1698.98089,0.22574
1700.90936,0.22205
1702.83783,0.22449
1704.76629,0.22848
1706.69476,0.21835
1708.62323,0.20322
1710.55170,0.19900
1712.48017,0.20471
1714.40864,0.22119
1716.33711,0.24382
1718.26558,0.23666
1720.19404,0.21026
1722.12251,0.19838
1724.05098,0.19534
1725.97945,0.19098
1727.90792,0.18825
1729.83639,0.19473
1731.76486,0.21148
1733.69332,0.22290
1735.62179,0.21122
1737.55026,0.20111
1739.47873,0.20054
1741.40720,0.20291
1743.33567,0.20581
1745.26414,0.20924
1747.19261,0.21348
1749.12107,0.21243
1751.04954,0.20067
1752.97801,0.19096
1754.90648,0.18881
1756.83495,0.18915
1758.76342,0.19181
1760.69189,0.19816
1762.62035,0.19891
1764.54882,0.19346
1766.47729,0.19303
1768.40576,0.19822
1770.33423,0.20531
1772.26270,0.20864
1774.19117,0.20234
1776.11964,0.19566
1778.04810,0.19623
1779.97657,0.19989
1781.90504,0.19905
1783.83351,0.19563
1785.76198,0.19070
1787.69045,0.18647
1789.61892,0.19019
1791.54738,0.19954
1793.47585,0.20157
1795.40432,0.19761
1797.33279,0.19568
1799.26126,0.19511
1801.18973,0.19129
1803.11820,0.18435
1805.04666,0.18155
1806.97513,0.18536
1808.90360,0.19188
1810.83207,0.19415
1812.76054,0.19033
1814.68901,0.18806
1816.61748,0.20409
1818.54595,0.25217
1820.47441,0.29425
1822.40288,0.27848
1824.33135,0.22432
1826.25982,0.19468
1828.18829,0.20031
1830.11676,0.20883
1832.04523,0.20236
1833.97369,0.19015
1835.90216,0.18229
1837.83063,0.18107
1839.75910,0.18811
1841.68757,0.20185
1843.61604,0.21127
1845.54451,0.20624
1847.47298,0.19688
1849.40144,0.19156
1851.32991,0.18873
1853.25838,0.18698
1855.18685,0.18660
1857.11532,0.18658
1859.04379,0.18436
1860.97226,0.18104
1862.90072,0.18288
1864.82919,0.19189
1866.75766,0.20305
1868.68613,0.20609
1870.61460,0.19587
1872.54307,0.18550
1874.47154,0.18243
1876.40001,0.18305
1878.32847,0.18291
1880.25694,0.18193
1882.18541,0.18143
1884.11388,0.18098
1886.04235,0.18181
1887.97082,0.18521
1889.89929,0.18536
1891.82775,0.18203
1893.75622,0.18616
1895.68469,0.19595
1897.61316,0.19799
1899.54163,0.19037
1901.47010,0.18297
1903.39857,0.18327
1905.32704,0.18850
1907.25550,0.19287
1909.18397,0.19377
1911.11244,0.19204
1913.04091,0.18959
1914.96938,0.18704
1916.89785,0.18555
1918.82632,0.18445
1920.75478,0.18430
1922.68325,0.18579
1924.61172,0.18538
1926.54019,0.18344
1928.46866,0.18320
1930.39713,0.18554
1932.32560,0.18855
1934.25407,0.18914
1936.18253,0.18730
1938.11100,0.18587
1940.03947,0.18717
1941.96794,0.18970
1943.89641,0.18934
1945.82488,0.18493
1947.75335,0.17985
1949.68181,0.17923
1951.61028,0.18254
1953.53875,0.18499
1955.46722,0.18705
1957.39569,0.18980
1959.32416,0.19105
1961.25263,0.18880
1963.18110,0.18324
1965.10956,0.18019
1967.03803,0.18279
1968.96650,0.18590
1970.89497,0.18678
1972.82344,0.18703
1974.75191,0.18692
1976.68038,0.18508
1978.60884,0.18161
1980.53731,0.17960
1982.46578,0.18085
1984.39425,0.18383
1986.32272,0.18660
1988.25119,0.18871
1990.17966,0.18941
1992.10812,0.18799
1994.03659,0.18713
1995.96506,0.18873
1997.89353,0.19182
1999.82200,0.19447
2001.75047,0.19395
2003.67894,0.19118
2005.60741,0.18957
2007.53587,0.18929
2009.46434,0.18816
2011.39281,0.18689
2013.32128,0.18794
2015.24975,0.19014
2017.17822,0.19209
2019.10669,0.19379
2021.03515,0.19384
2022.96362,0.19185
2024.89209,0.18904
2026.82056,0.18678
2028.74903,0.18651
2030.67750,0.18882
2032.60597,0.19098
2034.53444,0.19038
2036.46290,0.18861
2038.39137,0.18852
2040.31984,0.19041
2042.24831,0.19045
2044.17678,0.18801
2046.10525,0.18749
2048.03372,0.18909
2049.96218,0.18979
2051.89065,0.18799
2053.81912,0.18463
2055.74759,0.18350
2057.67606,0.18676
2059.60453,0.19116
2061.53300,0.19340
2063.46147,0.19362
2065.38993,0.19228
2067.31840,0.19012
2069.24687,0.18829
2071.17534,0.18850
2073.10381,0.19092
2075.03228,0.19339
2076.96075,0.19511
2078.88921,0.19589
2080.81768,0.19546
2082.74615,0.19351
2084.67462,0.19083
2086.60309,0.18872
2088.53156,0.18730
2090.46003,0.18738
2092.38850,0.18803
2094.31696,0.18762
2096.24543,0.18812
2098.17390,0.19061
2100.10237,0.19245
2102.03084,0.19125
2103.95931,0.18859
2105.88778,0.18925
2107.81624,0.19443
2109.74471,0.19903
2111.67318,0.19891
2113.60165,0.19446
2115.53012,0.18849
2117.45859,0.18546
2119.38706,0.18700
2121.31553,0.18991
2123.24399,0.19137
2125.17246,0.19079
2127.10093,0.18922
2129.02940,0.18879
2130.95787,0.19031
2132.88634,0.19080
2134.81481,0.18933
2136.74327,0.18997
2138.67174,0.19215
2140.60021,0.19402
2142.52868,0.19562
2144.45715,0.19458
2146.38562,0.19262
2148.31409,0.19338
2150.24255,0.19552
2152.17102,0.19510
2154.09949,0.19253
2156.02796,0.19196
2157.95643,0.19204
2159.88490,0.18919
2161.81337,0.18400
2163.74184,0.18041
2165.67030,0.18171
2167.59877,0.18589
2169.52724,0.19203
2171.45571,0.19880
2173.38418,0.19975
2175.31265,0.19497
2177.24112,0.18972
2179.16958,0.18653
2181.09805,0.18689
2183.02652,0.18897
2184.95499,0.19066
2186.88346,0.19317
2188.81193,0.19539
2190.74040,0.19421
2192.66887,0.19058
2194.59733,0.18812
2196.52580,0.18763
2198.45427,0.18808
2200.38274,0.18978
2202.31121,0.19344
2204.23968,0.19677
2206.16815,0.19669
2208.09661,0.19463
2210.02508,0.19227
2211.95355,0.18905
2213.88202,0.18703
2215.81049,0.18926
2217.73896,0.19325
2219.66743,0.19469
2221.59590,0.19293
2223.52436,0.18823
2225.45283,0.18571
2227.38130,0.18990
2229.30977,0.19481
2231.23824,0.19442
2233.16671,0.18919
2235.09518,0.18494
2237.02364,0.18630
2238.95211,0.18987
2240.88058,0.19204
2242.80905,0.19270
2244.73752,0.19214
2246.66599,0.19070
2248.59446,0.18936
2250.52293,0.19004
2252.45139,0.19095
2254.37986,0.18847
2256.30833,0.18684
2258.23680,0.18994
2260.16527,0.19316
2262.09374,0.19409
2264.02221,0.19527
2265.95067,0.19699
2267.87914,0.19594
2269.80761,0.19248
2271.73608,0.19095
2273.66455,0.19291
2275.59302,0.19612
2277.52149,0.19646
2279.44996,0.19421
2281.37842,0.19482
2283.30689,0.19893
2285.23536,0.20076
2287.16383,0.19804
2289.09230,0.19457
2291.02077,0.19790
2292.94924,0.19721
2294.87770,0.17911
2296.80617,0.17908
2298.73464,0.20426
2300.66311,0.20837
2302.59158,0.19849
2304.52005,0.19973
2306.44852,0.20332
2308.37699,0.20437
2310.30545,0.20692
2312.23392,0.21090
2314.16239,0.20994
2316.09086,0.20860
2318.01933,0.21343
2319.94780,0.21960
2321.87627,0.22866
2323.80473,0.24008
2325.73320,0.24501
2327.66167,0.24421
2329.59014,0.24252
2331.51861,0.23748
2333.44708,0.23368
2335.37555,0.23493
2337.30401,0.22999
2339.23248,0.22128
2341.16095,0.22655
2343.08942,0.24115
2345.01789,0.23977
2346.94636,0.22463
2348.87483,0.21701
2350.80330,0.22562
2352.73176,0.25177
2354.66023,0.27026
2356.58870,0.25023
2358.51717,0.22414
2360.44564,0.21307
2362.37411,0.18974
2364.30258,0.17581
2366.23104,0.19955
2368.15951,0.23099
2370.08798,0.24013
2372.01645,0.23305
2373.94492,0.22145
2375.87339,0.21089
2377.80186,0.20536
2379.73033,0.20223
2381.65879,0.19760
2383.58726,0.19554
2385.51573,0.19697
2387.44420,0.19579
2389.37267,0.19254
2391.30114,0.19115
2393.22961,0.19072
2395.15807,0.19147
2397.08654,0.19399
2399.01501,0.19475
2400.94348,0.19284
2402.87195,0.19144
2404.80042,0.19104
2406.72889,0.19009
2408.65736,0.18842
2410.58582,0.18837
2412.51429,0.19038
2414.44276,0.19150
2416.37123,0.19157
2418.29970,0.19168
2420.22817,0.19241
2422.15664,0.19366
2424.08510,0.19353
2426.01357,0.19345
2427.94204,0.19502
2429.87051,0.19562
2431.79898,0.19436
2433.72745,0.19394
2435.65592,0.19619
2437.58439,0.19777
2439.51285,0.19545
2441.44132,0.19432
2443.36979,0.19695
2445.29826,0.19779
2447.22673,0.19543
2449.15520,0.19269
2451.08367,0.19012
2453.01213,0.18761
2454.94060,0.18631
2456.86907,0.18771
2458.79754,0.18999
2460.72601,0.19013
2462.65448,0.19023
2464.58295,0.19150
2466.51142,0.19109
2468.43988,0.19002
2470.36835,0.19215
2472.29682,0.19696
2474.22529,0.20003
2476.15376,0.19813
2478.08223,0.19355
2480.01070,0.19250
2481.93916,0.19537
2483.86763,0.19825
2485.79610,0.19974
2487.72457,0.19881
2489.65304,0.19695
2491.58151,0.19734
2493.50998,0.19877
2495.43844,0.19794
2497.36691,0.19420
2499.29538,0.19062
2501.22385,0.19045
2503.15232,0.19201
2505.08079,0.19275
2507.00926,0.19424
2508.93773,0.19673
2510.86619,0.19712
2512.79466,0.19583
2514.72313,0.19697
2516.65160,0.19934
2518.58007,0.20002
2520.50854,0.20015
2522.43701,0.20059
2524.36547,0.20195
2526.29394,0.20168
2528.22241,0.19841
2530.15088,0.19695
2532.07935,0.19690
2534.00782,0.19416
2535.93629,0.19180
2537.86476,0.19302
2539.79322,0.19357
2541.72169,0.19216
2543.65016,0.19338
2545.57863,0.19747
2547.50710,0.20142
2549.43557,0.20465
2551.36404,0.20611
2553.29250,0.20249
2555.22097,0.19614
2557.14944,0.19341
2559.07791,0.19305
2561.00638,0.19260
2562.93485,0.19469
2564.86332,0.19835
2566.79179,0.20009
2568.72025,0.20086
2570.64872,0.20115
2572.57719,0.19858
2574.50566,0.19471
2576.43413,0.19333
2578.36260,0.19401
2580.29107,0.19508
2582.21953,0.19463
2584.14800,0.19231
2586.07647,0.19238
2588.00494,0.19475
2589.93341,0.19640
2591.86188,0.19836
2593.79035,0.20009
2595.71882,0.19908
2597.64728,0.19656
2599.57575,0.19516
2601.50422,0.19411
2603.43269,0.19429
2605.36116,0.19636
2607.28963,0.20060
2609.21810,0.20824
2611.14656,0.21146
2613.07503,0.20899
2615.00350,0.20823
2616.93197,0.20605
2618.86044,0.20322
2620.78891,0.20449
2622.71738,0.20517
2624.64585,0.20329
2626.57431,0.20089
2628.50278,0.19604
2630.43125,0.19229
2632.35972,0.19575
2634.28819,0.20156
2636.21666,0.20495
2638.14513,0.20795
2640.07359,0.20928
2642.00206,0.20719
2643.93053,0.20426
2645.85900,0.20296
2647.78747,0.20398
2649.71594,0.20638
2651.64441,0.20886
2653.57288,0.21074
2655.50134,0.21044
2657.42981,0.20715
2659.35828,0.20125
2661.28675,0.19419
2663.21522,0.19004
2665.14369,0.19122
2667.07216,0.19695
2669.00062,0.20334
2670.92909,0.20364
2672.85756,0.19942
2674.78603,0.19873
2676.71450,0.20254
2678.64297,0.20662
2680.57144,0.20680
2682.49990,0.20491
2684.42837,0.20539
2686.35684,0.20538
2688.28531,0.20383
2690.21378,0.20333
2692.14225,0.20324
2694.07072,0.20279
2695.99919,0.20018
2697.92765,0.19711
2699.85612,0.20046
2701.78459,0.20586
2703.71306,0.20465
2705.64153,0.20153
2707.57000,0.20142
2709.49847,0.20186
2711.42693,0.20124
2713.35540,0.20335
2715.28387,0.21078
2717.21234,0.21661
2719.14081,0.21505
2721.06928,0.20893
2722.99775,0.20316
2724.92622,0.20098
2726.85468,0.20422
2728.78315,0.20972
2730.71162,0.21174
2732.64009,0.21260
2734.56856,0.21435
2736.49703,0.21247
2738.42550,0.20740
2740.35396,0.20629
2742.28243,0.21154
2744.21090,0.21455
2746.13937,0.21097
2748.06784,0.20907
2749.99631,0.21253
2751.92478,0.21519
2753.85325,0.21298
2755.78171,0.20862
2757.71018,0.20540
2759.63865,0.20355
2761.56712,0.20400
2763.49559,0.20611
2765.42406,0.20480
2767.35253,0.19850
2769.28099,0.19112
2771.20946,0.18618
2773.13793,0.18839
2775.06640,0.20012
2776.99487,0.21217
2778.92334,0.21598
2780.85181,0.21386
2782.78028,0.21023
2784.70874,0.20852
2786.63721,0.20962
2788.56568,0.21363
2790.49415,0.21958
2792.42262,0.22183
2794.35109,0.21997
2796.27956,0.21883
2798.20802,0.21868
2800.13649,0.21741
2802.06496,0.21501
2803.99343,0.21189
2805.92190,0.20766
2807.85037,0.20399
2809.77884,0.20356
2811.70731,0.20548
2813.63577,0.20828
2815.56424,0.21256
2817.49271,0.21652
2819.42118,0.21709
2821.34965,0.21438
2823.27812,0.21241
2825.20659,0.21300
2827.13505,0.21321
2829.06352,0.21338
2830.99199,0.21507
2832.92046,0.21841
2834.84893,0.22345
2836.77740,0.22526
2838.70587,0.22055
2840.63433,0.21372
2842.56280,0.20979
2844.49127,0.21113
2846.41974,0.21477
2848.34821,0.21379
2850.27668,0.20979
2852.20515,0.20815
2854.13362,0.20829
2856.06208,0.21123
2857.99055,0.21557
2859.91902,0.21574
2861.84749,0.21273
2863.77596,0.21035
2865.70443,0.20957
2867.63290,0.21020
2869.56136,0.21074
2871.48983,0.21047
2873.41830,0.21207
2875.34677,0.21658
2877.27524,0.21950
2879.20371,0.21838
2881.13218,0.21479
2883.06065,0.21139
2884.98911,0.21109
2886.91758,0.21183
2888.84605,0.21143
2890.77452,0.21185
2892.70299,0.21341
2894.63146,0.21562
2896.55993,0.21696
2898.48839,0.21475
2900.41686,0.21114
2902.34533,0.21082
2904.27380,0.21315
2906.20227,0.21699
2908.13074,0.22026
2910.05921,0.21885
2911.98768,0.21626
2913.91614,0.21387
2915.84461,0.20946
2917.77308,0.20655
2919.70155,0.20560
2921.63002,0.20536
2923.55849,0.20737
2925.48696,0.21125
2927.41542,0.21224
2929.34389,0.20861
2931.27236,0.20682
2933.20083,0.20765
2935.12930,0.20440
2937.05777,0.19999
2938.98624,0.20457
2940.91471,0.21232
2942.84317,0.20950
2944.77164,0.20255
2946.70011,0.20144
2948.62858,0.20371
2950.55705,0.20800
2952.48552,0.21231
2954.41399,0.21252
2956.34245,0.20970
2958.27092,0.20883
2960.19939,0.20929
2962.12786,0.20601
2964.05633,0.20390
2965.98480,0.20668
2967.91327,0.20665
2969.84174,0.20554
2971.77020,0.21126
2973.69867,0.21825
2975.62714,0.21870
2977.55561,0.21558
2979.48408,0.21343
2981.41255,0.21209
2983.34102,0.21196
2985.26948,0.21255
2987.19795,0.21040
2989.12642,0.20842
2991.05489,0.21138
2992.98336,0.21455
2994.91183,0.21605
2996.84030,0.22106
2998.76877,0.22742
3000.69723,0.22851
3002.62570,0.22446
3004.55417,0.22061
3006.48264,0.21999
3008.41111,0.21836
3010.33958,0.21227
3012.26805,0.20328
3014.19651,0.18765
3016.12498,0.16885
3018.05345,0.16878
3019.98192,0.19114
3021.91039,0.21133
3023.83886,0.22051
3025.76733,0.22716
3027.69579,0.23244
3029.62426,0.23408
3031.55273,0.23099
3033.48120,0.22530
3035.40967,0.21944
3037.33814,0.21626
3039.26661,0.22209
3041.19508,0.23065
3043.12354,0.22998
3045.05201,0.22274
3046.98048,0.21653
3048.90895,0.21330
3050.83742,0.21061
3052.76589,0.20908
3054.69436,0.21158
3056.62282,0.21458
3058.55129,0.21639
3060.47976,0.21945
3062.40823,0.22256
3064.33670,0.22105
3066.26517,0.21301
3068.19364,0.20728
3070.12211,0.20981
3072.05057,0.21451
3073.97904,0.21218
3075.90751,0.20395
3077.83598,0.20469
3079.76445,0.21607
3081.69292,0.22447
3083.62139,0.22150
3085.54985,0.21325
3087.47832,0.21233
3089.40679,0.21657
3091.33526,0.21686
3093.26373,0.20981
3095.19220,0.20360
3097.12067,0.20967
3099.04914,0.21820
3100.97760,0.21589
3102.90607,0.20735
3104.83454,0.20429
3106.76301,0.21103
3108.69148,0.21942
3110.61995,0.22027
3112.54842,0.21650
3114.47688,0.21585
3116.40535,0.21747
3118.33382,0.21736
3120.26229,0.21626
3122.19076,0.21735
3124.11923,0.21998
3126.04770,0.22095
3127.97617,0.22203
3129.90463,0.22202
3131.83310,0.22120
3133.76157,0.22405
3135.69004,0.22470
3137.61851,0.21911
3139.54698,0.21512
3141.47545,0.21826
3143.40391,0.22375
3145.33238,0.22509
3147.26085,0.22276
3149.18932,0.22320
3151.11779,0.22890
3153.04626,0.23096
3154.97473,0.22669
3156.90320,0.22569
3158.83166,0.22767
3160.76013,0.22594
3162.68860,0.22546
3164.61707,0.22709
3166.54554,0.22209
3168.47401,0.21507
3170.40248,0.21246
3172.33094,0.21164
3174.25941,0.21585
3176.18788,0.22441
3178.11635,0.22663
3180.04482,0.22194
3181.97329,0.21792
3183.90176,0.21478
3185.83022,0.21344
3187.75869,0.21347
3189.68716,0.21048
3191.61563,0.20918
3193.54410,0.21515
3195.47257,0.22392
3197.40104,0.23072
3199.32951,0.23487
3201.25797,0.23553
3203.18644,0.23316
3205.11491,0.22851
3207.04338,0.22447
3208.97185,0.22346
3210.90032,0.22452
3212.82879,0.22897
3214.75725,0.23016
3216.68572,0.22171
3218.61419,0.21468
3220.54266,0.21533
3222.47113,0.21872
3224.39960,0.21687
3226.32807,0.20676
3228.25654,0.20199
3230.18500,0.20758
3232.11347,0.21386
3234.04194,0.21884
3235.97041,0.22064
3237.89888,0.22051
3239.82735,0.22611
3241.75582,0.23416
3243.68428,0.23302
3245.61275,0.22371
3247.54122,0.22141
3249.46969,0.22494
3251.39816,0.22124
3253.32663,0.21702
3255.25510,0.21908
3257.18357,0.21758
3259.11203,0.21327
3261.04050,0.21664
3262.96897,0.22381
3264.89744,0.22378
3266.82591,0.21718
3268.75438,0.21346
3270.68285,0.21584
3272.61131,0.22130
3274.53978,0.22785
3276.46825,0.23020
3278.39672,0.22647
3280.32519,0.22564
3282.25366,0.22972
3284.18213,0.22946
3286.11060,0.22178
3288.03906,0.21316
3289.96753,0.20829
3291.89600,0.20851
3293.82447,0.21501
3295.75294,0.22160
3297.68141,0.22171
3299.60988,0.22052
3301.53834,0.22233
3303.46681,0.22372
3305.39528,0.22330
3307.32375,0.22231
3309.25222,0.22009
3311.18069,0.21715
3313.10916,0.21658
3315.03763,0.21750
3316.96609,0.21678
3318.89456,0.21533
3320.82303,0.21534
3322.75150,0.21767
3324.67997,0.22176
3326.60844,0.22330
3328.53691,0.22052
3330.46537,0.21923
3332.39384,0.22054
3334.32231,0.22136
3336.25078,0.22342
3338.17925,0.22235
3340.10772,0.21560
3342.03619,0.21442
3343.96466,0.22050
3345.89312,0.22239
3347.82159,0.22241
3349.75006,0.22692
3351.67853,0.22747
3353.60700,0.22447
3355.53547,0.22478
3357.46394,0.22394
3359.39240,0.22601
3361.32087,0.23529
3363.24934,0.23952
3365.17781,0.23435
3367.10628,0.22905
3369.03475,0.22385
3370.96322,0.21644
3372.89168,0.21240
3374.82015,0.21486
3376.74862,0.22144
3378.67709,0.22505
3380.60556,0.22385
3382.53403,0.22325
3384.46250,0.22240
3386.39097,0.21827
3388.31943,0.21102
3390.24790,0.20759
3392.17637,0.21720
3394.10484,0.22843
3396.03331,0.22636
3397.96178,0.21806
3399.89025,0.21241
3401.81871,0.21066
3403.74718,0.20753
3405.67565,0.19971
3407.60412,0.19900
3409.53259,0.20984
3411.46106,0.21766
3413.38953,0.21542
3415.31800,0.21341
3417.24646,0.21791
3419.17493,0.22222
3421.10340,0.22225
3423.03187,0.22180
3424.96034,0.22508
3426.88881,0.23157
3428.81728,0.23279
3430.74574,0.22314
3432.67421,0.21334
3434.60268,0.21272
3436.53115,0.21535
3438.45962,0.21476
3440.38809,0.21122
3442.31656,0.20949
3444.24503,0.21161
3446.17349,0.21033
3448.10196,0.20349
3450.03043,0.19906
3451.95890,0.19738
3453.88737,0.19911
3455.81584,0.20430
3457.74431,0.20329
3459.67277,0.19978
3461.60124,0.20338
3463.52971,0.20846
3465.45818,0.21184
3467.38665,0.21445
3469.31512,0.21154
3471.24359,0.20388
3473.17206,0.19538
3475.10052,0.18692
3477.02899,0.18326
3478.95746,0.18659
3480.88593,0.19291
3482.81440,0.19534
3484.74287,0.19112
3486.67134,0.18969
3488.59980,0.19430
3490.52827,0.19393
3492.45674,0.18815
3494.38521,0.18636
3496.31368,0.18879
3498.24215,0.19242
3500.17062,0.19682
3502.09909,0.19880
3504.02755,0.19473
3505.95602,0.18669
3507.88449,0.17908
3509.81296,0.17442
3511.74143,0.17647
3513.66990,0.18489
3515.59837,0.19148
3517.52683,0.18841
3519.45530,0.18148
3521.38377,0.18217
3523.31224,0.18496
3525.24071,0.18223
3527.16918,0.18080
3529.09765,0.18109
3531.02611,0.17909
3532.95458,0.17884
3534.88305,0.18092
3536.81152,0.18069
3538.73999,0.17748
3540.66846,0.17528
3542.59693,0.17811
3544.52540,0.18558
3546.45386,0.18879
3548.38233,0.18385
3550.31080,0.18083
3552.23927,0.18024
3554.16774,0.17580
3556.09621,0.17210
3558.02468,0.17383
3559.95314,0.18172
3561.88161,0.19168
3563.81008,0.19944
3565.73855,0.20590
3567.66702,0.20006
3569.59549,0.17860
3571.52396,0.16221
3573.45243,0.15790
3575.38089,0.15658
3577.30936,0.15194
3579.23783,0.15123
3581.16630,0.15769
3583.09477,0.16388
3585.02324,0.16658
3586.95171,0.17003
3588.88017,0.17043
3590.80864,0.16723
3592.73711,0.16828
3594.66558,0.17023
3596.59405,0.16871
3598.52252,0.17076
3600.45099,0.17616
3602.37946,0.17432
3604.30792,0.16667
3606.23639,0.16481
3608.16486,0.17252
3610.09333,0.18204
3612.02180,0.18669
3613.95027,0.18153
3615.87874,0.17119
3617.80720,0.17143
3619.73567,0.17654
3621.66414,0.16986
3623.59261,0.16155
3625.52108,0.16023
3627.44955,0.16632
3629.37802,0.16961
3631.30649,0.16250
3633.23495,0.15778
3635.16342,0.15289
3637.09189,0.14565
3639.02036,0.14258
3640.94883,0.14299
3642.87730,0.14549
3644.80577,0.15526
3646.73423,0.17013
3648.66270,0.18131
3650.59117,0.17660
3652.51964,0.16043
3654.44811,0.14832
3656.37658,0.14238
3658.30505,0.14176
3660.23352,0.14383
3662.16198,0.14227
3664.09045,0.13819
3666.01892,0.14120
3667.94739,0.15723
3669.87586,0.17321
3671.80433,0.16906
3673.73280,0.16410
3675.66126,0.16853
3677.58973,0.16683
3679.51820,0.15249
3681.44667,0.13595
3683.37514,0.13003
3685.30361,0.13491
3687.23208,0.14444
3689.16055,0.15352
3691.08901,0.15180
3693.01748,0.14533
3694.94595,0.14184
3696.87442,0.13933
3698.80289,0.13997
3700.73136,0.14499
3702.65983,0.14623
3704.58829,0.14129
3706.51676,0.13959
3708.44523,0.14760
3710.37370,0.16226
3712.30217,0.16158
3714.23064,0.14678
3716.15911,0.14102
3718.08757,0.14184
3720.01604,0.13943
3721.94451,0.14063
3723.87298,0.15470
3725.80145,0.16269
3727.72992,0.15080
3729.65839,0.13978
3731.58686,0.14439
3733.51532,0.16071
3735.44379,0.16960
3737.37226,0.15954
3739.30073,0.14913
3741.22920,0.14788
3743.15767,0.15000
3745.08614,0.14858
3747.01460,0.15089
3748.94307,0.15939
3750.87154,0.16136
3752.80001,0.15060
3754.72848,0.14282
3756.65695,0.13998
3758.58542,0.13766
3760.51389,0.13429
3762.44235,0.13236
3764.37082,0.13335
3766.29929,0.13410
3768.22776,0.13266
3770.15623,0.12895
3772.08470,0.12217
3774.01317,0.11783
3775.94163,0.11958
3777.87010,0.12570
3779.79857,0.13085
3781.72704,0.13020
3783.65551,0.12896
3785.58398,0.13223
3787.51245,0.13478
3789.44092,0.13349
3791.36938,0.13042
3793.29785,0.12708
3795.22632,0.12655
3797.15479,0.12844
3799.08326,0.13250
3801.01173,0.13999
3802.94020,0.14091
3804.86866,0.13822
3806.79713,0.13901
3808.72560,0.13563
3810.65407,0.12812
3812.58254,0.12385
3814.51101,0.12819
3816.43948,0.13673
3818.36795,0.13725
3820.29641,0.13851
3822.22488,0.14043
3824.15335,0.13595
3826.08182,0.13122
3828.01029,0.12814
3829.93876,0.13131
3831.86723,0.13628
3833.79569,0.13458
3835.72416,0.13597
3837.65263,0.14768
3839.58110,0.15170
3841.50957,0.13814
3843.43804,0.12317
3845.36651,0.11627
3847.29498,0.11645
3849.22344,0.12358
3851.15191,0.14093
3853.08038,0.16396
3855.00885,0.16046
3856.93732,0.14280
3858.86579,0.13336
3860.79426,0.13783
3862.72272,0.14641
3864.65119,0.13738
3866.57966,0.12584
3868.50813,0.12797
3870.43660,0.13115
3872.36507,0.13136
3874.29354,0.13268
3876.22200,0.13317
3878.15047,0.13559
3880.07894,0.13855
3882.00741,0.13770
3883.93588,0.13563
3885.86435,0.13009
3887.79282,0.12361
3889.72129,0.12428
3891.64975,0.12596
3893.57822,0.11846
3895.50669,0.11394
3897.43516,0.12124
3899.36363,0.12999
3901.29210,0.13205
3903.22057,0.13777
3905.14903,0.14040
3907.07750,0.13125
3909.00597,0.12144
3910.93444,0.11680
3912.86291,0.11736
3914.79138,0.12054
3916.71985,0.12172
3918.64832,0.11903
3920.57678,0.11545
3922.50525,0.11568
3924.43372,0.11909
3926.36219,0.12068
3928.29066,0.11952
3930.21913,0.11601
3932.14760,0.11296
3934.07606,0.11413
3936.00453,0.11637
3937.93300,0.11798
3939.86147,0.11718
3941.78994,0.10893
3943.71841,0.09856
3945.64688,0.09757
3947.57535,0.10283
3949.50381,0.10534
3951.43228,0.10450
3953.36075,0.10691
3955.28922,0.11292
3957.21769,0.11457
3959.14616,0.10986
3961.07463,0.10348
3963.00309,0.09751
3964.93156,0.09488
3966.86003,0.09700
3968.78850,0.10002
3970.71697,0.10335
3972.64544,0.10984
3974.57391,0.11393
3976.50238,0.10849
3978.43084,0.09797
3980.35931,0.09182
3982.28778,0.09065
3984.21625,0.08715
3986.14472,0.08432
3988.07319,0.08825
3990.00166,0.09381
3991.93012,0.09762
3993.85859,0.10095
3995.78706,0.10065
3997.71553,0.09742
3999.64400,0.09841
4001.57247,0.10256
4003.50094,0.10151
4005.42941,0.09469
4007.35787,0.09157
4009.28634,0.09751
4011.21481,0.10615
4013.14328,0.10962
4015.07175,0.10685
4017.00022,0.10264
4018.92869,0.09760
4020.85715,0.09184
4022.78562,0.09322
4024.71409,0.09900
4026.64256,0.09804
4028.57103,0.09390
4030.49950,0.09463
4032.42797,0.09521
4034.35644,0.09009
4036.28490,0.08676
4038.21337,0.08802
4040.14184,0.08608
4042.07031,0.08568
4043.99878,0.09129
4045.92725,0.09264
4047.85572,0.08749
4049.78418,0.08245
4051.71265,0.08083
4053.64112,0.08382
4055.56959,0.08785
4057.49806,0.08730
4059.42653,0.08504
4061.35500,0.08815
4063.28346,0.09440
4065.21193,0.09498
4067.14040,0.08667
4069.06887,0.07990
4070.99734,0.08267
4072.92581,0.08667
4074.85428,0.08577
4076.78275,0.08384
4078.71121,0.08804
4080.63968,0.09693
4082.56815,0.09830
4084.49662,0.09164
4086.42509,0.08631
4088.35356,0.08503
4090.28203,0.08739
4092.21049,0.08901
4094.13896,0.08584
4096.06743,0.08267
4097.99590,0.08188
4099.92437,0.08303
4101.85284,0.08854
4103.78131,0.09423
4105.70978,0.09312
4107.63824,0.08553
4109.56671,0.07709
4111.49518,0.07403
4113.42365,0.07780
4115.35212,0.08181
4117.28059,0.07935
4119.20906,0.07364
4121.13752,0.07270
4123.06599,0.07761
4124.99446,0.08403
4126.92293,0.08855
4128.85140,0.08805
4130.77987,0.08533
4132.70834,0.08653
4134.63681,0.08667
4136.56527,0.07844
4138.49374,0.06619
4140.42221,0.05865
4142.35068,0.05657
4144.27915,0.05465
4146.20762,0.05657
4148.13609,0.06832
4150.06455,0.08315
4151.99302,0.08855
4153.92149,0.08109
4155.84996,0.07186
4157.77843,0.06861
4159.70690,0.06686
4161.63537,0.06304
4163.56384,0.06002
4165.49230,0.06267
4167.42077,0.07230
4169.34924,0.08035
4171.27771,0.07722
4173.20618,0.06987
4175.13465,0.06748
4177.06312,0.06756
4178.99158,0.06819
4180.92005,0.06866
4182.84852,0.06675
4184.77699,0.06534
4186.70546,0.06920
4188.63393,0.07474
4190.56240,0.07239
4192.49087,0.06308
4194.41933,0.06059
4196.34780,0.06804
4198.27627,0.07213
4200.20474,0.06507
4202.13321,0.05325
4204.06168,0.04712
4205.99015,0.04833
4207.91861,0.05269
4209.84708,0.05597
4211.77555,0.05423
4213.70402,0.05022
4215.63249,0.04875
4217.56096,0.05111
4219.48943,0.05094
4221.41789,0.04325
4223.34636,0.03755
4225.27483,0.04165
4227.20330,0.05118
4229.13177,0.05642
4231.06024,0.05408
4232.98871,0.05320
4234.91718,0.05619
4236.84564,0.05330
4238.77411,0.04493
4240.70258,0.04215
4242.63105,0.04412
4244.55952,0.03875
4246.48799,0.02620
4248.41646,0.02218
4250.34492,0.03228
4252.27339,0.04464
4254.20186,0.04880
4256.13033,0.04552
4258.05880,0.04333
4259.98727,0.04821
4261.91574,0.05813
4263.84421,0.06198
4265.77267,0.05113
4267.70114,0.03690
4269.62961,0.03506
4271.55808,0.03954
4273.48655,0.03628
4275.41502,0.03056
4277.34349,0.03574
4279.27195,0.04640
4281.20042,0.04644
4283.12889,0.03765
4285.05736,0.03738
4286.98583,0.04361
4288.91430,0.04291
4290.84277,0.04125
4292.77124,0.04248
4294.69970,0.03812
4296.62817,0.02988
4298.55664,0.02601
4300.48511,0.02732
4302.41358,0.02953
4304.34205,0.02946
4306.27052,0.02811
4308.19898,0.02982
4310.12745,0.03075
4312.05592,0.02721
4313.98439,0.03000
4315.91286,0.04329
4317.84133,0.05402
4319.76980,0.05056
4321.69827,0.03975
4323.62673,0.03587
4325.55520,0.03583
4327.48367,0.02953
4329.41214,0.01995
4331.34061,0.01642
4333.26908,0.01917
4335.19755,0.02252
4337.12601,0.02551
4339.05448,0.02734
4340.98295,0.02604
4342.91142,0.02177
4344.83989,0.01889
4346.76836,0.02299
4348.69683,0.02916
4350.62530,0.02938
4352.55376,0.02798
4354.48223,0.02874
4356.41070,0.02364
4358.33917,0.01401
4360.26764,0.01475
4362.19611,0.02865
4364.12458,0.03831
4366.05304,0.03188
4367.98151,0.02174
4369.90998,0.01912
4371.83845,0.01736
4373.76692,0.01198
4375.69539,0.01277
4377.62386,0.02254
4379.55232,0.02785
4381.48079,0.02237
4383.40926,0.01044
4385.33773,0.00499
4387.26620,0.01782
4389.19467,0.03028
4391.12314,0.01983
4393.05161,0.00478
4394.98007,0.00839
4396.90854,0.02226
4398.83701,0.03447
4400.76548,0.03699
4402.69395,0.02376
4404.62242,0.00893
4406.55089,0.00322
4408.47935,0.00497
4410.40782,0.01230
4412.33629,0.01484
4414.26476,0.01307
4416.19323,0.01495
4418.12170,0.01635
4420.05017,0.01706
4421.97864,0.02080
4423.90710,0.02504
4425.83557,0.02486
4427.76404,0.02110
4429.69251,0.01511
4431.62098,0.00521
4433.54945,-0.00283
4435.47792,-0.00076
4437.40638,0.01169
4439.33485,0.02435
4441.26332,0.02940
4443.19179,0.02883
4445.12026,0.01999
4447.04873,0.00516
4448.97720,0.00112
4450.90567,0.01056
4452.83413,0.01841
4454.76260,0.02124
4456.69107,0.02100
4458.61954,0.01002
4460.54801,-0.00822
4462.47648,-0.01462
4464.40495,-0.00729
4466.33341,0.00103
4468.26188,0.00560
4470.19035,0.00763
4472.11882,0.01177
4474.04729,0.01376
4475.97576,0.01007
4477.90423,0.00701
4479.83270,0.00736
4481.76116,0.01101
4483.68963,0.01053
4485.61810,0.00830
4487.54657,0.01454
4489.47504,0.02288
4491.40351,0.02616
4493.33198,0.02375
4495.26044,0.01457
4497.18891,-0.00031
4499.11738,-0.01256
4501.04585,-0.01212
4502.97432,-0.00066
4504.90279,0.01003
4506.83126,0.01457
4508.75973,0.01618
4510.68819,0.01453
4512.61666,0.00919
4514.54513,0.00916
4516.47360,0.02126
4518.40207,0.02843
4520.33054,0.01772
4522.25901,0.00854
4524.18747,0.01122
4526.11594,0.01561
4528.04441,0.01326
4529.97288,-0.00268
4531.90135,-0.02056
4533.82982,-0.02083
4535.75829,-0.00619
4537.68676,0.00819
4539.61522,0.01096
4541.54369,0.00525
4543.47216,0.00032
4545.40063,-0.00022
4547.32910,0.00239
4549.25757,0.00305
4551.18604,0.00375
4553.11450,0.00747
4555.04297,0.01025
4556.97144,0.00982
4558.89991,0.00953
4560.82838,0.01070
4562.75685,0.00682
4564.68532,-0.00193
4566.61378,-0.00709
4568.54225,-0.00746
4570.47072,-0.00967
4572.39919,-0.01384
4574.32766,-0.01518
4576.25613,-0.01910
4578.18460,-0.02168
4580.11307,-0.00813
4582.04153,0.01354
4583.97000,0.02381
4585.89847,0.02178
4587.82694,0.01167
4589.75541,-0.00419
4591.68388,-0.01163
4593.61235,-0.00105
4595.54081,0.01304
4597.46928,0.01329
4599.39775,0.00228
4601.32622,-0.01170
4603.25469,-0.02287
4605.18316,-0.02023
4607.11163,-0.00320
4609.04010,0.00561
4610.96856,0.00039
4612.89703,0.00696
4614.82550,0.02397
4616.75397,0.02909
4618.68244,0.02294
4620.61091,0.01354
4622.53938,0.00628
4624.46784,0.00638
4626.39631,0.01254
4628.32478,0.01340
4630.25325,0.00663
4632.18172,0.00804
4634.11019,0.02188
4636.03866,0.02700
4637.96713,0.01228
4639.89559,-0.00611
4641.82406,-0.00946
4643.75253,0.00132
4645.68100,0.01332
4647.60947,0.01463
4649.53794,0.01311
4651.46641,0.02073
4653.39487,0.02013
4655.32334,0.00648
4657.25181,0.00257
4659.18028,0.00516
4661.10875,0.00362
4663.03722,0.00762
4664.96569,0.01189
4666.89416,0.00329
4668.82262,-0.00688
4670.75109,-0.00956
4672.67956,-0.00962
4674.60803,-0.00365
4676.53650,0.00668
4678.46497,0.00887
4680.39344,0.00024
4682.32190,-0.00857
4684.25037,-0.01007
4686.17884,-0.00990
4688.10731,-0.00997
4690.03578,-0.00365
4691.96425,0.00193
4693.89272,0.00027
4695.82119,-0.00119
4697.74965,0.00432
4699.67812,0.01443
4701.60659,0.01723
4703.53506,0.01717
4705.46353,0.02690
4707.39200,0.03411
4709.32047,0.02723
4711.24893,0.01850
4713.17740,0.01679
4715.10587,0.01211
4717.03434,0.00857
4718.96281,0.01307
4720.89128,0.01563
4722.81975,0.01426
4724.74821,0.00890
4726.67668,0.00249
4728.60515,0.00311
4730.53362,0.00763
4732.46209,0.00643
4734.39056,-0.00123
4736.31903,-0.00401
4738.24750,-0.00143
4740.17596,-0.00057
4742.10443,0.00001
4744.03290,-0.00255
4745.96137,-0.00771
4747.88984,-0.00275
4749.81831,0.01314
4751.74678,0.02516
4753.67524,0.02877
4755.60371,0.02866
4757.53218,0.02768
4759.46065,0.03038
4761.38912,0.03379
4763.31759,0.02544
4765.24606,0.01135
4767.17453,0.01159
4769.10299,0.02528
4771.03146,0.03457
4772.95993,0.03465
4774.88840,0.03264
4776.81687,0.02559
4778.74534,0.01182
4780.67381,-0.00239
4782.60227,-0.01401
4784.53074,-0.01039
4786.45921,0.00985
4788.38768,0.01862
4790.31615,0.00897
4792.24462,0.00550
4794.17309,0.00852
4796.10156,0.00345
4798.03002,0.00036
4799.95849,0.00331
4801.88696,0.00125
4803.81543,-0.00651
4805.74390,-0.01478
4807.67237,-0.01508
4809.60084,-0.00311
4811.52930,0.00860
4813.45777,0.00835
4815.38624,0.00058
4817.31471,-0.00308
4819.24318,0.00403
4821.17165,0.01469
4823.10012,0.01610
4825.02859,0.00669
4826.95705,-0.00650
4828.88552,-0.00951
4830.81399,0.00113
4832.74246,0.01432
4834.67093,0.01998
4836.59940,0.01334
4838.52787,0.00326
4840.45633,-0.00024
4842.38480,0.00675
4844.31327,0.01677
4846.24174,0.01249
4848.17021,-0.00010
4850.09868,-0.00317
4852.02715,0.00376
4853.95562,0.00718
4855.88408,0.00118
4857.81255,-0.00301
4859.74102,0.00389
4861.66949,0.01894
4863.59796,0.02317
4865.52643,0.00725
4867.45490,-0.00955
4869.38336,-0.01826
4871.31183,-0.02390
4873.24030,-0.01682
4875.16877,0.00741
4877.09724,0.02670
4879.02571,0.02687
4880.95418,0.02217
4882.88265,0.01985
4884.81111,0.01345
4886.73958,0.01049
4888.66805,0.01491
4890.59652,0.01679
4892.52499,0.01330
4894.45346,0.00410
4896.38193,-0.00176
4898.31039,0.00943
4900.23886,0.01470
4902.16733,-0.00671
4904.09580,-0.02256
4906.02427,-0.00592
4907.95274,0.01558
4909.88121,0.01615
4911.80967,0.00625
4913.73814,0.00654
4915.66661,0.02033
4917.59508,0.03022
4919.52355,0.02063
4921.45202,0.00155
4923.38049,-0.00276
4925.30896,0.00831
4927.23742,0.00767
4929.16589,-0.00066
4931.09436,0.01008
4933.02283,0.01748
4934.95130,0.00568
4936.87977,0.00949
4938.80824,0.02504
4940.73670,0.02976
4942.66517,0.03113
4944.59364,0.02501
4946.52211,0.00351
4948.45058,-0.01194
4950.37905,-0.00160
4952.30752,0.01710
4954.23599,0.01691
4956.16445,0.00142
4958.09292,-0.01083
4960.02139,-0.01898
4961.94986,-0.01885
4963.87833,0.00106
4965.80680,0.01907
4967.73527,0.02196
4969.66373,0.02597
4971.59220,0.02856
4973.52067,0.02011
4975.44914,0.01366
4977.37761,0.01718
4979.30608,0.01582
4981.23455,0.00812
4983.16302,0.00375
4985.09148,0.00592
4987.01995,0.01708
4988.94842,0.02872
4990.87689,0.03126
4992.80536,0.02486
4994.73383,0.02187
4996.66230,0.02691
4998.59076,0.02287
5000.51923,0.00774
5002.44770,-0.00337
5004.37617,-0.00091
5006.30464,0.00702
5008.23311,0.00727
5010.16158,0.00007
5012.09005,-0.01068
5014.01851,-0.01232
5015.94698,0.00320
5017.87545,0.01757
5019.80392,0.01690
5021.73239,0.01209
5023.66086,0.01260
5025.58933,0.01126
5027.51779,-0.00127
5029.44626,-0.01152
5031.37473,0.00321
5033.30320,0.02352
5035.23167,0.02014
5037.16014,0.01063
5039.08861,0.01536
5041.01708,0.02694
5042.94554,0.03093
5044.87401,0.02143
5046.80248,0.01431
5048.73095,0.02353
5050.65942,0.03425
5052.58789,0.03713
5054.51636,0.03570
5056.44482,0.02697
5058.37329,0.01328
5060.30176,0.00734
5062.23023,0.01382
5064.15870,0.01961
5066.08717,0.02361
5068.01564,0.03406
5069.94410,0.03880
5071.87257,0.03261
5073.80104,0.02767
5075.72951,0.02243
5077.65798,0.00926
5079.58645,-0.00194
5081.51492,-0.00273
5083.44339,0.00128
5085.37185,0.00189
5087.30032,-0.00034
5089.22879,-0.00357
5091.15726,-0.01304
5093.08573,-0.01380
5095.01420,0.00208
5096.94267,0.02450
5098.87113,0.04128
5100.79960,0.04118
5102.72807,0.03569
5104.65654,0.03417
5106.58501,0.03056
5108.51348,0.02637
5110.44195,0.02252
5112.37042,0.02191
5114.29888,0.01729
5116.22735,0.00309
5118.15582,-0.00215
5120.08429,0.00832
5122.01276,0.02231
5123.94123,0.02663
5125.86970,0.02224
5127.79816,0.01783
5129.72663,0.00952
5131.65510,-0.00067
5133.58357,-0.00277
5135.51204,-0.00132
5137.44051,-0.00693
5139.36898,-0.00762
5141.29745,0.00128
5143.22591,0.00017
5145.15438,-0.00568
5147.08285,0.00162
5149.01132,0.02125
5150.93979,0.04560
5152.86826,0.06463
5154.79673,0.07079
5156.72519,0.06142
5158.65366,0.04457
5160.58213,0.03002
5162.51060,0.01780
5164.43907,0.01062
5166.36754,0.01952
5168.29601,0.03663
5170.22448,0.04327
5172.15294,0.04340
5174.08141,0.03795
5176.00988,0.02857
5177.93835,0.02412
5179.86682,0.02278
5181.79529,0.03059
5183.72376,0.04128
5185.65222,0.04389
5187.58069,0.04351
5189.50916,0.03411
5191.43763,0.01519
5193.36610,0.00074
5195.29457,-0.00058
5197.22304,0.01789
5199.15151,0.04338
5201.07997,0.04340
5203.00844,0.01995
5204.93691,0.01056
5206.86538,0.02684
5208.79385,0.03251
5210.72232,0.03048
5212.65079,0.04605
5214.57925,0.05871
5216.50772,0.04673
5218.43619,0.02347
5220.36466,0.02022
5222.29313,0.04458
5224.22160,0.07060
5226.15007,0.07450
5228.07854,0.06023
5230.00700,0.04416
5231.93547,0.02259
5233.86394,-0.00024
5235.79241,-0.00590
5237.72088,-0.00111
5239.64935,0.00186
5241.57782,0.00631
5243.50628,0.01455
5245.43475,0.02379
5247.36322,0.03257
5249.29169,0.04306
5251.22016,0.05307
5253.14863,0.05993
5255.07710,0.05885
5257.00556,0.04259
5258.93403,0.02644
5260.86250,0.02741
5262.79097,0.02234
5264.71944,-0.00810
5266.64791,-0.01536
5268.57638,0.01824
5270.50485,0.04298
5272.43331,0.04513
5274.36178,0.04564
5276.29025,0.05559
5278.21872,0.07075
5280.14719,0.06681
5282.07566,0.05145
5284.00413,0.04171
5285.93259,0.03433
5287.86106,0.03958
5289.78953,0.04028
5291.71800,0.00475
5293.64647,-0.02997
5295.57494,-0.01580
5297.50341,0.03631
5299.43188,0.07907
5301.36034,0.08245
5303.28881,0.06391
5305.21728,0.04867
5307.14575,0.03377
5309.07422,0.02489
5311.00269,0.03387
5312.93116,0.04454
5314.85962,0.04262
5316.78809,0.03135
5318.71656,0.01390
5320.64503,0.00237
5322.57350,0.00913
5324.50197,0.01969
5326.43044,0.02256
5328.35891,0.02754
5330.28737,0.03798
5332.21584,0.04347
5334.14431,0.03202
5336.07278,0.02859
5338.00125,0.05381
5339.92972,0.06920
5341.85819,0.08356
5343.78665,0.13083
5345.71512,0.14295
5347.64359,0.08678
5349.57206,0.04021
5351.50053,0.03063
5353.42900,0.03989
5355.35747,0.06171
5357.28594,0.08052
5359.21440,0.07693
5361.14287,0.04813
5363.07134,0.01737
5364.99981,0.01046
5366.92828,0.01855
5368.85675,0.02402
5370.78522,0.03090
5372.71368,0.04305
5374.64215,0.04881
5376.57062,0.04053
5378.49909,0.03486
5380.42756,0.03788
5382.35603,0.02945
5384.28450,0.00599
5386.21297,-0.00676
5388.14143,0.00856
5390.06990,0.04227
5391.99837,0.07323
5393.92684,0.09048
5395.85531,0.09735
5397.78378,0.09280
5399.71225,0.08376
5401.64071,0.07909
5403.56918,0.06750
5405.49765,0.04813
5407.42612,0.04517
5409.35459,0.06270
5411.28306,0.07275
5413.21153,0.05917
5415.13999,0.05106
5417.06846,0.05585
5418.99693,0.04625
5420.92540,0.03082
5422.85387,0.02805
5424.78234,0.02813
5426.71081,0.03466
5428.63928,0.04256
5430.56774,0.03556
5432.49621,0.04295
5434.42468,0.05908
5436.35315,0.05365
5438.28162,0.04188
5440.21009,0.02509
5442.13856,0.01404
5444.06702,0.02097
5445.99549,0.02716
5447.92396,0.03220
5449.85243,0.03346
5451.78090,0.02582
5453.70937,0.02688
5455.63784,0.05537
5457.56631,0.10158
5459.49477,0.13587
5461.42324,0.15219
5463.35171,0.13881
5465.28018,0.09128
5467.20865,0.04523
5469.13712,0.03751
5471.06559,0.06379
5472.99405,0.08636
5474.92252,0.08387
5476.85099,0.06512
5478.77946,0.04935
5480.70793,0.04445
5482.63640,0.05612
5484.56487,0.07597
5486.49334,0.08202
5488.42180,0.08016
5490.35027,0.08941
5492.27874,0.09425
5494.20721,0.06828
5496.13568,0.03137
5498.06415,0.01952
5499.99262,0.03724
5501.92108,0.06336
5503.84955,0.06855
5505.77802,0.04023
5507.70649,0.01203
5509.63496,0.02003
5511.56343,0.04782
5513.49190,0.06518
5515.42037,0.07060
5517.34883,0.07482
5519.27730,0.07550
5521.20577,0.07311
5523.13424,0.07203
5525.06271,0.07443
5526.99118,0.07694
5528.91965,0.06798
5530.84811,0.05978
5532.77658,0.06894
5534.70505,0.08072
5536.63352,0.07735
5538.56199,0.05350
5540.49046,0.03323
5542.41893,0.02834
5544.34740,0.01478
5546.27586,0.00798
5548.20433,0.03468
5550.13280,0.06890
5552.06127,0.08197
5553.98974,0.08773
5555.91821,0.10870
5557.84668,0.13285
5559.77514,0.12790
5561.70361,0.08624
5563.63208,0.05948
5565.56055,0.07727
5567.48902,0.09088
5569.41749,0.07007
5571.34596,0.02616
5573.27443,-0.01230
5575.20289,-0.00820
5577.13136,0.02354
5579.05983,0.04481
5580.98830,0.05326
5582.91677,0.06077
5584.84524,0.05580
5586.77371,0.02898
5588.70217,0.01047
5590.63064,0.01316
5592.55911,0.02005
5594.48758,0.04382
5596.41605,0.08073
5598.34452,0.09062
5600.27299,0.05745
5602.20145,0.01955
5604.12992,0.02681
5606.05839,0.06703
5607.98686,0.08500
5609.91533,0.06830
5611.84380,0.06031
5613.77227,0.08130
5615.70074,0.09556
5617.62920,0.07956
5619.55767,0.05864
5621.48614,0.06112
5623.41461,0.06973
5625.34308,0.06312
5627.27155,0.05733
5629.20002,0.05005
5631.12848,0.02345
5633.05695,0.01184
5634.98542,0.03689
5636.91389,0.05959
5638.84236,0.06739
5640.77083,0.08158
5642.69930,0.09505
5644.62777,0.09357
5646.55623,0.09101
5648.48470,0.08317
5650.41317,0.04830
5652.34164,0.01799
5654.27011,0.02381
5656.19858,0.04204
5658.12705,0.04145
5660.05551,0.04684
5661.98398,0.08453
5663.91245,0.09553
5665.84092,0.06663
5667.76939,0.05966
5669.69786,0.07950
5671.62633,0.09951
5673.55480,0.11604
5675.48326,0.11570
5677.41173,0.08191
5679.34020,0.06226
5681.26867,0.08979
5683.19714,0.10646
5685.12561,0.08782
5687.05408,0.08145
5688.98254,0.10418
5690.91101,0.11335
5692.83948,0.08761
5694.76795,0.07557
5696.69642,0.10096
5698.62489,0.11795
5700.55336,0.11248
5702.48183,0.08719
5704.41029,0.04292
5706.33876,0.01867
5708.26723,0.01124
5710.19570,0.00382
5712.12417,0.01783
5714.05264,0.02314
5715.98111,-0.00476
5717.90957,-0.01382
5719.83804,0.00802
5721.76651,0.03194
5723.69498,0.05825
5725.62345,0.09196
5727.55192,0.12710
5729.48039,0.13554
5731.40886,0.11362
5733.33732,0.10144
5735.26579,0.10044
5737.19426,0.08181
5739.12273,0.06867
5741.05120,0.08231
5742.97967,0.08773
5744.90814,0.08227
5746.83660,0.07098
5748.76507,0.03478
5750.69354,0.01748
5752.62201,0.04375
5754.55048,0.07584
5756.47895,0.11374
5758.40742,0.13655
5760.33588,0.11058
5762.26435,0.06511
5764.19282,0.04064
5766.12129,0.02541
5768.04976,0.00950
5769.97823,0.01967
5771.90670,0.06156
5773.83517,0.08842
5775.76363,0.07930
5777.69210,0.06899
5779.62057,0.06540
5781.54904,0.04633
5783.47751,0.02373
5785.40598,0.02542
5787.33445,0.05356
5789.26291,0.08659
5791.19138,0.09174
5793.11985,0.05362
5795.04832,0.02000
5796.97679,0.04147
5798.90526,0.08071
5800.83373,0.09666
5802.76220,0.10389
5804.69066,0.12109
5806.61913,0.14050
5808.54760,0.11656
5810.47607,0.05575
5812.40454,0.01952
5814.33301,0.01784
5816.26148,0.04162
5818.18994,0.08511
5820.11841,0.11477
5822.04688,0.08866
5823.97535,0.03139
5825.90382,0.02487
5827.83229,0.07332
5829.76076,0.10247
5831.68923,0.07858
5833.61769,0.05599
5835.54616,0.06075
5837.47463,0.04533
5839.40310,0.01544
5841.33157,0.01828
5843.26004,0.04179
5845.18851,0.04904
5847.11697,0.05153
5849.04544,0.07938
5850.97391,0.11296
5852.90238,0.11609
5854.83085,0.11722
5856.75932,0.11442
5858.68779,0.06517
5860.61626,0.02809
5862.54472,0.03655
5864.47319,0.03933
5866.40166,0.03770
5868.33013,0.05161
5870.25860,0.07583
5872.18707,0.08963
5874.11554,0.08162
5876.04400,0.06668
5877.97247,0.06381
5879.90094,0.07054
5881.82941,0.07365
5883.75788,0.06978
5885.68635,0.05894
5887.61482,0.06115
5889.54329,0.08085
5891.47175,0.09133
5893.40022,0.08054
5895.32869,0.04183
5897.25716,0.00183
5899.18563,0.00314
5901.11410,0.03364
5903.04257,0.05725
5904.97103,0.07016
5906.89950,0.09598
5908.82797,0.12890
5910.75644,0.13123
5912.68491,0.09557
5914.61338,0.04570
5916.54185,-0.00006
5918.47032,-0.02455
5920.39878,-0.01409
5922.32725,0.00941
5924.25572,0.02904
5926.18419,0.05751
5928.11266,0.08888
5930.04113,0.10412
5931.96960,0.10661
5933.89806,0.09968
5935.82653,0.09445
5937.75500,0.10089
5939.68347,0.10095
5941.61194,0.10364
5943.54041,0.11860
5945.46888,0.10480
5947.39734,0.05135
5949.32581,0.00902
5951.25428,0.01620
5953.18275,0.04927
5955.11122,0.05976
5957.03969,0.02114
5958.96816,-0.02715
5960.89663,-0.03206
5962.82509,-0.01152
5964.75356,0.01637
5966.68203,0.04051
5968.61050,0.01954
5970.53897,-0.03171
5972.46744,-0.02374
5974.39591,0.04576
5976.32437,0.05869
5978.25284,-0.00254
5980.18131,-0.01878
5982.10978,0.05284
5984.03825,0.11915
5985.96672,0.12420
5987.89519,0.09624
5989.82366,0.06355
5991.75212,0.05389
5993.68059,0.06512
5995.60906,0.07079
5997.53753,0.07526
5999.46600,0.08884
6001.39447,0.09611
6003.32294,0.10221
6005.25140,0.14175
6007.17987,0.16257
6009.10834,0.10440
6011.03681,0.04909
6012.96528,0.05516
6014.89375,0.07344
6016.82222,0.08421
6018.75069,0.11165
6020.67915,0.13445
6022.60762,0.11775
6024.53609,0.08747
6026.46456,0.07092
6028.39303,0.04516
6030.32150,0.01635
6032.24997,0.01610
6034.17843,0.03826
6036.10690,0.07138
6038.03537,0.10155
6039.96384,0.12114
6041.89231,0.13148
6043.82078,0.12379
6045.74925,0.10445
6047.67772,0.08434
6049.60618,0.05535
6051.53465,0.01994
6053.46312,0.01656
6055.39159,0.04470
6057.32006,0.03797
6059.24853,-0.00654
6061.17700,-0.02190
6063.10546,0.02317
6065.03393,0.08687
6066.96240,0.10031
6068.89087,0.05113
6070.81934,0.00685
6072.74781,0.02070
6074.67628,0.07503
6076.60475,0.13339
6078.53321,0.16747
6080.46168,0.14526
6082.39015,0.07229
6084.31862,0.02358
6086.24709,0.03014
6088.17556,0.06349
6090.10403,0.12371
6092.03249,0.16099
6093.96096,0.13815
6095.88943,0.10500
6097.81790,0.07170
6099.74637,0.04755
6101.67484,0.08756
6103.60331,0.14987
6105.53177,0.13727
6107.46024,0.08437
6109.38871,0.08997
6111.31718,0.12675
6113.24565,0.13884
6115.17412,0.14426
6117.10259,0.14166
6119.03106,0.11799
6120.95952,0.08283
6122.88799,0.04969
6124.81646,0.03248
6126.74493,0.05522
6128.67340,0.11919
6130.60187,0.13843
6132.53034,0.10590
6134.45880,0.11236
6136.38727,0.12728
6138.31574,0.10886
6140.24421,0.12336
6142.17268,0.17215
6144.10115,0.16208
6146.02962,0.08645
6147.95809,0.01086
6149.88655,-0.01760
6151.81502,0.01254
6153.74349,0.05484
6155.67196,0.06749
6157.60043,0.06881
6159.52890,0.09862
6161.45737,0.15661
6163.38583,0.18092
6165.31430,0.15207
6167.24277,0.12338
6169.17124,0.09322
6171.09971,0.04986
6173.02818,0.05794
6174.95665,0.11697
6176.88512,0.14273
6178.81358,0.14235
6180.74205,0.15879
6182.67052,0.15384
6184.59899,0.11426
6186.52746,0.08871
6188.45593,0.09413
6190.38440,0.09898
6192.31286,0.09228
6194.24133,0.06708
6196.16980,0.04866
6198.09827,0.07171
6200.02674,0.05636
6201.95521,-0.00385
6203.88368,-0.02287
6205.81215,-0.03286
6207.74061,-0.04544
6209.66908,-0.02822
6211.59755,-0.02471
6213.52602,-0.03281
6215.45449,-0.00289
6217.38296,0.05844
6219.31143,0.07358
6221.23989,0.03273
6223.16836,0.03482
6225.09683,0.08021
6227.02530,0.06887
6228.95377,0.04071
6230.88224,0.08398
6232.81071,0.16457
6234.73918,0.20395
6236.66764,0.15374
6238.59611,0.02424
6240.52458,-0.03958
6242.45305,0.02148
6244.38152,0.06021
6246.30999,0.03356
6248.23846,0.02512
6250.16692,0.03226
6252.09539,0.01721
6254.02386,0.02892
6255.95233,0.07003
6257.88080,0.08047
6259.80927,0.09320
6261.73774,0.12330
6263.66621,0.12831
6265.59467,0.11798
6267.52314,0.08001
6269.45161,0.00572
6271.38008,-0.03342
6273.30855,-0.01180
6275.23702,0.03213
6277.16549,0.08736
6279.09395,0.13606
6281.02242,0.14906
6282.95089,0.11568
6284.87936,0.06593
6286.80783,0.07673
6288.73630,0.13131
6290.66477,0.11442
6292.59323,0.05237
6294.52170,0.04872
6296.45017,0.03277
6298.37864,-0.03986
6300.30711,-0.07776
6302.23558,-0.01487
6304.16405,0.11823
6306.09252,0.22627
6308.02098,0.23990
6309.94945,0.15502
6311.87792,0.03685
6313.80639,-0.03825
6315.73486,-0.04485
6317.66333,0.01362
6319.59180,0.07014
6321.52026,0.09011
6323.44873,0.13895
6325.37720,0.20411
6327.30567,0.21115
6329.23414,0.17282
6331.16261,0.15184
6333.09108,0.14812
6335.01955,0.10734
6336.94801,-0.00427
6338.87648,-0.10813
6340.80495,-0.08030
6342.73342,0.02453
6344.66189,0.10093
6346.59036,0.14165
6348.51883,0.13780
6350.44729,0.10631
6352.37576,0.09990
6354.30423,0.12827
6356.23270,0.13425
6358.16117,0.07832
6360.08964,0.02623
6362.01811,0.02194
6363.94658,0.00166
6365.87504,-0.04895
6367.80351,-0.02641
6369.73198,0.05120
6371.66045,0.05458
6373.58892,0.00822
6375.51739,-0.00525
6377.44586,-0.00228
6379.37432,-0.00330
6381.30279,-0.01070
6383.23126,-0.02359
6385.15973,-0.01353
6387.08820,0.01301
6389.01667,0.02795
6390.94514,0.01959
6392.87361,-0.01137
6394.80207,-0.04143
6396.73054,-0.05538
6398.65901,-0.00764
6400.58748,0.07499
6402.51595,0.07658
6404.44442,0.04550
6406.37289,0.06115
6408.30135,0.02476
6410.22982,-0.08960
6412.15829,-0.12432
6414.08676,-0.06830
6416.01523,-0.03515
6417.94370,-0.02867
6419.87217,-0.02432
6421.80064,-0.03590
6423.72910,-0.04431
6425.65757,-0.01523
6427.58604,-0.00323
6429.51451,-0.03362
6431.44298,-0.00290
6433.37145,0.10055
6435.29992,0.15343
6437.22838,0.10628
6439.15685,0.05371
6441.08532,0.07270
6443.01379,0.10400
6444.94226,0.08033
6446.87073,0.03422
6448.79920,-0.00336
6450.72766,-0.01146
6452.65613,0.03319
6454.58460,0.04892
6456.51307,0.00998
6458.44154,0.00808
6460.37001,0.03301
6462.29848,0.03725
6464.22695,0.07742
6466.15541,0.13946
6468.08388,0.10128
6470.01235,0.01619
6471.94082,0.02113
6473.86929,0.06330
6475.79776,0.08167
6477.72623,0.10111
6479.65469,0.15274
6481.58316,0.19557
6483.51163,0.16109
6485.44010,0.08301
6487.36857,0.02771
6489.29704,0.02457
6491.22551,0.04479
6493.15398,0.03030
6495.08244,0.01710
6497.01091,0.05341
6498.93938,0.08659
6500.86785,0.08423
6502.79632,0.08617
6504.72479,0.09812
6506.65326,0.10768
6508.58172,0.14506
6510.51019,0.21055
6512.43866,0.24294
6514.36713,0.19699
6516.29560,0.09091
6518.22407,-0.02692
6520.15254,-0.09407
6522.08101,-0.04695
6524.00947,0.04269
6525.93794,0.04082
6527.86641,0.04616
6529.79488,0.13019
6531.72335,0.17190
6533.65182,0.12727
6535.58029,0.05941
6537.50875,-0.00058
6539.43722,-0.01199
6541.36569,0.04452
6543.29416,0.08659
6545.22263,0.06516
6547.15110,0.00056
6549.07957,-0.05849
6551.00804,-0.00287
6552.93650,0.10923
6554.86497,0.11686
6556.79344,0.08228
6558.72191,0.09487
6560.65038,0.11527
6562.57885,0.12925
6564.50732,0.08866
6566.43578,-0.03427
6568.36425,-0.09385
6570.29272,-0.06634
6572.22119,-0.05805
6574.14966,-0.06240
6576.07813,-0.10587
6578.00660,-0.15722
6579.93507,-0.10492
6581.86353,-0.04710
6583.79200,-0.04152
6585.72047,0.02463
6587.64894,0.12122
6589.57741,0.16736
6591.50588,0.19199
6593.43435,0.24120
6595.36281,0.25116
6597.29128,0.17969
6599.21975,0.10467
6601.14822,0.05942
6603.07669,0.04890
6605.00516,0.03570
6606.93363,-0.01862
6608.86210,-0.07822
6610.79056,-0.03394
6612.71903,0.06033
6614.64750,0.07631
6616.57597,0.03511
6618.50444,0.00263
6620.43291,0.00144
6622.36138,0.02385
6624.28984,0.01767
6626.21831,-0.00133
6628.14678,0.04443
6630.07525,0.10686
6632.00372,0.08665
6633.93219,0.02180
6635.86066,-0.02822
6637.78912,-0.01556
6639.71759,0.04878
6641.64606,0.09070
6643.57453,0.10012
6645.50300,0.12545
6647.43147,0.12197
6649.35994,0.03464
6651.28841,-0.04991
6653.21687,-0.05594
6655.14534,-0.02650
6657.07381,-0.06015
6659.00228,-0.16983
6660.93075,-0.19658
6662.85922,-0.03028
6664.78769,0.16935
6666.71615,0.21189
6668.64462,0.15330
6670.57309,0.08698
6672.50156,-0.04599
6674.43003,-0.16232
6676.35850,-0.13472
6678.28697,-0.07151
6680.21544,-0.05182
6682.14390,-0.02775
6684.07237,0.02517
6686.00084,0.11818
6687.92931,0.15396
6689.85778,0.07936
6691.78625,0.05821
6693.71472,0.10647
6695.64318,0.15110
6697.57165,0.15649
6699.50012,0.07941
6701.42859,-0.04729
6703.35706,-0.06974
6705.28553,0.06136
6707.21400,0.18941
6709.14247,0.17862
6711.07093,0.07857
6712.99940,0.00815
6714.92787,-0.02187
6716.85634,-0.01316
6718.78481,0.08204
6720.71328,0.18906
6722.64175,0.26054
6724.57021,0.28737
6726.49868,0.17690
6728.42715,0.05644
6730.35562,0.06545
6732.28409,0.05639
6734.21256,-0.04229
6736.14103,-0.09635
6738.06950,-0.05821
6739.99796,-0.01472
6741.92643,0.02354
6743.85490,0.13148
6745.78337,0.26278
6747.71184,0.27580
6749.64031,0.17526
6751.56878,0.12951
6753.49724,0.12350
6755.42571,0.06941
6757.35418,0.03081
6759.28265,0.01777
6761.21112,-0.02504
6763.13959,0.01244
6765.06806,0.16247
6766.99653,0.22159
6768.92499,0.09047
6770.85346,-0.03818
6772.78193,0.02340
6774.71040,0.19871
6776.63887,0.29922
6778.56734,0.21766
6780.49581,0.08250
6782.42427,0.05190
6784.35274,-0.01512
6786.28121,-0.15254
6788.20968,-0.15185
6790.13815,-0.04045
6792.06662,0.00050
6793.99509,-0.07307
6795.92355,-0.12110
6797.85202,-0.04471
6799.78049,0.04968
6801.70896,0.09712
6803.63743,0.15210
6805.56590,0.20422
6807.49437,0.22858
6809.42284,0.23696
6811.35130,0.23084
6813.27977,0.18118
6815.20824,0.05733
6817.13671,-0.04623
6819.06518,-0.00285
6820.99365,0.14852
6822.92212,0.25948
6824.85058,0.21800
6826.77905,0.08065
6828.70752,-0.03569
6830.63599,-0.04003
6832.56446,0.00668
6834.49293,0.03758
6836.42140,0.10089
6838.34987,0.18633
6840.27833,0.23865
6842.20680,0.27180
6844.13527,0.29945
6846.06374,0.31111
6847.99221,0.25231
6849.92068,0.07799
6851.84915,-0.07103
6853.77761,-0.11097
6855.70608,-0.09108
6857.63455,-0.02062
6859.56302,0.07969
6861.49149,0.16731
6863.41996,0.18605
6865.34843,0.12079
6867.27690,0.07415
6869.20536,0.04226
6871.13383,-0.05548
6873.06230,-0.13973
6874.99077,-0.12537
6876.91924,-0.04391
6878.84771,0.07374
6880.77618,0.14022
6882.70464,0.08687
6884.63311,0.01305
6886.56158,-0.00755
6888.49005,-0.03843
6890.41852,-0.08720
6892.34699,-0.07794
6894.27546,-0.03060
6896.20393,0.06613
6898.13239,0.17911
6900.06086,0.15740
6901.98933,0.08507
6903.91780,0.07133
6905.84627,0.05124
6907.77474,-0.01025
6909.70321,-0.02371
6911.63167,0.10910
6913.56014,0.27323
6915.48861,0.30031
6917.41708,0.29375
6919.34555,0.27793
6921.27402,0.19007
6923.20249,0.14524
6925.13096,0.12893
6927.05942,0.06210
6928.98789,-0.00750
6930.91636,-0.01365
6932.84483,0.04451
6934.77330,0.05663
6936.70177,-0.06735
6938.63024,-0.19688
6940.55870,-0.11827
6942.48717,0.04463
6944.41564,0.09997
6946.34411,0.07242
6948.27258,0.03737
6950.20105,0.02898
6952.12952,0.01028
6954.05799,0.00811
6955.98645,0.05943
6957.91492,0.08028
6959.84339,0.07656
6961.77186,0.10063
6963.70033,0.11418
6965.62880,0.12666
6967.55727,0.15763
6969.48573,0.16903
6971.41420,0.19454
6973.34267,0.23758
6975.27114,0.14377
6977.19961,0.05817
6979.12808,0.07608
6981.05655,0.00884
6982.98501,-0.06629
6984.91348,-0.03387
6986.84195,-0.00837
6988.77042,0.02090
6990.69889,0.06097
6992.62736,0.10412
6994.55583,0.18514
6996.48430,0.20413
6998.41276,0.12467
7000.34123,0.14216
7002.26970,0.24838
7004.19817,0.28098
7006.12664,0.19284
7008.05511,0.03940
7009.98358,-0.04425
7011.91204,-0.00832
7013.84051,0.15257
7015.76898,0.25971
7017.69745,0.18662
7019.62592,0.09828
7021.55439,0.06275
7023.48286,-0.03729
7025.41133,-0.12336
7027.33979,-0.12283
7029.26826,-0.18539
7031.19673,-0.25429
7033.12520,-0.13549
7035.05367,0.08519
7036.98214,0.16736
7038.91061,0.12716
7040.83907,0.06536
7042.76754,-0.02715
7044.69601,-0.14575
7046.62448,-0.19816
7048.55295,-0.11309
7050.48142,0.08902
7052.40989,0.34092
7054.33836,0.45256
7056.26682,0.23066
7058.19529,-0.08496
7060.12376,-0.11019
7062.05223,-0.01326
7063.98070,-0.03039
7065.90917,-0.14059
7067.83764,-0.24295
7069.76610,-0.25681
7071.69457,-0.11326
7073.62304,0.11466
7075.55151,0.20553
7077.47998,0.12008
7079.40845,-0.01711
7081.33692,-0.12735
7083.26539,-0.13550
7085.19385,-0.02611
7087.12232,0.15243
7089.05079,0.30947
7090.97926,0.35246
7092.90773,0.24520
7094.83620,0.07171
7096.76467,0.00412
7098.69313,0.02336
7100.62160,0.00857
7102.55007,-0.01082
7104.47854,0.04960
7106.40701,0.14493
7108.33548,0.09894
7110.26395,0.00601
7112.19242,0.00005
7114.12088,-0.01978
7116.04935,-0.08378
7117.97782,-0.06225
7119.90629,0.07059
7121.83476,0.23029
7123.76323,0.32217
7125.69170,0.25816
7127.62016,0.12837
7129.54863,0.07479
7131.47710,0.16437
7133.40557,0.33444
7135.33404,0.32772
7137.26251,0.10187
7139.19098,-0.11509
7141.11944,-0.17496
7143.04791,-0.11573
7144.97638,-0.04249
7146.90485,-0.05960
7148.83332,-0.19256
7150.76179,-0.34988
7152.69026,-0.30593
7154.61873,-0.02957
7156.54719,0.18147
7158.47566,0.27090
7160.40413,0.20395
7162.33260,0.01138
7164.26107,-0.04709
7166.18954,-0.00980
7168.11801,0.00776
7170.04647,0.05227
7171.97494,0.05035
7173.90341,0.11678
7175.83188,0.27888
7177.76035,0.26301
7179.68882,0.07338
7181.61729,-0.10589
7183.54576,-0.19836
7185.47422,-0.13878
7187.40269,0.00463
7189.33116,0.09126
7191.25963,0.16523
7193.18810,0.31737
7195.11657,0.37986
7197.04504,0.26704
7198.97350,0.10271
7200.90197,-0.02076
7202.83044,-0.07371
7204.75891,0.05517
7206.68738,0.18063
7208.61585,0.08900
7210.54432,0.08158
7212.47279,0.29015
7214.40125,0.47775
7216.32972,0.48269
7218.25819,0.39649
7220.18666,0.33442
7222.11513,0.23546
7224.04360,0.12212
7225.97207,0.09867
7227.90053,0.19220
7229.82900,0.28535
7231.75747,0.25066
7233.68594,0.13493
7235.61441,-0.01551
7237.54288,-0.19982
7239.47135,-0.36063
7241.39982,-0.38289
7243.32828,-0.12870
7245.25675,0.08824
7247.18522,0.10094
7249.11369,0.09754
7251.04216,0.12890
7252.97063,0.17663
7254.89910,0.22370
7256.82756,0.23175
7258.75603,0.15984
7260.68450,-0.07519
7262.61297,-0.32828
7264.54144,-0.33787
7266.46991,-0.15205
7268.39838,0.06861
7270.32685,0.22136
7272.25531,0.22132
7274.18378,0.12783
7276.11225,0.01695
7278.04072,-0.11451
7279.96919,-0.13608
7281.89766,0.02793
7283.82613,0.13612
7285.75459,0.14591
7287.68306,0.18088
7289.61153,0.30441
7291.54000,0.42839
7293.46847,0.39761
7295.39694,0.35816
7297.32541,0.42869
7299.25387,0.33613
7301.18234,0.02527
7303.11081,-0.13744
7305.03928,0.01434
7306.96775,0.26982
7308.89622,0.41070
7310.82469,0.30730
7312.75316,0.14381
7314.68162,0.01240
7316.61009,-0.14576
7318.53856,-0.18028
7320.46703,-0.01997
7322.39550,0.12163
7324.32397,0.07855
7326.25244,0.00691
7328.18090,0.05183
7330.10937,0.05002
7332.03784,-0.01699
7333.96631,0.08479
7335.89478,0.16299
7337.82325,0.07279
7339.75172,0.09828
7341.68019,0.27703
7343.60865,0.28073
7345.53712,0.26039
7347.46559,0.25147
7349.39406,0.16595
7351.32253,0.08094
7353.25100,0.11416
7355.17947,0.26028
7357.10793,0.35463
7359.03640,0.15565
7360.96487,-0.15908
7362.89334,-0.19597
7364.82181,-0.02844
7366.75028,0.12286
7368.67875,0.24463
7370.60722,0.22846
7372.53568,0.10340
7374.46415,0.12454
7376.39262,0.19592
7378.32109,0.11377
7380.24956,0.04550
7382.17803,-0.07172
7384.10650,-0.18951
7386.03496,-0.02608
7387.96343,0.27983
7389.89190,0.31432
7391.82037,0.17606
7393.74884,0.14011
7395.67731,0.17837
7397.60578,0.17736
7399.53425,0.23141
7401.46271,0.36467
7403.39118,0.42568
7405.31965,0.25529
7407.24812,0.02097
7409.17659,0.01815
7411.10506,0.11463
7413.03353,0.05210
7414.96199,-0.01618
7416.89046,0.00443
7418.81893,0.00740
7420.74740,0.11677
7422.67587,0.23025
7424.60434,0.14118
7426.53281,0.02748
7428.46128,0.05050
7430.38974,0.17845
7432.31821,0.28017
7434.24668,0.29964
7436.17515,0.33525
7438.10362,0.35514
7440.03209,0.19265
7441.96056,-0.03231
7443.88902,-0.13182
7445.81749,-0.02949
7447.74596,0.22174
7449.67443,0.43193
7451.60290,0.45149
7453.53137,0.31204
7455.45984,0.16576
7457.38831,0.01021
7459.31677,-0.14466
7461.24524,-0.07812
7463.17371,0.04554
7465.10218,-0.00870
7467.03065,-0.11806
7468.95912,-0.17196
7470.88759,-0.15109
7472.81605,-0.08346
7474.74452,-0.09443
7476.67299,-0.19205
7478.60146,-0.13785
7480.52993,0.14345
7482.45840,0.30787
7484.38687,0.27792
7486.31533,0.25746
7488.24380,0.27086
7490.17227,0.26162
7492.10074,0.20905
7494.02921,0.15877
7495.95768,0.16353
7497.88615,0.19237
