399.19301,6.10565
401.12148,-0.48506
403.04995,-0.18236
404.97842,0.17028
406.90689,0.07736
408.83536,-0.12647
410.76382,-0.21568
412.69229,-0.15386
414.62076,-0.01617
416.54923,0.12822
418.47770,0.33128
420.40617,0.41493
422.33464,0.27878
424.26311,0.11777
426.19157,0.01129
428.12004,-0.05555
430.04851,-0.06488
431.97698,0.01609
433.90545,0.09742
435.83392,0.14639
437.76239,0.18563
439.69085,0.17687
441.61932,0.10124
443.54779,0.05948
445.47626,0.02323
447.40473,-0.02404
449.33320,0.04569
451.26167,0.11599
453.19013,0.07690
455.11860,0.02611
457.04707,0.02367
458.97554,0.02389
460.90401,0.02205
462.83248,0.03972
464.76095,0.05038
466.68942,0.04639
468.61788,0.04324
470.54635,0.05867
472.47482,0.11264
474.40329,0.18559
476.33176,0.16045
478.26023,0.07002
480.18870,0.00497
482.11716,-0.02321
484.04563,-0.01317
485.97410,0.03305
487.90257,0.08102
489.83104,0.16972
491.75951,0.24838
493.68798,0.19747
495.61645,0.08439
497.54491,0.03534
499.47338,0.05938
501.40185,0.06546
503.33032,0.01503
505.25879,-0.00678
507.18726,0.01797
509.11573,0.02214
511.04419,0.01378
512.97266,0.02710
514.90113,0.04175
516.82960,0.05196
518.75807,0.06058
520.68654,0.05785
522.61501,0.05579
524.54348,0.05488
526.47194,0.06588
528.40041,0.09036
530.32888,0.08270
532.25735,0.01889
534.18582,-0.02339
536.11429,0.03066
538.04276,0.08262
539.97122,0.06987
541.89969,0.08075
543.82816,0.11187
545.75663,0.09304
547.68510,0.05963
549.61357,0.05947
551.54204,0.05621
553.47051,0.03170
555.39897,0.03953
557.32744,0.07560
559.25591,0.09068
561.18438,0.10660
563.11285,0.13199
565.04132,0.16125
566.96979,0.20113
568.89825,0.18364
570.82672,0.09828
572.75519,0.04502
574.68366,0.06985
576.61213,0.12838
578.54060,0.15648
580.46907,0.12979
582.39754,0.08916
584.32600,0.07633
586.25447,0.06787
588.18294,0.04498
590.11141,0.03585
592.03988,0.04595
593.96835,0.03948
595.89682,0.01894
597.82528,0.02399
599.75375,0.05584
601.68222,0.08099
603.61069,0.09268
605.53916,0.09987
607.46763,0.09706
609.39610,0.08664
611.32456,0.08311
613.25303,0.08768
615.18150,0.08550
617.10997,0.08396
619.03844,0.09380
620.96691,0.09838
622.89538,0.09380
624.82385,0.08553
626.75231,0.06729
628.68078,0.06124
630.60925,0.09394
632.53772,0.12219
634.46619,0.10605
636.39466,0.08626
638.32313,0.08433
640.25159,0.06321
642.18006,0.03064
644.10853,0.03240
646.03700,0.04972
647.96547,0.06409
649.89394,0.09672
651.82241,0.12857
653.75088,0.12462
655.67934,0.10033
657.60781,0.09194
659.53628,0.09088
661.46475,0.08171
663.39322,0.08346
665.32169,0.09959
667.25016,0.12176
669.17862,0.13028
671.10709,0.10913
673.03556,0.09341
674.96403,0.08509
676.89250,0.06417
678.82097,0.04432
680.74944,0.03940
682.67791,0.04991
684.60637,0.08202
686.53484,0.10619
688.46331,0.10037
690.39178,0.09555
692.32025,0.10845
694.24872,0.12114
696.17719,0.11778
698.10565,0.10575
700.03412,0.10245
701.96259,0.09871
703.89106,0.08720
705.81953,0.08527
707.74800,0.08445
709.67647,0.08307
711.60494,0.10634
713.53340,0.13365
715.46187,0.13303
717.39034,0.12018
719.31881,0.10936
721.24728,0.09952
723.17575,0.09779
725.10422,0.09628
727.03268,0.08980
728.96115,0.09039
730.88962,0.08909
732.81809,0.07959
734.74656,0.07316
736.67503,0.07244
738.60350,0.07291
740.53197,0.06628
742.46043,0.06012
744.38890,0.06714
746.31737,0.07951
748.24584,0.09050
750.17431,0.09676
752.10278,0.09855
754.03125,0.10397
755.95971,0.10612
757.88818,0.10393
759.81665,0.11144
761.74512,0.11984
763.67359,0.11816
765.60206,0.11438
767.53053,0.10742
769.45900,0.09578
771.38746,0.09192
773.31593,0.09684
775.24440,0.09667
777.17287,0.08718
779.10134,0.08414
781.02981,0.09694
782.95828,0.10449
784.88674,0.09331
786.81521,0.07930
788.74368,0.07720
790.67215,0.08482
792.60062,0.09009
794.52909,0.09179
796.45756,0.09632
798.38602,0.09870
800.31449,0.09420
802.24296,0.08413
804.17143,0.07790
806.09990,0.08985
808.02837,0.10628
809.95684,0.10172
811.88531,0.09542
813.81377,0.10593
815.74224,0.11028
817.67071,0.10439
819.59918,0.10226
821.52765,0.10264
823.45612,0.10721
825.38459,0.11093
827.31305,0.10659
829.24152,0.10694
831.16999,0.11843
833.09846,0.13153
835.02693,0.13668
836.95540,0.13674
838.88387,0.13920
840.81234,0.13449
842.74080,0.11991
844.66927,0.11274
846.59774,0.11622
848.52621,0.12366
850.45468,0.13301
852.38315,0.13236
854.31162,0.11841
856.24008,0.10463
858.16855,0.09646
860.09702,0.09713
862.02549,0.09766
863.95396,0.08206
865.88243,0.06417
867.81090,0.07317
869.73937,0.11051
871.66783,0.13334
873.59630,0.12283
875.52477,0.11546
877.45324,0.12572
879.38171,0.13483
881.31018,0.13059
883.23865,0.11689
885.16711,0.10916
887.09558,0.11387
889.02405,0.12250
890.95252,0.12303
892.88099,0.11406
894.80946,0.10677
896.73793,0.10048
898.66640,0.09283
900.59486,0.09617
902.52333,0.10720
904.45180,0.11352
906.38027,0.11718
908.30874,0.11817
910.23721,0.11220
912.16568,0.10306
914.09414,0.10027
916.02261,0.10801
917.95108,0.11906
919.87955,0.12340
921.80802,0.11954
923.73649,0.11269
925.66496,0.10939
927.59343,0.11648
929.52189,0.12857
931.45036,0.12674
933.37883,0.11267
935.30730,0.10841
937.23577,0.11843
939.16424,0.12848
941.09271,0.12673
943.02117,0.11572
944.94964,0.10607
946.87811,0.09665
948.80658,0.08605
950.73505,0.08835
952.66352,0.10352
954.59199,0.11402
956.52045,0.11453
958.44892,0.11179
960.37739,0.11805
962.30586,0.13080
964.23433,0.13242
966.16280,0.12353
968.09127,0.11362
970.01974,0.10613
971.94820,0.10470
973.87667,0.10968
975.80514,0.11646
977.73361,0.12319
979.66208,0.13259
981.59055,0.14075
983.51902,0.13861
985.44748,0.12658
987.37595,0.11451
989.30442,0.11042
991.23289,0.11246
993.16136,0.11178
995.08983,0.10491
997.01830,0.10044
998.94677,0.10424
1000.87523,0.10713
1002.80370,0.10649
1004.73217,0.11175
1006.66064,0.12312
1008.58911,0.13000
1010.51758,0.12876
1012.44605,0.13019
1014.37451,0.13729
1016.30298,0.14251
1018.23145,0.13661
1020.15992,0.12013
1022.08839,0.11293
1024.01686,0.12065
1025.94533,0.11994
1027.87380,0.10161
1029.80226,0.10004
1031.73073,0.12290
1033.65920,0.12933
1035.58767,0.12003
1037.51614,0.11647
1039.44461,0.11781
1041.37308,0.12465
1043.30154,0.12750
1045.23001,0.11736
1047.15848,0.10980
1049.08695,0.11664
1051.01542,0.12975
1052.94389,0.13822
1054.87236,0.14453
1056.80083,0.15703
1058.72929,0.16353
1060.65776,0.15604
1062.58623,0.14846
1064.51470,0.14458
1066.44317,0.13924
1068.37164,0.13550
1070.30011,0.13672
1072.22857,0.13737
1074.15704,0.13506
1076.08551,0.13291
1078.01398,0.13064
1079.94245,0.13135
1081.87092,0.13947
1083.79939,0.14633
1085.72786,0.14005
1087.65632,0.13024
1089.58479,0.12872
1091.51326,0.12938
1093.44173,0.12910
1095.37020,0.13121
1097.29867,0.13069
1099.22714,0.12335
1101.15560,0.11889
1103.08407,0.12809
1105.01254,0.14255
1106.94101,0.14350
1108.86948,0.13379
1110.79795,0.12499
1112.72642,0.11851
1114.65489,0.12210
1116.58335,0.12940
1118.51182,0.12460
1120.44029,0.11867
1122.36876,0.12361
1124.29723,0.13179
1126.22570,0.13412
1128.15417,0.13047
1130.08263,0.12630
1132.01110,0.12734
1133.93957,0.13152
1135.86804,0.12952
1137.79651,0.12570
1139.72498,0.12979
1141.65345,0.13871
1143.58191,0.14680
1145.51038,0.14943
1147.43885,0.14732
1149.36732,0.14647
1151.29579,0.14693
1153.22426,0.14703
1155.15273,0.14644
1157.08120,0.14221
1159.00966,0.13777
1160.93813,0.14046
1162.86660,0.14526
1164.79507,0.14118
1166.72354,0.13054
1168.65201,0.12556
1170.58048,0.12885
1172.50894,0.13255
1174.43741,0.13237
1176.36588,0.13343
1178.29435,0.13969
1180.22282,0.14753
1182.15129,0.15252
1184.07976,0.15246
1186.00823,0.15039
1187.93669,0.14862
1189.86516,0.14692
1191.79363,0.14586
1193.72210,0.14552
1195.65057,0.14813
1197.57904,0.14748
1199.50751,0.13702
1201.43597,0.12760
1203.36444,0.12881
1205.29291,0.13420
1207.22138,0.13519
1209.14985,0.13599
1211.07832,0.14196
1213.00679,0.14809
1214.93526,0.15194
1216.86372,0.15646
1218.79219,0.15797
1220.72066,0.15321
1222.64913,0.15079
1224.57760,0.15384
1226.50607,0.15220
1228.43454,0.14655
1230.36300,0.14450
1232.29147,0.14410
1234.21994,0.14447
1236.14841,0.14782
1238.07688,0.15295
1240.00535,0.15564
1241.93382,0.15414
1243.86229,0.15047
1245.79075,0.14509
1247.71922,0.14103
1249.64769,0.14278
1251.57616,0.14825
1253.50463,0.15065
1255.43310,0.14847
1257.36157,0.14626
1259.29003,0.14618
1261.21850,0.14853
1263.14697,0.15069
1265.07544,0.15009
1267.00391,0.15001
1268.93238,0.15205
1270.86085,0.15390
1272.78932,0.15272
1274.71778,0.14858
1276.64625,0.14716
1278.57472,0.15154
1280.50319,0.15738
1282.43166,0.15970
1284.36013,0.15775
1286.28860,0.15474
1288.21706,0.15406
1290.14553,0.15547
1292.07400,0.15558
1294.00247,0.15260
1295.93094,0.15129
1297.85941,0.15494
1299.78788,0.15751
1301.71634,0.15313
1303.64481,0.14442
1305.57328,0.13979
1307.50175,0.14619
1309.43022,0.15739
1311.35869,0.16029
1313.28716,0.15760
1315.21563,0.15919
1317.14409,0.16303
1319.07256,0.16352
1321.00103,0.15971
1322.92950,0.15498
1324.85797,0.15511
1326.78644,0.16104
1328.71491,0.16464
1330.64337,0.16090
1332.57184,0.15333
1334.50031,0.14562
1336.42878,0.14609
1338.35725,0.15933
1340.28572,0.16650
1342.21419,0.15719
1344.14266,0.14631
1346.07112,0.14040
1347.99959,0.14108
1349.92806,0.14718
1351.85653,0.15069
1353.78500,0.15201
1355.71347,0.15507
1357.64194,0.15777
1359.57040,0.16178
1361.49887,0.16746
1363.42734,0.16705
1365.35581,0.16261
1367.28428,0.16064
1369.21275,0.15814
1371.14122,0.15680
1373.06969,0.16247
1374.99815,0.17107
1376.92662,0.17253
1378.85509,0.16823
1380.78356,0.16633
1382.71203,0.16873
1384.64050,0.17280
1386.56897,0.17661
1388.49743,0.17357
1390.42590,0.16780
1392.35437,0.17117
1394.28284,0.18089
1396.21131,0.18529
1398.13978,0.18188
1400.06825,0.17418
1401.99672,0.16814
1403.92518,0.16477
1405.85365,0.15889
1407.78212,0.15366
1409.71059,0.15654
1411.63906,0.16356
1413.56753,0.16799
1415.49600,0.17343
1417.42446,0.18123
1419.35293,0.18167
1421.28140,0.17690
1423.20987,0.17541
1425.13834,0.17448
1427.06681,0.17649
1428.99528,0.18061
1430.92375,0.17850
1432.85221,0.17600
1434.78068,0.18100
1436.70915,0.18195
1438.63762,0.16977
1440.56609,0.16225
1442.49456,0.16713
1444.42303,0.17692
1446.35149,0.18090
1448.27996,0.17549
1450.20843,0.17138
1452.13690,0.17959
1454.06537,0.19801
1455.99384,0.22252
1457.92231,0.22482
1459.85077,0.19605
1461.77924,0.18200
1463.70771,0.18615
1465.63618,0.18855
1467.56465,0.18337
1469.49312,0.18834
1471.42159,0.20640
1473.35006,0.21143
1475.27852,0.19191
1477.20699,0.17979
1479.13546,0.18113
1481.06393,0.18290
1482.99240,0.17938
1484.92087,0.18029
1486.84934,0.19159
1488.77780,0.20330
1490.70627,0.20121
1492.63474,0.19358
1494.56321,0.19247
1496.49168,0.20009
1498.42015,0.20353
1500.34862,0.19375
1502.27709,0.18680
1504.20555,0.19743
1506.13402,0.23318
1508.06249,0.24102
1509.99096,0.20890
1511.91943,0.19207
1513.84790,0.19556
1515.77637,0.21104
1517.70483,0.22270
1519.63330,0.23097
1521.56177,0.24215
1523.49024,0.23457
1525.41871,0.21825
1527.34718,0.20947
1529.27565,0.20579
1531.20412,0.20524
1533.13258,0.20481
1535.06105,0.20173
1536.98952,0.20643
1538.91799,0.22769
1540.84646,0.24851
1542.77493,0.23562
1544.70340,0.21089
1546.63186,0.19252
1548.56033,0.18905
1550.48880,0.19355
1552.41727,0.19532
1554.34574,0.19951
1556.27421,0.21977
1558.20268,0.25535
1560.13115,0.23832
1562.05961,0.20504
1563.98808,0.19650
1565.91655,0.19940
1567.84502,0.20530
1569.77349,0.20658
1571.70196,0.19863
1573.63043,0.19513
1575.55889,0.19838
1577.48736,0.19209
1579.41583,0.18178
1581.34430,0.18038
1583.27277,0.18242
1585.20124,0.18163
1587.12971,0.18149
1589.05818,0.18507
1590.98664,0.18894
1592.91511,0.18691
1594.84358,0.17847
1596.77205,0.17224
1598.70052,0.17218
1600.62899,0.17543
1602.55746,0.18010
1604.48592,0.18314
1606.41439,0.18549
1608.34286,0.18991
1610.27133,0.19065
1612.19980,0.18629
1614.12827,0.18852
1616.05674,0.20042
1617.98521,0.20160
1619.91367,0.19546
1621.84214,0.19685
1623.77061,0.20019
1625.69908,0.20015
1627.62755,0.19833
1629.55602,0.19405
1631.48449,0.19126
1633.41295,0.19664
1635.34142,0.21003
1637.26989,0.21087
1639.19836,0.20261
1641.12683,0.19803
1643.05530,0.19752
1644.98377,0.20603
1646.91223,0.21917
1648.84070,0.21781
1650.76917,0.22114
1652.69764,0.23876
1654.62611,0.22712
1656.55458,0.20442
1658.48305,0.19931
1660.41152,0.21112
1662.33998,0.22365
1664.26845,0.21359
1666.19692,0.20400
1668.12539,0.21583
1670.05386,0.22913
1671.98233,0.22371
1673.91080,0.21911
1675.83926,0.21521
1677.76773,0.21028
1679.69620,0.21348
1681.62467,0.22592
1683.55314,0.23955
1685.48161,0.22878
1687.41008,0.21235
1689.33855,0.20632
1691.26701,0.20060
1693.19548,0.19891
1695.12395,0.21207
1697.05242,0.23054
1698.98089,0.23758
1700.90936,0.23176
1702.83783,0.22091
1704.76629,0.21377
1706.69476,0.20364
1708.62323,0.19298
1710.55170,0.19168
1712.48017,0.20159
1714.40864,0.22000
1716.33711,0.23545
1718.26558,0.22515
1720.19404,0.20476
1722.12251,0.19370
1724.05098,0.18710
1725.97945,0.18151
1727.90792,0.18212
1729.83639,0.19150
1731.76486,0.20466
1733.69332,0.20991
1735.62179,0.19780
1737.55026,0.19138
1739.47873,0.19651
1741.40720,0.20309
1743.33567,0.20759
1745.26414,0.21121
1747.19261,0.21174
1749.12107,0.20508
1751.04954,0.19372
1752.97801,0.18975
1754.90648,0.19394
1756.83495,0.19790
1758.76342,0.19533
1760.69189,0.19316
1762.62035,0.19351
1764.54882,0.19122
1766.47729,0.19196
1768.40576,0.19947
1770.33423,0.20960
1772.26270,0.21424
1774.19117,0.20609
1776.11964,0.19437
1778.04810,0.18912
1779.97657,0.19208
1781.90504,0.19575
1783.83351,0.19593
1785.76198,0.19543
1787.69045,0.19590
1789.61892,0.20121
1791.54738,0.20966
1793.47585,0.20650
1795.40432,0.19544
1797.33279,0.19013
1799.26126,0.19047
1801.18973,0.18953
1803.11820,0.18352
1805.04666,0.17845
1806.97513,0.17908
1808.90360,0.18516
1810.83207,0.19149
1812.76054,0.18988
1814.68901,0.18470
1816.61748,0.18333
1818.54595,0.18425
1820.47441,0.18550
1822.40288,0.19036
1824.33135,0.19810
1826.25982,0.19942
1828.18829,0.19778
1830.11676,0.20011
1832.04523,0.19807
1833.97369,0.19247
1835.90216,0.18842
1837.83063,0.18376
1839.75910,0.18084
1841.68757,0.18624
1843.61604,0.19664
1845.54451,0.19836
1847.47298,0.19175
1849.40144,0.18471
1851.32991,0.17922
1853.25838,0.17689
1855.18685,0.17808
1857.11532,0.18074
1859.04379,0.18162
1860.97226,0.18042
1862.90072,0.18259
1864.82919,0.19109
1866.75766,0.20080
1868.68613,0.20385
1870.61460,0.19741
1872.54307,0.18860
1874.47154,0.18326
1876.40001,0.18206
1878.32847,0.18309
1880.25694,0.18336
1882.18541,0.18063
1884.11388,0.17701
1886.04235,0.17834
1887.97082,0.18656
1889.89929,0.19437
1891.82775,0.19507
1893.75622,0.19232
1895.68469,0.18804
1897.61316,0.18159
1899.54163,0.17672
1901.47010,0.17758
1903.39857,0.18434
1905.32704,0.19215
1907.25550,0.19537
1909.18397,0.19289
1911.11244,0.18680
1913.04091,0.18268
1914.96938,0.18601
1916.89785,0.19219
1918.82632,0.19200
1920.75478,0.19004
1922.68325,0.19121
1924.61172,0.18802
1926.54019,0.18071
1928.46866,0.17771
1930.39713,0.18102
1932.32560,0.18495
1934.25407,0.18470
1936.18253,0.18281
1938.11100,0.18275
1940.03947,0.18507
1941.96794,0.18878
1943.89641,0.19206
1945.82488,0.19339
1947.75335,0.19279
1949.68181,0.19171
1951.61028,0.18996
1953.53875,0.18681
1955.46722,0.18237
1957.39569,0.17849
1959.32416,0.17863
1961.25263,0.18247
1963.18110,0.18781
1965.10956,0.19329
1967.03803,0.19445
1968.96650,0.18988
1970.89497,0.18678
1972.82344,0.18809
1974.75191,0.18824
1976.68038,0.18436
1978.60884,0.18160
1980.53731,0.18302
1982.46578,0.18504
1984.39425,0.18597
1986.32272,0.18661
1988.25119,0.18775
1990.17966,0.19075
1992.10812,0.19229
1994.03659,0.19000
1995.96506,0.18984
1997.89353,0.19074
1999.82200,0.18655
2001.75047,0.18314
2003.67894,0.18527
2005.60741,0.18678
2007.53587,0.18601
2009.46434,0.18585
2011.39281,0.18522
2013.32128,0.18420
2015.24975,0.18508
2017.17822,0.18637
2019.10669,0.18525
2021.03515,0.18465
2022.96362,0.18751
2024.89209,0.18956
2026.82056,0.18837
2028.74903,0.18595
2030.67750,0.18292
2032.60597,0.18156
2034.53444,0.18221
2036.46290,0.18243
2038.39137,0.18399
2040.31984,0.18712
2042.24831,0.18784
2044.17678,0.18683
2046.10525,0.18671
2048.03372,0.18784
2049.96218,0.19003
2051.89065,0.19125
2053.81912,0.19173
2055.74759,0.19276
2057.67606,0.19228
2059.60453,0.18986
2061.53300,0.18683
2063.46147,0.18461
2065.38993,0.18494
2067.31840,0.18770
2069.24687,0.19048
2071.17534,0.19089
2073.10381,0.18862
2075.03228,0.18576
2076.96075,0.18646
2078.88921,0.19147
2080.81768,0.19342
2082.74615,0.18861
2084.67462,0.18488
2086.60309,0.18794
2088.53156,0.19263
2090.46003,0.19265
2092.38850,0.18910
2094.31696,0.18731
2096.24543,0.18818
2098.17390,0.18849
2100.10237,0.18828
2102.03084,0.18950
2103.95931,0.19009
2105.88778,0.18775
2107.81624,0.18521
2109.74471,0.18509
2111.67318,0.18650
2113.60165,0.18751
2115.53012,0.18688
2117.45859,0.18672
2119.38706,0.18834
2121.31553,0.18851
2123.24399,0.18817
2125.17246,0.19076
2127.10093,0.19331
2129.02940,0.19281
2130.95787,0.19151
2132.88634,0.19117
2134.81481,0.19194
2136.74327,0.19275
2138.67174,0.19094
2140.60021,0.18792
2142.52868,0.18917
2144.45715,0.19416
2146.38562,0.19667
2148.31409,0.19437
2150.24255,0.18986
2152.17102,0.18667
2154.09949,0.18658
2156.02796,0.19008
2157.95643,0.19430
2159.88490,0.19304
2161.81337,0.18901
2163.74184,0.18995
2165.67030,0.19263
2167.59877,0.19121
2169.52724,0.18820
2171.45571,0.18749
2173.38418,0.18913
2175.31265,0.19159
2177.24112,0.19404
2179.16958,0.19625
2181.09805,0.19782
2183.02652,0.19714
2184.95499,0.19302
2186.88346,0.18766
2188.81193,0.18520
2190.74040,0.18703
2192.66887,0.18953
2194.59733,0.19049
2196.52580,0.19315
2198.45427,0.19780
2200.38274,0.19995
2202.31121,0.19881
2204.23968,0.19767
2206.16815,0.19701
2208.09661,0.19535
2210.02508,0.19303
2211.95355,0.19261
2213.88202,0.19437
2215.81049,0.19487
2217.73896,0.19406
2219.66743,0.19268
2221.59590,0.19004
2223.52436,0.18801
2225.45283,0.18796
2227.38130,0.18920
2229.30977,0.19086
2231.23824,0.19228
2233.16671,0.19276
2235.09518,0.19159
2237.02364,0.19043
2238.95211,0.19164
2240.88058,0.19292
2242.80905,0.19305
2244.73752,0.19307
2246.66599,0.19128
2248.59446,0.19070
2250.52293,0.19354
2252.45139,0.19493
2254.37986,0.19346
2256.30833,0.19231
2258.23680,0.19259
2260.16527,0.19238
2262.09374,0.19068
2264.02221,0.18812
2265.95067,0.18544
2267.87914,0.18428
2269.80761,0.18663
2271.73608,0.19122
2273.66455,0.19320
2275.59302,0.19147
2277.52149,0.18918
2279.44996,0.18838
2281.37842,0.18941
2283.30689,0.19201
2285.23536,0.19567
2287.16383,0.19829
2289.09230,0.19840
2291.02077,0.19951
2292.94924,0.20498
2294.87770,0.21043
2296.80617,0.20976
2298.73464,0.20501
2300.66311,0.20150
2302.59158,0.20015
2304.52005,0.19949
2306.44852,0.19954
2308.37699,0.20268
2310.30545,0.20842
2312.23392,0.21143
2314.16239,0.21070
2316.09086,0.21003
2318.01933,0.21238
2319.94780,0.22124
2321.87627,0.23389
2323.80473,0.23840
2325.73320,0.23289
2327.66167,0.22466
2329.59014,0.21918
2331.51861,0.22590
2333.44708,0.24126
2335.37555,0.24809
2337.30401,0.24660
2339.23248,0.24929
2341.16095,0.25427
2343.08942,0.25123
2345.01789,0.23706
2346.94636,0.22124
2348.87483,0.21748
2350.80330,0.22515
2352.73176,0.23577
2354.66023,0.24308
2356.58870,0.24521
2358.51717,0.25320
2360.44564,0.26961
2362.37411,0.26959
2364.30258,0.26207
2366.23104,0.26155
2368.15951,0.25537
2370.08798,0.23996
2372.01645,0.22343
2373.94492,0.21356
2375.87339,0.20934
2377.80186,0.20730
2379.73033,0.20664
2381.65879,0.20507
2383.58726,0.20226
2385.51573,0.19999
2387.44420,0.19873
2389.37267,0.19821
2391.30114,0.19835
2393.22961,0.19785
2395.15807,0.19488
2397.08654,0.19255
2399.01501,0.19284
2400.94348,0.19242
2402.87195,0.19316
2404.80042,0.19770
2406.72889,0.20041
2408.65736,0.19629
2410.58582,0.18832
2412.51429,0.18373
2414.44276,0.18678
2416.37123,0.19219
2418.29970,0.19173
2420.22817,0.18781
2422.15664,0.18814
2424.08510,0.19279
2426.01357,0.19577
2427.94204,0.19452
2429.87051,0.19112
2431.79898,0.18903
2433.72745,0.19079
2435.65592,0.19322
2437.58439,0.19293
2439.51285,0.19103
2441.44132,0.18926
2443.36979,0.18933
2445.29826,0.19135
2447.22673,0.19114
2449.15520,0.19036
2451.08367,0.21057
2453.01213,0.25257
2454.94060,0.26315
2456.86907,0.22532
2458.79754,0.19691
2460.72601,0.19876
2462.65448,0.19943
2464.58295,0.19350
2466.51142,0.19147
2468.43988,0.19302
2470.36835,0.19439
2472.29682,0.19172
2474.22529,0.18799
2476.15376,0.18874
2478.08223,0.19200
2480.01070,0.19428
2481.93916,0.19537
2483.86763,0.19464
2485.79610,0.19439
2487.72457,0.19770
2489.65304,0.20015
2491.58151,0.19877
2493.50998,0.19771
2495.43844,0.19790
2497.36691,0.19820
2499.29538,0.19934
2501.22385,0.19893
2503.15232,0.19707
2505.08079,0.19708
2507.00926,0.19569
2508.93773,0.19144
2510.86619,0.18992
2512.79466,0.19228
2514.72313,0.19494
2516.65160,0.19600
2518.58007,0.19637
2520.50854,0.19697
2522.43701,0.19715
2524.36547,0.19629
2526.29394,0.19376
2528.22241,0.19213
2530.15088,0.19459
2532.07935,0.19709
2534.00782,0.19528
2535.93629,0.19350
2537.86476,0.19638
2539.79322,0.19913
2541.72169,0.19723
2543.65016,0.19654
2545.57863,0.19971
2547.50710,0.19978
2549.43557,0.19590
2551.36404,0.19334
2553.29250,0.19278
2555.22097,0.19289
2557.14944,0.19354
2559.07791,0.19345
2561.00638,0.19143
2562.93485,0.19183
2564.86332,0.19698
2566.79179,0.20044
2568.72025,0.19907
2570.64872,0.19662
2572.57719,0.19505
2574.50566,0.19492
2576.43413,0.19829
2578.36260,0.20221
2580.29107,0.20194
2582.21953,0.19998
2584.14800,0.19924
2586.07647,0.19886
2588.00494,0.19879
2589.93341,0.20047
2591.86188,0.20273
2593.79035,0.20097
2595.71882,0.19540
2597.64728,0.19228
2599.57575,0.19544
2601.50422,0.20141
2603.43269,0.20399
2605.36116,0.20332
2607.28963,0.20337
2609.21810,0.20384
2611.14656,0.20310
2613.07503,0.20242
2615.00350,0.20205
2616.93197,0.19923
2618.86044,0.19560
2620.78891,0.19498
2622.71738,0.19522
2624.64585,0.19640
2626.57431,0.19929
2628.50278,0.20034
2630.43125,0.19911
2632.35972,0.19621
2634.28819,0.19412
2636.21666,0.19623
2638.14513,0.19985
2640.07359,0.20158
2642.00206,0.20133
2643.93053,0.20237
2645.85900,0.20553
2647.78747,0.20443
2649.71594,0.19883
2651.64441,0.19706
2653.57288,0.20057
2655.50134,0.20339
2657.42981,0.20380
2659.35828,0.20445
2661.28675,0.20481
2663.21522,0.20281
2665.14369,0.20204
2667.07216,0.20618
2669.00062,0.20868
2670.92909,0.20415
2672.85756,0.19963
2674.78603,0.19992
2676.71450,0.20130
2678.64297,0.20149
2680.57144,0.20279
2682.49990,0.20503
2684.42837,0.20334
2686.35684,0.19996
2688.28531,0.20005
2690.21378,0.19967
2692.14225,0.19858
2694.07072,0.20029
2695.99919,0.20166
2697.92765,0.20237
2699.85612,0.20314
2701.78459,0.20106
2703.71306,0.19939
2705.64153,0.20028
2707.57000,0.19988
2709.49847,0.20093
2711.42693,0.20587
2713.35540,0.20827
2715.28387,0.20465
2717.21234,0.20041
2719.14081,0.20165
2721.06928,0.20567
2722.99775,0.20605
2724.92622,0.20315
2726.85468,0.20245
2728.78315,0.20580
2730.71162,0.20909
2732.64009,0.20791
2734.56856,0.20118
2736.49703,0.19539
2738.42550,0.19816
2740.35396,0.20541
2742.28243,0.20737
2744.21090,0.20297
2746.13937,0.19919
2748.06784,0.19972
2749.99631,0.20423
2751.92478,0.20950
2753.85325,0.21166
2755.78171,0.21179
2757.71018,0.21268
2759.63865,0.21389
2761.56712,0.21100
2763.49559,0.20587
2765.42406,0.20620
2767.35253,0.21182
2769.28099,0.21720
2771.20946,0.21979
2773.13793,0.21874
2775.06640,0.21394
2776.99487,0.21104
2778.92334,0.21231
2780.85181,0.21174
2782.78028,0.21016
2784.70874,0.21177
2786.63721,0.21277
2788.56568,0.21003
2790.49415,0.20719
2792.42262,0.20606
2794.35109,0.20555
2796.27956,0.20772
2798.20802,0.21186
2800.13649,0.21300
2802.06496,0.21331
2803.99343,0.21537
2805.92190,0.21303
2807.85037,0.20710
2809.77884,0.20702
2811.70731,0.21233
2813.63577,0.21399
2815.56424,0.21100
2817.49271,0.20893
2819.42118,0.20812
2821.34965,0.20767
2823.27812,0.20880
2825.20659,0.21122
2827.13505,0.21440
2829.06352,0.21486
2830.99199,0.21033
2832.92046,0.20754
2834.84893,0.20937
2836.77740,0.21065
2838.70587,0.21059
2840.63433,0.20994
2842.56280,0.20949
2844.49127,0.21228
2846.41974,0.21736
2848.34821,0.21965
2850.27668,0.21541
2852.20515,0.20779
2854.13362,0.20531
2856.06208,0.20976
2857.99055,0.21444
2859.91902,0.21578
2861.84749,0.21725
2863.77596,0.22199
2865.70443,0.22349
2867.63290,0.21571
2869.56136,0.20868
2871.48983,0.21143
2873.41830,0.21665
2875.34677,0.21794
2877.27524,0.21795
2879.20371,0.21729
2881.13218,0.21513
2883.06065,0.21310
2884.98911,0.21403
2886.91758,0.21884
2888.84605,0.22284
2890.77452,0.22382
2892.70299,0.22177
2894.63146,0.21404
2896.55993,0.20647
2898.48839,0.20688
2900.41686,0.21101
2902.34533,0.21289
2904.27380,0.21145
2906.20227,0.20634
2908.13074,0.20284
2910.05921,0.20562
2911.98768,0.20824
2913.91614,0.20475
2915.84461,0.20015
2917.77308,0.20130
2919.70155,0.20519
2921.63002,0.20751
2923.55849,0.20657
2925.48696,0.20840
2927.41542,0.22846
2929.34389,0.24619
2931.27236,0.23034
2933.20083,0.20947
2935.12930,0.21013
2937.05777,0.21586
2938.98624,0.22073
2940.91471,0.22354
2942.84317,0.21888
2944.77164,0.21177
2946.70011,0.20679
2948.62858,0.20618
2950.55705,0.20897
2952.48552,0.21225
2954.41399,0.21272
2956.34245,0.20701
2958.27092,0.20220
2960.19939,0.20593
2962.12786,0.21309
2964.05633,0.21583
2965.98480,0.21257
2967.91327,0.20712
2969.84174,0.20725
2971.77020,0.21475
2973.69867,0.22104
2975.62714,0.22039
2977.55561,0.21710
2979.48408,0.21864
2981.41255,0.22393
2983.34102,0.22715
2985.26948,0.22557
2987.19795,0.21839
2989.12642,0.21196
2991.05489,0.21333
2992.98336,0.21823
2994.91183,0.22025
2996.84030,0.22001
2998.76877,0.22072
3000.69723,0.22298
3002.62570,0.22226
3004.55417,0.21659
3006.48264,0.21377
3008.41111,0.21646
3010.33958,0.21473
3012.26805,0.20484
3014.19651,0.19054
3016.12498,0.17609
3018.05345,0.17862
3019.98192,0.20182
3021.91039,0.22063
3023.83886,0.22529
3025.76733,0.22615
3027.69579,0.22862
3029.62426,0.23104
3031.55273,0.23168
3033.48120,0.22864
3035.40967,0.22094
3037.33814,0.21476
3039.26661,0.21519
3041.19508,0.21881
3043.12354,0.22018
3045.05201,0.21898
3046.98048,0.21756
3048.90895,0.21710
3050.83742,0.21824
3052.76589,0.22120
3054.69436,0.22330
3056.62282,0.22129
3058.55129,0.22007
3060.47976,0.22106
3062.40823,0.22013
3064.33670,0.21689
3066.26517,0.21114
3068.19364,0.21119
3070.12211,0.21986
3072.05057,0.22395
3073.97904,0.21798
3075.90751,0.21184
3077.83598,0.21505
3079.76445,0.22117
3081.69292,0.21874
3083.62139,0.21036
3085.54985,0.20763
3087.47832,0.21405
3089.40679,0.22285
3091.33526,0.22662
3093.26373,0.22192
3095.19220,0.21614
3097.12067,0.21826
3099.04914,0.22468
3100.97760,0.22715
3102.90607,0.21864
3104.83454,0.20772
3106.76301,0.21098
3108.69148,0.22010
3110.61995,0.21837
3112.54842,0.20854
3114.47688,0.20212
3116.40535,0.20475
3118.33382,0.21402
3120.26229,0.22303
3122.19076,0.22654
3124.11923,0.22827
3126.04770,0.23112
3127.97617,0.23004
3129.90463,0.22607
3131.83310,0.22216
3133.76157,0.21882
3135.69004,0.22097
3137.61851,0.22430
3139.54698,0.22327
3141.47545,0.22498
3143.40391,0.22628
3145.33238,0.21995
3147.26085,0.21272
3149.18932,0.21208
3151.11779,0.21744
3153.04626,0.22329
3154.97473,0.22648
3156.90320,0.22624
3158.83166,0.22498
3160.76013,0.22689
3162.68860,0.22968
3164.61707,0.22953
3166.54554,0.22743
3168.47401,0.22583
3170.40248,0.22565
3172.33094,0.22693
3174.25941,0.22819
3176.18788,0.22584
3178.11635,0.21845
3180.04482,0.21249
3181.97329,0.21513
3183.90176,0.22396
3185.83022,0.22771
3187.75869,0.21775
3189.68716,0.20811
3191.61563,0.21210
3193.54410,0.21806
3195.47257,0.22026
3197.40104,0.22453
3199.32951,0.22824
3201.25797,0.22628
3203.18644,0.21963
3205.11491,0.21575
3207.04338,0.22036
3208.97185,0.22790
3210.90032,0.23205
3212.82879,0.23472
3214.75725,0.23570
3216.68572,0.23333
3218.61419,0.23031
3220.54266,0.22783
3222.47113,0.22536
3224.39960,0.22311
3226.32807,0.21787
3228.25654,0.20954
3230.18500,0.20796
3232.11347,0.21653
3234.04194,0.22649
3235.97041,0.23021
3237.89888,0.22854
3239.82735,0.22604
3241.75582,0.22260
3243.68428,0.21982
3245.61275,0.22097
3247.54122,0.22572
3249.46969,0.23091
3251.39816,0.22792
3253.32663,0.21767
3255.25510,0.21319
3257.18357,0.21689
3259.11203,0.22142
3261.04050,0.22387
3262.96897,0.22539
3264.89744,0.22649
3266.82591,0.22738
3268.75438,0.22695
3270.68285,0.22625
3272.61131,0.22700
3274.53978,0.22619
3276.46825,0.22420
3278.39672,0.22316
3280.32519,0.22245
3282.25366,0.22527
3284.18213,0.23089
3286.11060,0.22918
3288.03906,0.21831
3289.96753,0.20909
3291.89600,0.20797
3293.82447,0.21168
3295.75294,0.21490
3297.68141,0.21746
3299.60988,0.21933
3301.53834,0.21818
3303.46681,0.21482
3305.39528,0.21112
3307.32375,0.21170
3309.25222,0.21932
3311.18069,0.22688
3313.10916,0.22625
3315.03763,0.21809
3316.96609,0.21167
3318.89456,0.21336
3320.82303,0.21896
3322.75150,0.22271
3324.67997,0.22482
3326.60844,0.22730
3328.53691,0.22930
3330.46537,0.23029
3332.39384,0.22977
3334.32231,0.22571
3336.25078,0.22009
3338.17925,0.21908
3340.10772,0.22417
3342.03619,0.22987
3343.96466,0.23111
3345.89312,0.22724
3347.82159,0.22200
3349.75006,0.22242
3351.67853,0.23077
3353.60700,0.23561
3355.53547,0.22664
3357.46394,0.21438
3359.39240,0.21095
3361.32087,0.21630
3363.24934,0.22754
3365.17781,0.23615
3367.10628,0.23388
3369.03475,0.22508
3370.96322,0.21988
3372.89168,0.21769
3374.82015,0.21361
3376.74862,0.21338
3378.67709,0.21691
3380.60556,0.21701
3382.53403,0.21977
3384.46250,0.22772
3386.39097,0.23266
3388.31943,0.23468
3390.24790,0.23120
3392.17637,0.22280
3394.10484,0.22317
3396.03331,0.22914
3397.96178,0.22956
3399.89025,0.22724
3401.81871,0.22049
3403.74718,0.21148
3405.67565,0.21438
3407.60412,0.22326
3409.53259,0.22064
3411.46106,0.21307
3413.38953,0.21288
3415.31800,0.21680
3417.24646,0.22098
3419.17493,0.22471
3421.10340,0.22590
3423.03187,0.22666
3424.96034,0.22712
3426.88881,0.22268
3428.81728,0.21511
3430.74574,0.20949
3432.67421,0.20363
3434.60268,0.19680
3436.53115,0.19775
3438.45962,0.20504
3440.38809,0.20680
3442.31656,0.20653
3444.24503,0.21459
3446.17349,0.22478
3448.10196,0.22385
3450.03043,0.21231
3451.95890,0.20008
3453.88737,0.19490
3455.81584,0.19710
3457.74431,0.20106
3459.67277,0.20411
3461.60124,0.20368
3463.52971,0.19919
3465.45818,0.19641
3467.38665,0.19873
3469.31512,0.20416
3471.24359,0.20790
3473.17206,0.20649
3475.10052,0.20304
3477.02899,0.20160
3478.95746,0.20268
3480.88593,0.20837
3482.81440,0.21564
3484.74287,0.21444
3486.67134,0.20304
3488.59980,0.19087
3490.52827,0.18762
3492.45674,0.19266
3494.38521,0.19912
3496.31368,0.20249
3498.24215,0.20302
3500.17062,0.20211
3502.09909,0.19800
3504.02755,0.18969
3505.95602,0.18309
3507.88449,0.18432
3509.81296,0.19170
3511.74143,0.19344
3513.66990,0.18524
3515.59837,0.18031
3517.52683,0.18306
3519.45530,0.18391
3521.38377,0.18376
3523.31224,0.18701
3525.24071,0.19124
3527.16918,0.19570
3529.09765,0.19353
3531.02611,0.18201
3532.95458,0.17419
3534.88305,0.17554
3536.81152,0.17828
3538.73999,0.17804
3540.66846,0.17992
3542.59693,0.18679
3544.52540,0.19526
3546.45386,0.19779
3548.38233,0.18929
3550.31080,0.17799
3552.23927,0.17337
3554.16774,0.17546
3556.09621,0.17809
3558.02468,0.17705
3559.95314,0.17440
3561.88161,0.17516
3563.81008,0.18039
3565.73855,0.18558
3567.66702,0.18347
3569.59549,0.17663
3571.52396,0.17113
3573.45243,0.16779
3575.38089,0.16903
3577.30936,0.17162
3579.23783,0.16795
3581.16630,0.16052
3583.09477,0.15908
3585.02324,0.16472
3586.95171,0.16916
3588.88017,0.16741
3590.80864,0.16500
3592.73711,0.16495
3594.66558,0.16121
3596.59405,0.15232
3598.52252,0.14980
3600.45099,0.15367
3602.37946,0.15765
3604.30792,0.16499
3606.23639,0.17676
3608.16486,0.18301
3610.09333,0.17728
3612.02180,0.16917
3613.95027,0.16518
3615.87874,0.17109
3617.80720,0.18525
3619.73567,0.18690
3621.66414,0.17155
3623.59261,0.16215
3625.52108,0.16469
3627.44955,0.17289
3629.37802,0.16973
3631.30649,0.15571
3633.23495,0.14937
3635.16342,0.14785
3637.09189,0.14777
3639.02036,0.14982
3640.94883,0.15150
3642.87730,0.15191
3644.80577,0.15602
3646.73423,0.16701
3648.66270,0.17419
3650.59117,0.15979
3652.51964,0.14554
3654.44811,0.14685
3656.37658,0.15620
3658.30505,0.15680
3660.23352,0.14840
3662.16198,0.14068
3664.09045,0.13992
3666.01892,0.14602
3667.94739,0.15569
3669.87586,0.16236
3671.80433,0.15956
3673.73280,0.15881
3675.66126,0.16068
3677.58973,0.15492
3679.51820,0.14589
3681.44667,0.13911
3683.37514,0.13874
3685.30361,0.14570
3687.23208,0.15824
3689.16055,0.16589
3691.08901,0.15830
3693.01748,0.14922
3694.94595,0.14081
3696.87442,0.13379
3698.80289,0.13515
3700.73136,0.13960
3702.65983,0.13599
3704.58829,0.12885
3706.51676,0.13029
3708.44523,0.14655
3710.37370,0.16895
3712.30217,0.16814
3714.23064,0.15231
3716.15911,0.14580
3718.08757,0.14696
3720.01604,0.15047
3721.94451,0.15009
3723.87298,0.14341
3725.80145,0.13627
3727.72992,0.13443
3729.65839,0.14169
3731.58686,0.15730
3733.51532,0.17632
3735.44379,0.18915
3737.37226,0.17937
3739.30073,0.15535
3741.22920,0.14114
3743.15767,0.14899
3745.08614,0.16693
3747.01460,0.17305
3748.94307,0.18522
3750.87154,0.19896
3752.80001,0.17807
3754.72848,0.15107
3756.65695,0.14006
3758.58542,0.13726
3760.51389,0.13198
3762.44235,0.12515
3764.37082,0.12345
3766.29929,0.12658
3768.22776,0.13014
3770.15623,0.13281
3772.08470,0.13199
3774.01317,0.13122
3775.94163,0.13220
3777.87010,0.12993
3779.79857,0.12484
3781.72704,0.12400
3783.65551,0.12737
3785.58398,0.13034
3787.51245,0.13098
3789.44092,0.12968
3791.36938,0.12533
3793.29785,0.11963
3795.22632,0.12013
3797.15479,0.13120
3799.08326,0.14849
3801.01173,0.16271
3802.94020,0.15607
3804.86866,0.14431
3806.79713,0.13921
3808.72560,0.13206
3810.65407,0.12514
3812.58254,0.12608
3814.51101,0.14096
3816.43948,0.15937
3818.36795,0.16683
3820.29641,0.17505
3822.22488,0.17216
3824.15335,0.15786
3826.08182,0.14529
3828.01029,0.13042
3829.93876,0.11994
3831.86723,0.12044
3833.79569,0.12281
3835.72416,0.11934
3837.65263,0.11745
3839.58110,0.12222
3841.50957,0.13073
3843.43804,0.13862
3845.36651,0.13897
3847.29498,0.13722
3849.22344,0.14161
3851.15191,0.15323
3853.08038,0.16562
3855.00885,0.15640
3856.93732,0.14061
3858.86579,0.13094
3860.79426,0.12703
3862.72272,0.13093
3864.65119,0.13905
3866.57966,0.14215
3868.50813,0.13601
3870.43660,0.12270
3872.36507,0.11937
3874.29354,0.12331
3876.22200,0.11962
3878.15047,0.11675
3880.07894,0.12637
3882.00741,0.13807
3883.93588,0.13729
3885.86435,0.12809
3887.79282,0.12442
3889.72129,0.12984
3891.64975,0.13070
3893.57822,0.12179
3895.50669,0.11709
3897.43516,0.12067
3899.36363,0.13048
3901.29210,0.13655
3903.22057,0.13003
3905.14903,0.12054
3907.07750,0.11916
3909.00597,0.12334
3910.93444,0.12429
3912.86291,0.11910
3914.79138,0.11298
3916.71985,0.10878
3918.64832,0.10553
3920.57678,0.10194
3922.50525,0.10031
3924.43372,0.10146
3926.36219,0.10309
3928.29066,0.10973
3930.21913,0.12217
3932.14760,0.12565
3934.07606,0.11358
3936.00453,0.10130
3937.93300,0.09852
3939.86147,0.10304
3941.78994,0.10883
3943.71841,0.11152
3945.64688,0.11277
3947.57535,0.11342
3949.50381,0.10812
3951.43228,0.09892
3953.36075,0.09506
3955.28922,0.10000
3957.21769,0.10864
3959.14616,0.11130
3961.07463,0.10961
3963.00309,0.10969
3964.93156,0.10658
3966.86003,0.10161
3968.78850,0.10491
3970.71697,0.11321
3972.64544,0.11372
3974.57391,0.10493
3976.50238,0.09905
3978.43084,0.10353
3980.35931,0.11068
3982.28778,0.11315
3984.21625,0.11107
3986.14472,0.10763
3988.07319,0.10846
3990.00166,0.11180
3991.93012,0.10859
3993.85859,0.09914
3995.78706,0.09209
3997.71553,0.09234
3999.64400,0.09896
4001.57247,0.10472
4003.50094,0.10195
4005.42941,0.09263
4007.35787,0.08498
4009.28634,0.08446
4011.21481,0.08782
4013.14328,0.08871
4015.07175,0.08872
4017.00022,0.09214
4018.92869,0.09768
4020.85715,0.10187
4022.78562,0.10063
4024.71409,0.09337
4026.64256,0.08758
4028.57103,0.08710
4030.49950,0.08758
4032.42797,0.08728
4034.35644,0.08867
4036.28490,0.09259
4038.21337,0.09736
4040.14184,0.09923
4042.07031,0.09516
4043.99878,0.09096
4045.92725,0.09466
4047.85572,0.10253
4049.78418,0.10301
4051.71265,0.09384
4053.64112,0.08779
4055.56959,0.08995
4057.49806,0.09138
4059.42653,0.09180
4061.35500,0.09248
4063.28346,0.08739
4065.21193,0.08186
4067.14040,0.08268
4069.06887,0.08396
4070.99734,0.08357
4072.92581,0.08421
4074.85428,0.08412
4076.78275,0.08359
4078.71121,0.08583
4080.63968,0.09080
4082.56815,0.09405
4084.49662,0.09311
4086.42509,0.09216
4088.35356,0.09266
4090.28203,0.09081
4092.21049,0.08569
4094.13896,0.07890
4096.06743,0.07383
4097.99590,0.07436
4099.92437,0.07849
4101.85284,0.08170
4103.78131,0.08255
4105.70978,0.07840
4107.63824,0.07359
4109.56671,0.07794
4111.49518,0.08617
4113.42365,0.08630
4115.35212,0.07926
4117.28059,0.07543
4119.20906,0.07686
4121.13752,0.07739
4123.06599,0.07701
4124.99446,0.07912
4126.92293,0.08247
4128.85140,0.08333
4130.77987,0.08254
4132.70834,0.08243
4134.63681,0.08277
4136.56527,0.08174
4138.49374,0.07515
4140.42221,0.06533
4142.35068,0.06414
4144.27915,0.07597
4146.20762,0.08726
4148.13609,0.08943
4150.06455,0.09041
4151.99302,0.08882
4153.92149,0.08002
4155.84996,0.07342
4157.77843,0.07250
4159.70690,0.06765
4161.63537,0.05848
4163.56384,0.05514
4165.49230,0.05648
4167.42077,0.05863
4169.34924,0.06889
4171.27771,0.08313
4173.20618,0.08521
4175.13465,0.07523
4177.06312,0.06583
4178.99158,0.06250
4180.92005,0.06236
4182.84852,0.06289
4184.77699,0.06538
4186.70546,0.06824
4188.63393,0.06494
4190.56240,0.05790
4192.49087,0.05627
4194.41933,0.05814
4196.34780,0.05805
4198.27627,0.05885
4200.20474,0.06164
4202.13321,0.06074
4204.06168,0.05772
4205.99015,0.06193
4207.91861,0.06933
4209.84708,0.06705
4211.77555,0.06042
4213.70402,0.06069
4215.63249,0.05997
4217.56096,0.05316
4219.48943,0.04981
4221.41789,0.05269
4223.34636,0.05841
4225.27483,0.06154
4227.20330,0.06009
4229.13177,0.05952
4231.06024,0.05706
4232.98871,0.05069
4234.91718,0.04789
4236.84564,0.05042
4238.77411,0.05447
4240.70258,0.05589
4242.63105,0.05332
4244.55952,0.04881
4246.48799,0.04312
4248.41646,0.03904
4250.34492,0.04257
4252.27339,0.05473
4254.20186,0.06693
4256.13033,0.06835
4258.05880,0.05998
4259.98727,0.05197
4261.91574,0.04913
4263.84421,0.04977
4265.77267,0.05253
4267.70114,0.05322
4269.62961,0.04811
4271.55808,0.04637
4273.48655,0.05289
4275.41502,0.05660
4277.34349,0.05298
4279.27195,0.04901
4281.20042,0.05051
4283.12889,0.05455
4285.05736,0.05029
4286.98583,0.03532
4288.91430,0.02165
4290.84277,0.01694
4292.77124,0.02079
4294.69970,0.03016
4296.62817,0.03447
4298.55664,0.03023
4300.48511,0.02949
4302.41358,0.03490
4304.34205,0.03349
4306.27052,0.02657
4308.19898,0.02574
4310.12745,0.02891
4312.05592,0.03499
4313.98439,0.04151
4315.91286,0.03751
4317.84133,0.02530
4319.76980,0.02174
4321.69827,0.03120
4323.62673,0.03912
4325.55520,0.04027
4327.48367,0.04404
4329.41214,0.04848
4331.34061,0.04048
4333.26908,0.02624
4335.19755,0.02341
4337.12601,0.02917
4339.05448,0.03311
4340.98295,0.03214
4342.91142,0.02497
4344.83989,0.01619
4346.76836,0.01695
4348.69683,0.02800
4350.62530,0.03584
4352.55376,0.03423
4354.48223,0.02661
4356.41070,0.01561
4358.33917,0.00604
4360.26764,0.00693
4362.19611,0.02056
4364.12458,0.03169
4366.05304,0.02992
4367.98151,0.02746
4369.90998,0.03047
4371.83845,0.03143
4373.76692,0.02885
4375.69539,0.02186
4377.62386,0.01228
4379.55232,0.01133
4381.48079,0.01758
4383.40926,0.01974
4385.33773,0.01932
4387.26620,0.01951
4389.19467,0.01482
4391.12314,0.00720
4393.05161,0.00672
4394.98007,0.00804
4396.90854,0.00234
4398.83701,0.00148
4400.76548,0.00898
4402.69395,0.01204
4404.62242,0.01134
4406.55089,0.01573
4408.47935,0.02414
4410.40782,0.02468
4412.33629,0.01107
4414.26476,-0.00451
4416.19323,-0.00880
4418.12170,-0.00108
4420.05017,0.00918
4421.97864,0.01015
4423.90710,0.00533
4425.83557,0.00355
4427.76404,0.00083
4429.69251,-0.00501
4431.62098,-0.00676
4433.54945,-0.00060
4435.47792,0.00284
4437.40638,-0.00176
4439.33485,0.00119
4441.26332,0.01129
4443.19179,0.01111
4445.12026,0.00373
4447.04873,0.00552
4448.97720,0.01683
4450.90567,0.01939
4452.83413,0.00870
4454.76260,-0.00116
4456.69107,-0.00478
4458.61954,-0.00059
4460.54801,0.00712
4462.47648,0.00668
4464.40495,0.00030
4466.33341,-0.00287
4468.26188,0.00020
4470.19035,0.00813
4472.11882,0.01143
4474.04729,0.00602
4475.97576,0.00257
4477.90423,0.00698
4479.83270,0.01504
4481.76116,0.02073
4483.68963,0.02348
4485.61810,0.02097
4487.54657,0.00703
4489.47504,-0.00668
4491.40351,-0.01120
4493.33198,-0.01340
4495.26044,-0.01284
4497.18891,-0.01007
4499.11738,-0.00451
4501.04585,0.01169
4502.97432,0.02849
4504.90279,0.03185
4506.83126,0.02708
4508.75973,0.01863
4510.68819,0.01177
4512.61666,0.00933
4514.54513,0.00544
4516.47360,0.00776
4518.40207,0.01469
4520.33054,0.01097
4522.25901,0.00128
4524.18747,-0.00190
4526.11594,0.00108
4528.04441,0.00687
4529.97288,0.01378
4531.90135,0.01649
4533.82982,0.01824
4535.75829,0.02222
4537.68676,0.01920
4539.61522,0.00960
4541.54369,0.00260
4543.47216,-0.00319
4545.40063,-0.00768
4547.32910,-0.00423
4549.25757,0.00209
4551.18604,0.00252
4553.11450,-0.00423
4555.04297,-0.01321
4556.97144,-0.01204
4558.89991,-0.00482
4560.82838,-0.00057
4562.75685,0.00860
4564.68532,0.01931
4566.61378,0.02237
4568.54225,0.01492
4570.47072,0.00294
4572.39919,0.00571
4574.32766,0.01867
4576.25613,0.02299
4578.18460,0.01883
4580.11307,0.01278
4582.04153,0.01213
4583.97000,0.01352
4585.89847,0.01080
4587.82694,0.01182
4589.75541,0.01313
4591.68388,0.00337
4593.61235,-0.01258
4595.54081,-0.02208
4597.46928,-0.01750
4599.39775,-0.00781
4601.32622,-0.01185
4603.25469,-0.02238
4605.18316,-0.01104
4607.11163,0.01024
4609.04010,0.00972
4610.96856,0.00081
4612.89703,0.00319
4614.82550,0.00783
4616.75397,0.00702
4618.68244,0.00055
4620.61091,-0.00299
4622.53938,0.00252
4624.46784,0.00686
4626.39631,0.00820
4628.32478,0.00895
4630.25325,0.01158
4632.18172,0.02785
4634.11019,0.04783
4636.03866,0.04324
4637.96713,0.01187
4639.89559,-0.01371
4641.82406,-0.00764
4643.75253,0.00643
4645.68100,0.00164
4647.60947,-0.00970
4649.53794,-0.01093
4651.46641,-0.00722
4653.39487,-0.00327
4655.32334,0.00948
4657.25181,0.02390
4659.18028,0.02507
4661.10875,0.02072
4663.03722,0.01538
4664.96569,0.00117
4666.89416,-0.01227
4668.82262,-0.01702
4670.75109,-0.01434
4672.67956,-0.00393
4674.60803,0.00368
4676.53650,0.00096
4678.46497,-0.00196
4680.39344,0.00151
4682.32190,0.00024
4684.25037,-0.00641
4686.17884,-0.00666
4688.10731,-0.00147
4690.03578,0.00172
4691.96425,0.00122
4693.89272,0.00398
4695.82119,0.00936
4697.74965,0.01474
4699.67812,0.02448
4701.60659,0.02577
4703.53506,0.00841
4705.46353,-0.00573
4707.39200,0.00112
4709.32047,0.01348
4711.24893,0.01581
4713.17740,0.01104
4715.10587,0.00614
4717.03434,0.00747
4718.96281,0.01306
4720.89128,0.01524
4722.81975,0.01541
4724.74821,0.01734
4726.67668,0.01879
4728.60515,0.01060
4730.53362,-0.00488
4732.46209,-0.00750
4734.39056,0.00168
4736.31903,0.00458
4738.24750,0.00309
4740.17596,0.00142
4742.10443,0.00184
4744.03290,0.01167
4745.96137,0.02011
4747.88984,0.01800
4749.81831,0.02135
4751.74678,0.03209
4753.67524,0.02940
4755.60371,0.01466
4757.53218,0.00769
4759.46065,0.00711
4761.38912,0.00411
4763.31759,0.00591
4765.24606,0.01200
4767.17453,0.01311
4769.10299,0.00871
4771.03146,0.00394
4772.95993,0.00291
4774.88840,0.00240
4776.81687,0.00212
4778.74534,0.00549
4780.67381,0.00517
4782.60227,-0.00028
4784.53074,0.00018
4786.45921,0.00258
4788.38768,-0.00329
4790.31615,-0.00705
4792.24462,-0.00615
4794.17309,-0.01167
4796.10156,-0.01277
4798.03002,-0.00262
4799.95849,0.00211
4801.88696,-0.00381
4803.81543,-0.00678
4805.74390,0.00088
4807.67237,0.00930
4809.60084,0.00941
4811.52930,0.00126
4813.45777,-0.00788
4815.38624,-0.00311
4817.31471,0.01301
4819.24318,0.02243
4821.17165,0.02865
4823.10012,0.03585
4825.02859,0.03101
4826.95705,0.01961
4828.88552,0.02080
4830.81399,0.02843
4832.74246,0.02062
4834.67093,0.00364
4836.59940,0.00102
4838.52787,0.00602
4840.45633,-0.00062
4842.38480,-0.01072
4844.31327,-0.00739
4846.24174,0.00190
4848.17021,0.00158
4850.09868,-0.00663
4852.02715,-0.00847
4853.95562,0.00148
4855.88408,0.01526
4857.81255,0.02463
4859.74102,0.02304
4861.66949,0.01374
4863.59796,0.00881
4865.52643,0.01055
4867.45490,0.00622
4869.38336,-0.00765
4871.31183,-0.01469
4873.24030,-0.01038
4875.16877,-0.00066
4877.09724,0.00766
4879.02571,0.00441
4880.95418,-0.00121
4882.88265,0.00989
4884.81111,0.02605
4886.73958,0.02613
4888.66805,0.01342
4890.59652,0.00236
4892.52499,-0.00327
4894.45346,-0.00708
4896.38193,-0.01028
4898.31039,-0.01248
4900.23886,-0.01657
4902.16733,-0.01805
4904.09580,-0.01106
4906.02427,-0.00501
4907.95274,-0.00031
4909.88121,0.01010
4911.80967,0.02114
4913.73814,0.03083
4915.66661,0.03587
4917.59508,0.02749
4919.52355,0.00526
4921.45202,-0.01633
4923.38049,-0.02358
4925.30896,-0.02205
4927.23742,-0.02307
4929.16589,-0.01753
4931.09436,-0.00308
4933.02283,0.00216
4934.95130,0.00634
4936.87977,0.01926
4938.80824,0.02491
4940.73670,0.02072
4942.66517,0.01439
4944.59364,0.00665
4946.52211,0.00434
4948.45058,0.01085
4950.37905,0.01135
4952.30752,0.00633
4954.23599,0.01109
4956.16445,0.01731
4958.09292,0.02046
4960.02139,0.03757
4961.94986,0.05621
4963.87833,0.04691
4965.80680,0.02322
4967.73527,0.00525
4969.66373,-0.00737
4971.59220,-0.00834
4973.52067,0.00496
4975.44914,0.02170
4977.37761,0.02874
4979.30608,0.02631
4981.23455,0.01855
4983.16302,0.00734
4985.09148,0.00426
4987.01995,0.01219
4988.94842,0.01341
4990.87689,-0.00064
4992.80536,-0.00606
4994.73383,0.01373
4996.66230,0.03979
4998.59076,0.04950
5000.51923,0.03905
5002.44770,0.01750
5004.37617,-0.00198
5006.30464,-0.00496
5008.23311,0.00921
5010.16158,0.02601
5012.09005,0.03168
5014.01851,0.01783
5015.94698,0.00014
5017.87545,0.00185
5019.80392,0.01434
5021.73239,0.01729
5023.66086,0.00698
5025.58933,-0.01044
5027.51779,-0.03070
5029.44626,-0.04148
5031.37473,-0.03439
5033.30320,-0.02460
5035.23167,-0.01570
5037.16014,-0.00118
5039.08861,0.00280
5041.01708,-0.00291
5042.94554,-0.00177
5044.87401,-0.00832
5046.80248,-0.01566
5048.73095,0.01078
5050.65942,0.04254
5052.58789,0.04030
5054.51636,0.01898
5056.44482,-0.00595
5058.37329,-0.02006
5060.30176,-0.00406
5062.23023,0.02113
5064.15870,0.02101
5066.08717,0.00213
5068.01564,-0.01242
5069.94410,-0.00791
5071.87257,0.00880
5073.80104,0.01789
5075.72951,0.01936
5077.65798,0.01734
5079.58645,0.01022
5081.51492,-0.00460
5083.44339,-0.01280
5085.37185,0.00088
5087.30032,0.00815
5089.22879,-0.00497
5091.15726,-0.00785
5093.08573,0.00291
5095.01420,0.00613
5096.94267,0.00214
5098.87113,-0.00631
5100.79960,-0.01521
5102.72807,-0.00849
5104.65654,0.00266
5106.58501,-0.00312
5108.51348,-0.01432
5110.44195,-0.01133
5112.37042,0.00569
5114.29888,0.02846
5116.22735,0.05142
5118.15582,0.05988
5120.08429,0.04661
5122.01276,0.02712
5123.94123,0.00784
5125.86970,-0.00944
5127.79816,-0.00931
5129.72663,0.00342
5131.65510,0.00645
5133.58357,0.00173
5135.51204,-0.00130
5137.44051,-0.01249
5139.36898,-0.02365
5141.29745,-0.01331
5143.22591,0.00106
5145.15438,0.00155
5147.08285,0.00100
5149.01132,0.00507
5150.93979,0.00774
5152.86826,0.00748
5154.79673,0.01158
5156.72519,0.01812
5158.65366,0.01437
5160.58213,0.00874
5162.51060,0.01123
5164.43907,0.01292
5166.36754,0.01729
5168.29601,0.03158
5170.22448,0.04056
5172.15294,0.03689
5174.08141,0.03048
5176.00988,0.02224
5177.93835,0.01109
5179.86682,0.00230
5181.79529,0.01047
5183.72376,0.04079
5185.65222,0.06717
5187.58069,0.06720
5189.50916,0.04987
5191.43763,0.02930
5193.36610,0.01010
5195.29457,-0.00324
5197.22304,-0.00017
5199.15151,0.01173
5201.07997,0.01387
5203.00844,0.00998
5204.93691,0.00580
5206.86538,0.00890
5208.79385,0.03388
5210.72232,0.05809
5212.65079,0.06025
5214.57925,0.04745
5216.50772,0.02564
5218.43619,0.00722
5220.36466,0.00363
5222.29313,0.01135
5224.22160,0.02310
5226.15007,0.02774
5228.07854,0.02208
5230.00700,0.00497
5231.93547,-0.01251
5233.86394,0.00490
5235.79241,0.04788
5237.72088,0.06474
5239.64935,0.05242
5241.57782,0.04830
5243.50628,0.06807
5245.43475,0.09066
5247.36322,0.08837
5249.29169,0.08134
5251.22016,0.07610
5253.14863,0.04353
5255.07710,0.00434
5257.00556,-0.01384
5258.93403,-0.01813
5260.86250,-0.00371
5262.79097,0.03100
5264.71944,0.05573
5266.64791,0.04979
5268.57638,0.03192
5270.50485,0.02261
5272.43331,0.02952
5274.36178,0.03753
5276.29025,0.04004
5278.21872,0.05159
5280.14719,0.05956
5282.07566,0.05812
5284.00413,0.06675
5285.93259,0.06326
5287.86106,0.02888
5289.78953,0.01620
5291.71800,0.04608
5293.64647,0.05613
5295.57494,0.04077
5297.50341,0.03410
5299.43188,0.02537
5301.36034,0.00269
5303.28881,-0.00797
5305.21728,0.00081
5307.14575,0.00418
5309.07422,0.01485
5311.00269,0.04319
5312.93116,0.04683
5314.85962,0.02765
5316.78809,0.02846
5318.71656,0.03919
5320.64503,0.03787
5322.57350,0.04000
5324.50197,0.04998
5326.43044,0.05818
5328.35891,0.06114
5330.28737,0.04327
5332.21584,0.01427
5334.14431,0.01197
5336.07278,0.02106
5338.00125,0.00308
5339.92972,-0.00408
5341.85819,0.02785
5343.78665,0.04519
5345.71512,0.03697
5347.64359,0.05423
5349.57206,0.08031
5351.50053,0.07704
5353.42900,0.05319
5355.35747,0.03814
5357.28594,0.03614
5359.21440,0.04180
5361.14287,0.05085
5363.07134,0.05289
5364.99981,0.03105
5366.92828,-0.00636
5368.85675,-0.01347
5370.78522,0.01778
5372.71368,0.04313
5374.64215,0.04668
5376.57062,0.05405
5378.49909,0.06503
5380.42756,0.06909
5382.35603,0.07025
5384.28450,0.07369
5386.21297,0.08589
5388.14143,0.08353
5390.06990,0.05654
5391.99837,0.03111
5393.92684,0.03044
5395.85531,0.05823
5397.78378,0.08289
5399.71225,0.07040
5401.64071,0.04444
5403.56918,0.04856
5405.49765,0.06168
5407.42612,0.05493
5409.35459,0.04999
5411.28306,0.05412
5413.21153,0.04327
5415.13999,0.02301
5417.06846,0.01911
5418.99693,0.02847
5420.92540,0.03594
5422.85387,0.04032
5424.78234,0.05505
5426.71081,0.07543
5428.63928,0.07115
5430.56774,0.05045
5432.49621,0.04391
5434.42468,0.04738
5436.35315,0.06249
5438.28162,0.08497
5440.21009,0.09310
5442.13856,0.08010
5444.06702,0.06323
5445.99549,0.06327
5447.92396,0.07208
5449.85243,0.06421
5451.78090,0.04734
5453.70937,0.04411
5455.63784,0.04144
5457.56631,0.02017
5459.49477,0.02673
5461.42324,0.07896
5463.35171,0.10377
5465.28018,0.07123
5467.20865,0.03010
5469.13712,0.01701
5471.06559,0.03198
5472.99405,0.05745
5474.92252,0.07441
5476.85099,0.07657
5478.77946,0.07395
5480.70793,0.08491
5482.63640,0.10487
5484.56487,0.09656
5486.49334,0.06758
5488.42180,0.04998
5490.35027,0.03886
5492.27874,0.03182
5494.20721,0.04115
5496.13568,0.06526
5498.06415,0.07365
5499.99262,0.05161
5501.92108,0.04305
5503.84955,0.06696
5505.77802,0.08627
5507.70649,0.08189
5509.63496,0.08301
5511.56343,0.10269
5513.49190,0.11355
5515.42037,0.10290
5517.34883,0.08530
5519.27730,0.08281
5521.20577,0.09451
5523.13424,0.09773
5525.06271,0.08828
5526.99118,0.07062
5528.91965,0.03614
5530.84811,-0.00337
5532.77658,-0.01181
5534.70505,0.00201
5536.63352,0.00847
5538.56199,0.02509
5540.49046,0.06554
5542.41893,0.10204
5544.34740,0.10444
5546.27586,0.08483
5548.20433,0.08082
5550.13280,0.09323
5552.06127,0.10815
5553.98974,0.11667
5555.91821,0.10751
5557.84668,0.09620
5559.77514,0.09005
5561.70361,0.07439
5563.63208,0.06746
5565.56055,0.08797
5567.48902,0.10074
5569.41749,0.07987
5571.34596,0.05123
5573.27443,0.03386
5575.20289,0.03563
5577.13136,0.06174
5579.05983,0.08543
5580.98830,0.07899
5582.91677,0.06327
5584.84524,0.05162
5586.77371,0.03076
5588.70217,0.02770
5590.63064,0.05198
5592.55911,0.06583
5594.48758,0.07540
5596.41605,0.09510
5598.34452,0.09694
5600.27299,0.09543
5602.20145,0.11399
5604.12992,0.11012
5606.05839,0.08497
5607.98686,0.06995
5609.91533,0.04401
5611.84380,0.01221
5613.77227,0.03149
5615.70074,0.10247
5617.62920,0.15519
5619.55767,0.16095
5621.48614,0.15657
5623.41461,0.14808
5625.34308,0.10225
5627.27155,0.03774
5629.20002,0.02399
5631.12848,0.06872
5633.05695,0.10677
5634.98542,0.09385
5636.91389,0.05847
5638.84236,0.03666
5640.77083,0.03043
5642.69930,0.05248
5644.62777,0.09150
5646.55623,0.09123
5648.48470,0.04275
5650.41317,-0.00217
5652.34164,-0.00787
5654.27011,0.01642
5656.19858,0.04582
5658.12705,0.07488
5660.05551,0.08693
5661.98398,0.05652
5663.91245,0.01757
5665.84092,0.04220
5667.76939,0.11933
5669.69786,0.16635
5671.62633,0.15189
5673.55480,0.10075
5675.48326,0.04738
5677.41173,0.02303
5679.34020,0.03350
5681.26867,0.05944
5683.19714,0.08649
5685.12561,0.12142
5687.05408,0.13507
5688.98254,0.08377
5690.91101,0.01632
5692.83948,0.00617
5694.76795,0.01874
5696.69642,-0.01275
5698.62489,-0.03949
5700.55336,0.00741
5702.48183,0.07324
5704.41029,0.09327
5706.33876,0.07706
5708.26723,0.04259
5710.19570,0.02046
5712.12417,0.04126
5714.05264,0.05394
5715.98111,0.03054
5717.90957,0.02944
5719.83804,0.05522
5721.76651,0.07252
5723.69498,0.08220
5725.62345,0.09770
5727.55192,0.11021
5729.48039,0.09906
5731.40886,0.06688
5733.33732,0.02923
5735.26579,0.01176
5737.19426,0.02686
5739.12273,0.05538
5741.05120,0.07100
5742.97967,0.05548
5744.90814,0.02045
5746.83660,-0.00313
5748.76507,0.00673
5750.69354,0.04771
5752.62201,0.09964
5754.55048,0.11973
5756.47895,0.09714
5758.40742,0.09381
5760.33588,0.11127
5762.26435,0.08333
5764.19282,0.03745
5766.12129,0.02742
5768.04976,0.02645
5769.97823,0.03196
5771.90670,0.06510
5773.83517,0.11466
5775.76363,0.12856
5777.69210,0.07412
5779.62057,0.03240
5781.54904,0.05334
5783.47751,0.06148
5785.40598,0.02879
5787.33445,0.02712
5789.26291,0.07318
5791.19138,0.10799
5793.11985,0.12509
5795.04832,0.12090
5796.97679,0.08342
5798.90526,0.06301
5800.83373,0.06366
5802.76220,0.04098
5804.69066,0.01997
5806.61913,0.02107
5808.54760,0.01784
5810.47607,0.01666
5812.40454,0.02166
5814.33301,0.02515
5816.26148,0.03074
5818.18994,0.04084
5820.11841,0.05319
5822.04688,0.04373
5823.97535,0.00534
5825.90382,-0.01516
5827.83229,0.00978
5829.76076,0.03703
5831.68923,0.04023
5833.61769,0.04559
5835.54616,0.06038
5837.47463,0.08746
5839.40310,0.11134
5841.33157,0.08901
5843.26004,0.02562
5845.18851,-0.04012
5847.11697,-0.06391
5849.04544,-0.01915
5850.97391,0.02382
5852.90238,0.02502
5854.83085,0.04252
5856.75932,0.06264
5858.68779,0.03920
5860.61626,0.00920
5862.54472,0.01768
5864.47319,0.04922
5866.40166,0.06746
5868.33013,0.07242
5870.25860,0.07014
5872.18707,0.05953
5874.11554,0.05348
5876.04400,0.05030
5877.97247,0.05331
5879.90094,0.06638
5881.82941,0.07778
5883.75788,0.08778
5885.68635,0.09241
5887.61482,0.09479
5889.54329,0.09752
5891.47175,0.09314
5893.40022,0.08774
5895.32869,0.07675
5897.25716,0.05647
5899.18563,0.05552
5901.11410,0.08176
5903.04257,0.10044
5904.97103,0.09713
5906.89950,0.09297
5908.82797,0.09344
5910.75644,0.08540
5912.68491,0.08103
5914.61338,0.08343
5916.54185,0.09349
5918.47032,0.13754
5920.39878,0.18281
5922.32725,0.17153
5924.25572,0.10175
5926.18419,0.00419
5928.11266,-0.07525
5930.04113,-0.07276
5931.96960,0.02019
5933.89806,0.09231
5935.82653,0.06508
5937.75500,0.01758
5939.68347,0.01934
5941.61194,0.03593
5943.54041,0.02602
5945.46888,0.00351
5947.39734,-0.01014
5949.32581,0.00107
5951.25428,0.04469
5953.18275,0.09479
5955.11122,0.10607
5957.03969,0.08199
5958.96816,0.07703
5960.89663,0.09224
5962.82509,0.09423
5964.75356,0.06984
5966.68203,0.00901
5968.61050,-0.03175
5970.53897,-0.00137
5972.46744,0.03220
5974.39591,0.02083
5976.32437,0.01102
5978.25284,0.02193
5980.18131,0.03501
5982.10978,0.05301
5984.03825,0.07423
5985.96672,0.08743
5987.89519,0.09647
5989.82366,0.09643
5991.75212,0.08315
5993.68059,0.07988
5995.60906,0.10306
5997.53753,0.12878
5999.46600,0.12929
6001.39447,0.11764
6003.32294,0.11776
6005.25140,0.10297
6007.17987,0.06011
6009.10834,0.05752
6011.03681,0.11449
6012.96528,0.15522
6014.89375,0.12236
6016.82222,0.04123
6018.75069,-0.01857
6020.67915,-0.04730
6022.60762,-0.08414
6024.53609,-0.10143
6026.46456,-0.04686
6028.39303,0.04126
6030.32150,0.07982
6032.24997,0.06602
6034.17843,0.02927
6036.10690,-0.00828
6038.03537,-0.01876
6039.96384,-0.02188
6041.89231,-0.03137
6043.82078,-0.01715
6045.74925,0.00287
6047.67772,0.01010
6049.60618,0.03497
6051.53465,0.06291
6053.46312,0.05778
6055.39159,0.03976
6057.32006,0.03737
6059.24853,0.04576
6061.17700,0.05635
6063.10546,0.06130
6065.03393,0.07227
6066.96240,0.09759
6068.89087,0.08909
6070.81934,0.04195
6072.74781,0.02845
6074.67628,0.04340
6076.60475,0.05027
6078.53321,0.06887
6080.46168,0.08707
6082.39015,0.09275
6084.31862,0.08526
6086.24709,0.06108
6088.17556,0.04978
6090.10403,0.07488
6092.03249,0.12308
6093.96096,0.13441
6095.88943,0.10986
6097.81790,0.11822
6099.74637,0.14774
6101.67484,0.14678
6103.60331,0.13461
6105.53177,0.13857
6107.46024,0.11822
6109.38871,0.05245
6111.31718,0.02284
6113.24565,0.06613
6115.17412,0.08994
6117.10259,0.06560
6119.03106,0.03702
6120.95952,0.00838
6122.88799,-0.00258
6124.81646,0.03088
6126.74493,0.08752
6128.67340,0.09972
6130.60187,0.04445
6132.53034,-0.01559
6134.45880,-0.01231
6136.38727,0.02510
6138.31574,0.01171
6140.24421,-0.03424
6142.17268,-0.05913
6144.10115,-0.05843
6146.02962,-0.02743
6147.95809,0.03492
6149.88655,0.08305
6151.81502,0.05785
6153.74349,0.00550
6155.67196,-0.01666
6157.60043,-0.01368
6159.52890,0.00944
6161.45737,0.02237
6163.38583,0.02337
6165.31430,0.03708
6167.24277,0.05010
6169.17124,0.05914
6171.09971,0.03896
6173.02818,-0.00911
6174.95665,0.00397
6176.88512,0.04693
6178.81358,0.01086
6180.74205,-0.06248
6182.67052,-0.06573
6184.59899,0.00641
6186.52746,0.03537
6188.45593,-0.04147
6190.38440,-0.07736
6192.31286,-0.00686
6194.24133,0.05234
6196.16980,0.04294
6198.09827,0.02022
6200.02674,0.02529
6201.95521,0.04206
6203.88368,0.05478
6205.81215,0.04858
6207.74061,0.03116
6209.66908,0.04369
6211.59755,0.06869
6213.52602,0.06689
6215.45449,0.06182
6217.38296,0.06189
6219.31143,0.03355
6221.23989,-0.02825
6223.16836,-0.06513
6225.09683,-0.02552
6227.02530,0.03710
6228.95377,0.05159
6230.88224,0.03723
6232.81071,0.02284
6234.73918,0.02201
6236.66764,0.06273
6238.59611,0.11270
6240.52458,0.12071
6242.45305,0.10150
6244.38152,0.05639
6246.30999,-0.01147
6248.23846,-0.02095
6250.16692,0.06866
6252.09539,0.17824
6254.02386,0.22970
6255.95233,0.21690
6257.88080,0.12384
6259.80927,0.00706
6261.73774,-0.02141
6263.66621,0.02712
6265.59467,0.07688
6267.52314,0.10251
6269.45161,0.11227
6271.38008,0.09615
6273.30855,0.02995
6275.23702,-0.03891
6277.16549,-0.02665
6279.09395,0.03779
6281.02242,0.07189
6282.95089,0.08490
6284.87936,0.11165
6286.80783,0.13070
6288.73630,0.12685
6290.66477,0.09172
6292.59323,0.02621
6294.52170,-0.03535
6296.45017,-0.06385
6298.37864,-0.04428
6300.30711,0.02741
6302.23558,0.07757
6304.16405,0.06849
6306.09252,0.06197
6308.02098,0.02194
6309.94945,-0.06251
6311.87792,-0.04952
6313.80639,0.08224
6315.73486,0.15645
6317.66333,0.12643
6319.59180,0.12281
6321.52026,0.15970
6323.44873,0.13005
6325.37720,0.08118
6327.30567,0.08276
6329.23414,0.04072
6331.16261,-0.05726
6333.09108,-0.09960
6335.01955,-0.06156
6336.94801,0.01277
6338.87648,0.07038
6340.80495,0.08920
6342.73342,0.07085
6344.66189,0.05118
6346.59036,0.09103
6348.51883,0.15156
6350.44729,0.14343
6352.37576,0.10572
6354.30423,0.11791
6356.23270,0.14532
6358.16117,0.12595
6360.08964,0.04646
6362.01811,-0.02400
6363.94658,-0.00824
6365.87504,0.05191
6367.80351,0.05313
6369.73198,0.02988
6371.66045,0.07993
6373.58892,0.15372
6375.51739,0.17149
6377.44586,0.14692
6379.37432,0.08294
6381.30279,-0.00487
6383.23126,-0.02031
6385.15973,0.06599
6387.08820,0.09983
6389.01667,0.05286
6390.94514,0.04261
6392.87361,0.08051
6394.80207,0.07248
6396.73054,0.04876
6398.65901,0.06510
6400.58748,0.10011
6402.51595,0.13423
6404.44442,0.14231
6406.37289,0.08986
6408.30135,-0.00501
6410.22982,-0.05960
6412.15829,-0.04102
6414.08676,-0.01933
6416.01523,-0.00305
6417.94370,0.06504
6419.87217,0.15117
6421.80064,0.17449
6423.72910,0.13048
6425.65757,0.07824
6427.58604,0.07516
6429.51451,0.10003
6431.44298,0.11556
6433.37145,0.11913
6435.29992,0.07321
6437.22838,-0.01120
6439.15685,-0.02560
6441.08532,-0.00271
6443.01379,-0.00886
6444.94226,0.01063
6446.87073,0.02896
6448.79920,0.00934
6450.72766,-0.00360
6452.65613,-0.00763
6454.58460,-0.00268
6456.51307,0.03413
6458.44154,0.09044
6460.37001,0.11005
6462.29848,0.06661
6464.22695,0.01421
6466.15541,-0.02363
6468.08388,-0.05035
6470.01235,-0.01666
6471.94082,0.05602
6473.86929,0.08390
6475.79776,0.07693
6477.72623,0.06556
6479.65469,0.03365
6481.58316,0.00719
6483.51163,0.04450
6485.44010,0.12242
6487.36857,0.16239
6489.29704,0.10141
6491.22551,0.00655
6493.15398,0.00090
6495.08244,0.00679
6497.01091,-0.01793
6498.93938,-0.00241
6500.86785,-0.00630
6502.79632,-0.03096
6504.72479,0.02718
6506.65326,0.11607
6508.58172,0.12616
6510.51019,0.06836
6512.43866,0.02867
6514.36713,0.04183
6516.29560,0.08012
6518.22407,0.10416
6520.15254,0.10351
6522.08101,0.08119
6524.00947,0.05451
6525.93794,0.06302
6527.86641,0.07680
6529.79488,0.03798
6531.72335,-0.02937
6533.65182,-0.05615
6535.58029,-0.01834
6537.50875,0.01859
6539.43722,0.00892
6541.36569,-0.00249
6543.29416,-0.01381
6545.22263,-0.01034
6547.15110,0.02631
6549.07957,0.04193
6551.00804,0.06420
6552.93650,0.13370
6554.86497,0.17637
6556.79344,0.18189
6558.72191,0.19041
6560.65038,0.15561
6562.57885,0.07082
6564.50732,0.00015
6566.43578,-0.00334
6568.36425,0.08537
6570.29272,0.14244
6572.22119,0.12946
6574.14966,0.16861
6576.07813,0.20197
6578.00660,0.12819
6579.93507,0.02564
6581.86353,0.01758
6583.79200,0.06009
6585.72047,0.06073
6587.64894,0.06592
6589.57741,0.07821
6591.50588,0.05433
6593.43435,0.03264
6595.36281,0.07183
6597.29128,0.11134
6599.21975,0.06270
6601.14822,0.00826
6603.07669,0.05073
6605.00516,0.06359
6606.93363,-0.01129
6608.86210,-0.05963
6610.79056,-0.03187
6612.71903,0.03829
6614.64750,0.12838
6616.57597,0.14194
6618.50444,0.02099
6620.43291,-0.05282
6622.36138,0.00171
6624.28984,0.08629
6626.21831,0.11385
6628.14678,0.07818
6630.07525,0.13097
6632.00372,0.25368
6633.93219,0.22610
6635.86066,0.09817
6637.78912,0.05969
6639.71759,0.11332
6641.64606,0.18317
6643.57453,0.18211
6645.50300,0.09790
6647.43147,0.02339
6649.35994,-0.02491
6651.28841,-0.05242
6653.21687,-0.04762
6655.14534,-0.09294
6657.07381,-0.17280
6659.00228,-0.10327
6660.93075,0.03813
6662.85922,0.09793
6664.78769,0.09207
6666.71615,-0.00569
6668.64462,-0.11898
6670.57309,-0.06406
6672.50156,0.11254
6674.43003,0.20386
6676.35850,0.12993
6678.28697,-0.00980
6680.21544,-0.04360
6682.14390,0.00462
6684.07237,0.01427
6686.00084,0.04397
6687.92931,0.11098
6689.85778,0.07722
6691.78625,0.00924
6693.71472,0.02077
6695.64318,0.04832
6697.57165,0.08957
6699.50012,0.15419
6701.42859,0.15376
6703.35706,0.14947
6705.28553,0.21319
6707.21400,0.25098
6709.14247,0.14348
6711.07093,-0.03728
6712.99940,-0.13144
6714.92787,-0.12090
6716.85634,-0.04021
6718.78481,0.06406
6720.71328,0.11854
6722.64175,0.10406
6724.57021,0.04328
6726.49868,0.03085
6728.42715,0.12611
6730.35562,0.19679
6732.28409,0.14223
6734.21256,0.04439
6736.14103,0.00616
6738.06950,0.06385
6739.99796,0.13329
6741.92643,0.12949
6743.85490,0.08046
6745.78337,0.04982
6747.71184,0.05716
6749.64031,0.08634
6751.56878,0.12872
6753.49724,0.15665
6755.42571,0.15245
6757.35418,0.15283
6759.28265,0.15497
6761.21112,0.13524
6763.13959,0.16810
6765.06806,0.24531
6766.99653,0.20196
6768.92499,0.05735
6770.85346,-0.01146
6772.78193,0.00267
6774.71040,0.01333
6776.63887,0.02098
6778.56734,0.04598
6780.49581,0.05464
6782.42427,-0.00690
6784.35274,-0.09933
6786.28121,-0.07261
6788.20968,0.07462
6790.13815,0.17043
6792.06662,0.13163
6793.99509,0.02328
6795.92355,-0.04556
6797.85202,0.01172
6799.78049,0.08555
6801.70896,0.08876
6803.63743,0.11794
6805.56590,0.12306
6807.49437,0.08358
6809.42284,0.11448
6811.35130,0.14053
6813.27977,0.06600
6815.20824,0.07216
6817.13671,0.19715
6819.06518,0.22270
6820.99365,0.15390
6822.92212,0.07995
6824.85058,0.01961
6826.77905,0.01744
6828.70752,0.05598
6830.63599,0.05269
6832.56446,0.09376
6834.49293,0.25675
6836.42140,0.36530
6838.34987,0.28249
6840.27833,0.12719
6842.20680,0.01543
6844.13527,-0.05276
6846.06374,-0.10325
6847.99221,-0.11974
6849.92068,-0.07698
6851.84915,0.04262
6853.77761,0.18781
6855.70608,0.28099
6857.63455,0.31369
6859.56302,0.30604
6861.49149,0.26325
6863.41996,0.20953
6865.34843,0.11380
6867.27690,-0.03812
6869.20536,-0.08885
6871.13383,0.02341
6873.06230,0.18737
6874.99077,0.23668
6876.91924,0.13337
6878.84771,0.00492
6880.77618,-0.00044
6882.70464,0.05080
6884.63311,0.04476
6886.56158,0.04673
6888.49005,0.07521
6890.41852,0.05506
6892.34699,0.03228
6894.27546,0.05785
6896.20393,0.07523
6898.13239,0.06153
6900.06086,0.09124
6901.98933,0.13908
6903.91780,0.12805
6905.84627,0.13491
6907.77474,0.18343
6909.70321,0.19967
6911.63167,0.21204
6913.56014,0.15964
6915.48861,-0.02294
6917.41708,-0.16240
6919.34555,-0.11545
6921.27402,0.07013
6923.20249,0.27158
6925.13096,0.29479
6927.05942,0.10103
6928.98789,-0.11091
6930.91636,-0.19315
6932.84483,-0.11949
6934.77330,0.00430
6936.70177,-0.00608
6938.63024,-0.12876
6940.55870,-0.15503
6942.48717,-0.03109
6944.41564,0.08398
6946.34411,0.10690
6948.27258,0.08528
6950.20105,0.10064
6952.12952,0.11242
6954.05799,0.10391
6955.98645,0.13773
6957.91492,0.17515
6959.84339,0.16473
6961.77186,0.14369
6963.70033,0.12034
6965.62880,0.04557
6967.55727,-0.07548
6969.48573,-0.10751
6971.41420,0.01279
6973.34267,0.10748
6975.27114,0.03749
6977.19961,-0.06637
6979.12808,-0.09045
6981.05655,-0.05813
6982.98501,0.02819
6984.91348,0.17436
6986.84195,0.27658
6988.77042,0.19131
6990.69889,0.01747
6992.62736,-0.04901
6994.55583,0.01649
6996.48430,0.10724
6998.41276,0.05662
7000.34123,0.00762
7002.26970,0.10257
7004.19817,0.09323
7006.12664,-0.03401
7008.05511,-0.05050
7009.98358,-0.01117
7011.91204,0.00803
7013.84051,0.07080
7015.76898,0.12279
7017.69745,0.13005
7019.62592,0.07723
7021.55439,-0.00982
7023.48286,0.02196
7025.41133,0.15239
7027.33979,0.19161
7029.26826,0.09978
7031.19673,-0.00154
7033.12520,-0.04984
7035.05367,0.05061
7036.98214,0.24370
7038.91061,0.27932
7040.83907,0.16253
7042.76754,0.02348
7044.69601,-0.12876
7046.62448,-0.27740
7048.55295,-0.29100
7050.48142,-0.19041
7052.40989,-0.13943
7054.33836,-0.18743
7056.26682,-0.17256
7058.19529,0.02538
7060.12376,0.16200
7062.05223,0.07962
7063.98070,-0.08244
7065.90917,-0.09531
7067.83764,0.14907
7069.76610,0.50468
7071.69457,0.56240
7073.62304,0.33993
7075.55151,0.19257
7077.47998,0.08140
7079.40845,-0.06350
7081.33692,-0.09486
7083.26539,0.02345
7085.19385,0.14083
7087.12232,0.15738
7089.05079,0.09258
7090.97926,0.00487
7092.90773,-0.09647
7094.83620,-0.09318
7096.76467,0.04765
7098.69313,0.16864
7100.62160,0.15576
7102.55007,0.06843
7104.47854,0.00393
7106.40701,0.04201
7108.33548,0.12051
7110.26395,0.13136
7112.19242,0.14103
7114.12088,0.23462
7116.04935,0.27743
7117.97782,0.11616
7119.90629,-0.08021
7121.83476,-0.11758
7123.76323,-0.07656
7125.69170,-0.07469
7127.62016,-0.08957
7129.54863,-0.11809
7131.47710,-0.14872
7133.40557,-0.07654
7135.33404,0.06640
7137.26251,0.12845
7139.19098,0.05666
7141.11944,-0.04303
7143.04791,-0.06711
7144.97638,-0.03917
7146.90485,-0.01156
7148.83332,0.07488
7150.76179,0.17093
7152.69026,0.15447
7154.61873,0.16533
7156.54719,0.31924
7158.47566,0.42833
7160.40413,0.36610
7162.33260,0.25423
7164.26107,0.22699
7166.18954,0.18738
7168.11801,0.10806
7170.04647,0.09892
7171.97494,0.18410
7173.90341,0.30458
7175.83188,0.28435
7177.76035,0.11156
7179.68882,0.03038
7181.61729,0.02018
7183.54576,0.04660
7185.47422,0.12287
7187.40269,0.10053
7189.33116,0.02082
7191.25963,-0.00631
7193.18810,0.01536
7195.11657,0.07900
7197.04504,0.09778
7198.97350,-0.00663
7200.90197,-0.12532
7202.83044,-0.19583
7204.75891,-0.22116
7206.68738,-0.14472
7208.61585,-0.00785
7210.54432,0.09182
7212.47279,0.08584
7214.40125,0.04637
7216.32972,0.09069
7218.25819,0.12464
7220.18666,0.12166
7222.11513,0.11342
7224.04360,0.00703
7225.97207,-0.04568
7227.90053,0.01524
7229.82900,-0.00597
7231.75747,-0.07289
7233.68594,-0.12722
7235.61441,-0.14031
7237.54288,-0.07019
7239.47135,-0.02535
7241.39982,-0.01800
7243.32828,0.10139
7245.25675,0.21465
7247.18522,0.21590
7249.11369,0.23272
7251.04216,0.25883
7252.97063,0.30547
7254.89910,0.36305
7256.82756,0.29087
7258.75603,0.33503
7260.68450,0.60401
7262.61297,0.54897
7264.54144,0.13959
7266.46991,-0.02490
7268.39838,0.05840
7270.32685,0.10112
7272.25531,0.03971
7274.18378,-0.05671
7276.11225,-0.15805
7278.04072,-0.13631
7279.96919,0.05958
7281.89766,0.28517
7283.82613,0.41667
7285.75459,0.36695
7287.68306,0.09330
7289.61153,-0.28506
7291.54000,-0.44549
7293.46847,-0.24932
7295.39694,0.04503
7297.32541,0.13660
7299.25387,0.01402
7301.18234,-0.14148
7303.11081,-0.18897
7305.03928,-0.05973
7306.96775,0.13886
7308.89622,0.23399
7310.82469,0.12714
7312.75316,-0.03066
7314.68162,-0.05506
7316.61009,0.00692
7318.53856,0.03663
7320.46703,0.04700
7322.39550,0.08998
7324.32397,0.07241
7326.25244,-0.07496
7328.18090,-0.09898
7330.10937,0.09549
7332.03784,0.12259
7333.96631,0.01964
7335.89478,-0.00445
7337.82325,0.04479
7339.75172,0.07552
7341.68019,0.00750
7343.60865,-0.12734
7345.53712,-0.27129
7347.46559,-0.16565
7349.39406,0.16650
7351.32253,0.36928
7353.25100,0.22292
7355.17947,0.04038
7357.10793,0.16531
7359.03640,0.32352
7360.96487,0.15736
7362.89334,0.05334
7364.82181,0.27547
7366.75028,0.54225
7368.67875,0.53375
7370.60722,0.32600
7372.53568,0.14527
7374.46415,-0.01433
7376.39262,0.00577
7378.32109,0.24960
7380.24956,0.38975
7382.17803,0.27037
7384.10650,0.01291
7386.03496,-0.13612
7387.96343,-0.11727
7389.89190,-0.10762
7391.82037,-0.14730
7393.74884,-0.08939
7395.67731,0.11755
7397.60578,0.24747
7399.53425,0.25410
7401.46271,0.21808
7403.39118,0.08903
7405.31965,0.00850
7407.24812,0.10891
7409.17659,0.24159
7411.10506,0.22001
7413.03353,0.04087
7414.96199,-0.09208
7416.89046,-0.08696
7418.81893,0.05725
7420.74740,0.30431
7422.67587,0.41511
7424.60434,0.27804
7426.53281,0.03333
7428.46128,-0.15991
7430.38974,-0.28807
7432.31821,-0.32265
7434.24668,-0.17108
7436.17515,0.15139
7438.10362,0.37248
7440.03209,0.29342
7441.96056,0.07445
7443.88902,-0.13421
7445.81749,-0.28080
7447.74596,-0.25154
7449.67443,0.07003
7451.60290,0.49080
7453.53137,0.49519
7455.45984,0.25286
7457.38831,0.14547
7459.31677,0.12096
7461.24524,0.01327
7463.17371,-0.08482
7465.10218,-0.08020
7467.03065,-0.04626
7468.95912,-0.05441
7470.88759,-0.03277
7472.81605,0.08259
7474.74452,0.19168
7476.67299,0.16294
7478.60146,0.01514
7480.52993,-0.03859
7482.45840,-0.00034
7484.38687,-0.02128
7486.31533,-0.07027
7488.24380,-0.09907
7490.17227,-0.07343
7492.10074,0.03191
7494.02921,0.18152
7495.95768,0.24246
7497.88615,0.17998
