399.19301,3.79633
401.12148,0.55358
403.04995,-0.20431
404.97842,-0.16424
406.90689,0.10189
408.83536,0.23317
410.76382,0.06099
412.69229,-0.18841
414.62076,-0.22481
416.54923,-0.09400
418.47770,0.00603
420.40617,0.03720
422.33464,0.15612
424.26311,0.23928
426.19157,0.22371
428.12004,0.22612
430.04851,0.21525
431.97698,0.06266
433.90545,-0.06843
435.83392,-0.00345
437.76239,0.13365
439.69085,0.24102
441.61932,0.30969
443.54779,0.30958
445.47626,0.31418
447.40473,0.34556
449.33320,0.33772
451.26167,0.25342
453.19013,0.09355
455.11860,-0.01260
457.04707,-0.00114
458.97554,0.03785
460.90401,0.04423
462.83248,0.04699
464.76095,0.05368
466.68942,0.05865
468.61788,0.04616
470.54635,0.01629
472.47482,0.01214
474.40329,0.05085
476.33176,0.02943
478.26023,0.00230
480.18870,0.03121
482.11716,0.07284
484.04563,0.05999
485.97410,0.01507
487.90257,0.00313
489.83104,0.03963
491.75951,0.07539
493.68798,0.07826
495.61645,0.07000
497.54491,0.04752
499.47338,0.03446
501.40185,0.01512
503.33032,0.01756
505.25879,0.06538
507.18726,0.09101
509.11573,0.05499
511.04419,-0.01366
512.97266,-0.04590
514.90113,-0.02671
516.82960,0.02737
518.75807,0.09232
520.68654,0.10148
522.61501,0.06527
524.54348,0.01452
526.47194,-0.01444
528.40041,-0.01706
530.32888,-0.02460
532.25735,-0.03369
534.18582,-0.02854
536.11429,-0.05448
538.04276,-0.09101
539.97122,-0.07152
541.89969,-0.04324
543.82816,0.00061
545.75663,0.07232
547.68510,0.08836
549.61357,0.31522
551.54204,1.50410
553.47051,2.72487
555.39897,2.10228
557.32744,0.61752
559.25591,0.07089
561.18438,0.04848
563.11285,0.02287
565.04132,0.01452
566.96979,0.03392
568.89825,0.06782
570.82672,0.10172
572.75519,0.13247
574.68366,0.10897
576.61213,0.03747
578.54060,-0.00573
580.46907,0.00521
582.39754,0.01980
584.32600,0.03033
586.25447,0.03897
588.18294,0.04252
590.11141,0.05078
592.03988,0.04198
593.96835,0.01225
595.89682,-0.01576
597.82528,-0.02021
599.75375,-0.00607
601.68222,0.00818
603.61069,0.00796
605.53916,0.00099
607.46763,0.00357
609.39610,0.00983
611.32456,0.01643
613.25303,0.04201
615.18150,0.08232
617.10997,0.09825
619.03844,0.09485
620.96691,0.09693
622.89538,0.09552
624.82385,0.08747
626.75231,0.08542
628.68078,0.08075
630.60925,0.07304
632.53772,0.09311
634.46619,0.11935
636.39466,0.11777
638.32313,0.11334
640.25159,0.11783
642.18006,0.10833
644.10853,0.08313
646.03700,0.05941
647.96547,0.05193
649.89394,0.07276
651.82241,0.10961
653.75088,0.13322
655.67934,0.12906
657.60781,0.10637
659.53628,0.08963
661.46475,0.09053
663.39322,0.09545
665.32169,0.09571
667.25016,0.10534
669.17862,0.11784
671.10709,0.10331
673.03556,0.08500
674.96403,0.06996
676.89250,0.05715
678.82097,0.06071
680.74944,0.07552
682.67791,0.08164
684.60637,0.08374
686.53484,0.08753
688.46331,0.09015
690.39178,0.09550
692.32025,0.09972
694.24872,0.08875
696.17719,0.07195
698.10565,0.06522
700.03412,0.05313
701.96259,0.03732
703.89106,0.04581
705.81953,0.07400
707.74800,0.07596
709.67647,0.03197
711.60494,0.00332
713.53340,0.03837
715.46187,0.08523
717.39034,0.10230
719.31881,0.10834
721.24728,0.10570
723.17575,0.09706
725.10422,0.09311
727.03268,0.09676
728.96115,0.11015
730.88962,0.11738
732.81809,0.11442
734.74656,0.10417
736.67503,0.08350
738.60350,0.07123
740.53197,0.07461
742.46043,0.07811
744.38890,0.07612
746.31737,0.07200
748.24584,0.07588
750.17431,0.09914
752.10278,0.12822
754.03125,0.13997
755.95971,0.13479
757.88818,0.12424
759.81665,0.11207
761.74512,0.09926
763.67359,0.09045
765.60206,0.08826
767.53053,0.09299
769.45900,0.10458
771.38746,0.11993
773.31593,0.12332
775.24440,0.10962
777.17287,0.09810
779.10134,0.08950
781.02981,0.07974
782.95828,0.08231
784.88674,0.09379
786.81521,0.09876
788.74368,0.09776
790.67215,0.09617
792.60062,0.09829
794.52909,0.10655
796.45756,0.10890
798.38602,0.10671
800.31449,0.10768
802.24296,0.09609
804.17143,0.06911
806.09990,0.05180
808.02837,0.05779
809.95684,0.07407
811.88531,0.08938
813.81377,0.09777
815.74224,0.09153
817.67071,0.08177
819.59918,0.08285
821.52765,0.08785
823.45612,0.08681
825.38459,0.08203
827.31305,0.08195
829.24152,0.08789
831.16999,0.08993
833.09846,0.08580
835.02693,0.08954
836.95540,0.10608
838.88387,0.11983
840.81234,0.12236
842.74080,0.11925
844.66927,0.11706
846.59774,0.12357
848.52621,0.13552
850.45468,0.13948
852.38315,0.13268
854.31162,0.11864
856.24008,0.10361
858.16855,0.09787
860.09702,0.10307
862.02549,0.11268
863.95396,0.12299
865.88243,0.14104
867.81090,0.17201
869.73937,0.19050
871.66783,0.17037
873.59630,0.13860
875.52477,0.12884
877.45324,0.12314
879.38171,0.10720
881.31018,0.10135
883.23865,0.10903
885.16711,0.11890
887.09558,0.12598
889.02405,0.12113
890.95252,0.10723
892.88099,0.10171
894.80946,0.10437
896.73793,0.10548
898.66640,0.10793
900.59486,0.11091
902.52333,0.11507
904.45180,0.12364
906.38027,0.12164
908.30874,0.11056
910.23721,0.11312
912.16568,0.12615
914.09414,0.13313
916.02261,0.13215
917.95108,0.12412
919.87955,0.11031
921.80802,0.10705
923.73649,0.11872
925.66496,0.11844
927.59343,0.10502
929.52189,0.10790
931.45036,0.12235
933.37883,0.12476
935.30730,0.11772
937.23577,0.11340
939.16424,0.11471
941.09271,0.11825
943.02117,0.11958
944.94964,0.11813
946.87811,0.11574
948.80658,0.11704
950.73505,0.11881
952.66352,0.11537
954.59199,0.11584
956.52045,0.12316
958.44892,0.12727
960.37739,0.12463
962.30586,0.12087
964.23433,0.12091
966.16280,0.11909
968.09127,0.11383
970.01974,0.11136
971.94820,0.10946
973.87667,0.10841
975.80514,0.11298
977.73361,0.11728
979.66208,0.11343
981.59055,0.10688
983.51902,0.10995
985.44748,0.11917
987.37595,0.12137
989.30442,0.12276
991.23289,0.13287
993.16136,0.13884
995.08983,0.12991
997.01830,0.11694
998.94677,0.11447
1000.87523,0.12035
1002.80370,0.12426
1004.73217,0.12438
1006.66064,0.12374
1008.58911,0.12777
1010.51758,0.13712
1012.44605,0.14089
1014.37451,0.13432
1016.30298,0.12359
1018.23145,0.11781
1020.15992,0.11978
1022.08839,0.11909
1024.01686,0.10891
1025.94533,0.09728
1027.87380,0.09962
1029.80226,0.11307
1031.73073,0.11733
1033.65920,0.11529
1035.58767,0.11556
1037.51614,0.11698
1039.44461,0.11691
1041.37308,0.10662
1043.30154,0.10020
1045.23001,0.10808
1047.15848,0.10933
1049.08695,0.10575
1051.01542,0.11431
1052.94389,0.12665
1054.87236,0.12980
1056.80083,0.12883
1058.72929,0.13175
1060.65776,0.13386
1062.58623,0.12916
1064.51470,0.12217
1066.44317,0.12101
1068.37164,0.12438
1070.30011,0.12761
1072.22857,0.13303
1074.15704,0.13740
1076.08551,0.13465
1078.01398,0.12849
1079.94245,0.12702
1081.87092,0.13191
1083.79939,0.13345
1085.72786,0.12677
1087.65632,0.11738
1089.58479,0.11277
1091.51326,0.11916
1093.44173,0.12617
1095.37020,0.12521
1097.29867,0.13009
1099.22714,0.14398
1101.15560,0.15306
1103.08407,0.15298
1105.01254,0.15239
1106.94101,0.15339
1108.86948,0.14378
1110.79795,0.12505
1112.72642,0.11435
1114.65489,0.11887
1116.58335,0.13034
1118.51182,0.13753
1120.44029,0.13999
1122.36876,0.14050
1124.29723,0.13950
1126.22570,0.13456
1128.15417,0.12755
1130.08263,0.12645
1132.01110,0.12890
1133.93957,0.12855
1135.86804,0.12523
1137.79651,0.12236
1139.72498,0.12451
1141.65345,0.13453
1143.58191,0.14506
1145.51038,0.14496
1147.43885,0.14045
1149.36732,0.14266
1151.29579,0.14938
1153.22426,0.15376
1155.15273,0.15138
1157.08120,0.14257
1159.00966,0.13509
1160.93813,0.13446
1162.86660,0.13536
1164.79507,0.13348
1166.72354,0.13080
1168.65201,0.12859
1170.58048,0.13002
1172.50894,0.13479
1174.43741,0.13634
1176.36588,0.13586
1178.29435,0.13750
1180.22282,0.13849
1182.15129,0.13968
1184.07976,0.16091
1186.00823,0.19856
1187.93669,0.20013
1189.86516,0.16597
1191.79363,0.14778
1193.72210,0.14876
1195.65057,0.15164
1197.57904,0.14918
1199.50751,0.13901
1201.43597,0.13200
1203.36444,0.13310
1205.29291,0.13720
1207.22138,0.14067
1209.14985,0.14180
1211.07832,0.13932
1213.00679,0.13624
1214.93526,0.13786
1216.86372,0.14280
1218.79219,0.14774
1220.72066,0.15146
1222.64913,0.15055
1224.57760,0.14344
1226.50607,0.13672
1228.43454,0.13781
1230.36300,0.14262
1232.29147,0.14430
1234.21994,0.14404
1236.14841,0.14550
1238.07688,0.14836
1240.00535,0.14769
1241.93382,0.14449
1243.86229,0.14466
1245.79075,0.14428
1247.71922,0.13923
1249.64769,0.13724
1251.57616,0.14231
1253.50463,0.14564
1255.43310,0.14525
1257.36157,0.14897
1259.29003,0.15520
1261.21850,0.15229
1263.14697,0.13817
1265.07544,0.12810
1267.00391,0.13268
1268.93238,0.14480
1270.86085,0.15282
1272.78932,0.15152
1274.71778,0.14653
1276.64625,0.14519
1278.57472,0.14728
1280.50319,0.15250
1282.43166,0.15978
1284.36013,0.16384
1286.28860,0.16330
1288.21706,0.16070
1290.14553,0.15514
1292.07400,0.14714
1294.00247,0.14327
1295.93094,0.14748
1297.85941,0.15419
1299.78788,0.15343
1301.71634,0.14263
1303.64481,0.13166
1305.57328,0.13172
1307.50175,0.13966
1309.43022,0.14337
1311.35869,0.14138
1313.28716,0.14095
1315.21563,0.14519
1317.14409,0.15128
1319.07256,0.15561
1321.00103,0.15883
1322.92950,0.16202
1324.85797,0.16177
1326.78644,0.15725
1328.71491,0.15301
1330.64337,0.14978
1332.57184,0.14769
1334.50031,0.14959
1336.42878,0.15712
1338.35725,0.16797
1340.28572,0.16703
1342.21419,0.15363
1344.14266,0.14559
1346.07112,0.14684
1347.99959,0.15202
1349.92806,0.15271
1351.85653,0.14979
1353.78500,0.15176
1355.71347,0.15461
1357.64194,0.15388
1359.57040,0.15651
1361.49887,0.16457
1363.42734,0.16801
1365.35581,0.16453
1367.28428,0.16238
1369.21275,0.16246
1371.14122,0.16450
1373.06969,0.16990
1374.99815,0.17023
1376.92662,0.16349
1378.85509,0.16015
1380.78356,0.15941
1382.71203,0.15933
1384.64050,0.16356
1386.56897,0.17154
1388.49743,0.17643
1390.42590,0.17756
1392.35437,0.18236
1394.28284,0.18988
1396.21131,0.19150
1398.13978,0.18603
1400.06825,0.17586
1401.99672,0.16759
1403.92518,0.16665
1405.85365,0.16851
1407.78212,0.16966
1409.71059,0.17052
1411.63906,0.16932
1413.56753,0.16937
1415.49600,0.17552
1417.42446,0.18640
1419.35293,0.18948
1421.28140,0.18496
1423.20987,0.18532
1425.13834,0.18128
1427.06681,0.17305
1428.99528,0.17262
1430.92375,0.17498
1432.85221,0.17331
1434.78068,0.17497
1436.70915,0.17956
1438.63762,0.17514
1440.56609,0.16781
1442.49456,0.16587
1444.42303,0.16828
1446.35149,0.17267
1448.27996,0.17608
1450.20843,0.17432
1452.13690,0.17186
1454.06537,0.17755
1455.99384,0.19622
1457.92231,0.20818
1459.85077,0.19520
1461.77924,0.18684
1463.70771,0.19212
1465.63618,0.19873
1467.56465,0.19394
1469.49312,0.19081
1471.42159,0.19977
1473.35006,0.20917
1475.27852,0.20010
1477.20699,0.18736
1479.13546,0.18130
1481.06393,0.17818
1482.99240,0.17685
1484.92087,0.18376
1486.84934,0.19931
1488.77780,0.20970
1490.70627,0.20216
1492.63474,0.19345
1494.56321,0.19822
1496.49168,0.20928
1498.42015,0.20359
1500.34862,0.18241
1502.27709,0.16951
1504.20555,0.18658
1506.13402,0.24501
1508.06249,0.26309
1509.99096,0.22939
1511.91943,0.21174
1513.84790,0.20888
1515.77637,0.21722
1517.70483,0.22725
1519.63330,0.23618
1521.56177,0.24630
1523.49024,0.23934
1525.41871,0.22039
1527.34718,0.20039
1529.27565,0.18585
1531.20412,0.18458
1533.13258,0.19596
1535.06105,0.20459
1536.98952,0.21146
1538.91799,0.23405
1540.84646,0.26103
1542.77493,0.25164
1544.70340,0.22541
1546.63186,0.20442
1548.56033,0.19908
1550.48880,0.20217
1552.41727,0.20566
1554.34574,0.21439
1556.27421,0.23469
1558.20268,0.26078
1560.13115,0.23695
1562.05961,0.20506
1563.98808,0.19306
1565.91655,0.18962
1567.84502,0.19674
1569.77349,0.20576
1571.70196,0.20046
1573.63043,0.19828
1575.55889,0.20693
1577.48736,0.20431
1579.41583,0.19089
1581.34430,0.18352
1583.27277,0.18130
1585.20124,0.18163
1587.12971,0.18554
1589.05818,0.19025
1590.98664,0.19179
1592.91511,0.19102
1594.84358,0.18881
1596.77205,0.18454
1598.70052,0.17974
1600.62899,0.17612
1602.55746,0.17429
1604.48592,0.17491
1606.41439,0.17806
1608.34286,0.18068
1610.27133,0.18059
1612.19980,0.18186
1614.12827,0.18881
1616.05674,0.19740
1617.98521,0.19334
1619.91367,0.18768
1621.84214,0.19416
1623.77061,0.20344
1625.69908,0.20337
1627.62755,0.19931
1629.55602,0.19475
1631.48449,0.19446
1633.41295,0.20616
1635.34142,0.22519
1637.26989,0.22151
1639.19836,0.20597
1641.12683,0.19811
1643.05530,0.20056
1644.98377,0.21713
1646.91223,0.23752
1648.84070,0.23328
1650.76917,0.22772
1652.69764,0.23153
1654.62611,0.21156
1656.55458,0.18159
1658.48305,0.15584
1660.41152,0.14505
1662.33998,0.16242
1664.26845,0.18379
1666.19692,0.19153
1668.12539,0.20408
1670.05386,0.22073
1671.98233,0.22058
1673.91080,0.21489
1675.83926,0.21081
1677.76773,0.20740
1679.69620,0.20747
1681.62467,0.21782
1683.55314,0.24115
1685.48161,0.24019
1687.41008,0.22194
1689.33855,0.20948
1691.26701,0.19875
1693.19548,0.19645
1695.12395,0.20393
1697.05242,0.21504
1698.98089,0.22711
1700.90936,0.22652
1702.83783,0.21709
1704.76629,0.21526
1706.69476,0.21263
1708.62323,0.20364
1710.55170,0.19734
1712.48017,0.19917
1714.40864,0.20996
1716.33711,0.22579
1718.26558,0.22252
1720.19404,0.20103
1722.12251,0.18749
1724.05098,0.18413
1725.97945,0.18666
1727.90792,0.19540
1729.83639,0.20851
1731.76486,0.22232
1733.69332,0.23175
1735.62179,0.22226
1737.55026,0.20918
1739.47873,0.20311
1741.40720,0.20293
1743.33567,0.20588
1745.26414,0.20738
1747.19261,0.20915
1749.12107,0.21008
1751.04954,0.19992
1752.97801,0.18717
1754.90648,0.18338
1756.83495,0.18410
1758.76342,0.18586
1760.69189,0.19063
1762.62035,0.19292
1764.54882,0.19224
1766.47729,0.19643
1768.40576,0.20401
1770.33423,0.21109
1772.26270,0.21350
1774.19117,0.20755
1776.11964,0.20039
1778.04810,0.19511
1779.97657,0.19157
1781.90504,0.19015
1783.83351,0.19033
1785.76198,0.18914
1787.69045,0.18911
1789.61892,0.19597
1791.54738,0.20243
1793.47585,0.19523
1795.40432,0.18561
1797.33279,0.18477
1799.26126,0.19001
1801.18973,0.19222
1803.11820,0.18705
1805.04666,0.18294
1806.97513,0.18291
1808.90360,0.18442
1810.83207,0.18626
1812.76054,0.18645
1814.68901,0.18642
1816.61748,0.18909
1818.54595,0.20078
1820.47441,0.21437
1822.40288,0.21186
1824.33135,0.19893
1826.25982,0.18935
1828.18829,0.18686
1830.11676,0.19139
1832.04523,0.19156
1833.97369,0.18764
1835.90216,0.18847
1837.83063,0.19045
1839.75910,0.19039
1841.68757,0.19348
1843.61604,0.19850
1845.54451,0.19893
1847.47298,0.19513
1849.40144,0.18843
1851.32991,0.18129
1853.25838,0.17942
1855.18685,0.18325
1857.11532,0.18538
1859.04379,0.18376
1860.97226,0.18270
1862.90072,0.18389
1864.82919,0.18983
1866.75766,0.20208
1868.68613,0.20985
1870.61460,0.19961
1872.54307,0.18467
1874.47154,0.17717
1876.40001,0.17566
1878.32847,0.17721
1880.25694,0.18066
1882.18541,0.18421
1884.11388,0.18409
1886.04235,0.18212
1887.97082,0.18358
1889.89929,0.18462
1891.82775,0.18380
1893.75622,0.18785
1895.68469,0.19135
1897.61316,0.18636
1899.54163,0.18175
1901.47010,0.18317
1903.39857,0.18390
1905.32704,0.18298
1907.25550,0.18399
1909.18397,0.18322
1911.11244,0.18052
1913.04091,0.18160
1914.96938,0.18588
1916.89785,0.18935
1918.82632,0.18749
1920.75478,0.18234
1922.68325,0.18014
1924.61172,0.18047
1926.54019,0.18213
1928.46866,0.18553
1930.39713,0.18669
1932.32560,0.18456
1934.25407,0.18287
1936.18253,0.18247
1938.11100,0.18282
1940.03947,0.18331
1941.96794,0.18419
1943.89641,0.18537
1945.82488,0.18619
1947.75335,0.18832
1949.68181,0.19065
1951.61028,0.18989
1953.53875,0.18767
1955.46722,0.18736
1957.39569,0.18737
1959.32416,0.18664
1961.25263,0.18649
1963.18110,0.18711
1965.10956,0.18914
1967.03803,0.19070
1968.96650,0.18821
1970.89497,0.18466
1972.82344,0.18494
1974.75191,0.18698
1976.68038,0.18839
1978.60884,0.18924
1980.53731,0.18740
1982.46578,0.18421
1984.39425,0.18347
1986.32272,0.18597
1988.25119,0.18907
1990.17966,0.19062
1992.10812,0.19190
1994.03659,0.19196
1995.96506,0.18975
1997.89353,0.18916
1999.82200,0.19122
2001.75047,0.19117
2003.67894,0.18790
2005.60741,0.18473
2007.53587,0.18383
2009.46434,0.18585
2011.39281,0.18905
2013.32128,0.19029
2015.24975,0.19099
2017.17822,0.19281
2019.10669,0.19097
2021.03515,0.18731
2022.96362,0.18783
2024.89209,0.18994
2026.82056,0.19132
2028.74903,0.19190
2030.67750,0.19124
2032.60597,0.19188
2034.53444,0.19338
2036.46290,0.19301
2038.39137,0.19162
2040.31984,0.19030
2042.24831,0.18857
2044.17678,0.18605
2046.10525,0.18392
2048.03372,0.18381
2049.96218,0.18315
2051.89065,0.18125
2053.81912,0.18269
2055.74759,0.18670
2057.67606,0.18866
2059.60453,0.18721
2061.53300,0.18440
2063.46147,0.18297
2065.38993,0.18428
2067.31840,0.18711
2069.24687,0.18676
2071.17534,0.18498
2073.10381,0.18660
2075.03228,0.18704
2076.96075,0.18435
2078.88921,0.18346
2080.81768,0.18502
2082.74615,0.18662
2084.67462,0.18821
2086.60309,0.18975
2088.53156,0.18880
2090.46003,0.18529
2092.38850,0.18269
2094.31696,0.18224
2096.24543,0.18216
2098.17390,0.18294
2100.10237,0.18511
2102.03084,0.18707
2103.95931,0.18865
2105.88778,0.19006
2107.81624,0.19102
2109.74471,0.19149
2111.67318,0.19203
2113.60165,0.19310
2115.53012,0.19352
2117.45859,0.19311
2119.38706,0.19334
2121.31553,0.19261
2123.24399,0.18893
2125.17246,0.18584
2127.10093,0.18694
2129.02940,0.18968
2130.95787,0.19179
2132.88634,0.19394
2134.81481,0.19476
2136.74327,0.19710
2138.67174,0.20057
2140.60021,0.19868
2142.52868,0.19645
2144.45715,0.19675
2146.38562,0.19396
2148.31409,0.18998
2150.24255,0.18991
2152.17102,0.19305
2154.09949,0.19399
2156.02796,0.19222
2157.95643,0.19121
2159.88490,0.19026
2161.81337,0.18772
2163.74184,0.18594
2165.67030,0.18747
2167.59877,0.19003
2169.52724,0.19173
2171.45571,0.19315
2173.38418,0.19423
2175.31265,0.19432
2177.24112,0.19391
2179.16958,0.19343
2181.09805,0.19249
2183.02652,0.19126
2184.95499,0.18948
2186.88346,0.18812
2188.81193,0.18747
2190.74040,0.18788
2192.66887,0.19135
2194.59733,0.19529
2196.52580,0.19649
2198.45427,0.19476
2200.38274,0.19142
2202.31121,0.19006
2204.23968,0.19058
2206.16815,0.18980
2208.09661,0.18933
2210.02508,0.19084
2211.95355,0.19097
2213.88202,0.18744
2215.81049,0.18396
2217.73896,0.18479
2219.66743,0.18794
2221.59590,0.19027
2223.52436,0.19214
2225.45283,0.19454
2227.38130,0.19607
2229.30977,0.19355
2231.23824,0.19026
2233.16671,0.19084
2235.09518,0.19085
2237.02364,0.18747
2238.95211,0.18440
2240.88058,0.18295
2242.80905,0.18211
2244.73752,0.18321
2246.66599,0.18670
2248.59446,0.18903
2250.52293,0.18840
2252.45139,0.18723
2254.37986,0.18820
2256.30833,0.19196
2258.23680,0.19513
2260.16527,0.19455
2262.09374,0.19305
2264.02221,0.19317
2265.95067,0.19440
2267.87914,0.19684
2269.80761,0.19785
2271.73608,0.19449
2273.66455,0.19001
2275.59302,0.18970
2277.52149,0.19291
2279.44996,0.19550
2281.37842,0.19764
2283.30689,0.20023
2285.23536,0.20097
2287.16383,0.20133
2289.09230,0.19886
2291.02077,0.18218
2292.94924,0.15929
2294.87770,0.15555
2296.80617,0.17601
2298.73464,0.19845
2300.66311,0.20375
2302.59158,0.19920
2304.52005,0.19781
2306.44852,0.20173
2308.37699,0.20723
2310.30545,0.20821
2312.23392,0.20808
2314.16239,0.21154
2316.09086,0.21718
2318.01933,0.22707
2319.94780,0.23716
2321.87627,0.23952
2323.80473,0.24133
2325.73320,0.24765
2327.66167,0.24768
2329.59014,0.24514
2331.51861,0.24738
2333.44708,0.24198
2335.37555,0.23603
2337.30401,0.24253
2339.23248,0.24747
2341.16095,0.24631
2343.08942,0.24456
2345.01789,0.23825
2346.94636,0.23255
2348.87483,0.22964
2350.80330,0.22798
2352.73176,0.23561
2354.66023,0.26305
2356.58870,0.29386
2358.51717,0.30083
2360.44564,0.28590
2362.37411,0.26705
2364.30258,0.25947
2366.23104,0.25411
2368.15951,0.23962
2370.08798,0.22656
2372.01645,0.21784
2373.94492,0.20891
2375.87339,0.20205
2377.80186,0.19957
2379.73033,0.19730
2381.65879,0.19410
2383.58726,0.19396
2385.51573,0.19592
2387.44420,0.19580
2389.37267,0.19285
2391.30114,0.18988
2393.22961,0.18909
2395.15807,0.18999
2397.08654,0.19230
2399.01501,0.19387
2400.94348,0.19266
2402.87195,0.19139
2404.80042,0.19197
2406.72889,0.19334
2408.65736,0.19408
2410.58582,0.19276
2412.51429,0.19069
2414.44276,0.19093
2416.37123,0.19139
2418.29970,0.18961
2420.22817,0.18958
2422.15664,0.19195
2424.08510,0.19274
2426.01357,0.19266
2427.94204,0.19366
2429.87051,0.19379
2431.79898,0.19184
2433.72745,0.19121
2435.65592,0.19249
2437.58439,0.19248
2439.51285,0.19169
2441.44132,0.19023
2443.36979,0.18858
2445.29826,0.19019
2447.22673,0.19685
2449.15520,0.20223
2451.08367,0.19645
2453.01213,0.18928
2454.94060,0.19321
2456.86907,0.19873
2458.79754,0.20037
2460.72601,0.20124
2462.65448,0.19865
2464.58295,0.19339
2466.51142,0.19237
2468.43988,0.19487
2470.36835,0.19452
2472.29682,0.19342
2474.22529,0.19417
2476.15376,0.19489
2478.08223,0.19518
2480.01070,0.19459
2481.93916,0.19397
2483.86763,0.19445
2485.79610,0.19530
2487.72457,0.19549
2489.65304,0.19410
2491.58151,0.19258
2493.50998,0.19385
2495.43844,0.19549
2497.36691,0.19406
2499.29538,0.19170
2501.22385,0.19031
2503.15232,0.19108
2505.08079,0.19424
2507.00926,0.19700
2508.93773,0.19759
2510.86619,0.19485
2512.79466,0.19138
2514.72313,0.19249
2516.65160,0.19583
2518.58007,0.19599
2520.50854,0.19415
2522.43701,0.19348
2524.36547,0.19368
2526.29394,0.19326
2528.22241,0.19286
2530.15088,0.19414
2532.07935,0.19518
2534.00782,0.19387
2535.93629,0.19284
2537.86476,0.19305
2539.79322,0.19278
2541.72169,0.19296
2543.65016,0.19374
2545.57863,0.19390
2547.50710,0.19561
2549.43557,0.19885
2551.36404,0.19933
2553.29250,0.19663
2555.22097,0.19411
2557.14944,0.19396
2559.07791,0.19569
2561.00638,0.19660
2562.93485,0.19383
2564.86332,0.18967
2566.79179,0.18966
2568.72025,0.19255
2570.64872,0.19444
2572.57719,0.19601
2574.50566,0.19690
2576.43413,0.19630
2578.36260,0.19595
2580.29107,0.19623
2582.21953,0.19621
2584.14800,0.19578
2586.07647,0.19364
2588.00494,0.18966
2589.93341,0.18738
2591.86188,0.18747
2593.79035,0.18823
2595.71882,0.19057
2597.64728,0.19251
2599.57575,0.19352
2601.50422,0.19722
2603.43269,0.20144
2605.36116,0.20275
2607.28963,0.20314
2609.21810,0.20323
2611.14656,0.20205
2613.07503,0.20231
2615.00350,0.20280
2616.93197,0.20047
2618.86044,0.19864
2620.78891,0.19950
2622.71738,0.20135
2624.64585,0.20140
2626.57431,0.19807
2628.50278,0.19309
2630.43125,0.18981
2632.35972,0.19016
2634.28819,0.19322
2636.21666,0.19727
2638.14513,0.20010
2640.07359,0.20106
2642.00206,0.20263
2643.93053,0.20614
2645.85900,0.20728
2647.78747,0.20337
2649.71594,0.20036
2651.64441,0.20188
2653.57288,0.20446
2655.50134,0.20396
2657.42981,0.20171
2659.35828,0.20251
2661.28675,0.20456
2663.21522,0.20392
2665.14369,0.20119
2667.07216,0.19789
2669.00062,0.19640
2670.92909,0.19736
2672.85756,0.19860
2674.78603,0.20087
2676.71450,0.20336
2678.64297,0.20241
2680.57144,0.20142
2682.49990,0.20367
2684.42837,0.20501
2686.35684,0.20460
2688.28531,0.20394
2690.21378,0.20210
2692.14225,0.20040
2694.07072,0.20057
2695.99919,0.20321
2697.92765,0.20688
2699.85612,0.20814
2701.78459,0.20666
2703.71306,0.20545
2705.64153,0.20713
2707.57000,0.20818
2709.49847,0.20534
2711.42693,0.20327
2713.35540,0.20313
2715.28387,0.20230
2717.21234,0.20193
2719.14081,0.20197
2721.06928,0.20235
2722.99775,0.20463
2724.92622,0.20718
2726.85468,0.20725
2728.78315,0.20558
2730.71162,0.20337
2732.64009,0.19994
2734.56856,0.19773
2736.49703,0.19988
2738.42550,0.20561
2740.35396,0.21056
2742.28243,0.21114
2744.21090,0.20918
2746.13937,0.20701
2748.06784,0.20738
2749.99631,0.21154
2751.92478,0.21440
2753.85325,0.21256
2755.78171,0.20908
2757.71018,0.20732
2759.63865,0.20702
2761.56712,0.20745
2763.49559,0.20727
2765.42406,0.20556
2767.35253,0.20450
2769.28099,0.20522
2771.20946,0.20621
2773.13793,0.20505
2775.06640,0.20401
2776.99487,0.20830
2778.92334,0.21423
2780.85181,0.21480
2782.78028,0.21127
2784.70874,0.20703
2786.63721,0.20341
2788.56568,0.20264
2790.49415,0.20519
2792.42262,0.20737
2794.35109,0.20684
2796.27956,0.20738
2798.20802,0.20995
2800.13649,0.21087
2802.06496,0.20951
2803.99343,0.20692
2805.92190,0.20649
2807.85037,0.21125
2809.77884,0.21573
2811.70731,0.21431
2813.63577,0.21234
2815.56424,0.21501
2817.49271,0.21733
2819.42118,0.21563
2821.34965,0.21472
2823.27812,0.21647
2825.20659,0.21661
2827.13505,0.21573
2829.06352,0.21773
2830.99199,0.22226
2832.92046,0.22562
2834.84893,0.22639
2836.77740,0.22550
2838.70587,0.22275
2840.63433,0.21966
2842.56280,0.21687
2844.49127,0.21379
2846.41974,0.21340
2848.34821,0.21598
2850.27668,0.21473
2852.20515,0.20745
2854.13362,0.20391
2856.06208,0.20976
2857.99055,0.21655
2859.91902,0.21768
2861.84749,0.21734
2863.77596,0.21815
2865.70443,0.21675
2867.63290,0.21148
2869.56136,0.20565
2871.48983,0.20422
2873.41830,0.20761
2875.34677,0.21153
2877.27524,0.21359
2879.20371,0.21465
2881.13218,0.21531
2883.06065,0.21509
2884.98911,0.21167
2886.91758,0.20860
2888.84605,0.21107
2890.77452,0.21312
2892.70299,0.21361
2894.63146,0.21589
2896.55993,0.21796
2898.48839,0.22155
2900.41686,0.22343
2902.34533,0.21840
2904.27380,0.21296
2906.20227,0.21145
2908.13074,0.21117
2910.05921,0.21221
2911.98768,0.21296
2913.91614,0.21138
2915.84461,0.21097
2917.77308,0.21368
2919.70155,0.21668
2921.63002,0.21799
2923.55849,0.22040
2925.48696,0.22473
2927.41542,0.22675
2929.34389,0.22252
2931.27236,0.21341
2933.20083,0.21063
2935.12930,0.21489
2937.05777,0.21431
2938.98624,0.21153
2940.91471,0.21032
2942.84317,0.20633
2944.77164,0.20259
2946.70011,0.20355
2948.62858,0.20719
2950.55705,0.20888
2952.48552,0.21050
2954.41399,0.21140
2956.34245,0.20393
2958.27092,0.19458
2960.19939,0.19520
2962.12786,0.20496
2964.05633,0.21588
2965.98480,0.21846
2967.91327,0.21292
2969.84174,0.21092
2971.77020,0.21579
2973.69867,0.22057
2975.62714,0.22043
2977.55561,0.21515
2979.48408,0.21131
2981.41255,0.21154
2983.34102,0.21114
2985.26948,0.21091
2987.19795,0.21139
2989.12642,0.21276
2991.05489,0.21833
2992.98336,0.22443
2994.91183,0.22554
2996.84030,0.22311
2998.76877,0.22082
3000.69723,0.22044
3002.62570,0.22189
3004.55417,0.22311
3006.48264,0.22029
3008.41111,0.21254
3010.33958,0.20396
3012.26805,0.19535
3014.19651,0.17973
3016.12498,0.16191
3018.05345,0.16380
3019.98192,0.18600
3021.91039,0.20556
3023.83886,0.21361
3025.76733,0.21397
3027.69579,0.21133
3029.62426,0.21123
3031.55273,0.21440
3033.48120,0.21727
3035.40967,0.22032
3037.33814,0.22555
3039.26661,0.22716
3041.19508,0.22264
3043.12354,0.22051
3045.05201,0.22027
3046.98048,0.21722
3048.90895,0.21875
3050.83742,0.22311
3052.76589,0.22083
3054.69436,0.21446
3056.62282,0.20961
3058.55129,0.21045
3060.47976,0.21839
3062.40823,0.22810
3064.33670,0.22915
3066.26517,0.21955
3068.19364,0.21422
3070.12211,0.21876
3072.05057,0.22051
3073.97904,0.21217
3075.90751,0.20296
3077.83598,0.20386
3079.76445,0.21013
3081.69292,0.21330
3083.62139,0.21023
3085.54985,0.20461
3087.47832,0.20622
3089.40679,0.21342
3091.33526,0.21758
3093.26373,0.21641
3095.19220,0.21574
3097.12067,0.22044
3099.04914,0.22442
3100.97760,0.22327
3102.90607,0.21873
3104.83454,0.21444
3106.76301,0.21319
3108.69148,0.21516
3110.61995,0.21899
3112.54842,0.22179
3114.47688,0.22298
3116.40535,0.22150
3118.33382,0.21724
3120.26229,0.21451
3122.19076,0.21771
3124.11923,0.22476
3126.04770,0.22664
3127.97617,0.21989
3129.90463,0.21234
3131.83310,0.21107
3133.76157,0.21229
3135.69004,0.21114
3137.61851,0.21100
3139.54698,0.21553
3141.47545,0.21853
3143.40391,0.21512
3145.33238,0.21265
3147.26085,0.21410
3149.18932,0.21828
3151.11779,0.22490
3153.04626,0.22736
3154.97473,0.22458
3156.90320,0.22179
3158.83166,0.21807
3160.76013,0.21495
3162.68860,0.21770
3164.61707,0.22429
3166.54554,0.22890
3168.47401,0.23045
3170.40248,0.23266
3172.33094,0.23467
3174.25941,0.23184
3176.18788,0.22588
3178.11635,0.22257
3180.04482,0.22392
3181.97329,0.22732
3183.90176,0.22969
3185.83022,0.22937
3187.75869,0.22766
3189.68716,0.22748
3191.61563,0.22999
3193.54410,0.23005
3195.47257,0.22347
3197.40104,0.21731
3199.32951,0.21697
3201.25797,0.21889
3203.18644,0.21822
3205.11491,0.21574
3207.04338,0.21488
3208.97185,0.21545
3210.90032,0.21622
3212.82879,0.21644
3214.75725,0.21895
3216.68572,0.22542
3218.61419,0.23006
3220.54266,0.22893
3222.47113,0.22356
3224.39960,0.21610
3226.32807,0.21121
3228.25654,0.21345
3230.18500,0.22019
3232.11347,0.22643
3234.04194,0.23114
3235.97041,0.23220
3237.89888,0.22452
3239.82735,0.21798
3241.75582,0.22733
3243.68428,0.23722
3245.61275,0.22684
3247.54122,0.21200
3249.46969,0.21575
3251.39816,0.23025
3253.32663,0.23486
3255.25510,0.22796
3257.18357,0.22217
3259.11203,0.22043
3261.04050,0.21947
3262.96897,0.22113
3264.89744,0.22744
3266.82591,0.23406
3268.75438,0.23104
3270.68285,0.21950
3272.61131,0.21333
3274.53978,0.21795
3276.46825,0.22453
3278.39672,0.22453
3280.32519,0.22137
3282.25366,0.21939
3284.18213,0.21547
3286.11060,0.21156
3288.03906,0.21398
3289.96753,0.21897
3291.89600,0.21792
3293.82447,0.21319
3295.75294,0.21421
3297.68141,0.21926
3299.60988,0.22104
3301.53834,0.22317
3303.46681,0.22989
3305.39528,0.23426
3307.32375,0.22890
3309.25222,0.22017
3311.18069,0.21568
3313.10916,0.21383
3315.03763,0.21549
3316.96609,0.21858
3318.89456,0.21636
3320.82303,0.21137
3322.75150,0.21056
3324.67997,0.21277
3326.60844,0.21464
3328.53691,0.21577
3330.46537,0.21536
3332.39384,0.21653
3334.32231,0.22273
3336.25078,0.22845
3338.17925,0.22717
3340.10772,0.22176
3342.03619,0.21875
3343.96466,0.22189
3345.89312,0.22696
3347.82159,0.22526
3349.75006,0.21628
3351.67853,0.20794
3353.60700,0.20784
3355.53547,0.21212
3357.46394,0.21327
3359.39240,0.21147
3361.32087,0.20657
3363.24934,0.20286
3365.17781,0.20827
3367.10628,0.21846
3369.03475,0.22375
3370.96322,0.22471
3372.89168,0.22786
3374.82015,0.23232
3376.74862,0.23042
3378.67709,0.22326
3380.60556,0.22140
3382.53403,0.22706
3384.46250,0.23080
3386.39097,0.22734
3388.31943,0.22229
3390.24790,0.22122
3392.17637,0.22327
3394.10484,0.22352
3396.03331,0.21977
3397.96178,0.21488
3399.89025,0.20985
3401.81871,0.20761
3403.74718,0.21425
3405.67565,0.22468
3407.60412,0.22621
3409.53259,0.22001
3411.46106,0.21729
3413.38953,0.21991
3415.31800,0.22171
3417.24646,0.21941
3419.17493,0.21723
3421.10340,0.21574
3423.03187,0.20978
3424.96034,0.20610
3426.88881,0.21223
3428.81728,0.21932
3430.74574,0.21723
3432.67421,0.20848
3434.60268,0.20261
3436.53115,0.20406
3438.45962,0.20581
3440.38809,0.20394
3442.31656,0.20531
3444.24503,0.21315
3446.17349,0.21900
3448.10196,0.21305
3450.03043,0.20334
3451.95890,0.20216
3453.88737,0.20439
3455.81584,0.20053
3457.74431,0.19394
3459.67277,0.19294
3461.60124,0.19587
3463.52971,0.19732
3465.45818,0.19776
3467.38665,0.20009
3469.31512,0.20517
3471.24359,0.21029
3473.17206,0.20902
3475.10052,0.19999
3477.02899,0.19189
3478.95746,0.19173
3480.88593,0.19732
3482.81440,0.19842
3484.74287,0.19328
3486.67134,0.19277
3488.59980,0.19593
3490.52827,0.19342
3492.45674,0.18830
3494.38521,0.18901
3496.31368,0.19704
3498.24215,0.20371
3500.17062,0.19802
3502.09909,0.18586
3504.02755,0.18371
3505.95602,0.18862
3507.88449,0.18889
3509.81296,0.18701
3511.74143,0.18694
3513.66990,0.18448
3515.59837,0.18184
3517.52683,0.18195
3519.45530,0.18038
3521.38377,0.18043
3523.31224,0.18603
3525.24071,0.19104
3527.16918,0.19038
3529.09765,0.18225
3531.02611,0.17029
3532.95458,0.16423
3534.88305,0.16757
3536.81152,0.17460
3538.73999,0.18096
3540.66846,0.18487
3542.59693,0.18448
3544.52540,0.18453
3546.45386,0.18856
3548.38233,0.18990
3550.31080,0.18266
3552.23927,0.16958
3554.16774,0.16087
3556.09621,0.15823
3558.02468,0.15878
3559.95314,0.16442
3561.88161,0.17081
3563.81008,0.17589
3565.73855,0.18400
3567.66702,0.18602
3569.59549,0.17582
3571.52396,0.17044
3573.45243,0.17114
3575.38089,0.16597
3577.30936,0.15728
3579.23783,0.15636
3581.16630,0.16221
3583.09477,0.16809
3585.02324,0.17569
3586.95171,0.18308
3588.88017,0.17907
3590.80864,0.17534
3592.73711,0.18065
3594.66558,0.18479
3596.59405,0.17953
3598.52252,0.17220
3600.45099,0.16867
3602.37946,0.16522
3604.30792,0.16296
3606.23639,0.16750
3608.16486,0.17571
3610.09333,0.17919
3612.02180,0.18110
3613.95027,0.18324
3615.87874,0.18191
3617.80720,0.17637
3619.73567,0.16664
3621.66414,0.16033
3623.59261,0.15981
3625.52108,0.16108
3627.44955,0.15988
3629.37802,0.15275
3631.30649,0.15159
3633.23495,0.15416
3635.16342,0.14977
3637.09189,0.14325
3639.02036,0.14159
3640.94883,0.14098
3642.87730,0.13830
3644.80577,0.14012
3646.73423,0.15520
3648.66270,0.17834
3650.59117,0.17727
3652.51964,0.15668
3654.44811,0.14264
3656.37658,0.14088
3658.30505,0.14141
3660.23352,0.13906
3662.16198,0.14127
3664.09045,0.14736
3666.01892,0.15407
3667.94739,0.16331
3669.87586,0.16684
3671.80433,0.15960
3673.73280,0.15970
3675.66126,0.16065
3677.58973,0.15224
3679.51820,0.14687
3681.44667,0.14072
3683.37514,0.13529
3685.30361,0.14167
3687.23208,0.16034
3689.16055,0.17676
3691.08901,0.17195
3693.01748,0.15615
3694.94595,0.14570
3696.87442,0.14332
3698.80289,0.14645
3700.73136,0.14823
3702.65983,0.14175
3704.58829,0.13582
3706.51676,0.13800
3708.44523,0.14660
3710.37370,0.15503
3712.30217,0.14710
3714.23064,0.12980
3716.15911,0.12079
3718.08757,0.12080
3720.01604,0.12772
3721.94451,0.14105
3723.87298,0.15339
3725.80145,0.15563
3727.72992,0.14991
3729.65839,0.14382
3731.58686,0.14439
3733.51532,0.15610
3735.44379,0.16715
3737.37226,0.16225
3739.30073,0.15454
3741.22920,0.15292
3743.15767,0.15539
3745.08614,0.15641
3747.01460,0.15199
3748.94307,0.15206
3750.87154,0.16013
3752.80001,0.15847
3754.72848,0.15124
3756.65695,0.15002
3758.58542,0.15059
3760.51389,0.14705
3762.44235,0.14222
3764.37082,0.13876
3766.29929,0.13804
3768.22776,0.13778
3770.15623,0.13299
3772.08470,0.12680
3774.01317,0.12562
3775.94163,0.12953
3777.87010,0.13451
3779.79857,0.13543
3781.72704,0.13156
3783.65551,0.12787
3785.58398,0.12662
3787.51245,0.12617
3789.44092,0.12587
3791.36938,0.12802
3793.29785,0.13602
3795.22632,0.14775
3797.15479,0.15515
3799.08326,0.16042
3801.01173,0.16844
3802.94020,0.16484
3804.86866,0.15364
3806.79713,0.14467
3808.72560,0.13334
3810.65407,0.12273
3812.58254,0.11935
3814.51101,0.12643
3816.43948,0.13778
3818.36795,0.14211
3820.29641,0.14567
3822.22488,0.14620
3824.15335,0.14291
3826.08182,0.14342
3828.01029,0.14265
3829.93876,0.13634
3831.86723,0.12747
3833.79569,0.12339
3835.72416,0.13019
3837.65263,0.14524
3839.58110,0.15280
3841.50957,0.14465
3843.43804,0.13201
3845.36651,0.12292
3847.29498,0.11922
3849.22344,0.12166
3851.15191,0.13580
3853.08038,0.16099
3855.00885,0.15257
3856.93732,0.12633
3858.86579,0.11434
3860.79426,0.11378
3862.72272,0.11713
3864.65119,0.12527
3866.57966,0.13790
3868.50813,0.14821
3870.43660,0.14872
3872.36507,0.13930
3874.29354,0.13239
3876.22200,0.12877
3878.15047,0.12669
3880.07894,0.12794
3882.00741,0.13066
3883.93588,0.13618
3885.86435,0.13923
3887.79282,0.13075
3889.72129,0.12040
3891.64975,0.11577
3893.57822,0.11426
3895.50669,0.11378
3897.43516,0.12054
3899.36363,0.13484
3901.29210,0.14784
3903.22057,0.15547
3905.14903,0.14864
3907.07750,0.13263
3909.00597,0.12308
3910.93444,0.11935
3912.86291,0.11553
3914.79138,0.11159
3916.71985,0.11363
3918.64832,0.12032
3920.57678,0.11931
3922.50525,0.11311
3924.43372,0.11174
3926.36219,0.11250
3928.29066,0.11111
3930.21913,0.11037
3932.14760,0.10758
3934.07606,0.10089
3936.00453,0.10163
3937.93300,0.11208
3939.86147,0.11913
3941.78994,0.11817
3943.71841,0.11617
3945.64688,0.11534
3947.57535,0.11385
3949.50381,0.11160
3951.43228,0.11100
3953.36075,0.11456
3955.28922,0.11964
3957.21769,0.11681
3959.14616,0.10355
3961.07463,0.09479
3963.00309,0.09849
3964.93156,0.10358
3966.86003,0.10350
3968.78850,0.10312
3970.71697,0.10487
3972.64544,0.10395
3974.57391,0.09974
3976.50238,0.09759
3978.43084,0.09924
3980.35931,0.10420
3982.28778,0.10744
3984.21625,0.10520
3986.14472,0.10405
3988.07319,0.10683
3990.00166,0.10917
3991.93012,0.10547
3993.85859,0.09295
3995.78706,0.08267
3997.71553,0.08711
3999.64400,0.09829
4001.57247,0.10251
4003.50094,0.10246
4005.42941,0.10182
4007.35787,0.09603
4009.28634,0.09104
4011.21481,0.09380
4013.14328,0.09611
4015.07175,0.08930
4017.00022,0.08011
4018.92869,0.07963
4020.85715,0.08621
4022.78562,0.09381
4024.71409,0.10043
4026.64256,0.10312
4028.57103,0.10143
4030.49950,0.09759
4032.42797,0.09329
4034.35644,0.09285
4036.28490,0.09713
4038.21337,0.10321
4040.14184,0.10810
4042.07031,0.10727
4043.99878,0.10206
4045.92725,0.09689
4047.85572,0.09527
4049.78418,0.09738
4051.71265,0.09779
4053.64112,0.09544
4055.56959,0.09436
4057.49806,0.09589
4059.42653,0.09437
4061.35500,0.08998
4063.28346,0.09050
4065.21193,0.09375
4067.14040,0.09270
4069.06887,0.08580
4070.99734,0.07922
4072.92581,0.07747
4074.85428,0.07877
4076.78275,0.07985
4078.71121,0.07590
4080.63968,0.07218
4082.56815,0.07850
4084.49662,0.08996
4086.42509,0.09686
4088.35356,0.09690
4090.28203,0.09060
4092.21049,0.08217
4094.13896,0.07975
4096.06743,0.08318
4097.99590,0.08416
4099.92437,0.08067
4101.85284,0.07975
4103.78131,0.08386
4105.70978,0.08408
4107.63824,0.08058
4109.56671,0.08466
4111.49518,0.09251
4113.42365,0.09351
4115.35212,0.08910
4117.28059,0.08365
4119.20906,0.08000
4121.13752,0.08053
4123.06599,0.08232
4124.99446,0.08223
4126.92293,0.08242
4128.85140,0.08447
4130.77987,0.08643
4132.70834,0.08382
4134.63681,0.07696
4136.56527,0.07548
4138.49374,0.08038
4140.42221,0.08268
4142.35068,0.07983
4144.27915,0.07385
4146.20762,0.06951
4148.13609,0.07081
4150.06455,0.07302
4151.99302,0.07242
4153.92149,0.07314
4155.84996,0.07544
4157.77843,0.07308
4159.70690,0.06551
4161.63537,0.05915
4163.56384,0.05809
4165.49230,0.06151
4167.42077,0.06820
4169.34924,0.07317
4171.27771,0.07037
4173.20618,0.06542
4175.13465,0.06570
4177.06312,0.06805
4178.99158,0.06730
4180.92005,0.06284
4182.84852,0.05865
4184.77699,0.06062
4186.70546,0.07047
4188.63393,0.08225
4190.56240,0.08541
4192.49087,0.07953
4194.41933,0.07614
4196.34780,0.07450
4198.27627,0.06835
4200.20474,0.06837
4202.13321,0.07496
4204.06168,0.06782
4205.99015,0.05290
4207.91861,0.05781
4209.84708,0.07910
4211.77555,0.09187
4213.70402,0.08670
4215.63249,0.06826
4217.56096,0.05228
4219.48943,0.05148
4221.41789,0.05836
4223.34636,0.06077
4225.27483,0.05572
4227.20330,0.05198
4229.13177,0.05420
4231.06024,0.05257
4232.98871,0.04866
4234.91718,0.04991
4236.84564,0.05359
4238.77411,0.05697
4240.70258,0.05473
4242.63105,0.04662
4244.55952,0.04390
4246.48799,0.04944
4248.41646,0.05458
4250.34492,0.05424
4252.27339,0.05143
4254.20186,0.04916
4256.13033,0.04204
4258.05880,0.03224
4259.98727,0.03465
4261.91574,0.04650
4263.84421,0.05125
4265.77267,0.05025
4267.70114,0.05238
4269.62961,0.05493
4271.55808,0.05463
4273.48655,0.05286
4275.41502,0.05177
4277.34349,0.05137
4279.27195,0.04974
4281.20042,0.04600
4283.12889,0.04143
4285.05736,0.04326
4286.98583,0.04584
4288.91430,0.03463
4290.84277,0.02042
4292.77124,0.02383
4294.69970,0.04292
4296.62817,0.05844
4298.55664,0.06004
4300.48511,0.05527
4302.41358,0.05049
4304.34205,0.04490
4306.27052,0.04156
4308.19898,0.04086
4310.12745,0.03709
4312.05592,0.03106
4313.98439,0.02776
4315.91286,0.02954
4317.84133,0.03497
4319.76980,0.03776
4321.69827,0.03521
4323.62673,0.03221
4325.55520,0.03095
4327.48367,0.03319
4329.41214,0.04059
4331.34061,0.04852
4333.26908,0.05127
4335.19755,0.04353
4337.12601,0.03037
4339.05448,0.02483
4340.98295,0.02478
4342.91142,0.01921
4344.83989,0.01372
4346.76836,0.02398
4348.69683,0.03974
4350.62530,0.03614
4352.55376,0.01678
4354.48223,0.00670
4356.41070,0.01451
4358.33917,0.02465
4360.26764,0.02281
4362.19611,0.01528
4364.12458,0.01417
4366.05304,0.01628
4367.98151,0.01654
4369.90998,0.01722
4371.83845,0.01891
4373.76692,0.02182
4375.69539,0.02721
4377.62386,0.03429
4379.55232,0.03435
4381.48079,0.02379
4383.40926,0.01347
4385.33773,0.01037
4387.26620,0.01577
4389.19467,0.02276
4391.12314,0.01859
4393.05161,0.00667
4394.98007,-0.00144
4396.90854,0.00262
4398.83701,0.01887
4400.76548,0.02759
4402.69395,0.01842
4404.62242,0.00936
4406.55089,0.00696
4408.47935,0.00497
4410.40782,0.01031
4412.33629,0.02378
4414.26476,0.02979
4416.19323,0.02207
4418.12170,0.01620
4420.05017,0.01996
4421.97864,0.02145
4423.90710,0.01748
4425.83557,0.01432
4427.76404,0.01451
4429.69251,0.01811
4431.62098,0.02150
4433.54945,0.02422
4435.47792,0.03002
4437.40638,0.03116
4439.33485,0.02228
4441.26332,0.01108
4443.19179,0.00101
4445.12026,-0.00376
4447.04873,0.00071
4448.97720,0.01223
4450.90567,0.01911
4452.83413,0.00984
4454.76260,0.00393
4456.69107,0.01380
4458.61954,0.01889
4460.54801,0.01225
4462.47648,0.00636
4464.40495,0.00561
4466.33341,0.00633
4468.26188,0.00666
4470.19035,0.00637
4472.11882,0.00690
4474.04729,0.00894
4475.97576,0.00804
4477.90423,0.00638
4479.83270,0.00761
4481.76116,0.00524
4483.68963,-0.00004
4485.61810,0.00071
4487.54657,0.01068
4489.47504,0.02162
4491.40351,0.01965
4493.33198,0.01199
4495.26044,0.01568
4497.18891,0.01903
4499.11738,0.01062
4501.04585,0.00736
4502.97432,0.01334
4504.90279,0.01433
4506.83126,0.01156
4508.75973,0.01127
4510.68819,0.00739
4512.61666,-0.00091
4514.54513,-0.00068
4516.47360,0.00787
4518.40207,0.00652
4520.33054,-0.00910
4522.25901,-0.01977
4524.18747,-0.00852
4526.11594,0.00924
4528.04441,0.00746
4529.97288,-0.00297
4531.90135,0.00340
4533.82982,0.02119
4535.75829,0.03191
4537.68676,0.02594
4539.61522,0.01046
4541.54369,0.00418
4543.47216,0.00488
4545.40063,0.00373
4547.32910,0.00883
4549.25757,0.02078
4551.18604,0.02754
4553.11450,0.02730
4555.04297,0.02823
4556.97144,0.02487
4558.89991,0.01084
4560.82838,-0.00256
4562.75685,-0.00916
4564.68532,-0.01155
4566.61378,-0.00825
4568.54225,0.00302
4570.47072,0.01742
4572.39919,0.01844
4574.32766,0.00344
4576.25613,-0.01023
4578.18460,-0.01123
4580.11307,-0.00197
4582.04153,0.00629
4583.97000,-0.00039
4585.89847,-0.01431
4587.82694,-0.00805
4589.75541,0.00830
4591.68388,0.00824
4593.61235,0.00561
4595.54081,0.00381
4597.46928,-0.00721
4599.39775,-0.01417
4601.32622,-0.00631
4603.25469,0.01004
4605.18316,0.02136
4607.11163,0.01850
4609.04010,0.00836
4610.96856,0.00689
4612.89703,0.01474
4614.82550,0.01549
4616.75397,0.00504
4618.68244,-0.00513
4620.61091,-0.00898
4622.53938,-0.01232
4624.46784,-0.01635
4626.39631,-0.01019
4628.32478,0.01036
4630.25325,0.02636
4632.18172,0.02708
4634.11019,0.02356
4636.03866,0.01721
4637.96713,0.01275
4639.89559,0.01663
4641.82406,0.01719
4643.75253,0.01019
4645.68100,0.00489
4647.60947,0.00291
4649.53794,0.00173
4651.46641,0.00682
4653.39487,0.01291
4655.32334,0.00980
4657.25181,0.00292
4659.18028,-0.00475
4661.10875,-0.01317
4663.03722,-0.01677
4664.96569,-0.01988
4666.89416,-0.02193
4668.82262,-0.01157
4670.75109,0.00066
4672.67956,0.00535
4674.60803,0.01668
4676.53650,0.02880
4678.46497,0.02938
4680.39344,0.02694
4682.32190,0.02100
4684.25037,0.00450
4686.17884,-0.00553
4688.10731,0.00756
4690.03578,0.01853
4691.96425,0.00073
4693.89272,-0.02423
4695.82119,-0.02780
4697.74965,-0.01612
4699.67812,-0.00775
4701.60659,-0.01207
4703.53506,-0.01832
4705.46353,-0.01156
4707.39200,0.00333
4709.32047,0.01459
4711.24893,0.02026
4713.17740,0.02074
4715.10587,0.01646
4717.03434,0.01527
4718.96281,0.02058
4720.89128,0.02751
4722.81975,0.02930
4724.74821,0.02295
4726.67668,0.01523
4728.60515,0.01454
4730.53362,0.02058
4732.46209,0.02091
4734.39056,0.00617
4736.31903,-0.00859
4738.24750,-0.00329
4740.17596,0.01227
4742.10443,0.01847
4744.03290,0.01889
4745.96137,0.01867
4747.88984,0.00992
4749.81831,-0.00246
4751.74678,-0.00249
4753.67524,0.00766
4755.60371,0.01240
4757.53218,0.00912
4759.46065,0.00204
4761.38912,-0.00593
4763.31759,-0.00775
4765.24606,-0.00396
4767.17453,-0.00480
4769.10299,-0.01277
4771.03146,-0.01742
4772.95993,-0.01640
4774.88840,-0.01433
4776.81687,-0.01031
4778.74534,-0.00477
4780.67381,0.00543
4782.60227,0.01464
4784.53074,0.01620
4786.45921,0.02038
4788.38768,0.02131
4790.31615,0.00851
4792.24462,-0.00888
4794.17309,-0.01763
4796.10156,-0.01312
4798.03002,-0.00558
4799.95849,0.00156
4801.88696,0.01410
4803.81543,0.02209
4805.74390,0.01538
4807.67237,0.00276
4809.60084,0.00368
4811.52930,0.01990
4813.45777,0.02281
4815.38624,0.01010
4817.31471,0.01316
4819.24318,0.02815
4821.17165,0.03755
4823.10012,0.03989
4825.02859,0.02846
4826.95705,0.01333
4828.88552,0.00737
4830.81399,0.00420
4832.74246,0.00634
4834.67093,0.01219
4836.59940,0.00807
4838.52787,-0.00519
4840.45633,-0.00862
4842.38480,0.00027
4844.31327,0.00088
4846.24174,-0.00421
4848.17021,0.00105
4850.09868,0.00854
4852.02715,0.00850
4853.95562,0.00050
4855.88408,-0.01338
4857.81255,-0.01619
4859.74102,0.00195
4861.66949,0.02480
4863.59796,0.02950
4865.52643,0.01376
4867.45490,0.00546
4869.38336,0.01977
4871.31183,0.03589
4873.24030,0.03567
4875.16877,0.02240
4877.09724,0.00685
4879.02571,0.00706
4880.95418,0.02543
4882.88265,0.03098
4884.81111,0.01354
4886.73958,-0.00899
4888.66805,-0.02964
4890.59652,-0.04160
4892.52499,-0.03346
4894.45346,-0.01930
4896.38193,-0.02587
4898.31039,-0.03351
4900.23886,-0.01430
4902.16733,0.00925
4904.09580,0.01911
4906.02427,0.01914
4907.95274,0.01335
4909.88121,0.01005
4911.80967,0.01374
4913.73814,0.02816
4915.66661,0.04300
4917.59508,0.04056
4919.52355,0.03175
4921.45202,0.02577
4923.38049,0.01568
4925.30896,0.01029
4927.23742,0.01186
4929.16589,0.00636
4931.09436,-0.00141
4933.02283,-0.00073
4934.95130,0.00087
4936.87977,0.00020
4938.80824,-0.00068
4940.73670,-0.00401
4942.66517,-0.00679
4944.59364,0.00055
4946.52211,0.01368
4948.45058,0.01274
4950.37905,-0.00045
4952.30752,-0.01167
4954.23599,-0.01483
4956.16445,-0.00678
4958.09292,-0.00613
4960.02139,-0.02100
4961.94986,-0.02078
4963.87833,0.00409
4965.80680,0.02566
4967.73527,0.02294
4969.66373,0.00940
4971.59220,0.01336
4973.52067,0.02202
4975.44914,0.00723
4977.37761,-0.00882
4979.30608,-0.00121
4981.23455,0.01517
4983.16302,0.01577
4985.09148,0.00270
4987.01995,0.00254
4988.94842,0.01253
4990.87689,0.00862
4992.80536,-0.00124
4994.73383,0.00176
4996.66230,0.01590
4998.59076,0.02574
5000.51923,0.02100
5002.44770,0.01511
5004.37617,0.02396
5006.30464,0.03134
5008.23311,0.01630
5010.16158,-0.01017
5012.09005,-0.02170
5014.01851,-0.01001
5015.94698,0.00852
5017.87545,0.01391
5019.80392,0.00433
5021.73239,-0.00334
5023.66086,-0.00232
5025.58933,-0.00279
5027.51779,-0.00967
5029.44626,-0.02225
5031.37473,-0.02302
5033.30320,0.00250
5035.23167,0.02552
5037.16014,0.02529
5039.08861,0.01790
5041.01708,0.01455
5042.94554,0.01364
5044.87401,0.00983
5046.80248,-0.00267
5048.73095,-0.01667
5050.65942,-0.01608
5052.58789,-0.00645
5054.51636,-0.00447
5056.44482,-0.00087
5058.37329,0.01554
5060.30176,0.03370
5062.23023,0.03931
5064.15870,0.03845
5066.08717,0.04260
5068.01564,0.03508
5069.94410,0.01563
5071.87257,0.00515
5073.80104,-0.00593
5075.72951,-0.01697
5077.65798,-0.01616
5079.58645,-0.01847
5081.51492,-0.02304
5083.44339,-0.00933
5085.37185,0.01849
5087.30032,0.03436
5089.22879,0.03302
5091.15726,0.02689
5093.08573,0.02104
5095.01420,0.02668
5096.94267,0.04123
5098.87113,0.04575
5100.79960,0.03555
5102.72807,0.01248
5104.65654,-0.01451
5106.58501,-0.02957
5108.51348,-0.02617
5110.44195,-0.01243
5112.37042,0.00091
5114.29888,0.00764
5116.22735,0.00843
5118.15582,0.01534
5120.08429,0.02392
5122.01276,0.01145
5123.94123,-0.01016
5125.86970,-0.01457
5127.79816,-0.01214
5129.72663,-0.00899
5131.65510,0.00474
5133.58357,0.02213
5135.51204,0.03642
5137.44051,0.04486
5139.36898,0.05884
5141.29745,0.09431
5143.22591,0.11915
5145.15438,0.08714
5147.08285,0.02159
5149.01132,-0.01568
5150.93979,-0.01903
5152.86826,-0.02059
5154.79673,-0.02184
5156.72519,-0.00736
5158.65366,0.01426
5160.58213,0.02006
5162.51060,0.01606
5164.43907,0.02846
5166.36754,0.04511
5168.29601,0.04220
5170.22448,0.02826
5172.15294,0.01594
5174.08141,0.00803
5176.00988,-0.00055
5177.93835,-0.00292
5179.86682,0.00831
5181.79529,0.01380
5183.72376,0.01193
5185.65222,0.01389
5187.58069,0.00670
5189.50916,-0.00828
5191.43763,-0.01026
5193.36610,0.00134
5195.29457,0.01804
5197.22304,0.03188
5199.15151,0.03334
5201.07997,0.02504
5203.00844,0.00652
5204.93691,-0.01330
5206.86538,-0.00404
5208.79385,0.03597
5210.72232,0.06450
5212.65079,0.06349
5214.57925,0.05273
5216.50772,0.04131
5218.43619,0.02230
5220.36466,0.00394
5222.29313,0.00011
5224.22160,0.00810
5226.15007,0.01277
5228.07854,0.00885
5230.00700,0.01321
5231.93547,0.03079
5233.86394,0.03934
5235.79241,0.03983
5237.72088,0.05017
5239.64935,0.05468
5241.57782,0.04004
5243.50628,0.02970
5245.43475,0.03902
5247.36322,0.03635
5249.29169,0.00865
5251.22016,-0.00401
5253.14863,0.00439
5255.07710,0.00928
5257.00556,0.01406
5258.93403,0.03066
5260.86250,0.05501
5262.79097,0.06941
5264.71944,0.06195
5266.64791,0.05013
5268.57638,0.05101
5270.50485,0.04986
5272.43331,0.03378
5274.36178,0.02061
5276.29025,0.02360
5278.21872,0.04672
5280.14719,0.07449
5282.07566,0.06768
5284.00413,0.02563
5285.93259,-0.01414
5287.86106,-0.02607
5289.78953,-0.02538
5291.71800,-0.03013
5293.64647,-0.01318
5295.57494,0.03208
5297.50341,0.05744
5299.43188,0.03854
5301.36034,0.00914
5303.28881,-0.01064
5305.21728,-0.01139
5307.14575,0.01467
5309.07422,0.03711
5311.00269,0.04378
5312.93116,0.04562
5314.85962,0.05203
5316.78809,0.06885
5318.71656,0.07140
5320.64503,0.05172
5322.57350,0.03502
5324.50197,0.03653
5326.43044,0.03914
5328.35891,0.02043
5330.28737,-0.00074
5332.21584,-0.00257
5334.14431,0.01220
5336.07278,0.02390
5338.00125,0.00717
5339.92972,-0.02579
5341.85819,-0.03997
5343.78665,-0.02436
5345.71512,0.00396
5347.64359,0.01318
5349.57206,0.01528
5351.50053,0.03092
5353.42900,0.04647
5355.35747,0.03500
5357.28594,0.02351
5359.21440,0.04951
5361.14287,0.07964
5363.07134,0.06809
5364.99981,0.04900
5366.92828,0.05817
5368.85675,0.06148
5370.78522,0.04690
5372.71368,0.03294
5374.64215,0.02214
5376.57062,0.01961
5378.49909,0.01972
5380.42756,0.01288
5382.35603,-0.00520
5384.28450,-0.01917
5386.21297,0.00887
5388.14143,0.04588
5390.06990,0.05386
5391.99837,0.06297
5393.92684,0.07189
5395.85531,0.05183
5397.78378,0.02854
5399.71225,0.03356
5401.64071,0.06983
5403.56918,0.10697
5405.49765,0.10100
5407.42612,0.05909
5409.35459,0.02715
5411.28306,0.04290
5413.21153,0.09189
5415.13999,0.09526
5417.06846,0.05659
5418.99693,0.04091
5420.92540,0.04099
5422.85387,0.03324
5424.78234,0.04088
5426.71081,0.06215
5428.63928,0.06632
5430.56774,0.06472
5432.49621,0.07980
5434.42468,0.07951
5436.35315,0.05057
5438.28162,0.03316
5440.21009,0.03118
5442.13856,0.02361
5444.06702,0.00646
5445.99549,0.00047
5447.92396,0.02319
5449.85243,0.04495
5451.78090,0.04840
5453.70937,0.05004
5455.63784,0.06408
5457.56631,0.09357
5459.49477,0.10431
5461.42324,0.09104
5463.35171,0.08008
5465.28018,0.05923
5467.20865,0.03662
5469.13712,0.03734
5471.06559,0.04131
5472.99405,0.03857
5474.92252,0.03935
5476.85099,0.03998
5478.77946,0.05260
5480.70793,0.06939
5482.63640,0.05893
5484.56487,0.02460
5486.49334,0.00695
5488.42180,0.01911
5490.35027,0.01012
5492.27874,-0.01374
5494.20721,0.00425
5496.13568,0.03765
5498.06415,0.05841
5499.99262,0.06645
5501.92108,0.06145
5503.84955,0.05399
5505.77802,0.04581
5507.70649,0.02443
5509.63496,0.00007
5511.56343,0.00331
5513.49190,0.02929
5515.42037,0.05257
5517.34883,0.07354
5519.27730,0.08372
5521.20577,0.06932
5523.13424,0.05791
5525.06271,0.06951
5526.99118,0.07908
5528.91965,0.07545
5530.84811,0.07659
5532.77658,0.08852
5534.70505,0.08842
5536.63352,0.06040
5538.56199,0.03568
5540.49046,0.04626
5542.41893,0.07182
5544.34740,0.07604
5546.27586,0.05383
5548.20433,0.04786
5550.13280,0.06882
5552.06127,0.06203
5553.98974,0.04641
5555.91821,0.07204
5557.84668,0.09789
5559.77514,0.08213
5561.70361,0.04576
5563.63208,0.04078
5565.56055,0.07816
5567.48902,0.09466
5569.41749,0.07098
5571.34596,0.05652
5573.27443,0.06621
5575.20289,0.07562
5577.13136,0.06996
5579.05983,0.05171
5580.98830,0.04231
5582.91677,0.05742
5584.84524,0.06981
5586.77371,0.05738
5588.70217,0.04246
5590.63064,0.04983
5592.55911,0.05410
5594.48758,0.03266
5596.41605,0.03318
5598.34452,0.08065
5600.27299,0.10196
5602.20145,0.07013
5604.12992,0.04854
5606.05839,0.04760
5607.98686,0.03713
5609.91533,0.02591
5611.84380,0.02503
5613.77227,0.02977
5615.70074,0.04265
5617.62920,0.06400
5619.55767,0.08128
5621.48614,0.06741
5623.41461,0.04563
5625.34308,0.08185
5627.27155,0.13176
5629.20002,0.10308
5631.12848,0.04331
5633.05695,0.02462
5634.98542,0.04193
5636.91389,0.08002
5638.84236,0.11405
5640.77083,0.11421
5642.69930,0.12084
5644.62777,0.15638
5646.55623,0.15411
5648.48470,0.09540
5650.41317,0.04647
5652.34164,0.05405
5654.27011,0.08921
5656.19858,0.09182
5658.12705,0.07075
5660.05551,0.05923
5661.98398,0.05254
5663.91245,0.04811
5665.84092,0.04516
5667.76939,0.03922
5669.69786,0.04000
5671.62633,0.06027
5673.55480,0.10486
5675.48326,0.15654
5677.41173,0.16641
5679.34020,0.12492
5681.26867,0.08045
5683.19714,0.05852
5685.12561,0.05346
5687.05408,0.05375
5688.98254,0.04953
5690.91101,0.03959
5692.83948,0.04274
5694.76795,0.07404
5696.69642,0.10603
5698.62489,0.10122
5700.55336,0.07155
5702.48183,0.06146
5704.41029,0.07066
5706.33876,0.06029
5708.26723,0.03149
5710.19570,0.03468
5712.12417,0.07637
5714.05264,0.09334
5715.98111,0.07958
5717.90957,0.07242
5719.83804,0.06301
5721.76651,0.03532
5723.69498,0.00057
5725.62345,-0.01482
5727.55192,-0.00226
5729.48039,0.02800
5731.40886,0.05168
5733.33732,0.03540
5735.26579,0.00037
5737.19426,0.01710
5739.12273,0.06053
5741.05120,0.07443
5742.97967,0.08459
5744.90814,0.08014
5746.83660,0.02748
5748.76507,-0.01936
5750.69354,0.01392
5752.62201,0.09890
5754.55048,0.13686
5756.47895,0.10354
5758.40742,0.05169
5760.33588,0.01382
5762.26435,0.00720
5764.19282,0.04828
5766.12129,0.10092
5768.04976,0.10267
5769.97823,0.04512
5771.90670,-0.01587
5773.83517,-0.02395
5775.76363,0.01451
5777.69210,0.07402
5779.62057,0.14375
5781.54904,0.17162
5783.47751,0.12343
5785.40598,0.07242
5787.33445,0.07560
5789.26291,0.09531
5791.19138,0.08508
5793.11985,0.05857
5795.04832,0.05108
5796.97679,0.04173
5798.90526,0.02096
5800.83373,0.00457
5802.76220,-0.00306
5804.69066,0.00913
5806.61913,0.02643
5808.54760,0.04477
5810.47607,0.07852
5812.40454,0.10040
5814.33301,0.07474
5816.26148,0.03226
5818.18994,0.04065
5820.11841,0.08972
5822.04688,0.11300
5823.97535,0.09955
5825.90382,0.07060
5827.83229,0.05762
5829.76076,0.08156
5831.68923,0.09667
5833.61769,0.07815
5835.54616,0.07393
5837.47463,0.09567
5839.40310,0.11051
5841.33157,0.10841
5843.26004,0.10816
5845.18851,0.11173
5847.11697,0.08905
5849.04544,0.07031
5850.97391,0.10946
5852.90238,0.15251
5854.83085,0.15357
5856.75932,0.14176
5858.68779,0.13200
5860.61626,0.10033
5862.54472,0.05417
5864.47319,0.03249
5866.40166,0.04196
5868.33013,0.05764
5870.25860,0.05619
5872.18707,0.04865
5874.11554,0.05783
5876.04400,0.06610
5877.97247,0.05223
5879.90094,0.04784
5881.82941,0.07745
5883.75788,0.09144
5885.68635,0.04067
5887.61482,-0.02738
5889.54329,-0.03253
5891.47175,0.00152
5893.40022,0.02253
5895.32869,0.05124
5897.25716,0.09018
5899.18563,0.10999
5901.11410,0.10949
5903.04257,0.09810
5904.97103,0.08957
5906.89950,0.07736
5908.82797,0.04352
5910.75644,0.00907
5912.68491,0.00632
5914.61338,0.04407
5916.54185,0.10241
5918.47032,0.13289
5920.39878,0.11601
5922.32725,0.08413
5924.25572,0.04677
5926.18419,0.00419
5928.11266,-0.03057
5930.04113,-0.04004
5931.96960,0.00692
5933.89806,0.08638
5935.82653,0.13169
5937.75500,0.12903
5939.68347,0.10297
5941.61194,0.07568
5943.54041,0.06392
5945.46888,0.06970
5947.39734,0.06639
5949.32581,0.06501
5951.25428,0.06214
5953.18275,0.00114
5955.11122,-0.02535
5957.03969,0.05096
5958.96816,0.09717
5960.89663,0.04119
5962.82509,-0.02984
5964.75356,-0.05262
5966.68203,-0.04554
5968.61050,-0.02250
5970.53897,0.02716
5972.46744,0.07213
5974.39591,0.09858
5976.32437,0.12525
5978.25284,0.13576
5980.18131,0.10918
5982.10978,0.07216
5984.03825,0.08498
5985.96672,0.12768
5987.89519,0.13772
5989.82366,0.14691
5991.75212,0.15319
5993.68059,0.09666
5995.60906,0.01748
5997.53753,0.02012
5999.46600,0.09964
6001.39447,0.14992
6003.32294,0.12501
6005.25140,0.08293
6007.17987,0.05678
6009.10834,0.04908
6011.03681,0.07470
6012.96528,0.10158
6014.89375,0.08281
6016.82222,0.04636
6018.75069,0.04437
6020.67915,0.05431
6022.60762,0.05699
6024.53609,0.04870
6026.46456,0.01683
6028.39303,0.01491
6030.32150,0.05226
6032.24997,0.06690
6034.17843,0.08618
6036.10690,0.13060
6038.03537,0.13554
6039.96384,0.07617
6041.89231,0.00921
6043.82078,0.00808
6045.74925,0.04365
6047.67772,0.04628
6049.60618,0.03311
6051.53465,0.05460
6053.46312,0.10244
6055.39159,0.10932
6057.32006,0.07568
6059.24853,0.07067
6061.17700,0.07002
6063.10546,0.05019
6065.03393,0.02956
6066.96240,0.00886
6068.89087,0.02108
6070.81934,0.08915
6072.74781,0.15328
6074.67628,0.13512
6076.60475,0.07533
6078.53321,0.05677
6080.46168,0.05595
6082.39015,0.05722
6084.31862,0.06729
6086.24709,0.03902
6088.17556,-0.02140
6090.10403,-0.03821
6092.03249,0.00771
6093.96096,0.04789
6095.88943,0.05077
6097.81790,0.05349
6099.74637,0.06207
6101.67484,0.07981
6103.60331,0.07056
6105.53177,-0.01596
6107.46024,-0.10811
6109.38871,-0.10109
6111.31718,-0.01452
6113.24565,0.05165
6115.17412,0.04613
6117.10259,0.02954
6119.03106,0.07278
6120.95952,0.11479
6122.88799,0.10599
6124.81646,0.06930
6126.74493,0.01055
6128.67340,-0.01725
6130.60187,0.03310
6132.53034,0.08631
6134.45880,0.08273
6136.38727,0.06230
6138.31574,0.07874
6140.24421,0.13679
6142.17268,0.17799
6144.10115,0.16904
6146.02962,0.13976
6147.95809,0.08821
6149.88655,0.03534
6151.81502,0.04160
6153.74349,0.07191
6155.67196,0.06209
6157.60043,0.04701
6159.52890,0.04245
6161.45737,0.01702
6163.38583,-0.00311
6165.31430,0.01529
6167.24277,0.05066
6169.17124,0.10045
6171.09971,0.16699
6173.02818,0.19784
6174.95665,0.16431
6176.88512,0.08656
6178.81358,0.01085
6180.74205,0.00021
6182.67052,0.05730
6184.59899,0.12460
6186.52746,0.14838
6188.45593,0.11082
6190.38440,0.07740
6192.31286,0.08335
6194.24133,0.05883
6196.16980,0.02270
6198.09827,0.03410
6200.02674,0.04521
6201.95521,0.04340
6203.88368,-0.00090
6205.81215,-0.09767
6207.74061,-0.12285
6209.66908,-0.04318
6211.59755,0.01791
6213.52602,0.01956
6215.45449,0.04698
6217.38296,0.08614
6219.31143,0.08130
6221.23989,0.05288
6223.16836,0.03208
6225.09683,0.06631
6227.02530,0.14184
6228.95377,0.17446
6230.88224,0.15586
6232.81071,0.12585
6234.73918,0.09989
6236.66764,0.07593
6238.59611,0.03844
6240.52458,-0.01861
6242.45305,-0.07663
6244.38152,-0.11542
6246.30999,-0.11271
6248.23846,-0.05003
6250.16692,0.02307
6252.09539,0.04046
6254.02386,0.02969
6255.95233,0.01287
6257.88080,0.02099
6259.80927,0.08578
6261.73774,0.13749
6263.66621,0.12895
6265.59467,0.08922
6267.52314,0.07323
6269.45161,0.10291
6271.38008,0.12744
6273.30855,0.12005
6275.23702,0.10548
6277.16549,0.06634
6279.09395,0.01011
6281.02242,0.01658
6282.95089,0.05928
6284.87936,0.05755
6286.80783,0.03485
6288.73630,0.02760
6290.66477,0.01158
6292.59323,-0.02508
6294.52170,-0.03478
6296.45017,-0.00762
6298.37864,0.02738
6300.30711,0.06581
6302.23558,0.09410
6304.16405,0.09206
6306.09252,0.05768
6308.02098,0.02286
6309.94945,0.04813
6311.87792,0.10936
6313.80639,0.13153
6315.73486,0.12608
6317.66333,0.09703
6319.59180,0.03789
6321.52026,0.00856
6323.44873,0.01432
6325.37720,0.01228
6327.30567,0.02874
6329.23414,0.08846
6331.16261,0.14588
6333.09108,0.15950
6335.01955,0.12347
6336.94801,0.07265
6338.87648,0.05705
6340.80495,0.06200
6342.73342,0.06542
6344.66189,0.09561
6346.59036,0.15234
6348.51883,0.14946
6350.44729,0.06298
6352.37576,0.02481
6354.30423,0.05823
6356.23270,0.07974
6358.16117,0.08139
6360.08964,0.04254
6362.01811,-0.02930
6363.94658,-0.03174
6365.87504,0.04357
6367.80351,0.09907
6369.73198,0.12809
6371.66045,0.12239
6373.58892,0.04328
6375.51739,-0.01948
6377.44586,0.00996
6379.37432,0.10242
6381.30279,0.20734
6383.23126,0.23491
6385.15973,0.16936
6387.08820,0.14597
6389.01667,0.14431
6390.94514,0.08196
6392.87361,0.04392
6394.80207,0.06860
6396.73054,0.06600
6398.65901,0.05333
6400.58748,0.05770
6402.51595,0.06078
6404.44442,0.04339
6406.37289,-0.01543
6408.30135,-0.03278
6410.22982,0.03653
6412.15829,0.05960
6414.08676,0.01713
6416.01523,-0.00722
6417.94370,-0.00836
6419.87217,-0.00491
6421.80064,-0.01039
6423.72910,-0.02714
6425.65757,-0.05189
6427.58604,-0.09780
6429.51451,-0.12835
6431.44298,-0.07701
6433.37145,0.01401
6435.29992,0.09729
6437.22838,0.15175
6439.15685,0.11475
6441.08532,0.03438
6443.01379,0.01123
6444.94226,0.06999
6446.87073,0.12421
6448.79920,0.11601
6450.72766,0.07054
6452.65613,0.01515
6454.58460,-0.00350
6456.51307,0.02858
6458.44154,0.07741
6460.37001,0.14504
6462.29848,0.20190
6464.22695,0.21222
6466.15541,0.19211
6468.08388,0.14594
6470.01235,0.07324
6471.94082,-0.01858
6473.86929,-0.07791
6475.79776,-0.04106
6477.72623,0.06167
6479.65469,0.15443
6481.58316,0.22497
6483.51163,0.27816
6485.44010,0.25638
6487.36857,0.13641
6489.29704,0.02477
6491.22551,0.03628
6493.15398,0.11194
6495.08244,0.12354
6497.01091,0.10447
6498.93938,0.12932
6500.86785,0.16582
6502.79632,0.12832
6504.72479,0.02663
6506.65326,-0.02781
6508.58172,0.01117
6510.51019,0.06800
6512.43866,0.07777
6514.36713,0.07515
6516.29560,0.10281
6518.22407,0.11595
6520.15254,0.05478
6522.08101,-0.04207
6524.00947,-0.05600
6525.93794,0.04406
6527.86641,0.08776
6529.79488,0.01706
6531.72335,-0.00895
6533.65182,0.05104
6535.58029,0.07072
6537.50875,0.01832
6539.43722,-0.03382
6541.36569,-0.04019
6543.29416,-0.01886
6545.22263,-0.02330
6547.15110,-0.02019
6549.07957,0.05314
6551.00804,0.14879
6552.93650,0.21927
6554.86497,0.23747
6556.79344,0.18970
6558.72191,0.12329
6560.65038,0.09501
6562.57885,0.14346
6564.50732,0.16008
6566.43578,0.08433
6568.36425,-0.00058
6570.29272,-0.08679
6572.22119,-0.11392
6574.14966,-0.05756
6576.07813,0.00975
6578.00660,0.09099
6579.93507,0.19167
6581.86353,0.23703
6583.79200,0.19117
6585.72047,0.14628
6587.64894,0.13917
6589.57741,0.11301
6591.50588,0.06319
6593.43435,0.00854
6595.36281,-0.01352
6597.29128,0.04542
6599.21975,0.13039
6601.14822,0.14516
6603.07669,0.07872
6605.00516,0.01812
6606.93363,0.01789
6608.86210,0.04198
6610.79056,0.09222
6612.71903,0.18147
6614.64750,0.25448
6616.57597,0.29477
6618.50444,0.25588
6620.43291,0.11597
6622.36138,-0.02106
6624.28984,-0.05029
6626.21831,-0.02094
6628.14678,0.01886
6630.07525,0.06910
6632.00372,0.02990
6633.93219,-0.06839
6635.86066,-0.05813
6637.78912,0.05078
6639.71759,0.08742
6641.64606,0.03529
6643.57453,0.02006
6645.50300,0.04129
6647.43147,0.01162
6649.35994,-0.02270
6651.28841,-0.05334
6653.21687,-0.05164
6655.14534,0.02403
6657.07381,0.06235
6659.00228,0.06611
6660.93075,0.13463
6662.85922,0.19804
6664.78769,0.17892
6666.71615,0.07802
6668.64462,-0.00411
6670.57309,0.05164
6672.50156,0.19706
6674.43003,0.22999
6676.35850,0.12053
6678.28697,0.04933
6680.21544,0.07565
6682.14390,0.10151
6684.07237,0.07762
6686.00084,0.01841
6687.92931,-0.02892
6689.85778,-0.01908
6691.78625,0.01119
6693.71472,0.05715
6695.64318,0.08963
6697.57165,0.02518
6699.50012,-0.04980
6701.42859,-0.08125
6703.35706,-0.13523
6705.28553,-0.14360
6707.21400,-0.06323
6709.14247,0.02232
6711.07093,0.05434
6712.99940,0.03892
6714.92787,0.00632
6716.85634,-0.01912
6718.78481,-0.02406
6720.71328,0.00930
6722.64175,0.07623
6724.57021,0.10914
6726.49868,0.08838
6728.42715,0.05951
6730.35562,0.05758
6732.28409,0.12238
6734.21256,0.19777
6736.14103,0.18477
6738.06950,0.11774
6739.99796,0.08534
6741.92643,0.14811
6743.85490,0.21577
6745.78337,0.17924
6747.71184,0.12458
6749.64031,0.13790
6751.56878,0.18096
6753.49724,0.19567
6755.42571,0.14477
6757.35418,0.07900
6759.28265,0.07951
6761.21112,0.07850
6763.13959,-0.01475
6765.06806,-0.06232
6766.99653,-0.01979
6768.92499,0.00753
6770.85346,0.04423
6772.78193,0.10313
6774.71040,0.12805
6776.63887,0.13403
6778.56734,0.16186
6780.49581,0.16979
6782.42427,0.14564
6784.35274,0.17404
6786.28121,0.19150
6788.20968,0.07765
6790.13815,-0.08798
6792.06662,-0.16313
6793.99509,-0.10980
6795.92355,0.02757
6797.85202,0.12741
6799.78049,0.15474
6801.70896,0.20677
6803.63743,0.25670
6805.56590,0.17025
6807.49437,0.03735
6809.42284,0.00656
6811.35130,0.02549
6813.27977,0.02112
6815.20824,0.08737
6817.13671,0.19718
6819.06518,0.16939
6820.99365,-0.00189
6822.92212,-0.14601
6824.85058,-0.09683
6826.77905,0.05941
6828.70752,0.13189
6830.63599,0.01861
6832.56446,-0.12695
6834.49293,-0.16976
6836.42140,-0.18816
6838.34987,-0.22733
6840.27833,-0.18369
6842.20680,-0.06039
6844.13527,0.03330
6846.06374,0.06253
6847.99221,0.07274
6849.92068,0.02631
6851.84915,-0.07238
6853.77761,-0.08826
6855.70608,-0.01612
6857.63455,0.00121
6859.56302,-0.03876
6861.49149,-0.03182
6863.41996,-0.00833
6865.34843,-0.00824
6867.27690,0.04447
6869.20536,0.11305
6871.13383,0.16319
6873.06230,0.21527
6874.99077,0.22597
6876.91924,0.17690
6878.84771,0.08133
6880.77618,0.05089
6882.70464,0.18672
6884.63311,0.33642
6886.56158,0.32336
6888.49005,0.22708
6890.41852,0.15195
6892.34699,0.04485
6894.27546,-0.05510
6896.20393,-0.12319
6898.13239,-0.16371
6900.06086,-0.08586
6901.98933,0.08937
6903.91780,0.24664
6905.84627,0.34435
6907.77474,0.33129
6909.70321,0.15761
6911.63167,0.00085
6913.56014,-0.01638
6915.48861,-0.07983
6917.41708,-0.28342
6919.34555,-0.44160
6921.27402,-0.39948
6923.20249,-0.24832
6925.13096,-0.09366
6927.05942,0.02811
6928.98789,0.17099
6930.91636,0.31813
6932.84483,0.28133
6934.77330,0.05361
6936.70177,-0.16321
6938.63024,-0.13768
6940.55870,0.11525
6942.48717,0.21339
6944.41564,0.17073
6946.34411,0.10109
6948.27258,-0.04150
6950.20105,-0.12419
6952.12952,-0.08546
6954.05799,-0.11459
6955.98645,-0.14464
6957.91492,0.02917
6959.84339,0.14412
6961.77186,0.06326
6963.70033,0.07260
6965.62880,0.20656
6967.55727,0.26308
6969.48573,0.26754
6971.41420,0.25175
6973.34267,0.15333
6975.27114,0.15649
6977.19961,0.28436
6979.12808,0.28848
6981.05655,0.14473
6982.98501,0.04372
6984.91348,0.02557
6986.84195,-0.03484
6988.77042,-0.04156
6990.69889,0.10271
6992.62736,0.19055
6994.55583,0.09358
6996.48430,-0.02642
6998.41276,0.04552
7000.34123,0.21338
7002.26970,0.22991
7004.19817,0.18332
7006.12664,0.19019
7008.05511,0.07316
7009.98358,-0.07815
7011.91204,-0.13719
7013.84051,-0.10233
7015.76898,-0.06398
7017.69745,-0.04503
7019.62592,0.05758
7021.55439,0.10065
7023.48286,-0.01356
7025.41133,-0.10978
7027.33979,-0.14192
7029.26826,-0.13528
7031.19673,-0.09150
7033.12520,-0.00874
7035.05367,0.17028
7036.98214,0.30897
7038.91061,0.24860
7040.83907,0.04020
7042.76754,-0.07061
7044.69601,0.08846
7046.62448,0.33330
7048.55295,0.44548
7050.48142,0.47387
7052.40989,0.46365
7054.33836,0.35596
7056.26682,0.21917
7058.19529,0.15599
7060.12376,0.10708
7062.05223,0.06924
7063.98070,0.12306
7065.90917,0.12774
7067.83764,-0.00287
7069.76610,-0.10007
7071.69457,-0.03375
7073.62304,0.01988
7075.55151,-0.00939
7077.47998,0.03520
7079.40845,0.10935
7081.33692,0.01789
7083.26539,-0.11716
7085.19385,-0.11912
7087.12232,-0.07363
7089.05079,-0.03571
7090.97926,0.03984
7092.90773,0.13052
7094.83620,0.13956
7096.76467,0.04399
7098.69313,-0.05323
7100.62160,-0.12287
7102.55007,-0.12562
7104.47854,0.02857
7106.40701,0.13682
7108.33548,0.03901
7110.26395,-0.01951
7112.19242,0.09094
7114.12088,0.22223
7116.04935,0.29202
7117.97782,0.32960
7119.90629,0.27650
7121.83476,0.18580
7123.76323,0.15166
7125.69170,0.10387
7127.62016,-0.01786
7129.54863,-0.11674
7131.47710,-0.13559
7133.40557,-0.10334
7135.33404,0.00159
7137.26251,0.17711
7139.19098,0.36992
7141.11944,0.47871
7143.04791,0.39228
7144.97638,0.22313
7146.90485,0.14262
7148.83332,0.04399
7150.76179,-0.10046
7152.69026,-0.20140
7154.61873,-0.23592
7156.54719,-0.23418
7158.47566,-0.20701
7160.40413,-0.18122
7162.33260,-0.17575
7164.26107,-0.06735
7166.18954,0.18200
7168.11801,0.32070
7170.04647,0.22609
7171.97494,0.12214
7173.90341,0.13831
7175.83188,0.14212
7177.76035,0.11741
7179.68882,0.14812
7181.61729,0.13860
7183.54576,0.02601
7185.47422,0.02608
7187.40269,0.19258
7189.33116,0.39062
7191.25963,0.42816
7193.18810,0.23076
7195.11657,-0.05291
7197.04504,-0.13670
7198.97350,0.01372
7200.90197,0.08643
7202.83044,-0.04170
7204.75891,-0.25334
7206.68738,-0.24585
7208.61585,-0.03239
7210.54432,0.01909
7212.47279,-0.20414
7214.40125,-0.44976
7216.32972,-0.44275
7218.25819,-0.18586
7220.18666,0.08199
7222.11513,0.36510
7224.04360,0.45062
7225.97207,0.20535
7227.90053,0.00244
7229.82900,-0.01862
7231.75747,-0.04224
7233.68594,0.03771
7235.61441,0.01630
7237.54288,-0.14092
7239.47135,-0.07724
7241.39982,0.18950
7243.32828,0.37300
7245.25675,0.37264
7247.18522,0.34530
7249.11369,0.27925
7251.04216,0.04958
7252.97063,-0.16634
7254.89910,0.06465
7256.82756,0.40712
7258.75603,0.48229
7260.68450,0.24808
7262.61297,0.09727
7264.54144,0.25789
7266.46991,0.40981
7268.39838,0.33087
7270.32685,0.10537
7272.25531,-0.09135
7274.18378,-0.24594
7276.11225,-0.39033
7278.04072,-0.52018
7279.96919,-0.55607
7281.89766,-0.29846
7283.82613,0.03956
7285.75459,0.11559
7287.68306,0.01146
7289.61153,0.06008
7291.54000,0.25130
7293.46847,0.27716
7295.39694,0.13316
7297.32541,0.04391
7299.25387,0.07775
7301.18234,0.16406
7303.11081,0.24444
7305.03928,0.28355
7306.96775,0.25148
7308.89622,0.20318
7310.82469,0.28152
7312.75316,0.34681
7314.68162,0.27590
7316.61009,0.16563
7318.53856,0.16099
7320.46703,0.21986
7322.39550,0.24850
7324.32397,0.14046
7326.25244,-0.05357
7328.18090,-0.06135
7330.10937,0.12387
7332.03784,0.16048
7333.96631,0.08776
7335.89478,0.00729
7337.82325,-0.07380
7339.75172,0.05873
7341.68019,0.42389
7343.60865,0.48841
7345.53712,0.30252
7347.46559,0.15114
7349.39406,0.02342
7351.32253,-0.15963
7353.25100,-0.21529
7355.17947,-0.12788
7357.10793,0.07205
7359.03640,0.48600
7360.96487,0.71218
7362.89334,0.45920
7364.82181,0.17488
7366.75028,0.14216
7368.67875,0.10308
7370.60722,-0.05612
7372.53568,-0.05518
7374.46415,0.21728
7376.39262,0.42380
7378.32109,0.33642
7380.24956,0.08518
7382.17803,-0.14521
7384.10650,-0.13071
7386.03496,0.02804
7387.96343,0.14232
7389.89190,0.10025
7391.82037,-0.03267
7393.74884,-0.01196
7395.67731,0.22150
7397.60578,0.42171
7399.53425,0.38457
7401.46271,0.20350
7403.39118,0.11365
7405.31965,0.24232
7407.24812,0.43235
7409.17659,0.44411
7411.10506,0.27459
7413.03353,0.06432
7414.96199,-0.18821
7416.89046,-0.32747
7418.81893,-0.14344
7420.74740,0.00205
7422.67587,0.05493
7424.60434,0.17560
7426.53281,0.11499
7428.46128,-0.09423
7430.38974,-0.09902
7432.31821,0.10137
7434.24668,0.21142
7436.17515,0.14188
7438.10362,0.09901
7440.03209,0.17095
7441.96056,0.14021
7443.88902,0.07044
7445.81749,0.03462
7447.74596,-0.08426
7449.67443,-0.13228
7451.60290,0.09172
7453.53137,0.31351
7455.45984,0.31504
7457.38831,0.24252
7459.31677,0.25089
7461.24524,0.28271
7463.17371,0.25110
7465.10218,0.23667
7467.03065,0.23982
7468.95912,0.33301
7470.88759,0.52736
7472.81605,0.53081
7474.74452,0.25631
7476.67299,0.05616
7478.60146,0.09120
7480.52993,0.11548
7482.45840,-0.00506
7484.38687,-0.09751
7486.31533,-0.01746
7488.24380,0.07561
7490.17227,0.02589
7492.10074,-0.05835
7494.02921,-0.08345
7495.95768,-0.00392
7497.88615,0.20395
