399.19301,-0.02031
401.12148,0.07021
403.04995,0.02091
404.97842,0.05156
406.90689,-0.01134
408.83536,-0.10011
410.76382,-0.02575
412.69229,0.03830
414.62076,-0.02964
416.54923,-0.06855
418.47770,0.02708
420.40617,0.08580
422.33464,0.05310
424.26311,0.03738
426.19157,0.01478
428.12004,-0.01104
430.04851,-0.05300
431.97698,-0.03428
433.90545,0.09315
435.83392,0.17427
437.76239,0.12301
439.69085,0.00731
441.61932,-0.05605
443.54779,-0.08129
445.47626,-0.07751
447.40473,-0.01717
449.33320,0.03121
451.26167,0.05245
453.19013,0.07006
455.11860,0.13408
457.04707,0.20177
458.97554,0.18445
460.90401,0.13592
462.83248,0.08000
464.76095,0.04475
466.68942,0.07619
468.61788,0.13194
470.54635,0.14889
472.47482,0.13826
474.40329,0.13411
476.33176,0.11271
478.26023,0.10427
480.18870,0.11572
482.11716,0.14526
484.04563,0.16702
485.97410,0.16741
487.90257,0.15294
489.83104,0.12274
491.75951,0.11707
493.68798,0.11623
495.61645,0.09782
497.54491,0.08598
499.47338,0.08724
501.40185,0.09217
503.33032,0.08688
505.25879,0.07772
507.18726,0.07863
509.11573,0.11209
511.04419,0.14243
512.97266,0.12725
514.90113,0.09860
516.82960,0.08481
518.75807,0.08785
520.68654,0.10019
522.61501,0.10624
524.54348,0.09405
526.47194,0.09168
528.40041,0.10873
530.32888,0.10580
532.25735,0.09218
534.18582,0.07915
536.11429,0.07831
538.04276,0.09589
539.97122,0.09124
541.89969,0.06858
543.82816,0.06841
545.75663,0.09245
547.68510,0.09959
549.61357,0.08708
551.54204,0.07372
553.47051,0.05778
555.39897,0.05128
557.32744,0.05295
559.25591,0.06520
561.18438,0.08322
563.11285,0.10032
565.04132,0.11511
566.96979,0.10834
568.89825,0.09024
570.82672,0.08442
572.75519,0.10352
574.68366,0.11868
576.61213,0.11322
578.54060,0.12432
580.46907,0.13544
582.39754,0.12253
584.32600,0.10595
586.25447,0.09560
588.18294,0.08339
590.11141,0.06884
592.03988,0.05985
593.96835,0.06783
595.89682,0.09394
597.82528,0.11555
599.75375,0.12534
601.68222,0.12078
603.61069,0.10062
605.53916,0.07842
607.46763,0.06175
609.39610,0.06166
611.32456,0.07210
613.25303,0.07535
615.18150,0.06994
617.10997,0.07054
619.03844,0.07572
620.96691,0.07123
622.89538,0.06907
624.82385,0.07108
626.75231,0.07412
628.68078,0.07787
630.60925,0.07432
632.53772,0.06979
634.46619,0.07835
636.39466,0.10156
638.32313,0.11324
640.25159,0.10649
642.18006,0.09639
644.10853,0.09052
646.03700,0.09902
647.96547,0.10442
649.89394,0.09028
651.82241,0.07346
653.75088,0.07428
655.67934,0.08522
657.60781,0.08679
659.53628,0.08397
661.46475,0.08376
663.39322,0.09276
665.32169,0.10221
667.25016,0.09201
669.17862,0.08029
671.10709,0.09303
673.03556,0.10284
674.96403,0.10262
676.89250,0.10085
678.82097,0.10017
680.74944,0.10065
682.67791,0.09787
684.60637,0.09859
686.53484,0.11482
688.46331,0.12667
690.39178,0.12195
692.32025,0.11134
694.24872,0.10307
696.17719,0.09728
698.10565,0.09665
700.03412,0.10224
701.96259,0.10115
703.89106,0.09803
705.81953,0.10398
707.74800,0.11152
709.67647,0.11002
711.60494,0.10256
713.53340,0.10613
715.46187,0.11778
717.39034,0.11848
719.31881,0.10979
721.24728,0.10675
723.17575,0.10640
725.10422,0.10114
727.03268,0.09915
728.96115,0.10366
730.88962,0.11000
732.81809,0.11299
734.74656,0.11350
736.67503,0.11323
738.60350,0.11161
740.53197,0.11151
742.46043,0.10752
744.38890,0.10121
746.31737,0.10029
748.24584,0.10313
750.17431,0.10551
752.10278,0.10410
754.03125,0.10139
755.95971,0.09719
757.88818,0.09250
759.81665,0.09075
761.74512,0.09255
763.67359,0.09721
765.60206,0.10066
767.53053,0.10824
769.45900,0.11689
771.38746,0.11268
773.31593,0.10125
775.24440,0.09923
777.17287,0.10599
779.10134,0.10643
781.02981,0.10114
782.95828,0.09829
784.88674,0.10221
786.81521,0.11115
788.74368,0.11495
790.67215,0.11195
792.60062,0.11034
794.52909,0.11702
796.45756,0.12301
798.38602,0.12384
800.31449,0.12040
802.24296,0.10980
804.17143,0.10620
806.09990,0.11264
808.02837,0.11561
809.95684,0.10946
811.88531,0.10233
813.81377,0.09971
815.74224,0.09979
817.67071,0.10310
819.59918,0.10434
821.52765,0.10959
823.45612,0.12163
825.38459,0.12558
827.31305,0.11586
829.24152,0.10576
831.16999,0.10911
833.09846,0.11941
835.02693,0.12915
836.95540,0.13693
838.88387,0.13820
840.81234,0.13684
842.74080,0.14031
844.66927,0.14057
846.59774,0.12611
848.52621,0.11246
850.45468,0.11632
852.38315,0.12796
854.31162,0.13041
856.24008,0.12487
858.16855,0.12401
860.09702,0.12774
862.02549,0.13293
863.95396,0.13549
865.88243,0.12733
867.81090,0.11309
869.73937,0.10589
871.66783,0.10645
873.59630,0.10977
875.52477,0.11993
877.45324,0.12946
879.38171,0.13125
881.31018,0.13389
883.23865,0.13979
885.16711,0.14441
887.09558,0.14183
889.02405,0.13364
890.95252,0.12722
892.88099,0.12496
894.80946,0.12269
896.73793,0.11644
898.66640,0.11214
900.59486,0.11200
902.52333,0.11523
904.45180,0.12071
906.38027,0.12189
908.30874,0.12173
910.23721,0.12800
912.16568,0.13743
914.09414,0.14265
916.02261,0.14551
917.95108,0.14652
919.87955,0.14194
921.80802,0.13254
923.73649,0.12152
925.66496,0.11530
927.59343,0.11598
929.52189,0.12094
931.45036,0.12599
933.37883,0.12733
935.30730,0.12503
937.23577,0.12138
939.16424,0.12317
941.09271,0.12896
943.02117,0.13212
944.94964,0.13187
946.87811,0.12692
948.80658,0.12057
950.73505,0.11927
952.66352,0.12434
954.59199,0.12806
956.52045,0.12667
958.44892,0.12672
960.37739,0.12982
962.30586,0.13173
964.23433,0.12824
966.16280,0.12438
968.09127,0.12525
970.01974,0.12827
971.94820,0.13465
973.87667,0.14314
975.80514,0.14588
977.73361,0.13968
979.66208,0.13224
981.59055,0.13134
983.51902,0.13730
985.44748,0.14310
987.37595,0.14061
989.30442,0.13436
991.23289,0.13325
993.16136,0.13684
995.08983,0.13635
997.01830,0.13079
998.94677,0.12661
1000.87523,0.12383
1002.80370,0.12328
1004.73217,0.12466
1006.66064,0.12785
1008.58911,0.13398
1010.51758,0.14108
1012.44605,0.14666
1014.37451,0.14642
1016.30298,0.14209
1018.23145,0.13796
1020.15992,0.13614
1022.08839,0.13469
1024.01686,0.12996
1025.94533,0.12673
1027.87380,0.12999
1029.80226,0.13825
1031.73073,0.14313
1033.65920,0.14197
1035.58767,0.13734
1037.51614,0.13137
1039.44461,0.13084
1041.37308,0.13424
1043.30154,0.13708
1045.23001,0.13800
1047.15848,0.13692
1049.08695,0.13730
1051.01542,0.14104
1052.94389,0.14458
1054.87236,0.14237
1056.80083,0.14117
1058.72929,0.14627
1060.65776,0.15202
1062.58623,0.15208
1064.51470,0.14449
1066.44317,0.13720
1068.37164,0.13559
1070.30011,0.14058
1072.22857,0.14658
1074.15704,0.14444
1076.08551,0.13864
1078.01398,0.13623
1079.94245,0.13615
1081.87092,0.13767
1083.79939,0.14144
1085.72786,0.14384
1087.65632,0.14803
1089.58479,0.15559
1091.51326,0.15633
1093.44173,0.15063
1095.37020,0.14639
1097.29867,0.14849
1099.22714,0.15599
1101.15560,0.16124
1103.08407,0.16093
1105.01254,0.15856
1106.94101,0.15721
1108.86948,0.15590
1110.79795,0.15571
1112.72642,0.15664
1114.65489,0.15617
1116.58335,0.15591
1118.51182,0.15828
1120.44029,0.15904
1122.36876,0.15272
1124.29723,0.14782
1126.22570,0.15122
1128.15417,0.15588
1130.08263,0.15346
1132.01110,0.14481
1133.93957,0.13982
1135.86804,0.13934
1137.79651,0.13918
1139.72498,0.14106
1141.65345,0.14569
1143.58191,0.14948
1145.51038,0.14778
1147.43885,0.14335
1149.36732,0.14322
1151.29579,0.15045
1153.22426,0.15749
1155.15273,0.15694
1157.08120,0.15371
1159.00966,0.15386
1160.93813,0.15789
1162.86660,0.16005
1164.79507,0.15781
1166.72354,0.15538
1168.65201,0.15496
1170.58048,0.15646
1172.50894,0.15756
1174.43741,0.15708
1176.36588,0.15414
1178.29435,0.14957
1180.22282,0.14891
1182.15129,0.15274
1184.07976,0.15463
1186.00823,0.15249
1187.93669,0.15047
1189.86516,0.14996
1191.79363,0.15084
1193.72210,0.15107
1195.65057,0.14982
1197.57904,0.15055
1199.50751,0.15106
1201.43597,0.15053
1203.36444,0.15333
1205.29291,0.15831
1207.22138,0.15890
1209.14985,0.15494
1211.07832,0.15368
1213.00679,0.15530
1214.93526,0.15536
1216.86372,0.15347
1218.79219,0.15285
1220.72066,0.15448
1222.64913,0.15641
1224.57760,0.15985
1226.50607,0.16272
1228.43454,0.16167
1230.36300,0.15800
1232.29147,0.15513
1234.21994,0.15504
1236.14841,0.15536
1238.07688,0.15518
1240.00535,0.15482
1241.93382,0.15420
1243.86229,0.15388
1245.79075,0.15509
1247.71922,0.15720
1249.64769,0.15730
1251.57616,0.15715
1253.50463,0.15870
1255.43310,0.16090
1257.36157,0.16164
1259.29003,0.15967
1261.21850,0.15857
1263.14697,0.16017
1265.07544,0.16205
1267.00391,0.16246
1268.93238,0.16174
1270.86085,0.16172
1272.78932,0.16437
1274.71778,0.16753
1276.64625,0.16724
1278.57472,0.16585
1280.50319,0.16574
1282.43166,0.16746
1284.36013,0.16954
1286.28860,0.16794
1288.21706,0.16516
1290.14553,0.16452
1292.07400,0.16371
1294.00247,0.16127
1295.93094,0.16000
1297.85941,0.16129
1299.78788,0.16227
1301.71634,0.16037
1303.64481,0.15709
1305.57328,0.15753
1307.50175,0.16102
1309.43022,0.16350
1311.35869,0.16555
1313.28716,0.16938
1315.21563,0.17303
1317.14409,0.17196
1319.07256,0.16916
1321.00103,0.16983
1322.92950,0.17226
1324.85797,0.17178
1326.78644,0.16839
1328.71491,0.16625
1330.64337,0.16559
1332.57184,0.16669
1334.50031,0.16937
1336.42878,0.16979
1338.35725,0.16780
1340.28572,0.16472
1342.21419,0.16282
1344.14266,0.16659
1346.07112,0.16828
1347.99959,0.16122
1349.92806,0.15797
1351.85653,0.16206
1353.78500,0.16458
1355.71347,0.16546
1357.64194,0.16584
1359.57040,0.16678
1361.49887,0.17012
1363.42734,0.17233
1365.35581,0.17156
1367.28428,0.17086
1369.21275,0.17138
1371.14122,0.17282
1373.06969,0.17515
1374.99815,0.17488
1376.92662,0.17074
1378.85509,0.16758
1380.78356,0.16622
1382.71203,0.16758
1384.64050,0.17295
1386.56897,0.17862
1388.49743,0.17904
1390.42590,0.17707
1392.35437,0.17896
1394.28284,0.18177
1396.21131,0.18094
1398.13978,0.17801
1400.06825,0.17347
1401.99672,0.17099
1403.92518,0.17217
1405.85365,0.17358
1407.78212,0.17430
1409.71059,0.17610
1411.63906,0.17722
1413.56753,0.17717
1415.49600,0.17919
1417.42446,0.18292
1419.35293,0.18101
1421.28140,0.17452
1423.20987,0.17177
1425.13834,0.16945
1427.06681,0.16849
1428.99528,0.17386
1430.92375,0.18006
1432.85221,0.18129
1434.78068,0.18019
1436.70915,0.17754
1438.63762,0.17377
1440.56609,0.17261
1442.49456,0.17466
1444.42303,0.17763
1446.35149,0.17897
1448.27996,0.17782
1450.20843,0.17731
1452.13690,0.17938
1454.06537,0.18519
1455.99384,0.19678
1457.92231,0.20103
1459.85077,0.18944
1461.77924,0.18301
1463.70771,0.18639
1465.63618,0.18894
1467.56465,0.18518
1469.49312,0.18662
1471.42159,0.19757
1473.35006,0.20719
1475.27852,0.20126
1477.20699,0.19021
1479.13546,0.18325
1481.06393,0.18080
1482.99240,0.18217
1484.92087,0.18861
1486.84934,0.19885
1488.77780,0.20436
1490.70627,0.19764
1492.63474,0.18972
1494.56321,0.19035
1496.49168,0.19677
1498.42015,0.19602
1500.34862,0.18907
1502.27709,0.18732
1504.20555,0.19426
1506.13402,0.21000
1508.06249,0.21480
1509.99096,0.20313
1511.91943,0.19377
1513.84790,0.19351
1515.77637,0.20195
1517.70483,0.21114
1519.63330,0.21826
1521.56177,0.22157
1523.49024,0.21478
1525.41871,0.20626
1527.34718,0.19977
1529.27565,0.19467
1531.20412,0.19373
1533.13258,0.19682
1535.06105,0.19989
1536.98952,0.20703
1538.91799,0.22340
1540.84646,0.23524
1542.77493,0.22381
1544.70340,0.20663
1546.63186,0.19517
1548.56033,0.19247
1550.48880,0.19413
1552.41727,0.19688
1554.34574,0.20402
1556.27421,0.21773
1558.20268,0.23335
1560.13115,0.22157
1562.05961,0.20351
1563.98808,0.19631
1565.91655,0.19380
1567.84502,0.19531
1569.77349,0.19830
1571.70196,0.19873
1573.63043,0.20323
1575.55889,0.21109
1577.48736,0.20707
1579.41583,0.19523
1581.34430,0.18823
1583.27277,0.18624
1585.20124,0.18617
1587.12971,0.18683
1589.05818,0.18742
1590.98664,0.18618
1592.91511,0.18423
1594.84358,0.18487
1596.77205,0.18536
1598.70052,0.18449
1600.62899,0.18535
1602.55746,0.18658
1604.48592,0.18708
1606.41439,0.18757
1608.34286,0.18841
1610.27133,0.18821
1612.19980,0.18712
1614.12827,0.19064
1616.05674,0.19900
1617.98521,0.20012
1619.91367,0.19764
1621.84214,0.20238
1623.77061,0.20787
1625.69908,0.20640
1627.62755,0.20350
1629.55602,0.20026
1631.48449,0.19837
1633.41295,0.20143
1635.34142,0.21056
1637.26989,0.21086
1639.19836,0.20004
1641.12683,0.19384
1643.05530,0.19733
1644.98377,0.21174
1646.91223,0.22800
1648.84070,0.22675
1650.76917,0.22575
1652.69764,0.23361
1654.62611,0.22267
1656.55458,0.20632
1658.48305,0.20115
1660.41152,0.20187
1662.33998,0.20243
1664.26845,0.20054
1666.19692,0.20027
1668.12539,0.20608
1670.05386,0.21241
1671.98233,0.21016
1673.91080,0.20562
1675.83926,0.20159
1677.76773,0.19952
1679.69620,0.20180
1681.62467,0.20812
1683.55314,0.21459
1685.48161,0.21454
1687.41008,0.21124
1689.33855,0.20696
1691.26701,0.20201
1693.19548,0.20202
1695.12395,0.21040
1697.05242,0.21942
1698.98089,0.21954
1700.90936,0.21158
1702.83783,0.20597
1704.76629,0.20516
1706.69476,0.20042
1708.62323,0.19376
1710.55170,0.19203
1712.48017,0.19473
1714.40864,0.20102
1716.33711,0.20991
1718.26558,0.20998
1720.19404,0.20107
1722.12251,0.19504
1724.05098,0.19156
1725.97945,0.18989
1727.90792,0.19193
1729.83639,0.19712
1731.76486,0.20455
1733.69332,0.21014
1735.62179,0.20603
1737.55026,0.20102
1739.47873,0.20138
1741.40720,0.20401
1743.33567,0.20378
1745.26414,0.20367
1747.19261,0.20763
1749.12107,0.21155
1751.04954,0.20689
1752.97801,0.19925
1754.90648,0.19636
1756.83495,0.19498
1758.76342,0.19495
1760.69189,0.19901
1762.62035,0.20107
1764.54882,0.19792
1766.47729,0.19639
1768.40576,0.19833
1770.33423,0.20042
1772.26270,0.19921
1774.19117,0.19475
1776.11964,0.19216
1778.04810,0.19272
1779.97657,0.19406
1781.90504,0.19320
1783.83351,0.19240
1785.76198,0.19302
1787.69045,0.19262
1789.61892,0.19413
1791.54738,0.20003
1793.47585,0.20307
1795.40432,0.19946
1797.33279,0.19621
1799.26126,0.19719
1801.18973,0.19709
1803.11820,0.19222
1805.04666,0.18853
1806.97513,0.18968
1808.90360,0.19315
1810.83207,0.19345
1812.76054,0.19009
1814.68901,0.18856
1816.61748,0.19004
1818.54595,0.19184
1820.47441,0.19337
1822.40288,0.19430
1824.33135,0.19324
1826.25982,0.19217
1828.18829,0.19340
1830.11676,0.19403
1832.04523,0.19157
1833.97369,0.18975
1835.90216,0.19025
1837.83063,0.18952
1839.75910,0.18703
1841.68757,0.18784
1843.61604,0.19391
1845.54451,0.19712
1847.47298,0.19394
1849.40144,0.18996
1851.32991,0.18612
1853.25838,0.18374
1855.18685,0.18423
1857.11532,0.18576
1859.04379,0.18683
1860.97226,0.18702
1862.90072,0.18815
1864.82919,0.19332
1866.75766,0.20233
1868.68613,0.20716
1870.61460,0.20121
1872.54307,0.19335
1874.47154,0.19011
1876.40001,0.19050
1878.32847,0.19145
1880.25694,0.19252
1882.18541,0.19378
1884.11388,0.19414
1886.04235,0.19350
1887.97082,0.19318
1889.89929,0.19414
1891.82775,0.19444
1893.75622,0.19339
1895.68469,0.19180
1897.61316,0.19081
1899.54163,0.19124
1901.47010,0.19141
1903.39857,0.19100
1905.32704,0.19186
1907.25550,0.19300
1909.18397,0.19170
1911.11244,0.19006
1913.04091,0.19018
1914.96938,0.19122
1916.89785,0.19354
1918.82632,0.19534
1920.75478,0.19582
1922.68325,0.19522
1924.61172,0.19205
1926.54019,0.18921
1928.46866,0.18884
1930.39713,0.18914
1932.32560,0.18930
1934.25407,0.19095
1936.18253,0.19372
1938.11100,0.19598
1940.03947,0.19797
1941.96794,0.19879
1943.89641,0.19685
1945.82488,0.19320
1947.75335,0.19099
1949.68181,0.19120
1951.61028,0.19228
1953.53875,0.19359
1955.46722,0.19462
1957.39569,0.19449
1959.32416,0.19309
1961.25263,0.19152
1963.18110,0.19068
1965.10956,0.19120
1967.03803,0.19218
1968.96650,0.19135
1970.89497,0.19022
1972.82344,0.18973
1974.75191,0.18896
1976.68038,0.18803
1978.60884,0.18797
1980.53731,0.19031
1982.46578,0.19284
1984.39425,0.19335
1986.32272,0.19354
1988.25119,0.19387
1990.17966,0.19377
1992.10812,0.19424
1994.03659,0.19478
1995.96506,0.19475
1997.89353,0.19600
1999.82200,0.19736
2001.75047,0.19678
2003.67894,0.19449
2005.60741,0.19156
2007.53587,0.19028
2009.46434,0.19111
2011.39281,0.19247
2013.32128,0.19278
2015.24975,0.19246
2017.17822,0.19254
2019.10669,0.19293
2021.03515,0.19388
2022.96362,0.19433
2024.89209,0.19367
2026.82056,0.19282
2028.74903,0.19263
2030.67750,0.19357
2032.60597,0.19428
2034.53444,0.19293
2036.46290,0.19121
2038.39137,0.19220
2040.31984,0.19396
2042.24831,0.19375
2044.17678,0.19302
2046.10525,0.19306
2048.03372,0.19368
2049.96218,0.19376
2051.89065,0.19312
2053.81912,0.19223
2055.74759,0.19133
2057.67606,0.19190
2059.60453,0.19394
2061.53300,0.19580
2063.46147,0.19741
2065.38993,0.19884
2067.31840,0.19832
2069.24687,0.19639
2071.17534,0.19604
2073.10381,0.19720
2075.03228,0.19803
2076.96075,0.19744
2078.88921,0.19610
2080.81768,0.19531
2082.74615,0.19414
2084.67462,0.19184
2086.60309,0.19045
2088.53156,0.19193
2090.46003,0.19416
2092.38850,0.19424
2094.31696,0.19251
2096.24543,0.19246
2098.17390,0.19544
2100.10237,0.19710
2102.03084,0.19632
2103.95931,0.19578
2105.88778,0.19650
2107.81624,0.19797
2109.74471,0.19812
2111.67318,0.19762
2113.60165,0.19857
2115.53012,0.19822
2117.45859,0.19470
2119.38706,0.19236
2121.31553,0.19267
2123.24399,0.19284
2125.17246,0.19225
2127.10093,0.19131
2129.02940,0.19140
2130.95787,0.19214
2132.88634,0.19030
2134.81481,0.18336
2136.74327,0.17523
2138.67174,0.17645
2140.60021,0.18699
2142.52868,0.19515
2144.45715,0.19651
2146.38562,0.19528
2148.31409,0.19477
2150.24255,0.19532
2152.17102,0.19612
2154.09949,0.19682
2156.02796,0.19726
2157.95643,0.19768
2159.88490,0.19818
2161.81337,0.19767
2163.74184,0.19686
2165.67030,0.19691
2167.59877,0.19639
2169.52724,0.19553
2171.45571,0.19564
2173.38418,0.19663
2175.31265,0.19768
2177.24112,0.19834
2179.16958,0.19868
2181.09805,0.19747
2183.02652,0.19550
2184.95499,0.19523
2186.88346,0.19634
2188.81193,0.19675
2190.74040,0.19557
2192.66887,0.19486
2194.59733,0.19546
2196.52580,0.19606
2198.45427,0.19619
2200.38274,0.19660
2202.31121,0.19817
2204.23968,0.19941
2206.16815,0.19940
2208.09661,0.19867
2210.02508,0.19737
2211.95355,0.19615
2213.88202,0.19548
2215.81049,0.19557
2217.73896,0.19673
2219.66743,0.19903
2221.59590,0.20046
2223.52436,0.19879
2225.45283,0.19495
2227.38130,0.19243
2229.30977,0.19367
2231.23824,0.19631
2233.16671,0.19776
2235.09518,0.19881
2237.02364,0.20007
2238.95211,0.19984
2240.88058,0.19746
2242.80905,0.19512
2244.73752,0.19397
2246.66599,0.19364
2248.59446,0.19415
2250.52293,0.19548
2252.45139,0.19683
2254.37986,0.19754
2256.30833,0.19720
2258.23680,0.19541
2260.16527,0.19396
2262.09374,0.19423
2264.02221,0.19527
2265.95067,0.19615
2267.87914,0.19635
2269.80761,0.19522
2271.73608,0.19397
2273.66455,0.19596
2275.59302,0.19893
2277.52149,0.19844
2279.44996,0.19715
2281.37842,0.19757
2283.30689,0.19863
2285.23536,0.19893
2287.16383,0.19825
2289.09230,0.19829
2291.02077,0.19868
2292.94924,0.19711
2294.87770,0.19419
2296.80617,0.19185
2298.73464,0.18945
2300.66311,0.18766
2302.59158,0.18762
2304.52005,0.18753
2306.44852,0.18709
2308.37699,0.18687
2310.30545,0.18625
2312.23392,0.18418
2314.16239,0.18156
2316.09086,0.17907
2318.01933,0.17589
2319.94780,0.17562
2321.87627,0.17786
2323.80473,0.17744
2325.73320,0.17477
2327.66167,0.17240
2329.59014,0.17160
2331.51861,0.17343
2333.44708,0.17613
2335.37555,0.17332
2337.30401,0.16751
2339.23248,0.16416
2341.16095,0.16061
2343.08942,0.15631
2345.01789,0.15792
2346.94636,0.16714
2348.87483,0.17695
2350.80330,0.18299
2352.73176,0.17883
2354.66023,0.16270
2356.58870,0.14347
2358.51717,0.12804
2360.44564,0.13079
2362.37411,0.14375
2364.30258,0.15225
2366.23104,0.16526
2368.15951,0.17902
2370.08798,0.18068
2372.01645,0.17574
2373.94492,0.17449
2375.87339,0.17739
2377.80186,0.18320
2379.73033,0.18944
2381.65879,0.19207
2383.58726,0.19205
2385.51573,0.19273
2387.44420,0.19461
2389.37267,0.19656
2391.30114,0.19880
2393.22961,0.20031
2395.15807,0.19918
2397.08654,0.19816
2399.01501,0.19944
2400.94348,0.19982
2402.87195,0.19789
2404.80042,0.19670
2406.72889,0.19746
2408.65736,0.19799
2410.58582,0.19775
2412.51429,0.19729
2414.44276,0.19657
2416.37123,0.19580
2418.29970,0.19568
2420.22817,0.19620
2422.15664,0.19601
2424.08510,0.19570
2426.01357,0.19658
2427.94204,0.19835
2429.87051,0.20050
2431.79898,0.20202
2433.72745,0.20140
2435.65592,0.19981
2437.58439,0.19960
2439.51285,0.19983
2441.44132,0.19928
2443.36979,0.19858
2445.29826,0.19879
2447.22673,0.19812
2449.15520,0.19484
2451.08367,0.19245
2453.01213,0.19283
2454.94060,0.19569
2456.86907,0.19993
2458.79754,0.20205
2460.72601,0.20190
2462.65448,0.20165
2464.58295,0.20146
2466.51142,0.20104
2468.43988,0.20075
2470.36835,0.20053
2472.29682,0.20093
2474.22529,0.20197
2476.15376,0.20254
2478.08223,0.20262
2480.01070,0.20197
2481.93916,0.20122
2483.86763,0.20052
2485.79610,0.19842
2487.72457,0.19639
2489.65304,0.19730
2491.58151,0.20016
2493.50998,0.20079
2495.43844,0.19924
2497.36691,0.19945
2499.29538,0.20244
2501.22385,0.20464
2503.15232,0.20317
2505.08079,0.20086
2507.00926,0.19995
2508.93773,0.20011
2510.86619,0.20127
2512.79466,0.20304
2514.72313,0.20464
2516.65160,0.20473
2518.58007,0.20421
2520.50854,0.20401
2522.43701,0.20380
2524.36547,0.20400
2526.29394,0.20367
2528.22241,0.20248
2530.15088,0.20200
2532.07935,0.20211
2534.00782,0.20165
2535.93629,0.20173
2537.86476,0.20214
2539.79322,0.20047
2541.72169,0.19781
2543.65016,0.19786
2545.57863,0.20067
2547.50710,0.20199
2549.43557,0.20069
2551.36404,0.19977
2553.29250,0.19997
2555.22097,0.20040
2557.14944,0.20190
2559.07791,0.20401
2561.00638,0.20445
2562.93485,0.20412
2564.86332,0.20405
2566.79179,0.20324
2568.72025,0.20265
2570.64872,0.20346
2572.57719,0.20389
2574.50566,0.20269
2576.43413,0.20192
2578.36260,0.20250
2580.29107,0.20348
2582.21953,0.20471
2584.14800,0.20658
2586.07647,0.20927
2588.00494,0.20996
2589.93341,0.20758
2591.86188,0.20624
2593.79035,0.20706
2595.71882,0.20819
2597.64728,0.20845
2599.57575,0.20678
2601.50422,0.20345
2603.43269,0.20136
2605.36116,0.20281
2607.28963,0.20583
2609.21810,0.21144
2611.14656,0.21920
2613.07503,0.22132
2615.00350,0.21580
2616.93197,0.20919
2618.86044,0.20748
2620.78891,0.20883
2622.71738,0.20926
2624.64585,0.20818
2626.57431,0.20597
2628.50278,0.20571
2630.43125,0.20724
2632.35972,0.20743
2634.28819,0.20670
2636.21666,0.20524
2638.14513,0.20316
2640.07359,0.20339
2642.00206,0.20577
2643.93053,0.20786
2645.85900,0.21016
2647.78747,0.21103
2649.71594,0.20937
2651.64441,0.20745
2653.57288,0.20615
2655.50134,0.20532
2657.42981,0.20577
2659.35828,0.20792
2661.28675,0.20968
2663.21522,0.21000
2665.14369,0.20907
2667.07216,0.20923
2669.00062,0.21221
2670.92909,0.21441
2672.85756,0.21326
2674.78603,0.20998
2676.71450,0.20800
2678.64297,0.20839
2680.57144,0.20966
2682.49990,0.21113
2684.42837,0.21136
2686.35684,0.21089
2688.28531,0.21107
2690.21378,0.21118
2692.14225,0.21006
2694.07072,0.20931
2695.99919,0.21093
2697.92765,0.21227
2699.85612,0.21174
2701.78459,0.21181
2703.71306,0.21414
2705.64153,0.21583
2707.57000,0.21433
2709.49847,0.21244
2711.42693,0.21170
2713.35540,0.20972
2715.28387,0.20655
2717.21234,0.20600
2719.14081,0.20949
2721.06928,0.21371
2722.99775,0.21475
2724.92622,0.21291
2726.85468,0.21135
2728.78315,0.21087
2730.71162,0.21175
2732.64009,0.21349
2734.56856,0.21356
2736.49703,0.21236
2738.42550,0.21228
2740.35396,0.21310
2742.28243,0.21378
2744.21090,0.21547
2746.13937,0.21764
2748.06784,0.21775
2749.99631,0.21618
2751.92478,0.21453
2753.85325,0.21349
2755.78171,0.21390
2757.71018,0.21586
2759.63865,0.21716
2761.56712,0.21650
2763.49559,0.21515
2765.42406,0.21342
2767.35253,0.21293
2769.28099,0.21571
2771.20946,0.21881
2773.13793,0.21763
2775.06640,0.21373
2776.99487,0.21314
2778.92334,0.21601
2780.85181,0.21850
2782.78028,0.21854
2784.70874,0.21569
2786.63721,0.21301
2788.56568,0.21429
2790.49415,0.21755
2792.42262,0.21758
2794.35109,0.21527
2796.27956,0.21472
2798.20802,0.21643
2800.13649,0.21851
2802.06496,0.21892
2803.99343,0.21795
2805.92190,0.21716
2807.85037,0.21704
2809.77884,0.21650
2811.70731,0.21657
2813.63577,0.21923
2815.56424,0.22194
2817.49271,0.22252
2819.42118,0.22103
2821.34965,0.22023
2823.27812,0.22234
2825.20659,0.22358
2827.13505,0.22136
2829.06352,0.21949
2830.99199,0.22129
2832.92046,0.22273
2834.84893,0.22088
2836.77740,0.21968
2838.70587,0.22059
2840.63433,0.22089
2842.56280,0.21977
2844.49127,0.21912
2846.41974,0.21925
2848.34821,0.21743
2850.27668,0.21381
2852.20515,0.21328
2854.13362,0.21665
2856.06208,0.21898
2857.99055,0.21850
2859.91902,0.21888
2861.84749,0.22232
2863.77596,0.22418
2865.70443,0.22232
2867.63290,0.22112
2869.56136,0.22046
2871.48983,0.21895
2873.41830,0.21802
2875.34677,0.21707
2877.27524,0.21614
2879.20371,0.21699
2881.13218,0.21955
2883.06065,0.22127
2884.98911,0.22037
2886.91758,0.21835
2888.84605,0.21739
2890.77452,0.21765
2892.70299,0.21841
2894.63146,0.21799
2896.55993,0.21644
2898.48839,0.21797
2900.41686,0.22078
2902.34533,0.22039
2904.27380,0.21959
2906.20227,0.22046
2908.13074,0.22151
2910.05921,0.22112
2911.98768,0.22033
2913.91614,0.22053
2915.84461,0.22121
2917.77308,0.22186
2919.70155,0.22066
2921.63002,0.21850
2923.55849,0.21581
2925.48696,0.21229
2927.41542,0.21405
2929.34389,0.22142
2931.27236,0.22287
2933.20083,0.21590
2935.12930,0.21106
2937.05777,0.21142
2938.98624,0.21373
2940.91471,0.21705
2942.84317,0.21936
2944.77164,0.21780
2946.70011,0.21470
2948.62858,0.21611
2950.55705,0.21913
2952.48552,0.21956
2954.41399,0.21986
2956.34245,0.21858
2958.27092,0.21527
2960.19939,0.21594
2962.12786,0.22199
2964.05633,0.22586
2965.98480,0.22361
2967.91327,0.22044
2969.84174,0.22098
2971.77020,0.22352
2973.69867,0.22474
2975.62714,0.22333
2977.55561,0.21926
2979.48408,0.21827
2981.41255,0.22197
2983.34102,0.22385
2985.26948,0.22406
2987.19795,0.22511
2989.12642,0.22672
2991.05489,0.22755
2992.98336,0.22795
2994.91183,0.23074
2996.84030,0.23238
2998.76877,0.23030
3000.69723,0.22854
3002.62570,0.22777
3004.55417,0.22616
3006.48264,0.22570
3008.41111,0.22608
3010.33958,0.22250
3012.26805,0.21517
3014.19651,0.20750
3016.12498,0.20250
3018.05345,0.20603
3019.98192,0.21781
3021.91039,0.22762
3023.83886,0.22992
3025.76733,0.22749
3027.69579,0.22455
3029.62426,0.22383
3031.55273,0.22483
3033.48120,0.22725
3035.40967,0.22969
3037.33814,0.22988
3039.26661,0.22994
3041.19508,0.22933
3043.12354,0.22665
3045.05201,0.22464
3046.98048,0.22383
3048.90895,0.22413
3050.83742,0.22698
3052.76589,0.23071
3054.69436,0.23019
3056.62282,0.22516
3058.55129,0.22153
3060.47976,0.22240
3062.40823,0.22562
3064.33670,0.22707
3066.26517,0.22578
3068.19364,0.22534
3070.12211,0.22644
3072.05057,0.22554
3073.97904,0.22288
3075.90751,0.22165
3077.83598,0.22289
3079.76445,0.22646
3081.69292,0.22862
3083.62139,0.22449
3085.54985,0.21724
3087.47832,0.21506
3089.40679,0.22071
3091.33526,0.22811
3093.26373,0.22955
3095.19220,0.22546
3097.12067,0.22228
3099.04914,0.22300
3100.97760,0.22461
3102.90607,0.22238
3104.83454,0.21937
3106.76301,0.22173
3108.69148,0.22527
3110.61995,0.22455
3112.54842,0.22140
3114.47688,0.22042
3116.40535,0.22465
3118.33382,0.22973
3120.26229,0.23145
3122.19076,0.23325
3124.11923,0.23776
3126.04770,0.24046
3127.97617,0.23686
3129.90463,0.23057
3131.83310,0.22650
3133.76157,0.22517
3135.69004,0.22460
3137.61851,0.22562
3139.54698,0.23033
3141.47545,0.23438
3143.40391,0.23408
3145.33238,0.23087
3147.26085,0.22814
3149.18932,0.22932
3151.11779,0.23316
3153.04626,0.23507
3154.97473,0.23440
3156.90320,0.23566
3158.83166,0.23694
3160.76013,0.23380
3162.68860,0.23003
3164.61707,0.23025
3166.54554,0.23338
3168.47401,0.23463
3170.40248,0.23455
3172.33094,0.23542
3174.25941,0.23416
3176.18788,0.23135
3178.11635,0.23187
3180.04482,0.23558
3181.97329,0.23771
3183.90176,0.23707
3185.83022,0.23484
3187.75869,0.23399
3189.68716,0.23604
3191.61563,0.23741
3193.54410,0.23784
3195.47257,0.23913
3197.40104,0.24038
3199.32951,0.23875
3201.25797,0.23401
3203.18644,0.22970
3205.11491,0.22703
3207.04338,0.22643
3208.97185,0.22855
3210.90032,0.23108
3212.82879,0.23091
3214.75725,0.22881
3216.68572,0.22767
3218.61419,0.22948
3220.54266,0.23380
3222.47113,0.23708
3224.39960,0.23653
3226.32807,0.23245
3228.25654,0.22953
3230.18500,0.22990
3232.11347,0.23085
3234.04194,0.23183
3235.97041,0.23081
3237.89888,0.22785
3239.82735,0.22765
3241.75582,0.22915
3243.68428,0.22874
3245.61275,0.22737
3247.54122,0.22661
3249.46969,0.22795
3251.39816,0.23108
3253.32663,0.23230
3255.25510,0.23243
3257.18357,0.23266
3259.11203,0.23088
3261.04050,0.22864
3262.96897,0.22847
3264.89744,0.23051
3266.82591,0.23076
3268.75438,0.22763
3270.68285,0.22466
3272.61131,0.22284
3274.53978,0.22457
3276.46825,0.22934
3278.39672,0.23035
3280.32519,0.22732
3282.25366,0.22588
3284.18213,0.22709
3286.11060,0.22809
3288.03906,0.22785
3289.96753,0.22571
3291.89600,0.22238
3293.82447,0.22133
3295.75294,0.22494
3297.68141,0.23008
3299.60988,0.23091
3301.53834,0.22849
3303.46681,0.22590
3305.39528,0.22496
3307.32375,0.22706
3309.25222,0.22814
3311.18069,0.22666
3313.10916,0.22569
3315.03763,0.22487
3316.96609,0.22263
3318.89456,0.22067
3320.82303,0.22015
3322.75150,0.22007
3324.67997,0.22222
3326.60844,0.22816
3328.53691,0.23576
3330.46537,0.24062
3332.39384,0.24076
3334.32231,0.23874
3336.25078,0.23589
3338.17925,0.23135
3340.10772,0.22606
3342.03619,0.22387
3343.96466,0.22583
3345.89312,0.22842
3347.82159,0.22950
3349.75006,0.22916
3351.67853,0.22879
3353.60700,0.22892
3355.53547,0.22770
3357.46394,0.22581
3359.39240,0.22804
3361.32087,0.23268
3363.24934,0.23271
3365.17781,0.23070
3367.10628,0.23153
3369.03475,0.23312
3370.96322,0.23518
3372.89168,0.23897
3374.82015,0.23989
3376.74862,0.23540
3378.67709,0.23048
3380.60556,0.22749
3382.53403,0.22801
3384.46250,0.23164
3386.39097,0.23329
3388.31943,0.23360
3390.24790,0.23562
3392.17637,0.23661
3394.10484,0.23207
3396.03331,0.22788
3397.96178,0.22979
3399.89025,0.23150
3401.81871,0.23035
3403.74718,0.22750
3405.67565,0.22318
3407.60412,0.22070
3409.53259,0.22275
3411.46106,0.22579
3413.38953,0.22505
3415.31800,0.22268
3417.24646,0.22381
3419.17493,0.22916
3421.10340,0.23263
3423.03187,0.23074
3424.96034,0.22701
3426.88881,0.22484
3428.81728,0.22415
3430.74574,0.22276
3432.67421,0.22099
3434.60268,0.21834
3436.53115,0.21624
3438.45962,0.21598
3440.38809,0.21561
3442.31656,0.21590
3444.24503,0.21583
3446.17349,0.21735
3448.10196,0.22261
3450.03043,0.22521
3451.95890,0.22149
3453.88737,0.21457
3455.81584,0.20993
3457.74431,0.20919
3459.67277,0.20942
3461.60124,0.20867
3463.52971,0.20923
3465.45818,0.21076
3467.38665,0.20933
3469.31512,0.20701
3471.24359,0.20667
3473.17206,0.20726
3475.10052,0.20717
3477.02899,0.20628
3478.95746,0.20516
3480.88593,0.20523
3482.81440,0.20785
3484.74287,0.20914
3486.67134,0.20784
3488.59980,0.20661
3490.52827,0.20534
3492.45674,0.20295
3494.38521,0.20044
3496.31368,0.20106
3498.24215,0.20252
3500.17062,0.20087
3502.09909,0.19858
3504.02755,0.19702
3505.95602,0.19340
3507.88449,0.18808
3509.81296,0.18544
3511.74143,0.18656
3513.66990,0.18883
3515.59837,0.18975
3517.52683,0.18986
3519.45530,0.19232
3521.38377,0.19413
3523.31224,0.19119
3525.24071,0.18853
3527.16918,0.19149
3529.09765,0.19446
3531.02611,0.19148
3532.95458,0.18676
3534.88305,0.18401
3536.81152,0.18342
3538.73999,0.18341
3540.66846,0.18194
3542.59693,0.18013
3544.52540,0.17984
3546.45386,0.18054
3548.38233,0.18039
3550.31080,0.17986
3552.23927,0.18027
3554.16774,0.18181
3556.09621,0.18149
3558.02468,0.17965
3559.95314,0.18178
3561.88161,0.18574
3563.81008,0.18896
3565.73855,0.19234
3567.66702,0.18698
3569.59549,0.17549
3571.52396,0.17119
3573.45243,0.17133
3575.38089,0.16932
3577.30936,0.16706
3579.23783,0.16659
3581.16630,0.16684
3583.09477,0.16857
3585.02324,0.17112
3586.95171,0.17309
3588.88017,0.17212
3590.80864,0.17173
3592.73711,0.17587
3594.66558,0.18033
3596.59405,0.17844
3598.52252,0.17266
3600.45099,0.16974
3602.37946,0.16817
3604.30792,0.16559
3606.23639,0.16675
3608.16486,0.17115
3610.09333,0.17354
3612.02180,0.17649
3613.95027,0.17715
3615.87874,0.17249
3617.80720,0.17151
3619.73567,0.17257
3621.66414,0.16792
3623.59261,0.16460
3625.52108,0.16453
3627.44955,0.16370
3629.37802,0.15919
3631.30649,0.15395
3633.23495,0.15009
3635.16342,0.14815
3637.09189,0.14961
3639.02036,0.15239
3640.94883,0.15392
3642.87730,0.15407
3644.80577,0.15508
3646.73423,0.15891
3648.66270,0.16284
3650.59117,0.15804
3652.51964,0.15191
3654.44811,0.15163
3656.37658,0.14982
3658.30505,0.14331
3660.23352,0.13962
3662.16198,0.13708
3664.09045,0.13502
3666.01892,0.13881
3667.94739,0.14814
3669.87586,0.15421
3671.80433,0.15488
3673.73280,0.16106
3675.66126,0.16679
3677.58973,0.15977
3679.51820,0.15109
3681.44667,0.14621
3683.37514,0.14537
3685.30361,0.14851
3687.23208,0.15332
3689.16055,0.15309
3691.08901,0.14434
3693.01748,0.13849
3694.94595,0.13831
3696.87442,0.13783
3698.80289,0.13832
3700.73136,0.14119
3702.65983,0.13863
3704.58829,0.13431
3706.51676,0.13690
3708.44523,0.14581
3710.37370,0.15480
3712.30217,0.15322
3714.23064,0.14558
3716.15911,0.14040
3718.08757,0.13832
3720.01604,0.13910
3721.94451,0.14162
3723.87298,0.14273
3725.80145,0.13988
3727.72992,0.13668
3729.65839,0.13724
3731.58686,0.14371
3733.51532,0.15607
3735.44379,0.16038
3737.37226,0.14865
3739.30073,0.14089
3741.22920,0.14481
3743.15767,0.15297
3745.08614,0.15407
3747.01460,0.15065
3748.94307,0.15256
3750.87154,0.15859
3752.80001,0.15477
3754.72848,0.14149
3756.65695,0.13225
3758.58542,0.13144
3760.51389,0.13263
3762.44235,0.13458
3764.37082,0.13842
3766.29929,0.13951
3768.22776,0.13603
3770.15623,0.12990
3772.08470,0.12714
3774.01317,0.12968
3775.94163,0.13368
3777.87010,0.13703
3779.79857,0.13751
3781.72704,0.13700
3783.65551,0.13905
3785.58398,0.13909
3787.51245,0.13403
3789.44092,0.12919
3791.36938,0.12816
3793.29785,0.13102
3795.22632,0.13641
3797.15479,0.14118
3799.08326,0.14312
3801.01173,0.14201
3802.94020,0.14205
3804.86866,0.14597
3806.79713,0.14513
3808.72560,0.13641
3810.65407,0.13088
3812.58254,0.13017
3814.51101,0.13101
3816.43948,0.13512
3818.36795,0.14253
3820.29641,0.14671
3822.22488,0.14180
3824.15335,0.13583
3826.08182,0.13412
3828.01029,0.13394
3829.93876,0.13347
3831.86723,0.13188
3833.79569,0.13131
3835.72416,0.13506
3837.65263,0.13845
3839.58110,0.13379
3841.50957,0.12757
3843.43804,0.12745
3845.36651,0.13013
3847.29498,0.13213
3849.22344,0.13668
3851.15191,0.14538
3853.08038,0.15067
3855.00885,0.13873
3856.93732,0.12579
3858.86579,0.12073
3860.79426,0.12264
3862.72272,0.12946
3864.65119,0.13519
3866.57966,0.13806
3868.50813,0.14047
3870.43660,0.13810
3872.36507,0.13285
3874.29354,0.12900
3876.22200,0.12798
3878.15047,0.13307
3880.07894,0.14054
3882.00741,0.14250
3883.93588,0.14086
3885.86435,0.13829
3887.79282,0.13413
3889.72129,0.13056
3891.64975,0.12837
3893.57822,0.12539
3895.50669,0.12332
3897.43516,0.12695
3899.36363,0.13410
3901.29210,0.13768
3903.22057,0.13693
3905.14903,0.12993
3907.07750,0.12284
3909.00597,0.12103
3910.93444,0.11839
3912.86291,0.11462
3914.79138,0.11582
3916.71985,0.12039
3918.64832,0.12135
3920.57678,0.12072
3922.50525,0.12358
3924.43372,0.12673
3926.36219,0.12646
3928.29066,0.12492
3930.21913,0.12458
3932.14760,0.12317
3934.07606,0.11897
3936.00453,0.11539
3937.93300,0.11467
3939.86147,0.11943
3941.78994,0.12696
3943.71841,0.12917
3945.64688,0.12578
3947.57535,0.12109
3949.50381,0.11808
3951.43228,0.11567
3953.36075,0.11149
3955.28922,0.10925
3957.21769,0.11263
3959.14616,0.11574
3961.07463,0.11210
3963.00309,0.10582
3964.93156,0.10292
3966.86003,0.10617
3968.78850,0.11356
3970.71697,0.11907
3972.64544,0.11957
3974.57391,0.11635
3976.50238,0.11192
3978.43084,0.10770
3980.35931,0.10605
3982.28778,0.10552
3984.21625,0.10430
3986.14472,0.10514
3988.07319,0.10688
3990.00166,0.10718
3991.93012,0.10594
3993.85859,0.10537
3995.78706,0.10833
3997.71553,0.11197
3999.64400,0.11187
4001.57247,0.10886
4003.50094,0.10556
4005.42941,0.10408
4007.35787,0.10536
4009.28634,0.10489
4011.21481,0.10246
4013.14328,0.10237
4015.07175,0.10288
4017.00022,0.10208
4018.92869,0.10049
4020.85715,0.09975
4022.78562,0.09929
4024.71409,0.09745
4026.64256,0.09836
4028.57103,0.10295
4030.49950,0.10508
4032.42797,0.10370
4034.35644,0.10232
4036.28490,0.10053
4038.21337,0.09724
4040.14184,0.09531
4042.07031,0.09824
4043.99878,0.10416
4045.92725,0.10591
4047.85572,0.10238
4049.78418,0.09917
4051.71265,0.09889
4053.64112,0.10062
4055.56959,0.10223
4057.49806,0.10189
4059.42653,0.09917
4061.35500,0.09805
4063.28346,0.10081
4065.21193,0.10150
4067.14040,0.09816
4069.06887,0.09580
4070.99734,0.09669
4072.92581,0.09659
4074.85428,0.09285
4076.78275,0.08996
4078.71121,0.08920
4080.63968,0.08929
4082.56815,0.09069
4084.49662,0.09097
4086.42509,0.08714
4088.35356,0.08189
4090.28203,0.08004
4092.21049,0.08347
4094.13896,0.09105
4096.06743,0.09544
4097.99590,0.09353
4099.92437,0.09074
4101.85284,0.08841
4103.78131,0.08694
4105.70978,0.09053
4107.63824,0.09477
4109.56671,0.09058
4111.49518,0.08479
4113.42365,0.08455
4115.35212,0.08680
4117.28059,0.09172
4119.20906,0.09686
4121.13752,0.09786
4123.06599,0.09374
4124.99446,0.08733
4126.92293,0.08507
4128.85140,0.08842
4130.77987,0.09208
4132.70834,0.09206
4134.63681,0.08870
4136.56527,0.08328
4138.49374,0.08018
4140.42221,0.08186
4142.35068,0.08285
4144.27915,0.08297
4146.20762,0.08631
4148.13609,0.08994
4150.06455,0.09066
4151.99302,0.08735
4153.92149,0.08100
4155.84996,0.07834
4157.77843,0.08147
4159.70690,0.08466
4161.63537,0.08477
4163.56384,0.08321
4165.49230,0.08175
4167.42077,0.07959
4169.34924,0.07466
4171.27771,0.06777
4173.20618,0.06451
4175.13465,0.06864
4177.06312,0.07647
4178.99158,0.08284
4180.92005,0.08396
4182.84852,0.08078
4184.77699,0.07769
4186.70546,0.07538
4188.63393,0.07503
4190.56240,0.07651
4192.49087,0.07763
4194.41933,0.07774
4196.34780,0.07599
4198.27627,0.07430
4200.20474,0.07410
4202.13321,0.07393
4204.06168,0.07213
4205.99015,0.06906
4207.91861,0.06750
4209.84708,0.06711
4211.77555,0.06482
4213.70402,0.06193
4215.63249,0.06408
4217.56096,0.06790
4219.48943,0.06650
4221.41789,0.06534
4223.34636,0.06915
4225.27483,0.07245
4227.20330,0.07145
4229.13177,0.06965
4231.06024,0.06867
4232.98871,0.06650
4234.91718,0.06267
4236.84564,0.05888
4238.77411,0.05998
4240.70258,0.06728
4242.63105,0.07460
4244.55952,0.07533
4246.48799,0.07009
4248.41646,0.06605
4250.34492,0.06841
4252.27339,0.07199
4254.20186,0.06575
4256.13033,0.05675
4258.05880,0.05712
4259.98727,0.06012
4261.91574,0.06094
4263.84421,0.05925
4265.77267,0.05475
4267.70114,0.05353
4269.62961,0.05827
4271.55808,0.06309
4273.48655,0.06179
4275.41502,0.05697
4277.34349,0.05283
4279.27195,0.04910
4281.20042,0.04732
4283.12889,0.05067
4285.05736,0.05720
4286.98583,0.06131
4288.91430,0.06243
4290.84277,0.06047
4292.77124,0.05560
4294.69970,0.05125
4296.62817,0.04979
4298.55664,0.05155
4300.48511,0.05437
4302.41358,0.05498
4304.34205,0.05193
4306.27052,0.04977
4308.19898,0.05043
4310.12745,0.05059
4312.05592,0.05090
4313.98439,0.05235
4315.91286,0.05254
4317.84133,0.04930
4319.76980,0.04667
4321.69827,0.04562
4323.62673,0.04309
4325.55520,0.04182
4327.48367,0.04324
4329.41214,0.04466
4331.34061,0.04506
4333.26908,0.04540
4335.19755,0.04192
4337.12601,0.03563
4339.05448,0.03484
4340.98295,0.03914
4342.91142,0.04440
4344.83989,0.04575
4346.76836,0.04136
4348.69683,0.03617
4350.62530,0.03041
4352.55376,0.02389
4354.48223,0.02255
4356.41070,0.02648
4358.33917,0.03116
4360.26764,0.03568
4362.19611,0.03597
4364.12458,0.03213
4366.05304,0.03009
4367.98151,0.02991
4369.90998,0.02818
4371.83845,0.02424
4373.76692,0.02266
4375.69539,0.02494
4377.62386,0.02782
4379.55232,0.03163
4381.48079,0.03744
4383.40926,0.03993
4385.33773,0.03363
4387.26620,0.02567
4389.19467,0.02292
4391.12314,0.02295
4393.05161,0.02435
4394.98007,0.02338
4396.90854,0.01823
4398.83701,0.01719
4400.76548,0.02476
4402.69395,0.03189
4404.62242,0.03060
4406.55089,0.02650
4408.47935,0.02356
4410.40782,0.01882
4412.33629,0.01486
4414.26476,0.01469
4416.19323,0.01624
4418.12170,0.01908
4420.05017,0.02335
4421.97864,0.02624
4423.90710,0.02625
4425.83557,0.02229
4427.76404,0.01507
4429.69251,0.01273
4431.62098,0.01855
4433.54945,0.02506
4435.47792,0.02684
4437.40638,0.02529
4439.33485,0.02316
4441.26332,0.02187
4443.19179,0.02231
4445.12026,0.02403
4447.04873,0.02490
4448.97720,0.02241
4450.90567,0.01703
4452.83413,0.01159
4454.76260,0.00824
4456.69107,0.00872
4458.61954,0.01250
4460.54801,0.01549
4462.47648,0.01330
4464.40495,0.00768
4466.33341,0.00437
4468.26188,0.00619
4470.19035,0.01107
4472.11882,0.01403
4474.04729,0.01427
4475.97576,0.01251
4477.90423,0.00798
4479.83270,0.00619
4481.76116,0.01238
4483.68963,0.01924
4485.61810,0.02086
4487.54657,0.02097
4489.47504,0.01889
4491.40351,0.01482
4493.33198,0.01272
4495.26044,0.01237
4497.18891,0.01198
4499.11738,0.01011
4501.04585,0.00809
4502.97432,0.00684
4504.90279,0.00506
4506.83126,0.00459
4508.75973,0.00828
4510.68819,0.01347
4512.61666,0.01245
4514.54513,0.00315
4516.47360,-0.00647
4518.40207,-0.00819
4520.33054,-0.00565
4522.25901,-0.00398
4524.18747,0.00152
4526.11594,0.00766
4528.04441,0.00436
4529.97288,-0.00599
4531.90135,-0.01114
4533.82982,-0.00576
4535.75829,0.00386
4537.68676,0.01029
4539.61522,0.01181
4541.54369,0.01169
4543.47216,0.01048
4545.40063,0.00681
4547.32910,0.00294
4549.25757,0.00091
4551.18604,0.00227
4553.11450,0.00588
4555.04297,0.00827
4556.97144,0.00973
4558.89991,0.01069
4560.82838,0.00902
4562.75685,0.00700
4564.68532,0.00609
4566.61378,0.00310
4568.54225,0.00072
4570.47072,0.00348
4572.39919,0.00792
4574.32766,0.00548
4576.25613,-0.00124
4578.18460,-0.00673
4580.11307,-0.01037
4582.04153,-0.00699
4583.97000,0.00315
4585.89847,0.01140
4587.82694,0.01322
4589.75541,0.00967
4591.68388,0.00329
4593.61235,-0.00152
4595.54081,-0.00432
4597.46928,-0.00314
4599.39775,0.00271
4601.32622,0.00559
4603.25469,0.00142
4605.18316,-0.00433
4607.11163,-0.00208
4609.04010,0.00327
4610.96856,0.00309
4612.89703,0.00011
4614.82550,-0.00267
4616.75397,-0.00043
4618.68244,0.00568
4620.61091,0.00756
4622.53938,0.00980
4624.46784,0.01796
4626.39631,0.02294
4628.32478,0.01887
4630.25325,0.01033
4632.18172,0.00116
4634.11019,-0.00488
4636.03866,-0.00454
4637.96713,0.00232
4639.89559,0.01010
4641.82406,0.01184
4643.75253,0.00792
4645.68100,0.00066
4647.60947,-0.00771
4649.53794,-0.01007
4651.46641,-0.00107
4653.39487,0.00991
4655.32334,0.01235
4657.25181,0.01132
4659.18028,0.01023
4661.10875,0.00471
4663.03722,-0.00275
4664.96569,-0.00657
4666.89416,-0.00645
4668.82262,-0.00391
4670.75109,-0.00140
4672.67956,0.00146
4674.60803,0.00743
4676.53650,0.01290
4678.46497,0.01524
4680.39344,0.01322
4682.32190,0.00620
4684.25037,0.00189
4686.17884,0.00370
4688.10731,0.00684
4690.03578,0.01206
4691.96425,0.01729
4693.89272,0.01417
4695.82119,0.01209
4697.74965,0.01621
4699.67812,0.01308
4701.60659,0.00638
4703.53506,0.00171
4705.46353,-0.00255
4707.39200,-0.00045
4709.32047,0.00286
4711.24893,-0.00007
4713.17740,-0.00281
4715.10587,-0.00202
4717.03434,0.00087
4718.96281,0.00498
4720.89128,0.00452
4722.81975,0.00367
4724.74821,0.00675
4726.67668,0.00333
4728.60515,-0.00063
4730.53362,0.00422
4732.46209,0.00821
4734.39056,0.01061
4736.31903,0.01614
4738.24750,0.01751
4740.17596,0.01207
4742.10443,0.00418
4744.03290,-0.00429
4745.96137,-0.01059
4747.88984,-0.01076
4749.81831,-0.00542
4751.74678,-0.00128
4753.67524,-0.00132
4755.60371,-0.00352
4757.53218,-0.00739
4759.46065,-0.00860
4761.38912,-0.00335
4763.31759,0.00128
4765.24606,0.00009
4767.17453,-0.00074
4769.10299,0.00393
4771.03146,0.00860
4772.95993,0.00907
4774.88840,0.00957
4776.81687,0.01093
4778.74534,0.01261
4780.67381,0.01208
4782.60227,0.00944
4784.53074,0.01260
4786.45921,0.01390
4788.38768,0.00461
4790.31615,-0.00175
4792.24462,0.00127
4794.17309,0.00459
4796.10156,0.00568
4798.03002,0.00595
4799.95849,0.00349
4801.88696,0.00031
4803.81543,0.00074
4805.74390,0.00327
4807.67237,0.00434
4809.60084,0.00687
4811.52930,0.01007
4813.45777,0.00721
4815.38624,-0.00005
4817.31471,0.00093
4819.24318,0.01243
4821.17165,0.01754
4823.10012,0.01126
4825.02859,0.00598
4826.95705,0.00654
4828.88552,0.00657
4830.81399,0.00215
4832.74246,-0.00106
4834.67093,-0.00018
4836.59940,-0.00103
4838.52787,-0.00726
4840.45633,-0.01084
4842.38480,-0.00585
4844.31327,0.00116
4846.24174,0.00555
4848.17021,0.00654
4850.09868,0.00764
4852.02715,0.01060
4853.95562,0.01126
4855.88408,0.01334
4857.81255,0.01859
4859.74102,0.01629
4861.66949,0.00522
4863.59796,-0.00203
4865.52643,-0.00352
4867.45490,-0.00371
4869.38336,-0.00358
4871.31183,-0.00266
4873.24030,0.00301
4875.16877,0.00832
4877.09724,0.00540
4879.02571,0.00193
4880.95418,0.00546
4882.88265,0.00776
4884.81111,0.00491
4886.73958,0.00482
4888.66805,0.00618
4890.59652,0.00703
4892.52499,0.01226
4894.45346,0.02095
4896.38193,0.02761
4898.31039,0.02423
4900.23886,0.01140
4902.16733,0.00262
4904.09580,0.00735
4906.02427,0.01511
4907.95274,0.01419
4909.88121,0.00797
4911.80967,-0.00603
4913.73814,-0.01561
4915.66661,-0.00678
4917.59508,0.00335
4919.52355,-0.00118
4921.45202,-0.01007
4923.38049,-0.01682
4925.30896,-0.02065
4927.23742,-0.00863
4929.16589,0.01259
4931.09436,0.02318
4933.02283,0.02012
4934.95130,0.01239
4936.87977,0.00281
4938.80824,-0.00855
4940.73670,-0.01755
4942.66517,-0.02348
4944.59364,-0.02279
4946.52211,-0.01385
4948.45058,-0.00283
4950.37905,0.00316
4952.30752,0.00274
4954.23599,0.00108
4956.16445,-0.00146
4958.09292,-0.00365
4960.02139,-0.00090
4961.94986,0.00681
4963.87833,0.01139
4965.80680,0.00706
4967.73527,0.00213
4969.66373,0.00167
4971.59220,0.00259
4973.52067,0.00531
4975.44914,0.00869
4977.37761,0.01054
4979.30608,0.01381
4981.23455,0.01770
4983.16302,0.01888
4985.09148,0.02186
4987.01995,0.02477
4988.94842,0.02493
4990.87689,0.02147
4992.80536,0.00918
4994.73383,-0.00492
4996.66230,-0.00856
4998.59076,-0.00171
5000.51923,0.00388
5002.44770,0.00431
5004.37617,0.00725
5006.30464,0.01168
5008.23311,0.01400
5010.16158,0.00976
5012.09005,0.00107
5014.01851,-0.00157
5015.94698,-0.00195
5017.87545,-0.00291
5019.80392,-0.00052
5021.73239,-0.00153
5023.66086,-0.00873
5025.58933,-0.01086
5027.51779,-0.00224
5029.44626,0.00760
5031.37473,0.01313
5033.30320,0.01707
5035.23167,0.01633
5037.16014,0.00842
5039.08861,-0.00038
5041.01708,-0.00320
5042.94554,0.00059
5044.87401,0.00564
5046.80248,0.00355
5048.73095,-0.00431
5050.65942,-0.00567
5052.58789,0.00151
5054.51636,0.00592
5056.44482,0.00782
5058.37329,0.01565
5060.30176,0.02531
5062.23023,0.02890
5064.15870,0.02133
5066.08717,0.00618
5068.01564,-0.00138
5069.94410,0.00653
5071.87257,0.01814
5073.80104,0.01767
5075.72951,0.01280
5077.65798,0.01501
5079.58645,0.02367
5081.51492,0.03140
5083.44339,0.02515
5085.37185,0.01338
5087.30032,0.01228
5089.22879,0.01708
5091.15726,0.01973
5093.08573,0.02203
5095.01420,0.02399
5096.94267,0.02121
5098.87113,0.01734
5100.79960,0.01510
5102.72807,0.01031
5104.65654,0.00830
5106.58501,0.01600
5108.51348,0.02767
5110.44195,0.03557
5112.37042,0.03700
5114.29888,0.03123
5116.22735,0.02313
5118.15582,0.02288
5120.08429,0.03017
5122.01276,0.03135
5123.94123,0.02546
5125.86970,0.02040
5127.79816,0.01943
5129.72663,0.02779
5131.65510,0.03772
5133.58357,0.03983
5135.51204,0.04049
5137.44051,0.03970
5139.36898,0.03150
5141.29745,0.02381
5143.22591,0.03399
5145.15438,0.05566
5147.08285,0.06294
5149.01132,0.04834
5150.93979,0.02727
5152.86826,0.02554
5154.79673,0.03505
5156.72519,0.03050
5158.65366,0.02572
5160.58213,0.02860
5162.51060,0.03110
5164.43907,0.03250
5166.36754,0.03190
5168.29601,0.03814
5170.22448,0.04756
5172.15294,0.04478
5174.08141,0.03368
5176.00988,0.02724
5177.93835,0.02956
5179.86682,0.03283
5181.79529,0.03102
5183.72376,0.02624
5185.65222,0.01859
5187.58069,0.01073
5189.50916,0.00907
5191.43763,0.01208
5193.36610,0.01628
5195.29457,0.02033
5197.22304,0.02157
5199.15151,0.01877
5201.07997,0.01402
5203.00844,0.01410
5204.93691,0.02484
5206.86538,0.03945
5208.79385,0.03710
5210.72232,0.02228
5212.65079,0.01812
5214.57925,0.02161
5216.50772,0.01823
5218.43619,0.01141
5220.36466,0.01517
5222.29313,0.02987
5224.22160,0.03939
5226.15007,0.02998
5228.07854,0.01581
5230.00700,0.02300
5231.93547,0.03638
5233.86394,0.03112
5235.79241,0.02747
5237.72088,0.04175
5239.64935,0.05134
5241.57782,0.04578
5243.50628,0.04678
5245.43475,0.06026
5247.36322,0.07134
5249.29169,0.07333
5251.22016,0.06475
5253.14863,0.04950
5255.07710,0.03136
5257.00556,0.01668
5258.93403,0.01320
5260.86250,0.02234
5262.79097,0.03463
5264.71944,0.04324
5266.64791,0.05166
5268.57638,0.05393
5270.50485,0.04863
5272.43331,0.04314
5274.36178,0.04036
5276.29025,0.04224
5278.21872,0.04462
5280.14719,0.04052
5282.07566,0.03511
5284.00413,0.03690
5285.93259,0.03591
5287.86106,0.02357
5289.78953,0.01480
5291.71800,0.01744
5293.64647,0.01368
5295.57494,0.00663
5297.50341,0.01930
5299.43188,0.03618
5301.36034,0.03564
5303.28881,0.03852
5305.21728,0.05055
5307.14575,0.05024
5309.07422,0.04464
5311.00269,0.05073
5312.93116,0.05067
5314.85962,0.03616
5316.78809,0.02709
5318.71656,0.03213
5320.64503,0.04278
5322.57350,0.04386
5324.50197,0.03532
5326.43044,0.03641
5328.35891,0.04886
5330.28737,0.05823
5332.21584,0.06247
5334.14431,0.06422
5336.07278,0.06033
5338.00125,0.05935
5339.92972,0.06995
5341.85819,0.07693
5343.78665,0.07303
5345.71512,0.06238
5347.64359,0.04945
5349.57206,0.04118
5351.50053,0.03999
5353.42900,0.03945
5355.35747,0.04765
5357.28594,0.06309
5359.21440,0.06137
5361.14287,0.05123
5363.07134,0.05623
5364.99981,0.06544
5366.92828,0.06377
5368.85675,0.05319
5370.78522,0.03822
5372.71368,0.02516
5374.64215,0.02466
5376.57062,0.04634
5378.49909,0.07202
5380.42756,0.07299
5382.35603,0.05589
5384.28450,0.04398
5386.21297,0.05251
5388.14143,0.06981
5390.06990,0.07037
5391.99837,0.06560
5393.92684,0.07092
5395.85531,0.05838
5397.78378,0.03014
5399.71225,0.02389
5401.64071,0.03863
5403.56918,0.05080
5405.49765,0.05284
5407.42612,0.04683
5409.35459,0.04168
5411.28306,0.04891
5413.21153,0.06187
5415.13999,0.06208
5417.06846,0.04962
5418.99693,0.03928
5420.92540,0.04167
5422.85387,0.06308
5424.78234,0.09345
5426.71081,0.10524
5428.63928,0.10108
5430.56774,0.09815
5432.49621,0.08240
5434.42468,0.05714
5436.35315,0.04607
5438.28162,0.05128
5440.21009,0.06272
5442.13856,0.07047
5444.06702,0.07473
5445.99549,0.07696
5447.92396,0.06667
5449.85243,0.05121
5451.78090,0.05277
5453.70937,0.06750
5455.63784,0.07480
5457.56631,0.06654
5459.49477,0.06022
5461.42324,0.06702
5463.35171,0.07029
5465.28018,0.06187
5467.20865,0.05496
5469.13712,0.06388
5471.06559,0.08295
5472.99405,0.08912
5474.92252,0.08001
5476.85099,0.07545
5478.77946,0.07565
5480.70793,0.06631
5482.63640,0.05518
5484.56487,0.05428
5486.49334,0.05937
5488.42180,0.06393
5490.35027,0.06148
5492.27874,0.05717
5494.20721,0.06319
5496.13568,0.06915
5498.06415,0.06615
5499.99262,0.06881
5501.92108,0.07949
5503.84955,0.07739
5505.77802,0.06497
5507.70649,0.05432
5509.63496,0.04648
5511.56343,0.04916
5513.49190,0.06427
5515.42037,0.07853
5517.34883,0.08378
5519.27730,0.08642
5521.20577,0.08304
5523.13424,0.06254
5525.06271,0.04357
5526.99118,0.05882
5528.91965,0.09710
5530.84811,0.10310
5532.77658,0.06973
5534.70505,0.04066
5536.63352,0.02717
5538.56199,0.02662
5540.49046,0.04226
5542.41893,0.06845
5544.34740,0.09776
5546.27586,0.10596
5548.20433,0.08081
5550.13280,0.06022
5552.06127,0.05785
5553.98974,0.05447
5555.91821,0.05274
5557.84668,0.05087
5559.77514,0.03245
5561.70361,0.00934
5563.63208,0.00930
5565.56055,0.02214
5567.48902,0.02524
5569.41749,0.02760
5571.34596,0.04041
5573.27443,0.06879
5575.20289,0.09807
5577.13136,0.09962
5579.05983,0.07880
5580.98830,0.07322
5582.91677,0.09562
5584.84524,0.09885
5586.77371,0.06982
5588.70217,0.04935
5590.63064,0.05426
5592.55911,0.07053
5594.48758,0.08234
5596.41605,0.08458
5598.34452,0.08072
5600.27299,0.07173
5602.20145,0.05788
5604.12992,0.05337
5606.05839,0.07239
5607.98686,0.09525
5609.91533,0.08914
5611.84380,0.05256
5613.77227,0.02510
5615.70074,0.02892
5617.62920,0.04185
5619.55767,0.05358
5621.48614,0.07192
5623.41461,0.08861
5625.34308,0.08806
5627.27155,0.07708
5629.20002,0.07230
5631.12848,0.07610
5633.05695,0.08325
5634.98542,0.08439
5636.91389,0.08243
5638.84236,0.08679
5640.77083,0.08842
5642.69930,0.08628
5644.62777,0.09150
5646.55623,0.09096
5648.48470,0.07482
5650.41317,0.07482
5652.34164,0.10129
5654.27011,0.11148
5656.19858,0.09536
5658.12705,0.09160
5660.05551,0.10665
5661.98398,0.11766
5663.91245,0.11085
5665.84092,0.08234
5667.76939,0.05166
5669.69786,0.04662
5671.62633,0.07401
5673.55480,0.11025
5675.48326,0.12266
5677.41173,0.10870
5679.34020,0.10164
5681.26867,0.10841
5683.19714,0.09390
5685.12561,0.06422
5687.05408,0.06053
5688.98254,0.08143
5690.91101,0.09237
5692.83948,0.07931
5694.76795,0.06772
5696.69642,0.07787
5698.62489,0.08252
5700.55336,0.06475
5702.48183,0.04764
5704.41029,0.04212
5706.33876,0.04517
5708.26723,0.06323
5710.19570,0.08720
5712.12417,0.08830
5714.05264,0.08061
5715.98111,0.09518
5717.90957,0.10382
5719.83804,0.07954
5721.76651,0.05163
5723.69498,0.05414
5725.62345,0.07337
5727.55192,0.08465
5729.48039,0.09519
5731.40886,0.10537
5733.33732,0.10325
5735.26579,0.09810
5737.19426,0.09938
5739.12273,0.09715
5741.05120,0.09063
5742.97967,0.07753
5744.90814,0.06819
5746.83660,0.08295
5748.76507,0.09444
5750.69354,0.06754
5752.62201,0.02618
5754.55048,0.02229
5756.47895,0.05334
5758.40742,0.07038
5760.33588,0.06462
5762.26435,0.06281
5764.19282,0.07233
5766.12129,0.08088
5768.04976,0.08459
5769.97823,0.08340
5771.90670,0.08059
5773.83517,0.08728
5775.76363,0.09864
5777.69210,0.09448
5779.62057,0.07307
5781.54904,0.05629
5783.47751,0.05585
5785.40598,0.08390
5787.33445,0.12692
5789.26291,0.12079
5791.19138,0.06460
5793.11985,0.03370
5795.04832,0.04927
5796.97679,0.06433
5798.90526,0.05925
5800.83373,0.06618
5802.76220,0.09973
5804.69066,0.12286
5806.61913,0.10713
5808.54760,0.07849
5810.47607,0.06388
5812.40454,0.07396
5814.33301,0.10343
5816.26148,0.12106
5818.18994,0.11475
5820.11841,0.10053
5822.04688,0.08684
5823.97535,0.07914
5825.90382,0.08090
5827.83229,0.08000
5829.76076,0.07253
5831.68923,0.08232
5833.61769,0.11280
5835.54616,0.12710
5837.47463,0.10135
5839.40310,0.06132
5841.33157,0.06053
5843.26004,0.08752
5845.18851,0.08810
5847.11697,0.08829
5849.04544,0.12543
5850.97391,0.15619
5852.90238,0.16070
5854.83085,0.15107
5856.75932,0.11608
5858.68779,0.08301
5860.61626,0.08278
5862.54472,0.09510
5864.47319,0.08919
5866.40166,0.07812
5868.33013,0.09846
5870.25860,0.11558
5872.18707,0.09872
5874.11554,0.08421
5876.04400,0.08269
5877.97247,0.06760
5879.90094,0.04313
5881.82941,0.04328
5883.75788,0.06590
5885.68635,0.08713
5887.61482,0.10099
5889.54329,0.09710
5891.47175,0.07810
5893.40022,0.06469
5895.32869,0.05745
5897.25716,0.04909
5899.18563,0.03858
5901.11410,0.03304
5903.04257,0.06185
5904.97103,0.10671
5906.89950,0.10532
5908.82797,0.06257
5910.75644,0.02561
5912.68491,0.00906
5914.61338,0.02169
5916.54185,0.06148
5918.47032,0.09211
5920.39878,0.09857
5922.32725,0.10079
5924.25572,0.10066
5926.18419,0.09462
5928.11266,0.09364
5930.04113,0.10154
5931.96960,0.10198
5933.89806,0.08070
5935.82653,0.05393
5937.75500,0.05137
5939.68347,0.08480
5941.61194,0.12941
5943.54041,0.13836
5945.46888,0.11992
5947.39734,0.11872
5949.32581,0.13367
5951.25428,0.13433
5953.18275,0.11548
5955.11122,0.09114
5957.03969,0.06227
5958.96816,0.02874
5960.89663,0.01416
5962.82509,0.02766
5964.75356,0.05319
5966.68203,0.08545
5968.61050,0.11052
5970.53897,0.11082
5972.46744,0.09111
5974.39591,0.05850
5976.32437,0.03574
5978.25284,0.03718
5980.18131,0.04402
5982.10978,0.05066
5984.03825,0.05916
5985.96672,0.05901
5987.89519,0.05826
5989.82366,0.06844
5991.75212,0.05933
5993.68059,0.02114
5995.60906,0.00749
5997.53753,0.03281
5999.46600,0.04819
6001.39447,0.04888
6003.32294,0.06033
6005.25140,0.06808
6007.17987,0.05970
6009.10834,0.04034
6011.03681,0.01499
6012.96528,0.01783
6014.89375,0.03919
6016.82222,0.04315
6018.75069,0.05481
6020.67915,0.08854
6022.60762,0.11959
6024.53609,0.13764
6026.46456,0.14533
6028.39303,0.15119
6030.32150,0.14659
6032.24997,0.11961
6034.17843,0.08614
6036.10690,0.06334
6038.03537,0.04391
6039.96384,0.02791
6041.89231,0.02029
6043.82078,0.01793
6045.74925,0.02942
6047.67772,0.05420
6049.60618,0.07731
6051.53465,0.08968
6053.46312,0.09067
6055.39159,0.08399
6057.32006,0.07603
6059.24853,0.06914
6061.17700,0.05643
6063.10546,0.05416
6065.03393,0.07436
6066.96240,0.08260
6068.89087,0.06758
6070.81934,0.07004
6072.74781,0.10145
6074.67628,0.11703
6076.60475,0.09844
6078.53321,0.06061
6080.46168,0.03961
6082.39015,0.06121
6084.31862,0.08884
6086.24709,0.09345
6088.17556,0.09306
6090.10403,0.09914
6092.03249,0.08168
6093.96096,0.03825
6095.88943,0.02895
6097.81790,0.07455
6099.74637,0.11051
6101.67484,0.08503
6103.60331,0.04558
6105.53177,0.03919
6107.46024,0.06099
6109.38871,0.09592
6111.31718,0.11428
6113.24565,0.10105
6115.17412,0.08134
6117.10259,0.06923
6119.03106,0.05385
6120.95952,0.05065
6122.88799,0.07404
6124.81646,0.12416
6126.74493,0.17426
6128.67340,0.17745
6130.60187,0.15443
6132.53034,0.12727
6134.45880,0.08275
6136.38727,0.04332
6138.31574,0.04815
6140.24421,0.07985
6142.17268,0.08823
6144.10115,0.07511
6146.02962,0.05731
6147.95809,0.05304
6149.88655,0.08095
6151.81502,0.11648
6153.74349,0.12955
6155.67196,0.12763
6157.60043,0.11792
6159.52890,0.08918
6161.45737,0.05680
6163.38583,0.05944
6165.31430,0.08869
6167.24277,0.09384
6169.17124,0.07897
6171.09971,0.08772
6173.02818,0.09920
6174.95665,0.07530
6176.88512,0.03385
6178.81358,0.00637
6180.74205,0.02093
6182.67052,0.06100
6184.59899,0.09019
6186.52746,0.11611
6188.45593,0.12549
6190.38440,0.09988
6192.31286,0.07753
6194.24133,0.07047
6196.16980,0.04394
6198.09827,0.01112
6200.02674,0.01154
6201.95521,0.01266
6203.88368,0.01161
6205.81215,0.06275
6207.74061,0.11008
6209.66908,0.06634
6211.59755,-0.00962
6213.52602,-0.02200
6215.45449,0.01807
6217.38296,0.05767
6219.31143,0.07058
6221.23989,0.08848
6223.16836,0.10892
6225.09683,0.10907
6227.02530,0.11762
6228.95377,0.13792
6230.88224,0.15349
6232.81071,0.15812
6234.73918,0.16524
6236.66764,0.17632
6238.59611,0.15213
6240.52458,0.11153
6242.45305,0.10716
6244.38152,0.11107
6246.30999,0.07594
6248.23846,0.03713
6250.16692,0.07191
6252.09539,0.15666
6254.02386,0.18368
6255.95233,0.16556
6257.88080,0.16597
6259.80927,0.14625
6261.73774,0.09605
6263.66621,0.06865
6265.59467,0.06271
6267.52314,0.07423
6269.45161,0.10810
6271.38008,0.13950
6273.30855,0.16166
6275.23702,0.17529
6277.16549,0.15896
6279.09395,0.12177
6281.02242,0.11818
6282.95089,0.12733
6284.87936,0.09397
6286.80783,0.06589
6288.73630,0.09201
6290.66477,0.12849
6292.59323,0.12027
6294.52170,0.07962
6296.45017,0.04078
6298.37864,0.03326
6300.30711,0.05671
6302.23558,0.07354
6304.16405,0.07348
6306.09252,0.07335
6308.02098,0.06869
6309.94945,0.06075
6311.87792,0.07228
6313.80639,0.09639
6315.73486,0.11133
6317.66333,0.10108
6319.59180,0.07934
6321.52026,0.09975
6323.44873,0.13301
6325.37720,0.12278
6327.30567,0.09862
6329.23414,0.10873
6331.16261,0.14627
6333.09108,0.14911
6335.01955,0.11119
6336.94801,0.07758
6338.87648,0.05757
6340.80495,0.05748
6342.73342,0.08969
6344.66189,0.13391
6346.59036,0.16982
6348.51883,0.18775
6350.44729,0.16495
6352.37576,0.13124
6354.30423,0.13429
6356.23270,0.15423
6358.16117,0.15232
6360.08964,0.12110
6362.01811,0.09983
6363.94658,0.10244
6365.87504,0.09824
6367.80351,0.08994
6369.73198,0.08337
6371.66045,0.05573
6373.58892,0.03492
6375.51739,0.06478
6377.44586,0.11268
6379.37432,0.13077
6381.30279,0.11212
6383.23126,0.06605
6385.15973,0.02046
6387.08820,0.00410
6389.01667,0.01581
6390.94514,0.04970
6392.87361,0.07556
6394.80207,0.05306
6396.73054,0.00384
6398.65901,-0.04583
6400.58748,-0.06394
6402.51595,-0.00791
6404.44442,0.07575
6406.37289,0.10869
6408.30135,0.09694
6410.22982,0.07813
6412.15829,0.06771
6414.08676,0.08085
6416.01523,0.08248
6417.94370,0.04800
6419.87217,0.03713
6421.80064,0.07725
6423.72910,0.11950
6425.65757,0.10351
6427.58604,0.04778
6429.51451,0.02996
6431.44298,0.06111
6433.37145,0.10252
6435.29992,0.11928
6437.22838,0.07568
6439.15685,-0.00548
6441.08532,-0.04176
6443.01379,-0.01869
6444.94226,0.01711
6446.87073,0.05293
6448.79920,0.07422
6450.72766,0.03750
6452.65613,-0.01616
6454.58460,-0.01915
6456.51307,0.01006
6458.44154,0.04521
6460.37001,0.08325
6462.29848,0.10268
6464.22695,0.10899
6466.15541,0.10531
6468.08388,0.07560
6470.01235,0.04883
6471.94082,0.04387
6473.86929,0.06000
6475.79776,0.09278
6477.72623,0.09493
6479.65469,0.06379
6481.58316,0.03882
6483.51163,0.01360
6485.44010,-0.01021
6487.36857,0.00083
6489.29704,0.04067
6491.22551,0.05476
6493.15398,0.02509
6495.08244,0.00448
6497.01091,0.01864
6498.93938,0.04208
6500.86785,0.06391
6502.79632,0.06917
6504.72479,0.04410
6506.65326,0.02048
6508.58172,0.01378
6510.51019,0.00903
6512.43866,0.00745
6514.36713,0.01823
6516.29560,0.02570
6518.22407,0.01646
6520.15254,0.00538
6522.08101,-0.00602
6524.00947,-0.01160
6525.93794,-0.00753
6527.86641,0.00604
6529.79488,0.04961
6531.72335,0.08258
6533.65182,0.07445
6535.58029,0.06767
6537.50875,0.06748
6539.43722,0.06578
6541.36569,0.07746
6543.29416,0.09314
6545.22263,0.09877
6547.15110,0.06403
6549.07957,-0.02689
6551.00804,-0.07568
6552.93650,-0.02345
6554.86497,0.05024
6556.79344,0.09083
6558.72191,0.07965
6560.65038,0.04264
6562.57885,0.02952
6564.50732,0.03996
6566.43578,0.04683
6568.36425,0.03785
6570.29272,0.03668
6572.22119,0.04268
6574.14966,0.04354
6576.07813,0.07512
6578.00660,0.12971
6579.93507,0.14621
6581.86353,0.12080
6583.79200,0.09690
6585.72047,0.08126
6587.64894,0.06951
6589.57741,0.08316
6591.50588,0.10396
6593.43435,0.10015
6595.36281,0.08082
6597.29128,0.06836
6599.21975,0.04811
6601.14822,0.01704
6603.07669,0.02302
6605.00516,0.06192
6606.93363,0.09926
6608.86210,0.11118
6610.79056,0.10152
6612.71903,0.08673
6614.64750,0.05994
6616.57597,0.04614
6618.50444,0.05416
6620.43291,0.04134
6622.36138,0.00034
6624.28984,-0.00751
6626.21831,0.04435
6628.14678,0.08021
6630.07525,0.06312
6632.00372,0.05051
6633.93219,0.07146
6635.86066,0.09770
6637.78912,0.07922
6639.71759,0.03388
6641.64606,0.02926
6643.57453,0.08182
6645.50300,0.15459
6647.43147,0.17155
6649.35994,0.08548
6651.28841,0.00216
6653.21687,0.01687
6655.14534,0.07734
6657.07381,0.07109
6659.00228,0.00897
6660.93075,0.02802
6662.85922,0.10772
6664.78769,0.12320
6666.71615,0.05530
6668.64462,-0.00870
6670.57309,0.00283
6672.50156,0.06237
6674.43003,0.09637
6676.35850,0.07581
6678.28697,0.06346
6680.21544,0.08565
6682.14390,0.04961
6684.07237,-0.05924
6686.00084,-0.10604
6687.92931,-0.04283
6689.85778,0.02606
6691.78625,0.03153
6693.71472,0.00304
6695.64318,-0.00876
6697.57165,0.03535
6699.50012,0.09691
6701.42859,0.11813
6703.35706,0.09358
6705.28553,0.05017
6707.21400,0.02078
6709.14247,0.02304
6711.07093,0.03399
6712.99940,0.02852
6714.92787,0.03191
6716.85634,0.06717
6718.78481,0.08490
6720.71328,0.03844
6722.64175,-0.02524
6724.57021,-0.04295
6726.49868,-0.05310
6728.42715,-0.09000
6730.35562,-0.07069
6732.28409,0.04466
6734.21256,0.13114
6736.14103,0.07856
6738.06950,-0.03809
6739.99796,-0.09038
6741.92643,-0.04318
6743.85490,0.03341
6745.78337,0.08177
6747.71184,0.09497
6749.64031,0.09008
6751.56878,0.09638
6753.49724,0.07802
6755.42571,0.05760
6757.35418,0.09474
6759.28265,0.10908
6761.21112,0.03097
6763.13959,-0.03724
6765.06806,-0.00539
6766.99653,0.09484
6768.92499,0.15060
6770.85346,0.08908
6772.78193,-0.02847
6774.71040,-0.07721
6776.63887,-0.01714
6778.56734,0.04788
6780.49581,0.05412
6782.42427,0.03908
6784.35274,0.02882
6786.28121,0.04823
6788.20968,0.11102
6790.13815,0.15165
6792.06662,0.15091
6793.99509,0.18782
6795.92355,0.22432
6797.85202,0.19667
6799.78049,0.15641
6801.70896,0.14522
6803.63743,0.16228
6805.56590,0.18190
6807.49437,0.17574
6809.42284,0.15445
6811.35130,0.12029
6813.27977,0.10089
6815.20824,0.12219
6817.13671,0.13440
6819.06518,0.12974
6820.99365,0.12883
6822.92212,0.08855
6824.85058,0.02992
6826.77905,0.04164
6828.70752,0.08948
6830.63599,0.07781
6832.56446,0.07328
6834.49293,0.14549
6836.42140,0.18188
6838.34987,0.12744
6840.27833,0.08272
6842.20680,0.05098
6844.13527,-0.00637
6846.06374,-0.04351
6847.99221,-0.03044
6849.92068,0.00265
6851.84915,0.04780
6853.77761,0.10922
6855.70608,0.16273
6857.63455,0.17984
6859.56302,0.17249
6861.49149,0.14096
6863.41996,0.10318
6865.34843,0.09822
6867.27690,0.10499
6869.20536,0.10910
6871.13383,0.12077
6873.06230,0.11512
6874.99077,0.08394
6876.91924,0.07935
6878.84771,0.12273
6880.77618,0.16311
6882.70464,0.18947
6884.63311,0.20041
6886.56158,0.10702
6888.49005,-0.04974
6890.41852,-0.07317
6892.34699,0.02933
6894.27546,0.08168
6896.20393,0.06271
6898.13239,0.02353
6900.06086,0.01795
6901.98933,0.03135
6903.91780,-0.00619
6905.84627,-0.04845
6907.77474,-0.01407
6909.70321,0.03676
6911.63167,0.04136
6913.56014,0.02961
6915.48861,0.03536
6917.41708,0.02594
6919.34555,-0.00561
6921.27402,-0.01301
6923.20249,-0.02024
6925.13096,-0.03917
6927.05942,0.00109
6928.98789,0.11323
6930.91636,0.19589
6932.84483,0.13045
6934.77330,0.00638
6936.70177,-0.00975
6938.63024,0.03613
6940.55870,-0.00558
6942.48717,-0.06643
6944.41564,0.00952
6946.34411,0.15445
6948.27258,0.24299
6950.20105,0.27151
6952.12952,0.27776
6954.05799,0.24377
6955.98645,0.13265
6957.91492,0.03064
6959.84339,0.01332
6961.77186,0.03534
6963.70033,0.05091
6965.62880,0.06351
6967.55727,0.07391
6969.48573,0.02418
6971.41420,-0.11059
6973.34267,-0.25036
6975.27114,-0.25777
6977.19961,-0.13238
6979.12808,-0.08221
6981.05655,-0.13349
6982.98501,-0.12629
6984.91348,-0.03434
6986.84195,0.02214
6988.77042,0.03293
6990.69889,0.03933
6992.62736,0.03450
6994.55583,0.02772
6996.48430,0.01472
6998.41276,0.00281
7000.34123,0.03407
7002.26970,0.07975
7004.19817,0.07671
7006.12664,0.03072
7008.05511,-0.02735
7009.98358,-0.08339
7011.91204,-0.06045
7013.84051,0.05039
7015.76898,0.09432
7017.69745,0.06646
7019.62592,0.07052
7021.55439,0.10204
7023.48286,0.09068
7025.41133,0.05347
7027.33979,0.04895
7029.26826,0.08530
7031.19673,0.13783
7033.12520,0.13371
7035.05367,0.07868
7036.98214,0.06142
7038.91061,0.05265
7040.83907,0.04174
7042.76754,0.08030
7044.69601,0.16566
7046.62448,0.29181
7048.55295,0.36643
7050.48142,0.26059
7052.40989,0.09301
7054.33836,0.06430
7056.26682,0.10509
7058.19529,0.11334
7060.12376,0.17444
7062.05223,0.16523
7063.98070,0.02118
7065.90917,-0.03153
7067.83764,0.02828
7069.76610,0.04564
7071.69457,-0.00348
7073.62304,0.00176
7075.55151,0.08010
7077.47998,0.08954
7079.40845,-0.03546
7081.33692,-0.12425
7083.26539,-0.04742
7085.19385,0.02482
7087.12232,0.02303
7089.05079,0.04740
7090.97926,0.14023
7092.90773,0.20700
7094.83620,0.16757
7096.76467,0.06876
7098.69313,0.02035
7100.62160,0.02039
7102.55007,-0.00786
7104.47854,-0.05880
7106.40701,-0.09295
7108.33548,-0.12050
7110.26395,-0.12137
7112.19242,-0.00958
7114.12088,0.13958
7116.04935,0.15090
7117.97782,0.01188
7119.90629,-0.05748
7121.83476,0.02135
7123.76323,0.08442
7125.69170,0.05849
7127.62016,-0.00885
7129.54863,-0.05059
7131.47710,-0.02628
7133.40557,0.02812
7135.33404,0.08715
7137.26251,0.16163
7139.19098,0.24134
7141.11944,0.26884
7143.04791,0.18906
7144.97638,0.03443
7146.90485,-0.08179
7148.83332,-0.08619
7150.76179,-0.01475
7152.69026,0.05214
7154.61873,0.02846
7156.54719,-0.03058
7158.47566,-0.01462
7160.40413,0.06102
7162.33260,0.13546
7164.26107,0.15564
7166.18954,0.10426
7168.11801,0.05523
7170.04647,0.03595
7171.97494,-0.02133
7173.90341,-0.06407
7175.83188,0.05759
7177.76035,0.23299
7179.68882,0.24847
7181.61729,0.18025
7183.54576,0.13292
7185.47422,0.12417
7187.40269,0.12980
7189.33116,0.05121
7191.25963,-0.10123
7193.18810,-0.14394
7195.11657,-0.10340
7197.04504,-0.04530
7198.97350,0.06405
7200.90197,0.13999
7202.83044,0.11680
7204.75891,0.10292
7206.68738,0.17798
7208.61585,0.18518
7210.54432,0.12813
7212.47279,0.11722
7214.40125,0.18212
7216.32972,0.24609
7218.25819,0.15553
7220.18666,0.01018
7222.11513,-0.04750
7224.04360,-0.02947
7225.97207,0.05135
7227.90053,0.13975
7229.82900,0.22972
7231.75747,0.21288
7233.68594,0.09221
7235.61441,0.03785
7237.54288,-0.00870
7239.47135,-0.05694
7241.39982,-0.00960
7243.32828,0.11421
7245.25675,0.17850
7247.18522,0.15965
7249.11369,0.10723
7251.04216,0.03855
7252.97063,-0.00314
7254.89910,0.01610
7256.82756,-0.00389
7258.75603,-0.09064
7260.68450,-0.19519
7262.61297,-0.18980
7264.54144,-0.05011
7266.46991,0.08954
7268.39838,0.16016
7270.32685,0.09982
7272.25531,-0.10107
7274.18378,-0.16358
7276.11225,-0.06377
7278.04072,0.03524
7279.96919,0.03280
7281.89766,-0.05834
7283.82613,-0.06388
7285.75459,0.03091
7287.68306,0.11468
7289.61153,0.13441
7291.54000,0.14554
7293.46847,0.18244
7295.39694,0.17877
7297.32541,0.17562
7299.25387,0.21597
7301.18234,0.17402
7303.11081,0.06420
7305.03928,0.06045
7306.96775,0.11453
7308.89622,0.09446
7310.82469,0.01733
7312.75316,-0.00390
7314.68162,0.05115
7316.61009,0.04766
7318.53856,-0.02114
7320.46703,0.00545
7322.39550,0.04886
7324.32397,-0.01921
7326.25244,-0.10120
7328.18090,-0.11311
7330.10937,-0.04977
7332.03784,0.03045
7333.96631,0.00670
7335.89478,-0.07874
7337.82325,-0.08417
7339.75172,0.05697
7341.68019,0.20305
7343.60865,0.22048
7345.53712,0.13039
7347.46559,0.06496
7349.39406,0.13071
7351.32253,0.19242
7353.25100,0.18562
7355.17947,0.15001
7357.10793,0.08233
7359.03640,0.03512
7360.96487,-0.01993
7362.89334,-0.08034
7364.82181,0.03446
7366.75028,0.21585
7368.67875,0.25838
7370.60722,0.19177
7372.53568,0.13789
7374.46415,0.17277
7376.39262,0.20675
7378.32109,0.14258
7380.24956,0.10500
7382.17803,0.17119
7384.10650,0.18853
7386.03496,0.01408
7387.96343,-0.10714
7389.89190,-0.00914
7391.82037,0.13367
7393.74884,0.18474
7395.67731,0.17002
7397.60578,0.15284
7399.53425,0.10778
7401.46271,0.07880
7403.39118,0.12275
7405.31965,0.18574
7407.24812,0.18974
7409.17659,0.14373
7411.10506,0.07254
7413.03353,-0.00712
7414.96199,-0.04418
7416.89046,-0.00657
7418.81893,0.04318
7420.74740,0.07953
7422.67587,0.12886
7424.60434,0.14591
7426.53281,0.13126
7428.46128,0.07295
7430.38974,-0.04009
7432.31821,-0.07637
7434.24668,-0.01650
7436.17515,0.05103
7438.10362,0.12448
7440.03209,0.19016
7441.96056,0.17941
7443.88902,0.10229
7445.81749,0.01731
7447.74596,-0.01659
7449.67443,0.06092
7451.60290,0.18107
7453.53137,0.17846
7455.45984,0.12909
7457.38831,0.12108
7459.31677,0.06973
7461.24524,0.00179
7463.17371,0.06594
7465.10218,0.13791
7467.03065,0.05676
7468.95912,-0.06999
7470.88759,-0.08796
7472.81605,-0.03559
7474.74452,-0.02242
7476.67299,0.03128
7478.60146,0.15497
7480.52993,0.14842
7482.45840,0.01206
7484.38687,-0.01098
7486.31533,0.08729
7488.24380,0.19207
7490.17227,0.21574
7492.10074,0.13931
7494.02921,0.00971
7495.95768,-0.12015
7497.88615,-0.19360
