399.19301,0.72848
401.12148,0.43466
403.04995,0.36909
404.97842,0.30939
406.90689,0.24393
408.83536,0.22099
410.76382,0.19907
412.69229,0.11867
414.62076,0.03524
416.54923,-0.06467
418.47770,-0.22936
420.40617,-0.21428
422.33464,-0.01835
424.26311,0.09542
426.19157,0.05865
428.12004,-0.00633
430.04851,0.00679
431.97698,0.09080
433.90545,0.17332
435.83392,0.20357
437.76239,0.17918
439.69085,0.13304
441.61932,0.08012
443.54779,0.05176
445.47626,0.06109
447.40473,0.08910
449.33320,0.11326
451.26167,0.08860
453.19013,0.03355
455.11860,0.00254
457.04707,-0.00104
458.97554,-0.01765
460.90401,-0.02193
462.83248,0.02936
464.76095,0.07487
466.68942,0.06040
468.61788,0.03965
470.54635,0.05827
472.47482,0.09969
474.40329,0.11374
476.33176,0.12470
478.26023,0.13910
480.18870,0.14185
482.11716,0.13569
484.04563,0.13203
485.97410,0.15300
487.90257,0.15429
489.83104,0.11353
491.75951,0.08099
493.68798,0.06746
495.61645,0.06146
497.54491,0.05449
499.47338,0.03389
501.40185,0.03492
503.33032,0.07819
505.25879,0.10126
507.18726,0.08213
509.11573,0.05259
511.04419,0.04001
512.97266,0.05277
514.90113,0.08067
516.82960,0.11379
518.75807,0.12033
520.68654,0.08320
522.61501,0.05181
524.54348,0.07024
526.47194,0.09876
528.40041,0.09975
530.32888,0.10671
532.25735,0.12507
534.18582,0.13290
536.11429,0.12691
538.04276,0.10839
539.97122,0.07285
541.89969,0.01951
543.82816,-0.01088
545.75663,0.00866
547.68510,0.03999
549.61357,0.02045
551.54204,-0.15845
553.47051,-0.36159
555.39897,-0.25763
557.32744,0.02252
559.25591,0.13186
561.18438,0.11721
563.11285,0.10254
565.04132,0.09563
566.96979,0.10756
568.89825,0.11386
570.82672,0.08899
572.75519,0.06769
574.68366,0.06987
576.61213,0.07217
578.54060,0.06789
580.46907,0.07196
582.39754,0.09081
584.32600,0.11394
586.25447,0.12154
588.18294,0.10231
590.11141,0.07488
592.03988,0.05877
593.96835,0.05758
595.89682,0.07153
597.82528,0.09117
599.75375,0.10587
601.68222,0.10700
603.61069,0.09242
605.53916,0.07935
607.46763,0.07883
609.39610,0.08193
611.32456,0.08959
613.25303,0.10374
615.18150,0.10500
617.10997,0.08741
619.03844,0.07634
620.96691,0.08624
622.89538,0.10293
624.82385,0.11316
626.75231,0.11352
628.68078,0.10856
630.60925,0.10168
632.53772,0.09007
634.46619,0.08230
636.39466,0.08772
638.32313,0.09688
640.25159,0.09180
642.18006,0.08096
644.10853,0.08738
646.03700,0.10395
647.96547,0.11032
649.89394,0.10752
651.82241,0.11030
653.75088,0.11239
655.67934,0.10462
657.60781,0.09833
659.53628,0.09589
661.46475,0.08698
663.39322,0.08070
665.32169,0.09294
667.25016,0.11555
669.17862,0.11412
671.10709,0.10251
673.03556,0.11006
674.96403,0.12525
676.89250,0.12903
678.82097,0.12084
680.74944,0.11719
682.67791,0.12692
684.60637,0.13649
686.53484,0.12944
688.46331,0.11657
690.39178,0.11483
692.32025,0.11980
694.24872,0.12304
696.17719,0.11932
698.10565,0.10741
700.03412,0.09971
701.96259,0.10768
703.89106,0.12070
705.81953,0.12089
707.74800,0.11475
709.67647,0.11453
711.60494,0.11460
713.53340,0.11476
715.46187,0.11518
717.39034,0.10756
719.31881,0.09794
721.24728,0.09373
723.17575,0.08766
725.10422,0.07999
727.03268,0.07999
728.96115,0.08583
730.88962,0.09190
732.81809,0.09773
734.74656,0.10626
736.67503,0.11910
738.60350,0.12393
740.53197,0.11418
742.46043,0.10257
744.38890,0.09980
746.31737,0.10520
748.24584,0.10804
750.17431,0.10441
752.10278,0.10508
754.03125,0.11494
755.95971,0.12331
757.88818,0.11857
759.81665,0.10524
761.74512,0.09696
763.67359,0.09535
765.60206,0.09824
767.53053,0.10765
769.45900,0.11560
771.38746,0.11661
773.31593,0.11587
775.24440,0.11398
777.17287,0.10981
779.10134,0.11199
781.02981,0.12292
782.95828,0.12892
784.88674,0.12027
786.81521,0.10085
788.74368,0.09151
790.67215,0.10550
792.60062,0.12290
794.52909,0.12256
796.45756,0.11302
798.38602,0.11059
800.31449,0.11325
802.24296,0.11310
804.17143,0.10966
806.09990,0.11152
808.02837,0.12095
809.95684,0.12506
811.88531,0.12199
813.81377,0.11628
815.74224,0.10598
817.67071,0.10324
819.59918,0.11477
821.52765,0.12322
823.45612,0.12195
825.38459,0.11783
827.31305,0.11385
829.24152,0.10918
831.16999,0.10528
833.09846,0.11080
835.02693,0.12337
836.95540,0.13160
838.88387,0.13105
840.81234,0.11896
842.74080,0.10513
844.66927,0.10449
846.59774,0.11056
848.52621,0.11279
850.45468,0.11433
852.38315,0.11853
854.31162,0.12085
856.24008,0.11987
858.16855,0.12163
860.09702,0.12452
862.02549,0.12669
863.95396,0.12792
865.88243,0.12502
867.81090,0.12672
869.73937,0.13343
871.66783,0.13308
873.59630,0.12665
875.52477,0.12377
877.45324,0.12672
879.38171,0.12577
881.31018,0.11722
883.23865,0.11157
885.16711,0.11803
887.09558,0.13029
889.02405,0.13311
890.95252,0.12690
892.88099,0.11868
894.80946,0.11113
896.73793,0.11166
898.66640,0.11683
900.59486,0.11718
902.52333,0.11478
904.45180,0.11487
906.38027,0.12111
908.30874,0.13146
910.23721,0.14029
912.16568,0.14341
914.09414,0.13915
916.02261,0.13339
917.95108,0.13524
919.87955,0.14213
921.80802,0.13900
923.73649,0.12299
925.66496,0.10823
927.59343,0.10771
929.52189,0.11780
931.45036,0.12401
933.37883,0.12606
935.30730,0.13022
937.23577,0.13463
939.16424,0.13600
941.09271,0.13189
943.02117,0.12282
944.94964,0.11539
946.87811,0.11523
948.80658,0.12202
950.73505,0.12948
952.66352,0.12938
954.59199,0.12407
956.52045,0.12191
958.44892,0.12436
960.37739,0.12772
962.30586,0.12935
964.23433,0.13212
966.16280,0.13436
968.09127,0.13198
970.01974,0.12953
971.94820,0.12750
973.87667,0.12270
975.80514,0.11993
977.73361,0.12134
979.66208,0.12519
981.59055,0.12896
983.51902,0.12969
985.44748,0.13201
987.37595,0.13701
989.30442,0.13822
991.23289,0.13596
993.16136,0.13283
995.08983,0.12929
997.01830,0.13030
998.94677,0.13349
1000.87523,0.12977
1002.80370,0.12284
1004.73217,0.11919
1006.66064,0.11870
1008.58911,0.12318
1010.51758,0.13148
1012.44605,0.13743
1014.37451,0.14075
1016.30298,0.14052
1018.23145,0.13460
1020.15992,0.13398
1022.08839,0.14076
1024.01686,0.14423
1025.94533,0.14628
1027.87380,0.14725
1029.80226,0.14234
1031.73073,0.13914
1033.65920,0.14217
1035.58767,0.14284
1037.51614,0.14054
1039.44461,0.13902
1041.37308,0.13783
1043.30154,0.14079
1045.23001,0.14435
1047.15848,0.14268
1049.08695,0.14227
1051.01542,0.14653
1052.94389,0.14864
1054.87236,0.14590
1056.80083,0.14507
1058.72929,0.14598
1060.65776,0.14417
1062.58623,0.14837
1064.51470,0.15830
1066.44317,0.15846
1068.37164,0.14925
1070.30011,0.14216
1072.22857,0.14093
1074.15704,0.14306
1076.08551,0.14538
1078.01398,0.14339
1079.94245,0.13697
1081.87092,0.13367
1083.79939,0.13818
1085.72786,0.14922
1087.65632,0.15758
1089.58479,0.15458
1091.51326,0.14528
1093.44173,0.13761
1095.37020,0.13583
1097.29867,0.14454
1099.22714,0.15713
1101.15560,0.16156
1103.08407,0.16096
1105.01254,0.15911
1106.94101,0.15240
1108.86948,0.14842
1110.79795,0.15157
1112.72642,0.15414
1114.65489,0.15576
1116.58335,0.15771
1118.51182,0.15570
1120.44029,0.14847
1122.36876,0.14253
1124.29723,0.14389
1126.22570,0.14738
1128.15417,0.14830
1130.08263,0.14837
1132.01110,0.14998
1133.93957,0.15140
1135.86804,0.14733
1137.79651,0.14042
1139.72498,0.13679
1141.65345,0.13768
1143.58191,0.14020
1145.51038,0.13948
1147.43885,0.13692
1149.36732,0.13926
1151.29579,0.14557
1153.22426,0.14798
1155.15273,0.14647
1157.08120,0.14773
1159.00966,0.15238
1160.93813,0.15526
1162.86660,0.15685
1164.79507,0.15963
1166.72354,0.16026
1168.65201,0.15683
1170.58048,0.15211
1172.50894,0.15238
1174.43741,0.15754
1176.36588,0.15721
1178.29435,0.15016
1180.22282,0.14612
1182.15129,0.14991
1184.07976,0.15555
1186.00823,0.15459
1187.93669,0.14987
1189.86516,0.14982
1191.79363,0.15239
1193.72210,0.15246
1195.65057,0.15172
1197.57904,0.15102
1199.50751,0.15096
1201.43597,0.15300
1203.36444,0.15424
1205.29291,0.15282
1207.22138,0.15156
1209.14985,0.15344
1211.07832,0.15653
1213.00679,0.15621
1214.93526,0.15207
1216.86372,0.14734
1218.79219,0.14643
1220.72066,0.15084
1222.64913,0.15678
1224.57760,0.15958
1226.50607,0.15871
1228.43454,0.15861
1230.36300,0.16229
1232.29147,0.16573
1234.21994,0.16310
1236.14841,0.15670
1238.07688,0.15443
1240.00535,0.15814
1241.93382,0.16022
1243.86229,0.15699
1245.79075,0.15484
1247.71922,0.15692
1249.64769,0.16043
1251.57616,0.16097
1253.50463,0.15793
1255.43310,0.15584
1257.36157,0.15470
1259.29003,0.15270
1261.21850,0.15245
1263.14697,0.15375
1265.07544,0.15363
1267.00391,0.15372
1268.93238,0.15512
1270.86085,0.15673
1272.78932,0.15988
1274.71778,0.16337
1276.64625,0.16465
1278.57472,0.16421
1280.50319,0.16341
1282.43166,0.16318
1284.36013,0.16248
1286.28860,0.16046
1288.21706,0.16059
1290.14553,0.16370
1292.07400,0.16516
1294.00247,0.16382
1295.93094,0.16200
1297.85941,0.16058
1299.78788,0.15810
1301.71634,0.15361
1303.64481,0.14984
1305.57328,0.15103
1307.50175,0.15901
1309.43022,0.16726
1311.35869,0.16909
1313.28716,0.16714
1315.21563,0.16446
1317.14409,0.16361
1319.07256,0.16471
1321.00103,0.16320
1322.92950,0.16205
1324.85797,0.16423
1326.78644,0.16556
1328.71491,0.16497
1330.64337,0.16353
1332.57184,0.16090
1334.50031,0.15955
1336.42878,0.16295
1338.35725,0.16827
1340.28572,0.16746
1342.21419,0.16297
1344.14266,0.16305
1346.07112,0.16599
1347.99959,0.16726
1349.92806,0.16615
1351.85653,0.16323
1353.78500,0.16149
1355.71347,0.16326
1357.64194,0.16752
1359.57040,0.17279
1361.49887,0.17578
1363.42734,0.17262
1365.35581,0.16881
1367.28428,0.17025
1369.21275,0.17318
1371.14122,0.17430
1373.06969,0.17513
1374.99815,0.17534
1376.92662,0.17508
1378.85509,0.17439
1380.78356,0.17149
1382.71203,0.16959
1384.64050,0.17271
1386.56897,0.17724
1388.49743,0.17755
1390.42590,0.17509
1392.35437,0.17436
1394.28284,0.17902
1396.21131,0.18548
1398.13978,0.18526
1400.06825,0.17912
1401.99672,0.17271
1403.92518,0.16907
1405.85365,0.16793
1407.78212,0.16803
1409.71059,0.16811
1411.63906,0.16742
1413.56753,0.16870
1415.49600,0.17442
1417.42446,0.18232
1419.35293,0.18361
1421.28140,0.17694
1423.20987,0.17322
1425.13834,0.17455
1427.06681,0.17766
1428.99528,0.17920
1430.92375,0.17662
1432.85221,0.17456
1434.78068,0.17870
1436.70915,0.18340
1438.63762,0.18014
1440.56609,0.17638
1442.49456,0.17476
1444.42303,0.17380
1446.35149,0.17649
1448.27996,0.18076
1450.20843,0.18136
1452.13690,0.18340
1454.06537,0.19082
1455.99384,0.20264
1457.92231,0.20633
1459.85077,0.19353
1461.77924,0.18386
1463.70771,0.18338
1465.63618,0.18676
1467.56465,0.18630
1469.49312,0.18640
1471.42159,0.19000
1473.35006,0.19328
1475.27852,0.19403
1477.20699,0.19307
1479.13546,0.19067
1481.06393,0.18704
1482.99240,0.18299
1484.92087,0.18337
1486.84934,0.19142
1488.77780,0.20080
1490.70627,0.19811
1492.63474,0.19084
1494.56321,0.19143
1496.49168,0.19780
1498.42015,0.19841
1500.34862,0.19204
1502.27709,0.18898
1504.20555,0.19583
1506.13402,0.21388
1508.06249,0.21594
1509.99096,0.20257
1511.91943,0.19780
1513.84790,0.20159
1515.77637,0.21090
1517.70483,0.21835
1519.63330,0.22015
1521.56177,0.21695
1523.49024,0.20686
1525.41871,0.19813
1527.34718,0.19394
1529.27565,0.19465
1531.20412,0.19963
1533.13258,0.20283
1535.06105,0.20160
1536.98952,0.20638
1538.91799,0.21995
1540.84646,0.22519
1542.77493,0.21787
1544.70340,0.21118
1546.63186,0.20136
1548.56033,0.19297
1550.48880,0.19028
1552.41727,0.19537
1554.34574,0.20640
1556.27421,0.21730
1558.20268,0.22168
1560.13115,0.21092
1562.05961,0.20282
1563.98808,0.19943
1565.91655,0.19851
1567.84502,0.20318
1569.77349,0.20726
1571.70196,0.20233
1573.63043,0.20015
1575.55889,0.20450
1577.48736,0.20170
1579.41583,0.19263
1581.34430,0.18857
1583.27277,0.19015
1585.20124,0.19131
1587.12971,0.18901
1589.05818,0.18843
1590.98664,0.19163
1592.91511,0.19360
1594.84358,0.19142
1596.77205,0.18777
1598.70052,0.18664
1600.62899,0.18847
1602.55746,0.18942
1604.48592,0.18711
1606.41439,0.18498
1608.34286,0.18579
1610.27133,0.18829
1612.19980,0.19171
1614.12827,0.19721
1616.05674,0.20206
1617.98521,0.20075
1619.91367,0.20053
1621.84214,0.20444
1623.77061,0.20557
1625.69908,0.20192
1627.62755,0.19646
1629.55602,0.18989
1631.48449,0.19081
1633.41295,0.20529
1635.34142,0.22527
1637.26989,0.22081
1639.19836,0.20524
1641.12683,0.19912
1643.05530,0.20153
1644.98377,0.21113
1646.91223,0.21926
1648.84070,0.21361
1650.76917,0.21287
1652.69764,0.22743
1654.62611,0.22670
1656.55458,0.21126
1658.48305,0.20708
1660.41152,0.21150
1662.33998,0.21385
1664.26845,0.20950
1666.19692,0.20622
1668.12539,0.21157
1670.05386,0.21980
1671.98233,0.21757
1673.91080,0.21095
1675.83926,0.20290
1677.76773,0.19757
1679.69620,0.19744
1681.62467,0.20403
1683.55314,0.22025
1685.48161,0.22368
1687.41008,0.21121
1689.33855,0.20157
1691.26701,0.19710
1693.19548,0.19921
1695.12395,0.20827
1697.05242,0.21740
1698.98089,0.22043
1700.90936,0.21832
1702.83783,0.21433
1704.76629,0.21165
1706.69476,0.20495
1708.62323,0.19580
1710.55170,0.19386
1712.48017,0.20101
1714.40864,0.21130
1716.33711,0.21447
1718.26558,0.20323
1720.19404,0.19414
1722.12251,0.19364
1724.05098,0.19382
1725.97945,0.19160
1727.90792,0.19312
1729.83639,0.20057
1731.76486,0.20976
1733.69332,0.21193
1735.62179,0.20185
1737.55026,0.19734
1739.47873,0.20055
1741.40720,0.20309
1743.33567,0.20358
1745.26414,0.20499
1747.19261,0.20588
1749.12107,0.20215
1751.04954,0.19552
1752.97801,0.19406
1754.90648,0.19734
1756.83495,0.20014
1758.76342,0.19968
1760.69189,0.19931
1762.62035,0.19823
1764.54882,0.19301
1766.47729,0.18851
1768.40576,0.19123
1770.33423,0.20124
1772.26270,0.20778
1774.19117,0.20282
1776.11964,0.19738
1778.04810,0.19685
1779.97657,0.19719
1781.90504,0.19475
1783.83351,0.19130
1785.76198,0.18842
1787.69045,0.18867
1789.61892,0.19527
1791.54738,0.20315
1793.47585,0.20130
1795.40432,0.19584
1797.33279,0.19608
1799.26126,0.20080
1801.18973,0.20220
1803.11820,0.19508
1805.04666,0.18729
1806.97513,0.18716
1808.90360,0.19244
1810.83207,0.19526
1812.76054,0.19393
1814.68901,0.19339
1816.61748,0.18843
1818.54595,0.17121
1820.47441,0.16187
1822.40288,0.17578
1824.33135,0.19113
1826.25982,0.19567
1828.18829,0.20032
1830.11676,0.20036
1832.04523,0.19304
1833.97369,0.18884
1835.90216,0.18899
1837.83063,0.18848
1839.75910,0.18693
1841.68757,0.18874
1843.61604,0.19305
1845.54451,0.19337
1847.47298,0.19076
1849.40144,0.18990
1851.32991,0.19043
1853.25838,0.19123
1855.18685,0.19218
1857.11532,0.19268
1859.04379,0.19126
1860.97226,0.18876
1862.90072,0.18782
1864.82919,0.18946
1866.75766,0.19404
1868.68613,0.19653
1870.61460,0.19188
1872.54307,0.18770
1874.47154,0.18793
1876.40001,0.18990
1878.32847,0.19208
1880.25694,0.19343
1882.18541,0.19287
1884.11388,0.19186
1886.04235,0.19095
1887.97082,0.19070
1889.89929,0.19233
1891.82775,0.19467
1893.75622,0.19609
1895.68469,0.19380
1897.61316,0.18871
1899.54163,0.18655
1901.47010,0.18852
1903.39857,0.19134
1905.32704,0.19200
1907.25550,0.19089
1909.18397,0.19037
1911.11244,0.19062
1913.04091,0.19120
1914.96938,0.19262
1916.89785,0.19394
1918.82632,0.19389
1920.75478,0.19325
1922.68325,0.19297
1924.61172,0.19227
1926.54019,0.19072
1928.46866,0.18956
1930.39713,0.19057
1932.32560,0.19341
1934.25407,0.19516
1936.18253,0.19482
1938.11100,0.19352
1940.03947,0.19303
1941.96794,0.19464
1943.89641,0.19687
1945.82488,0.19703
1947.75335,0.19395
1949.68181,0.18917
1951.61028,0.18558
1953.53875,0.18427
1955.46722,0.18531
1957.39569,0.18845
1959.32416,0.19177
1961.25263,0.19282
1963.18110,0.19251
1965.10956,0.19272
1967.03803,0.19307
1968.96650,0.19344
1970.89497,0.19364
1972.82344,0.19405
1974.75191,0.19656
1976.68038,0.19968
1978.60884,0.19988
1980.53731,0.19693
1982.46578,0.19362
1984.39425,0.19278
1986.32272,0.19327
1988.25119,0.19407
1990.17966,0.19615
1992.10812,0.19641
1994.03659,0.19368
1995.96506,0.19277
1997.89353,0.19418
1999.82200,0.19375
2001.75047,0.19258
2003.67894,0.19414
2005.60741,0.19595
2007.53587,0.19461
2009.46434,0.19143
2011.39281,0.19019
2013.32128,0.19265
2015.24975,0.19564
2017.17822,0.19540
2019.10669,0.19314
2021.03515,0.19235
2022.96362,0.19371
2024.89209,0.19533
2026.82056,0.19499
2028.74903,0.19348
2030.67750,0.19267
2032.60597,0.19209
2034.53444,0.19216
2036.46290,0.19383
2038.39137,0.19554
2040.31984,0.19528
2042.24831,0.19348
2044.17678,0.19229
2046.10525,0.19182
2048.03372,0.19068
2049.96218,0.18908
2051.89065,0.18952
2053.81912,0.19329
2055.74759,0.19628
2057.67606,0.19634
2059.60453,0.19667
2061.53300,0.19696
2063.46147,0.19552
2065.38993,0.19413
2067.31840,0.19377
2069.24687,0.19455
2071.17534,0.19697
2073.10381,0.19883
2075.03228,0.19838
2076.96075,0.19675
2078.88921,0.19492
2080.81768,0.19309
2082.74615,0.19197
2084.67462,0.19315
2086.60309,0.19564
2088.53156,0.19579
2090.46003,0.19397
2092.38850,0.19255
2094.31696,0.19153
2096.24543,0.19117
2098.17390,0.19189
2100.10237,0.19279
2102.03084,0.19382
2103.95931,0.19487
2105.88778,0.19503
2107.81624,0.19550
2109.74471,0.19717
2111.67318,0.19836
2113.60165,0.19796
2115.53012,0.19605
2117.45859,0.19480
2119.38706,0.19581
2121.31553,0.19690
2123.24399,0.19702
2125.17246,0.19681
2127.10093,0.19528
2129.02940,0.19317
2130.95787,0.19313
2132.88634,0.19519
2134.81481,0.19836
2136.74327,0.20017
2138.67174,0.19797
2140.60021,0.19569
2142.52868,0.19568
2144.45715,0.19526
2146.38562,0.19483
2148.31409,0.19442
2150.24255,0.19439
2152.17102,0.19583
2154.09949,0.19516
2156.02796,0.19206
2157.95643,0.19194
2159.88490,0.19465
2161.81337,0.19595
2163.74184,0.19561
2165.67030,0.19527
2167.59877,0.19528
2169.52724,0.19561
2171.45571,0.19624
2173.38418,0.19726
2175.31265,0.19854
2177.24112,0.19788
2179.16958,0.19453
2181.09805,0.19294
2183.02652,0.19559
2184.95499,0.19828
2186.88346,0.19789
2188.81193,0.19759
2190.74040,0.19921
2192.66887,0.19873
2194.59733,0.19516
2196.52580,0.19204
2198.45427,0.19182
2200.38274,0.19405
2202.31121,0.19529
2204.23968,0.19392
2206.16815,0.19302
2208.09661,0.19578
2210.02508,0.20102
2211.95355,0.20459
2213.88202,0.20346
2215.81049,0.19813
2217.73896,0.19404
2219.66743,0.19495
2221.59590,0.19737
2223.52436,0.19768
2225.45283,0.19637
2227.38130,0.19543
2229.30977,0.19505
2231.23824,0.19418
2233.16671,0.19313
2235.09518,0.19332
2237.02364,0.19515
2238.95211,0.19684
2240.88058,0.19742
2242.80905,0.19780
2244.73752,0.19768
2246.66599,0.19622
2248.59446,0.19406
2250.52293,0.19332
2252.45139,0.19497
2254.37986,0.19632
2256.30833,0.19523
2258.23680,0.19346
2260.16527,0.19266
2262.09374,0.19360
2264.02221,0.19623
2265.95067,0.19912
2267.87914,0.20107
2269.80761,0.19945
2271.73608,0.19510
2273.66455,0.19300
2275.59302,0.19310
2277.52149,0.19379
2279.44996,0.19523
2281.37842,0.19543
2283.30689,0.19403
2285.23536,0.19312
2287.16383,0.19322
2289.09230,0.19321
2291.02077,0.18987
2292.94924,0.18213
2294.87770,0.17658
2296.80617,0.17890
2298.73464,0.18537
2300.66311,0.18822
2302.59158,0.18574
2304.52005,0.18366
2306.44852,0.18481
2308.37699,0.18688
2310.30545,0.18810
2312.23392,0.18623
2314.16239,0.18000
2316.09086,0.17374
2318.01933,0.17256
2319.94780,0.17523
2321.87627,0.17566
2323.80473,0.17211
2325.73320,0.17127
2327.66167,0.17204
2329.59014,0.16832
2331.51861,0.16806
2333.44708,0.17318
2335.37555,0.17348
2337.30401,0.17212
2339.23248,0.17308
2341.16095,0.16680
2343.08942,0.15555
2345.01789,0.15667
2346.94636,0.16886
2348.87483,0.17836
2350.80330,0.17909
2352.73176,0.16925
2354.66023,0.16023
2356.58870,0.16859
2358.51717,0.17392
2360.44564,0.15861
2362.37411,0.15157
2364.30258,0.16089
2366.23104,0.17016
2368.15951,0.17706
2370.08798,0.18636
2372.01645,0.19303
2373.94492,0.19043
2375.87339,0.18596
2377.80186,0.18600
2379.73033,0.18729
2381.65879,0.18850
2383.58726,0.19159
2385.51573,0.19515
2387.44420,0.19670
2389.37267,0.19650
2391.30114,0.19589
2393.22961,0.19601
2395.15807,0.19658
2397.08654,0.19792
2399.01501,0.20045
2400.94348,0.20087
2402.87195,0.19763
2404.80042,0.19467
2406.72889,0.19530
2408.65736,0.19815
2410.58582,0.20125
2412.51429,0.20202
2414.44276,0.19913
2416.37123,0.19708
2418.29970,0.19851
2420.22817,0.20044
2422.15664,0.20010
2424.08510,0.19768
2426.01357,0.19546
2427.94204,0.19493
2429.87051,0.19640
2431.79898,0.19937
2433.72745,0.20132
2435.65592,0.20142
2437.58439,0.20196
2439.51285,0.20221
2441.44132,0.20060
2443.36979,0.19861
2445.29826,0.19752
2447.22673,0.19731
2449.15520,0.20005
2451.08367,0.20978
2453.01213,0.21976
2454.94060,0.21697
2456.86907,0.20577
2458.79754,0.19937
2460.72601,0.19897
2462.65448,0.20041
2464.58295,0.20117
2466.51142,0.19963
2468.43988,0.19803
2470.36835,0.19806
2472.29682,0.19849
2474.22529,0.19881
2476.15376,0.19811
2478.08223,0.19637
2480.01070,0.19709
2481.93916,0.19976
2483.86763,0.19900
2485.79610,0.19683
2487.72457,0.19708
2489.65304,0.19822
2491.58151,0.19981
2493.50998,0.20189
2495.43844,0.20256
2497.36691,0.20080
2499.29538,0.19860
2501.22385,0.19857
2503.15232,0.19994
2505.08079,0.20039
2507.00926,0.20025
2508.93773,0.20135
2510.86619,0.20318
2512.79466,0.20398
2514.72313,0.20309
2516.65160,0.20190
2518.58007,0.20187
2520.50854,0.20229
2522.43701,0.20260
2524.36547,0.20214
2526.29394,0.20087
2528.22241,0.20131
2530.15088,0.20361
2532.07935,0.20506
2534.00782,0.20504
2535.93629,0.20400
2537.86476,0.20278
2539.79322,0.20189
2541.72169,0.20140
2543.65016,0.20232
2545.57863,0.20326
2547.50710,0.20204
2549.43557,0.20075
2551.36404,0.20245
2553.29250,0.20543
2555.22097,0.20517
2557.14944,0.20097
2559.07791,0.19736
2561.00638,0.19875
2562.93485,0.20243
2564.86332,0.20236
2566.79179,0.20021
2568.72025,0.20089
2570.64872,0.20309
2572.57719,0.20391
2574.50566,0.20311
2576.43413,0.20184
2578.36260,0.20127
2580.29107,0.20145
2582.21953,0.20322
2584.14800,0.20500
2586.07647,0.20317
2588.00494,0.20005
2589.93341,0.20027
2591.86188,0.20154
2593.79035,0.20013
2595.71882,0.19936
2597.64728,0.20137
2599.57575,0.20287
2601.50422,0.20332
2603.43269,0.20419
2605.36116,0.20479
2607.28963,0.20479
2609.21810,0.20673
2611.14656,0.21055
2613.07503,0.21067
2615.00350,0.20737
2616.93197,0.20650
2618.86044,0.20753
2620.78891,0.20759
2622.71738,0.20730
2624.64585,0.20769
2626.57431,0.20807
2628.50278,0.20809
2630.43125,0.20956
2632.35972,0.21098
2634.28819,0.20940
2636.21666,0.20741
2638.14513,0.20731
2640.07359,0.20793
2642.00206,0.20684
2643.93053,0.20376
2645.85900,0.20241
2647.78747,0.20292
2649.71594,0.20266
2651.64441,0.20299
2653.57288,0.20576
2655.50134,0.20938
2657.42981,0.21057
2659.35828,0.20873
2661.28675,0.20712
2663.21522,0.20725
2665.14369,0.20641
2667.07216,0.20419
2669.00062,0.20416
2670.92909,0.20660
2672.85756,0.20798
2674.78603,0.20765
2676.71450,0.20769
2678.64297,0.20912
2680.57144,0.21085
2682.49990,0.21048
2684.42837,0.20751
2686.35684,0.20561
2688.28531,0.20732
2690.21378,0.21049
2692.14225,0.21216
2694.07072,0.21102
2695.99919,0.20868
2697.92765,0.20881
2699.85612,0.21169
2701.78459,0.21356
2703.71306,0.21214
2705.64153,0.21024
2707.57000,0.21160
2709.49847,0.21367
2711.42693,0.21232
2713.35540,0.21073
2715.28387,0.21303
2717.21234,0.21526
2719.14081,0.21367
2721.06928,0.21200
2722.99775,0.21203
2724.92622,0.21170
2726.85468,0.21207
2728.78315,0.21250
2730.71162,0.21060
2732.64009,0.20991
2734.56856,0.21173
2736.49703,0.21155
2738.42550,0.20967
2740.35396,0.20970
2742.28243,0.21161
2744.21090,0.21254
2746.13937,0.21219
2748.06784,0.21334
2749.99631,0.21621
2751.92478,0.21798
2753.85325,0.21646
2755.78171,0.21352
2757.71018,0.21361
2759.63865,0.21714
2761.56712,0.21945
2763.49559,0.21817
2765.42406,0.21588
2767.35253,0.21402
2769.28099,0.21271
2771.20946,0.21316
2773.13793,0.21382
2775.06640,0.21197
2776.99487,0.21047
2778.92334,0.21188
2780.85181,0.21397
2782.78028,0.21620
2784.70874,0.21757
2786.63721,0.21674
2788.56568,0.21655
2790.49415,0.21891
2792.42262,0.22098
2794.35109,0.22100
2796.27956,0.22034
2798.20802,0.21867
2800.13649,0.21700
2802.06496,0.21807
2803.99343,0.21937
2805.92190,0.21802
2807.85037,0.21582
2809.77884,0.21382
2811.70731,0.21306
2813.63577,0.21565
2815.56424,0.22012
2817.49271,0.22370
2819.42118,0.22510
2821.34965,0.22361
2823.27812,0.21998
2825.20659,0.21552
2827.13505,0.21228
2829.06352,0.21291
2830.99199,0.21722
2832.92046,0.22010
2834.84893,0.21816
2836.77740,0.21607
2838.70587,0.21789
2840.63433,0.22129
2842.56280,0.22099
2844.49127,0.21676
2846.41974,0.21614
2848.34821,0.21916
2850.27668,0.21912
2852.20515,0.21740
2854.13362,0.21743
2856.06208,0.21873
2857.99055,0.22024
2859.91902,0.22128
2861.84749,0.22253
2863.77596,0.22330
2865.70443,0.22082
2867.63290,0.21704
2869.56136,0.21630
2871.48983,0.21836
2873.41830,0.22108
2875.34677,0.22351
2877.27524,0.22500
2879.20371,0.22478
2881.13218,0.22212
2883.06065,0.21825
2884.98911,0.21744
2886.91758,0.22064
2888.84605,0.22344
2890.77452,0.22275
2892.70299,0.21952
2894.63146,0.21802
2896.55993,0.22066
2898.48839,0.22383
2900.41686,0.22304
2902.34533,0.21806
2904.27380,0.21316
2906.20227,0.21297
2908.13074,0.21535
2910.05921,0.21569
2911.98768,0.21580
2913.91614,0.21722
2915.84461,0.21835
2917.77308,0.21859
2919.70155,0.21752
2921.63002,0.21672
2923.55849,0.21786
2925.48696,0.21967
2927.41542,0.22208
2929.34389,0.22469
2931.27236,0.22514
2933.20083,0.22432
2935.12930,0.22039
2937.05777,0.21299
2938.98624,0.21230
2940.91471,0.21941
2942.84317,0.22312
2944.77164,0.21971
2946.70011,0.21454
2948.62858,0.21383
2950.55705,0.21785
2952.48552,0.22162
2954.41399,0.22210
2956.34245,0.21888
2958.27092,0.21672
2960.19939,0.21928
2962.12786,0.22070
2964.05633,0.21949
2965.98480,0.21980
2967.91327,0.22136
2969.84174,0.22395
2971.77020,0.22629
2973.69867,0.22650
2975.62714,0.22353
2977.55561,0.21851
2979.48408,0.21855
2981.41255,0.22472
2983.34102,0.23013
2985.26948,0.23063
2987.19795,0.22595
2989.12642,0.22174
2991.05489,0.22129
2992.98336,0.22194
2994.91183,0.22325
2996.84030,0.22313
2998.76877,0.22201
3000.69723,0.22310
3002.62570,0.22460
3004.55417,0.22451
3006.48264,0.22275
3008.41111,0.22137
3010.33958,0.22144
3012.26805,0.21661
3014.19651,0.20175
3016.12498,0.18716
3018.05345,0.19190
3019.98192,0.21392
3021.91039,0.22947
3023.83886,0.23064
3025.76733,0.22641
3027.69579,0.22257
3029.62426,0.22331
3031.55273,0.22724
3033.48120,0.22821
3035.40967,0.22593
3037.33814,0.22398
3039.26661,0.22435
3041.19508,0.22443
3043.12354,0.22159
3045.05201,0.21834
3046.98048,0.21729
3048.90895,0.21860
3050.83742,0.22173
3052.76589,0.22414
3054.69436,0.22418
3056.62282,0.22355
3058.55129,0.22487
3060.47976,0.22769
3062.40823,0.22760
3064.33670,0.22348
3066.26517,0.21999
3068.19364,0.22145
3070.12211,0.22550
3072.05057,0.22671
3073.97904,0.22495
3075.90751,0.22397
3077.83598,0.22635
3079.76445,0.22865
3081.69292,0.22554
3083.62139,0.21918
3085.54985,0.21548
3087.47832,0.21619
3089.40679,0.21966
3091.33526,0.22308
3093.26373,0.22181
3095.19220,0.21820
3097.12067,0.21985
3099.04914,0.22489
3100.97760,0.22632
3102.90607,0.22234
3104.83454,0.21877
3106.76301,0.22207
3108.69148,0.22834
3110.61995,0.22887
3112.54842,0.22644
3114.47688,0.22900
3116.40535,0.23139
3118.33382,0.22734
3120.26229,0.22344
3122.19076,0.22479
3124.11923,0.22727
3126.04770,0.22862
3127.97617,0.23104
3129.90463,0.23223
3131.83310,0.23076
3133.76157,0.23060
3135.69004,0.23124
3137.61851,0.23065
3139.54698,0.23072
3141.47545,0.23232
3143.40391,0.23398
3145.33238,0.23321
3147.26085,0.22901
3149.18932,0.22467
3151.11779,0.22323
3153.04626,0.22472
3154.97473,0.22925
3156.90320,0.23144
3158.83166,0.22791
3160.76013,0.22718
3162.68860,0.23150
3164.61707,0.23297
3166.54554,0.23052
3168.47401,0.23078
3170.40248,0.23484
3172.33094,0.23661
3174.25941,0.23439
3176.18788,0.23133
3178.11635,0.22993
3180.04482,0.23041
3181.97329,0.23068
3183.90176,0.23051
3185.83022,0.23180
3187.75869,0.23384
3189.68716,0.23380
3191.61563,0.23342
3193.54410,0.23634
3195.47257,0.24001
3197.40104,0.24060
3199.32951,0.23866
3201.25797,0.23433
3203.18644,0.22964
3205.11491,0.22741
3207.04338,0.22400
3208.97185,0.21951
3210.90032,0.22036
3212.82879,0.22425
3214.75725,0.22466
3216.68572,0.22291
3218.61419,0.22253
3220.54266,0.22305
3222.47113,0.22358
3224.39960,0.22440
3226.32807,0.22525
3228.25654,0.22617
3230.18500,0.22798
3232.11347,0.22895
3234.04194,0.22845
3235.97041,0.22916
3237.89888,0.22841
3239.82735,0.22565
3241.75582,0.22704
3243.68428,0.23059
3245.61275,0.23067
3247.54122,0.22950
3249.46969,0.22869
3251.39816,0.22714
3253.32663,0.22679
3255.25510,0.22765
3257.18357,0.22925
3259.11203,0.23413
3261.04050,0.23744
3262.96897,0.23343
3264.89744,0.22710
3266.82591,0.22456
3268.75438,0.22504
3270.68285,0.22414
3272.61131,0.22130
3274.53978,0.21928
3276.46825,0.21970
3278.39672,0.22280
3280.32519,0.22573
3282.25366,0.22670
3284.18213,0.22664
3286.11060,0.22507
3288.03906,0.22446
3289.96753,0.22788
3291.89600,0.23017
3293.82447,0.22628
3295.75294,0.22235
3297.68141,0.22495
3299.60988,0.22830
3301.53834,0.22481
3303.46681,0.21975
3305.39528,0.22249
3307.32375,0.22883
3309.25222,0.22965
3311.18069,0.22677
3313.10916,0.22348
3315.03763,0.22122
3316.96609,0.22354
3318.89456,0.22849
3320.82303,0.23174
3322.75150,0.23168
3324.67997,0.22738
3326.60844,0.22191
3328.53691,0.22112
3330.46537,0.22421
3332.39384,0.22612
3334.32231,0.22746
3336.25078,0.23066
3338.17925,0.23387
3340.10772,0.23514
3342.03619,0.23322
3343.96466,0.22942
3345.89312,0.22982
3347.82159,0.23355
3349.75006,0.23538
3351.67853,0.23631
3353.60700,0.23605
3355.53547,0.23131
3357.46394,0.22325
3359.39240,0.21897
3361.32087,0.22337
3363.24934,0.23139
3365.17781,0.23670
3367.10628,0.24079
3369.03475,0.24364
3370.96322,0.24121
3372.89168,0.23504
3374.82015,0.22981
3376.74862,0.22803
3378.67709,0.22891
3380.60556,0.22893
3382.53403,0.22696
3384.46250,0.22486
3386.39097,0.22472
3388.31943,0.22788
3390.24790,0.23226
3392.17637,0.23256
3394.10484,0.22899
3396.03331,0.22856
3397.96178,0.23171
3399.89025,0.22913
3401.81871,0.21894
3403.74718,0.21043
3405.67565,0.20920
3407.60412,0.21532
3409.53259,0.22430
3411.46106,0.22967
3413.38953,0.23039
3415.31800,0.23051
3417.24646,0.23449
3419.17493,0.23768
3421.10340,0.23419
3423.03187,0.23003
3424.96034,0.22741
3426.88881,0.22234
3428.81728,0.21829
3430.74574,0.21889
3432.67421,0.22059
3434.60268,0.21914
3436.53115,0.21569
3438.45962,0.21536
3440.38809,0.21995
3442.31656,0.22602
3444.24503,0.23046
3446.17349,0.23122
3448.10196,0.22503
3450.03043,0.21677
3451.95890,0.21468
3453.88737,0.21459
3455.81584,0.21257
3457.74431,0.21111
3459.67277,0.20766
3461.60124,0.20057
3463.52971,0.19682
3465.45818,0.20134
3467.38665,0.20618
3469.31512,0.20503
3471.24359,0.20349
3473.17206,0.20345
3475.10052,0.20331
3477.02899,0.20599
3478.95746,0.21122
3480.88593,0.21430
3482.81440,0.21319
3484.74287,0.21001
3486.67134,0.20551
3488.59980,0.20037
3490.52827,0.19840
3492.45674,0.19998
3494.38521,0.20206
3496.31368,0.20246
3498.24215,0.20118
3500.17062,0.20122
3502.09909,0.20193
3504.02755,0.20033
3505.95602,0.19913
3507.88449,0.19983
3509.81296,0.19967
3511.74143,0.19592
3513.66990,0.19087
3515.59837,0.18906
3517.52683,0.19016
3519.45530,0.19415
3521.38377,0.20088
3523.31224,0.20607
3525.24071,0.20768
3527.16918,0.20638
3529.09765,0.20178
3531.02611,0.19344
3532.95458,0.18540
3534.88305,0.18498
3536.81152,0.18850
3538.73999,0.18507
3540.66846,0.18069
3542.59693,0.18464
3544.52540,0.19116
3546.45386,0.19299
3548.38233,0.19078
3550.31080,0.18875
3552.23927,0.18732
3554.16774,0.18454
3556.09621,0.18278
3558.02468,0.18116
3559.95314,0.17751
3561.88161,0.17580
3563.81008,0.18080
3565.73855,0.18985
3567.66702,0.18789
3569.59549,0.17477
3571.52396,0.16695
3573.45243,0.16649
3575.38089,0.16853
3577.30936,0.16822
3579.23783,0.16723
3581.16630,0.16873
3583.09477,0.17037
3585.02324,0.17177
3586.95171,0.17420
3588.88017,0.17210
3590.80864,0.16351
3592.73711,0.15770
3594.66558,0.16233
3596.59405,0.16990
3598.52252,0.17042
3600.45099,0.16764
3602.37946,0.16571
3604.30792,0.16419
3606.23639,0.16530
3608.16486,0.16978
3610.09333,0.17379
3612.02180,0.17564
3613.95027,0.17221
3615.87874,0.16778
3617.80720,0.16810
3619.73567,0.16481
3621.66414,0.15702
3623.59261,0.15529
3625.52108,0.16033
3627.44955,0.16754
3629.37802,0.16787
3631.30649,0.16101
3633.23495,0.15666
3635.16342,0.15403
3637.09189,0.15172
3639.02036,0.15014
3640.94883,0.14924
3642.87730,0.15022
3644.80577,0.15299
3646.73423,0.15620
3648.66270,0.16177
3650.59117,0.16383
3652.51964,0.15707
3654.44811,0.15221
3656.37658,0.15289
3658.30505,0.15369
3660.23352,0.15068
3662.16198,0.14508
3664.09045,0.13955
3666.01892,0.13699
3667.94739,0.14079
3669.87586,0.14955
3671.80433,0.15457
3673.73280,0.15983
3675.66126,0.16291
3677.58973,0.15584
3679.51820,0.14980
3681.44667,0.14646
3683.37514,0.14498
3685.30361,0.14692
3687.23208,0.15217
3689.16055,0.15815
3691.08901,0.15689
3693.01748,0.14992
3694.94595,0.14482
3696.87442,0.14186
3698.80289,0.13972
3700.73136,0.13807
3702.65983,0.13708
3704.58829,0.13811
3706.51676,0.14048
3708.44523,0.14533
3710.37370,0.15217
3712.30217,0.15069
3714.23064,0.14410
3716.15911,0.13939
3718.08757,0.13373
3720.01604,0.13092
3721.94451,0.13629
3723.87298,0.14379
3725.80145,0.14381
3727.72992,0.13943
3729.65839,0.14195
3731.58686,0.15090
3733.51532,0.15520
3735.44379,0.15488
3737.37226,0.15820
3739.30073,0.15726
3741.22920,0.15460
3743.15767,0.15645
3745.08614,0.15452
3747.01460,0.14949
3748.94307,0.15273
3750.87154,0.15741
3752.80001,0.15374
3754.72848,0.14790
3756.65695,0.14443
3758.58542,0.14396
3760.51389,0.14341
3762.44235,0.14097
3764.37082,0.14027
3766.29929,0.14306
3768.22776,0.14639
3770.15623,0.14540
3772.08470,0.13910
3774.01317,0.13447
3775.94163,0.13610
3777.87010,0.14183
3779.79857,0.14428
3781.72704,0.14109
3783.65551,0.13624
3785.58398,0.13135
3787.51245,0.12961
3789.44092,0.13142
3791.36938,0.13419
3793.29785,0.13752
3795.22632,0.14078
3797.15479,0.14262
3799.08326,0.14340
3801.01173,0.14110
3802.94020,0.13673
3804.86866,0.13973
3806.79713,0.14758
3808.72560,0.14597
3810.65407,0.13620
3812.58254,0.13033
3814.51101,0.12961
3816.43948,0.12909
3818.36795,0.12898
3820.29641,0.13305
3822.22488,0.13715
3824.15335,0.13654
3826.08182,0.13646
3828.01029,0.13817
3829.93876,0.14001
3831.86723,0.14171
3833.79569,0.14481
3835.72416,0.15307
3837.65263,0.16386
3839.58110,0.16405
3841.50957,0.15162
3843.43804,0.13548
3845.36651,0.12282
3847.29498,0.11833
3849.22344,0.12076
3851.15191,0.12757
3853.08038,0.13760
3855.00885,0.13811
3856.93732,0.13214
3858.86579,0.12917
3860.79426,0.12989
3862.72272,0.13446
3864.65119,0.13509
3866.57966,0.12858
3868.50813,0.12446
3870.43660,0.12276
3872.36507,0.12284
3874.29354,0.12667
3876.22200,0.12697
3878.15047,0.12434
3880.07894,0.12509
3882.00741,0.12525
3883.93588,0.12446
3885.86435,0.12915
3887.79282,0.13188
3889.72129,0.12853
3891.64975,0.12549
3893.57822,0.12301
3895.50669,0.11955
3897.43516,0.11922
3899.36363,0.12366
3901.29210,0.12719
3903.22057,0.12407
3905.14903,0.12081
3907.07750,0.12337
3909.00597,0.12486
3910.93444,0.12209
3912.86291,0.11887
3914.79138,0.11672
3916.71985,0.11659
3918.64832,0.12017
3920.57678,0.12251
3922.50525,0.12122
3924.43372,0.11954
3926.36219,0.11938
3928.29066,0.11926
3930.21913,0.11689
3932.14760,0.11466
3934.07606,0.11577
3936.00453,0.11779
3937.93300,0.11879
3939.86147,0.11956
3941.78994,0.12219
3943.71841,0.12329
3945.64688,0.11953
3947.57535,0.11663
3949.50381,0.11441
3951.43228,0.11077
3953.36075,0.11033
3955.28922,0.11254
3957.21769,0.11439
3959.14616,0.11467
3961.07463,0.11319
3963.00309,0.11233
3964.93156,0.11185
3966.86003,0.10926
3968.78850,0.10636
3970.71697,0.10574
3972.64544,0.10488
3974.57391,0.10318
3976.50238,0.10346
3978.43084,0.10319
3980.35931,0.10103
3982.28778,0.09950
3984.21625,0.09809
3986.14472,0.09923
3988.07319,0.10426
3990.00166,0.10690
3991.93012,0.10551
3993.85859,0.10469
3995.78706,0.10436
3997.71553,0.10123
3999.64400,0.09848
4001.57247,0.10095
4003.50094,0.10393
4005.42941,0.10236
4007.35787,0.09899
4009.28634,0.09676
4011.21481,0.09663
4013.14328,0.09900
4015.07175,0.10158
4017.00022,0.10335
4018.92869,0.10529
4020.85715,0.10518
4022.78562,0.10314
4024.71409,0.10233
4026.64256,0.10147
4028.57103,0.10155
4030.49950,0.10698
4032.42797,0.11258
4034.35644,0.11038
4036.28490,0.10415
4038.21337,0.10214
4040.14184,0.10369
4042.07031,0.10477
4043.99878,0.10688
4045.92725,0.10879
4047.85572,0.10521
4049.78418,0.09790
4051.71265,0.09546
4053.64112,0.09968
4055.56959,0.10212
4057.49806,0.10030
4059.42653,0.09740
4061.35500,0.09375
4063.28346,0.09345
4065.21193,0.09761
4067.14040,0.09801
4069.06887,0.09419
4070.99734,0.09362
4072.92581,0.09426
4074.85428,0.09199
4076.78275,0.09070
4078.71121,0.09121
4080.63968,0.09046
4082.56815,0.08931
4084.49662,0.08976
4086.42509,0.09170
4088.35356,0.09203
4090.28203,0.08993
4092.21049,0.08789
4094.13896,0.08372
4096.06743,0.07857
4097.99590,0.07818
4099.92437,0.08114
4101.85284,0.08475
4103.78131,0.08795
4105.70978,0.08732
4107.63824,0.08369
4109.56671,0.08319
4111.49518,0.08879
4113.42365,0.09610
4115.35212,0.09813
4117.28059,0.09589
4119.20906,0.09373
4121.13752,0.09286
4123.06599,0.09602
4124.99446,0.10043
4126.92293,0.09947
4128.85140,0.09459
4130.77987,0.08967
4132.70834,0.08634
4134.63681,0.08577
4136.56527,0.08497
4138.49374,0.08190
4140.42221,0.08100
4142.35068,0.08410
4144.27915,0.08592
4146.20762,0.08133
4148.13609,0.07599
4150.06455,0.07677
4151.99302,0.07925
4153.92149,0.08086
4155.84996,0.08243
4157.77843,0.08409
4159.70690,0.08666
4161.63537,0.08632
4163.56384,0.08280
4165.49230,0.07999
4167.42077,0.07919
4169.34924,0.08370
4171.27771,0.08923
4173.20618,0.08696
4175.13465,0.08367
4177.06312,0.08488
4178.99158,0.08351
4180.92005,0.07986
4182.84852,0.07847
4184.77699,0.07755
4186.70546,0.07631
4188.63393,0.07863
4190.56240,0.08526
4192.49087,0.08927
4194.41933,0.08704
4196.34780,0.08243
4198.27627,0.07839
4200.20474,0.07583
4202.13321,0.07234
4204.06168,0.06678
4205.99015,0.06580
4207.91861,0.07028
4209.84708,0.07472
4211.77555,0.07810
4213.70402,0.07866
4215.63249,0.07623
4217.56096,0.07431
4219.48943,0.07211
4221.41789,0.06888
4223.34636,0.06910
4225.27483,0.07130
4227.20330,0.06868
4229.13177,0.06467
4231.06024,0.06433
4232.98871,0.06351
4234.91718,0.06256
4236.84564,0.06462
4238.77411,0.06457
4240.70258,0.06284
4242.63105,0.06515
4244.55952,0.06722
4246.48799,0.06530
4248.41646,0.06370
4250.34492,0.06304
4252.27339,0.05943
4254.20186,0.05403
4256.13033,0.05366
4258.05880,0.05896
4259.98727,0.06105
4261.91574,0.05636
4263.84421,0.05087
4265.77267,0.04978
4267.70114,0.05354
4269.62961,0.05929
4271.55808,0.06329
4273.48655,0.06277
4275.41502,0.06023
4277.34349,0.06075
4279.27195,0.06290
4281.20042,0.06200
4283.12889,0.05807
4285.05736,0.05446
4286.98583,0.05223
4288.91430,0.04981
4290.84277,0.04693
4292.77124,0.04556
4294.69970,0.04459
4296.62817,0.04293
4298.55664,0.04632
4300.48511,0.05468
4302.41358,0.05810
4304.34205,0.05385
4306.27052,0.05019
4308.19898,0.05056
4310.12745,0.04955
4312.05592,0.04713
4313.98439,0.04736
4315.91286,0.04812
4317.84133,0.04692
4319.76980,0.04518
4321.69827,0.04308
4323.62673,0.04221
4325.55520,0.04511
4327.48367,0.04589
4329.41214,0.03923
4331.34061,0.03278
4333.26908,0.03304
4335.19755,0.03646
4337.12601,0.04025
4339.05448,0.04423
4340.98295,0.04471
4342.91142,0.03907
4344.83989,0.03478
4346.76836,0.03833
4348.69683,0.04247
4350.62530,0.04271
4352.55376,0.04454
4354.48223,0.04803
4356.41070,0.04740
4358.33917,0.04169
4360.26764,0.03739
4362.19611,0.03650
4364.12458,0.03476
4366.05304,0.03388
4367.98151,0.03255
4369.90998,0.02841
4371.83845,0.02711
4373.76692,0.02755
4375.69539,0.02508
4377.62386,0.02247
4379.55232,0.02309
4381.48079,0.02275
4383.40926,0.01661
4385.33773,0.01079
4387.26620,0.01267
4389.19467,0.01864
4391.12314,0.02336
4393.05161,0.02863
4394.98007,0.03298
4396.90854,0.03130
4398.83701,0.02412
4400.76548,0.01581
4402.69395,0.01514
4404.62242,0.02536
4406.55089,0.03719
4408.47935,0.04389
4410.40782,0.04453
4412.33629,0.03799
4414.26476,0.02881
4416.19323,0.02341
4418.12170,0.01972
4420.05017,0.01769
4421.97864,0.01949
4423.90710,0.02096
4425.83557,0.02072
4427.76404,0.02178
4429.69251,0.02349
4431.62098,0.01945
4433.54945,0.01053
4435.47792,0.00821
4437.40638,0.01466
4439.33485,0.02054
4441.26332,0.02032
4443.19179,0.01881
4445.12026,0.02169
4447.04873,0.02360
4448.97720,0.01799
4450.90567,0.01148
4452.83413,0.01210
4454.76260,0.01596
4456.69107,0.01855
4458.61954,0.01880
4460.54801,0.01570
4462.47648,0.01247
4464.40495,0.01128
4466.33341,0.01234
4468.26188,0.01687
4470.19035,0.02035
4472.11882,0.01889
4474.04729,0.01596
4475.97576,0.01246
4477.90423,0.01057
4479.83270,0.01446
4481.76116,0.01539
4483.68963,0.01008
4485.61810,0.01198
4487.54657,0.01939
4489.47504,0.01798
4491.40351,0.00949
4493.33198,0.00643
4495.26044,0.00965
4497.18891,0.01097
4499.11738,0.01111
4501.04585,0.01350
4502.97432,0.01466
4504.90279,0.01382
4506.83126,0.01323
4508.75973,0.01076
4510.68819,0.00650
4512.61666,0.00664
4514.54513,0.01089
4516.47360,0.01194
4518.40207,0.01042
4520.33054,0.01030
4522.25901,0.00745
4524.18747,0.00093
4526.11594,-0.00211
4528.04441,0.00159
4529.97288,0.00599
4531.90135,0.00745
4533.82982,0.00981
4535.75829,0.00963
4537.68676,0.00154
4539.61522,-0.01008
4541.54369,-0.01647
4543.47216,-0.00950
4545.40063,0.00422
4547.32910,0.00585
4549.25757,-0.00256
4551.18604,-0.00253
4553.11450,0.00351
4555.04297,0.00227
4556.97144,-0.00155
4558.89991,0.00066
4560.82838,0.00445
4562.75685,0.00463
4564.68532,0.00641
4566.61378,0.01332
4568.54225,0.01632
4570.47072,0.01057
4572.39919,0.00684
4574.32766,0.01024
4576.25613,0.01291
4578.18460,0.01414
4580.11307,0.01530
4582.04153,0.01284
4583.97000,0.01058
4585.89847,0.00931
4587.82694,0.00463
4589.75541,-0.00028
4591.68388,-0.00198
4593.61235,0.00001
4595.54081,0.00308
4597.46928,0.00274
4599.39775,0.00166
4601.32622,0.00460
4603.25469,0.00899
4605.18316,0.00884
4607.11163,0.00489
4609.04010,0.00517
4610.96856,0.01151
4612.89703,0.01775
4614.82550,0.01768
4616.75397,0.01199
4618.68244,0.00758
4620.61091,0.00669
4622.53938,0.00893
4624.46784,0.01449
4626.39631,0.01983
4628.32478,0.01855
4630.25325,0.01026
4632.18172,0.00276
4634.11019,-0.00176
4636.03866,-0.00364
4637.96713,-0.00037
4639.89559,0.00559
4641.82406,0.00911
4643.75253,0.00624
4645.68100,0.00038
4647.60947,0.00044
4649.53794,0.00377
4651.46641,0.00213
4653.39487,-0.00214
4655.32334,-0.00240
4657.25181,0.00151
4659.18028,0.00285
4661.10875,0.00105
4663.03722,0.00361
4664.96569,0.00775
4666.89416,0.00275
4668.82262,-0.00969
4670.75109,-0.01602
4672.67956,-0.01174
4674.60803,-0.00383
4676.53650,-0.00059
4678.46497,-0.00360
4680.39344,-0.00468
4682.32190,-0.00047
4684.25037,0.00465
4686.17884,0.01235
4688.10731,0.02203
4690.03578,0.02123
4691.96425,0.01524
4693.89272,0.02071
4695.82119,0.02446
4697.74965,0.01219
4699.67812,0.00102
4701.60659,0.00232
4703.53506,0.00377
4705.46353,0.00347
4707.39200,0.00758
4709.32047,0.00908
4711.24893,0.00606
4713.17740,0.00651
4715.10587,0.00892
4717.03434,0.00597
4718.96281,0.00167
4720.89128,0.00571
4722.81975,0.01522
4724.74821,0.01730
4726.67668,0.00888
4728.60515,-0.00132
4730.53362,-0.00343
4732.46209,-0.00049
4734.39056,-0.00118
4736.31903,-0.00376
4738.24750,-0.00746
4740.17596,-0.00744
4742.10443,-0.00171
4744.03290,0.00169
4745.96137,0.00435
4747.88984,0.00649
4749.81831,0.00394
4751.74678,0.00309
4753.67524,0.00651
4755.60371,0.00626
4757.53218,0.00425
4759.46065,0.00971
4761.38912,0.01612
4763.31759,0.01755
4765.24606,0.01716
4767.17453,0.01444
4769.10299,0.01385
4771.03146,0.01518
4772.95993,0.00737
4774.88840,-0.00198
4776.81687,0.00045
4778.74534,0.00827
4780.67381,0.01239
4782.60227,0.00994
4784.53074,0.00257
4786.45921,-0.00243
4788.38768,-0.00081
4790.31615,0.00181
4792.24462,0.00132
4794.17309,0.00023
4796.10156,-0.00123
4798.03002,-0.00583
4799.95849,-0.01189
4801.88696,-0.01287
4803.81543,-0.00811
4805.74390,-0.00188
4807.67237,0.00359
4809.60084,0.00806
4811.52930,0.01151
4813.45777,0.01313
4815.38624,0.01558
4817.31471,0.01732
4819.24318,0.01239
4821.17165,0.00417
4823.10012,-0.00023
4825.02859,0.00208
4826.95705,0.00798
4828.88552,0.01227
4830.81399,0.01453
4832.74246,0.01608
4834.67093,0.01674
4836.59940,0.01443
4838.52787,0.00811
4840.45633,0.00356
4842.38480,0.00509
4844.31327,0.00704
4846.24174,0.00723
4848.17021,0.00687
4850.09868,0.00495
4852.02715,0.00579
4853.95562,0.00701
4855.88408,0.00429
4857.81255,0.00417
4859.74102,0.00708
4861.66949,0.00638
4863.59796,0.00273
4865.52643,0.00140
4867.45490,0.00422
4869.38336,0.01070
4871.31183,0.01664
4873.24030,0.01387
4875.16877,0.00484
4877.09724,-0.00069
4879.02571,-0.00084
4880.95418,0.00276
4882.88265,0.00757
4884.81111,0.00685
4886.73958,-0.00079
4888.66805,-0.00942
4890.59652,-0.00886
4892.52499,0.00418
4894.45346,0.01037
4896.38193,0.00089
4898.31039,-0.00414
4900.23886,0.00182
4902.16733,0.00677
4904.09580,0.00946
4906.02427,0.01246
4907.95274,0.01285
4909.88121,0.01219
4911.80967,0.01451
4913.73814,0.01598
4915.66661,0.01648
4917.59508,0.01843
4919.52355,0.01219
4921.45202,-0.00238
4923.38049,-0.00568
4925.30896,0.00342
4927.23742,0.01112
4929.16589,0.02020
4931.09436,0.02353
4933.02283,0.01406
4934.95130,0.01027
4936.87977,0.00861
4938.80824,-0.00053
4940.73670,-0.00331
4942.66517,-0.00055
4944.59364,-0.00264
4946.52211,-0.01041
4948.45058,-0.01735
4950.37905,-0.01490
4952.30752,-0.00214
4954.23599,0.01051
4956.16445,0.01606
4958.09292,0.01632
4960.02139,0.01146
4961.94986,0.00689
4963.87833,0.00606
4965.80680,0.00395
4967.73527,0.00241
4969.66373,0.00630
4971.59220,0.00914
4973.52067,0.00602
4975.44914,0.00283
4977.37761,-0.00044
4979.30608,-0.00394
4981.23455,-0.00059
4983.16302,0.00667
4985.09148,0.01107
4987.01995,0.01611
4988.94842,0.02509
4990.87689,0.03389
4992.80536,0.04174
4994.73383,0.04432
4996.66230,0.03632
4998.59076,0.02763
5000.51923,0.02120
5002.44770,0.01359
5004.37617,0.00865
5006.30464,0.00903
5008.23311,0.01228
5010.16158,0.01130
5012.09005,0.00120
5014.01851,-0.00590
5015.94698,-0.00072
5017.87545,0.00427
5019.80392,0.00302
5021.73239,0.00196
5023.66086,0.00094
5025.58933,0.00046
5027.51779,0.00421
5029.44626,0.01296
5031.37473,0.02230
5033.30320,0.02150
5035.23167,0.00846
5037.16014,0.00140
5039.08861,0.00694
5041.01708,0.00723
5042.94554,-0.00388
5044.87401,-0.01649
5046.80248,-0.02063
5048.73095,-0.01045
5050.65942,0.00510
5052.58789,0.01504
5054.51636,0.02180
5056.44482,0.02629
5058.37329,0.01777
5060.30176,-0.00549
5062.23023,-0.01971
5064.15870,-0.00858
5066.08717,0.00523
5068.01564,-0.00014
5069.94410,-0.00664
5071.87257,0.00030
5073.80104,0.00757
5075.72951,0.00384
5077.65798,-0.00216
5079.58645,0.00238
5081.51492,0.01625
5083.44339,0.02182
5085.37185,0.01072
5087.30032,0.00083
5089.22879,0.00602
5091.15726,0.02212
5093.08573,0.03178
5095.01420,0.02488
5096.94267,0.01452
5098.87113,0.00848
5100.79960,0.01052
5102.72807,0.02436
5104.65654,0.03623
5106.58501,0.03415
5108.51348,0.02619
5110.44195,0.02249
5112.37042,0.02034
5114.29888,0.01878
5116.22735,0.01986
5118.15582,0.02007
5120.08429,0.02075
5122.01276,0.02569
5123.94123,0.02741
5125.86970,0.02129
5127.79816,0.01791
5129.72663,0.01827
5131.65510,0.01312
5133.58357,0.01161
5135.51204,0.02515
5137.44051,0.03854
5139.36898,0.03735
5141.29745,0.03117
5143.22591,0.03080
5145.15438,0.03512
5147.08285,0.03597
5149.01132,0.02901
5150.93979,0.02206
5152.86826,0.02350
5154.79673,0.02665
5156.72519,0.02511
5158.65366,0.02775
5160.58213,0.04198
5162.51060,0.05832
5164.43907,0.05298
5166.36754,0.02292
5168.29601,-0.00637
5170.22448,-0.01308
5172.15294,0.00289
5174.08141,0.02117
5176.00988,0.02961
5177.93835,0.02779
5179.86682,0.01914
5181.79529,0.01293
5183.72376,0.01285
5185.65222,0.01765
5187.58069,0.02538
5189.50916,0.02886
5191.43763,0.02795
5193.36610,0.03485
5195.29457,0.04510
5197.22304,0.03650
5199.15151,0.01222
5201.07997,-0.00341
5203.00844,-0.00461
5204.93691,0.00689
5206.86538,0.02568
5208.79385,0.03953
5210.72232,0.05418
5212.65079,0.06285
5214.57925,0.05376
5216.50772,0.04723
5218.43619,0.04991
5220.36466,0.04046
5222.29313,0.02150
5224.22160,0.01581
5226.15007,0.02930
5228.07854,0.03745
5230.00700,0.02848
5231.93547,0.01688
5233.86394,0.01329
5235.79241,0.01534
5237.72088,0.01470
5239.64935,0.01677
5241.57782,0.02822
5243.50628,0.03462
5245.43475,0.02727
5247.36322,0.01981
5249.29169,0.03112
5251.22016,0.05684
5253.14863,0.06583
5255.07710,0.05268
5257.00556,0.05176
5258.93403,0.06594
5260.86250,0.06748
5262.79097,0.06149
5264.71944,0.05828
5266.64791,0.05281
5268.57638,0.04995
5270.50485,0.05049
5272.43331,0.06091
5274.36178,0.08211
5276.29025,0.08973
5278.21872,0.07667
5280.14719,0.06669
5282.07566,0.06849
5284.00413,0.06984
5285.93259,0.06368
5287.86106,0.05539
5289.78953,0.05251
5291.71800,0.05334
5293.64647,0.05645
5295.57494,0.05996
5297.50341,0.05614
5299.43188,0.04711
5301.36034,0.05159
5303.28881,0.07561
5305.21728,0.09124
5307.14575,0.08379
5309.07422,0.06127
5311.00269,0.02928
5312.93116,0.01145
5314.85962,0.02238
5316.78809,0.03880
5318.71656,0.04629
5320.64503,0.04485
5322.57350,0.03254
5324.50197,0.02553
5326.43044,0.04025
5328.35891,0.06278
5330.28737,0.06263
5332.21584,0.03868
5334.14431,0.02181
5336.07278,0.03091
5338.00125,0.05766
5339.92972,0.07345
5341.85819,0.06972
5343.78665,0.06752
5345.71512,0.06598
5347.64359,0.05118
5349.57206,0.03629
5351.50053,0.03640
5353.42900,0.05272
5355.35747,0.07473
5357.28594,0.08379
5359.21440,0.07821
5361.14287,0.06279
5363.07134,0.03535
5364.99981,0.01410
5366.92828,0.02196
5368.85675,0.04500
5370.78522,0.05808
5372.71368,0.05998
5374.64215,0.06066
5376.57062,0.05675
5378.49909,0.05303
5380.42756,0.05909
5382.35603,0.06925
5384.28450,0.07708
5386.21297,0.07447
5388.14143,0.06003
5390.06990,0.04883
5391.99837,0.04766
5393.92684,0.04862
5395.85531,0.04873
5397.78378,0.05714
5399.71225,0.07226
5401.64071,0.07790
5403.56918,0.06378
5405.49765,0.04328
5407.42612,0.03450
5409.35459,0.03761
5411.28306,0.04365
5413.21153,0.04559
5415.13999,0.04980
5417.06846,0.05892
5418.99693,0.06119
5420.92540,0.05863
5422.85387,0.06286
5424.78234,0.06653
5426.71081,0.06232
5428.63928,0.06062
5430.56774,0.05455
5432.49621,0.03111
5434.42468,0.02239
5436.35315,0.05522
5438.28162,0.09019
5440.21009,0.10137
5442.13856,0.09514
5444.06702,0.07646
5445.99549,0.06176
5447.92396,0.06146
5449.85243,0.06061
5451.78090,0.06254
5453.70937,0.06901
5455.63784,0.06081
5457.56631,0.04700
5459.49477,0.06219
5461.42324,0.09711
5463.35171,0.10931
5465.28018,0.09531
5467.20865,0.08426
5469.13712,0.07335
5471.06559,0.05273
5472.99405,0.04368
5474.92252,0.06343
5476.85099,0.09293
5478.77946,0.10013
5480.70793,0.09034
5482.63640,0.07859
5484.56487,0.06803
5486.49334,0.05875
5488.42180,0.05399
5490.35027,0.06666
5492.27874,0.08372
5494.20721,0.06652
5496.13568,0.04229
5498.06415,0.05239
5499.99262,0.06500
5501.92108,0.04497
5503.84955,0.01561
5505.77802,0.00716
5507.70649,0.02821
5509.63496,0.05206
5511.56343,0.05411
5513.49190,0.04407
5515.42037,0.03745
5517.34883,0.04133
5519.27730,0.05349
5521.20577,0.06834
5523.13424,0.07397
5525.06271,0.05435
5526.99118,0.03088
5528.91965,0.04318
5530.84811,0.08130
5532.77658,0.10166
5534.70505,0.10403
5536.63352,0.11330
5538.56199,0.11390
5540.49046,0.08852
5542.41893,0.06824
5544.34740,0.07986
5546.27586,0.10364
5548.20433,0.11454
5550.13280,0.11451
5552.06127,0.09880
5553.98974,0.06447
5555.91821,0.04143
5557.84668,0.04974
5559.77514,0.06702
5561.70361,0.07332
5563.63208,0.08637
5565.56055,0.11040
5567.48902,0.11642
5569.41749,0.10863
5571.34596,0.10852
5573.27443,0.10106
5575.20289,0.07902
5577.13136,0.05954
5579.05983,0.04011
5580.98830,0.02321
5582.91677,0.02224
5584.84524,0.03111
5586.77371,0.03455
5588.70217,0.03219
5590.63064,0.04085
5592.55911,0.04860
5594.48758,0.04197
5596.41605,0.04616
5598.34452,0.06796
5600.27299,0.09362
5602.20145,0.11775
5604.12992,0.12884
5606.05839,0.12692
5607.98686,0.12216
5609.91533,0.11336
5611.84380,0.10220
5613.77227,0.07938
5615.70074,0.01676
5617.62920,-0.06012
5619.55767,-0.07967
5621.48614,-0.04163
5623.41461,0.00689
5625.34308,0.04703
5627.27155,0.06498
5629.20002,0.05955
5631.12848,0.04294
5633.05695,0.03312
5634.98542,0.04257
5636.91389,0.05895
5638.84236,0.07132
5640.77083,0.07598
5642.69930,0.07413
5644.62777,0.06710
5646.55623,0.05470
5648.48470,0.04517
5650.41317,0.04194
5652.34164,0.04093
5654.27011,0.03957
5656.19858,0.04151
5658.12705,0.04993
5660.05551,0.06699
5661.98398,0.09048
5663.91245,0.09875
5665.84092,0.08758
5667.76939,0.09055
5669.69786,0.09710
5671.62633,0.07039
5673.55480,0.05305
5675.48326,0.07755
5677.41173,0.09953
5679.34020,0.09969
5681.26867,0.08885
5683.19714,0.07842
5685.12561,0.07733
5687.05408,0.07053
5688.98254,0.05795
5690.91101,0.05919
5692.83948,0.07243
5694.76795,0.08393
5696.69642,0.08745
5698.62489,0.08832
5700.55336,0.08869
5702.48183,0.08610
5704.41029,0.08751
5706.33876,0.09308
5708.26723,0.09757
5710.19570,0.09958
5712.12417,0.09575
5714.05264,0.08784
5715.98111,0.06925
5717.90957,0.04568
5719.83804,0.05632
5721.76651,0.09052
5723.69498,0.10305
5725.62345,0.10045
5727.55192,0.10174
5729.48039,0.09972
5731.40886,0.08866
5733.33732,0.07223
5735.26579,0.06144
5737.19426,0.06405
5739.12273,0.07218
5741.05120,0.08252
5742.97967,0.08299
5744.90814,0.07247
5746.83660,0.07809
5748.76507,0.08644
5750.69354,0.06301
5752.62201,0.03585
5754.55048,0.03960
5756.47895,0.05845
5758.40742,0.08369
5760.33588,0.11542
5762.26435,0.13511
5764.19282,0.13031
5766.12129,0.10083
5768.04976,0.06629
5769.97823,0.04258
5771.90670,0.03034
5773.83517,0.05501
5775.76363,0.11296
5777.69210,0.14528
5779.62057,0.14034
5781.54904,0.13303
5783.47751,0.11108
5785.40598,0.07890
5787.33445,0.09425
5789.26291,0.13550
5791.19138,0.13441
5793.11985,0.10074
5795.04832,0.06420
5796.97679,0.04783
5798.90526,0.06123
5800.83373,0.06842
5802.76220,0.06199
5804.69066,0.06168
5806.61913,0.07088
5808.54760,0.09287
5810.47607,0.10870
5812.40454,0.10496
5814.33301,0.10790
5816.26148,0.11764
5818.18994,0.10129
5820.11841,0.06711
5822.04688,0.05095
5823.97535,0.05598
5825.90382,0.05915
5827.83229,0.05592
5829.76076,0.07090
5831.68923,0.09692
5833.61769,0.11059
5835.54616,0.11636
5837.47463,0.11230
5839.40310,0.09841
5841.33157,0.08869
5843.26004,0.09795
5845.18851,0.12436
5847.11697,0.13011
5849.04544,0.09424
5850.97391,0.05669
5852.90238,0.05380
5854.83085,0.07117
5856.75932,0.08137
5858.68779,0.08639
5860.61626,0.09068
5862.54472,0.09079
5864.47319,0.10054
5866.40166,0.11766
5868.33013,0.12701
5870.25860,0.12312
5872.18707,0.11113
5874.11554,0.09689
5876.04400,0.07899
5877.97247,0.06742
5879.90094,0.07495
5881.82941,0.09427
5883.75788,0.10644
5885.68635,0.10918
5887.61482,0.10554
5889.54329,0.09188
5891.47175,0.06960
5893.40022,0.03971
5895.32869,0.01905
5897.25716,0.01857
5899.18563,0.02506
5901.11410,0.04141
5903.04257,0.05218
5904.97103,0.03268
5906.89950,0.02667
5908.82797,0.06549
5910.75644,0.10996
5912.68491,0.12331
5914.61338,0.09677
5916.54185,0.05422
5918.47032,0.03482
5920.39878,0.05191
5922.32725,0.07313
5924.25572,0.07614
5926.18419,0.08866
5928.11266,0.10526
5930.04113,0.09544
5931.96960,0.07701
5933.89806,0.06094
5935.82653,0.03307
5937.75500,0.02276
5939.68347,0.05815
5941.61194,0.08884
5943.54041,0.08001
5945.46888,0.07586
5947.39734,0.09886
5949.32581,0.11720
5951.25428,0.09688
5953.18275,0.07256
5955.11122,0.08123
5957.03969,0.09988
5958.96816,0.11137
5960.89663,0.11036
5962.82509,0.11226
5964.75356,0.11584
5966.68203,0.09946
5968.61050,0.08048
5970.53897,0.06003
5972.46744,0.03788
5974.39591,0.04919
5976.32437,0.08354
5978.25284,0.10950
5980.18131,0.11866
5982.10978,0.10848
5984.03825,0.10489
5985.96672,0.12069
5987.89519,0.11732
5989.82366,0.08000
5991.75212,0.02533
5993.68059,-0.00568
5995.60906,0.01299
5997.53753,0.04032
5999.46600,0.05407
6001.39447,0.06177
6003.32294,0.07300
6005.25140,0.10061
6007.17987,0.12233
6009.10834,0.11551
6011.03681,0.10328
6012.96528,0.09538
6014.89375,0.06447
6016.82222,0.02187
6018.75069,0.01841
6020.67915,0.04196
6022.60762,0.04235
6024.53609,0.03296
6026.46456,0.03024
6028.39303,0.02809
6030.32150,0.05430
6032.24997,0.11213
6034.17843,0.15577
6036.10690,0.14743
6038.03537,0.09824
6039.96384,0.07032
6041.89231,0.08456
6043.82078,0.09829
6045.74925,0.09636
6047.67772,0.08869
6049.60618,0.06639
6051.53465,0.03935
6053.46312,0.02554
6055.39159,0.02202
6057.32006,0.02671
6059.24853,0.05066
6061.17700,0.09275
6063.10546,0.11567
6065.03393,0.11686
6066.96240,0.14188
6068.89087,0.15688
6070.81934,0.12468
6072.74781,0.09649
6074.67628,0.07170
6076.60475,0.02697
6078.53321,0.00308
6080.46168,0.02039
6082.39015,0.05290
6084.31862,0.06026
6086.24709,0.05750
6088.17556,0.09422
6090.10403,0.13355
6092.03249,0.11878
6093.96096,0.06565
6095.88943,0.03516
6097.81790,0.05211
6099.74637,0.08531
6101.67484,0.10259
6103.60331,0.10784
6105.53177,0.12098
6107.46024,0.10072
6109.38871,0.02039
6111.31718,-0.00252
6113.24565,0.08207
6115.17412,0.16210
6117.10259,0.15611
6119.03106,0.08994
6120.95952,0.06076
6122.88799,0.10059
6124.81646,0.16527
6126.74493,0.19959
6128.67340,0.16302
6130.60187,0.09789
6132.53034,0.08427
6134.45880,0.09621
6136.38727,0.07204
6138.31574,0.03844
6140.24421,0.02099
6142.17268,0.01195
6144.10115,0.04675
6146.02962,0.10943
6147.95809,0.13146
6149.88655,0.10799
6151.81502,0.07294
6153.74349,0.04244
6155.67196,0.03341
6157.60043,0.05976
6159.52890,0.09630
6161.45737,0.12217
6163.38583,0.13484
6165.31430,0.10795
6167.24277,0.06256
6169.17124,0.06188
6171.09971,0.11228
6173.02818,0.15586
6174.95665,0.15276
6176.88512,0.12844
6178.81358,0.10589
6180.74205,0.07902
6182.67052,0.08195
6184.59899,0.11563
6186.52746,0.10710
6188.45593,0.05399
6190.38440,0.04496
6192.31286,0.06999
6194.24133,0.05853
6196.16980,0.01660
6198.09827,-0.01242
6200.02674,0.01308
6201.95521,0.07751
6203.88368,0.10022
6205.81215,0.08368
6207.74061,0.08814
6209.66908,0.09299
6211.59755,0.06514
6213.52602,0.04599
6215.45449,0.05793
6217.38296,0.07390
6219.31143,0.08449
6221.23989,0.08204
6223.16836,0.05937
6225.09683,0.04237
6227.02530,0.06260
6228.95377,0.10025
6230.88224,0.10581
6232.81071,0.07517
6234.73918,0.03761
6236.66764,0.01730
6238.59611,0.03069
6240.52458,0.05456
6242.45305,0.04828
6244.38152,0.02507
6246.30999,0.00595
6248.23846,0.01380
6250.16692,0.05791
6252.09539,0.06914
6254.02386,0.05005
6255.95233,0.05795
6257.88080,0.06682
6259.80927,0.05339
6261.73774,0.05583
6263.66621,0.09216
6265.59467,0.11697
6267.52314,0.10933
6269.45161,0.10063
6271.38008,0.11483
6273.30855,0.14689
6275.23702,0.14287
6277.16549,0.07863
6279.09395,0.01912
6281.02242,0.02556
6282.95089,0.08669
6284.87936,0.14809
6286.80783,0.18015
6288.73630,0.17891
6290.66477,0.14745
6292.59323,0.10467
6294.52170,0.05385
6296.45017,0.01087
6298.37864,0.00747
6300.30711,0.02216
6302.23558,0.04940
6304.16405,0.09242
6306.09252,0.11004
6308.02098,0.12422
6309.94945,0.16586
6311.87792,0.19975
6313.80639,0.19252
6315.73486,0.15274
6317.66333,0.11623
6319.59180,0.07194
6321.52026,0.00444
6323.44873,-0.02184
6325.37720,-0.00501
6327.30567,0.00583
6329.23414,0.01732
6331.16261,0.02293
6333.09108,0.02418
6335.01955,0.06078
6336.94801,0.11015
6338.87648,0.11126
6340.80495,0.09038
6342.73342,0.10307
6344.66189,0.09235
6346.59036,0.02518
6348.51883,0.00700
6350.44729,0.06641
6352.37576,0.09970
6354.30423,0.08813
6356.23270,0.08843
6358.16117,0.11256
6360.08964,0.13553
6362.01811,0.12923
6363.94658,0.10438
6365.87504,0.06168
6367.80351,0.02440
6369.73198,0.05353
6371.66045,0.09013
6373.58892,0.07373
6375.51739,0.04789
6377.44586,0.02564
6379.37432,0.02525
6381.30279,0.07578
6383.23126,0.09870
6385.15973,0.04026
6387.08820,0.01888
6389.01667,0.05050
6390.94514,0.03968
6392.87361,-0.02117
6394.80207,-0.03401
6396.73054,0.02092
6398.65901,0.07243
6400.58748,0.07850
6402.51595,0.03206
6404.44442,-0.03514
6406.37289,-0.07005
6408.30135,-0.06880
6410.22982,-0.06232
6412.15829,-0.03730
6414.08676,-0.01012
6416.01523,-0.00499
6417.94370,0.01862
6419.87217,0.06091
6421.80064,0.08851
6423.72910,0.09604
6425.65757,0.08834
6427.58604,0.10920
6429.51451,0.14288
6431.44298,0.10355
6433.37145,0.02690
6435.29992,0.02994
6437.22838,0.09629
6439.15685,0.09973
6441.08532,0.04385
6443.01379,0.02437
6444.94226,0.04392
6446.87073,0.05223
6448.79920,0.05487
6450.72766,0.07428
6452.65613,0.06781
6454.58460,0.00478
6456.51307,-0.03785
6458.44154,-0.02151
6460.37001,-0.00031
6462.29848,0.01527
6464.22695,0.04365
6466.15541,0.09942
6468.08388,0.15075
6470.01235,0.12563
6471.94082,0.04930
6473.86929,0.00821
6475.79776,0.02526
6477.72623,0.06155
6479.65469,0.06479
6481.58316,0.04194
6483.51163,0.03784
6485.44010,0.07126
6487.36857,0.10406
6489.29704,0.11170
6491.22551,0.12470
6493.15398,0.11806
6495.08244,0.06568
6497.01091,0.01916
6498.93938,-0.00241
6500.86785,-0.00610
6502.79632,0.01975
6504.72479,0.08284
6506.65326,0.13670
6508.58172,0.13468
6510.51019,0.11628
6512.43866,0.10489
6514.36713,0.05167
6516.29560,-0.02950
6518.22407,-0.05584
6520.15254,-0.02487
6522.08101,0.01567
6524.00947,0.06026
6525.93794,0.09131
6527.86641,0.07401
6529.79488,0.03165
6531.72335,0.01868
6533.65182,0.05704
6535.58029,0.12277
6537.50875,0.14597
6539.43722,0.07245
6541.36569,-0.03799
6543.29416,-0.07669
6545.22263,-0.02853
6547.15110,0.04011
6549.07957,0.09201
6551.00804,0.10201
6552.93650,0.09593
6554.86497,0.12298
6556.79344,0.13472
6558.72191,0.09054
6560.65038,0.04911
6562.57885,0.04183
6564.50732,0.05745
6566.43578,0.09871
6568.36425,0.11440
6570.29272,0.08351
6572.22119,0.07023
6574.14966,0.09707
6576.07813,0.13330
6578.00660,0.14696
6579.93507,0.12970
6581.86353,0.12091
6583.79200,0.15391
6585.72047,0.18449
6587.64894,0.16941
6589.57741,0.15772
6591.50588,0.18358
6593.43435,0.17140
6595.36281,0.06463
6597.29128,-0.04992
6599.21975,-0.08104
6601.14822,-0.02295
6603.07669,0.02600
6605.00516,-0.00027
6606.93363,-0.04747
6608.86210,-0.02693
6610.79056,0.03700
6612.71903,0.04375
6614.64750,0.01313
6616.57597,0.00504
6618.50444,0.01774
6620.43291,0.03121
6622.36138,0.02600
6624.28984,0.02693
6626.21831,0.04017
6628.14678,0.05731
6630.07525,0.08268
6632.00372,0.08430
6633.93219,0.08611
6635.86066,0.12308
6637.78912,0.13275
6639.71759,0.10727
6641.64606,0.13630
6643.57453,0.18516
6645.50300,0.14028
6647.43147,0.08131
6649.35994,0.11886
6651.28841,0.15868
6653.21687,0.08896
6655.14534,-0.05365
6657.07381,-0.12948
6659.00228,-0.05878
6660.93075,0.08677
6662.85922,0.16784
6664.78769,0.13208
6666.71615,0.04865
6668.64462,-0.00657
6670.57309,-0.01350
6672.50156,0.01207
6674.43003,0.05175
6676.35850,0.10923
6678.28697,0.14066
6680.21544,0.10968
6682.14390,0.09478
6684.07237,0.10500
6686.00084,0.08031
6687.92931,0.06113
6689.85778,0.05804
6691.78625,0.03476
6693.71472,0.01512
6695.64318,-0.00226
6697.57165,-0.01390
6699.50012,0.03247
6701.42859,0.11464
6703.35706,0.17905
6705.28553,0.20470
6707.21400,0.16079
6709.14247,0.09764
6711.07093,0.05442
6712.99940,0.01488
6714.92787,-0.00423
6716.85634,-0.01500
6718.78481,-0.02477
6720.71328,-0.01143
6722.64175,0.04989
6724.57021,0.16622
6726.49868,0.26425
6728.42715,0.26499
6730.35562,0.13258
6732.28409,-0.04825
6734.21256,-0.09802
6736.14103,0.00476
6738.06950,0.06961
6739.99796,0.02922
6741.92643,-0.03353
6743.85490,-0.06821
6745.78337,-0.04706
6747.71184,-0.00766
6749.64031,-0.02290
6751.56878,-0.03985
6753.49724,-0.02301
6755.42571,0.00534
6757.35418,0.07708
6759.28265,0.16528
6761.21112,0.16444
6763.13959,0.08308
6765.06806,0.03356
6766.99653,0.04071
6768.92499,0.02783
6770.85346,-0.01677
6772.78193,-0.03766
6774.71040,0.00031
6776.63887,0.10827
6778.56734,0.18500
6780.49581,0.14428
6782.42427,0.05295
6784.35274,-0.00202
6786.28121,-0.03147
6788.20968,-0.03044
6790.13815,0.04825
6792.06662,0.14235
6793.99509,0.12497
6795.92355,0.03078
6797.85202,-0.00119
6799.78049,0.07741
6801.70896,0.20093
6803.63743,0.25360
6805.56590,0.18283
6807.49437,0.05131
6809.42284,-0.04992
6811.35130,-0.07297
6813.27977,-0.03745
6815.20824,-0.01699
6817.13671,-0.03477
6819.06518,-0.04503
6820.99365,-0.01381
6822.92212,0.04675
6824.85058,0.08453
6826.77905,0.13932
6828.70752,0.22738
6830.63599,0.21736
6832.56446,0.09104
6834.49293,-0.03954
6836.42140,-0.10653
6838.34987,-0.07141
6840.27833,0.03611
6842.20680,0.11838
6844.13527,0.13009
6846.06374,0.13018
6847.99221,0.17524
6849.92068,0.20209
6851.84915,0.12259
6853.77761,0.03225
6855.70608,0.05144
6857.63455,0.09684
6859.56302,0.09697
6861.49149,0.14052
6863.41996,0.17891
6865.34843,0.12013
6867.27690,0.06043
6869.20536,0.08602
6871.13383,0.13655
6873.06230,0.15331
6874.99077,0.13615
6876.91924,0.11700
6878.84771,0.14511
6880.77618,0.17929
6882.70464,0.11383
6884.63311,-0.00760
6886.56158,-0.07898
6888.49005,-0.07177
6890.41852,-0.03423
6892.34699,0.00849
6894.27546,0.06338
6896.20393,0.11926
6898.13239,0.10555
6900.06086,0.04216
6901.98933,0.05174
6903.91780,0.11890
6905.84627,0.11724
6907.77474,0.05190
6909.70321,0.03661
6911.63167,0.03346
6913.56014,0.01827
6915.48861,0.07182
6917.41708,0.10365
6919.34555,0.01645
6921.27402,-0.08497
6923.20249,-0.10874
6925.13096,-0.04931
6927.05942,0.01711
6928.98789,-0.03278
6930.91636,-0.15238
6932.84483,-0.17376
6934.77330,-0.11683
6936.70177,-0.02450
6938.63024,0.13413
6940.55870,0.28435
6942.48717,0.29181
6944.41564,0.19790
6946.34411,0.14111
6948.27258,0.17790
6950.20105,0.20375
6952.12952,0.17235
6954.05799,0.13598
6955.98645,0.13466
6957.91492,0.14159
6959.84339,0.12885
6961.77186,0.15022
6963.70033,0.17760
6965.62880,0.14349
6967.55727,0.09542
6969.48573,0.07816
6971.41420,0.07817
6973.34267,0.11505
6975.27114,0.16886
6977.19961,0.14969
6979.12808,0.08738
6981.05655,0.06816
6982.98501,0.07123
6984.91348,0.04488
6986.84195,0.05009
6988.77042,0.09374
6990.69889,0.07267
6992.62736,0.01742
6994.55583,0.01488
6996.48430,0.03668
6998.41276,0.01442
7000.34123,-0.03193
7002.26970,-0.02999
7004.19817,0.02440
7006.12664,0.06800
7008.05511,0.06313
7009.98358,0.03679
7011.91204,0.02678
7013.84051,0.03885
7015.76898,0.04690
7017.69745,0.03626
7019.62592,-0.00029
7021.55439,-0.01435
7023.48286,0.03698
7025.41133,0.07458
7027.33979,0.04455
7029.26826,-0.00114
7031.19673,0.01286
7033.12520,0.06719
7035.05367,0.06588
7036.98214,0.00488
7038.91061,-0.02154
7040.83907,0.01378
7042.76754,0.08167
7044.69601,0.09358
7046.62448,0.03282
7048.55295,0.01049
7050.48142,0.06620
7052.40989,0.12913
7054.33836,0.13037
7056.26682,0.10930
7058.19529,0.13002
7060.12376,0.07468
7062.05223,-0.04480
7063.98070,-0.06651
7065.90917,-0.03487
7067.83764,-0.02711
7069.76610,0.02837
7071.69457,0.11847
7073.62304,0.15272
7075.55151,0.17664
7077.47998,0.20882
7079.40845,0.15955
7081.33692,0.01142
7083.26539,-0.05887
7085.19385,-0.00456
7087.12232,0.04061
7089.05079,0.01227
7090.97926,0.01361
7092.90773,0.06720
7094.83620,0.10687
7096.76467,0.13095
7098.69313,0.13519
7100.62160,0.06162
7102.55007,-0.05451
7104.47854,-0.10413
7106.40701,-0.02972
7108.33548,0.06104
7110.26395,0.07916
7112.19242,0.07367
7114.12088,0.09754
7116.04935,0.16442
7117.97782,0.22474
7119.90629,0.16808
7121.83476,0.01741
7123.76323,-0.04483
7125.69170,0.09574
7127.62016,0.24309
7129.54863,0.17355
7131.47710,0.00688
7133.40557,-0.06274
7135.33404,-0.03187
7137.26251,-0.01354
7139.19098,0.00008
7141.11944,0.02506
7143.04791,0.03661
7144.97638,0.08021
7146.90485,0.09642
7148.83332,0.04222
7150.76179,0.01711
7152.69026,0.02256
7154.61873,0.02782
7156.54719,0.05002
7158.47566,0.05774
7160.40413,0.07129
7162.33260,0.10661
7164.26107,0.09252
7166.18954,0.05907
7168.11801,0.02148
7170.04647,-0.05291
7171.97494,-0.08176
7173.90341,-0.06345
7175.83188,-0.02286
7177.76035,0.04912
7179.68882,0.06101
7181.61729,-0.03817
7183.54576,-0.09395
7185.47422,0.05477
7187.40269,0.25965
7189.33116,0.29225
7191.25963,0.08508
7193.18810,-0.07901
7195.11657,-0.06473
7197.04504,0.01052
7198.97350,0.02370
7200.90197,-0.00820
7202.83044,0.02342
7204.75891,0.10199
7206.68738,0.06448
7208.61585,-0.03325
7210.54432,-0.02834
7212.47279,0.03504
7214.40125,0.03032
7216.32972,-0.07287
7218.25819,-0.18244
7220.18666,-0.11800
7222.11513,-0.03272
7224.04360,-0.05979
7225.97207,-0.12289
7227.90053,-0.10557
7229.82900,-0.01244
7231.75747,0.09393
7233.68594,0.15909
7235.61441,0.18342
7237.54288,0.15199
7239.47135,0.13535
7241.39982,0.17024
7243.32828,0.13755
7245.25675,0.14461
7247.18522,0.22561
7249.11369,0.21004
7251.04216,0.11349
7252.97063,0.05531
7254.89910,0.04479
7256.82756,0.03857
7258.75603,0.06286
7260.68450,0.10924
7262.61297,0.07738
7264.54144,-0.01053
7266.46991,-0.07498
7268.39838,-0.16333
7270.32685,-0.25153
7272.25531,-0.13829
7274.18378,0.08415
7276.11225,0.15222
7278.04072,0.17730
7279.96919,0.22939
7281.89766,0.15041
7283.82613,0.05809
7285.75459,0.12376
7287.68306,0.22672
7289.61153,0.30876
7291.54000,0.37851
7293.46847,0.32893
7295.39694,0.21190
7297.32541,0.14087
7299.25387,0.09862
7301.18234,0.07002
7303.11081,0.08513
7305.03928,0.15384
7306.96775,0.25861
7308.89622,0.34845
7310.82469,0.28863
7312.75316,0.11023
7314.68162,-0.03204
7316.61009,-0.07607
7318.53856,-0.06243
7320.46703,0.02778
7322.39550,0.15054
7324.32397,0.11561
7326.25244,0.00033
7328.18090,-0.06623
7330.10937,-0.15751
7332.03784,-0.22992
7333.96631,-0.22835
7335.89478,-0.16888
7337.82325,-0.01966
7339.75172,0.19900
7341.68019,0.24694
7343.60865,0.11754
7345.53712,-0.04542
7347.46559,-0.11587
7349.39406,-0.06402
7351.32253,0.04899
7353.25100,0.16856
7355.17947,0.23411
7357.10793,0.28037
7359.03640,0.33888
7360.96487,0.30330
7362.89334,0.19801
7364.82181,0.12368
7366.75028,0.12711
7368.67875,0.18573
7370.60722,0.21517
7372.53568,0.18372
7374.46415,0.08386
7376.39262,0.00289
7378.32109,-0.02628
7380.24956,-0.06080
7382.17803,0.00938
7384.10650,0.17984
7386.03496,0.26339
7387.96343,0.22826
7389.89190,0.25467
7391.82037,0.30718
7393.74884,0.19970
7395.67731,0.01631
7397.60578,-0.07515
7399.53425,-0.02295
7401.46271,0.12908
7403.39118,0.21003
7405.31965,0.15250
7407.24812,0.01302
7409.17659,-0.13382
7411.10506,-0.16019
7413.03353,-0.08501
7414.96199,-0.00057
7416.89046,0.07055
7418.81893,0.13106
7420.74740,0.11216
7422.67587,-0.00806
7424.60434,-0.06358
7426.53281,0.00204
7428.46128,0.08741
7430.38974,0.16623
7432.31821,0.26148
7434.24668,0.22956
7436.17515,0.04937
7438.10362,-0.08401
7440.03209,-0.11902
7441.96056,-0.07438
7443.88902,-0.00651
7445.81749,0.03717
7447.74596,0.12840
7449.67443,0.19722
7451.60290,0.14185
7453.53137,0.06912
7455.45984,0.04046
7457.38831,0.05813
7459.31677,0.09417
7461.24524,0.01920
7463.17371,-0.04234
7465.10218,0.12450
7467.03065,0.31951
7468.95912,0.31847
7470.88759,0.21438
7472.81605,0.12961
7474.74452,0.07448
7476.67299,0.04172
7478.60146,0.14870
7480.52993,0.31783
7482.45840,0.26078
7484.38687,0.08025
7486.31533,-0.01804
7488.24380,-0.03204
7490.17227,-0.04340
7492.10074,-0.09768
7494.02921,-0.13710
7495.95768,-0.10929
7497.88615,0.00318
