399.19301,0.76094
401.12148,0.13883
403.04995,-0.03776
404.97842,-0.03219
406.90689,0.11534
408.83536,0.18747
410.76382,0.11295
412.69229,0.09469
414.62076,0.09082
416.54923,0.03215
418.47770,0.09489
420.40617,0.21907
422.33464,0.23184
424.26311,0.23321
426.19157,0.21459
428.12004,0.13569
430.04851,0.02403
431.97698,-0.06701
433.90545,-0.07831
435.83392,-0.01002
437.76239,0.05580
439.69085,0.09056
441.61932,0.12983
443.54779,0.15656
445.47626,0.15632
447.40473,0.14115
449.33320,0.11455
451.26167,0.06437
453.19013,-0.01137
455.11860,-0.07713
457.04707,-0.11751
458.97554,-0.09491
460.90401,-0.04050
462.83248,-0.01284
464.76095,0.02406
466.68942,0.06303
468.61788,0.06468
470.54635,0.05149
472.47482,0.07379
474.40329,0.11638
476.33176,0.07850
478.26023,0.01748
480.18870,-0.00024
482.11716,0.04485
484.04563,0.11341
485.97410,0.13766
487.90257,0.10627
489.83104,0.04688
491.75951,-0.01208
493.68798,-0.02057
495.61645,0.02427
497.54491,0.04011
499.47338,0.03466
501.40185,0.07565
503.33032,0.11160
505.25879,0.10342
507.18726,0.10628
509.11573,0.11985
511.04419,0.10818
512.97266,0.07131
514.90113,0.02520
516.82960,-0.00933
518.75807,-0.00539
520.68654,0.03950
522.61501,0.07391
524.54348,0.07399
526.47194,0.07455
528.40041,0.08929
530.32888,0.13369
532.25735,0.19190
534.18582,0.20510
536.11429,0.18101
538.04276,0.15707
539.97122,0.13005
541.89969,0.09657
543.82816,0.06685
545.75663,0.05534
547.68510,0.08029
549.61357,0.13833
551.54204,0.22767
553.47051,0.29659
555.39897,0.23869
557.32744,0.11522
559.25591,0.07282
561.18438,0.09204
563.11285,0.10605
565.04132,0.09954
566.96979,0.07854
568.89825,0.06455
570.82672,0.06970
572.75519,0.08750
574.68366,0.09852
576.61213,0.09975
578.54060,0.10706
580.46907,0.10975
582.39754,0.09738
584.32600,0.09322
586.25447,0.10751
588.18294,0.11170
590.11141,0.08790
592.03988,0.06987
593.96835,0.08152
595.89682,0.08743
597.82528,0.07683
599.75375,0.08028
601.68222,0.10001
603.61069,0.11609
605.53916,0.11719
607.46763,0.09841
609.39610,0.08693
611.32456,0.09776
613.25303,0.09299
615.18150,0.07078
617.10997,0.07495
619.03844,0.10440
620.96691,0.12024
622.89538,0.11363
624.82385,0.10828
626.75231,0.10836
628.68078,0.09845
630.60925,0.07891
632.53772,0.06961
634.46619,0.09190
636.39466,0.13191
638.32313,0.14715
640.25159,0.12553
642.18006,0.09481
644.10853,0.07446
646.03700,0.07412
647.96547,0.07784
649.89394,0.06841
651.82241,0.07420
653.75088,0.09909
655.67934,0.12558
657.60781,0.13372
659.53628,0.10505
661.46475,0.07602
663.39322,0.07547
665.32169,0.08399
667.25016,0.08825
669.17862,0.09074
671.10709,0.08903
673.03556,0.08489
674.96403,0.08747
676.89250,0.09740
678.82097,0.10520
680.74944,0.10532
682.67791,0.10215
684.60637,0.10130
686.53484,0.09475
688.46331,0.07808
690.39178,0.07011
692.32025,0.08440
694.24872,0.10793
696.17719,0.11613
698.10565,0.10717
700.03412,0.10001
701.96259,0.09783
703.89106,0.09825
705.81953,0.10249
707.74800,0.11052
709.67647,0.11978
711.60494,0.12069
713.53340,0.11601
715.46187,0.11430
717.39034,0.11460
719.31881,0.11696
721.24728,0.12127
723.17575,0.12546
725.10422,0.12473
727.03268,0.11787
728.96115,0.11626
730.88962,0.12469
732.81809,0.12774
734.74656,0.11701
736.67503,0.10424
738.60350,0.09689
740.53197,0.09500
742.46043,0.09803
744.38890,0.10613
746.31737,0.11697
748.24584,0.11976
750.17431,0.11414
752.10278,0.10979
754.03125,0.10949
755.95971,0.10779
757.88818,0.09670
759.81665,0.08922
761.74512,0.09684
763.67359,0.10679
765.60206,0.11356
767.53053,0.11819
769.45900,0.11878
771.38746,0.11652
773.31593,0.11135
775.24440,0.10546
777.17287,0.10219
779.10134,0.10154
781.02981,0.10602
782.95828,0.11343
784.88674,0.11557
786.81521,0.11578
788.74368,0.11873
790.67215,0.12002
792.60062,0.11607
794.52909,0.11205
796.45756,0.11616
798.38602,0.11943
800.31449,0.11592
802.24296,0.11485
804.17143,0.11233
806.09990,0.10603
808.02837,0.10530
809.95684,0.10657
811.88531,0.10745
813.81377,0.11071
815.74224,0.11555
817.67071,0.12209
819.59918,0.12082
821.52765,0.11455
823.45612,0.11485
825.38459,0.11511
827.31305,0.11392
829.24152,0.11871
831.16999,0.12558
833.09846,0.12634
835.02693,0.12115
836.95540,0.11208
838.88387,0.10556
840.81234,0.10771
842.74080,0.11146
844.66927,0.11446
846.59774,0.11698
848.52621,0.11331
850.45468,0.10714
852.38315,0.11086
854.31162,0.12063
856.24008,0.11507
858.16855,0.10094
860.09702,0.10332
862.02549,0.11480
863.95396,0.12147
865.88243,0.12334
867.81090,0.11156
869.73937,0.09121
871.66783,0.08576
873.59630,0.09932
875.52477,0.11290
877.45324,0.11439
879.38171,0.11416
881.31018,0.11723
883.23865,0.11748
885.16711,0.11640
887.09558,0.11706
889.02405,0.12058
890.95252,0.12459
892.88099,0.12391
894.80946,0.11896
896.73793,0.11365
898.66640,0.11277
900.59486,0.12230
902.52333,0.13589
904.45180,0.13798
906.38027,0.12852
908.30874,0.12014
910.23721,0.12002
912.16568,0.12122
914.09414,0.11928
916.02261,0.12468
917.95108,0.13593
919.87955,0.13781
921.80802,0.13065
923.73649,0.12825
925.66496,0.13276
927.59343,0.13509
929.52189,0.13432
931.45036,0.13471
933.37883,0.13466
935.30730,0.13174
937.23577,0.13004
939.16424,0.13111
941.09271,0.13011
943.02117,0.12862
944.94964,0.12999
946.87811,0.13209
948.80658,0.13246
950.73505,0.13347
952.66352,0.13779
954.59199,0.13830
956.52045,0.13191
958.44892,0.12817
960.37739,0.12964
962.30586,0.13133
964.23433,0.13091
966.16280,0.12884
968.09127,0.12992
970.01974,0.13321
971.94820,0.13261
973.87667,0.13040
975.80514,0.12821
977.73361,0.12596
979.66208,0.12595
981.59055,0.12809
983.51902,0.13309
985.44748,0.13862
987.37595,0.13960
989.30442,0.13651
991.23289,0.13283
993.16136,0.13073
995.08983,0.13274
997.01830,0.13899
998.94677,0.14346
1000.87523,0.14098
1002.80370,0.13494
1004.73217,0.13197
1006.66064,0.13466
1008.58911,0.14013
1010.51758,0.14078
1012.44605,0.13560
1014.37451,0.13232
1016.30298,0.13323
1018.23145,0.13724
1020.15992,0.14251
1022.08839,0.14238
1024.01686,0.13822
1025.94533,0.14014
1027.87380,0.14688
1029.80226,0.14816
1031.73073,0.14271
1033.65920,0.14089
1035.58767,0.14914
1037.51614,0.15421
1039.44461,0.14653
1041.37308,0.13900
1043.30154,0.13634
1045.23001,0.13647
1047.15848,0.14260
1049.08695,0.14787
1051.01542,0.14340
1052.94389,0.13150
1054.87236,0.12876
1056.80083,0.14076
1058.72929,0.14871
1060.65776,0.14739
1062.58623,0.14411
1064.51470,0.13778
1066.44317,0.13189
1068.37164,0.13577
1070.30011,0.15179
1072.22857,0.16439
1074.15704,0.16052
1076.08551,0.15144
1078.01398,0.14377
1079.94245,0.13780
1081.87092,0.14231
1083.79939,0.15186
1085.72786,0.15288
1087.65632,0.14752
1089.58479,0.14174
1091.51326,0.13692
1093.44173,0.13599
1095.37020,0.13857
1097.29867,0.14248
1099.22714,0.14758
1101.15560,0.15271
1103.08407,0.15519
1105.01254,0.15255
1106.94101,0.14838
1108.86948,0.14756
1110.79795,0.14719
1112.72642,0.14584
1114.65489,0.14726
1116.58335,0.15079
1118.51182,0.15415
1120.44029,0.15340
1122.36876,0.14580
1124.29723,0.13897
1126.22570,0.13644
1128.15417,0.13509
1130.08263,0.13668
1132.01110,0.14328
1133.93957,0.14943
1135.86804,0.14857
1137.79651,0.14578
1139.72498,0.14619
1141.65345,0.14556
1143.58191,0.14441
1145.51038,0.14727
1147.43885,0.15069
1149.36732,0.15371
1151.29579,0.15936
1153.22426,0.16212
1155.15273,0.15856
1157.08120,0.15158
1159.00966,0.14673
1160.93813,0.14806
1162.86660,0.15284
1164.79507,0.15852
1166.72354,0.16133
1168.65201,0.15774
1170.58048,0.15222
1172.50894,0.15015
1174.43741,0.15235
1176.36588,0.15591
1178.29435,0.15567
1180.22282,0.15039
1182.15129,0.14559
1184.07976,0.14511
1186.00823,0.14663
1187.93669,0.14689
1189.86516,0.14549
1191.79363,0.14445
1193.72210,0.14490
1195.65057,0.14790
1197.57904,0.15236
1199.50751,0.15312
1201.43597,0.15193
1203.36444,0.15290
1205.29291,0.15305
1207.22138,0.15210
1209.14985,0.15254
1211.07832,0.15369
1213.00679,0.15428
1214.93526,0.15580
1216.86372,0.15776
1218.79219,0.15515
1220.72066,0.15019
1222.64913,0.15017
1224.57760,0.15430
1226.50607,0.15646
1228.43454,0.15455
1230.36300,0.15256
1232.29147,0.15362
1234.21994,0.15583
1236.14841,0.15640
1238.07688,0.15592
1240.00535,0.15727
1241.93382,0.16004
1243.86229,0.16061
1245.79075,0.15731
1247.71922,0.15317
1249.64769,0.15397
1251.57616,0.15832
1253.50463,0.15856
1255.43310,0.15558
1257.36157,0.15454
1259.29003,0.15320
1261.21850,0.15101
1263.14697,0.15205
1265.07544,0.15375
1267.00391,0.15291
1268.93238,0.15414
1270.86085,0.15928
1272.78932,0.16265
1274.71778,0.16264
1276.64625,0.16357
1278.57472,0.16548
1280.50319,0.16497
1282.43166,0.16328
1284.36013,0.16307
1286.28860,0.16352
1288.21706,0.16459
1290.14553,0.16614
1292.07400,0.16581
1294.00247,0.16248
1295.93094,0.15861
1297.85941,0.15707
1299.78788,0.15636
1301.71634,0.15257
1303.64481,0.14652
1305.57328,0.14789
1307.50175,0.15829
1309.43022,0.16577
1311.35869,0.16686
1313.28716,0.16588
1315.21563,0.16542
1317.14409,0.16713
1319.07256,0.17032
1321.00103,0.17301
1322.92950,0.17224
1324.85797,0.16571
1326.78644,0.15882
1328.71491,0.15861
1330.64337,0.16007
1332.57184,0.15955
1334.50031,0.16090
1336.42878,0.16199
1338.35725,0.16276
1340.28572,0.16492
1342.21419,0.16116
1344.14266,0.14992
1346.07112,0.14297
1347.99959,0.14897
1349.92806,0.15767
1351.85653,0.16029
1353.78500,0.16128
1355.71347,0.16249
1357.64194,0.16427
1359.57040,0.16784
1361.49887,0.17179
1363.42734,0.17262
1365.35581,0.17070
1367.28428,0.17115
1369.21275,0.17379
1371.14122,0.17618
1373.06969,0.17816
1374.99815,0.17801
1376.92662,0.17703
1378.85509,0.17663
1380.78356,0.17459
1382.71203,0.17197
1384.64050,0.17257
1386.56897,0.17684
1388.49743,0.17817
1390.42590,0.17421
1392.35437,0.17346
1394.28284,0.18033
1396.21131,0.18589
1398.13978,0.18301
1400.06825,0.17698
1401.99672,0.17404
1403.92518,0.17635
1405.85365,0.17955
1407.78212,0.17880
1409.71059,0.17715
1411.63906,0.17688
1413.56753,0.17667
1415.49600,0.17859
1417.42446,0.18570
1419.35293,0.18997
1421.28140,0.18572
1423.20987,0.18107
1425.13834,0.17668
1427.06681,0.17293
1428.99528,0.17210
1430.92375,0.17355
1432.85221,0.17551
1434.78068,0.17806
1436.70915,0.17882
1438.63762,0.17497
1440.56609,0.17221
1442.49456,0.17315
1444.42303,0.17565
1446.35149,0.17809
1448.27996,0.17946
1450.20843,0.17981
1452.13690,0.18200
1454.06537,0.18749
1455.99384,0.19694
1457.92231,0.20049
1459.85077,0.19330
1461.77924,0.19040
1463.70771,0.19093
1465.63618,0.18859
1467.56465,0.18537
1469.49312,0.18781
1471.42159,0.19690
1473.35006,0.20291
1475.27852,0.19854
1477.20699,0.19288
1479.13546,0.18904
1481.06393,0.18701
1482.99240,0.18580
1484.92087,0.18684
1486.84934,0.19426
1488.77780,0.20297
1490.70627,0.19869
1492.63474,0.19056
1494.56321,0.19105
1496.49168,0.19652
1498.42015,0.19513
1500.34862,0.18878
1502.27709,0.18730
1504.20555,0.19221
1506.13402,0.20224
1508.06249,0.20747
1509.99096,0.20171
1511.91943,0.19450
1513.84790,0.19202
1515.77637,0.19612
1517.70483,0.20202
1519.63330,0.20388
1521.56177,0.20206
1523.49024,0.19814
1525.41871,0.19366
1527.34718,0.18933
1529.27565,0.18741
1531.20412,0.19111
1533.13258,0.19860
1535.06105,0.20210
1536.98952,0.20778
1538.91799,0.22661
1540.84646,0.23930
1542.77493,0.22120
1544.70340,0.20428
1546.63186,0.19558
1548.56033,0.19286
1550.48880,0.19258
1552.41727,0.19395
1554.34574,0.20044
1556.27421,0.21336
1558.20268,0.22975
1560.13115,0.22211
1562.05961,0.20598
1563.98808,0.19952
1565.91655,0.19815
1567.84502,0.19909
1569.77349,0.20008
1571.70196,0.19913
1573.63043,0.20075
1575.55889,0.20596
1577.48736,0.20397
1579.41583,0.19542
1581.34430,0.19085
1583.27277,0.19131
1585.20124,0.19140
1587.12971,0.18824
1589.05818,0.18544
1590.98664,0.18580
1592.91511,0.18753
1594.84358,0.18919
1596.77205,0.19010
1598.70052,0.18857
1600.62899,0.18680
1602.55746,0.18739
1604.48592,0.18871
1606.41439,0.19062
1608.34286,0.19323
1610.27133,0.19454
1612.19980,0.19438
1614.12827,0.19419
1616.05674,0.19692
1617.98521,0.20069
1619.91367,0.20012
1621.84214,0.19857
1623.77061,0.19663
1625.69908,0.19456
1627.62755,0.19464
1629.55602,0.19415
1631.48449,0.19347
1633.41295,0.19901
1635.34142,0.21354
1637.26989,0.21666
1639.19836,0.20531
1641.12683,0.19835
1643.05530,0.20108
1644.98377,0.21005
1646.91223,0.21685
1648.84070,0.21672
1650.76917,0.21919
1652.69764,0.22625
1654.62611,0.21809
1656.55458,0.20459
1658.48305,0.19829
1660.41152,0.19621
1662.33998,0.19698
1664.26845,0.19970
1666.19692,0.20283
1668.12539,0.20940
1670.05386,0.21316
1671.98233,0.20488
1673.91080,0.19679
1675.83926,0.19499
1677.76773,0.19749
1679.69620,0.20334
1681.62467,0.21444
1683.55314,0.22705
1685.48161,0.22243
1687.41008,0.21220
1689.33855,0.20775
1691.26701,0.20545
1693.19548,0.20515
1695.12395,0.20864
1697.05242,0.21763
1698.98089,0.22872
1700.90936,0.22791
1702.83783,0.21611
1704.76629,0.20753
1706.69476,0.20184
1708.62323,0.19591
1710.55170,0.19170
1712.48017,0.19402
1714.40864,0.20448
1716.33711,0.21642
1718.26558,0.21313
1720.19404,0.20061
1722.12251,0.19412
1724.05098,0.19277
1725.97945,0.19272
1727.90792,0.19387
1729.83639,0.19736
1731.76486,0.20246
1733.69332,0.20553
1735.62179,0.20164
1737.55026,0.19840
1739.47873,0.19949
1741.40720,0.20120
1743.33567,0.20201
1745.26414,0.20467
1747.19261,0.20768
1749.12107,0.20591
1751.04954,0.19963
1752.97801,0.19422
1754.90648,0.19080
1756.83495,0.18991
1758.76342,0.19204
1760.69189,0.19590
1762.62035,0.19700
1764.54882,0.19373
1766.47729,0.19207
1768.40576,0.19530
1770.33423,0.20354
1772.26270,0.20919
1774.19117,0.20243
1776.11964,0.19490
1778.04810,0.19376
1779.97657,0.19442
1781.90504,0.19252
1783.83351,0.18955
1785.76198,0.18758
1787.69045,0.18798
1789.61892,0.19196
1791.54738,0.19754
1793.47585,0.19752
1795.40432,0.19272
1797.33279,0.19094
1799.26126,0.19356
1801.18973,0.19517
1803.11820,0.19186
1805.04666,0.18824
1806.97513,0.18810
1808.90360,0.19060
1810.83207,0.19292
1812.76054,0.19213
1814.68901,0.18911
1816.61748,0.18557
1818.54595,0.18190
1820.47441,0.18064
1822.40288,0.18345
1824.33135,0.18761
1826.25982,0.19253
1828.18829,0.19867
1830.11676,0.20022
1832.04523,0.19755
1833.97369,0.19736
1835.90216,0.19816
1837.83063,0.19715
1839.75910,0.19620
1841.68757,0.19765
1843.61604,0.19971
1845.54451,0.19969
1847.47298,0.19691
1849.40144,0.19136
1851.32991,0.18708
1853.25838,0.18729
1855.18685,0.18927
1857.11532,0.19036
1859.04379,0.19001
1860.97226,0.18913
1862.90072,0.18964
1864.82919,0.19276
1866.75766,0.19894
1868.68613,0.20201
1870.61460,0.19553
1872.54307,0.18845
1874.47154,0.18721
1876.40001,0.18891
1878.32847,0.18883
1880.25694,0.18773
1882.18541,0.18815
1884.11388,0.18902
1886.04235,0.19000
1887.97082,0.19227
1889.89929,0.19332
1891.82775,0.19170
1893.75622,0.19051
1895.68469,0.18987
1897.61316,0.18946
1899.54163,0.18949
1901.47010,0.18897
1903.39857,0.18949
1905.32704,0.19161
1907.25550,0.19258
1909.18397,0.19044
1911.11244,0.18743
1913.04091,0.18754
1914.96938,0.18996
1916.89785,0.19134
1918.82632,0.19145
1920.75478,0.19227
1922.68325,0.19266
1924.61172,0.19084
1926.54019,0.18930
1928.46866,0.18870
1930.39713,0.18796
1932.32560,0.18868
1934.25407,0.19013
1936.18253,0.19063
1938.11100,0.19119
1940.03947,0.19234
1941.96794,0.19275
1943.89641,0.19125
1945.82488,0.19000
1947.75335,0.19012
1949.68181,0.19051
1951.61028,0.19116
1953.53875,0.19294
1955.46722,0.19573
1957.39569,0.19630
1959.32416,0.19430
1961.25263,0.19397
1963.18110,0.19569
1965.10956,0.19676
1967.03803,0.19522
1968.96650,0.19191
1970.89497,0.19003
1972.82344,0.18902
1974.75191,0.18762
1976.68038,0.18617
1978.60884,0.18519
1980.53731,0.18736
1982.46578,0.19268
1984.39425,0.19680
1986.32272,0.19783
1988.25119,0.19718
1990.17966,0.19665
1992.10812,0.19614
1994.03659,0.19413
1995.96506,0.19133
1997.89353,0.18988
1999.82200,0.19002
2001.75047,0.19085
2003.67894,0.19205
2005.60741,0.19376
2007.53587,0.19531
2009.46434,0.19587
2011.39281,0.19581
2013.32128,0.19489
2015.24975,0.19415
2017.17822,0.19394
2019.10669,0.19259
2021.03515,0.19172
2022.96362,0.19207
2024.89209,0.19264
2026.82056,0.19324
2028.74903,0.19285
2030.67750,0.19191
2032.60597,0.19135
2034.53444,0.19122
2036.46290,0.19157
2038.39137,0.19195
2040.31984,0.19141
2042.24831,0.19029
2044.17678,0.19132
2046.10525,0.19367
2048.03372,0.19369
2049.96218,0.19325
2051.89065,0.19475
2053.81912,0.19461
2055.74759,0.19078
2057.67606,0.18947
2059.60453,0.19445
2061.53300,0.19857
2063.46147,0.19717
2065.38993,0.19289
2067.31840,0.18974
2069.24687,0.19071
2071.17534,0.19360
2073.10381,0.19471
2075.03228,0.19346
2076.96075,0.19158
2078.88921,0.19139
2080.81768,0.19285
2082.74615,0.19616
2084.67462,0.20101
2086.60309,0.20326
2088.53156,0.20263
2090.46003,0.20226
2092.38850,0.20130
2094.31696,0.19918
2096.24543,0.19677
2098.17390,0.19450
2100.10237,0.19266
2102.03084,0.19145
2103.95931,0.19231
2105.88778,0.19407
2107.81624,0.19393
2109.74471,0.19303
2111.67318,0.19364
2113.60165,0.19604
2115.53012,0.19805
2117.45859,0.19782
2119.38706,0.19697
2121.31553,0.19570
2123.24399,0.19251
2125.17246,0.19053
2127.10093,0.19307
2129.02940,0.19670
2130.95787,0.19742
2132.88634,0.19876
2134.81481,0.20483
2136.74327,0.20998
2138.67174,0.20820
2140.60021,0.20273
2142.52868,0.19881
2144.45715,0.19797
2146.38562,0.19853
2148.31409,0.19829
2150.24255,0.19681
2152.17102,0.19568
2154.09949,0.19602
2156.02796,0.19702
2157.95643,0.19737
2159.88490,0.19625
2161.81337,0.19501
2163.74184,0.19547
2165.67030,0.19758
2167.59877,0.19960
2169.52724,0.19992
2171.45571,0.19917
2173.38418,0.19799
2175.31265,0.19792
2177.24112,0.19994
2179.16958,0.20008
2181.09805,0.19688
2183.02652,0.19441
2184.95499,0.19463
2186.88346,0.19636
2188.81193,0.19754
2190.74040,0.19746
2192.66887,0.19697
2194.59733,0.19613
2196.52580,0.19572
2198.45427,0.19635
2200.38274,0.19752
2202.31121,0.19863
2204.23968,0.19781
2206.16815,0.19522
2208.09661,0.19308
2210.02508,0.19205
2211.95355,0.19233
2213.88202,0.19357
2215.81049,0.19488
2217.73896,0.19602
2219.66743,0.19734
2221.59590,0.19888
2223.52436,0.19976
2225.45283,0.20012
2227.38130,0.20095
2229.30977,0.20098
2231.23824,0.19928
2233.16671,0.19835
2235.09518,0.19855
2237.02364,0.19752
2238.95211,0.19708
2240.88058,0.19830
2242.80905,0.19829
2244.73752,0.19792
2246.66599,0.19883
2248.59446,0.19832
2250.52293,0.19602
2252.45139,0.19507
2254.37986,0.19612
2256.30833,0.19850
2258.23680,0.20071
2260.16527,0.20009
2262.09374,0.19784
2264.02221,0.19682
2265.95067,0.19570
2267.87914,0.19300
2269.80761,0.19160
2271.73608,0.19303
2273.66455,0.19578
2275.59302,0.19847
2277.52149,0.19854
2279.44996,0.19641
2281.37842,0.19621
2283.30689,0.19828
2285.23536,0.19916
2287.16383,0.19752
2289.09230,0.19560
2291.02077,0.19606
2292.94924,0.19844
2294.87770,0.19854
2296.80617,0.19530
2298.73464,0.19353
2300.66311,0.19487
2302.59158,0.19537
2304.52005,0.19288
2306.44852,0.18864
2308.37699,0.18385
2310.30545,0.17944
2312.23392,0.17879
2314.16239,0.18164
2316.09086,0.18075
2318.01933,0.17586
2319.94780,0.17391
2321.87627,0.17522
2323.80473,0.17436
2325.73320,0.17280
2327.66167,0.17626
2329.59014,0.17889
2331.51861,0.17280
2333.44708,0.16226
2335.37555,0.15356
2337.30401,0.15411
2339.23248,0.16285
2341.16095,0.16570
2343.08942,0.16550
2345.01789,0.17081
2346.94636,0.17586
2348.87483,0.17934
2350.80330,0.18232
2352.73176,0.18371
2354.66023,0.18072
2356.58870,0.17481
2358.51717,0.17654
2360.44564,0.18521
2362.37411,0.18459
2364.30258,0.16982
2366.23104,0.15999
2368.15951,0.16371
2370.08798,0.17007
2372.01645,0.17400
2373.94492,0.17637
2375.87339,0.17755
2377.80186,0.17899
2379.73033,0.18331
2381.65879,0.18975
2383.58726,0.19482
2385.51573,0.19566
2387.44420,0.19345
2389.37267,0.19234
2391.30114,0.19274
2393.22961,0.19335
2395.15807,0.19527
2397.08654,0.19798
2399.01501,0.19842
2400.94348,0.19728
2402.87195,0.19798
2404.80042,0.19995
2406.72889,0.20082
2408.65736,0.20044
2410.58582,0.20036
2412.51429,0.20016
2414.44276,0.19843
2416.37123,0.19700
2418.29970,0.19807
2420.22817,0.20165
2422.15664,0.20431
2424.08510,0.20235
2426.01357,0.19918
2427.94204,0.19894
2429.87051,0.20016
2431.79898,0.20158
2433.72745,0.20274
2435.65592,0.20328
2437.58439,0.20302
2439.51285,0.20073
2441.44132,0.19797
2443.36979,0.19731
2445.29826,0.19779
2447.22673,0.19744
2449.15520,0.19664
2451.08367,0.19750
2453.01213,0.19932
2454.94060,0.19841
2456.86907,0.19561
2458.79754,0.19566
2460.72601,0.19795
2462.65448,0.19982
2464.58295,0.20188
2466.51142,0.20355
2468.43988,0.20290
2470.36835,0.20061
2472.29682,0.19850
2474.22529,0.19744
2476.15376,0.19813
2478.08223,0.19914
2480.01070,0.19996
2481.93916,0.20219
2483.86763,0.20380
2485.79610,0.20382
2487.72457,0.20374
2489.65304,0.20266
2491.58151,0.20146
2493.50998,0.20191
2495.43844,0.20122
2497.36691,0.19853
2499.29538,0.19784
2501.22385,0.19942
2503.15232,0.20043
2505.08079,0.20062
2507.00926,0.20019
2508.93773,0.19906
2510.86619,0.19902
2512.79466,0.20111
2514.72313,0.20324
2516.65160,0.20390
2518.58007,0.20462
2520.50854,0.20568
2522.43701,0.20454
2524.36547,0.20101
2526.29394,0.19826
2528.22241,0.19836
2530.15088,0.20020
2532.07935,0.20151
2534.00782,0.20171
2535.93629,0.20096
2537.86476,0.19974
2539.79322,0.19942
2541.72169,0.20044
2543.65016,0.20296
2545.57863,0.20556
2547.50710,0.20620
2549.43557,0.20669
2551.36404,0.20860
2553.29250,0.20996
2555.22097,0.20879
2557.14944,0.20600
2559.07791,0.20377
2561.00638,0.20284
2562.93485,0.20235
2564.86332,0.20102
2566.79179,0.20090
2568.72025,0.20397
2570.64872,0.20735
2572.57719,0.20835
2574.50566,0.20706
2576.43413,0.20432
2578.36260,0.20160
2580.29107,0.20065
2582.21953,0.20157
2584.14800,0.20256
2586.07647,0.20298
2588.00494,0.20374
2589.93341,0.20426
2591.86188,0.20450
2593.79035,0.20627
2595.71882,0.20789
2597.64728,0.20574
2599.57575,0.20216
2601.50422,0.20208
2603.43269,0.20438
2605.36116,0.20642
2607.28963,0.20862
2609.21810,0.21152
2611.14656,0.21518
2613.07503,0.21736
2615.00350,0.21459
2616.93197,0.20935
2618.86044,0.20704
2620.78891,0.20623
2622.71738,0.20500
2624.64585,0.20553
2626.57431,0.20576
2628.50278,0.20349
2630.43125,0.20080
2632.35972,0.20042
2634.28819,0.20310
2636.21666,0.20496
2638.14513,0.20516
2640.07359,0.20762
2642.00206,0.21017
2643.93053,0.20973
2645.85900,0.20966
2647.78747,0.21018
2649.71594,0.20853
2651.64441,0.20755
2653.57288,0.20777
2655.50134,0.20497
2657.42981,0.20184
2659.35828,0.20189
2661.28675,0.20207
2663.21522,0.20192
2665.14369,0.20357
2667.07216,0.20629
2669.00062,0.20813
2670.92909,0.20800
2672.85756,0.20674
2674.78603,0.20690
2676.71450,0.20795
2678.64297,0.20681
2680.57144,0.20494
2682.49990,0.20554
2684.42837,0.20879
2686.35684,0.21228
2688.28531,0.21255
2690.21378,0.20994
2692.14225,0.20785
2694.07072,0.20639
2695.99919,0.20449
2697.92765,0.20505
2699.85612,0.20899
2701.78459,0.21181
2703.71306,0.21085
2705.64153,0.20812
2707.57000,0.20670
2709.49847,0.20693
2711.42693,0.20733
2713.35540,0.20768
2715.28387,0.20804
2717.21234,0.20787
2719.14081,0.20723
2721.06928,0.20771
2722.99775,0.20910
2724.92622,0.20900
2726.85468,0.20806
2728.78315,0.20771
2730.71162,0.20787
2732.64009,0.20930
2734.56856,0.21114
2736.49703,0.21291
2738.42550,0.21535
2740.35396,0.21517
2742.28243,0.21108
2744.21090,0.20707
2746.13937,0.20644
2748.06784,0.20979
2749.99631,0.21344
2751.92478,0.21431
2753.85325,0.21507
2755.78171,0.21876
2757.71018,0.22277
2759.63865,0.22072
2761.56712,0.21357
2763.49559,0.20943
2765.42406,0.20946
2767.35253,0.20898
2769.28099,0.20857
2771.20946,0.21167
2773.13793,0.21636
2775.06640,0.21750
2776.99487,0.21604
2778.92334,0.21806
2780.85181,0.22227
2782.78028,0.22142
2784.70874,0.21650
2786.63721,0.21567
2788.56568,0.22090
2790.49415,0.22529
2792.42262,0.22423
2794.35109,0.22070
2796.27956,0.21769
2798.20802,0.21487
2800.13649,0.21386
2802.06496,0.21619
2803.99343,0.21774
2805.92190,0.21670
2807.85037,0.21703
2809.77884,0.21876
2811.70731,0.21906
2813.63577,0.21886
2815.56424,0.21959
2817.49271,0.21908
2819.42118,0.21799
2821.34965,0.21887
2823.27812,0.21902
2825.20659,0.21904
2827.13505,0.22143
2829.06352,0.22195
2830.99199,0.22024
2832.92046,0.22081
2834.84893,0.22204
2836.77740,0.22089
2838.70587,0.22001
2840.63433,0.22183
2842.56280,0.22289
2844.49127,0.22080
2846.41974,0.21883
2848.34821,0.21883
2850.27668,0.22060
2852.20515,0.22365
2854.13362,0.22494
2856.06208,0.22424
2857.99055,0.22489
2859.91902,0.22649
2861.84749,0.22554
2863.77596,0.22025
2865.70443,0.21434
2867.63290,0.21384
2869.56136,0.21806
2871.48983,0.22147
2873.41830,0.22196
2875.34677,0.22212
2877.27524,0.22349
2879.20371,0.22418
2881.13218,0.22282
2883.06065,0.22018
2884.98911,0.21752
2886.91758,0.21491
2888.84605,0.21289
2890.77452,0.21229
2892.70299,0.21215
2894.63146,0.21123
2896.55993,0.21098
2898.48839,0.21377
2900.41686,0.21742
2902.34533,0.21985
2904.27380,0.22110
2906.20227,0.22016
2908.13074,0.21950
2910.05921,0.22079
2911.98768,0.22137
2913.91614,0.21934
2915.84461,0.21446
2917.77308,0.21017
2919.70155,0.21222
2921.63002,0.21845
2923.55849,0.22084
2925.48696,0.21674
2927.41542,0.21120
2929.34389,0.21217
2931.27236,0.21898
2933.20083,0.22231
2935.12930,0.21883
2937.05777,0.21372
2938.98624,0.21267
2940.91471,0.21484
2942.84317,0.21549
2944.77164,0.21359
2946.70011,0.21162
2948.62858,0.21211
2950.55705,0.21354
2952.48552,0.21302
2954.41399,0.21087
2956.34245,0.20891
2958.27092,0.20920
2960.19939,0.21220
2962.12786,0.21676
2964.05633,0.22091
2965.98480,0.22280
2967.91327,0.22244
2969.84174,0.22218
2971.77020,0.22370
2973.69867,0.22399
2975.62714,0.22195
2977.55561,0.22039
2979.48408,0.22084
2981.41255,0.22232
2983.34102,0.22251
2985.26948,0.22342
2987.19795,0.22373
2989.12642,0.21942
2991.05489,0.21691
2992.98336,0.21989
2994.91183,0.22338
2996.84030,0.22491
2998.76877,0.22498
3000.69723,0.22499
3002.62570,0.22557
3004.55417,0.22634
3006.48264,0.22580
3008.41111,0.22199
3010.33958,0.21536
3012.26805,0.20524
3014.19651,0.19075
3016.12498,0.18081
3018.05345,0.18940
3019.98192,0.21032
3021.91039,0.22329
3023.83886,0.22587
3025.76733,0.22357
3027.69579,0.21851
3029.62426,0.21699
3031.55273,0.21894
3033.48120,0.22032
3035.40967,0.22342
3037.33814,0.22932
3039.26661,0.23387
3041.19508,0.23224
3043.12354,0.22776
3045.05201,0.22724
3046.98048,0.22809
3048.90895,0.22640
3050.83742,0.22322
3052.76589,0.22046
3054.69436,0.21857
3056.62282,0.21587
3058.55129,0.21538
3060.47976,0.21956
3062.40823,0.22373
3064.33670,0.22425
3066.26517,0.22254
3068.19364,0.22331
3070.12211,0.22658
3072.05057,0.22680
3073.97904,0.22139
3075.90751,0.21555
3077.83598,0.21769
3079.76445,0.22657
3081.69292,0.23036
3083.62139,0.22397
3085.54985,0.21874
3087.47832,0.22091
3089.40679,0.22256
3091.33526,0.22108
3093.26373,0.21895
3095.19220,0.21935
3097.12067,0.22338
3099.04914,0.22463
3100.97760,0.22037
3102.90607,0.21667
3104.83454,0.21993
3106.76301,0.22655
3108.69148,0.22812
3110.61995,0.22413
3112.54842,0.21962
3114.47688,0.21994
3116.40535,0.22475
3118.33382,0.22596
3120.26229,0.22148
3122.19076,0.21952
3124.11923,0.22184
3126.04770,0.22175
3127.97617,0.21868
3129.90463,0.21737
3131.83310,0.22124
3133.76157,0.22780
3135.69004,0.23002
3137.61851,0.22593
3139.54698,0.22087
3141.47545,0.22149
3143.40391,0.22646
3145.33238,0.22857
3147.26085,0.22705
3149.18932,0.22677
3151.11779,0.22852
3153.04626,0.22888
3154.97473,0.22764
3156.90320,0.22828
3158.83166,0.23033
3160.76013,0.22989
3162.68860,0.22778
3164.61707,0.22707
3166.54554,0.22745
3168.47401,0.22904
3170.40248,0.23198
3172.33094,0.23246
3174.25941,0.22883
3176.18788,0.22677
3178.11635,0.23131
3180.04482,0.23871
3181.97329,0.24205
3183.90176,0.24068
3185.83022,0.23846
3187.75869,0.23751
3189.68716,0.23647
3191.61563,0.23370
3193.54410,0.23101
3195.47257,0.23095
3197.40104,0.23098
3199.32951,0.22960
3201.25797,0.23084
3203.18644,0.23280
3205.11491,0.23159
3207.04338,0.23046
3208.97185,0.22903
3210.90032,0.22533
3212.82879,0.22491
3214.75725,0.22934
3216.68572,0.23315
3218.61419,0.23473
3220.54266,0.23551
3222.47113,0.23580
3224.39960,0.23337
3226.32807,0.22721
3228.25654,0.22375
3230.18500,0.22607
3232.11347,0.22853
3234.04194,0.22933
3235.97041,0.23023
3237.89888,0.23139
3239.82735,0.23358
3241.75582,0.23507
3243.68428,0.23433
3245.61275,0.23332
3247.54122,0.23176
3249.46969,0.23012
3251.39816,0.23225
3253.32663,0.23532
3255.25510,0.23073
3257.18357,0.22140
3259.11203,0.21913
3261.04050,0.22289
3262.96897,0.22437
3264.89744,0.22610
3266.82591,0.23041
3268.75438,0.23205
3270.68285,0.23098
3272.61131,0.23107
3274.53978,0.23265
3276.46825,0.23223
3278.39672,0.22903
3280.32519,0.22780
3282.25366,0.22804
3284.18213,0.22698
3286.11060,0.22575
3288.03906,0.22598
3289.96753,0.22748
3291.89600,0.22683
3293.82447,0.22551
3295.75294,0.22730
3297.68141,0.22893
3299.60988,0.22913
3301.53834,0.23200
3303.46681,0.23684
3305.39528,0.23697
3307.32375,0.23161
3309.25222,0.22726
3311.18069,0.22559
3313.10916,0.22330
3315.03763,0.22196
3316.96609,0.22417
3318.89456,0.22561
3320.82303,0.22254
3322.75150,0.22009
3324.67997,0.22284
3326.60844,0.22735
3328.53691,0.23051
3330.46537,0.23085
3332.39384,0.22808
3334.32231,0.22726
3336.25078,0.22992
3338.17925,0.23037
3340.10772,0.22775
3342.03619,0.22801
3343.96466,0.23283
3345.89312,0.23599
3347.82159,0.23417
3349.75006,0.23260
3351.67853,0.23318
3353.60700,0.23372
3355.53547,0.23491
3357.46394,0.23405
3359.39240,0.23098
3361.32087,0.23030
3363.24934,0.23227
3365.17781,0.23517
3367.10628,0.23744
3369.03475,0.23863
3370.96322,0.23830
3372.89168,0.23619
3374.82015,0.23582
3376.74862,0.23737
3378.67709,0.23448
3380.60556,0.22782
3382.53403,0.22401
3384.46250,0.22451
3386.39097,0.23127
3388.31943,0.23975
3390.24790,0.24101
3392.17637,0.23862
3394.10484,0.23573
3396.03331,0.23251
3397.96178,0.23331
3399.89025,0.23555
3401.81871,0.23376
3403.74718,0.22973
3405.67565,0.22822
3407.60412,0.22883
3409.53259,0.22800
3411.46106,0.22626
3413.38953,0.22518
3415.31800,0.22509
3417.24646,0.22524
3419.17493,0.22456
3421.10340,0.22536
3423.03187,0.22624
3424.96034,0.22527
3426.88881,0.22666
3428.81728,0.22999
3430.74574,0.23080
3432.67421,0.22911
3434.60268,0.22667
3436.53115,0.22425
3438.45962,0.22584
3440.38809,0.23246
3442.31656,0.23647
3444.24503,0.23442
3446.17349,0.22872
3448.10196,0.22109
3450.03043,0.21625
3451.95890,0.21688
3453.88737,0.21835
3455.81584,0.21603
3457.74431,0.21281
3459.67277,0.21234
3461.60124,0.21137
3463.52971,0.20775
3465.45818,0.20611
3467.38665,0.20603
3469.31512,0.20257
3471.24359,0.20047
3473.17206,0.20517
3475.10052,0.21146
3477.02899,0.21228
3478.95746,0.20873
3480.88593,0.20712
3482.81440,0.20799
3484.74287,0.20773
3486.67134,0.20608
3488.59980,0.20327
3490.52827,0.20107
3492.45674,0.20166
3494.38521,0.20237
3496.31368,0.20043
3498.24215,0.19889
3500.17062,0.19980
3502.09909,0.20069
3504.02755,0.20113
3505.95602,0.20248
3507.88449,0.20283
3509.81296,0.19985
3511.74143,0.19477
3513.66990,0.19105
3515.59837,0.19053
3517.52683,0.19119
3519.45530,0.19215
3521.38377,0.19583
3523.31224,0.20002
3525.24071,0.20058
3527.16918,0.19824
3529.09765,0.19266
3531.02611,0.18356
3532.95458,0.17497
3534.88305,0.17445
3536.81152,0.18369
3538.73999,0.18988
3540.66846,0.18782
3542.59693,0.18608
3544.52540,0.18681
3546.45386,0.18601
3548.38233,0.18333
3550.31080,0.18249
3552.23927,0.18406
3554.16774,0.18411
3556.09621,0.18265
3558.02468,0.18172
3559.95314,0.18114
3561.88161,0.18166
3563.81008,0.18330
3565.73855,0.18724
3567.66702,0.19019
3569.59549,0.18236
3571.52396,0.17184
3573.45243,0.16745
3575.38089,0.16751
3577.30936,0.16875
3579.23783,0.17027
3581.16630,0.17145
3583.09477,0.17171
3585.02324,0.17343
3586.95171,0.17911
3588.88017,0.17783
3590.80864,0.16841
3592.73711,0.16559
3594.66558,0.16965
3596.59405,0.17124
3598.52252,0.17056
3600.45099,0.16881
3602.37946,0.16590
3604.30792,0.16594
3606.23639,0.16957
3608.16486,0.17214
3610.09333,0.17321
3612.02180,0.17702
3613.95027,0.17859
3615.87874,0.17464
3617.80720,0.17063
3619.73567,0.16604
3621.66414,0.15861
3623.59261,0.15272
3625.52108,0.15263
3627.44955,0.16001
3629.37802,0.16617
3631.30649,0.16108
3633.23495,0.15414
3635.16342,0.15080
3637.09189,0.15274
3639.02036,0.15700
3640.94883,0.15740
3642.87730,0.15356
3644.80577,0.15540
3646.73423,0.16804
3648.66270,0.17663
3650.59117,0.16552
3652.51964,0.15501
3654.44811,0.15195
3656.37658,0.15119
3658.30505,0.14864
3660.23352,0.14577
3662.16198,0.14473
3664.09045,0.14592
3666.01892,0.14858
3667.94739,0.15151
3669.87586,0.15120
3671.80433,0.14905
3673.73280,0.15403
3675.66126,0.16196
3677.58973,0.15829
3679.51820,0.14972
3681.44667,0.14259
3683.37514,0.13851
3685.30361,0.13954
3687.23208,0.14573
3689.16055,0.15474
3691.08901,0.15623
3693.01748,0.15035
3694.94595,0.14570
3696.87442,0.14116
3698.80289,0.13812
3700.73136,0.14262
3702.65983,0.14813
3704.58829,0.14589
3706.51676,0.14341
3708.44523,0.14577
3710.37370,0.14950
3712.30217,0.14590
3714.23064,0.13632
3716.15911,0.12918
3718.08757,0.12656
3720.01604,0.12812
3721.94451,0.13134
3723.87298,0.13617
3725.80145,0.14297
3727.72992,0.14543
3729.65839,0.14353
3731.58686,0.14539
3733.51532,0.15429
3735.44379,0.15985
3737.37226,0.15432
3739.30073,0.14768
3741.22920,0.14649
3743.15767,0.15162
3745.08614,0.15568
3747.01460,0.15011
3748.94307,0.14783
3750.87154,0.15566
3752.80001,0.15595
3754.72848,0.14870
3756.65695,0.14488
3758.58542,0.14428
3760.51389,0.14307
3762.44235,0.14052
3764.37082,0.14017
3766.29929,0.14284
3768.22776,0.14472
3770.15623,0.14354
3772.08470,0.14010
3774.01317,0.13767
3775.94163,0.13755
3777.87010,0.13774
3779.79857,0.13799
3781.72704,0.13984
3783.65551,0.14025
3785.58398,0.13577
3787.51245,0.13102
3789.44092,0.13278
3791.36938,0.13625
3793.29785,0.13443
3795.22632,0.13094
3797.15479,0.13129
3799.08326,0.13553
3801.01173,0.14278
3802.94020,0.14814
3804.86866,0.15042
3806.79713,0.15043
3808.72560,0.14309
3810.65407,0.13387
3812.58254,0.13042
3814.51101,0.13601
3816.43948,0.14511
3818.36795,0.14765
3820.29641,0.14858
3822.22488,0.14910
3824.15335,0.14780
3826.08182,0.14705
3828.01029,0.14390
3829.93876,0.13640
3831.86723,0.13028
3833.79569,0.13241
3835.72416,0.13875
3837.65263,0.14193
3839.58110,0.13916
3841.50957,0.13241
3843.43804,0.12760
3845.36651,0.12991
3847.29498,0.13617
3849.22344,0.14073
3851.15191,0.14389
3853.08038,0.14774
3855.00885,0.14320
3856.93732,0.13415
3858.86579,0.13040
3860.79426,0.13163
3862.72272,0.13286
3864.65119,0.13086
3866.57966,0.12993
3868.50813,0.13052
3870.43660,0.12806
3872.36507,0.12808
3874.29354,0.13261
3876.22200,0.13589
3878.15047,0.13861
3880.07894,0.13882
3882.00741,0.13235
3883.93588,0.12505
3885.86435,0.12122
3887.79282,0.12048
3889.72129,0.12154
3891.64975,0.12222
3893.57822,0.12001
3895.50669,0.11946
3897.43516,0.12339
3899.36363,0.12993
3901.29210,0.13579
3903.22057,0.13614
3905.14903,0.12772
3907.07750,0.11834
3909.00597,0.11495
3910.93444,0.11638
3912.86291,0.11969
3914.79138,0.12223
3916.71985,0.12177
3918.64832,0.11803
3920.57678,0.11638
3922.50525,0.11969
3924.43372,0.12160
3926.36219,0.12089
3928.29066,0.12226
3930.21913,0.12382
3932.14760,0.12387
3934.07606,0.12317
3936.00453,0.12204
3937.93300,0.12223
3939.86147,0.12281
3941.78994,0.12018
3943.71841,0.11804
3945.64688,0.12123
3947.57535,0.12281
3949.50381,0.11861
3951.43228,0.11578
3953.36075,0.11656
3955.28922,0.11585
3957.21769,0.11218
3959.14616,0.10980
3961.07463,0.11184
3963.00309,0.11613
3964.93156,0.11828
3966.86003,0.11679
3968.78850,0.11508
3970.71697,0.11496
3972.64544,0.11260
3974.57391,0.10797
3976.50238,0.10541
3978.43084,0.10587
3980.35931,0.10877
3982.28778,0.11304
3984.21625,0.11677
3986.14472,0.11812
3988.07319,0.11598
3990.00166,0.11260
3991.93012,0.11189
3993.85859,0.11461
3995.78706,0.11624
3997.71553,0.11392
3999.64400,0.11178
4001.57247,0.11096
4003.50094,0.10898
4005.42941,0.10819
4007.35787,0.11136
4009.28634,0.11349
4011.21481,0.10990
4013.14328,0.10576
4015.07175,0.10445
4017.00022,0.10324
4018.92869,0.10271
4020.85715,0.10396
4022.78562,0.10384
4024.71409,0.10170
4026.64256,0.10171
4028.57103,0.10479
4030.49950,0.10764
4032.42797,0.10931
4034.35644,0.10995
4036.28490,0.10913
4038.21337,0.10785
4040.14184,0.10585
4042.07031,0.10321
4043.99878,0.10136
4045.92725,0.10078
4047.85572,0.10084
4049.78418,0.09952
4051.71265,0.09817
4053.64112,0.09990
4055.56959,0.10259
4057.49806,0.10132
4059.42653,0.09581
4061.35500,0.09219
4063.28346,0.09343
4065.21193,0.09658
4067.14040,0.09845
4069.06887,0.09731
4070.99734,0.09457
4072.92581,0.09373
4074.85428,0.09315
4076.78275,0.09031
4078.71121,0.09131
4080.63968,0.09742
4082.56815,0.10088
4084.49662,0.10030
4086.42509,0.09930
4088.35356,0.09907
4090.28203,0.09754
4092.21049,0.09155
4094.13896,0.08518
4096.06743,0.08688
4097.99590,0.09432
4099.92437,0.09736
4101.85284,0.09344
4103.78131,0.08843
4105.70978,0.08601
4107.63824,0.08665
4109.56671,0.08961
4111.49518,0.09112
4113.42365,0.09215
4115.35212,0.09485
4117.28059,0.09604
4119.20906,0.09481
4121.13752,0.09361
4123.06599,0.09336
4124.99446,0.08936
4126.92293,0.08227
4128.85140,0.08068
4130.77987,0.08412
4132.70834,0.08701
4134.63681,0.08761
4136.56527,0.08751
4138.49374,0.08817
4140.42221,0.08736
4142.35068,0.08624
4144.27915,0.08601
4146.20762,0.08306
4148.13609,0.07899
4150.06455,0.07884
4151.99302,0.08216
4153.92149,0.08418
4155.84996,0.08248
4157.77843,0.08150
4159.70690,0.08500
4161.63537,0.08851
4163.56384,0.08768
4165.49230,0.08479
4167.42077,0.08177
4169.34924,0.07720
4171.27771,0.07293
4173.20618,0.07201
4175.13465,0.07317
4177.06312,0.07500
4178.99158,0.07584
4180.92005,0.07331
4182.84852,0.06909
4184.77699,0.07029
4186.70546,0.07955
4188.63393,0.08520
4190.56240,0.08113
4192.49087,0.07703
4194.41933,0.07622
4196.34780,0.07582
4198.27627,0.07492
4200.20474,0.06981
4202.13321,0.06425
4204.06168,0.06831
4205.99015,0.07609
4207.91861,0.07638
4209.84708,0.07297
4211.77555,0.07053
4213.70402,0.06929
4215.63249,0.06850
4217.56096,0.06564
4219.48943,0.06601
4221.41789,0.07229
4223.34636,0.07539
4225.27483,0.07126
4227.20330,0.06436
4229.13177,0.05880
4231.06024,0.05740
4232.98871,0.06127
4234.91718,0.06564
4236.84564,0.06496
4238.77411,0.06168
4240.70258,0.06092
4242.63105,0.06207
4244.55952,0.06124
4246.48799,0.05897
4248.41646,0.05860
4250.34492,0.06017
4252.27339,0.06254
4254.20186,0.06636
4256.13033,0.07038
4258.05880,0.07175
4259.98727,0.07146
4261.91574,0.06959
4263.84421,0.06634
4265.77267,0.06492
4267.70114,0.06276
4269.62961,0.05925
4271.55808,0.05883
4273.48655,0.05632
4275.41502,0.04994
4277.34349,0.04957
4279.27195,0.05497
4281.20042,0.05766
4283.12889,0.05716
4285.05736,0.05889
4286.98583,0.06087
4288.91430,0.05773
4290.84277,0.05419
4292.77124,0.05092
4294.69970,0.04592
4296.62817,0.04425
4298.55664,0.04528
4300.48511,0.04524
4302.41358,0.04359
4304.34205,0.04276
4306.27052,0.04462
4308.19898,0.04789
4310.12745,0.05146
4312.05592,0.05213
4313.98439,0.04884
4315.91286,0.04494
4317.84133,0.04285
4319.76980,0.04144
4321.69827,0.03960
4323.62673,0.04160
4325.55520,0.04567
4327.48367,0.04282
4329.41214,0.03525
4331.34061,0.03319
4333.26908,0.03958
4335.19755,0.04570
4337.12601,0.04259
4339.05448,0.03668
4340.98295,0.03760
4342.91142,0.04212
4344.83989,0.04342
4346.76836,0.04199
4348.69683,0.04150
4350.62530,0.04334
4352.55376,0.04848
4354.48223,0.05379
4356.41070,0.05210
4358.33917,0.04541
4360.26764,0.04073
4362.19611,0.03636
4364.12458,0.03326
4366.05304,0.03632
4367.98151,0.03876
4369.90998,0.03490
4371.83845,0.03113
4373.76692,0.03025
4375.69539,0.02735
4377.62386,0.02538
4379.55232,0.02972
4381.48079,0.03385
4383.40926,0.03330
4385.33773,0.02929
4387.26620,0.02255
4389.19467,0.01879
4391.12314,0.01952
4393.05161,0.01803
4394.98007,0.01517
4396.90854,0.01681
4398.83701,0.02173
4400.76548,0.02437
4402.69395,0.02066
4404.62242,0.01469
4406.55089,0.01356
4408.47935,0.01733
4410.40782,0.02261
4412.33629,0.02904
4414.26476,0.03571
4416.19323,0.03548
4418.12170,0.02737
4420.05017,0.02250
4421.97864,0.02472
4423.90710,0.02417
4425.83557,0.01957
4427.76404,0.01963
4429.69251,0.02405
4431.62098,0.02764
4433.54945,0.02642
4435.47792,0.01967
4437.40638,0.01439
4439.33485,0.01803
4441.26332,0.02530
4443.19179,0.02400
4445.12026,0.01668
4447.04873,0.01291
4448.97720,0.01352
4450.90567,0.01726
4452.83413,0.02449
4454.76260,0.03011
4456.69107,0.02632
4458.61954,0.01699
4460.54801,0.01103
4462.47648,0.00884
4464.40495,0.00751
4466.33341,0.00598
4468.26188,0.00652
4470.19035,0.00948
4472.11882,0.01007
4474.04729,0.00707
4475.97576,0.00665
4477.90423,0.01182
4479.83270,0.01481
4481.76116,0.01195
4483.68963,0.00863
4485.61810,0.00695
4487.54657,0.00797
4489.47504,0.00968
4491.40351,0.00578
4493.33198,0.00192
4495.26044,0.00660
4497.18891,0.01366
4499.11738,0.01966
4501.04585,0.02604
4502.97432,0.02507
4504.90279,0.01737
4506.83126,0.01448
4508.75973,0.01696
4510.68819,0.01732
4512.61666,0.01474
4514.54513,0.01391
4516.47360,0.01413
4518.40207,0.01091
4520.33054,0.00727
4522.25901,0.01041
4524.18747,0.01615
4526.11594,0.01507
4528.04441,0.01092
4529.97288,0.01021
4531.90135,0.00900
4533.82982,0.00407
4535.75829,0.00012
4537.68676,0.00203
4539.61522,0.00535
4541.54369,0.00136
4543.47216,-0.00388
4545.40063,-0.00005
4547.32910,0.00655
4549.25757,0.00995
4551.18604,0.01032
4553.11450,0.00562
4555.04297,-0.00050
4556.97144,-0.00242
4558.89991,-0.00112
4560.82838,-0.00174
4562.75685,-0.00447
4564.68532,-0.00279
4566.61378,0.00420
4568.54225,0.00693
4570.47072,-0.00139
4572.39919,-0.00864
4574.32766,-0.00498
4576.25613,0.00379
4578.18460,0.00894
4580.11307,0.00653
4582.04153,0.00342
4583.97000,0.00606
4585.89847,0.00836
4587.82694,0.00558
4589.75541,0.00180
4591.68388,0.00038
4593.61235,0.00172
4595.54081,0.00238
4597.46928,0.00157
4599.39775,0.00713
4601.32622,0.01416
4603.25469,0.01530
4605.18316,0.01355
4607.11163,0.01211
4609.04010,0.01430
4610.96856,0.02232
4612.89703,0.02818
4614.82550,0.02207
4616.75397,0.01237
4618.68244,0.01020
4620.61091,0.01035
4622.53938,0.01106
4624.46784,0.01167
4626.39631,0.00736
4628.32478,0.00389
4630.25325,0.00625
4632.18172,0.00815
4634.11019,0.00825
4636.03866,0.00994
4637.96713,0.00943
4639.89559,0.00667
4641.82406,0.00377
4643.75253,-0.00014
4645.68100,-0.00128
4647.60947,-0.00366
4649.53794,-0.01206
4651.46641,-0.01610
4653.39487,-0.01137
4655.32334,-0.00390
4657.25181,0.00507
4659.18028,0.01423
4661.10875,0.01602
4663.03722,0.01072
4664.96569,0.00674
4666.89416,0.00688
4668.82262,0.01045
4670.75109,0.01340
4672.67956,0.01048
4674.60803,0.00174
4676.53650,-0.00458
4678.46497,-0.00058
4680.39344,0.00535
4682.32190,0.00156
4684.25037,-0.00835
4686.17884,-0.01180
4688.10731,-0.00526
4690.03578,0.00301
4691.96425,0.00766
4693.89272,0.00513
4695.82119,-0.00159
4697.74965,-0.00239
4699.67812,0.00192
4701.60659,0.00681
4703.53506,0.01150
4705.46353,0.01308
4707.39200,0.00910
4709.32047,0.00257
4711.24893,-0.00289
4713.17740,-0.00609
4715.10587,-0.00548
4717.03434,0.00049
4718.96281,0.01123
4720.89128,0.01786
4722.81975,0.01301
4724.74821,0.00357
4726.67668,0.00097
4728.60515,0.00492
4730.53362,0.00963
4732.46209,0.01359
4734.39056,0.01392
4736.31903,0.00626
4738.24750,-0.00244
4740.17596,-0.00200
4742.10443,0.00062
4744.03290,-0.00514
4745.96137,-0.01163
4747.88984,-0.00761
4749.81831,0.00083
4751.74678,0.00404
4753.67524,0.00559
4755.60371,0.00868
4757.53218,0.00886
4759.46065,0.00809
4761.38912,0.00970
4763.31759,0.00837
4765.24606,0.00696
4767.17453,0.01017
4769.10299,0.00973
4771.03146,0.00675
4772.95993,0.01023
4774.88840,0.01608
4776.81687,0.01657
4778.74534,0.01206
4780.67381,0.00952
4782.60227,0.01108
4784.53074,0.00738
4786.45921,0.00158
4788.38768,0.01004
4790.31615,0.02448
4792.24462,0.02607
4794.17309,0.01970
4796.10156,0.01242
4798.03002,0.00291
4799.95849,0.00094
4801.88696,0.00700
4803.81543,0.00428
4805.74390,-0.00491
4807.67237,-0.00929
4809.60084,-0.00775
4811.52930,0.00031
4813.45777,0.00871
4815.38624,0.01314
4817.31471,0.01427
4819.24318,0.00829
4821.17165,-0.00321
4823.10012,-0.01133
4825.02859,-0.00932
4826.95705,0.00354
4828.88552,0.01879
4830.81399,0.02263
4832.74246,0.01187
4834.67093,-0.00022
4836.59940,-0.00513
4838.52787,-0.00778
4840.45633,-0.00466
4842.38480,0.00738
4844.31327,0.01465
4846.24174,0.00998
4848.17021,0.00113
4850.09868,-0.00342
4852.02715,0.00082
4853.95562,0.00915
4855.88408,0.01243
4857.81255,0.00746
4859.74102,-0.00357
4861.66949,-0.01305
4863.59796,-0.01600
4865.52643,-0.01755
4867.45490,-0.01841
4869.38336,-0.01230
4871.31183,-0.00344
4873.24030,0.00190
4875.16877,0.00839
4877.09724,0.01855
4879.02571,0.02486
4880.95418,0.02267
4882.88265,0.02185
4884.81111,0.02557
4886.73958,0.02251
4888.66805,0.01102
4890.59652,0.00187
4892.52499,0.00161
4894.45346,0.00280
4896.38193,0.00211
4898.31039,0.00848
4900.23886,0.02100
4902.16733,0.02616
4904.09580,0.01795
4906.02427,0.00654
4907.95274,-0.00123
4909.88121,-0.00722
4911.80967,-0.01042
4913.73814,-0.01070
4915.66661,-0.00427
4917.59508,0.00934
4919.52355,0.02020
4921.45202,0.02407
4923.38049,0.02256
4925.30896,0.01737
4927.23742,0.01198
4929.16589,0.00871
4931.09436,0.00618
4933.02283,0.00361
4934.95130,0.00629
4936.87977,0.01451
4938.80824,0.01888
4940.73670,0.01708
4942.66517,0.01767
4944.59364,0.02532
4946.52211,0.03222
4948.45058,0.03008
4950.37905,0.02272
4952.30752,0.01334
4954.23599,0.00363
4956.16445,0.00117
4958.09292,0.00275
4960.02139,0.00426
4961.94986,0.01131
4963.87833,0.02144
4965.80680,0.02758
4967.73527,0.02389
4969.66373,0.01056
4971.59220,0.00195
4973.52067,0.00631
4975.44914,0.01357
4977.37761,0.01927
4979.30608,0.02001
4981.23455,0.00910
4983.16302,-0.00053
4985.09148,-0.00469
4987.01995,-0.01000
4988.94842,-0.00739
4990.87689,0.00204
4992.80536,0.00877
4994.73383,0.01265
4996.66230,0.01405
4998.59076,0.01482
5000.51923,0.01641
5002.44770,0.01327
5004.37617,0.00338
5006.30464,-0.00470
5008.23311,-0.00913
5010.16158,-0.00941
5012.09005,0.00146
5014.01851,0.01577
5015.94698,0.01989
5017.87545,0.01386
5019.80392,0.00714
5021.73239,0.00522
5023.66086,-0.00109
5025.58933,-0.00755
5027.51779,0.00629
5029.44626,0.02458
5031.37473,0.02401
5033.30320,0.01993
5035.23167,0.01832
5037.16014,0.00849
5039.08861,-0.00249
5041.01708,-0.00442
5042.94554,0.00008
5044.87401,0.00008
5046.80248,0.00366
5048.73095,0.02252
5050.65942,0.02541
5052.58789,0.00006
5054.51636,-0.01741
5056.44482,-0.01145
5058.37329,0.00611
5060.30176,0.01594
5062.23023,0.00948
5064.15870,0.00108
5066.08717,0.00114
5068.01564,0.00279
5069.94410,-0.00369
5071.87257,-0.01214
5073.80104,-0.01212
5075.72951,-0.00705
5077.65798,-0.00071
5079.58645,0.00743
5081.51492,0.01599
5083.44339,0.02024
5085.37185,0.01939
5087.30032,0.02135
5089.22879,0.02708
5091.15726,0.02639
5093.08573,0.01845
5095.01420,0.01783
5096.94267,0.02360
5098.87113,0.01952
5100.79960,0.01306
5102.72807,0.01786
5104.65654,0.02544
5106.58501,0.02030
5108.51348,0.00618
5110.44195,0.00393
5112.37042,0.01101
5114.29888,0.00851
5116.22735,0.00074
5118.15582,0.00334
5120.08429,0.01385
5122.01276,0.01733
5123.94123,0.01712
5125.86970,0.02597
5127.79816,0.03571
5129.72663,0.03490
5131.65510,0.03789
5133.58357,0.05240
5135.51204,0.05450
5137.44051,0.03765
5139.36898,0.02836
5141.29745,0.03488
5143.22591,0.04037
5145.15438,0.03591
5147.08285,0.02174
5149.01132,0.00649
5150.93979,-0.00118
5152.86826,-0.01170
5154.79673,-0.02427
5156.72519,-0.01859
5158.65366,-0.00397
5160.58213,-0.00458
5162.51060,-0.00561
5164.43907,0.01150
5166.36754,0.02534
5168.29601,0.02203
5170.22448,0.01730
5172.15294,0.02470
5174.08141,0.03325
5176.00988,0.02639
5177.93835,0.02012
5179.86682,0.03295
5181.79529,0.04825
5183.72376,0.04731
5185.65222,0.03359
5187.58069,0.02467
5189.50916,0.02907
5191.43763,0.03600
5193.36610,0.03615
5195.29457,0.03617
5197.22304,0.04114
5199.15151,0.03789
5201.07997,0.02723
5203.00844,0.02998
5204.93691,0.03856
5206.86538,0.02830
5208.79385,0.00462
5210.72232,-0.01065
5212.65079,-0.00972
5214.57925,-0.00335
5216.50772,-0.00049
5218.43619,0.00900
5220.36466,0.02149
5222.29313,0.02086
5224.22160,0.01660
5226.15007,0.02419
5228.07854,0.03603
5230.00700,0.04231
5231.93547,0.04579
5233.86394,0.05159
5235.79241,0.05951
5237.72088,0.05910
5239.64935,0.04371
5241.57782,0.02658
5243.50628,0.02732
5245.43475,0.04216
5247.36322,0.04739
5249.29169,0.04708
5251.22016,0.05334
5253.14863,0.04637
5255.07710,0.02447
5257.00556,0.01592
5258.93403,0.02577
5260.86250,0.04127
5262.79097,0.04897
5264.71944,0.04259
5266.64791,0.04146
5268.57638,0.05349
5270.50485,0.05699
5272.43331,0.03829
5274.36178,0.01705
5276.29025,0.02229
5278.21872,0.04314
5280.14719,0.04524
5282.07566,0.02623
5284.00413,0.00810
5285.93259,0.00844
5287.86106,0.01702
5289.78953,0.01679
5291.71800,0.01871
5293.64647,0.02853
5295.57494,0.02908
5297.50341,0.01346
5299.43188,0.00643
5301.36034,0.02884
5303.28881,0.05051
5305.21728,0.04718
5307.14575,0.04056
5309.07422,0.03530
5311.00269,0.02174
5312.93116,0.02609
5314.85962,0.05268
5316.78809,0.06193
5318.71656,0.04961
5320.64503,0.03195
5322.57350,0.01348
5324.50197,0.01336
5326.43044,0.02607
5328.35891,0.03115
5330.28737,0.04083
5332.21584,0.04979
5334.14431,0.04591
5336.07278,0.05286
5338.00125,0.07054
5339.92972,0.07338
5341.85819,0.06700
5343.78665,0.05767
5345.71512,0.05670
5347.64359,0.07274
5349.57206,0.08226
5351.50053,0.07676
5353.42900,0.06377
5355.35747,0.05419
5357.28594,0.06424
5359.21440,0.08500
5361.14287,0.09124
5363.07134,0.07860
5364.99981,0.06593
5366.92828,0.06519
5368.85675,0.07277
5370.78522,0.07829
5372.71368,0.07046
5374.64215,0.05074
5376.57062,0.03698
5378.49909,0.04684
5380.42756,0.06818
5382.35603,0.07178
5384.28450,0.05314
5386.21297,0.04433
5388.14143,0.04877
5390.06990,0.04695
5391.99837,0.05029
5393.92684,0.05818
5395.85531,0.04729
5397.78378,0.02683
5399.71225,0.01970
5401.64071,0.02069
5403.56918,0.02410
5405.49765,0.04177
5407.42612,0.06497
5409.35459,0.08154
5411.28306,0.09616
5413.21153,0.09500
5415.13999,0.07536
5417.06846,0.06483
5418.99693,0.06785
5420.92540,0.07648
5422.85387,0.08618
5424.78234,0.08352
5426.71081,0.06134
5428.63928,0.04162
5430.56774,0.04390
5432.49621,0.04606
5434.42468,0.03941
5436.35315,0.04060
5438.28162,0.04742
5440.21009,0.04875
5442.13856,0.03873
5444.06702,0.02964
5445.99549,0.03623
5447.92396,0.04896
5449.85243,0.06518
5451.78090,0.08333
5453.70937,0.09133
5455.63784,0.10259
5457.56631,0.12086
5459.49477,0.11867
5461.42324,0.09556
5463.35171,0.06699
5465.28018,0.04694
5467.20865,0.04003
5469.13712,0.04086
5471.06559,0.05244
5472.99405,0.07023
5474.92252,0.08569
5476.85099,0.09134
5478.77946,0.07847
5480.70793,0.06103
5482.63640,0.06062
5484.56487,0.05856
5486.49334,0.04550
5488.42180,0.04949
5490.35027,0.06491
5492.27874,0.07198
5494.20721,0.06230
5496.13568,0.04151
5498.06415,0.03035
5499.99262,0.03098
5501.92108,0.03889
5503.84955,0.05741
5505.77802,0.08693
5507.70649,0.11566
5509.63496,0.12908
5511.56343,0.13056
5513.49190,0.12456
5515.42037,0.10635
5517.34883,0.08471
5519.27730,0.07944
5521.20577,0.08655
5523.13424,0.08899
5525.06271,0.07387
5526.99118,0.05569
5528.91965,0.06349
5530.84811,0.08007
5532.77658,0.08903
5534.70505,0.09613
5536.63352,0.08874
5538.56199,0.07966
5540.49046,0.07524
5542.41893,0.05819
5544.34740,0.05271
5546.27586,0.07118
5548.20433,0.08856
5550.13280,0.08990
5552.06127,0.07493
5553.98974,0.06473
5555.91821,0.07085
5557.84668,0.07069
5559.77514,0.05758
5561.70361,0.04741
5563.63208,0.03724
5565.56055,0.02442
5567.48902,0.02443
5569.41749,0.03169
5571.34596,0.03739
5573.27443,0.06192
5575.20289,0.09089
5577.13136,0.08344
5579.05983,0.05936
5580.98830,0.05488
5582.91677,0.06902
5584.84524,0.08242
5586.77371,0.08185
5588.70217,0.07621
5590.63064,0.07833
5592.55911,0.07749
5594.48758,0.07499
5596.41605,0.09421
5598.34452,0.12195
5600.27299,0.11531
5602.20145,0.06789
5604.12992,0.01707
5606.05839,0.00751
5607.98686,0.03565
5609.91533,0.05437
5611.84380,0.05211
5613.77227,0.05566
5615.70074,0.07590
5617.62920,0.09944
5619.55767,0.10503
5621.48614,0.09922
5623.41461,0.09489
5625.34308,0.08880
5627.27155,0.09469
5629.20002,0.10488
5631.12848,0.11121
5633.05695,0.12478
5634.98542,0.12250
5636.91389,0.09879
5638.84236,0.07515
5640.77083,0.05754
5642.69930,0.05578
5644.62777,0.06741
5646.55623,0.07203
5648.48470,0.06345
5650.41317,0.05988
5652.34164,0.07309
5654.27011,0.08207
5656.19858,0.07279
5658.12705,0.06094
5660.05551,0.05581
5661.98398,0.05701
5663.91245,0.06499
5665.84092,0.06871
5667.76939,0.05584
5669.69786,0.03164
5671.62633,0.00944
5673.55480,0.00802
5675.48326,0.04583
5677.41173,0.10207
5679.34020,0.13248
5681.26867,0.12597
5683.19714,0.10370
5685.12561,0.08683
5687.05408,0.08523
5688.98254,0.10442
5690.91101,0.11913
5692.83948,0.10249
5694.76795,0.07050
5696.69642,0.05606
5698.62489,0.06570
5700.55336,0.06107
5702.48183,0.03593
5704.41029,0.03604
5706.33876,0.06810
5708.26723,0.09743
5710.19570,0.10379
5712.12417,0.09676
5714.05264,0.09218
5715.98111,0.08548
5717.90957,0.07005
5719.83804,0.06517
5721.76651,0.08127
5723.69498,0.08291
5725.62345,0.05548
5727.55192,0.04366
5729.48039,0.06203
5731.40886,0.07615
5733.33732,0.08175
5735.26579,0.09575
5737.19426,0.11839
5739.12273,0.13050
5741.05120,0.12650
5742.97967,0.11841
5744.90814,0.10963
5746.83660,0.11254
5748.76507,0.13576
5750.69354,0.14782
5752.62201,0.12704
5754.55048,0.09497
5756.47895,0.06621
5758.40742,0.05123
5760.33588,0.05929
5762.26435,0.08184
5764.19282,0.10172
5766.12129,0.09637
5768.04976,0.07233
5769.97823,0.05830
5771.90670,0.05600
5773.83517,0.05904
5775.76363,0.05627
5777.69210,0.03505
5779.62057,0.01998
5781.54904,0.04194
5783.47751,0.08785
5785.40598,0.12345
5787.33445,0.12817
5789.26291,0.11352
5791.19138,0.11328
5793.11985,0.12637
5795.04832,0.11803
5796.97679,0.08296
5798.90526,0.04634
5800.83373,0.03101
5802.76220,0.04037
5804.69066,0.05736
5806.61913,0.06961
5808.54760,0.07355
5810.47607,0.06530
5812.40454,0.05044
5814.33301,0.04942
5816.26148,0.07514
5818.18994,0.10910
5820.11841,0.11836
5822.04688,0.09687
5823.97535,0.07264
5825.90382,0.07104
5827.83229,0.08581
5829.76076,0.09675
5831.68923,0.10014
5833.61769,0.09529
5835.54616,0.08506
5837.47463,0.08595
5839.40310,0.09534
5841.33157,0.10311
5843.26004,0.11130
5845.18851,0.10871
5847.11697,0.09458
5849.04544,0.09406
5850.97391,0.10381
5852.90238,0.11162
5854.83085,0.12457
5856.75932,0.12594
5858.68779,0.12413
5860.61626,0.14061
5862.54472,0.13108
5864.47319,0.08220
5866.40166,0.06096
5868.33013,0.08071
5870.25860,0.09007
5872.18707,0.08200
5874.11554,0.08204
5876.04400,0.09522
5877.97247,0.10518
5879.90094,0.09986
5881.82941,0.09113
5883.75788,0.08211
5885.68635,0.06002
5887.61482,0.03702
5889.54329,0.03728
5891.47175,0.05498
5893.40022,0.06693
5895.32869,0.06599
5897.25716,0.05880
5899.18563,0.05548
5901.11410,0.06794
5903.04257,0.08511
5904.97103,0.08127
5906.89950,0.06357
5908.82797,0.05246
5910.75644,0.05417
5912.68491,0.05696
5914.61338,0.05065
5916.54185,0.04821
5918.47032,0.05522
5920.39878,0.07032
5922.32725,0.09447
5924.25572,0.11528
5926.18419,0.13162
5928.11266,0.14273
5930.04113,0.13108
5931.96960,0.10144
5933.89806,0.07410
5935.82653,0.06086
5937.75500,0.06452
5939.68347,0.08230
5941.61194,0.09546
5943.54041,0.07559
5945.46888,0.05876
5947.39734,0.07985
5949.32581,0.08968
5951.25428,0.07317
5953.18275,0.06079
5955.11122,0.04753
5957.03969,0.03482
5958.96816,0.04678
5960.89663,0.08213
5962.82509,0.08202
5964.75356,0.03644
5966.68203,0.01597
5968.61050,0.04174
5970.53897,0.06674
5972.46744,0.07426
5974.39591,0.07088
5976.32437,0.07174
5978.25284,0.09360
5980.18131,0.10862
5982.10978,0.09080
5984.03825,0.06300
5985.96672,0.05046
5987.89519,0.06117
5989.82366,0.08586
5991.75212,0.11457
5993.68059,0.14133
5995.60906,0.13538
5997.53753,0.10605
5999.46600,0.10151
6001.39447,0.10883
6003.32294,0.09269
6005.25140,0.07863
6007.17987,0.10116
6009.10834,0.10729
6011.03681,0.05993
6012.96528,0.02708
6014.89375,0.04920
6016.82222,0.09529
6018.75069,0.13107
6020.67915,0.11822
6022.60762,0.07711
6024.53609,0.06596
6026.46456,0.06989
6028.39303,0.07058
6030.32150,0.07765
6032.24997,0.08563
6034.17843,0.11150
6036.10690,0.15021
6038.03537,0.15866
6039.96384,0.14034
6041.89231,0.11964
6043.82078,0.09619
6045.74925,0.06005
6047.67772,0.01926
6049.60618,0.00831
6051.53465,0.03964
6053.46312,0.08972
6055.39159,0.13513
6057.32006,0.15085
6059.24853,0.12814
6061.17700,0.08670
6063.10546,0.04112
6065.03393,0.00505
6066.96240,0.00433
6068.89087,0.03563
6070.81934,0.06884
6072.74781,0.08180
6074.67628,0.07082
6076.60475,0.05023
6078.53321,0.03369
6080.46168,0.02633
6082.39015,0.03978
6084.31862,0.07265
6086.24709,0.09032
6088.17556,0.07776
6090.10403,0.05269
6092.03249,0.03526
6093.96096,0.04929
6095.88943,0.08204
6097.81790,0.09897
6099.74637,0.08756
6101.67484,0.06962
6103.60331,0.08504
6105.53177,0.11718
6107.46024,0.12319
6109.38871,0.12492
6111.31718,0.12814
6113.24565,0.10424
6115.17412,0.09038
6117.10259,0.09030
6119.03106,0.05790
6120.95952,0.02604
6122.88799,0.04034
6124.81646,0.06772
6126.74493,0.06733
6128.67340,0.03592
6130.60187,0.00538
6132.53034,0.01020
6134.45880,0.02452
6136.38727,0.02978
6138.31574,0.06055
6140.24421,0.11580
6142.17268,0.15464
6144.10115,0.16432
6146.02962,0.15624
6147.95809,0.13876
6149.88655,0.11442
6151.81502,0.09655
6153.74349,0.11436
6155.67196,0.14634
6157.60043,0.13655
6159.52890,0.09061
6161.45737,0.07410
6163.38583,0.10920
6165.31430,0.15044
6167.24277,0.16540
6169.17124,0.14606
6171.09971,0.10673
6173.02818,0.07074
6174.95665,0.05149
6176.88512,0.05740
6178.81358,0.06480
6180.74205,0.06670
6182.67052,0.08289
6184.59899,0.10808
6186.52746,0.11195
6188.45593,0.08920
6190.38440,0.08287
6192.31286,0.09056
6194.24133,0.08121
6196.16980,0.08452
6198.09827,0.12774
6200.02674,0.15360
6201.95521,0.12662
6203.88368,0.08303
6205.81215,0.06513
6207.74061,0.07771
6209.66908,0.09757
6211.59755,0.09271
6213.52602,0.05953
6215.45449,0.04504
6217.38296,0.07650
6219.31143,0.10576
6221.23989,0.08585
6223.16836,0.04317
6225.09683,0.03820
6227.02530,0.09249
6228.95377,0.15860
6230.88224,0.13823
6232.81071,0.03951
6234.73918,-0.00777
6236.66764,0.01705
6238.59611,0.05759
6240.52458,0.09887
6242.45305,0.13438
6244.38152,0.13687
6246.30999,0.11301
6248.23846,0.08920
6250.16692,0.07194
6252.09539,0.07212
6254.02386,0.08932
6255.95233,0.10406
6257.88080,0.09297
6259.80927,0.05591
6261.73774,0.04110
6263.66621,0.05657
6265.59467,0.02970
6267.52314,-0.03636
6269.45161,-0.05418
6271.38008,-0.02765
6273.30855,-0.00572
6275.23702,0.01471
6277.16549,0.05183
6279.09395,0.08618
6281.02242,0.09573
6282.95089,0.08623
6284.87936,0.07661
6286.80783,0.05692
6288.73630,0.04057
6290.66477,0.04585
6292.59323,0.04976
6294.52170,0.06032
6296.45017,0.07969
6298.37864,0.08792
6300.30711,0.08837
6302.23558,0.08066
6304.16405,0.06108
6306.09252,0.05106
6308.02098,0.06477
6309.94945,0.07615
6311.87792,0.07611
6313.80639,0.06926
6315.73486,0.02296
6317.66333,-0.03173
6319.59180,-0.01657
6321.52026,0.02563
6323.44873,0.04233
6325.37720,0.06470
6327.30567,0.08071
6329.23414,0.09736
6331.16261,0.13343
6333.09108,0.12998
6335.01955,0.08085
6336.94801,0.03996
6338.87648,0.02692
6340.80495,0.04205
6342.73342,0.07007
6344.66189,0.09392
6346.59036,0.09162
6348.51883,0.07716
6350.44729,0.08887
6352.37576,0.07792
6354.30423,0.01956
6356.23270,-0.01798
6358.16117,-0.00953
6360.08964,-0.00508
6362.01811,-0.01864
6363.94658,-0.01359
6365.87504,0.00779
6367.80351,0.02932
6369.73198,0.06933
6371.66045,0.11283
6373.58892,0.10594
6375.51739,0.08781
6377.44586,0.10649
6379.37432,0.11361
6381.30279,0.09061
6383.23126,0.07033
6385.15973,0.06551
6387.08820,0.07070
6389.01667,0.09822
6390.94514,0.13594
6392.87361,0.13621
6394.80207,0.07910
6396.73054,0.00703
6398.65901,-0.01856
6400.58748,0.01979
6402.51595,0.06026
6404.44442,0.05663
6406.37289,0.04090
6408.30135,0.04137
6410.22982,0.04010
6412.15829,0.03002
6414.08676,0.03373
6416.01523,0.06271
6417.94370,0.10033
6419.87217,0.11825
6421.80064,0.10690
6423.72910,0.08331
6425.65757,0.05844
6427.58604,0.02332
6429.51451,-0.00495
6431.44298,-0.02086
6433.37145,-0.05959
6435.29992,-0.07682
6437.22838,-0.01240
6439.15685,0.04907
6441.08532,0.02255
6443.01379,-0.01911
6444.94226,0.03571
6446.87073,0.14092
6448.79920,0.16023
6450.72766,0.08199
6452.65613,0.04115
6454.58460,0.10262
6456.51307,0.16126
6458.44154,0.13361
6460.37001,0.09998
6462.29848,0.07807
6464.22695,0.01343
6466.15541,-0.02758
6468.08388,0.01531
6470.01235,0.07762
6471.94082,0.10729
6473.86929,0.11488
6475.79776,0.10693
6477.72623,0.10764
6479.65469,0.11103
6481.58316,0.06983
6483.51163,0.03131
6485.44010,0.04637
6487.36857,0.07750
6489.29704,0.09188
6491.22551,0.07236
6493.15398,0.02292
6495.08244,-0.00526
6497.01091,0.00495
6498.93938,0.01655
6500.86785,0.03679
6502.79632,0.09820
6504.72479,0.12929
6506.65326,0.07344
6508.58172,0.00967
6510.51019,0.01103
6512.43866,0.05088
6514.36713,0.11359
6516.29560,0.14562
6518.22407,0.09110
6520.15254,0.05718
6522.08101,0.08579
6524.00947,0.07444
6525.93794,-0.00945
6527.86641,-0.07253
6529.79488,-0.05359
6531.72335,-0.00845
6533.65182,-0.00539
6535.58029,-0.01594
6537.50875,0.00532
6539.43722,0.03614
6541.36569,0.02454
6543.29416,-0.02429
6545.22263,-0.04139
6547.15110,0.00381
6549.07957,0.06173
6551.00804,0.07719
6552.93650,0.05118
6554.86497,0.01178
6556.79344,0.01816
6558.72191,0.09103
6560.65038,0.13999
6562.57885,0.11975
6564.50732,0.11188
6566.43578,0.15090
6568.36425,0.15119
6570.29272,0.10332
6572.22119,0.07845
6574.14966,0.09087
6576.07813,0.08881
6578.00660,0.02493
6579.93507,-0.04104
6581.86353,-0.04274
6583.79200,-0.00467
6585.72047,0.03805
6587.64894,0.07855
6589.57741,0.13375
6591.50588,0.17176
6593.43435,0.12044
6595.36281,0.01553
6597.29128,-0.00571
6599.21975,0.07629
6601.14822,0.14805
6603.07669,0.16932
6605.00516,0.19643
6606.93363,0.18409
6608.86210,0.12204
6610.79056,0.10643
6612.71903,0.12111
6614.64750,0.08805
6616.57597,0.03416
6618.50444,0.03345
6620.43291,0.10595
6622.36138,0.16085
6624.28984,0.11554
6626.21831,0.04169
6628.14678,0.02904
6630.07525,0.06505
6632.00372,0.08484
6633.93219,0.08617
6635.86066,0.08241
6637.78912,0.06249
6639.71759,0.06697
6641.64606,0.09890
6643.57453,0.09873
6645.50300,0.05834
6647.43147,0.01129
6649.35994,0.01278
6651.28841,0.07290
6653.21687,0.11274
6655.14534,0.08279
6657.07381,0.02376
6659.00228,0.00954
6660.93075,0.03816
6662.85922,0.05765
6664.78769,0.08094
6666.71615,0.14583
6668.64462,0.20412
6670.57309,0.16664
6672.50156,0.02137
6674.43003,-0.11946
6676.35850,-0.13118
6678.28697,-0.03645
6680.21544,0.04702
6682.14390,0.05210
6684.07237,0.00311
6686.00084,-0.04335
6687.92931,-0.05692
6689.85778,-0.04342
6691.78625,-0.04889
6693.71472,-0.05631
6695.64318,-0.01778
6697.57165,0.05315
6699.50012,0.10982
6701.42859,0.12598
6703.35706,0.09190
6705.28553,0.03287
6707.21400,-0.01857
6709.14247,-0.03691
6711.07093,-0.02657
6712.99940,-0.02733
6714.92787,-0.04985
6716.85634,-0.05015
6718.78481,-0.03876
6720.71328,-0.04827
6722.64175,-0.03613
6724.57021,-0.01708
6726.49868,-0.03192
6728.42715,-0.02248
6730.35562,0.06795
6732.28409,0.16855
6734.21256,0.17418
6736.14103,0.10124
6738.06950,0.04718
6739.99796,0.02965
6741.92643,0.03672
6743.85490,0.06416
6745.78337,0.07778
6747.71184,0.06555
6749.64031,0.02835
6751.56878,-0.01467
6753.49724,-0.02485
6755.42571,-0.02718
6757.35418,-0.04569
6759.28265,-0.02941
6761.21112,0.01927
6763.13959,0.03093
6765.06806,0.00629
6766.99653,-0.03283
6768.92499,-0.05913
6770.85346,-0.05290
6772.78193,-0.03024
6774.71040,0.00818
6776.63887,0.06491
6778.56734,0.10356
6780.49581,0.10112
6782.42427,0.02270
6784.35274,-0.09862
6786.28121,-0.13329
6788.20968,-0.06108
6790.13815,0.05635
6792.06662,0.14795
6793.99509,0.14874
6795.92355,0.10763
6797.85202,0.09070
6799.78049,0.10671
6801.70896,0.16474
6803.63743,0.22760
6805.56590,0.17543
6807.49437,0.04528
6809.42284,-0.00770
6811.35130,0.02227
6813.27977,0.03173
6815.20824,0.02000
6817.13671,0.03911
6819.06518,0.05978
6820.99365,0.05203
6822.92212,0.03340
6824.85058,0.04123
6826.77905,0.07029
6828.70752,0.06780
6830.63599,0.03519
6832.56446,0.03708
6834.49293,0.08412
6836.42140,0.13539
6838.34987,0.12599
6840.27833,0.07371
6842.20680,0.03256
6844.13527,-0.01844
6846.06374,-0.09108
6847.99221,-0.14576
6849.92068,-0.11626
6851.84915,-0.00633
6853.77761,0.05335
6855.70608,0.01085
6857.63455,-0.04047
6859.56302,-0.07884
6861.49149,-0.10399
6863.41996,-0.08777
6865.34843,-0.06007
6867.27690,-0.02351
6869.20536,0.01244
6871.13383,0.00960
6873.06230,0.00803
6874.99077,0.06718
6876.91924,0.10148
6878.84771,0.05640
6880.77618,-0.00076
6882.70464,-0.04363
6884.63311,-0.04720
6886.56158,0.03445
6888.49005,0.14887
6890.41852,0.21571
6892.34699,0.23468
6894.27546,0.24666
6896.20393,0.22873
6898.13239,0.16343
6900.06086,0.10336
6901.98933,0.04362
6903.91780,-0.02246
6905.84627,-0.03542
6907.77474,0.01177
6909.70321,0.03895
6911.63167,0.01736
6913.56014,0.02305
6915.48861,0.04476
6917.41708,0.00652
6919.34555,-0.00575
6921.27402,0.08199
6923.20249,0.17725
6925.13096,0.23300
6927.05942,0.25337
6928.98789,0.22382
6930.91636,0.17293
6932.84483,0.17459
6934.77330,0.17655
6936.70177,0.13248
6938.63024,0.11487
6940.55870,0.15570
6942.48717,0.17438
6944.41564,0.12885
6946.34411,0.05593
6948.27258,0.04684
6950.20105,0.09672
6952.12952,0.11210
6954.05799,0.10590
6955.98645,0.11582
6957.91492,0.09155
6959.84339,0.00344
6961.77186,-0.07815
6963.70033,-0.05192
6965.62880,0.06842
6967.55727,0.19068
6969.48573,0.21132
6971.41420,0.13371
6973.34267,0.05597
6975.27114,0.04062
6977.19961,0.07498
6979.12808,0.08053
6981.05655,0.06024
6982.98501,0.07586
6984.91348,0.08608
6986.84195,0.05080
6988.77042,0.03017
6990.69889,0.04757
6992.62736,0.05086
6994.55583,0.03535
6996.48430,0.04603
6998.41276,0.04549
7000.34123,0.01624
7002.26970,0.02280
7004.19817,0.02307
7006.12664,-0.03193
7008.05511,-0.09293
7009.98358,-0.07868
7011.91204,-0.01465
7013.84051,0.03048
7015.76898,0.05970
7017.69745,0.05874
7019.62592,0.01560
7021.55439,-0.01106
7023.48286,-0.00082
7025.41133,0.04063
7027.33979,0.11239
7029.26826,0.16730
7031.19673,0.16655
7033.12520,0.13539
7035.05367,0.08270
7036.98214,0.02445
7038.91061,-0.02925
7040.83907,-0.05127
7042.76754,-0.00675
7044.69601,0.06612
7046.62448,0.14042
7048.55295,0.20344
7050.48142,0.22298
7052.40989,0.17493
7054.33836,0.07411
7056.26682,0.02716
7058.19529,0.05911
7060.12376,0.07354
7062.05223,0.07621
7063.98070,0.08679
7065.90917,0.07109
7067.83764,0.03306
7069.76610,0.00577
7071.69457,0.02593
7073.62304,0.07276
7075.55151,0.12079
7077.47998,0.17407
7079.40845,0.21191
7081.33692,0.16615
7083.26539,0.05273
7085.19385,-0.01390
7087.12232,-0.02098
7089.05079,-0.04047
7090.97926,-0.11317
7092.90773,-0.11975
7094.83620,0.02496
7096.76467,0.17488
7098.69313,0.20248
7100.62160,0.16978
7102.55007,0.14374
7104.47854,0.11654
7106.40701,0.11207
7108.33548,0.12422
7110.26395,0.14769
7112.19242,0.17320
7114.12088,0.12564
7116.04935,0.04886
7117.97782,0.07729
7119.90629,0.14046
7121.83476,0.11915
7123.76323,0.09636
7125.69170,0.11972
7127.62016,0.14705
7129.54863,0.14519
7131.47710,0.11461
7133.40557,0.10832
7135.33404,0.10570
7137.26251,0.04188
7139.19098,-0.02302
7141.11944,-0.05222
7143.04791,-0.08620
7144.97638,-0.01832
7146.90485,0.16435
7148.83332,0.23687
7150.76179,0.18499
7152.69026,0.11811
7154.61873,0.10054
7156.54719,0.12444
7158.47566,0.12272
7160.40413,0.09111
7162.33260,0.07845
7164.26107,0.06785
7166.18954,0.01392
7168.11801,-0.05501
7170.04647,-0.07827
7171.97494,-0.04322
7173.90341,-0.02681
7175.83188,-0.05227
7177.76035,-0.05781
7179.68882,0.03671
7181.61729,0.18959
7183.54576,0.21479
7185.47422,0.16062
7187.40269,0.14434
7189.33116,0.08982
7191.25963,-0.01995
7193.18810,-0.06839
7195.11657,0.00084
7197.04504,0.07878
7198.97350,0.10241
7200.90197,0.12333
7202.83044,0.17010
7204.75891,0.17923
7206.68738,0.10414
7208.61585,0.04601
7210.54432,-0.02685
7212.47279,-0.11031
7214.40125,-0.07277
7216.32972,0.11966
7218.25819,0.29503
7220.18666,0.25753
7222.11513,0.11937
7224.04360,0.03374
7225.97207,0.05073
7227.90053,0.01739
7229.82900,-0.16028
7231.75747,-0.26132
7233.68594,-0.15165
7235.61441,-0.02523
7237.54288,0.03172
7239.47135,0.04002
7241.39982,0.01379
7243.32828,-0.02321
7245.25675,-0.05778
7247.18522,-0.08206
7249.11369,-0.03575
7251.04216,0.03947
7252.97063,-0.00183
7254.89910,-0.09671
7256.82756,-0.07043
7258.75603,0.04258
7260.68450,0.12300
7262.61297,0.13019
7264.54144,0.12245
7266.46991,0.09190
7268.39838,0.04448
7270.32685,-0.03812
7272.25531,-0.12969
7274.18378,-0.16154
7276.11225,-0.19748
7278.04072,-0.20134
7279.96919,-0.06551
7281.89766,0.09089
7283.82613,0.14066
7285.75459,0.11777
7287.68306,0.06362
7289.61153,0.04265
7291.54000,0.08645
7293.46847,0.13676
7295.39694,0.12340
7297.32541,0.05451
7299.25387,0.01167
7301.18234,0.04253
7303.11081,0.04687
7305.03928,-0.04988
7306.96775,-0.04308
7308.89622,0.19409
7310.82469,0.28930
7312.75316,0.17445
7314.68162,0.13111
7316.61009,0.13789
7318.53856,0.09425
7320.46703,0.12196
7322.39550,0.17634
7324.32397,0.13902
7326.25244,0.17284
7328.18090,0.36815
7330.10937,0.38763
7332.03784,0.12504
7333.96631,-0.02945
7335.89478,0.01740
7337.82325,0.12092
7339.75172,0.25800
7341.68019,0.37453
7343.60865,0.40698
7345.53712,0.44248
7347.46559,0.41930
7349.39406,0.23314
7351.32253,0.04980
7353.25100,0.03903
7355.17947,0.07131
7357.10793,-0.03153
7359.03640,-0.24550
7360.96487,-0.32602
7362.89334,-0.17663
7364.82181,-0.00897
7366.75028,0.04697
7368.67875,0.10484
7370.60722,0.19024
7372.53568,0.18846
7374.46415,0.07802
7376.39262,0.04794
7378.32109,0.14704
7380.24956,0.16765
7382.17803,-0.00654
7384.10650,-0.21427
7386.03496,-0.25424
7387.96343,-0.16113
7389.89190,-0.14052
7391.82037,-0.15712
7393.74884,-0.06306
7395.67731,0.06593
7397.60578,0.15840
7399.53425,0.19197
7401.46271,0.14622
7403.39118,0.10905
7405.31965,0.09933
7407.24812,0.06874
7409.17659,0.06470
7411.10506,0.08968
7413.03353,0.11656
7414.96199,0.12056
7416.89046,0.06242
7418.81893,0.01381
7420.74740,0.07354
7422.67587,0.09486
7424.60434,0.05765
7426.53281,0.04503
7428.46128,0.01211
7430.38974,-0.12790
7432.31821,-0.25937
7434.24668,-0.24215
7436.17515,-0.09095
7438.10362,0.01189
7440.03209,0.00542
7441.96056,0.04972
7443.88902,0.11027
7445.81749,0.14122
7447.74596,0.16766
7449.67443,0.18153
7451.60290,0.20892
7453.53137,0.16132
7455.45984,0.03358
7457.38831,-0.02590
7459.31677,-0.00580
7461.24524,-0.06139
7463.17371,-0.16601
7465.10218,-0.17734
7467.03065,-0.08326
7468.95912,-0.01993
7470.88759,-0.08979
7472.81605,-0.16185
7474.74452,-0.17184
7476.67299,-0.14563
7478.60146,-0.01284
7480.52993,0.06343
7482.45840,-0.01630
7484.38687,-0.01622
7486.31533,0.08935
7488.24380,0.24696
7490.17227,0.36121
7492.10074,0.28941
7494.02921,0.16393
7495.95768,0.10677
7497.88615,0.13528
