399.19301,0.58044
401.12148,0.37999
403.04995,0.34785
404.97842,0.22306
406.90689,0.01808
408.83536,-0.06650
410.76382,-0.04889
412.69229,-0.07461
414.62076,-0.04663
416.54923,0.05395
418.47770,0.04000
420.40617,-0.05354
422.33464,-0.01277
424.26311,0.05107
426.19157,0.04679
428.12004,0.00529
430.04851,-0.00337
431.97698,0.07341
433.90545,0.13007
435.83392,0.07662
437.76239,0.00826
439.69085,0.01239
441.61932,0.07839
443.54779,0.13204
445.47626,0.12637
447.40473,0.07850
449.33320,0.02632
451.26167,-0.00404
453.19013,-0.01935
455.11860,-0.00214
457.04707,0.07158
458.97554,0.12948
460.90401,0.12589
462.83248,0.09690
464.76095,0.05516
466.68942,0.04763
468.61788,0.08840
470.54635,0.14918
472.47482,0.23020
474.40329,0.23195
476.33176,0.11228
478.26023,0.04414
480.18870,0.04150
482.11716,0.06260
484.04563,0.06807
485.97410,0.04301
487.90257,0.01028
489.83104,-0.01286
491.75951,-0.01229
493.68798,0.01381
495.61645,0.04633
497.54491,0.07981
499.47338,0.11207
501.40185,0.14075
503.33032,0.15146
505.25879,0.11145
507.18726,0.04386
509.11573,0.02448
511.04419,0.03753
512.97266,0.03971
514.90113,0.04928
516.82960,0.07474
518.75807,0.08300
520.68654,0.07805
522.61501,0.08484
524.54348,0.06940
526.47194,0.02560
528.40041,0.01125
530.32888,0.02110
532.25735,0.02618
534.18582,0.02714
536.11429,0.03218
538.04276,0.05130
539.97122,0.06737
541.89969,0.05235
543.82816,0.03496
545.75663,0.04637
547.68510,0.06201
549.61357,0.02288
551.54204,-0.16040
553.47051,-0.35515
555.39897,-0.28601
557.32744,-0.06662
559.25591,0.03419
561.18438,0.05513
563.11285,0.08017
565.04132,0.10409
566.96979,0.12391
568.89825,0.11816
570.82672,0.09871
572.75519,0.09300
574.68366,0.09310
576.61213,0.08521
578.54060,0.08341
580.46907,0.09585
582.39754,0.10078
584.32600,0.08684
586.25447,0.07670
588.18294,0.09059
590.11141,0.10663
592.03988,0.09264
593.96835,0.07819
595.89682,0.09603
597.82528,0.11601
599.75375,0.11885
601.68222,0.10329
603.61069,0.08263
605.53916,0.08473
607.46763,0.09363
609.39610,0.09135
611.32456,0.09468
613.25303,0.10519
615.18150,0.10203
617.10997,0.09000
619.03844,0.09062
620.96691,0.09926
622.89538,0.10590
624.82385,0.10490
626.75231,0.09322
628.68078,0.08666
630.60925,0.09077
632.53772,0.09918
634.46619,0.11192
636.39466,0.11558
638.32313,0.10484
640.25159,0.09171
642.18006,0.08256
644.10853,0.08145
646.03700,0.09102
647.96547,0.10020
649.89394,0.09817
651.82241,0.09219
653.75088,0.09529
655.67934,0.10260
657.60781,0.09364
659.53628,0.07743
661.46475,0.07786
663.39322,0.08255
665.32169,0.07257
667.25016,0.05711
669.17862,0.06601
671.10709,0.08476
673.03556,0.09643
674.96403,0.10636
676.89250,0.11426
678.82097,0.11806
680.74944,0.11567
682.67791,0.10892
684.60637,0.10060
686.53484,0.09716
688.46331,0.10367
690.39178,0.10523
692.32025,0.09185
694.24872,0.08576
696.17719,0.09784
698.10565,0.10710
700.03412,0.10370
701.96259,0.10146
703.89106,0.10500
705.81953,0.10800
707.74800,0.10849
709.67647,0.10005
711.60494,0.08946
713.53340,0.08951
715.46187,0.09400
717.39034,0.09573
719.31881,0.09184
721.24728,0.08888
723.17575,0.09574
725.10422,0.10353
727.03268,0.10697
728.96115,0.11142
730.88962,0.11775
732.81809,0.12234
734.74656,0.11918
736.67503,0.11070
738.60350,0.10468
740.53197,0.10282
742.46043,0.10638
744.38890,0.11209
746.31737,0.11400
748.24584,0.11055
750.17431,0.10327
752.10278,0.09903
754.03125,0.10395
755.95971,0.10962
757.88818,0.10556
759.81665,0.10559
761.74512,0.11503
763.67359,0.11346
765.60206,0.10568
767.53053,0.11466
769.45900,0.12886
771.38746,0.12147
773.31593,0.10328
775.24440,0.10190
777.17287,0.11362
779.10134,0.12249
781.02981,0.12541
782.95828,0.12259
784.88674,0.11796
786.81521,0.11670
788.74368,0.11496
790.67215,0.11265
792.60062,0.11813
794.52909,0.12510
796.45756,0.12462
798.38602,0.12324
800.31449,0.12159
802.24296,0.11679
804.17143,0.11227
806.09990,0.10679
808.02837,0.10289
809.95684,0.11044
811.88531,0.11777
813.81377,0.10998
815.74224,0.10203
817.67071,0.10590
819.59918,0.11524
821.52765,0.12187
823.45612,0.11956
825.38459,0.10955
827.31305,0.10236
829.24152,0.10331
831.16999,0.10449
833.09846,0.10325
835.02693,0.10292
836.95540,0.10174
838.88387,0.10191
840.81234,0.10678
842.74080,0.11219
844.66927,0.11354
846.59774,0.11156
848.52621,0.10919
850.45468,0.10857
852.38315,0.11090
854.31162,0.11678
856.24008,0.12151
858.16855,0.12109
860.09702,0.12195
862.02549,0.12397
863.95396,0.12123
865.88243,0.11936
867.81090,0.11606
869.73937,0.10621
871.66783,0.10574
873.59630,0.12189
875.52477,0.13346
877.45324,0.12678
879.38171,0.11324
881.31018,0.10844
883.23865,0.11630
885.16711,0.12208
887.09558,0.11821
889.02405,0.11974
890.95252,0.12603
892.88099,0.12485
894.80946,0.12179
896.73793,0.12529
898.66640,0.13240
900.59486,0.13386
902.52333,0.12722
904.45180,0.12256
906.38027,0.12453
908.30874,0.12813
910.23721,0.13079
912.16568,0.13260
914.09414,0.13247
916.02261,0.13109
917.95108,0.13019
919.87955,0.12750
921.80802,0.12492
923.73649,0.12618
925.66496,0.12938
927.59343,0.13390
929.52189,0.13915
931.45036,0.14153
933.37883,0.13892
935.30730,0.13449
937.23577,0.13242
939.16424,0.13357
941.09271,0.13550
943.02117,0.13465
944.94964,0.13225
946.87811,0.12966
948.80658,0.12858
950.73505,0.13311
952.66352,0.13785
954.59199,0.13440
956.52045,0.12906
958.44892,0.13021
960.37739,0.13366
962.30586,0.13473
964.23433,0.13424
966.16280,0.13205
968.09127,0.12995
970.01974,0.13095
971.94820,0.13212
973.87667,0.13235
975.80514,0.13322
977.73361,0.13114
979.66208,0.12566
981.59055,0.12501
983.51902,0.13345
985.44748,0.14170
987.37595,0.14184
989.30442,0.13778
991.23289,0.13474
993.16136,0.13603
995.08983,0.14002
997.01830,0.13924
998.94677,0.13405
1000.87523,0.12994
1002.80370,0.12902
1004.73217,0.13117
1006.66064,0.13413
1008.58911,0.13930
1010.51758,0.14415
1012.44605,0.14249
1014.37451,0.14099
1016.30298,0.14293
1018.23145,0.14034
1020.15992,0.13546
1022.08839,0.13545
1024.01686,0.13921
1025.94533,0.14810
1027.87380,0.15928
1029.80226,0.15724
1031.73073,0.14158
1033.65920,0.12912
1035.58767,0.12541
1037.51614,0.12870
1039.44461,0.13767
1041.37308,0.14277
1043.30154,0.13881
1045.23001,0.13084
1047.15848,0.12283
1049.08695,0.12152
1051.01542,0.13046
1052.94389,0.14239
1054.87236,0.14919
1056.80083,0.14981
1058.72929,0.14605
1060.65776,0.14157
1062.58623,0.14367
1064.51470,0.14918
1066.44317,0.14765
1068.37164,0.14165
1070.30011,0.14221
1072.22857,0.14955
1074.15704,0.15321
1076.08551,0.15122
1078.01398,0.14536
1079.94245,0.13825
1081.87092,0.13914
1083.79939,0.14742
1085.72786,0.15076
1087.65632,0.14436
1089.58479,0.13970
1091.51326,0.14670
1093.44173,0.15479
1095.37020,0.15197
1097.29867,0.14832
1099.22714,0.15529
1101.15560,0.16218
1103.08407,0.16056
1105.01254,0.15822
1106.94101,0.15563
1108.86948,0.14824
1110.79795,0.14364
1112.72642,0.14675
1114.65489,0.14973
1116.58335,0.14747
1118.51182,0.14279
1120.44029,0.14068
1122.36876,0.14418
1124.29723,0.14929
1126.22570,0.15030
1128.15417,0.14762
1130.08263,0.14164
1132.01110,0.13411
1133.93957,0.13169
1135.86804,0.13621
1137.79651,0.14370
1139.72498,0.14891
1141.65345,0.14826
1143.58191,0.14581
1145.51038,0.14717
1147.43885,0.15058
1149.36732,0.15487
1151.29579,0.15993
1153.22426,0.16162
1155.15273,0.16010
1157.08120,0.15734
1159.00966,0.15256
1160.93813,0.14834
1162.86660,0.14665
1164.79507,0.14528
1166.72354,0.14473
1168.65201,0.14604
1170.58048,0.14911
1172.50894,0.15617
1174.43741,0.16262
1176.36588,0.16062
1178.29435,0.15313
1180.22282,0.14696
1182.15129,0.14634
1184.07976,0.15151
1186.00823,0.15699
1187.93669,0.15881
1189.86516,0.15827
1191.79363,0.15585
1193.72210,0.15236
1195.65057,0.15234
1197.57904,0.15678
1199.50751,0.16060
1201.43597,0.15967
1203.36444,0.15563
1205.29291,0.15347
1207.22138,0.15380
1209.14985,0.15386
1211.07832,0.15530
1213.00679,0.15879
1214.93526,0.16083
1216.86372,0.16138
1218.79219,0.16063
1220.72066,0.15741
1222.64913,0.15512
1224.57760,0.15627
1226.50607,0.15823
1228.43454,0.15759
1230.36300,0.15286
1232.29147,0.14731
1234.21994,0.14657
1236.14841,0.15144
1238.07688,0.15774
1240.00535,0.16061
1241.93382,0.15902
1243.86229,0.15667
1245.79075,0.15548
1247.71922,0.15492
1249.64769,0.15725
1251.57616,0.16159
1253.50463,0.16200
1255.43310,0.15710
1257.36157,0.15182
1259.29003,0.14983
1261.21850,0.14917
1263.14697,0.14897
1265.07544,0.15173
1267.00391,0.15650
1268.93238,0.16074
1270.86085,0.16431
1272.78932,0.16661
1274.71778,0.16748
1276.64625,0.16873
1278.57472,0.16883
1280.50319,0.16609
1282.43166,0.16526
1284.36013,0.16671
1286.28860,0.16373
1288.21706,0.15899
1290.14553,0.16031
1292.07400,0.16403
1294.00247,0.16458
1295.93094,0.16411
1297.85941,0.16419
1299.78788,0.16077
1301.71634,0.15198
1303.64481,0.14546
1305.57328,0.14970
1307.50175,0.15987
1309.43022,0.16417
1311.35869,0.16304
1313.28716,0.16279
1315.21563,0.16299
1317.14409,0.16413
1319.07256,0.16549
1321.00103,0.16377
1322.92950,0.16263
1324.85797,0.16330
1326.78644,0.16176
1328.71491,0.16044
1330.64337,0.16025
1332.57184,0.15921
1334.50031,0.15971
1336.42878,0.16179
1338.35725,0.16370
1340.28572,0.16145
1342.21419,0.15533
1344.14266,0.15308
1346.07112,0.15665
1347.99959,0.16236
1349.92806,0.16548
1351.85653,0.16510
1353.78500,0.16322
1355.71347,0.16150
1357.64194,0.16250
1359.57040,0.16713
1361.49887,0.17214
1363.42734,0.17131
1365.35581,0.16770
1367.28428,0.16852
1369.21275,0.17158
1371.14122,0.17227
1373.06969,0.17186
1374.99815,0.17333
1376.92662,0.17423
1378.85509,0.17186
1380.78356,0.16928
1382.71203,0.17034
1384.64050,0.17449
1386.56897,0.17873
1388.49743,0.17977
1390.42590,0.17911
1392.35437,0.18108
1394.28284,0.18578
1396.21131,0.19009
1398.13978,0.18902
1400.06825,0.18035
1401.99672,0.17323
1403.92518,0.17350
1405.85365,0.17509
1407.78212,0.17435
1409.71059,0.17385
1411.63906,0.17294
1413.56753,0.17300
1415.49600,0.17806
1417.42446,0.18797
1419.35293,0.19368
1421.28140,0.18985
1423.20987,0.18639
1425.13834,0.18550
1427.06681,0.18451
1428.99528,0.18320
1430.92375,0.18189
1432.85221,0.18262
1434.78068,0.18548
1436.70915,0.18370
1438.63762,0.17640
1440.56609,0.17307
1442.49456,0.17363
1444.42303,0.17581
1446.35149,0.18098
1448.27996,0.18655
1450.20843,0.18671
1452.13690,0.18537
1454.06537,0.18845
1455.99384,0.19688
1457.92231,0.19856
1459.85077,0.18890
1461.77924,0.18391
1463.70771,0.18449
1465.63618,0.18469
1467.56465,0.18352
1469.49312,0.18729
1471.42159,0.19635
1473.35006,0.19897
1475.27852,0.19105
1477.20699,0.18491
1479.13546,0.18249
1481.06393,0.18107
1482.99240,0.17994
1484.92087,0.18247
1486.84934,0.19168
1488.77780,0.20053
1490.70627,0.19632
1492.63474,0.18851
1494.56321,0.18811
1496.49168,0.19476
1498.42015,0.19916
1500.34862,0.19506
1502.27709,0.18963
1504.20555,0.19101
1506.13402,0.20688
1508.06249,0.21714
1509.99096,0.20447
1511.91943,0.19377
1513.84790,0.19273
1515.77637,0.19970
1517.70483,0.20716
1519.63330,0.21365
1521.56177,0.21731
1523.49024,0.20829
1525.41871,0.19777
1527.34718,0.19282
1529.27565,0.19098
1531.20412,0.19308
1533.13258,0.19866
1535.06105,0.20060
1536.98952,0.20243
1538.91799,0.21491
1540.84646,0.22807
1542.77493,0.21556
1544.70340,0.19987
1546.63186,0.19298
1548.56033,0.19399
1550.48880,0.19869
1552.41727,0.20534
1554.34574,0.21402
1556.27421,0.22277
1558.20268,0.22994
1560.13115,0.21623
1562.05961,0.20165
1563.98808,0.19754
1565.91655,0.19833
1567.84502,0.20365
1569.77349,0.20663
1571.70196,0.20123
1573.63043,0.20096
1575.55889,0.20758
1577.48736,0.20527
1579.41583,0.19539
1581.34430,0.18827
1583.27277,0.18520
1585.20124,0.18484
1587.12971,0.18514
1589.05818,0.18633
1590.98664,0.18736
1592.91511,0.18763
1594.84358,0.18817
1596.77205,0.18709
1598.70052,0.18556
1600.62899,0.18632
1602.55746,0.18738
1604.48592,0.18666
1606.41439,0.18589
1608.34286,0.18722
1610.27133,0.18999
1612.19980,0.19387
1614.12827,0.20036
1616.05674,0.20662
1617.98521,0.20298
1619.91367,0.19660
1621.84214,0.19741
1623.77061,0.20118
1625.69908,0.20142
1627.62755,0.20030
1629.55602,0.19732
1631.48449,0.19485
1633.41295,0.19981
1635.34142,0.21347
1637.26989,0.21616
1639.19836,0.20620
1641.12683,0.19822
1643.05530,0.19747
1644.98377,0.20701
1646.91223,0.21946
1648.84070,0.21901
1650.76917,0.21818
1652.69764,0.22295
1654.62611,0.21372
1656.55458,0.20088
1658.48305,0.18888
1660.41152,0.16825
1662.33998,0.15657
1664.26845,0.17686
1666.19692,0.19898
1668.12539,0.20930
1670.05386,0.21303
1671.98233,0.20910
1673.91080,0.20362
1675.83926,0.19986
1677.76773,0.19958
1679.69620,0.20290
1681.62467,0.20923
1683.55314,0.21902
1685.48161,0.22279
1687.41008,0.21875
1689.33855,0.21357
1691.26701,0.20806
1693.19548,0.20787
1695.12395,0.21629
1697.05242,0.22470
1698.98089,0.22612
1700.90936,0.22040
1702.83783,0.21163
1704.76629,0.20565
1706.69476,0.19882
1708.62323,0.19206
1710.55170,0.18826
1712.48017,0.18890
1714.40864,0.19622
1716.33711,0.20548
1718.26558,0.20264
1720.19404,0.19374
1722.12251,0.18878
1724.05098,0.18632
1725.97945,0.18584
1727.90792,0.18834
1729.83639,0.19360
1731.76486,0.20165
1733.69332,0.20800
1735.62179,0.20201
1737.55026,0.19582
1739.47873,0.19734
1741.40720,0.20154
1743.33567,0.20427
1745.26414,0.20689
1747.19261,0.21014
1749.12107,0.21152
1751.04954,0.20490
1752.97801,0.19525
1754.90648,0.19275
1756.83495,0.19605
1758.76342,0.19808
1760.69189,0.19892
1762.62035,0.19869
1764.54882,0.19662
1766.47729,0.19720
1768.40576,0.20057
1770.33423,0.20518
1772.26270,0.20719
1774.19117,0.20010
1776.11964,0.19310
1778.04810,0.19167
1779.97657,0.19127
1781.90504,0.18995
1783.83351,0.19178
1785.76198,0.19583
1787.69045,0.19814
1789.61892,0.19997
1791.54738,0.20203
1793.47585,0.20018
1795.40432,0.19550
1797.33279,0.19279
1799.26126,0.19253
1801.18973,0.19250
1803.11820,0.19123
1805.04666,0.19045
1806.97513,0.19137
1808.90360,0.19242
1810.83207,0.19200
1812.76054,0.19021
1814.68901,0.18849
1816.61748,0.18834
1818.54595,0.19052
1820.47441,0.19313
1822.40288,0.19392
1824.33135,0.19465
1826.25982,0.19720
1828.18829,0.20047
1830.11676,0.20066
1832.04523,0.19501
1833.97369,0.18948
1835.90216,0.18815
1837.83063,0.18889
1839.75910,0.18969
1841.68757,0.19370
1843.61604,0.20079
1845.54451,0.20193
1847.47298,0.19768
1849.40144,0.19393
1851.32991,0.19045
1853.25838,0.18797
1855.18685,0.18755
1857.11532,0.18830
1859.04379,0.18980
1860.97226,0.19099
1862.90072,0.19070
1864.82919,0.19174
1866.75766,0.19737
1868.68613,0.20344
1870.61460,0.20156
1872.54307,0.19506
1874.47154,0.19085
1876.40001,0.18946
1878.32847,0.18764
1880.25694,0.18683
1882.18541,0.19118
1884.11388,0.19556
1886.04235,0.19420
1887.97082,0.19290
1889.89929,0.19497
1891.82775,0.19640
1893.75622,0.19686
1895.68469,0.19552
1897.61316,0.19244
1899.54163,0.19209
1901.47010,0.19447
1903.39857,0.19520
1905.32704,0.19317
1907.25550,0.19112
1909.18397,0.19118
1911.11244,0.19252
1913.04091,0.19260
1914.96938,0.19281
1916.89785,0.19595
1918.82632,0.19765
1920.75478,0.19590
1922.68325,0.19401
1924.61172,0.19109
1926.54019,0.18922
1928.46866,0.18997
1930.39713,0.19033
1932.32560,0.19070
1934.25407,0.19138
1936.18253,0.18998
1938.11100,0.18853
1940.03947,0.19006
1941.96794,0.19283
1943.89641,0.19440
1945.82488,0.19364
1947.75335,0.19000
1949.68181,0.18685
1951.61028,0.18762
1953.53875,0.19071
1955.46722,0.19376
1957.39569,0.19502
1959.32416,0.19392
1961.25263,0.19269
1963.18110,0.19292
1965.10956,0.19299
1967.03803,0.19121
1968.96650,0.18958
1970.89497,0.18975
1972.82344,0.19105
1974.75191,0.19269
1976.68038,0.19286
1978.60884,0.19212
1980.53731,0.19272
1982.46578,0.19263
1984.39425,0.19115
1986.32272,0.19053
1988.25119,0.19050
1990.17966,0.19146
1992.10812,0.19195
1994.03659,0.19045
1995.96506,0.19067
1997.89353,0.19247
1999.82200,0.19314
2001.75047,0.19345
2003.67894,0.19459
2005.60741,0.19591
2007.53587,0.19628
2009.46434,0.19588
2011.39281,0.19508
2013.32128,0.19454
2015.24975,0.19468
2017.17822,0.19468
2019.10669,0.19387
2021.03515,0.19234
2022.96362,0.19091
2024.89209,0.19014
2026.82056,0.18988
2028.74903,0.19118
2030.67750,0.19407
2032.60597,0.19522
2034.53444,0.19335
2036.46290,0.19229
2038.39137,0.19376
2040.31984,0.19389
2042.24831,0.19175
2044.17678,0.19038
2046.10525,0.18979
2048.03372,0.19055
2049.96218,0.19394
2051.89065,0.19677
2053.81912,0.19698
2055.74759,0.19651
2057.67606,0.19505
2059.60453,0.19291
2061.53300,0.19309
2063.46147,0.19430
2065.38993,0.19410
2067.31840,0.19454
2069.24687,0.19677
2071.17534,0.19760
2073.10381,0.19545
2075.03228,0.19405
2076.96075,0.19584
2078.88921,0.19800
2080.81768,0.19774
2082.74615,0.19610
2084.67462,0.19486
2086.60309,0.19484
2088.53156,0.19576
2090.46003,0.19593
2092.38850,0.19560
2094.31696,0.19537
2096.24543,0.19394
2098.17390,0.19251
2100.10237,0.19365
2102.03084,0.19576
2103.95931,0.19576
2105.88778,0.19446
2107.81624,0.19355
2109.74471,0.19246
2111.67318,0.19129
2113.60165,0.19108
2115.53012,0.19263
2117.45859,0.19554
2119.38706,0.19733
2121.31553,0.19683
2123.24399,0.19639
2125.17246,0.19782
2127.10093,0.19954
2129.02940,0.19958
2130.95787,0.19788
2132.88634,0.19565
2134.81481,0.19557
2136.74327,0.19739
2138.67174,0.19786
2140.60021,0.19823
2142.52868,0.19916
2144.45715,0.19764
2146.38562,0.19504
2148.31409,0.19488
2150.24255,0.19708
2152.17102,0.19788
2154.09949,0.19634
2156.02796,0.19649
2157.95643,0.19845
2159.88490,0.19898
2161.81337,0.19914
2163.74184,0.20075
2165.67030,0.20187
2167.59877,0.20139
2169.52724,0.20080
2171.45571,0.20012
2173.38418,0.19825
2175.31265,0.19629
2177.24112,0.19636
2179.16958,0.19900
2181.09805,0.20185
2183.02652,0.20175
2184.95499,0.19934
2186.88346,0.19674
2188.81193,0.19510
2190.74040,0.19551
2192.66887,0.19628
2194.59733,0.19542
2196.52580,0.19443
2198.45427,0.19437
2200.38274,0.19446
2202.31121,0.19418
2204.23968,0.19464
2206.16815,0.19673
2208.09661,0.19826
2210.02508,0.19791
2211.95355,0.19676
2213.88202,0.19555
2215.81049,0.19467
2217.73896,0.19403
2219.66743,0.19362
2221.59590,0.19437
2223.52436,0.19623
2225.45283,0.19730
2227.38130,0.19734
2229.30977,0.19821
2231.23824,0.19866
2233.16671,0.19683
2235.09518,0.19554
2237.02364,0.19656
2238.95211,0.19743
2240.88058,0.19646
2242.80905,0.19493
2244.73752,0.19595
2246.66599,0.19960
2248.59446,0.20247
2250.52293,0.20393
2252.45139,0.20504
2254.37986,0.20402
2256.30833,0.19905
2258.23680,0.19393
2260.16527,0.19356
2262.09374,0.19655
2264.02221,0.19834
2265.95067,0.19711
2267.87914,0.19549
2269.80761,0.19554
2271.73608,0.19550
2273.66455,0.19479
2275.59302,0.19461
2277.52149,0.19552
2279.44996,0.19742
2281.37842,0.19860
2283.30689,0.19756
2285.23536,0.19518
2287.16383,0.19295
2289.09230,0.19188
2291.02077,0.18995
2292.94924,0.18476
2294.87770,0.18106
2296.80617,0.18319
2298.73464,0.18678
2300.66311,0.18617
2302.59158,0.18315
2304.52005,0.18201
2306.44852,0.18203
2308.37699,0.18230
2310.30545,0.18199
2312.23392,0.17981
2314.16239,0.17884
2316.09086,0.18038
2318.01933,0.18305
2319.94780,0.18590
2321.87627,0.18433
2323.80473,0.17682
2325.73320,0.17016
2327.66167,0.16690
2329.59014,0.16486
2331.51861,0.16701
2333.44708,0.17356
2335.37555,0.17450
2337.30401,0.16588
2339.23248,0.15449
2341.16095,0.14966
2343.08942,0.15861
2345.01789,0.16924
2346.94636,0.17061
2348.87483,0.16974
2350.80330,0.16932
2352.73176,0.16910
2354.66023,0.16382
2356.58870,0.14874
2358.51717,0.14318
2360.44564,0.15008
2362.37411,0.14981
2364.30258,0.14625
2366.23104,0.14644
2368.15951,0.15434
2370.08798,0.16606
2372.01645,0.17093
2373.94492,0.17267
2375.87339,0.17878
2377.80186,0.18748
2379.73033,0.19299
2381.65879,0.19400
2383.58726,0.19356
2385.51573,0.19363
2387.44420,0.19385
2389.37267,0.19435
2391.30114,0.19641
2393.22961,0.19865
2395.15807,0.19897
2397.08654,0.19912
2399.01501,0.20067
2400.94348,0.20208
2402.87195,0.20175
2404.80042,0.20021
2406.72889,0.19906
2408.65736,0.19922
2410.58582,0.20027
2412.51429,0.20131
2414.44276,0.20142
2416.37123,0.19976
2418.29970,0.19774
2420.22817,0.19766
2422.15664,0.19856
2424.08510,0.19864
2426.01357,0.19889
2427.94204,0.20047
2429.87051,0.20197
2431.79898,0.20129
2433.72745,0.20035
2435.65592,0.20130
2437.58439,0.20035
2439.51285,0.19633
2441.44132,0.19380
2443.36979,0.19405
2445.29826,0.19539
2447.22673,0.19822
2449.15520,0.20202
2451.08367,0.20359
2453.01213,0.20250
2454.94060,0.20106
2456.86907,0.20038
2458.79754,0.20065
2460.72601,0.20110
2462.65448,0.20054
2464.58295,0.19873
2466.51142,0.19746
2468.43988,0.19828
2470.36835,0.20004
2472.29682,0.20080
2474.22529,0.20024
2476.15376,0.20053
2478.08223,0.20172
2480.01070,0.20080
2481.93916,0.19903
2483.86763,0.19892
2485.79610,0.19965
2487.72457,0.20043
2489.65304,0.20084
2491.58151,0.20054
2493.50998,0.19998
2495.43844,0.20019
2497.36691,0.20123
2499.29538,0.20145
2501.22385,0.20064
2503.15232,0.19955
2505.08079,0.19697
2507.00926,0.19364
2508.93773,0.19384
2510.86619,0.19795
2512.79466,0.20148
2514.72313,0.20213
2516.65160,0.20150
2518.58007,0.20152
2520.50854,0.20116
2522.43701,0.19948
2524.36547,0.19869
2526.29394,0.20076
2528.22241,0.20397
2530.15088,0.20334
2532.07935,0.20017
2534.00782,0.20084
2535.93629,0.20326
2537.86476,0.20323
2539.79322,0.20302
2541.72169,0.20404
2543.65016,0.20580
2545.57863,0.20771
2547.50710,0.20745
2549.43557,0.20628
2551.36404,0.20759
2553.29250,0.20903
2555.22097,0.20752
2557.14944,0.20467
2559.07791,0.20395
2561.00638,0.20527
2562.93485,0.20475
2564.86332,0.20312
2566.79179,0.20389
2568.72025,0.20602
2570.64872,0.20693
2572.57719,0.20563
2574.50566,0.20387
2576.43413,0.20381
2578.36260,0.20382
2580.29107,0.20321
2582.21953,0.20420
2584.14800,0.20661
2586.07647,0.20755
2588.00494,0.20562
2589.93341,0.20327
2591.86188,0.20315
2593.79035,0.20485
2595.71882,0.20657
2597.64728,0.20679
2599.57575,0.20690
2601.50422,0.20862
2603.43269,0.21009
2605.36116,0.20954
2607.28963,0.20808
2609.21810,0.20808
2611.14656,0.20982
2613.07503,0.21076
2615.00350,0.20942
2616.93197,0.20661
2618.86044,0.20407
2620.78891,0.20279
2622.71738,0.20335
2624.64585,0.20550
2626.57431,0.20658
2628.50278,0.20605
2630.43125,0.20563
2632.35972,0.20532
2634.28819,0.20448
2636.21666,0.20344
2638.14513,0.20402
2640.07359,0.20618
2642.00206,0.20770
2643.93053,0.20752
2645.85900,0.20633
2647.78747,0.20588
2649.71594,0.20649
2651.64441,0.20772
2653.57288,0.21053
2655.50134,0.21410
2657.42981,0.21482
2659.35828,0.21150
2661.28675,0.20745
2663.21522,0.20623
2665.14369,0.20659
2667.07216,0.20604
2669.00062,0.20653
2670.92909,0.20776
2672.85756,0.20851
2674.78603,0.21108
2676.71450,0.21310
2678.64297,0.21042
2680.57144,0.20656
2682.49990,0.20627
2684.42837,0.20770
2686.35684,0.21008
2688.28531,0.21436
2690.21378,0.21573
2692.14225,0.21256
2694.07072,0.21036
2695.99919,0.21015
2697.92765,0.20887
2699.85612,0.20754
2701.78459,0.20817
2703.71306,0.20941
2705.64153,0.20919
2707.57000,0.20892
2709.49847,0.21058
2711.42693,0.21209
2713.35540,0.21174
2715.28387,0.20986
2717.21234,0.20833
2719.14081,0.20882
2721.06928,0.20946
2722.99775,0.20886
2724.92622,0.20869
2726.85468,0.20998
2728.78315,0.21083
2730.71162,0.21042
2732.64009,0.21050
2734.56856,0.21154
2736.49703,0.21292
2738.42550,0.21353
2740.35396,0.21269
2742.28243,0.21245
2744.21090,0.21310
2746.13937,0.21263
2748.06784,0.21267
2749.99631,0.21455
2751.92478,0.21517
2753.85325,0.21327
2755.78171,0.21152
2757.71018,0.21195
2759.63865,0.21299
2761.56712,0.21179
2763.49559,0.21079
2765.42406,0.21288
2767.35253,0.21436
2769.28099,0.21440
2771.20946,0.21662
2773.13793,0.21963
2775.06640,0.22001
2776.99487,0.21864
2778.92334,0.21702
2780.85181,0.21576
2782.78028,0.21575
2784.70874,0.21606
2786.63721,0.21595
2788.56568,0.21581
2790.49415,0.21569
2792.42262,0.21547
2794.35109,0.21569
2796.27956,0.21662
2798.20802,0.21681
2800.13649,0.21672
2802.06496,0.21769
2803.99343,0.21840
2805.92190,0.21722
2807.85037,0.21504
2809.77884,0.21443
2811.70731,0.21550
2813.63577,0.21637
2815.56424,0.21593
2817.49271,0.21472
2819.42118,0.21497
2821.34965,0.21687
2823.27812,0.21814
2825.20659,0.21764
2827.13505,0.21643
2829.06352,0.21654
2830.99199,0.21746
2832.92046,0.21669
2834.84893,0.21590
2836.77740,0.21859
2838.70587,0.22259
2840.63433,0.22400
2842.56280,0.22317
2844.49127,0.22127
2846.41974,0.21872
2848.34821,0.21677
2850.27668,0.21590
2852.20515,0.21652
2854.13362,0.21889
2856.06208,0.22096
2857.99055,0.22039
2859.91902,0.21864
2861.84749,0.21925
2863.77596,0.22105
2865.70443,0.22085
2867.63290,0.21986
2869.56136,0.22069
2871.48983,0.22295
2873.41830,0.22296
2875.34677,0.21909
2877.27524,0.21586
2879.20371,0.21621
2881.13218,0.21764
2883.06065,0.21871
2884.98911,0.22028
2886.91758,0.22274
2888.84605,0.22547
2890.77452,0.22511
2892.70299,0.22017
2894.63146,0.21622
2896.55993,0.21676
2898.48839,0.21824
2900.41686,0.21799
2902.34533,0.21754
2904.27380,0.21854
2906.20227,0.21958
2908.13074,0.21888
2910.05921,0.21716
2911.98768,0.21580
2913.91614,0.21404
2915.84461,0.21193
2917.77308,0.21172
2919.70155,0.21342
2921.63002,0.21704
2923.55849,0.22051
2925.48696,0.21718
2927.41542,0.21002
2929.34389,0.20965
2931.27236,0.21505
2933.20083,0.21719
2935.12930,0.21421
2937.05777,0.21227
2938.98624,0.21585
2940.91471,0.22048
2942.84317,0.22135
2944.77164,0.21935
2946.70011,0.21537
2948.62858,0.21360
2950.55705,0.21751
2952.48552,0.22183
2954.41399,0.22074
2956.34245,0.21531
2958.27092,0.21416
2960.19939,0.21995
2962.12786,0.22348
2964.05633,0.22136
2965.98480,0.21868
2967.91327,0.21910
2969.84174,0.22230
2971.77020,0.22444
2973.69867,0.22335
2975.62714,0.21905
2977.55561,0.21371
2979.48408,0.21414
2981.41255,0.22143
2983.34102,0.22635
2985.26948,0.22465
2987.19795,0.22173
2989.12642,0.22124
2991.05489,0.22191
2992.98336,0.22318
2994.91183,0.22557
2996.84030,0.22671
2998.76877,0.22537
3000.69723,0.22463
3002.62570,0.22539
3004.55417,0.22532
3006.48264,0.22317
3008.41111,0.22005
3010.33958,0.21574
3012.26805,0.20663
3014.19651,0.19042
3016.12498,0.17624
3018.05345,0.18182
3019.98192,0.20493
3021.91039,0.22478
3023.83886,0.23438
3025.76733,0.23651
3027.69579,0.23299
3029.62426,0.22879
3031.55273,0.22648
3033.48120,0.22610
3035.40967,0.22664
3037.33814,0.22596
3039.26661,0.22639
3041.19508,0.22930
3043.12354,0.22991
3045.05201,0.22524
3046.98048,0.21998
3048.90895,0.22016
3050.83742,0.22321
3052.76589,0.22455
3054.69436,0.22356
3056.62282,0.21855
3058.55129,0.21430
3060.47976,0.21819
3062.40823,0.22522
3064.33670,0.22640
3066.26517,0.22290
3068.19364,0.22376
3070.12211,0.22975
3072.05057,0.23221
3073.97904,0.22706
3075.90751,0.21971
3077.83598,0.21817
3079.76445,0.22170
3081.69292,0.22240
3083.62139,0.21457
3085.54985,0.20649
3087.47832,0.20916
3089.40679,0.21701
3091.33526,0.22173
3093.26373,0.21938
3095.19220,0.21526
3097.12067,0.21939
3099.04914,0.22527
3100.97760,0.22270
3102.90607,0.21526
3104.83454,0.21572
3106.76301,0.22507
3108.69148,0.22910
3110.61995,0.22366
3112.54842,0.21703
3114.47688,0.21536
3116.40535,0.21838
3118.33382,0.22129
3120.26229,0.22172
3122.19076,0.22292
3124.11923,0.22693
3126.04770,0.23067
3127.97617,0.23109
3129.90463,0.22926
3131.83310,0.22927
3133.76157,0.23312
3135.69004,0.23645
3137.61851,0.23408
3139.54698,0.22791
3141.47545,0.22222
3143.40391,0.21907
3145.33238,0.21944
3147.26085,0.22262
3149.18932,0.22822
3151.11779,0.23396
3153.04626,0.23618
3154.97473,0.23672
3156.90320,0.23885
3158.83166,0.24164
3160.76013,0.24069
3162.68860,0.23508
3164.61707,0.23125
3166.54554,0.23076
3168.47401,0.22891
3170.40248,0.22695
3172.33094,0.22815
3174.25941,0.23208
3176.18788,0.23688
3178.11635,0.23935
3180.04482,0.23813
3181.97329,0.23595
3183.90176,0.23494
3185.83022,0.23321
3187.75869,0.22771
3189.68716,0.22150
3191.61563,0.21951
3193.54410,0.22050
3195.47257,0.22263
3197.40104,0.22494
3199.32951,0.22622
3201.25797,0.22671
3203.18644,0.22672
3205.11491,0.22753
3207.04338,0.22784
3208.97185,0.22651
3210.90032,0.22770
3212.82879,0.23147
3214.75725,0.23222
3216.68572,0.22920
3218.61419,0.22760
3220.54266,0.22862
3222.47113,0.22819
3224.39960,0.22627
3226.32807,0.22708
3228.25654,0.22984
3230.18500,0.23041
3232.11347,0.22801
3234.04194,0.22504
3235.97041,0.22607
3237.89888,0.23038
3239.82735,0.23284
3241.75582,0.23289
3243.68428,0.23016
3245.61275,0.22575
3247.54122,0.22364
3249.46969,0.22365
3251.39816,0.22350
3253.32663,0.22250
3255.25510,0.22272
3257.18357,0.22690
3259.11203,0.23102
3261.04050,0.22998
3262.96897,0.22626
3264.89744,0.22342
3266.82591,0.22402
3268.75438,0.22609
3270.68285,0.22397
3272.61131,0.22127
3274.53978,0.22455
3276.46825,0.23102
3278.39672,0.23450
3280.32519,0.23481
3282.25366,0.23490
3284.18213,0.23613
3286.11060,0.23603
3288.03906,0.23164
3289.96753,0.22712
3291.89600,0.22573
3293.82447,0.22629
3295.75294,0.22728
3297.68141,0.22716
3299.60988,0.22780
3301.53834,0.22845
3303.46681,0.22649
3305.39528,0.22589
3307.32375,0.22861
3309.25222,0.22889
3311.18069,0.22562
3313.10916,0.22463
3315.03763,0.22589
3316.96609,0.22605
3318.89456,0.22739
3320.82303,0.22834
3322.75150,0.22302
3324.67997,0.21770
3326.60844,0.22063
3328.53691,0.22761
3330.46537,0.23351
3332.39384,0.23539
3334.32231,0.23061
3336.25078,0.22488
3338.17925,0.22600
3340.10772,0.23256
3342.03619,0.23881
3343.96466,0.24046
3345.89312,0.23639
3347.82159,0.23080
3349.75006,0.22835
3351.67853,0.22949
3353.60700,0.23251
3355.53547,0.23445
3357.46394,0.23623
3359.39240,0.24016
3361.32087,0.24161
3363.24934,0.23910
3365.17781,0.23585
3367.10628,0.23234
3369.03475,0.23040
3370.96322,0.23037
3372.89168,0.23104
3374.82015,0.23368
3376.74862,0.23692
3378.67709,0.23525
3380.60556,0.22848
3382.53403,0.22506
3384.46250,0.22911
3386.39097,0.23246
3388.31943,0.22967
3390.24790,0.22777
3392.17637,0.23013
3394.10484,0.23107
3396.03331,0.22888
3397.96178,0.22499
3399.89025,0.21792
3401.81871,0.21026
3403.74718,0.21098
3405.67565,0.22054
3407.60412,0.22777
3409.53259,0.22691
3411.46106,0.22325
3413.38953,0.22378
3415.31800,0.22738
3417.24646,0.22818
3419.17493,0.22709
3421.10340,0.22495
3423.03187,0.21779
3424.96034,0.21100
3426.88881,0.21251
3428.81728,0.21827
3430.74574,0.22170
3432.67421,0.22399
3434.60268,0.22511
3436.53115,0.22022
3438.45962,0.21240
3440.38809,0.21298
3442.31656,0.22194
3444.24503,0.22709
3446.17349,0.22582
3448.10196,0.22339
3450.03043,0.22117
3451.95890,0.21961
3453.88737,0.21803
3455.81584,0.21655
3457.74431,0.21690
3459.67277,0.21688
3461.60124,0.21399
3463.52971,0.21046
3465.45818,0.20927
3467.38665,0.20991
3469.31512,0.21187
3471.24359,0.21552
3473.17206,0.21574
3475.10052,0.20966
3477.02899,0.20535
3478.95746,0.20591
3480.88593,0.20477
3482.81440,0.20016
3484.74287,0.19623
3486.67134,0.19739
3488.59980,0.20135
3490.52827,0.19949
3492.45674,0.19396
3494.38521,0.19228
3496.31368,0.19307
3498.24215,0.19567
3500.17062,0.20272
3502.09909,0.20798
3504.02755,0.20436
3505.95602,0.19788
3507.88449,0.19414
3509.81296,0.19066
3511.74143,0.18520
3513.66990,0.18115
3515.59837,0.18339
3517.52683,0.18928
3519.45530,0.19166
3521.38377,0.18910
3523.31224,0.18583
3525.24071,0.18578
3527.16918,0.18835
3529.09765,0.18871
3531.02611,0.18526
3532.95458,0.18314
3534.88305,0.18504
3536.81152,0.18768
3538.73999,0.18761
3540.66846,0.18623
3542.59693,0.18622
3544.52540,0.18590
3546.45386,0.18276
3548.38233,0.18026
3550.31080,0.18067
3552.23927,0.18128
3554.16774,0.18112
3556.09621,0.18073
3558.02468,0.17891
3559.95314,0.17655
3561.88161,0.17562
3563.81008,0.17574
3565.73855,0.17841
3567.66702,0.18066
3569.59549,0.17595
3571.52396,0.17014
3573.45243,0.16810
3575.38089,0.16948
3577.30936,0.17182
3579.23783,0.17291
3581.16630,0.17079
3583.09477,0.16661
3585.02324,0.16705
3586.95171,0.17422
3588.88017,0.17535
3590.80864,0.16905
3592.73711,0.16454
3594.66558,0.16171
3596.59405,0.16185
3598.52252,0.16398
3600.45099,0.16084
3602.37946,0.15562
3604.30792,0.15769
3606.23639,0.16648
3608.16486,0.17504
3610.09333,0.17858
3612.02180,0.17665
3613.95027,0.17036
3615.87874,0.16480
3617.80720,0.16325
3619.73567,0.16376
3621.66414,0.16314
3623.59261,0.16177
3625.52108,0.15981
3627.44955,0.15950
3629.37802,0.16312
3631.30649,0.16484
3633.23495,0.16491
3635.16342,0.16473
3637.09189,0.16210
3639.02036,0.15650
3640.94883,0.15221
3642.87730,0.15406
3644.80577,0.16257
3646.73423,0.17417
3648.66270,0.18247
3650.59117,0.18064
3652.51964,0.17171
3654.44811,0.16322
3656.37658,0.15442
3658.30505,0.14638
3660.23352,0.14331
3662.16198,0.14177
3664.09045,0.13992
3666.01892,0.14191
3667.94739,0.14905
3669.87586,0.15224
3671.80433,0.14711
3673.73280,0.14677
3675.66126,0.15037
3677.58973,0.14674
3679.51820,0.13932
3681.44667,0.13509
3683.37514,0.13561
3685.30361,0.13789
3687.23208,0.14116
3689.16055,0.14748
3691.08901,0.15131
3693.01748,0.14743
3694.94595,0.14037
3696.87442,0.13479
3698.80289,0.13406
3700.73136,0.13819
3702.65983,0.14085
3704.58829,0.13942
3706.51676,0.13951
3708.44523,0.14314
3710.37370,0.14979
3712.30217,0.15100
3714.23064,0.14397
3716.15911,0.13963
3718.08757,0.14002
3720.01604,0.14089
3721.94451,0.13902
3723.87298,0.13942
3725.80145,0.14517
3727.72992,0.14843
3729.65839,0.14570
3731.58686,0.14077
3733.51532,0.13977
3735.44379,0.14348
3737.37226,0.14474
3739.30073,0.14551
3741.22920,0.14705
3743.15767,0.14606
3745.08614,0.14584
3747.01460,0.15612
3748.94307,0.17065
3750.87154,0.17121
3752.80001,0.15282
3754.72848,0.13982
3756.65695,0.13639
3758.58542,0.13868
3760.51389,0.13896
3762.44235,0.13727
3764.37082,0.13825
3766.29929,0.13958
3768.22776,0.14176
3770.15623,0.14352
3772.08470,0.13909
3774.01317,0.13305
3775.94163,0.13109
3777.87010,0.13512
3779.79857,0.14142
3781.72704,0.14197
3783.65551,0.13830
3785.58398,0.13597
3787.51245,0.13447
3789.44092,0.12968
3791.36938,0.12543
3793.29785,0.12842
3795.22632,0.13380
3797.15479,0.13335
3799.08326,0.13350
3801.01173,0.13980
3802.94020,0.14255
3804.86866,0.14256
3806.79713,0.14305
3808.72560,0.13576
3810.65407,0.12656
3812.58254,0.12548
3814.51101,0.13147
3816.43948,0.13672
3818.36795,0.13858
3820.29641,0.14010
3822.22488,0.13848
3824.15335,0.13646
3826.08182,0.13748
3828.01029,0.13939
3829.93876,0.13959
3831.86723,0.13817
3833.79569,0.13704
3835.72416,0.13857
3837.65263,0.14186
3839.58110,0.14266
3841.50957,0.13997
3843.43804,0.13497
3845.36651,0.13171
3847.29498,0.13216
3849.22344,0.13507
3851.15191,0.14347
3853.08038,0.15612
3855.00885,0.15141
3856.93732,0.13842
3858.86579,0.13063
3860.79426,0.12885
3862.72272,0.13144
3864.65119,0.13473
3866.57966,0.13787
3868.50813,0.13986
3870.43660,0.13608
3872.36507,0.12855
3874.29354,0.12480
3876.22200,0.12746
3878.15047,0.13291
3880.07894,0.13521
3882.00741,0.13196
3883.93588,0.12952
3885.86435,0.12962
3887.79282,0.12945
3889.72129,0.13054
3891.64975,0.12994
3893.57822,0.12421
3895.50669,0.12027
3897.43516,0.12087
3899.36363,0.12593
3901.29210,0.13374
3903.22057,0.13893
3905.14903,0.13544
3907.07750,0.12741
3909.00597,0.12297
3910.93444,0.11992
3912.86291,0.11799
3914.79138,0.12228
3916.71985,0.12882
3918.64832,0.12986
3920.57678,0.12664
3922.50525,0.12372
3924.43372,0.12391
3926.36219,0.12408
3928.29066,0.11990
3930.21913,0.11212
3932.14760,0.10684
3934.07606,0.11096
3936.00453,0.11831
3937.93300,0.12141
3939.86147,0.12128
3941.78994,0.11874
3943.71841,0.11369
3945.64688,0.11103
3947.57535,0.11548
3949.50381,0.12219
3951.43228,0.12135
3953.36075,0.11466
3955.28922,0.10934
3957.21769,0.10909
3959.14616,0.11394
3961.07463,0.11926
3963.00309,0.12026
3964.93156,0.11898
3966.86003,0.12010
3968.78850,0.12205
3970.71697,0.12158
3972.64544,0.12005
3974.57391,0.11903
3976.50238,0.11731
3978.43084,0.11292
3980.35931,0.10915
3982.28778,0.11079
3984.21625,0.11315
3986.14472,0.11141
3988.07319,0.10895
3990.00166,0.10877
3991.93012,0.11002
3993.85859,0.11123
3995.78706,0.11091
3997.71553,0.10867
3999.64400,0.10735
4001.57247,0.10697
4003.50094,0.10544
4005.42941,0.10548
4007.35787,0.10886
4009.28634,0.10994
4011.21481,0.10669
4013.14328,0.10622
4015.07175,0.10792
4017.00022,0.10767
4018.92869,0.10824
4020.85715,0.10809
4022.78562,0.10469
4024.71409,0.10159
4026.64256,0.10026
4028.57103,0.09891
4030.49950,0.09884
4032.42797,0.10150
4034.35644,0.10643
4036.28490,0.11087
4038.21337,0.10879
4040.14184,0.10148
4042.07031,0.09730
4043.99878,0.09782
4045.92725,0.09906
4047.85572,0.09925
4049.78418,0.09786
4051.71265,0.09616
4053.64112,0.09542
4055.56959,0.09347
4057.49806,0.09290
4059.42653,0.09731
4061.35500,0.10201
4063.28346,0.10214
4065.21193,0.09826
4067.14040,0.09388
4069.06887,0.09231
4070.99734,0.09375
4072.92581,0.09687
4074.85428,0.09943
4076.78275,0.09770
4078.71121,0.09361
4080.63968,0.09296
4082.56815,0.09242
4084.49662,0.08915
4086.42509,0.09077
4088.35356,0.09619
4090.28203,0.09563
4092.21049,0.09317
4094.13896,0.09755
4096.06743,0.10347
4097.99590,0.10188
4099.92437,0.09603
4101.85284,0.09314
4103.78131,0.09190
4105.70978,0.09081
4107.63824,0.09043
4109.56671,0.08827
4111.49518,0.08445
4113.42365,0.08198
4115.35212,0.08464
4117.28059,0.09196
4119.20906,0.09543
4121.13752,0.08974
4123.06599,0.08210
4124.99446,0.08207
4126.92293,0.08787
4128.85140,0.09274
4130.77987,0.09368
4132.70834,0.09102
4134.63681,0.08882
4136.56527,0.08951
4138.49374,0.09048
4140.42221,0.09047
4142.35068,0.09072
4144.27915,0.09068
4146.20762,0.08998
4148.13609,0.08687
4150.06455,0.08020
4151.99302,0.07722
4153.92149,0.08037
4155.84996,0.08276
4157.77843,0.08488
4159.70690,0.08931
4161.63537,0.09032
4163.56384,0.08276
4165.49230,0.07402
4167.42077,0.07439
4169.34924,0.07827
4171.27771,0.07658
4173.20618,0.07283
4175.13465,0.07193
4177.06312,0.07286
4178.99158,0.07403
4180.92005,0.07503
4182.84852,0.07260
4184.77699,0.06666
4186.70546,0.06615
4188.63393,0.07232
4190.56240,0.07509
4192.49087,0.07291
4194.41933,0.07111
4196.34780,0.07037
4198.27627,0.07042
4200.20474,0.07176
4202.13321,0.07114
4204.06168,0.06840
4205.99015,0.06926
4207.91861,0.07155
4209.84708,0.06925
4211.77555,0.06691
4213.70402,0.07073
4215.63249,0.07418
4217.56096,0.07119
4219.48943,0.06710
4221.41789,0.06308
4223.34636,0.05875
4225.27483,0.05915
4227.20330,0.06367
4229.13177,0.06729
4231.06024,0.06871
4232.98871,0.06702
4234.91718,0.06149
4236.84564,0.05891
4238.77411,0.06211
4240.70258,0.06346
4242.63105,0.06243
4244.55952,0.06476
4246.48799,0.06912
4248.41646,0.06980
4250.34492,0.06534
4252.27339,0.05972
4254.20186,0.05752
4256.13033,0.06024
4258.05880,0.06670
4259.98727,0.06984
4261.91574,0.06388
4263.84421,0.05696
4265.77267,0.05377
4267.70114,0.04807
4269.62961,0.04197
4271.55808,0.03988
4273.48655,0.04046
4275.41502,0.04570
4277.34349,0.05310
4279.27195,0.05603
4281.20042,0.05778
4283.12889,0.06364
4285.05736,0.06842
4286.98583,0.06376
4288.91430,0.05484
4290.84277,0.05355
4292.77124,0.05757
4294.69970,0.05997
4296.62817,0.06219
4298.55664,0.06262
4300.48511,0.05691
4302.41358,0.04979
4304.34205,0.04783
4306.27052,0.05023
4308.19898,0.05375
4310.12745,0.05539
4312.05592,0.05456
4313.98439,0.05178
4315.91286,0.04497
4317.84133,0.03930
4319.76980,0.04267
4321.69827,0.05091
4323.62673,0.05370
4325.55520,0.04588
4327.48367,0.03691
4329.41214,0.03649
4331.34061,0.03856
4333.26908,0.03740
4335.19755,0.03433
4337.12601,0.03192
4339.05448,0.03024
4340.98295,0.02891
4342.91142,0.03148
4344.83989,0.03553
4346.76836,0.03472
4348.69683,0.03238
4350.62530,0.03260
4352.55376,0.03298
4354.48223,0.03334
4356.41070,0.03519
4358.33917,0.03645
4360.26764,0.03383
4362.19611,0.02730
4364.12458,0.02133
4366.05304,0.02091
4367.98151,0.02390
4369.90998,0.02473
4371.83845,0.02600
4373.76692,0.03070
4375.69539,0.03398
4377.62386,0.03177
4379.55232,0.02651
4381.48079,0.02480
4383.40926,0.02743
4385.33773,0.02818
4387.26620,0.02761
4389.19467,0.03043
4391.12314,0.03290
4393.05161,0.03161
4394.98007,0.03057
4396.90854,0.03165
4398.83701,0.03169
4400.76548,0.02694
4402.69395,0.01829
4404.62242,0.01141
4406.55089,0.01074
4408.47935,0.01374
4410.40782,0.01211
4412.33629,0.00601
4414.26476,0.00528
4416.19323,0.01187
4418.12170,0.01725
4420.05017,0.01672
4421.97864,0.01532
4423.90710,0.01615
4425.83557,0.01613
4427.76404,0.01627
4429.69251,0.01548
4431.62098,0.01130
4433.54945,0.01108
4435.47792,0.01675
4437.40638,0.01911
4439.33485,0.01288
4441.26332,0.00400
4443.19179,0.00264
4445.12026,0.00828
4447.04873,0.01315
4448.97720,0.01246
4450.90567,0.00783
4452.83413,0.00816
4454.76260,0.01421
4456.69107,0.01621
4458.61954,0.01116
4460.54801,0.00485
4462.47648,0.00032
4464.40495,-0.00229
4466.33341,-0.00171
4468.26188,-0.00061
4470.19035,-0.00197
4472.11882,-0.00338
4474.04729,-0.00175
4475.97576,0.00554
4477.90423,0.01519
4479.83270,0.01715
4481.76116,0.01085
4483.68963,0.00445
4485.61810,0.00355
4487.54657,0.01164
4489.47504,0.02093
4491.40351,0.01733
4493.33198,0.00528
4495.26044,0.00017
4497.18891,0.00710
4499.11738,0.01659
4501.04585,0.01690
4502.97432,0.01363
4504.90279,0.01294
4506.83126,0.01059
4508.75973,0.00734
4510.68819,0.00648
4512.61666,0.00690
4514.54513,0.00312
4516.47360,-0.00443
4518.40207,-0.00896
4520.33054,-0.00885
4522.25901,-0.00556
4524.18747,-0.00130
4526.11594,0.00196
4528.04441,0.00385
4529.97288,0.00692
4531.90135,0.01089
4533.82982,0.01242
4535.75829,0.01375
4537.68676,0.01288
4539.61522,0.00735
4541.54369,0.00423
4543.47216,0.00393
4545.40063,0.00257
4547.32910,0.00515
4549.25757,0.01033
4551.18604,0.01027
4553.11450,0.00604
4555.04297,0.00062
4556.97144,-0.00211
4558.89991,-0.00121
4560.82838,-0.00137
4562.75685,0.00034
4564.68532,0.00310
4566.61378,0.00105
4568.54225,0.00049
4570.47072,0.00425
4572.39919,0.00435
4574.32766,0.00038
4576.25613,-0.00210
4578.18460,-0.00125
4580.11307,0.00399
4582.04153,0.01207
4583.97000,0.01411
4585.89847,0.00630
4587.82694,0.00073
4589.75541,0.00574
4591.68388,0.01039
4593.61235,0.00667
4595.54081,0.00029
4597.46928,-0.00504
4599.39775,-0.00736
4601.32622,-0.00288
4603.25469,0.00754
4605.18316,0.01548
4607.11163,0.01063
4609.04010,-0.00177
4610.96856,-0.00467
4612.89703,0.00254
4614.82550,0.00552
4616.75397,0.00013
4618.68244,-0.00826
4620.61091,-0.01539
4622.53938,-0.01593
4624.46784,-0.00657
4626.39631,0.00474
4628.32478,0.00656
4630.25325,0.00329
4632.18172,0.00360
4634.11019,0.00328
4636.03866,0.00105
4637.96713,0.00189
4639.89559,0.00244
4641.82406,0.00068
4643.75253,0.00185
4645.68100,0.00325
4647.60947,0.00141
4649.53794,0.00022
4651.46641,-0.00019
4653.39487,-0.00023
4655.32334,0.00236
4657.25181,0.00601
4659.18028,0.00755
4661.10875,0.00851
4663.03722,0.00574
4664.96569,-0.00049
4666.89416,-0.00126
4668.82262,0.00209
4670.75109,0.00673
4672.67956,0.01244
4674.60803,0.01341
4676.53650,0.00934
4678.46497,0.00757
4680.39344,0.01086
4682.32190,0.01327
4684.25037,0.01052
4686.17884,0.00394
4688.10731,-0.00369
4690.03578,-0.00608
4691.96425,-0.00029
4693.89272,0.00535
4695.82119,0.00609
4697.74965,0.00426
4699.67812,0.00122
4701.60659,0.00239
4703.53506,0.00722
4705.46353,0.00857
4707.39200,0.00603
4709.32047,0.00100
4711.24893,-0.00369
4713.17740,-0.00231
4715.10587,-0.00071
4717.03434,-0.00730
4718.96281,-0.01174
4720.89128,-0.00376
4722.81975,0.01044
4724.74821,0.01810
4726.67668,0.01392
4728.60515,0.00854
4730.53362,0.00891
4732.46209,0.01004
4734.39056,0.01275
4736.31903,0.01908
4738.24750,0.02201
4740.17596,0.01702
4742.10443,0.00827
4744.03290,0.00037
4745.96137,-0.00549
4747.88984,-0.01008
4749.81831,-0.01400
4751.74678,-0.01245
4753.67524,-0.00390
4755.60371,0.00303
4757.53218,0.00780
4759.46065,0.01326
4761.38912,0.01543
4763.31759,0.01373
4765.24606,0.00672
4767.17453,-0.00191
4769.10299,-0.00365
4771.03146,-0.00268
4772.95993,-0.00150
4774.88840,0.00047
4776.81687,-0.00473
4778.74534,-0.01718
4780.67381,-0.02069
4782.60227,-0.00590
4784.53074,0.01181
4786.45921,0.01727
4788.38768,0.01336
4790.31615,0.00979
4792.24462,0.01077
4794.17309,0.01030
4796.10156,0.00468
4798.03002,-0.00265
4799.95849,-0.00502
4801.88696,0.00163
4803.81543,0.01163
4805.74390,0.01600
4807.67237,0.00916
4809.60084,-0.00252
4811.52930,-0.00217
4813.45777,0.00868
4815.38624,0.01262
4817.31471,0.00967
4819.24318,0.00665
4821.17165,0.00401
4823.10012,0.00879
4825.02859,0.02146
4826.95705,0.03035
4828.88552,0.02916
4830.81399,0.02068
4832.74246,0.00782
4834.67093,-0.00341
4836.59940,-0.00379
4838.52787,0.00546
4840.45633,0.01411
4842.38480,0.01439
4844.31327,0.00742
4846.24174,-0.00068
4848.17021,-0.00368
4850.09868,0.00137
4852.02715,0.00785
4853.95562,0.00585
4855.88408,-0.00019
4857.81255,0.00411
4859.74102,0.01201
4861.66949,0.00536
4863.59796,-0.00681
4865.52643,-0.00961
4867.45490,-0.00683
4869.38336,-0.00087
4871.31183,0.00430
4873.24030,0.00235
4875.16877,0.00118
4877.09724,0.00145
4879.02571,0.00069
4880.95418,0.00611
4882.88265,0.00982
4884.81111,0.00225
4886.73958,-0.00288
4888.66805,0.00238
4890.59652,0.00682
4892.52499,0.00505
4894.45346,0.00154
4896.38193,0.00196
4898.31039,0.00676
4900.23886,0.00503
4902.16733,-0.00293
4904.09580,-0.00714
4906.02427,-0.01032
4907.95274,-0.00899
4909.88121,-0.00282
4911.80967,-0.00094
4913.73814,-0.00130
4915.66661,-0.00177
4917.59508,-0.00122
4919.52355,-0.00228
4921.45202,-0.00592
4923.38049,-0.00446
4925.30896,-0.00377
4927.23742,-0.00858
4929.16589,-0.01268
4931.09436,-0.01572
4933.02283,-0.00974
4934.95130,0.00644
4936.87977,0.01309
4938.80824,0.01001
4940.73670,0.01115
4942.66517,0.01326
4944.59364,0.00703
4946.52211,-0.00180
4948.45058,-0.00319
4950.37905,0.00386
4952.30752,0.01743
4954.23599,0.02886
4956.16445,0.02813
4958.09292,0.02002
4960.02139,0.01490
4961.94986,0.01352
4963.87833,0.01226
4965.80680,0.00746
4967.73527,0.00025
4969.66373,0.00696
4971.59220,0.02879
4973.52067,0.03895
4975.44914,0.02635
4977.37761,0.00295
4979.30608,-0.01583
4981.23455,-0.01766
4983.16302,-0.00603
4985.09148,0.00482
4987.01995,0.00475
4988.94842,-0.00289
4990.87689,-0.00205
4992.80536,0.00753
4994.73383,0.01332
4996.66230,0.01381
4998.59076,0.01005
5000.51923,0.00532
5002.44770,0.00342
5004.37617,0.00104
5006.30464,-0.00353
5008.23311,-0.00577
5010.16158,-0.00194
5012.09005,0.00747
5014.01851,0.01544
5015.94698,0.01267
5017.87545,0.00259
5019.80392,0.00301
5021.73239,0.01762
5023.66086,0.02675
5025.58933,0.01962
5027.51779,0.00578
5029.44626,-0.00339
5031.37473,-0.00298
5033.30320,0.00174
5035.23167,-0.00230
5037.16014,-0.01217
5039.08861,-0.01213
5041.01708,-0.00294
5042.94554,0.00783
5044.87401,0.01854
5046.80248,0.02534
5048.73095,0.02694
5050.65942,0.02569
5052.58789,0.02423
5054.51636,0.01682
5056.44482,-0.00271
5058.37329,-0.01392
5060.30176,-0.00184
5062.23023,0.01482
5064.15870,0.02837
5066.08717,0.03804
5068.01564,0.03381
5069.94410,0.02005
5071.87257,0.00922
5073.80104,0.01136
5075.72951,0.02665
5077.65798,0.03605
5079.58645,0.03137
5081.51492,0.02161
5083.44339,0.00762
5085.37185,0.00004
5087.30032,0.01246
5089.22879,0.02490
5091.15726,0.01677
5093.08573,0.00533
5095.01420,0.01361
5096.94267,0.03015
5098.87113,0.03098
5100.79960,0.02086
5102.72807,0.01515
5104.65654,0.01497
5106.58501,0.01369
5108.51348,0.01457
5110.44195,0.02257
5112.37042,0.02261
5114.29888,0.01313
5116.22735,0.01441
5118.15582,0.02272
5120.08429,0.02044
5122.01276,0.01020
5123.94123,0.00067
5125.86970,-0.00693
5127.79816,-0.00478
5129.72663,0.00981
5131.65510,0.02224
5133.58357,0.02503
5135.51204,0.02745
5137.44051,0.03087
5139.36898,0.03065
5141.29745,0.03817
5143.22591,0.04846
5145.15438,0.04446
5147.08285,0.03842
5149.01132,0.03254
5150.93979,0.02052
5152.86826,0.01809
5154.79673,0.02651
5156.72519,0.03689
5158.65366,0.04658
5160.58213,0.04993
5162.51060,0.04929
5164.43907,0.05068
5166.36754,0.05235
5168.29601,0.04365
5170.22448,0.02478
5172.15294,0.01487
5174.08141,0.01655
5176.00988,0.02383
5177.93835,0.03799
5179.86682,0.05401
5181.79529,0.06666
5183.72376,0.06858
5185.65222,0.05202
5187.58069,0.03009
5189.50916,0.01970
5191.43763,0.01539
5193.36610,0.01226
5195.29457,0.01374
5197.22304,0.01371
5199.15151,0.01430
5201.07997,0.02225
5203.00844,0.02184
5204.93691,0.01017
5206.86538,0.01165
5208.79385,0.02100
5210.72232,0.01893
5212.65079,0.01679
5214.57925,0.02718
5216.50772,0.04375
5218.43619,0.04663
5220.36466,0.03617
5222.29313,0.03427
5224.22160,0.04235
5226.15007,0.04381
5228.07854,0.03602
5230.00700,0.03278
5231.93547,0.03855
5233.86394,0.04645
5235.79241,0.05060
5237.72088,0.05639
5239.64935,0.06632
5241.57782,0.07044
5243.50628,0.05945
5245.43475,0.03755
5247.36322,0.02361
5249.29169,0.02362
5251.22016,0.02673
5253.14863,0.02719
5255.07710,0.03124
5257.00556,0.04110
5258.93403,0.04513
5260.86250,0.04112
5262.79097,0.03345
5264.71944,0.02676
5266.64791,0.02958
5268.57638,0.04030
5270.50485,0.05048
5272.43331,0.04886
5274.36178,0.03911
5276.29025,0.03318
5278.21872,0.02564
5280.14719,0.02294
5282.07566,0.04019
5284.00413,0.05981
5285.93259,0.06062
5287.86106,0.04760
5289.78953,0.03501
5291.71800,0.03411
5293.64647,0.03999
5295.57494,0.04021
5297.50341,0.03634
5299.43188,0.03980
5301.36034,0.05141
5303.28881,0.05801
5305.21728,0.05957
5307.14575,0.06701
5309.07422,0.07293
5311.00269,0.06554
5312.93116,0.05653
5314.85962,0.06360
5316.78809,0.07950
5318.71656,0.08477
5320.64503,0.07971
5322.57350,0.07375
5324.50197,0.07225
5326.43044,0.06751
5328.35891,0.04841
5330.28737,0.03204
5332.21584,0.03063
5334.14431,0.02960
5336.07278,0.03201
5338.00125,0.05326
5339.92972,0.07719
5341.85819,0.08698
5343.78665,0.07785
5345.71512,0.04582
5347.64359,0.02489
5349.57206,0.03593
5351.50053,0.05471
5353.42900,0.05756
5355.35747,0.05731
5357.28594,0.06699
5359.21440,0.06968
5361.14287,0.05396
5363.07134,0.03298
5364.99981,0.02668
5366.92828,0.04199
5368.85675,0.05660
5370.78522,0.05923
5372.71368,0.07325
5374.64215,0.08715
5376.57062,0.06682
5378.49909,0.03984
5380.42756,0.03487
5382.35603,0.04042
5384.28450,0.04695
5386.21297,0.05471
5388.14143,0.05971
5390.06990,0.05888
5391.99837,0.05013
5393.92684,0.04057
5395.85531,0.05885
5397.78378,0.08958
5399.71225,0.09170
5401.64071,0.07653
5403.56918,0.07051
5405.49765,0.07387
5407.42612,0.07593
5409.35459,0.06918
5411.28306,0.06638
5413.21153,0.07610
5415.13999,0.07656
5417.06846,0.05910
5418.99693,0.04117
5420.92540,0.04374
5422.85387,0.06625
5424.78234,0.09334
5426.71081,0.10864
5428.63928,0.09357
5430.56774,0.06032
5432.49621,0.03554
5434.42468,0.02956
5436.35315,0.04198
5438.28162,0.05198
5440.21009,0.05060
5442.13856,0.04610
5444.06702,0.04364
5445.99549,0.04639
5447.92396,0.05906
5449.85243,0.08016
5451.78090,0.09378
5453.70937,0.09276
5455.63784,0.09894
5457.56631,0.10850
5459.49477,0.08923
5461.42324,0.07090
5463.35171,0.07862
5465.28018,0.07291
5467.20865,0.03888
5469.13712,0.01337
5471.06559,0.02703
5472.99405,0.05478
5474.92252,0.05564
5476.85099,0.03537
5478.77946,0.03304
5480.70793,0.04927
5482.63640,0.06050
5484.56487,0.06515
5486.49334,0.07987
5488.42180,0.10034
5490.35027,0.10108
5492.27874,0.07669
5494.20721,0.04673
5496.13568,0.03100
5498.06415,0.03535
5499.99262,0.04358
5501.92108,0.04210
5503.84955,0.03740
5505.77802,0.02916
5507.70649,0.02442
5509.63496,0.04579
5511.56343,0.07919
5513.49190,0.08169
5515.42037,0.06687
5517.34883,0.06906
5519.27730,0.06597
5521.20577,0.05700
5523.13424,0.07257
5525.06271,0.08313
5526.99118,0.04924
5528.91965,0.01181
5530.84811,0.01265
5532.77658,0.02980
5534.70505,0.04848
5536.63352,0.06837
5538.56199,0.07612
5540.49046,0.07107
5542.41893,0.06979
5544.34740,0.07737
5546.27586,0.07939
5548.20433,0.07563
5550.13280,0.06857
5552.06127,0.04364
5553.98974,0.01651
5555.91821,0.01614
5557.84668,0.03563
5559.77514,0.05986
5561.70361,0.08055
5563.63208,0.08930
5565.56055,0.08294
5567.48902,0.06550
5569.41749,0.05723
5571.34596,0.06616
5573.27443,0.07332
5575.20289,0.06202
5577.13136,0.03820
5579.05983,0.02016
5580.98830,0.01761
5582.91677,0.02738
5584.84524,0.03989
5586.77371,0.04903
5588.70217,0.04992
5590.63064,0.03320
5592.55911,0.02087
5594.48758,0.04443
5596.41605,0.07637
5598.34452,0.07887
5600.27299,0.06652
5602.20145,0.06399
5604.12992,0.06815
5606.05839,0.06633
5607.98686,0.05009
5609.91533,0.03172
5611.84380,0.04148
5613.77227,0.07463
5615.70074,0.11635
5617.62920,0.16050
5619.55767,0.16742
5621.48614,0.13203
5623.41461,0.10036
5625.34308,0.08784
5627.27155,0.08182
5629.20002,0.06878
5631.12848,0.04877
5633.05695,0.05136
5634.98542,0.07837
5636.91389,0.08660
5638.84236,0.07678
5640.77083,0.07142
5642.69930,0.06617
5644.62777,0.06461
5646.55623,0.06504
5648.48470,0.05545
5650.41317,0.04259
5652.34164,0.03443
5654.27011,0.03651
5656.19858,0.05063
5658.12705,0.05733
5660.05551,0.05206
5661.98398,0.04812
5663.91245,0.04514
5665.84092,0.04717
5667.76939,0.06363
5669.69786,0.08538
5671.62633,0.09104
5673.55480,0.07669
5675.48326,0.05650
5677.41173,0.04306
5679.34020,0.03698
5681.26867,0.03933
5683.19714,0.05513
5685.12561,0.07601
5687.05408,0.08938
5688.98254,0.08863
5690.91101,0.08223
5692.83948,0.07253
5694.76795,0.05010
5696.69642,0.04030
5698.62489,0.06910
5700.55336,0.10145
5702.48183,0.09638
5704.41029,0.07294
5706.33876,0.05681
5708.26723,0.03488
5710.19570,0.02160
5712.12417,0.04553
5714.05264,0.07301
5715.98111,0.06926
5717.90957,0.05604
5719.83804,0.05932
5721.76651,0.07646
5723.69498,0.09494
5725.62345,0.10468
5727.55192,0.09299
5729.48039,0.06382
5731.40886,0.03567
5733.33732,0.02814
5735.26579,0.05075
5737.19426,0.08173
5739.12273,0.11358
5741.05120,0.13686
5742.97967,0.11936
5744.90814,0.07435
5746.83660,0.04222
5748.76507,0.04185
5750.69354,0.06508
5752.62201,0.09070
5754.55048,0.10937
5756.47895,0.11836
5758.40742,0.11016
5760.33588,0.09025
5762.26435,0.07498
5764.19282,0.07877
5766.12129,0.09849
5768.04976,0.10371
5769.97823,0.08847
5771.90670,0.08387
5773.83517,0.09189
5775.76363,0.08432
5777.69210,0.06963
5779.62057,0.07728
5781.54904,0.10189
5783.47751,0.12671
5785.40598,0.13345
5787.33445,0.10067
5789.26291,0.05651
5791.19138,0.04368
5793.11985,0.05882
5795.04832,0.08204
5796.97679,0.09436
5798.90526,0.09124
5800.83373,0.07292
5802.76220,0.04425
5804.69066,0.03457
5806.61913,0.04982
5808.54760,0.07349
5810.47607,0.08272
5812.40454,0.06585
5814.33301,0.05943
5816.26148,0.07997
5818.18994,0.09292
5820.11841,0.07375
5822.04688,0.05603
5823.97535,0.07604
5825.90382,0.10347
5827.83229,0.08942
5829.76076,0.04217
5831.68923,0.02766
5833.61769,0.06130
5835.54616,0.10004
5837.47463,0.11139
5839.40310,0.08306
5841.33157,0.03222
5843.26004,-0.00081
5845.18851,0.01042
5847.11697,0.04008
5849.04544,0.05183
5850.97391,0.05810
5852.90238,0.07054
5854.83085,0.08472
5856.75932,0.09844
5858.68779,0.09657
5860.61626,0.07945
5862.54472,0.07925
5864.47319,0.11583
5866.40166,0.14721
5868.33013,0.13217
5870.25860,0.10654
5872.18707,0.11172
5874.11554,0.13868
5876.04400,0.14690
5877.97247,0.12243
5879.90094,0.11120
5881.82941,0.12533
5883.75788,0.13048
5885.68635,0.11892
5887.61482,0.09930
5889.54329,0.08207
5891.47175,0.06918
5893.40022,0.06885
5895.32869,0.09108
5897.25716,0.10852
5899.18563,0.09787
5901.11410,0.06655
5903.04257,0.05600
5904.97103,0.08971
5906.89950,0.10255
5908.82797,0.07335
5910.75644,0.06866
5912.68491,0.09332
5914.61338,0.09973
5916.54185,0.08370
5918.47032,0.06261
5920.39878,0.05762
5922.32725,0.07929
5924.25572,0.08266
5926.18419,0.05730
5928.11266,0.05943
5930.04113,0.09063
5931.96960,0.10238
5933.89806,0.08407
5935.82653,0.06838
5937.75500,0.06916
5939.68347,0.07100
5941.61194,0.06530
5943.54041,0.06620
5945.46888,0.08858
5947.39734,0.10763
5949.32581,0.10305
5951.25428,0.10159
5953.18275,0.10723
5955.11122,0.09423
5957.03969,0.06051
5958.96816,0.02824
5960.89663,0.03581
5962.82509,0.06295
5964.75356,0.06318
5966.68203,0.05284
5968.61050,0.06694
5970.53897,0.09702
5972.46744,0.10422
5974.39591,0.09344
5976.32437,0.08714
5978.25284,0.07103
5980.18131,0.06496
5982.10978,0.09633
5984.03825,0.12193
5985.96672,0.10377
5987.89519,0.06955
5989.82366,0.04797
5991.75212,0.05773
5993.68059,0.08642
5995.60906,0.09450
5997.53753,0.08297
5999.46600,0.05147
6001.39447,0.00486
6003.32294,-0.00407
6005.25140,0.03379
6007.17987,0.06039
6009.10834,0.07722
6011.03681,0.11040
6012.96528,0.12106
6014.89375,0.09883
6016.82222,0.08231
6018.75069,0.07406
6020.67915,0.06410
6022.60762,0.07686
6024.53609,0.11507
6026.46456,0.14304
6028.39303,0.14471
6030.32150,0.12166
6032.24997,0.06940
6034.17843,0.03033
6036.10690,0.06351
6038.03537,0.12856
6039.96384,0.15877
6041.89231,0.16030
6043.82078,0.14710
6045.74925,0.11986
6047.67772,0.09805
6049.60618,0.09151
6051.53465,0.07989
6053.46312,0.06386
6055.39159,0.06834
6057.32006,0.07798
6059.24853,0.07142
6061.17700,0.07674
6063.10546,0.09222
6065.03393,0.08949
6066.96240,0.06758
6068.89087,0.03243
6070.81934,0.01693
6072.74781,0.02875
6074.67628,0.03732
6076.60475,0.06423
6078.53321,0.11065
6080.46168,0.10428
6082.39015,0.05483
6084.31862,0.05753
6086.24709,0.12035
6088.17556,0.15438
6090.10403,0.14282
6092.03249,0.13006
6093.96096,0.10605
6095.88943,0.05929
6097.81790,0.02540
6099.74637,0.01725
6101.67484,0.00355
6103.60331,-0.02191
6105.53177,-0.02002
6107.46024,0.01219
6109.38871,0.04322
6111.31718,0.07541
6113.24565,0.10743
6115.17412,0.11570
6117.10259,0.08168
6119.03106,0.01969
6120.95952,-0.00511
6122.88799,0.01790
6124.81646,0.05779
6126.74493,0.08464
6128.67340,0.06495
6130.60187,0.05136
6132.53034,0.08206
6134.45880,0.10284
6136.38727,0.10467
6138.31574,0.11046
6140.24421,0.11575
6142.17268,0.11017
6144.10115,0.10046
6146.02962,0.10051
6147.95809,0.10114
6149.88655,0.08380
6151.81502,0.04900
6153.74349,0.02829
6155.67196,0.04902
6157.60043,0.08349
6159.52890,0.08325
6161.45737,0.06490
6163.38583,0.07154
6165.31430,0.07479
6167.24277,0.04984
6169.17124,0.02690
6171.09971,0.03328
6173.02818,0.05734
6174.95665,0.06977
6176.88512,0.07070
6178.81358,0.06769
6180.74205,0.06086
6182.67052,0.04899
6184.59899,0.02413
6186.52746,-0.00339
6188.45593,-0.00225
6190.38440,0.02810
6192.31286,0.06757
6194.24133,0.11001
6196.16980,0.12171
6198.09827,0.08383
6200.02674,0.04557
6201.95521,0.04133
6203.88368,0.04946
6205.81215,0.05713
6207.74061,0.08396
6209.66908,0.12556
6211.59755,0.16028
6213.52602,0.14846
6215.45449,0.08054
6217.38296,0.05423
6219.31143,0.10507
6221.23989,0.13092
6223.16836,0.09667
6225.09683,0.08847
6227.02530,0.12106
6228.95377,0.11083
6230.88224,0.07442
6232.81071,0.09465
6234.73918,0.14665
6236.66764,0.14887
6238.59611,0.10626
6240.52458,0.07407
6242.45305,0.06582
6244.38152,0.05737
6246.30999,0.04893
6248.23846,0.07519
6250.16692,0.13466
6252.09539,0.17939
6254.02386,0.17256
6255.95233,0.09342
6257.88080,-0.00975
6259.80927,-0.03926
6261.73774,-0.00106
6263.66621,0.04410
6265.59467,0.09439
6267.52314,0.14217
6269.45161,0.15308
6271.38008,0.14239
6273.30855,0.13132
6275.23702,0.12895
6277.16549,0.13277
6279.09395,0.13178
6281.02242,0.13808
6282.95089,0.13105
6284.87936,0.08234
6286.80783,0.04668
6288.73630,0.06478
6290.66477,0.09793
6292.59323,0.11917
6294.52170,0.13991
6296.45017,0.12670
6298.37864,0.06615
6300.30711,0.02465
6302.23558,0.02583
6304.16405,0.02338
6306.09252,0.01315
6308.02098,0.01300
6309.94945,0.01571
6311.87792,0.00940
6313.80639,0.01726
6315.73486,0.05831
6317.66333,0.09584
6319.59180,0.10656
6321.52026,0.10071
6323.44873,0.09552
6325.37720,0.11026
6327.30567,0.11916
6329.23414,0.09191
6331.16261,0.05977
6333.09108,0.05143
6335.01955,0.04004
6336.94801,0.02820
6338.87648,0.06332
6340.80495,0.11429
6342.73342,0.10494
6344.66189,0.05349
6346.59036,0.03608
6348.51883,0.06874
6350.44729,0.10450
6352.37576,0.12595
6354.30423,0.13272
6356.23270,0.10941
6358.16117,0.08016
6360.08964,0.08974
6362.01811,0.13042
6363.94658,0.14560
6365.87504,0.10243
6367.80351,0.05060
6369.73198,0.03460
6371.66045,0.05995
6373.58892,0.11594
6375.51739,0.13841
6377.44586,0.11127
6379.37432,0.08113
6381.30279,0.05922
6383.23126,0.03284
6385.15973,0.02836
6387.08820,0.03282
6389.01667,0.00457
6390.94514,-0.01079
6392.87361,0.03124
6394.80207,0.07334
6396.73054,0.08896
6398.65901,0.10437
6400.58748,0.12669
6402.51595,0.15754
6404.44442,0.15307
6406.37289,0.10281
6408.30135,0.07454
6410.22982,0.06843
6412.15829,0.04528
6414.08676,0.01895
6416.01523,0.02497
6417.94370,0.06627
6419.87217,0.09979
6421.80064,0.09254
6423.72910,0.07106
6425.65757,0.08934
6427.58604,0.10584
6429.51451,0.07916
6431.44298,0.09442
6433.37145,0.14616
6435.29992,0.13655
6437.22838,0.09881
6439.15685,0.09861
6441.08532,0.09983
6443.01379,0.08995
6444.94226,0.10513
6446.87073,0.12319
6448.79920,0.09452
6450.72766,0.04601
6452.65613,0.05088
6454.58460,0.10948
6456.51307,0.16945
6458.44154,0.18502
6460.37001,0.14866
6462.29848,0.09274
6464.22695,0.06828
6466.15541,0.04897
6468.08388,0.00858
6470.01235,0.02230
6471.94082,0.10074
6473.86929,0.17370
6475.79776,0.19880
6477.72623,0.18052
6479.65469,0.15587
6481.58316,0.11508
6483.51163,0.06539
6485.44010,0.06152
6487.36857,0.11823
6489.29704,0.18662
6491.22551,0.21802
6493.15398,0.19601
6495.08244,0.13560
6497.01091,0.08238
6498.93938,0.06006
6500.86785,0.08304
6502.79632,0.13483
6504.72479,0.13744
6506.65326,0.08617
6508.58172,0.05087
6510.51019,0.07561
6512.43866,0.15682
6514.36713,0.19745
6516.29560,0.13524
6518.22407,0.07746
6520.15254,0.08291
6522.08101,0.08232
6524.00947,0.05834
6525.93794,0.05216
6527.86641,0.09465
6529.79488,0.16165
6531.72335,0.16718
6533.65182,0.11325
6535.58029,0.07790
6537.50875,0.06551
6539.43722,0.03318
6541.36569,-0.04175
6543.29416,-0.09392
6545.22263,-0.04173
6547.15110,0.06634
6549.07957,0.13840
6551.00804,0.15188
6552.93650,0.16457
6554.86497,0.16259
6556.79344,0.13235
6558.72191,0.12460
6560.65038,0.09012
6562.57885,-0.01082
6564.50732,-0.05147
6566.43578,0.00693
6568.36425,0.04293
6570.29272,0.06099
6572.22119,0.10023
6574.14966,0.13244
6576.07813,0.13613
6578.00660,0.08227
6579.93507,-0.00302
6581.86353,-0.04595
6583.79200,-0.05164
6585.72047,-0.03038
6587.64894,0.02638
6589.57741,0.04408
6591.50588,0.01320
6593.43435,0.01362
6595.36281,0.02915
6597.29128,0.00086
6599.21975,-0.02684
6601.14822,0.02559
6603.07669,0.11841
6605.00516,0.13814
6606.93363,0.08934
6608.86210,0.06772
6610.79056,0.09347
6612.71903,0.09620
6614.64750,0.06206
6616.57597,0.06438
6618.50444,0.13469
6620.43291,0.19035
6622.36138,0.15347
6624.28984,0.06474
6626.21831,0.04132
6628.14678,0.08751
6630.07525,0.11950
6632.00372,0.11640
6633.93219,0.10951
6635.86066,0.11311
6637.78912,0.10169
6639.71759,0.06839
6641.64606,0.05822
6643.57453,0.11377
6645.50300,0.19681
6647.43147,0.19217
6649.35994,0.10757
6651.28841,0.04351
6653.21687,0.01579
6655.14534,-0.02529
6657.07381,-0.10521
6659.00228,-0.11356
6660.93075,0.00053
6662.85922,0.05636
6664.78769,-0.00397
6666.71615,-0.05876
6668.64462,-0.05177
6670.57309,0.00949
6672.50156,0.09747
6674.43003,0.14200
6676.35850,0.12525
6678.28697,0.10421
6680.21544,0.11813
6682.14390,0.12177
6684.07237,0.08774
6686.00084,0.06441
6687.92931,0.05055
6689.85778,0.04080
6691.78625,0.08588
6693.71472,0.15021
6695.64318,0.14888
6697.57165,0.07898
6699.50012,0.02300
6701.42859,-0.01226
6703.35706,-0.07813
6705.28553,-0.11818
6707.21400,-0.03534
6709.14247,0.07237
6711.07093,0.09845
6712.99940,0.09429
6714.92787,0.08127
6716.85634,0.05789
6718.78481,0.04800
6720.71328,0.07544
6722.64175,0.10653
6724.57021,0.04788
6726.49868,-0.04251
6728.42715,-0.02126
6730.35562,0.07500
6732.28409,0.09244
6734.21256,0.06224
6736.14103,0.08783
6738.06950,0.12886
6739.99796,0.12798
6741.92643,0.12686
6743.85490,0.13044
6745.78337,0.07575
6747.71184,-0.00342
6749.64031,-0.01348
6751.56878,0.01102
6753.49724,0.00721
6755.42571,0.03765
6757.35418,0.11939
6759.28265,0.18785
6761.21112,0.19802
6763.13959,0.16711
6765.06806,0.13212
6766.99653,0.10086
6768.92499,0.08068
6770.85346,0.05330
6772.78193,0.02211
6774.71040,0.02118
6776.63887,0.02976
6778.56734,0.01722
6780.49581,0.01550
6782.42427,0.05267
6784.35274,0.10301
6786.28121,0.14318
6788.20968,0.14853
6790.13815,0.10457
6792.06662,0.05652
6793.99509,0.04732
6795.92355,0.05475
6797.85202,0.06421
6799.78049,0.08259
6801.70896,0.07376
6803.63743,0.05222
6805.56590,0.06202
6807.49437,0.06913
6809.42284,0.07023
6811.35130,0.07800
6813.27977,0.06332
6815.20824,0.00509
6817.13671,-0.03050
6819.06518,-0.02733
6820.99365,-0.03402
6822.92212,-0.01252
6824.85058,0.04088
6826.77905,0.08626
6828.70752,0.13547
6830.63599,0.13895
6832.56446,0.07238
6834.49293,0.03310
6836.42140,0.07177
6838.34987,0.09390
6840.27833,0.05381
6842.20680,0.05191
6844.13527,0.13530
6846.06374,0.18998
6847.99221,0.12705
6849.92068,0.02510
6851.84915,-0.00586
6853.77761,0.02143
6855.70608,0.05343
6857.63455,0.03044
6859.56302,-0.00294
6861.49149,0.03277
6863.41996,0.10553
6865.34843,0.13213
6867.27690,0.11747
6869.20536,0.15345
6871.13383,0.22966
6873.06230,0.21545
6874.99077,0.11825
6876.91924,0.04425
6878.84771,-0.00559
6880.77618,-0.05363
6882.70464,-0.07317
6884.63311,-0.03631
6886.56158,0.06986
6888.49005,0.18695
6890.41852,0.21841
6892.34699,0.18559
6894.27546,0.13406
6896.20393,0.08460
6898.13239,0.10229
6900.06086,0.13445
6901.98933,0.10887
6903.91780,0.07850
6905.84627,0.03822
6907.77474,-0.04436
6909.70321,-0.04936
6911.63167,0.05594
6913.56014,0.11986
6915.48861,0.09923
6917.41708,0.08934
6919.34555,0.11916
6921.27402,0.13413
6923.20249,0.09823
6925.13096,0.04985
6927.05942,0.00777
6928.98789,-0.00967
6930.91636,0.03249
6932.84483,0.08197
6934.77330,0.09558
6936.70177,0.09216
6938.63024,0.04468
6940.55870,-0.06552
6942.48717,-0.15188
6944.41564,-0.14904
6946.34411,-0.06447
6948.27258,0.01643
6950.20105,-0.00799
6952.12952,-0.10080
6954.05799,-0.12576
6955.98645,-0.02248
6957.91492,0.04207
6959.84339,0.00617
6961.77186,-0.00858
6963.70033,0.01033
6965.62880,0.02564
6967.55727,-0.00334
6969.48573,-0.07858
6971.41420,-0.09885
6973.34267,-0.07054
6975.27114,-0.00933
6977.19961,0.08560
6979.12808,0.14113
6981.05655,0.15251
6982.98501,0.14013
6984.91348,0.13121
6986.84195,0.15209
6988.77042,0.13016
6990.69889,0.01976
6992.62736,-0.05070
6994.55583,-0.01942
6996.48430,0.05251
6998.41276,0.11126
7000.34123,0.10366
7002.26970,0.04900
7004.19817,0.03528
7006.12664,0.08219
7008.05511,0.11249
7009.98358,0.08058
7011.91204,0.02454
7013.84051,-0.02368
7015.76898,-0.04145
7017.69745,-0.01939
7019.62592,0.03390
7021.55439,0.04872
7023.48286,-0.00190
7025.41133,-0.00348
7027.33979,0.12118
7029.26826,0.25131
7031.19673,0.20686
7033.12520,0.05375
7035.05367,-0.04278
7036.98214,-0.06029
7038.91061,-0.07286
7040.83907,-0.03604
7042.76754,0.06241
7044.69601,0.13340
7046.62448,0.18010
7048.55295,0.16305
7050.48142,0.09191
7052.40989,0.04276
7054.33836,0.03385
7056.26682,0.09208
7058.19529,0.13903
7060.12376,0.09712
7062.05223,0.05587
7063.98070,0.06043
7065.90917,0.09122
7067.83764,0.10237
7069.76610,0.04968
7071.69457,-0.01135
7073.62304,0.00751
7075.55151,0.05423
7077.47998,0.07797
7079.40845,0.07943
7081.33692,0.04062
7083.26539,0.00491
7085.19385,0.02369
7087.12232,0.03647
7089.05079,0.01188
7090.97926,0.05708
7092.90773,0.18380
7094.83620,0.22737
7096.76467,0.15365
7098.69313,0.07011
7100.62160,-0.01803
7102.55007,-0.09483
7104.47854,-0.06954
7106.40701,0.01616
7108.33548,0.07287
7110.26395,0.10134
7112.19242,0.08467
7114.12088,0.07991
7116.04935,0.14771
7117.97782,0.18616
7119.90629,0.12242
7121.83476,0.08352
7123.76323,0.13085
7125.69170,0.16455
7127.62016,0.11066
7129.54863,0.04939
7131.47710,0.02232
7133.40557,0.01156
7135.33404,0.01862
7137.26251,0.01498
7139.19098,0.05082
7141.11944,0.19022
7143.04791,0.30412
7144.97638,0.27328
7146.90485,0.13034
7148.83332,0.00288
7150.76179,-0.05397
7152.69026,-0.06730
7154.61873,-0.02013
7156.54719,0.05845
7158.47566,0.08866
7160.40413,0.09561
7162.33260,0.11106
7164.26107,0.09486
7166.18954,0.02934
7168.11801,-0.02884
7170.04647,-0.03016
7171.97494,0.00927
7173.90341,0.03490
7175.83188,0.03285
7177.76035,0.03318
7179.68882,0.02979
7181.61729,-0.00718
7183.54576,0.00765
7185.47422,0.11546
7187.40269,0.16933
7189.33116,0.08975
7191.25963,-0.03579
7193.18810,-0.05074
7195.11657,-0.02048
7197.04504,-0.03147
7198.97350,-0.02743
7200.90197,0.00763
7202.83044,0.05965
7204.75891,0.11395
7206.68738,0.10896
7208.61585,0.10128
7210.54432,0.13670
7212.47279,0.17863
7214.40125,0.21388
7216.32972,0.17144
7218.25819,-0.00125
7220.18666,-0.05532
7222.11513,0.04990
7224.04360,0.12810
7225.97207,0.11952
7227.90053,0.10036
7229.82900,0.05910
7231.75747,-0.00475
7233.68594,0.01221
7235.61441,0.08469
7237.54288,0.10578
7239.47135,0.00874
7241.39982,-0.13014
7243.32828,-0.16926
7245.25675,-0.12703
7247.18522,-0.13101
7249.11369,-0.12425
7251.04216,-0.03356
7252.97063,0.08107
7254.89910,0.12262
7256.82756,0.12018
7258.75603,0.08189
7260.68450,0.02482
7262.61297,0.16997
7264.54144,0.38857
7266.46991,0.27141
7268.39838,0.02035
7270.32685,-0.07884
7272.25531,-0.07228
7274.18378,-0.08653
7276.11225,-0.04203
7278.04072,0.08191
7279.96919,0.18429
7281.89766,0.22384
7283.82613,0.24672
7285.75459,0.20720
7287.68306,0.13042
7289.61153,0.10603
7291.54000,0.07278
7293.46847,-0.03218
7295.39694,-0.12380
7297.32541,-0.18393
7299.25387,-0.20598
7301.18234,-0.13578
7303.11081,-0.05288
7305.03928,-0.08778
7306.96775,-0.13141
7308.89622,-0.00709
7310.82469,0.16581
7312.75316,0.20895
7314.68162,0.20023
7316.61009,0.21278
7318.53856,0.14107
7320.46703,-0.00016
7322.39550,-0.02292
7324.32397,0.09407
7326.25244,0.14873
7328.18090,0.09780
7330.10937,0.04119
7332.03784,0.02741
7333.96631,0.06218
7335.89478,0.07884
7337.82325,-0.01111
7339.75172,-0.14579
7341.68019,-0.11794
7343.60865,-0.06022
7345.53712,-0.04115
7347.46559,-0.02117
7349.39406,-0.03729
7351.32253,-0.01767
7353.25100,0.09148
7355.17947,0.12047
7357.10793,-0.04571
7359.03640,-0.17979
7360.96487,-0.06446
7362.89334,0.02736
7364.82181,-0.02283
7366.75028,-0.06120
7368.67875,-0.03429
7370.60722,0.08251
7372.53568,0.25839
7374.46415,0.32285
7376.39262,0.20907
7378.32109,0.16982
7380.24956,0.15160
7382.17803,0.06647
7384.10650,0.05277
7386.03496,0.15194
7387.96343,0.21603
7389.89190,0.21315
7391.82037,0.16802
7393.74884,0.09289
7395.67731,0.05880
7397.60578,0.06285
7399.53425,0.09470
7401.46271,0.13250
7403.39118,0.05264
7405.31965,-0.11694
7407.24812,-0.12801
7409.17659,0.03660
7411.10506,0.15737
7413.03353,0.12218
7414.96199,0.08278
7416.89046,0.13495
7418.81893,0.16581
7420.74740,0.09889
7422.67587,0.00927
7424.60434,-0.06606
7426.53281,-0.08867
7428.46128,-0.07604
7430.38974,-0.03481
7432.31821,0.07769
7434.24668,0.25122
7436.17515,0.37368
7438.10362,0.34667
7440.03209,0.24428
7441.96056,0.09422
7443.88902,-0.08917
7445.81749,-0.17446
7447.74596,-0.10808
7449.67443,0.10763
7451.60290,0.26913
7453.53137,0.17463
7455.45984,0.04585
7457.38831,-0.03212
7459.31677,-0.07305
7461.24524,0.02817
7463.17371,0.11052
7465.10218,0.07295
7467.03065,0.12526
7468.95912,0.22932
7470.88759,0.15837
7472.81605,-0.04411
7474.74452,-0.12870
7476.67299,-0.02906
7478.60146,0.10938
7480.52993,0.11717
7482.45840,0.07429
7484.38687,0.03868
7486.31533,0.00538
7488.24380,0.03721
7490.17227,0.04790
7492.10074,-0.01638
7494.02921,-0.00609
7495.95768,0.10108
7497.88615,0.20670
