399.19301,0.94139
401.12148,0.32845
403.04995,-0.06795
404.97842,-0.17593
406.90689,-0.04381
408.83536,0.16143
410.76382,0.17715
412.69229,0.04659
414.62076,0.03257
416.54923,0.13986
418.47770,0.20367
420.40617,0.17393
422.33464,0.19286
424.26311,0.21716
426.19157,0.16274
428.12004,0.07359
430.04851,0.05862
431.97698,0.13970
433.90545,0.15140
435.83392,0.08710
437.76239,0.05486
439.69085,0.02565
441.61932,-0.00709
443.54779,0.04123
445.47626,0.12806
447.40473,0.16797
449.33320,0.18008
451.26167,0.18168
453.19013,0.14183
455.11860,0.09110
457.04707,0.09205
458.97554,0.10848
460.90401,0.08847
462.83248,0.06500
464.76095,0.06367
466.68942,0.05307
468.61788,0.01929
470.54635,0.03026
472.47482,0.13269
474.40329,0.21369
476.33176,0.15374
478.26023,0.06418
480.18870,-0.00044
482.11716,0.00103
484.04563,0.06553
485.97410,0.10716
487.90257,0.08955
489.83104,0.04446
491.75951,-0.00512
493.68798,-0.03499
495.61645,-0.00698
497.54491,0.06629
499.47338,0.10266
501.40185,0.07611
503.33032,0.04618
505.25879,0.06222
507.18726,0.11169
509.11573,0.13095
511.04419,0.09600
512.97266,0.06011
514.90113,0.05351
516.82960,0.06167
518.75807,0.08549
520.68654,0.11554
522.61501,0.11679
524.54348,0.09363
526.47194,0.09243
528.40041,0.11754
530.32888,0.13160
532.25735,0.11436
534.18582,0.08807
536.11429,0.07554
538.04276,0.06964
539.97122,0.08060
541.89969,0.11459
543.82816,0.13941
545.75663,0.13464
547.68510,0.11473
549.61357,0.09218
551.54204,0.07526
553.47051,0.06709
555.39897,0.05541
557.32744,0.05126
559.25591,0.07066
561.18438,0.08587
563.11285,0.08054
565.04132,0.07904
566.96979,0.09068
568.89825,0.09380
570.82672,0.07909
572.75519,0.06854
574.68366,0.08537
576.61213,0.11033
578.54060,0.11141
580.46907,0.10856
582.39754,0.12531
584.32600,0.13390
586.25447,0.11461
588.18294,0.09390
590.11141,0.10185
592.03988,0.13414
593.96835,0.15014
595.89682,0.12504
597.82528,0.09182
599.75375,0.08557
601.68222,0.09420
603.61069,0.09887
605.53916,0.10205
607.46763,0.10641
609.39610,0.09810
611.32456,0.07721
613.25303,0.07069
615.18150,0.07437
617.10997,0.05985
619.03844,0.03822
620.96691,0.04313
622.89538,0.07583
624.82385,0.09925
626.75231,0.08833
628.68078,0.07630
630.60925,0.09713
632.53772,0.11510
634.46619,0.09966
636.39466,0.08461
638.32313,0.09717
640.25159,0.11702
642.18006,0.11339
644.10853,0.09178
646.03700,0.07585
647.96547,0.07286
649.89394,0.07007
651.82241,0.06141
653.75088,0.07219
655.67934,0.11225
657.60781,0.14314
659.53628,0.14176
661.46475,0.12157
663.39322,0.09521
665.32169,0.07039
667.25016,0.04724
669.17862,0.05529
671.10709,0.09917
673.03556,0.12071
674.96403,0.10883
676.89250,0.09163
678.82097,0.09526
680.74944,0.11259
682.67791,0.12248
684.60637,0.12272
686.53484,0.12421
688.46331,0.12664
690.39178,0.12450
692.32025,0.11890
694.24872,0.11719
696.17719,0.11970
698.10565,0.11261
700.03412,0.10014
701.96259,0.10003
703.89106,0.10468
705.81953,0.10505
707.74800,0.10750
709.67647,0.10657
711.60494,0.10016
713.53340,0.10052
715.46187,0.10855
717.39034,0.11863
719.31881,0.12866
721.24728,0.13146
723.17575,0.12617
725.10422,0.11936
727.03268,0.11453
728.96115,0.11117
730.88962,0.10613
732.81809,0.10136
734.74656,0.09934
736.67503,0.09989
738.60350,0.10403
740.53197,0.11144
742.46043,0.11693
744.38890,0.11459
746.31737,0.10688
748.24584,0.09876
750.17431,0.09622
752.10278,0.10519
754.03125,0.12117
755.95971,0.13295
757.88818,0.12912
759.81665,0.11089
761.74512,0.09701
763.67359,0.09766
765.60206,0.10252
767.53053,0.10404
769.45900,0.10552
771.38746,0.10759
773.31593,0.10880
775.24440,0.11053
777.17287,0.11160
779.10134,0.11321
781.02981,0.11443
782.95828,0.11084
784.88674,0.10902
786.81521,0.11299
788.74368,0.11692
790.67215,0.11473
792.60062,0.10848
794.52909,0.11207
796.45756,0.12494
798.38602,0.12845
800.31449,0.11935
802.24296,0.10916
804.17143,0.10312
806.09990,0.09938
808.02837,0.09827
809.95684,0.10483
811.88531,0.11687
813.81377,0.12344
815.74224,0.12580
817.67071,0.13113
819.59918,0.13119
821.52765,0.12179
823.45612,0.11815
825.38459,0.12278
827.31305,0.11818
829.24152,0.10735
831.16999,0.10841
833.09846,0.11609
835.02693,0.12090
836.95540,0.12571
838.88387,0.12374
840.81234,0.11721
842.74080,0.11588
844.66927,0.11470
846.59774,0.11309
848.52621,0.11749
850.45468,0.12571
852.38315,0.13140
854.31162,0.13316
856.24008,0.13329
858.16855,0.13055
860.09702,0.12418
862.02549,0.12169
863.95396,0.12504
865.88243,0.13310
867.81090,0.15108
869.73937,0.16422
871.66783,0.15125
873.59630,0.12724
875.52477,0.11665
877.45324,0.11418
879.38171,0.11178
881.31018,0.11255
883.23865,0.11223
885.16711,0.11024
887.09558,0.11088
889.02405,0.11140
890.95252,0.10999
892.88099,0.11135
894.80946,0.11641
896.73793,0.11860
898.66640,0.11476
900.59486,0.10860
902.52333,0.10791
904.45180,0.11328
906.38027,0.11604
908.30874,0.11580
910.23721,0.11680
912.16568,0.12015
914.09414,0.12345
916.02261,0.11956
917.95108,0.11428
919.87955,0.11894
921.80802,0.12887
923.73649,0.13729
925.66496,0.14137
927.59343,0.13978
929.52189,0.13539
931.45036,0.13196
933.37883,0.13319
935.30730,0.13572
937.23577,0.13110
939.16424,0.12139
941.09271,0.11777
943.02117,0.12208
944.94964,0.12486
946.87811,0.12524
948.80658,0.12990
950.73505,0.13608
952.66352,0.13766
954.59199,0.13425
956.52045,0.12842
958.44892,0.12426
960.37739,0.12356
962.30586,0.12437
964.23433,0.12572
966.16280,0.12597
968.09127,0.12472
970.01974,0.12554
971.94820,0.12719
973.87667,0.12617
975.80514,0.12663
977.73361,0.13242
979.66208,0.13653
981.59055,0.13260
983.51902,0.12843
985.44748,0.13066
987.37595,0.13515
989.30442,0.13792
991.23289,0.13889
993.16136,0.13862
995.08983,0.13617
997.01830,0.13184
998.94677,0.12858
1000.87523,0.13012
1002.80370,0.13533
1004.73217,0.13725
1006.66064,0.13445
1008.58911,0.13214
1010.51758,0.13401
1012.44605,0.13712
1014.37451,0.13627
1016.30298,0.13268
1018.23145,0.13148
1020.15992,0.13647
1022.08839,0.14246
1024.01686,0.14720
1025.94533,0.16542
1027.87380,0.18272
1029.80226,0.16515
1031.73073,0.13778
1033.65920,0.13489
1035.58767,0.13810
1037.51614,0.13620
1039.44461,0.13884
1041.37308,0.14249
1043.30154,0.14342
1045.23001,0.14546
1047.15848,0.14681
1049.08695,0.14403
1051.01542,0.14414
1052.94389,0.15197
1054.87236,0.15398
1056.80083,0.14461
1058.72929,0.14167
1060.65776,0.14948
1062.58623,0.15250
1064.51470,0.14954
1066.44317,0.14889
1068.37164,0.14902
1070.30011,0.14986
1072.22857,0.15119
1074.15704,0.14754
1076.08551,0.13931
1078.01398,0.13247
1079.94245,0.13521
1081.87092,0.14606
1083.79939,0.15218
1085.72786,0.14947
1087.65632,0.14633
1089.58479,0.14844
1091.51326,0.14911
1093.44173,0.14776
1095.37020,0.15152
1097.29867,0.15581
1099.22714,0.15509
1101.15560,0.14970
1103.08407,0.14689
1105.01254,0.15404
1106.94101,0.16238
1108.86948,0.16132
1110.79795,0.15457
1112.72642,0.15001
1114.65489,0.14783
1116.58335,0.14912
1118.51182,0.15460
1120.44029,0.15748
1122.36876,0.15503
1124.29723,0.15087
1126.22570,0.14876
1128.15417,0.14896
1130.08263,0.14862
1132.01110,0.14626
1133.93957,0.14681
1135.86804,0.15364
1137.79651,0.15793
1139.72498,0.15332
1141.65345,0.14631
1143.58191,0.14548
1145.51038,0.14823
1147.43885,0.14741
1149.36732,0.14756
1151.29579,0.15176
1153.22426,0.15488
1155.15273,0.15663
1157.08120,0.15665
1159.00966,0.15499
1160.93813,0.15560
1162.86660,0.15615
1164.79507,0.15566
1166.72354,0.15758
1168.65201,0.15931
1170.58048,0.15638
1172.50894,0.14954
1174.43741,0.14427
1176.36588,0.14405
1178.29435,0.14689
1180.22282,0.15024
1182.15129,0.15072
1184.07976,0.14230
1186.00823,0.13264
1187.93669,0.13695
1189.86516,0.14647
1191.79363,0.14903
1193.72210,0.14867
1195.65057,0.14863
1197.57904,0.14928
1199.50751,0.14931
1201.43597,0.14844
1203.36444,0.14860
1205.29291,0.14998
1207.22138,0.15191
1209.14985,0.15234
1211.07832,0.15032
1213.00679,0.15067
1214.93526,0.15498
1216.86372,0.15644
1218.79219,0.15464
1220.72066,0.15388
1222.64913,0.15436
1224.57760,0.15667
1226.50607,0.15957
1228.43454,0.15850
1230.36300,0.15249
1232.29147,0.14706
1234.21994,0.14667
1236.14841,0.14975
1238.07688,0.15341
1240.00535,0.15594
1241.93382,0.15715
1243.86229,0.15876
1245.79075,0.16101
1247.71922,0.16081
1249.64769,0.15740
1251.57616,0.15389
1253.50463,0.15301
1255.43310,0.15378
1257.36157,0.15219
1259.29003,0.14980
1261.21850,0.15241
1263.14697,0.15786
1265.07544,0.15859
1267.00391,0.15423
1268.93238,0.15206
1270.86085,0.15612
1272.78932,0.16160
1274.71778,0.16162
1276.64625,0.15831
1278.57472,0.15773
1280.50319,0.15820
1282.43166,0.15706
1284.36013,0.15742
1286.28860,0.16054
1288.21706,0.16279
1290.14553,0.16189
1292.07400,0.16013
1294.00247,0.15965
1295.93094,0.15900
1297.85941,0.15680
1299.78788,0.15309
1301.71634,0.14639
1303.64481,0.13783
1305.57328,0.13788
1307.50175,0.15293
1309.43022,0.16925
1311.35869,0.17419
1313.28716,0.17220
1315.21563,0.16875
1317.14409,0.16688
1319.07256,0.16652
1321.00103,0.16260
1322.92950,0.15709
1324.85797,0.15427
1326.78644,0.15452
1328.71491,0.15716
1330.64337,0.15816
1332.57184,0.15775
1334.50031,0.15867
1336.42878,0.15914
1338.35725,0.15960
1340.28572,0.15503
1342.21419,0.14292
1344.14266,0.13815
1346.07112,0.14675
1347.99959,0.15785
1349.92806,0.16168
1351.85653,0.15888
1353.78500,0.15796
1355.71347,0.16266
1357.64194,0.16635
1359.57040,0.16758
1361.49887,0.16959
1363.42734,0.16934
1365.35581,0.16787
1367.28428,0.16875
1369.21275,0.16911
1371.14122,0.16943
1373.06969,0.17417
1374.99815,0.17928
1376.92662,0.17855
1378.85509,0.17681
1380.78356,0.17733
1382.71203,0.17718
1384.64050,0.17537
1386.56897,0.17474
1388.49743,0.17553
1390.42590,0.17538
1392.35437,0.17589
1394.28284,0.17749
1396.21131,0.17693
1398.13978,0.17588
1400.06825,0.17752
1401.99672,0.18028
1403.92518,0.18227
1405.85365,0.18078
1407.78212,0.17664
1409.71059,0.17483
1411.63906,0.17569
1413.56753,0.17735
1415.49600,0.17955
1417.42446,0.18090
1419.35293,0.18110
1421.28140,0.18176
1423.20987,0.18025
1425.13834,0.17661
1427.06681,0.17638
1428.99528,0.18052
1430.92375,0.18370
1432.85221,0.18438
1434.78068,0.18568
1436.70915,0.18558
1438.63762,0.18266
1440.56609,0.18105
1442.49456,0.18033
1444.42303,0.18118
1446.35149,0.18542
1448.27996,0.18666
1450.20843,0.18151
1452.13690,0.18031
1454.06537,0.18858
1455.99384,0.20510
1457.92231,0.21346
1459.85077,0.20147
1461.77924,0.19067
1463.70771,0.18558
1465.63618,0.18332
1467.56465,0.18265
1469.49312,0.18682
1471.42159,0.19701
1473.35006,0.20310
1475.27852,0.19757
1477.20699,0.18969
1479.13546,0.18473
1481.06393,0.18360
1482.99240,0.18372
1484.92087,0.18469
1486.84934,0.18828
1488.77780,0.19097
1490.70627,0.18838
1492.63474,0.18610
1494.56321,0.18781
1496.49168,0.19150
1498.42015,0.19036
1500.34862,0.18532
1502.27709,0.18355
1504.20555,0.18896
1506.13402,0.20782
1508.06249,0.22024
1509.99096,0.20723
1511.91943,0.19527
1513.84790,0.19552
1515.77637,0.20640
1517.70483,0.21435
1519.63330,0.21726
1521.56177,0.21678
1523.49024,0.20779
1525.41871,0.20321
1527.34718,0.20109
1529.27565,0.19503
1531.20412,0.19161
1533.13258,0.19471
1535.06105,0.19773
1536.98952,0.19989
1538.91799,0.21027
1540.84646,0.22354
1542.77493,0.21813
1544.70340,0.20528
1546.63186,0.19395
1548.56033,0.18973
1550.48880,0.19146
1552.41727,0.19347
1554.34574,0.19632
1556.27421,0.20232
1558.20268,0.20621
1560.13115,0.19780
1562.05961,0.19124
1563.98808,0.18751
1565.91655,0.18600
1567.84502,0.19115
1569.77349,0.19754
1571.70196,0.19709
1573.63043,0.19798
1575.55889,0.20159
1577.48736,0.19984
1579.41583,0.19490
1581.34430,0.19032
1583.27277,0.18662
1585.20124,0.18615
1587.12971,0.18786
1589.05818,0.18786
1590.98664,0.18778
1592.91511,0.18998
1594.84358,0.18904
1596.77205,0.18333
1598.70052,0.18035
1600.62899,0.18385
1602.55746,0.18847
1604.48592,0.18817
1606.41439,0.18529
1608.34286,0.18401
1610.27133,0.18474
1612.19980,0.18715
1614.12827,0.19184
1616.05674,0.19788
1617.98521,0.19854
1619.91367,0.19518
1621.84214,0.19473
1623.77061,0.19754
1625.69908,0.19891
1627.62755,0.19704
1629.55602,0.19320
1631.48449,0.19212
1633.41295,0.19966
1635.34142,0.21383
1637.26989,0.21230
1639.19836,0.20174
1641.12683,0.19793
1643.05530,0.20117
1644.98377,0.21095
1646.91223,0.22006
1648.84070,0.21914
1650.76917,0.22202
1652.69764,0.22840
1654.62611,0.21738
1656.55458,0.20514
1658.48305,0.20052
1660.41152,0.20198
1662.33998,0.20389
1664.26845,0.20115
1666.19692,0.20160
1668.12539,0.20783
1670.05386,0.21109
1671.98233,0.20772
1673.91080,0.20421
1675.83926,0.19811
1677.76773,0.19361
1679.69620,0.19622
1681.62467,0.20347
1683.55314,0.21038
1685.48161,0.20864
1687.41008,0.20563
1689.33855,0.20528
1691.26701,0.20292
1693.19548,0.20061
1695.12395,0.20400
1697.05242,0.21330
1698.98089,0.21812
1700.90936,0.21049
1702.83783,0.20184
1704.76629,0.19828
1706.69476,0.19532
1708.62323,0.19341
1710.55170,0.19334
1712.48017,0.19518
1714.40864,0.20058
1716.33711,0.20808
1718.26558,0.20786
1720.19404,0.19965
1722.12251,0.19212
1724.05098,0.18874
1725.97945,0.19140
1727.90792,0.19665
1729.83639,0.19982
1731.76486,0.20162
1733.69332,0.20161
1735.62179,0.19545
1737.55026,0.19050
1739.47873,0.19078
1741.40720,0.19477
1743.33567,0.19876
1745.26414,0.20186
1747.19261,0.20525
1749.12107,0.20777
1751.04954,0.20401
1752.97801,0.19570
1754.90648,0.19116
1756.83495,0.19220
1758.76342,0.19519
1760.69189,0.19741
1762.62035,0.19566
1764.54882,0.19003
1766.47729,0.18761
1768.40576,0.19093
1770.33423,0.19592
1772.26270,0.19817
1774.19117,0.19693
1776.11964,0.19461
1778.04810,0.19373
1779.97657,0.19476
1781.90504,0.19396
1783.83351,0.19015
1785.76198,0.18711
1787.69045,0.18823
1789.61892,0.19356
1791.54738,0.19851
1793.47585,0.19748
1795.40432,0.19492
1797.33279,0.19395
1799.26126,0.19257
1801.18973,0.18985
1803.11820,0.18741
1805.04666,0.18807
1806.97513,0.19161
1808.90360,0.19471
1810.83207,0.19458
1812.76054,0.19116
1814.68901,0.18663
1816.61748,0.18396
1818.54595,0.18536
1820.47441,0.18860
1822.40288,0.19193
1824.33135,0.19470
1826.25982,0.19541
1828.18829,0.19681
1830.11676,0.19725
1832.04523,0.19318
1833.97369,0.18973
1835.90216,0.18870
1837.83063,0.18756
1839.75910,0.18724
1841.68757,0.19050
1843.61604,0.19494
1845.54451,0.19517
1847.47298,0.19304
1849.40144,0.19132
1851.32991,0.19047
1853.25838,0.19164
1855.18685,0.19383
1857.11532,0.19484
1859.04379,0.19410
1860.97226,0.19290
1862.90072,0.19267
1864.82919,0.19302
1866.75766,0.19426
1868.68613,0.19604
1870.61460,0.19570
1872.54307,0.19392
1874.47154,0.19177
1876.40001,0.18889
1878.32847,0.18715
1880.25694,0.18758
1882.18541,0.18766
1884.11388,0.18738
1886.04235,0.18911
1887.97082,0.19250
1889.89929,0.19346
1891.82775,0.19068
1893.75622,0.18947
1895.68469,0.19121
1897.61316,0.19187
1899.54163,0.19071
1901.47010,0.19040
1903.39857,0.19175
1905.32704,0.19282
1907.25550,0.19223
1909.18397,0.19110
1911.11244,0.19003
1913.04091,0.18924
1914.96938,0.19117
1916.89785,0.19500
1918.82632,0.19726
1920.75478,0.19807
1922.68325,0.19681
1924.61172,0.19304
1926.54019,0.19020
1928.46866,0.18932
1930.39713,0.19007
1932.32560,0.19243
1934.25407,0.19429
1936.18253,0.19414
1938.11100,0.19273
1940.03947,0.19294
1941.96794,0.19552
1943.89641,0.19568
1945.82488,0.19369
1947.75335,0.19334
1949.68181,0.19323
1951.61028,0.19267
1953.53875,0.19220
1955.46722,0.19197
1957.39569,0.19307
1959.32416,0.19413
1961.25263,0.19326
1963.18110,0.19225
1965.10956,0.19306
1967.03803,0.19364
1968.96650,0.19301
1970.89497,0.19358
1972.82344,0.19392
1974.75191,0.19460
1976.68038,0.19663
1978.60884,0.19526
1980.53731,0.19267
1982.46578,0.19286
1984.39425,0.19289
1986.32272,0.19260
1988.25119,0.19362
1990.17966,0.19468
1992.10812,0.19520
1994.03659,0.19583
1995.96506,0.19494
1997.89353,0.19288
1999.82200,0.19268
2001.75047,0.19326
2003.67894,0.19339
2005.60741,0.19400
2007.53587,0.19458
2009.46434,0.19414
2011.39281,0.19350
2013.32128,0.19525
2015.24975,0.19885
2017.17822,0.19987
2019.10669,0.19761
2021.03515,0.19497
2022.96362,0.19235
2024.89209,0.19001
2026.82056,0.18911
2028.74903,0.18957
2030.67750,0.19082
2032.60597,0.19201
2034.53444,0.19244
2036.46290,0.19317
2038.39137,0.19399
2040.31984,0.19231
2042.24831,0.19032
2044.17678,0.19263
2046.10525,0.19641
2048.03372,0.19602
2049.96218,0.19301
2051.89065,0.19209
2053.81912,0.19382
2055.74759,0.19614
2057.67606,0.19667
2059.60453,0.19598
2061.53300,0.19596
2063.46147,0.19613
2065.38993,0.19651
2067.31840,0.19667
2069.24687,0.19667
2071.17534,0.19802
2073.10381,0.19865
2075.03228,0.19665
2076.96075,0.19486
2078.88921,0.19527
2080.81768,0.19615
2082.74615,0.19629
2084.67462,0.19637
2086.60309,0.19640
2088.53156,0.19589
2090.46003,0.19504
2092.38850,0.19453
2094.31696,0.19496
2096.24543,0.19594
2098.17390,0.19680
2100.10237,0.19655
2102.03084,0.19535
2103.95931,0.19526
2105.88778,0.19658
2107.81624,0.19734
2109.74471,0.19557
2111.67318,0.19246
2113.60165,0.19137
2115.53012,0.19242
2117.45859,0.19464
2119.38706,0.19718
2121.31553,0.19848
2123.24399,0.19872
2125.17246,0.19867
2127.10093,0.19757
2129.02940,0.19578
2130.95787,0.19257
2132.88634,0.18355
2134.81481,0.17488
2136.74327,0.18036
2138.67174,0.19394
2140.60021,0.19946
2142.52868,0.19818
2144.45715,0.19718
2146.38562,0.19583
2148.31409,0.19500
2150.24255,0.19626
2152.17102,0.19772
2154.09949,0.19838
2156.02796,0.19820
2157.95643,0.19670
2159.88490,0.19439
2161.81337,0.19320
2163.74184,0.19440
2165.67030,0.19590
2167.59877,0.19567
2169.52724,0.19571
2171.45571,0.19672
2173.38418,0.19702
2175.31265,0.19726
2177.24112,0.19847
2179.16958,0.19914
2181.09805,0.19736
2183.02652,0.19441
2184.95499,0.19320
2186.88346,0.19461
2188.81193,0.19680
2190.74040,0.19799
2192.66887,0.19852
2194.59733,0.19888
2196.52580,0.19904
2198.45427,0.19841
2200.38274,0.19713
2202.31121,0.19641
2204.23968,0.19655
2206.16815,0.19794
2208.09661,0.19968
2210.02508,0.19975
2211.95355,0.19918
2213.88202,0.19967
2215.81049,0.19900
2217.73896,0.19575
2219.66743,0.19424
2221.59590,0.19616
2223.52436,0.19707
2225.45283,0.19668
2227.38130,0.19823
2229.30977,0.20019
2231.23824,0.19933
2233.16671,0.19582
2235.09518,0.19329
2237.02364,0.19412
2238.95211,0.19640
2240.88058,0.19750
2242.80905,0.19722
2244.73752,0.19732
2246.66599,0.19834
2248.59446,0.20034
2250.52293,0.20220
2252.45139,0.20043
2254.37986,0.19683
2256.30833,0.19637
2258.23680,0.19896
2260.16527,0.20160
2262.09374,0.20249
2264.02221,0.20189
2265.95067,0.20059
2267.87914,0.19935
2269.80761,0.19965
2271.73608,0.20195
2273.66455,0.20338
2275.59302,0.20086
2277.52149,0.19584
2279.44996,0.19278
2281.37842,0.19324
2283.30689,0.19459
2285.23536,0.19553
2287.16383,0.19659
2289.09230,0.19645
2291.02077,0.19316
2292.94924,0.18885
2294.87770,0.18841
2296.80617,0.19014
2298.73464,0.18913
2300.66311,0.18751
2302.59158,0.18960
2304.52005,0.19304
2306.44852,0.19114
2308.37699,0.18512
2310.30545,0.18342
2312.23392,0.18484
2314.16239,0.18322
2316.09086,0.18043
2318.01933,0.17750
2319.94780,0.17165
2321.87627,0.16569
2323.80473,0.16745
2325.73320,0.17965
2327.66167,0.19107
2329.59014,0.18742
2331.51861,0.17529
2333.44708,0.17125
2335.37555,0.17378
2337.30401,0.17314
2339.23248,0.16672
2341.16095,0.16111
2343.08942,0.16164
2345.01789,0.16535
2346.94636,0.17195
2348.87483,0.17830
2350.80330,0.17646
2352.73176,0.16384
2354.66023,0.15470
2356.58870,0.16055
2358.51717,0.17189
2360.44564,0.17912
2362.37411,0.17550
2364.30258,0.17049
2366.23104,0.17377
2368.15951,0.17941
2370.08798,0.18141
2372.01645,0.17575
2373.94492,0.16757
2375.87339,0.16879
2377.80186,0.17916
2379.73033,0.18730
2381.65879,0.19035
2383.58726,0.19293
2385.51573,0.19588
2387.44420,0.19818
2389.37267,0.19935
2391.30114,0.19970
2393.22961,0.20055
2395.15807,0.20150
2397.08654,0.20144
2399.01501,0.20154
2400.94348,0.20316
2402.87195,0.20490
2404.80042,0.20460
2406.72889,0.20316
2408.65736,0.20141
2410.58582,0.19761
2412.51429,0.19449
2414.44276,0.19609
2416.37123,0.19894
2418.29970,0.19886
2420.22817,0.19745
2422.15664,0.19730
2424.08510,0.19787
2426.01357,0.19785
2427.94204,0.19772
2429.87051,0.19761
2431.79898,0.19696
2433.72745,0.19670
2435.65592,0.19774
2437.58439,0.19938
2439.51285,0.20011
2441.44132,0.19932
2443.36979,0.19791
2445.29826,0.19878
2447.22673,0.20481
2449.15520,0.21064
2451.08367,0.21068
2453.01213,0.20872
2454.94060,0.20466
2456.86907,0.19881
2458.79754,0.19726
2460.72601,0.19907
2462.65448,0.20073
2464.58295,0.20222
2466.51142,0.20252
2468.43988,0.20137
2470.36835,0.20152
2472.29682,0.20289
2474.22529,0.20236
2476.15376,0.20125
2478.08223,0.20128
2480.01070,0.20078
2481.93916,0.20014
2483.86763,0.20119
2485.79610,0.20212
2487.72457,0.20079
2489.65304,0.19883
2491.58151,0.19849
2493.50998,0.19975
2495.43844,0.20111
2497.36691,0.20259
2499.29538,0.20325
2501.22385,0.20081
2503.15232,0.19863
2505.08079,0.20052
2507.00926,0.20237
2508.93773,0.20175
2510.86619,0.20168
2512.79466,0.20170
2514.72313,0.20150
2516.65160,0.20244
2518.58007,0.20320
2520.50854,0.20263
2522.43701,0.20171
2524.36547,0.20275
2526.29394,0.20489
2528.22241,0.20558
2530.15088,0.20553
2532.07935,0.20563
2534.00782,0.20480
2535.93629,0.20202
2537.86476,0.19844
2539.79322,0.19795
2541.72169,0.20228
2543.65016,0.20689
2545.57863,0.20836
2547.50710,0.20765
2549.43557,0.20568
2551.36404,0.20410
2553.29250,0.20373
2555.22097,0.20343
2557.14944,0.20325
2559.07791,0.20408
2561.00638,0.20492
2562.93485,0.20428
2564.86332,0.20279
2566.79179,0.20166
2568.72025,0.20059
2570.64872,0.19941
2572.57719,0.19978
2574.50566,0.20207
2576.43413,0.20409
2578.36260,0.20534
2580.29107,0.20708
2582.21953,0.20729
2584.14800,0.20379
2586.07647,0.20097
2588.00494,0.20205
2589.93341,0.20317
2591.86188,0.20235
2593.79035,0.20194
2595.71882,0.20237
2597.64728,0.20410
2599.57575,0.20751
2601.50422,0.20885
2603.43269,0.20791
2605.36116,0.20706
2607.28963,0.20367
2609.21810,0.19912
2611.14656,0.19916
2613.07503,0.20279
2615.00350,0.20494
2616.93197,0.20532
2618.86044,0.20702
2620.78891,0.20838
2622.71738,0.20662
2624.64585,0.20568
2626.57431,0.20711
2628.50278,0.20708
2630.43125,0.20594
2632.35972,0.20457
2634.28819,0.20273
2636.21666,0.20290
2638.14513,0.20511
2640.07359,0.20674
2642.00206,0.20743
2643.93053,0.20892
2645.85900,0.21091
2647.78747,0.21087
2649.71594,0.20878
2651.64441,0.20676
2653.57288,0.20605
2655.50134,0.20743
2657.42981,0.20956
2659.35828,0.20879
2661.28675,0.20555
2663.21522,0.20307
2665.14369,0.20324
2667.07216,0.20599
2669.00062,0.20783
2670.92909,0.20775
2672.85756,0.20822
2674.78603,0.20877
2676.71450,0.20930
2678.64297,0.21130
2680.57144,0.21254
2682.49990,0.21058
2684.42837,0.20790
2686.35684,0.20695
2688.28531,0.20758
2690.21378,0.20980
2692.14225,0.21219
2694.07072,0.21244
2695.99919,0.21116
2697.92765,0.21019
2699.85612,0.20977
2701.78459,0.20869
2703.71306,0.20795
2705.64153,0.20980
2707.57000,0.21189
2709.49847,0.21276
2711.42693,0.21459
2713.35540,0.21568
2715.28387,0.21424
2717.21234,0.21305
2719.14081,0.21412
2721.06928,0.21566
2722.99775,0.21487
2724.92622,0.21181
2726.85468,0.21074
2728.78315,0.21337
2730.71162,0.21475
2732.64009,0.21332
2734.56856,0.21359
2736.49703,0.21702
2738.42550,0.21972
2740.35396,0.21828
2742.28243,0.21493
2744.21090,0.21307
2746.13937,0.21289
2748.06784,0.21311
2749.99631,0.21240
2751.92478,0.21187
2753.85325,0.21252
2755.78171,0.21203
2757.71018,0.21148
2759.63865,0.21402
2761.56712,0.21707
2763.49559,0.21778
2765.42406,0.21765
2767.35253,0.21931
2769.28099,0.22286
2771.20946,0.22450
2773.13793,0.22227
2775.06640,0.21851
2776.99487,0.21629
2778.92334,0.21628
2780.85181,0.21698
2782.78028,0.21820
2784.70874,0.21946
2786.63721,0.21918
2788.56568,0.21904
2790.49415,0.22128
2792.42262,0.22316
2794.35109,0.22073
2796.27956,0.21556
2798.20802,0.21348
2800.13649,0.21566
2802.06496,0.21676
2803.99343,0.21578
2805.92190,0.21685
2807.85037,0.22108
2809.77884,0.22461
2811.70731,0.22373
2813.63577,0.22046
2815.56424,0.21835
2817.49271,0.21849
2819.42118,0.21973
2821.34965,0.21930
2823.27812,0.21784
2825.20659,0.22042
2827.13505,0.22624
2829.06352,0.22681
2830.99199,0.21987
2832.92046,0.21328
2834.84893,0.21401
2836.77740,0.21882
2838.70587,0.21931
2840.63433,0.21494
2842.56280,0.21350
2844.49127,0.21811
2846.41974,0.22218
2848.34821,0.22176
2850.27668,0.21949
2852.20515,0.21849
2854.13362,0.22131
2856.06208,0.22430
2857.99055,0.22203
2859.91902,0.21978
2861.84749,0.22293
2863.77596,0.22542
2865.70443,0.22274
2867.63290,0.21834
2869.56136,0.21596
2871.48983,0.21594
2873.41830,0.21550
2875.34677,0.21467
2877.27524,0.21774
2879.20371,0.22323
2881.13218,0.22401
2883.06065,0.22001
2884.98911,0.21761
2886.91758,0.21908
2888.84605,0.22130
2890.77452,0.22133
2892.70299,0.21997
2894.63146,0.21877
2896.55993,0.21745
2898.48839,0.21616
2900.41686,0.21466
2902.34533,0.21145
2904.27380,0.20848
2906.20227,0.20836
2908.13074,0.20980
2910.05921,0.21335
2911.98768,0.21967
2913.91614,0.22189
2915.84461,0.21593
2917.77308,0.21089
2919.70155,0.21249
2921.63002,0.21776
2923.55849,0.22282
2925.48696,0.22257
2927.41542,0.22028
2929.34389,0.22006
2931.27236,0.21966
2933.20083,0.22033
2935.12930,0.21988
2937.05777,0.21623
2938.98624,0.21476
2940.91471,0.21668
2942.84317,0.21822
2944.77164,0.21668
2946.70011,0.21242
2948.62858,0.21302
2950.55705,0.22110
2952.48552,0.22631
2954.41399,0.22253
2956.34245,0.21346
2958.27092,0.20745
2960.19939,0.20993
2962.12786,0.21648
2964.05633,0.21997
2965.98480,0.21717
2967.91327,0.21285
2969.84174,0.21353
2971.77020,0.21586
2973.69867,0.21631
2975.62714,0.21503
2977.55561,0.21233
2979.48408,0.21298
2981.41255,0.21760
2983.34102,0.22193
2985.26948,0.22467
2987.19795,0.22528
2989.12642,0.22638
2991.05489,0.23001
2992.98336,0.23174
2994.91183,0.22982
2996.84030,0.22658
2998.76877,0.22218
3000.69723,0.22036
3002.62570,0.22494
3004.55417,0.22888
3006.48264,0.22587
3008.41111,0.22082
3010.33958,0.21605
3012.26805,0.20404
3014.19651,0.17882
3016.12498,0.15507
3018.05345,0.16262
3019.98192,0.19726
3021.91039,0.22312
3023.83886,0.22940
3025.76733,0.22647
3027.69579,0.22282
3029.62426,0.22363
3031.55273,0.22697
3033.48120,0.23024
3035.40967,0.23244
3037.33814,0.22938
3039.26661,0.22279
3041.19508,0.22096
3043.12354,0.22450
3045.05201,0.22653
3046.98048,0.22456
3048.90895,0.22300
3050.83742,0.22482
3052.76589,0.22672
3054.69436,0.22179
3056.62282,0.21077
3058.55129,0.20808
3060.47976,0.21759
3062.40823,0.22657
3064.33670,0.22608
3066.26517,0.21925
3068.19364,0.21914
3070.12211,0.22651
3072.05057,0.22756
3073.97904,0.21997
3075.90751,0.21449
3077.83598,0.21889
3079.76445,0.22707
3081.69292,0.22780
3083.62139,0.21814
3085.54985,0.20747
3087.47832,0.20773
3089.40679,0.21552
3091.33526,0.21953
3093.26373,0.21442
3095.19220,0.20727
3097.12067,0.21006
3099.04914,0.21846
3100.97760,0.21891
3102.90607,0.21019
3104.83454,0.20761
3106.76301,0.21710
3108.69148,0.22504
3110.61995,0.22374
3112.54842,0.21928
3114.47688,0.22044
3116.40535,0.22537
3118.33382,0.22645
3120.26229,0.22376
3122.19076,0.22129
3124.11923,0.22186
3126.04770,0.22455
3127.97617,0.22576
3129.90463,0.22303
3131.83310,0.22092
3133.76157,0.22383
3135.69004,0.22624
3137.61851,0.22519
3139.54698,0.22381
3141.47545,0.22462
3143.40391,0.22864
3145.33238,0.23383
3147.26085,0.23677
3149.18932,0.23757
3151.11779,0.23745
3153.04626,0.23427
3154.97473,0.22869
3156.90320,0.22576
3158.83166,0.22804
3160.76013,0.23175
3162.68860,0.23206
3164.61707,0.23056
3166.54554,0.23121
3168.47401,0.23276
3170.40248,0.23120
3172.33094,0.22809
3174.25941,0.22708
3176.18788,0.22738
3178.11635,0.22813
3180.04482,0.23033
3181.97329,0.23304
3183.90176,0.23335
3185.83022,0.23124
3187.75869,0.22841
3189.68716,0.22583
3191.61563,0.22543
3193.54410,0.22811
3195.47257,0.23193
3197.40104,0.23243
3199.32951,0.22890
3201.25797,0.22718
3203.18644,0.22886
3205.11491,0.22933
3207.04338,0.22820
3208.97185,0.22908
3210.90032,0.23187
3212.82879,0.23334
3214.75725,0.23174
3216.68572,0.22944
3218.61419,0.22993
3220.54266,0.23167
3222.47113,0.23178
3224.39960,0.23001
3226.32807,0.22800
3228.25654,0.22639
3230.18500,0.22436
3232.11347,0.22605
3234.04194,0.23158
3235.97041,0.23213
3237.89888,0.22902
3239.82735,0.23028
3241.75582,0.23361
3243.68428,0.23470
3245.61275,0.23532
3247.54122,0.23555
3249.46969,0.23475
3251.39816,0.23413
3253.32663,0.23225
3255.25510,0.22903
3257.18357,0.22728
3259.11203,0.22532
3261.04050,0.22139
3262.96897,0.22070
3264.89744,0.22476
3266.82591,0.22757
3268.75438,0.22782
3270.68285,0.22788
3272.61131,0.22701
3274.53978,0.22521
3276.46825,0.22528
3278.39672,0.22825
3280.32519,0.23250
3282.25366,0.23531
3284.18213,0.23321
3286.11060,0.22769
3288.03906,0.22418
3289.96753,0.22237
3291.89600,0.22041
3293.82447,0.21978
3295.75294,0.21994
3297.68141,0.22036
3299.60988,0.22244
3301.53834,0.22538
3303.46681,0.22736
3305.39528,0.22829
3307.32375,0.22726
3309.25222,0.22504
3311.18069,0.22437
3313.10916,0.22328
3315.03763,0.22081
3316.96609,0.22177
3318.89456,0.22651
3320.82303,0.22932
3322.75150,0.23082
3324.67997,0.23321
3326.60844,0.23290
3328.53691,0.23277
3330.46537,0.23507
3332.39384,0.23423
3334.32231,0.23156
3336.25078,0.23064
3338.17925,0.22863
3340.10772,0.22665
3342.03619,0.22824
3343.96466,0.22979
3345.89312,0.22858
3347.82159,0.22751
3349.75006,0.22810
3351.67853,0.22884
3353.60700,0.22814
3355.53547,0.22638
3357.46394,0.22522
3359.39240,0.22470
3361.32087,0.22490
3363.24934,0.22810
3365.17781,0.23226
3367.10628,0.23376
3369.03475,0.23385
3370.96322,0.23343
3372.89168,0.23361
3374.82015,0.23431
3376.74862,0.23112
3378.67709,0.22493
3380.60556,0.22226
3382.53403,0.22357
3384.46250,0.22451
3386.39097,0.22429
3388.31943,0.22444
3390.24790,0.22637
3392.17637,0.23074
3394.10484,0.23316
3396.03331,0.23111
3397.96178,0.22983
3399.89025,0.23145
3401.81871,0.23176
3403.74718,0.22778
3405.67565,0.22388
3407.60412,0.22407
3409.53259,0.22451
3411.46106,0.22334
3413.38953,0.22303
3415.31800,0.22535
3417.24646,0.23030
3419.17493,0.23385
3421.10340,0.22900
3423.03187,0.21860
3424.96034,0.21489
3426.88881,0.21853
3428.81728,0.22337
3430.74574,0.22728
3432.67421,0.22701
3434.60268,0.22025
3436.53115,0.21263
3438.45962,0.21265
3440.38809,0.21804
3442.31656,0.22173
3444.24503,0.22290
3446.17349,0.22244
3448.10196,0.22086
3450.03043,0.21851
3451.95890,0.21671
3453.88737,0.21704
3455.81584,0.21593
3457.74431,0.21090
3459.67277,0.20892
3461.60124,0.21341
3463.52971,0.21644
3465.45818,0.21604
3467.38665,0.21780
3469.31512,0.21958
3471.24359,0.21529
3473.17206,0.20886
3475.10052,0.21018
3477.02899,0.21588
3478.95746,0.21311
3480.88593,0.20424
3482.81440,0.20313
3484.74287,0.20919
3486.67134,0.21117
3488.59980,0.20739
3490.52827,0.20357
3492.45674,0.20313
3494.38521,0.20494
3496.31368,0.20373
3498.24215,0.19892
3500.17062,0.19741
3502.09909,0.19888
3504.02755,0.19543
3505.95602,0.18940
3507.88449,0.18767
3509.81296,0.18820
3511.74143,0.18743
3513.66990,0.18713
3515.59837,0.19024
3517.52683,0.19525
3519.45530,0.19562
3521.38377,0.18958
3523.31224,0.18630
3525.24071,0.19107
3527.16918,0.19660
3529.09765,0.19534
3531.02611,0.18776
3532.95458,0.18252
3534.88305,0.18452
3536.81152,0.18752
3538.73999,0.18462
3540.66846,0.17993
3542.59693,0.18018
3544.52540,0.18290
3546.45386,0.18404
3548.38233,0.18555
3550.31080,0.18753
3552.23927,0.18650
3554.16774,0.18068
3556.09621,0.17499
3558.02468,0.17271
3559.95314,0.17122
3561.88161,0.17174
3563.81008,0.17887
3565.73855,0.18880
3567.66702,0.19057
3569.59549,0.18281
3571.52396,0.17411
3573.45243,0.16949
3575.38089,0.17022
3577.30936,0.17224
3579.23783,0.17138
3581.16630,0.16975
3583.09477,0.17036
3585.02324,0.17239
3586.95171,0.17423
3588.88017,0.17155
3590.80864,0.16515
3592.73711,0.16057
3594.66558,0.15928
3596.59405,0.15998
3598.52252,0.16187
3600.45099,0.16371
3602.37946,0.16428
3604.30792,0.16408
3606.23639,0.16388
3608.16486,0.16450
3610.09333,0.16459
3612.02180,0.16433
3613.95027,0.16417
3615.87874,0.16267
3617.80720,0.16271
3619.73567,0.16536
3621.66414,0.16672
3623.59261,0.16658
3625.52108,0.16678
3627.44955,0.16746
3629.37802,0.16628
3631.30649,0.16478
3633.23495,0.16184
3635.16342,0.15554
3637.09189,0.15300
3639.02036,0.15491
3640.94883,0.15382
3642.87730,0.15015
3644.80577,0.14821
3646.73423,0.15047
3648.66270,0.15749
3650.59117,0.15731
3652.51964,0.15000
3654.44811,0.14667
3656.37658,0.14771
3658.30505,0.14794
3660.23352,0.14735
3662.16198,0.14656
3664.09045,0.14432
3666.01892,0.14468
3667.94739,0.15036
3669.87586,0.15731
3671.80433,0.15857
3673.73280,0.15674
3675.66126,0.15441
3677.58973,0.15026
3679.51820,0.14662
3681.44667,0.14547
3683.37514,0.14584
3685.30361,0.14575
3687.23208,0.14513
3689.16055,0.14574
3691.08901,0.14463
3693.01748,0.14217
3694.94595,0.14250
3696.87442,0.14163
3698.80289,0.13765
3700.73136,0.13587
3702.65983,0.13660
3704.58829,0.13604
3706.51676,0.13746
3708.44523,0.14407
3710.37370,0.15146
3712.30217,0.14813
3714.23064,0.13855
3716.15911,0.13507
3718.08757,0.13697
3720.01604,0.13927
3721.94451,0.14029
3723.87298,0.14061
3725.80145,0.14074
3727.72992,0.14168
3729.65839,0.14467
3731.58686,0.14963
3733.51532,0.15296
3735.44379,0.15099
3737.37226,0.14724
3739.30073,0.14611
3741.22920,0.14788
3743.15767,0.15329
3745.08614,0.16017
3747.01460,0.16216
3748.94307,0.16140
3750.87154,0.15567
3752.80001,0.14631
3754.72848,0.14169
3756.65695,0.14214
3758.58542,0.14557
3760.51389,0.14568
3762.44235,0.14383
3764.37082,0.14434
3766.29929,0.14293
3768.22776,0.13766
3770.15623,0.13332
3772.08470,0.13320
3774.01317,0.13591
3775.94163,0.13956
3777.87010,0.14316
3779.79857,0.14448
3781.72704,0.14272
3783.65551,0.14118
3785.58398,0.14048
3787.51245,0.13786
3789.44092,0.13369
3791.36938,0.12982
3793.29785,0.12745
3795.22632,0.12999
3797.15479,0.13663
3799.08326,0.14090
3801.01173,0.14202
3802.94020,0.13867
3804.86866,0.13437
3806.79713,0.13369
3808.72560,0.13324
3810.65407,0.12954
3812.58254,0.12668
3814.51101,0.13095
3816.43948,0.14154
3818.36795,0.14946
3820.29641,0.15461
3822.22488,0.15083
3824.15335,0.14221
3826.08182,0.13815
3828.01029,0.13569
3829.93876,0.13365
3831.86723,0.13312
3833.79569,0.13173
3835.72416,0.13092
3837.65263,0.13467
3839.58110,0.13526
3841.50957,0.13142
3843.43804,0.13145
3845.36651,0.13214
3847.29498,0.13228
3849.22344,0.13552
3851.15191,0.14124
3853.08038,0.14533
3855.00885,0.13992
3856.93732,0.13278
3858.86579,0.13170
3860.79426,0.13319
3862.72272,0.13211
3864.65119,0.13002
3866.57966,0.12884
3868.50813,0.13023
3870.43660,0.13561
3872.36507,0.13891
3874.29354,0.13896
3876.22200,0.13673
3878.15047,0.13275
3880.07894,0.12902
3882.00741,0.12755
3883.93588,0.12920
3885.86435,0.12921
3887.79282,0.12564
3889.72129,0.12558
3891.64975,0.12760
3893.57822,0.12731
3895.50669,0.12978
3897.43516,0.13510
3899.36363,0.13825
3901.29210,0.13685
3903.22057,0.13238
3905.14903,0.12481
3907.07750,0.11597
3909.00597,0.11109
3910.93444,0.11114
3912.86291,0.11386
3914.79138,0.11883
3916.71985,0.12214
3918.64832,0.11755
3920.57678,0.11239
3922.50525,0.11486
3924.43372,0.12009
3926.36219,0.12298
3928.29066,0.12537
3930.21913,0.12733
3932.14760,0.12644
3934.07606,0.12359
3936.00453,0.12180
3937.93300,0.12141
3939.86147,0.12159
3941.78994,0.12251
3943.71841,0.12304
3945.64688,0.12089
3947.57535,0.11619
3949.50381,0.11226
3951.43228,0.11221
3953.36075,0.11469
3955.28922,0.11637
3957.21769,0.11453
3959.14616,0.11140
3961.07463,0.11267
3963.00309,0.11708
3964.93156,0.11743
3966.86003,0.11339
3968.78850,0.11129
3970.71697,0.11351
3972.64544,0.11606
3974.57391,0.11510
3976.50238,0.11182
3978.43084,0.10908
3980.35931,0.10814
3982.28778,0.10972
3984.21625,0.11195
3986.14472,0.11337
3988.07319,0.11625
3990.00166,0.11832
3991.93012,0.11503
3993.85859,0.11065
3995.78706,0.11041
3997.71553,0.11171
3999.64400,0.11066
4001.57247,0.10565
4003.50094,0.09883
4005.42941,0.09626
4007.35787,0.09960
4009.28634,0.10452
4011.21481,0.10774
4013.14328,0.10853
4015.07175,0.10804
4017.00022,0.10810
4018.92869,0.10833
4020.85715,0.10713
4022.78562,0.10563
4024.71409,0.10529
4026.64256,0.10384
4028.57103,0.10202
4030.49950,0.10417
4032.42797,0.10889
4034.35644,0.11003
4036.28490,0.10707
4038.21337,0.10552
4040.14184,0.10568
4042.07031,0.10417
4043.99878,0.10118
4045.92725,0.09949
4047.85572,0.10159
4049.78418,0.10425
4051.71265,0.10435
4053.64112,0.10491
4055.56959,0.10602
4057.49806,0.10364
4059.42653,0.09962
4061.35500,0.09892
4063.28346,0.10019
4065.21193,0.10029
4067.14040,0.09939
4069.06887,0.09735
4070.99734,0.09436
4072.92581,0.09126
4074.85428,0.09073
4076.78275,0.09608
4078.71121,0.10055
4080.63968,0.09629
4082.56815,0.08965
4084.49662,0.08802
4086.42509,0.08915
4088.35356,0.09154
4090.28203,0.09658
4092.21049,0.09790
4094.13896,0.09377
4096.06743,0.09398
4097.99590,0.09676
4099.92437,0.09373
4101.85284,0.08832
4103.78131,0.08614
4105.70978,0.08951
4107.63824,0.09597
4109.56671,0.09866
4111.49518,0.09901
4113.42365,0.09972
4115.35212,0.09583
4117.28059,0.08924
4119.20906,0.08706
4121.13752,0.08986
4123.06599,0.09255
4124.99446,0.09049
4126.92293,0.08688
4128.85140,0.08671
4130.77987,0.08654
4132.70834,0.08293
4134.63681,0.08022
4136.56527,0.08151
4138.49374,0.08462
4140.42221,0.08885
4142.35068,0.09301
4144.27915,0.09133
4146.20762,0.08370
4148.13609,0.07995
4150.06455,0.08304
4151.99302,0.08415
4153.92149,0.07987
4155.84996,0.07733
4157.77843,0.07936
4159.70690,0.08077
4161.63537,0.08056
4163.56384,0.08198
4165.49230,0.08398
4167.42077,0.08443
4169.34924,0.08319
4171.27771,0.08114
4173.20618,0.08142
4175.13465,0.08404
4177.06312,0.08349
4178.99158,0.07876
4180.92005,0.07471
4182.84852,0.07250
4184.77699,0.07143
4186.70546,0.07270
4188.63393,0.07449
4190.56240,0.07590
4192.49087,0.07798
4194.41933,0.07824
4196.34780,0.07862
4198.27627,0.08173
4200.20474,0.08153
4202.13321,0.07667
4204.06168,0.07507
4205.99015,0.07765
4207.91861,0.07823
4209.84708,0.07706
4211.77555,0.07702
4213.70402,0.07676
4215.63249,0.07439
4217.56096,0.07055
4219.48943,0.06969
4221.41789,0.07290
4223.34636,0.07389
4225.27483,0.06925
4227.20330,0.06555
4229.13177,0.06702
4231.06024,0.06873
4232.98871,0.06861
4234.91718,0.07072
4236.84564,0.07699
4238.77411,0.08190
4240.70258,0.08111
4242.63105,0.07824
4244.55952,0.07578
4246.48799,0.07374
4248.41646,0.07129
4250.34492,0.06750
4252.27339,0.06355
4254.20186,0.05951
4256.13033,0.05840
4258.05880,0.06250
4259.98727,0.06333
4261.91574,0.05818
4263.84421,0.05632
4265.77267,0.05626
4267.70114,0.05346
4269.62961,0.05452
4271.55808,0.05665
4273.48655,0.05247
4275.41502,0.04963
4277.34349,0.05249
4279.27195,0.05477
4281.20042,0.05434
4283.12889,0.05312
4285.05736,0.05320
4286.98583,0.05568
4288.91430,0.05952
4290.84277,0.06002
4292.77124,0.05574
4294.69970,0.05410
4296.62817,0.05599
4298.55664,0.05505
4300.48511,0.04997
4302.41358,0.04346
4304.34205,0.03758
4306.27052,0.03298
4308.19898,0.03377
4310.12745,0.04010
4312.05592,0.04468
4313.98439,0.04729
4315.91286,0.04999
4317.84133,0.04935
4319.76980,0.04560
4321.69827,0.04274
4323.62673,0.04300
4325.55520,0.04598
4327.48367,0.04641
4329.41214,0.04198
4331.34061,0.03890
4333.26908,0.03967
4335.19755,0.04141
4337.12601,0.04443
4339.05448,0.04784
4340.98295,0.04749
4342.91142,0.04457
4344.83989,0.04263
4346.76836,0.04181
4348.69683,0.04288
4350.62530,0.04322
4352.55376,0.04126
4354.48223,0.04342
4356.41070,0.04822
4358.33917,0.04731
4360.26764,0.04204
4362.19611,0.03835
4364.12458,0.03795
4366.05304,0.03646
4367.98151,0.03254
4369.90998,0.03225
4371.83845,0.03350
4373.76692,0.03014
4375.69539,0.02738
4377.62386,0.03138
4379.55232,0.03747
4381.48079,0.03938
4383.40926,0.03695
4385.33773,0.03249
4387.26620,0.02990
4389.19467,0.03006
4391.12314,0.02937
4393.05161,0.03022
4394.98007,0.03511
4396.90854,0.03623
4398.83701,0.03049
4400.76548,0.02652
4402.69395,0.02671
4404.62242,0.02685
4406.55089,0.02571
4408.47935,0.02091
4410.40782,0.01464
4412.33629,0.01472
4414.26476,0.01938
4416.19323,0.02018
4418.12170,0.01505
4420.05017,0.00792
4421.97864,0.00625
4423.90710,0.01145
4425.83557,0.01731
4427.76404,0.02008
4429.69251,0.01683
4431.62098,0.01087
4433.54945,0.00839
4435.47792,0.00754
4437.40638,0.00884
4439.33485,0.01448
4441.26332,0.01872
4443.19179,0.01811
4445.12026,0.01809
4447.04873,0.01794
4448.97720,0.01290
4450.90567,0.00729
4452.83413,0.00590
4454.76260,0.00972
4456.69107,0.01647
4458.61954,0.02076
4460.54801,0.02016
4462.47648,0.01638
4464.40495,0.01615
4466.33341,0.01918
4468.26188,0.01519
4470.19035,0.00859
4472.11882,0.00984
4474.04729,0.01253
4475.97576,0.01233
4477.90423,0.01434
4479.83270,0.01546
4481.76116,0.01313
4483.68963,0.01212
4485.61810,0.01108
4487.54657,0.00940
4489.47504,0.01040
4491.40351,0.01077
4493.33198,0.00745
4495.26044,0.00358
4497.18891,0.00233
4499.11738,0.00211
4501.04585,0.00071
4502.97432,-0.00066
4504.90279,0.00276
4506.83126,0.01360
4508.75973,0.02261
4510.68819,0.02113
4512.61666,0.01416
4514.54513,0.00884
4516.47360,0.00517
4518.40207,0.00392
4520.33054,0.00793
4522.25901,0.01155
4524.18747,0.00827
4526.11594,0.00229
4528.04441,-0.00051
4529.97288,-0.00214
4531.90135,-0.00425
4533.82982,-0.00090
4535.75829,0.00890
4537.68676,0.01402
4539.61522,0.00842
4541.54369,0.00312
4543.47216,0.00785
4545.40063,0.01679
4547.32910,0.02190
4549.25757,0.02343
4551.18604,0.02107
4553.11450,0.01260
4555.04297,0.00129
4556.97144,-0.00834
4558.89991,-0.01007
4560.82838,-0.00111
4562.75685,0.00966
4564.68532,0.01286
4566.61378,0.00996
4568.54225,0.00901
4570.47072,0.01291
4572.39919,0.01545
4574.32766,0.01207
4576.25613,0.00784
4578.18460,0.00636
4580.11307,0.00433
4582.04153,0.00149
4583.97000,0.00276
4585.89847,0.00719
4587.82694,0.00790
4589.75541,0.00604
4591.68388,0.00576
4593.61235,0.00797
4595.54081,0.01219
4597.46928,0.01369
4599.39775,0.01316
4601.32622,0.01637
4603.25469,0.01838
4605.18316,0.01190
4607.11163,0.00233
4609.04010,-0.00225
4610.96856,-0.00050
4612.89703,0.00419
4614.82550,0.00410
4616.75397,-0.00218
4618.68244,-0.00428
4620.61091,-0.00112
4622.53938,-0.00492
4624.46784,-0.01296
4626.39631,-0.01410
4628.32478,-0.01387
4630.25325,-0.01354
4632.18172,-0.00527
4634.11019,0.00153
4636.03866,0.00318
4637.96713,0.01154
4639.89559,0.02202
4641.82406,0.01954
4643.75253,0.00601
4645.68100,-0.00203
4647.60947,0.00101
4649.53794,0.00596
4651.46641,0.00594
4653.39487,0.00208
4655.32334,0.00100
4657.25181,0.00648
4659.18028,0.01159
4661.10875,0.00727
4663.03722,-0.00541
4664.96569,-0.01789
4666.89416,-0.02037
4668.82262,-0.01117
4670.75109,-0.00265
4672.67956,-0.00437
4674.60803,-0.00603
4676.53650,0.00472
4678.46497,0.02066
4680.39344,0.02574
4682.32190,0.01685
4684.25037,0.00823
4686.17884,0.00807
4688.10731,0.00850
4690.03578,0.00531
4691.96425,0.00379
4693.89272,0.00792
4695.82119,0.01188
4697.74965,0.00828
4699.67812,0.00206
4701.60659,0.00330
4703.53506,0.00747
4705.46353,0.00654
4707.39200,0.00262
4709.32047,-0.00098
4711.24893,-0.00041
4713.17740,0.00352
4715.10587,0.00570
4717.03434,0.00812
4718.96281,0.01094
4720.89128,0.00714
4722.81975,-0.00046
4724.74821,-0.00191
4726.67668,0.00111
4728.60515,0.00073
4730.53362,-0.00526
4732.46209,-0.00800
4734.39056,-0.00035
4736.31903,0.00652
4738.24750,0.00646
4740.17596,0.00780
4742.10443,0.01072
4744.03290,0.01007
4745.96137,0.00621
4747.88984,-0.00065
4749.81831,-0.00613
4751.74678,-0.00111
4753.67524,0.00827
4755.60371,0.01064
4757.53218,0.00827
4759.46065,0.00554
4761.38912,0.00212
4763.31759,-0.00011
4765.24606,0.00334
4767.17453,0.00865
4769.10299,0.00710
4771.03146,0.00097
4772.95993,-0.00213
4774.88840,-0.00092
4776.81687,-0.00033
4778.74534,-0.00025
4780.67381,0.00354
4782.60227,0.00579
4784.53074,0.00103
4786.45921,-0.00418
4788.38768,-0.00302
4790.31615,0.00272
4792.24462,0.00632
4794.17309,0.00208
4796.10156,-0.00188
4798.03002,0.00457
4799.95849,0.01359
4801.88696,0.01740
4803.81543,0.01897
4805.74390,0.01993
4807.67237,0.01582
4809.60084,0.00536
4811.52930,-0.00525
4813.45777,-0.00802
4815.38624,0.00033
4817.31471,0.01207
4819.24318,0.01382
4821.17165,0.00438
4823.10012,-0.00089
4825.02859,0.00446
4826.95705,0.01013
4828.88552,0.01172
4830.81399,0.00813
4832.74246,0.00366
4834.67093,0.00620
4836.59940,0.00988
4838.52787,0.01296
4840.45633,0.01599
4842.38480,0.01379
4844.31327,0.01285
4846.24174,0.02090
4848.17021,0.02913
4850.09868,0.02118
4852.02715,0.00059
4853.95562,-0.00875
4855.88408,-0.00371
4857.81255,0.00290
4859.74102,0.00484
4861.66949,0.00170
4863.59796,-0.00138
4865.52643,-0.00296
4867.45490,-0.00732
4869.38336,-0.00935
4871.31183,0.00122
4873.24030,0.01327
4875.16877,0.00739
4877.09724,-0.00678
4879.02571,-0.01266
4880.95418,-0.00887
4882.88265,0.00101
4884.81111,0.00970
4886.73958,0.00970
4888.66805,0.00305
4890.59652,0.00174
4892.52499,0.00648
4894.45346,0.00695
4896.38193,0.00575
4898.31039,0.00655
4900.23886,0.00344
4902.16733,-0.00233
4904.09580,-0.00075
4906.02427,0.00926
4907.95274,0.01710
4909.88121,0.02036
4911.80967,0.02450
4913.73814,0.02511
4915.66661,0.01912
4917.59508,0.01480
4919.52355,0.01304
4921.45202,0.01056
4923.38049,0.00981
4925.30896,0.01025
4927.23742,0.00716
4929.16589,0.00647
4931.09436,0.01976
4933.02283,0.03501
4934.95130,0.03170
4936.87977,0.01150
4938.80824,-0.01040
4940.73670,-0.01695
4942.66517,-0.00650
4944.59364,0.00224
4946.52211,-0.00167
4948.45058,-0.00760
4950.37905,-0.00074
4952.30752,0.01815
4954.23599,0.02951
4956.16445,0.02205
4958.09292,0.00760
4960.02139,0.00245
4961.94986,0.00699
4963.87833,0.00699
4965.80680,-0.00276
4967.73527,-0.01310
4969.66373,-0.01271
4971.59220,-0.00037
4973.52067,0.01167
4975.44914,0.01517
4977.37761,0.01443
4979.30608,0.01504
4981.23455,0.01738
4983.16302,0.02005
4985.09148,0.01681
4987.01995,0.00670
4988.94842,0.00389
4990.87689,0.01065
4992.80536,0.01625
4994.73383,0.02174
4996.66230,0.02308
4998.59076,0.01353
5000.51923,0.00227
5002.44770,-0.00547
5004.37617,-0.00752
5006.30464,-0.00079
5008.23311,0.00867
5010.16158,0.01463
5012.09005,0.01714
5014.01851,0.01663
5015.94698,0.01242
5017.87545,0.01001
5019.80392,0.01308
5021.73239,0.01464
5023.66086,0.01154
5025.58933,0.00829
5027.51779,0.00856
5029.44626,0.01297
5031.37473,0.01315
5033.30320,0.00148
5035.23167,-0.00813
5037.16014,-0.00133
5039.08861,0.01140
5041.01708,0.01635
5042.94554,0.01091
5044.87401,-0.00251
5046.80248,-0.00568
5048.73095,0.00909
5050.65942,0.01787
5052.58789,0.01474
5054.51636,0.01278
5056.44482,0.00822
5058.37329,-0.00113
5060.30176,-0.00604
5062.23023,-0.00429
5064.15870,0.00477
5066.08717,0.01900
5068.01564,0.01981
5069.94410,0.00773
5071.87257,0.00863
5073.80104,0.02310
5075.72951,0.02910
5077.65798,0.01917
5079.58645,0.00566
5081.51492,0.00503
5083.44339,0.01237
5085.37185,0.01383
5087.30032,0.01628
5089.22879,0.02001
5091.15726,0.00888
5093.08573,-0.00861
5095.01420,-0.00880
5096.94267,0.00838
5098.87113,0.02072
5100.79960,0.01657
5102.72807,0.00948
5104.65654,0.00645
5106.58501,-0.00106
5108.51348,-0.00417
5110.44195,0.00716
5112.37042,0.01440
5114.29888,0.00710
5116.22735,0.00468
5118.15582,0.01025
5120.08429,0.00272
5122.01276,-0.01150
5123.94123,-0.00664
5125.86970,0.01176
5127.79816,0.01831
5129.72663,0.00777
5131.65510,-0.00458
5133.58357,-0.00353
5135.51204,0.00606
5137.44051,0.00560
5139.36898,0.00148
5141.29745,0.01254
5143.22591,0.02581
5145.15438,0.01875
5147.08285,0.00447
5149.01132,0.00439
5150.93979,0.01154
5152.86826,0.01599
5154.79673,0.02085
5156.72519,0.02773
5158.65366,0.02690
5160.58213,0.01820
5162.51060,0.01709
5164.43907,0.02453
5166.36754,0.03219
5168.29601,0.03880
5170.22448,0.04407
5172.15294,0.04554
5174.08141,0.03848
5176.00988,0.03204
5177.93835,0.03856
5179.86682,0.04236
5181.79529,0.02905
5183.72376,0.00936
5185.65222,-0.00582
5187.58069,-0.00485
5189.50916,0.01018
5191.43763,0.01374
5193.36610,0.00125
5195.29457,-0.00609
5197.22304,0.00216
5199.15151,0.01944
5201.07997,0.03213
5203.00844,0.03578
5204.93691,0.03409
5206.86538,0.03045
5208.79385,0.02845
5210.72232,0.02871
5212.65079,0.03055
5214.57925,0.03098
5216.50772,0.03320
5218.43619,0.03557
5220.36466,0.02554
5222.29313,0.02020
5224.22160,0.03157
5226.15007,0.03509
5228.07854,0.02373
5230.00700,0.01512
5231.93547,0.01628
5233.86394,0.02823
5235.79241,0.04412
5237.72088,0.04378
5239.64935,0.02993
5241.57782,0.02666
5243.50628,0.03169
5245.43475,0.03692
5247.36322,0.05342
5249.29169,0.06808
5251.22016,0.05370
5253.14863,0.03011
5255.07710,0.02303
5257.00556,0.02625
5258.93403,0.03076
5260.86250,0.03401
5262.79097,0.03958
5264.71944,0.05457
5266.64791,0.06526
5268.57638,0.06186
5270.50485,0.05300
5272.43331,0.03972
5274.36178,0.03082
5276.29025,0.04057
5278.21872,0.05518
5280.14719,0.05441
5282.07566,0.04501
5284.00413,0.04514
5285.93259,0.05240
5287.86106,0.05577
5289.78953,0.05605
5291.71800,0.05713
5293.64647,0.06285
5295.57494,0.06203
5297.50341,0.04286
5299.43188,0.02355
5301.36034,0.02097
5303.28881,0.02377
5305.21728,0.02475
5307.14575,0.02805
5309.07422,0.03434
5311.00269,0.03448
5312.93116,0.02766
5314.85962,0.04052
5316.78809,0.06493
5318.71656,0.05563
5320.64503,0.02901
5322.57350,0.02851
5324.50197,0.04490
5326.43044,0.05057
5328.35891,0.05015
5330.28737,0.04956
5332.21584,0.04932
5334.14431,0.06180
5336.07278,0.07012
5338.00125,0.04954
5339.92972,0.02759
5341.85819,0.03327
5343.78665,0.05294
5345.71512,0.06177
5347.64359,0.05512
5349.57206,0.05055
5351.50053,0.04855
5353.42900,0.03411
5355.35747,0.01440
5357.28594,0.01474
5359.21440,0.03541
5361.14287,0.05467
5363.07134,0.06245
5364.99981,0.06236
5366.92828,0.05077
5368.85675,0.03715
5370.78522,0.04257
5372.71368,0.05614
5374.64215,0.05210
5376.57062,0.04812
5378.49909,0.06073
5380.42756,0.06407
5382.35603,0.05162
5384.28450,0.03246
5386.21297,0.01541
5388.14143,0.02110
5390.06990,0.04512
5391.99837,0.04862
5393.92684,0.02976
5395.85531,0.03233
5397.78378,0.05346
5399.71225,0.06551
5401.64071,0.06501
5403.56918,0.06770
5405.49765,0.07809
5407.42612,0.07391
5409.35459,0.06095
5411.28306,0.07762
5413.21153,0.11176
5415.13999,0.10557
5417.06846,0.07281
5418.99693,0.05474
5420.92540,0.04779
5422.85387,0.03651
5424.78234,0.02882
5426.71081,0.03649
5428.63928,0.05305
5430.56774,0.06483
5432.49621,0.07094
5434.42468,0.07535
5436.35315,0.07263
5438.28162,0.06358
5440.21009,0.06916
5442.13856,0.09235
5444.06702,0.11154
5445.99549,0.12140
5447.92396,0.11595
5449.85243,0.09930
5451.78090,0.09244
5453.70937,0.08446
5455.63784,0.06347
5457.56631,0.05521
5459.49477,0.06421
5461.42324,0.06619
5463.35171,0.07287
5465.28018,0.09470
5467.20865,0.10812
5469.13712,0.10056
5471.06559,0.08380
5472.99405,0.07709
5474.92252,0.08894
5476.85099,0.10472
5478.77946,0.11051
5480.70793,0.10274
5482.63640,0.07956
5484.56487,0.05754
5486.49334,0.05744
5488.42180,0.07382
5490.35027,0.07805
5492.27874,0.06021
5494.20721,0.04905
5496.13568,0.06145
5498.06415,0.08107
5499.99262,0.08651
5501.92108,0.07312
5503.84955,0.05901
5505.77802,0.05355
5507.70649,0.05629
5509.63496,0.06255
5511.56343,0.05289
5513.49190,0.03489
5515.42037,0.04314
5517.34883,0.06735
5519.27730,0.06929
5521.20577,0.05178
5523.13424,0.04554
5525.06271,0.06180
5526.99118,0.08305
5528.91965,0.08900
5530.84811,0.07887
5532.77658,0.06729
5534.70505,0.06403
5536.63352,0.07672
5538.56199,0.10428
5540.49046,0.11895
5542.41893,0.10621
5544.34740,0.09272
5546.27586,0.08494
5548.20433,0.07850
5550.13280,0.08991
5552.06127,0.09572
5553.98974,0.07636
5555.91821,0.07052
5557.84668,0.09322
5559.77514,0.11951
5561.70361,0.12825
5563.63208,0.10068
5565.56055,0.05436
5567.48902,0.03553
5569.41749,0.04907
5571.34596,0.05727
5573.27443,0.04523
5575.20289,0.04050
5577.13136,0.05780
5579.05983,0.08075
5580.98830,0.09985
5582.91677,0.11494
5584.84524,0.11983
5586.77371,0.11217
5588.70217,0.09458
5590.63064,0.07137
5592.55911,0.06393
5594.48758,0.07125
5596.41605,0.07153
5598.34452,0.08310
5600.27299,0.11127
5602.20145,0.12262
5604.12992,0.10945
5606.05839,0.09052
5607.98686,0.08824
5609.91533,0.10210
5611.84380,0.10253
5613.77227,0.07554
5615.70074,0.05300
5617.62920,0.05490
5619.55767,0.05303
5621.48614,0.04631
5623.41461,0.06361
5625.34308,0.08208
5627.27155,0.07393
5629.20002,0.06257
5631.12848,0.06235
5633.05695,0.07615
5634.98542,0.10039
5636.91389,0.10153
5638.84236,0.08746
5640.77083,0.09654
5642.69930,0.10453
5644.62777,0.08197
5646.55623,0.06111
5648.48470,0.07286
5650.41317,0.08489
5652.34164,0.06382
5654.27011,0.02990
5656.19858,0.01176
5658.12705,0.03575
5660.05551,0.10124
5661.98398,0.13915
5663.91245,0.11777
5665.84092,0.08731
5667.76939,0.07471
5669.69786,0.06879
5671.62633,0.06054
5673.55480,0.05879
5675.48326,0.08156
5677.41173,0.11049
5679.34020,0.11516
5681.26867,0.10663
5683.19714,0.09164
5685.12561,0.07709
5687.05408,0.08429
5688.98254,0.08543
5690.91101,0.05403
5692.83948,0.04435
5694.76795,0.08372
5696.69642,0.12495
5698.62489,0.12972
5700.55336,0.10949
5702.48183,0.10585
5704.41029,0.12742
5706.33876,0.13325
5708.26723,0.10521
5710.19570,0.07635
5712.12417,0.06340
5714.05264,0.05043
5715.98111,0.04286
5717.90957,0.03764
5719.83804,0.03124
5721.76651,0.05370
5723.69498,0.09007
5725.62345,0.09756
5727.55192,0.08045
5729.48039,0.06469
5731.40886,0.05979
5733.33732,0.05940
5735.26579,0.06225
5737.19426,0.07052
5739.12273,0.07568
5741.05120,0.07537
5742.97967,0.07613
5744.90814,0.07105
5746.83660,0.05336
5748.76507,0.04422
5750.69354,0.05369
5752.62201,0.06822
5754.55048,0.09209
5756.47895,0.11615
5758.40742,0.12321
5760.33588,0.11187
5762.26435,0.09061
5764.19282,0.08046
5766.12129,0.08563
5768.04976,0.09730
5769.97823,0.10025
5771.90670,0.07939
5773.83517,0.05469
5775.76363,0.05111
5777.69210,0.06499
5779.62057,0.08149
5781.54904,0.08286
5783.47751,0.06355
5785.40598,0.05548
5787.33445,0.06783
5789.26291,0.07172
5791.19138,0.07495
5793.11985,0.07218
5795.04832,0.04585
5796.97679,0.02593
5798.90526,0.02383
5800.83373,0.01712
5802.76220,0.01052
5804.69066,0.01368
5806.61913,0.02270
5808.54760,0.04027
5810.47607,0.04265
5812.40454,0.02655
5814.33301,0.03178
5816.26148,0.04984
5818.18994,0.06440
5820.11841,0.08430
5822.04688,0.09426
5823.97535,0.08695
5825.90382,0.08806
5827.83229,0.10296
5829.76076,0.10451
5831.68923,0.09386
5833.61769,0.09024
5835.54616,0.08892
5837.47463,0.08038
5839.40310,0.07300
5841.33157,0.07451
5843.26004,0.07598
5845.18851,0.07968
5847.11697,0.09805
5849.04544,0.12823
5850.97391,0.14484
5852.90238,0.12561
5854.83085,0.07294
5856.75932,0.02746
5858.68779,0.03990
5860.61626,0.09736
5862.54472,0.14476
5864.47319,0.16567
5866.40166,0.16559
5868.33013,0.12918
5870.25860,0.07962
5872.18707,0.06208
5874.11554,0.06909
5876.04400,0.06569
5877.97247,0.03703
5879.90094,0.01329
5881.82941,0.01985
5883.75788,0.05192
5885.68635,0.08531
5887.61482,0.09599
5889.54329,0.10053
5891.47175,0.09897
5893.40022,0.07744
5895.32869,0.06774
5897.25716,0.09063
5899.18563,0.10864
5901.11410,0.09805
5903.04257,0.08402
5904.97103,0.08001
5906.89950,0.08457
5908.82797,0.08777
5910.75644,0.07645
5912.68491,0.07420
5914.61338,0.08709
5916.54185,0.08845
5918.47032,0.10501
5920.39878,0.14719
5922.32725,0.15237
5924.25572,0.11933
5926.18419,0.09570
5928.11266,0.08782
5930.04113,0.07819
5931.96960,0.07037
5933.89806,0.09443
5935.82653,0.12819
5937.75500,0.12893
5939.68347,0.12075
5941.61194,0.12273
5943.54041,0.10055
5945.46888,0.04343
5947.39734,0.00408
5949.32581,0.02069
5951.25428,0.07167
5953.18275,0.09804
5955.11122,0.08332
5957.03969,0.08045
5958.96816,0.09937
5960.89663,0.10192
5962.82509,0.09887
5964.75356,0.12006
5966.68203,0.14518
5968.61050,0.12268
5970.53897,0.06531
5972.46744,0.03620
5974.39591,0.04850
5976.32437,0.06545
5978.25284,0.08518
5980.18131,0.12398
5982.10978,0.14765
5984.03825,0.14598
5985.96672,0.15097
5987.89519,0.14802
5989.82366,0.13446
5991.75212,0.13606
5993.68059,0.12805
5995.60906,0.08494
5997.53753,0.04706
5999.46600,0.04440
6001.39447,0.06136
6003.32294,0.08788
6005.25140,0.10784
6007.17987,0.09740
6009.10834,0.08048
6011.03681,0.08462
6012.96528,0.09063
6014.89375,0.08414
6016.82222,0.07306
6018.75069,0.06305
6020.67915,0.05272
6022.60762,0.05176
6024.53609,0.06686
6026.46456,0.08677
6028.39303,0.10493
6030.32150,0.11636
6032.24997,0.12617
6034.17843,0.14370
6036.10690,0.16016
6038.03537,0.14732
6039.96384,0.10286
6041.89231,0.06789
6043.82078,0.06462
6045.74925,0.07871
6047.67772,0.08154
6049.60618,0.07462
6051.53465,0.08695
6053.46312,0.09737
6055.39159,0.08281
6057.32006,0.07288
6059.24853,0.09184
6061.17700,0.11842
6063.10546,0.10475
6065.03393,0.05671
6066.96240,0.04579
6068.89087,0.07819
6070.81934,0.09135
6072.74781,0.07245
6074.67628,0.05511
6076.60475,0.05785
6078.53321,0.07029
6080.46168,0.06161
6082.39015,0.02504
6084.31862,0.01855
6086.24709,0.07757
6088.17556,0.12048
6090.10403,0.10263
6092.03249,0.08011
6093.96096,0.07818
6095.88943,0.08356
6097.81790,0.08742
6099.74637,0.06921
6101.67484,0.03919
6103.60331,0.04726
6105.53177,0.08074
6107.46024,0.08148
6109.38871,0.04769
6111.31718,0.03758
6113.24565,0.05912
6115.17412,0.05642
6117.10259,0.02787
6119.03106,0.03071
6120.95952,0.05979
6122.88799,0.07237
6124.81646,0.08744
6126.74493,0.10843
6128.67340,0.11665
6130.60187,0.12436
6132.53034,0.11936
6134.45880,0.08530
6136.38727,0.05841
6138.31574,0.08199
6140.24421,0.11775
6142.17268,0.11398
6144.10115,0.09999
6146.02962,0.09344
6147.95809,0.09983
6149.88655,0.12592
6151.81502,0.13769
6153.74349,0.10092
6155.67196,0.02512
6157.60043,-0.02126
6159.52890,0.01108
6161.45737,0.07280
6163.38583,0.09534
6165.31430,0.06554
6167.24277,0.02587
6169.17124,0.02001
6171.09971,0.03161
6173.02818,0.02630
6174.95665,0.03336
6176.88512,0.08114
6178.81358,0.12715
6180.74205,0.13957
6182.67052,0.13339
6184.59899,0.11014
6186.52746,0.06877
6188.45593,0.05052
6190.38440,0.07621
6192.31286,0.10931
6194.24133,0.12380
6196.16980,0.11412
6198.09827,0.09092
6200.02674,0.06920
6201.95521,0.05305
6203.88368,0.04390
6205.81215,0.04493
6207.74061,0.05844
6209.66908,0.07272
6211.59755,0.06860
6213.52602,0.06744
6215.45449,0.08272
6217.38296,0.08766
6219.31143,0.09020
6221.23989,0.10529
6223.16836,0.10299
6225.09683,0.07011
6227.02530,0.03750
6228.95377,0.03563
6230.88224,0.06999
6232.81071,0.10772
6234.73918,0.10275
6236.66764,0.07299
6238.59611,0.07058
6240.52458,0.07536
6242.45305,0.04675
6244.38152,0.03986
6246.30999,0.09119
6248.23846,0.14722
6250.16692,0.14942
6252.09539,0.09403
6254.02386,0.04069
6255.95233,0.02179
6257.88080,0.04239
6259.80927,0.10317
6261.73774,0.17333
6263.66621,0.19944
6265.59467,0.15328
6267.52314,0.10388
6269.45161,0.11815
6271.38008,0.15144
6273.30855,0.15419
6275.23702,0.10632
6277.16549,0.02584
6279.09395,0.00780
6281.02242,0.07273
6282.95089,0.11673
6284.87936,0.11152
6286.80783,0.12628
6288.73630,0.16419
6290.66477,0.15166
6292.59323,0.07089
6294.52170,0.01520
6296.45017,0.02312
6298.37864,0.02853
6300.30711,0.02986
6302.23558,0.07666
6304.16405,0.12047
6306.09252,0.10826
6308.02098,0.07199
6309.94945,0.06875
6311.87792,0.11167
6313.80639,0.13852
6315.73486,0.08749
6317.66333,-0.00405
6319.59180,-0.04045
6321.52026,0.00454
6323.44873,0.07609
6325.37720,0.11741
6327.30567,0.13584
6329.23414,0.15481
6331.16261,0.14458
6333.09108,0.10466
6335.01955,0.07870
6336.94801,0.07304
6338.87648,0.07910
6340.80495,0.08459
6342.73342,0.07741
6344.66189,0.08511
6346.59036,0.13148
6348.51883,0.16270
6350.44729,0.14307
6352.37576,0.10751
6354.30423,0.07088
6356.23270,0.04064
6358.16117,0.02498
6360.08964,0.01408
6362.01811,0.01146
6363.94658,0.02102
6365.87504,0.06545
6367.80351,0.14293
6369.73198,0.17100
6371.66045,0.11218
6373.58892,0.01543
6375.51739,-0.03260
6377.44586,-0.01606
6379.37432,0.00083
6381.30279,-0.00071
6383.23126,0.02935
6385.15973,0.07853
6387.08820,0.06807
6389.01667,0.03077
6390.94514,0.03559
6392.87361,0.03729
6394.80207,0.00420
6396.73054,0.01909
6398.65901,0.07551
6400.58748,0.08336
6402.51595,0.03668
6404.44442,0.02361
6406.37289,0.05308
6408.30135,0.06387
6410.22982,0.07148
6412.15829,0.10192
6414.08676,0.12539
6416.01523,0.13603
6417.94370,0.13202
6419.87217,0.10489
6421.80064,0.05849
6423.72910,0.01467
6425.65757,0.02883
6427.58604,0.09189
6429.51451,0.11239
6431.44298,0.06575
6433.37145,0.02999
6435.29992,0.02694
6437.22838,0.01325
6439.15685,0.00259
6441.08532,0.04498
6443.01379,0.12511
6444.94226,0.14723
6446.87073,0.10505
6448.79920,0.08322
6450.72766,0.08641
6452.65613,0.08402
6454.58460,0.07979
6456.51307,0.05691
6458.44154,0.00363
6460.37001,-0.03217
6462.29848,0.00596
6464.22695,0.08364
6466.15541,0.10516
6468.08388,0.06882
6470.01235,0.04847
6471.94082,0.06885
6473.86929,0.11068
6475.79776,0.13311
6477.72623,0.10558
6479.65469,0.05912
6481.58316,0.03428
6483.51163,0.02561
6485.44010,0.03186
6487.36857,0.07480
6489.29704,0.11791
6491.22551,0.10657
6493.15398,0.03995
6495.08244,-0.03019
6497.01091,-0.02753
6498.93938,0.03713
6500.86785,0.06888
6502.79632,0.04277
6504.72479,0.03181
6506.65326,0.06778
6508.58172,0.09186
6510.51019,0.05243
6512.43866,0.01564
6514.36713,0.00976
6516.29560,-0.02426
6518.22407,-0.02567
6520.15254,0.03992
6522.08101,0.06380
6524.00947,0.01540
6525.93794,-0.01837
6527.86641,-0.00486
6529.79488,0.03243
6531.72335,0.05322
6533.65182,0.01829
6535.58029,-0.01963
6537.50875,0.03471
6539.43722,0.12455
6541.36569,0.11585
6543.29416,0.08210
6545.22263,0.13552
6547.15110,0.19750
6549.07957,0.19621
6551.00804,0.15550
6552.93650,0.11246
6554.86497,0.07774
6556.79344,0.07800
6558.72191,0.14732
6560.65038,0.24184
6562.57885,0.24827
6564.50732,0.19114
6566.43578,0.18003
6568.36425,0.18845
6570.29272,0.16954
6572.22119,0.12064
6574.14966,0.07341
6576.07813,0.06601
6578.00660,0.04122
6579.93507,-0.02853
6581.86353,-0.06834
6583.79200,-0.06033
6585.72047,-0.03388
6587.64894,0.00414
6589.57741,0.02835
6591.50588,0.03242
6593.43435,0.03432
6595.36281,0.05024
6597.29128,0.07230
6599.21975,0.08444
6601.14822,0.09778
6603.07669,0.07394
6605.00516,0.02694
6606.93363,0.06012
6608.86210,0.15808
6610.79056,0.22822
6612.71903,0.22050
6614.64750,0.12389
6616.57597,0.01818
6618.50444,-0.01761
6620.43291,-0.01812
6622.36138,-0.00030
6624.28984,0.03456
6626.21831,0.04573
6628.14678,0.05287
6630.07525,0.07377
6632.00372,0.06690
6633.93219,0.06537
6635.86066,0.10111
6637.78912,0.09453
6639.71759,0.02596
6641.64606,-0.01954
6643.57453,-0.01139
6645.50300,0.01035
6647.43147,0.01487
6649.35994,0.01684
6651.28841,0.04048
6653.21687,0.07762
6655.14534,0.11954
6657.07381,0.15893
6659.00228,0.16308
6660.93075,0.12518
6662.85922,0.10453
6664.78769,0.11586
6666.71615,0.10996
6668.64462,0.11487
6670.57309,0.15403
6672.50156,0.15392
6674.43003,0.07106
6676.35850,-0.02237
6678.28697,-0.05692
6680.21544,-0.04049
6682.14390,-0.00555
6684.07237,0.01231
6686.00084,0.03159
6687.92931,0.06481
6689.85778,0.05430
6691.78625,0.02408
6693.71472,0.01375
6695.64318,0.02156
6697.57165,0.01302
6699.50012,-0.01814
6701.42859,-0.01531
6703.35706,0.02808
6705.28553,0.09115
6707.21400,0.12789
6709.14247,0.10933
6711.07093,0.06354
6712.99940,0.01161
6714.92787,-0.02218
6716.85634,-0.02051
6718.78481,-0.00560
6720.71328,-0.01406
6722.64175,-0.00087
6724.57021,0.07159
6726.49868,0.13599
6728.42715,0.15305
6730.35562,0.11798
6732.28409,0.04214
6734.21256,-0.00861
6736.14103,0.02243
6738.06950,0.06133
6739.99796,0.06051
6741.92643,0.06640
6743.85490,0.04858
6745.78337,0.01627
6747.71184,0.01764
6749.64031,0.01871
6751.56878,0.01425
6753.49724,0.03685
6755.42571,0.07757
6757.35418,0.07234
6759.28265,-0.01825
6761.21112,-0.07320
6763.13959,0.00588
6765.06806,0.11792
6766.99653,0.18604
6768.92499,0.18650
6770.85346,0.10233
6772.78193,0.00856
6774.71040,-0.02203
6776.63887,-0.03161
6778.56734,-0.05056
6780.49581,-0.02847
6782.42427,0.03595
6784.35274,0.07622
6786.28121,0.07451
6788.20968,0.05297
6790.13815,0.03611
6792.06662,0.04878
6793.99509,0.04523
6795.92355,-0.00018
6797.85202,-0.00758
6799.78049,0.03505
6801.70896,0.03090
6803.63743,-0.03432
6805.56590,-0.04615
6807.49437,0.05004
6809.42284,0.17238
6811.35130,0.20800
6813.27977,0.15510
6815.20824,0.04677
6817.13671,-0.08286
6819.06518,-0.07814
6820.99365,0.08160
6822.92212,0.21514
6824.85058,0.21064
6826.77905,0.17770
6828.70752,0.17093
6830.63599,0.14871
6832.56446,0.06198
6834.49293,-0.02834
6836.42140,-0.00962
6838.34987,0.06539
6840.27833,0.04324
6842.20680,-0.02550
6844.13527,0.00046
6846.06374,0.06513
6847.99221,0.07279
6849.92068,0.07706
6851.84915,0.11735
6853.77761,0.13103
6855.70608,0.04745
6857.63455,-0.03292
6859.56302,0.02358
6861.49149,0.13428
6863.41996,0.17928
6865.34843,0.13478
6867.27690,0.00242
6869.20536,-0.09765
6871.13383,-0.05848
6873.06230,0.01837
6874.99077,0.04751
6876.91924,0.11053
6878.84771,0.15141
6880.77618,0.10560
6882.70464,0.06959
6884.63311,0.05372
6886.56158,0.06298
6888.49005,0.09224
6890.41852,0.07985
6892.34699,0.04363
6894.27546,0.04840
6896.20393,0.09319
6898.13239,0.14043
6900.06086,0.17569
6901.98933,0.18874
6903.91780,0.16938
6905.84627,0.10159
6907.77474,0.01667
6909.70321,-0.01685
6911.63167,-0.04065
6913.56014,-0.08899
6915.48861,-0.06812
6917.41708,0.01757
6919.34555,0.07253
6921.27402,0.10119
6923.20249,0.11881
6925.13096,0.10637
6927.05942,0.08408
6928.98789,0.06710
6930.91636,0.07116
6932.84483,0.05993
6934.77330,-0.02209
6936.70177,-0.10713
6938.63024,-0.10393
6940.55870,-0.00693
6942.48717,0.08537
6944.41564,0.12726
6946.34411,0.13179
6948.27258,0.10323
6950.20105,0.06185
6952.12952,0.01020
6954.05799,-0.03089
6955.98645,-0.05922
6957.91492,-0.12372
6959.84339,-0.13503
6961.77186,-0.05427
6963.70033,0.02758
6965.62880,0.13202
6967.55727,0.21701
6969.48573,0.18284
6971.41420,0.09720
6973.34267,0.05346
6975.27114,0.07719
6977.19961,0.07731
6979.12808,0.00487
6981.05655,-0.02472
6982.98501,0.04443
6984.91348,0.13687
6986.84195,0.20788
6988.77042,0.25795
6990.69889,0.22384
6992.62736,0.11532
6994.55583,0.07388
6996.48430,0.11994
6998.41276,0.11644
7000.34123,0.05296
7002.26970,0.01538
7004.19817,0.01090
7006.12664,0.03588
7008.05511,0.08426
7009.98358,0.07675
7011.91204,-0.01515
7013.84051,-0.07734
7015.76898,-0.00049
7017.69745,0.09810
7019.62592,0.09510
7021.55439,0.04029
7023.48286,-0.00788
7025.41133,-0.03589
7027.33979,-0.02707
7029.26826,0.00244
7031.19673,0.07048
7033.12520,0.14914
7035.05367,0.12226
7036.98214,0.02024
7038.91061,-0.03307
7040.83907,-0.03431
7042.76754,-0.02056
7044.69601,0.00554
7046.62448,0.02931
7048.55295,-0.01418
7050.48142,-0.08321
7052.40989,-0.09388
7054.33836,-0.04102
7056.26682,0.05037
7058.19529,0.13323
7060.12376,0.14878
7062.05223,0.11613
7063.98070,0.07563
7065.90917,0.04136
7067.83764,0.02840
7069.76610,0.07194
7071.69457,0.12590
7073.62304,0.12651
7075.55151,0.09578
7077.47998,0.03113
7079.40845,-0.05088
7081.33692,-0.02372
7083.26539,0.12543
7085.19385,0.23509
7087.12232,0.26547
7089.05079,0.19435
7090.97926,0.04182
7092.90773,-0.02875
7094.83620,0.03981
7096.76467,0.08252
7098.69313,0.03626
7100.62160,0.01004
7102.55007,0.05782
7104.47854,0.16839
7106.40701,0.27274
7108.33548,0.25330
7110.26395,0.14895
7112.19242,0.09376
7114.12088,0.09610
7116.04935,0.11100
7117.97782,0.14936
7119.90629,0.17051
7121.83476,0.17412
7123.76323,0.13128
7125.69170,-0.01354
7127.62016,-0.12799
7129.54863,-0.08829
7131.47710,0.02770
7133.40557,0.15187
7135.33404,0.23872
7137.26251,0.18025
7139.19098,0.01546
7141.11944,-0.01910
7143.04791,0.14849
7144.97638,0.34017
7146.90485,0.29947
7148.83332,0.05793
7150.76179,-0.10673
7152.69026,-0.07246
7154.61873,0.00738
7156.54719,-0.04198
7158.47566,-0.17328
7160.40413,-0.24398
7162.33260,-0.17138
7164.26107,-0.03476
7166.18954,0.05932
7168.11801,0.07575
7170.04647,0.08625
7171.97494,0.11408
7173.90341,0.08450
7175.83188,0.06738
7177.76035,0.10504
7179.68882,0.11329
7181.61729,0.07969
7183.54576,0.04411
7185.47422,0.09567
7187.40269,0.17918
7189.33116,0.16815
7191.25963,0.07201
7193.18810,-0.01002
7195.11657,-0.06311
7197.04504,-0.08966
7198.97350,-0.07806
7200.90197,-0.02097
7202.83044,0.07051
7204.75891,0.12262
7206.68738,0.08668
7208.61585,0.03723
7210.54432,0.00664
7212.47279,0.00946
7214.40125,0.06932
7216.32972,0.13461
7218.25819,0.03921
7220.18666,-0.09814
7222.11513,-0.07375
7224.04360,-0.00146
7225.97207,0.02430
7227.90053,0.06912
7229.82900,0.12132
7231.75747,0.09795
7233.68594,0.07032
7235.61441,0.08109
7237.54288,0.11804
7239.47135,0.09716
7241.39982,-0.04254
7243.32828,-0.07786
7245.25675,0.03495
7247.18522,0.05912
7249.11369,0.05386
7251.04216,0.07217
7252.97063,0.03923
7254.89910,0.03720
7256.82756,0.11948
7258.75603,0.21665
7260.68450,0.18687
7262.61297,0.03774
7264.54144,0.04277
7266.46991,0.10248
7268.39838,0.08355
7270.32685,0.11177
7272.25531,0.17607
7274.18378,0.16788
7276.11225,0.19450
7278.04072,0.26468
7279.96919,0.24091
7281.89766,0.12313
7283.82613,0.02985
7285.75459,0.01079
7287.68306,0.10907
7289.61153,0.25499
7291.54000,0.26840
7293.46847,0.07980
7295.39694,-0.11741
7297.32541,-0.11433
7299.25387,-0.00281
7301.18234,0.04352
7303.11081,0.06865
7305.03928,0.11095
7306.96775,0.07491
7308.89622,0.13138
7310.82469,0.29100
7312.75316,0.23003
7314.68162,0.03954
7316.61009,-0.10771
7318.53856,-0.15628
7320.46703,-0.09297
7322.39550,0.05183
7324.32397,0.11550
7326.25244,0.08244
7328.18090,0.10974
7330.10937,0.19189
7332.03784,0.20285
7333.96631,0.14962
7335.89478,0.13684
7337.82325,0.16696
7339.75172,0.12631
7341.68019,0.06448
7343.60865,0.03222
7345.53712,-0.01936
7347.46559,0.01912
7349.39406,0.17094
7351.32253,0.30374
7353.25100,0.28427
7355.17947,0.11786
7357.10793,-0.07319
7359.03640,-0.19133
7360.96487,-0.23872
7362.89334,-0.22557
7364.82181,-0.15723
7366.75028,-0.07405
7368.67875,-0.09003
7370.60722,-0.21446
7372.53568,-0.28322
7374.46415,-0.16922
7376.39262,0.07019
7378.32109,0.17967
7380.24956,0.12813
7382.17803,-0.00088
7384.10650,-0.05270
7386.03496,-0.04627
7387.96343,-0.00862
7389.89190,0.09029
7391.82037,0.12009
7393.74884,0.07261
7395.67731,0.02085
7397.60578,-0.01412
7399.53425,0.04525
7401.46271,0.13094
7403.39118,0.10361
7405.31965,-0.02221
7407.24812,-0.06191
7409.17659,0.03485
7411.10506,0.11660
7413.03353,0.05647
7414.96199,-0.04829
7416.89046,0.00940
7418.81893,0.21773
7420.74740,0.24249
7422.67587,0.09648
7424.60434,-0.03568
7426.53281,-0.12894
7428.46128,-0.17604
7430.38974,-0.07385
7432.31821,0.11961
7434.24668,0.21609
7436.17515,0.21432
7438.10362,0.23927
7440.03209,0.30114
7441.96056,0.30900
7443.88902,0.28998
7445.81749,0.29325
7447.74596,0.32388
7449.67443,0.30867
7451.60290,0.17717
7453.53137,0.04131
7455.45984,-0.01497
7457.38831,-0.02641
7459.31677,-0.02781
7461.24524,-0.06356
7463.17371,-0.16211
7465.10218,-0.24923
7467.03065,-0.18653
7468.95912,-0.02849
7470.88759,0.01904
7472.81605,-0.07362
7474.74452,-0.08852
7476.67299,0.00112
7478.60146,0.09954
7480.52993,0.15106
7482.45840,0.08622
7484.38687,-0.00265
7486.31533,0.02086
7488.24380,0.08088
7490.17227,0.02535
7492.10074,-0.06798
7494.02921,-0.05870
7495.95768,0.02877
7497.88615,0.18252
