399.19301,0.70438
401.12148,0.19481
403.04995,0.01839
404.97842,-0.09093
406.90689,-0.00016
408.83536,0.20812
410.76382,0.32050
412.69229,0.19437
414.62076,0.07571
416.54923,0.10393
418.47770,0.15505
420.40617,0.11543
422.33464,0.06103
424.26311,0.02510
426.19157,0.01108
428.12004,0.03151
430.04851,0.12454
431.97698,0.22166
433.90545,0.18728
435.83392,0.11194
437.76239,0.06921
439.69085,0.03509
441.61932,0.01851
443.54779,0.04628
445.47626,0.08285
447.40473,0.10674
449.33320,0.12905
451.26167,0.10557
453.19013,0.01750
455.11860,-0.05346
457.04707,-0.02966
458.97554,0.01911
460.90401,-0.00715
462.83248,-0.03906
464.76095,0.03282
466.68942,0.16188
468.61788,0.21435
470.54635,0.17711
472.47482,0.10816
474.40329,0.06096
476.33176,0.04798
478.26023,0.05479
480.18870,0.06749
482.11716,0.06548
484.04563,0.06007
485.97410,0.07195
487.90257,0.11257
489.83104,0.15952
491.75951,0.17814
493.68798,0.16446
495.61645,0.11823
497.54491,0.06362
499.47338,0.03602
501.40185,0.02757
503.33032,0.02831
505.25879,0.03310
507.18726,0.02266
509.11573,0.02261
511.04419,0.05960
512.97266,0.09116
514.90113,0.07124
516.82960,0.02098
518.75807,-0.00272
520.68654,0.00880
522.61501,0.02880
524.54348,0.04769
526.47194,0.07729
528.40041,0.10722
530.32888,0.12516
532.25735,0.12401
534.18582,0.11609
536.11429,0.13161
538.04276,0.13970
539.97122,0.10483
541.89969,0.06613
543.82816,0.07239
545.75663,0.09458
547.68510,0.09201
549.61357,0.12892
551.54204,0.37293
553.47051,0.66809
555.39897,0.58837
557.32744,0.26235
559.25591,0.10421
561.18438,0.07610
563.11285,0.04393
565.04132,0.02219
566.96979,0.03441
568.89825,0.05436
570.82672,0.06410
572.75519,0.08393
574.68366,0.10702
576.61213,0.11168
578.54060,0.11209
580.46907,0.12337
582.39754,0.12928
584.32600,0.12439
586.25447,0.10460
588.18294,0.07129
590.11141,0.05440
592.03988,0.06643
593.96835,0.08053
595.89682,0.08166
597.82528,0.08958
599.75375,0.10965
601.68222,0.12245
603.61069,0.11349
605.53916,0.09111
607.46763,0.07484
609.39610,0.07761
611.32456,0.08433
613.25303,0.07172
615.18150,0.06489
617.10997,0.09027
619.03844,0.11760
620.96691,0.11102
622.89538,0.08282
624.82385,0.06807
626.75231,0.07167
628.68078,0.07712
630.60925,0.08262
632.53772,0.09599
634.46619,0.10754
636.39466,0.10303
638.32313,0.09841
640.25159,0.11493
642.18006,0.12864
644.10853,0.11608
646.03700,0.09957
647.96547,0.09311
649.89394,0.09436
651.82241,0.10314
653.75088,0.10939
655.67934,0.10303
657.60781,0.09076
659.53628,0.09169
661.46475,0.10666
663.39322,0.11884
665.32169,0.11885
667.25016,0.10595
669.17862,0.10243
671.10709,0.11526
673.03556,0.11667
674.96403,0.10535
676.89250,0.09146
678.82097,0.08373
680.74944,0.08910
682.67791,0.10494
684.60637,0.11671
686.53484,0.11107
688.46331,0.09421
690.39178,0.08619
692.32025,0.09006
694.24872,0.09945
696.17719,0.10947
698.10565,0.11209
700.03412,0.11196
701.96259,0.11405
703.89106,0.10812
705.81953,0.10147
707.74800,0.10977
709.67647,0.11874
711.60494,0.11584
713.53340,0.11027
715.46187,0.10815
717.39034,0.11056
719.31881,0.11417
721.24728,0.11147
723.17575,0.10612
725.10422,0.10353
727.03268,0.10279
728.96115,0.10592
730.88962,0.10939
732.81809,0.10795
734.74656,0.10657
736.67503,0.10831
738.60350,0.10920
740.53197,0.10868
742.46043,0.11263
744.38890,0.12161
746.31737,0.12335
748.24584,0.11292
750.17431,0.10020
752.10278,0.09349
754.03125,0.09568
755.95971,0.09990
757.88818,0.10191
759.81665,0.10812
761.74512,0.11580
763.67359,0.12056
765.60206,0.12081
767.53053,0.11419
769.45900,0.10804
771.38746,0.11052
773.31593,0.12019
775.24440,0.13202
777.17287,0.13420
779.10134,0.12035
781.02981,0.11060
782.95828,0.11810
784.88674,0.12642
786.81521,0.12442
788.74368,0.11978
790.67215,0.11529
792.60062,0.10764
794.52909,0.10264
796.45756,0.10155
798.38602,0.09619
800.31449,0.09131
802.24296,0.09998
804.17143,0.11282
806.09990,0.10994
808.02837,0.09837
809.95684,0.09850
811.88531,0.10974
813.81377,0.11616
815.74224,0.11817
817.67071,0.12513
819.59918,0.12681
821.52765,0.11714
823.45612,0.10974
825.38459,0.11000
827.31305,0.11111
829.24152,0.11543
831.16999,0.12176
833.09846,0.12151
835.02693,0.12181
836.95540,0.12554
838.88387,0.12387
840.81234,0.12256
842.74080,0.12970
844.66927,0.14165
846.59774,0.14265
848.52621,0.12752
850.45468,0.12046
852.38315,0.12927
854.31162,0.13419
856.24008,0.13138
858.16855,0.12693
860.09702,0.12243
862.02549,0.12452
863.95396,0.13183
865.88243,0.12963
867.81090,0.12515
869.73937,0.13361
871.66783,0.13728
873.59630,0.12319
875.52477,0.10969
877.45324,0.10990
879.38171,0.11569
881.31018,0.11567
883.23865,0.11039
885.16711,0.10737
887.09558,0.11154
889.02405,0.12288
890.95252,0.13248
892.88099,0.12918
894.80946,0.11900
896.73793,0.11519
898.66640,0.11606
900.59486,0.11915
902.52333,0.12343
904.45180,0.12138
906.38027,0.11932
908.30874,0.12596
910.23721,0.13121
912.16568,0.12973
914.09414,0.12766
916.02261,0.12617
917.95108,0.12504
919.87955,0.12643
921.80802,0.12711
923.73649,0.12692
925.66496,0.13150
927.59343,0.13197
929.52189,0.12303
931.45036,0.11895
933.37883,0.12244
935.30730,0.12584
937.23577,0.12914
939.16424,0.13219
941.09271,0.13214
943.02117,0.12854
944.94964,0.12579
946.87811,0.12805
948.80658,0.13012
950.73505,0.12845
952.66352,0.12462
954.59199,0.11761
956.52045,0.11314
958.44892,0.11760
960.37739,0.12724
962.30586,0.13574
964.23433,0.13567
966.16280,0.12616
968.09127,0.12170
970.01974,0.12849
971.94820,0.13409
973.87667,0.13428
975.80514,0.13369
977.73361,0.13042
979.66208,0.12453
981.59055,0.12204
983.51902,0.12215
985.44748,0.12307
987.37595,0.12849
989.30442,0.13276
991.23289,0.13259
993.16136,0.13574
995.08983,0.14031
997.01830,0.13961
998.94677,0.13782
1000.87523,0.13930
1002.80370,0.14173
1004.73217,0.14338
1006.66064,0.14337
1008.58911,0.13928
1010.51758,0.12912
1012.44605,0.12274
1014.37451,0.13330
1016.30298,0.14838
1018.23145,0.14658
1020.15992,0.13225
1022.08839,0.12332
1024.01686,0.12456
1025.94533,0.12802
1027.87380,0.12840
1029.80226,0.12728
1031.73073,0.12881
1033.65920,0.13632
1035.58767,0.14363
1037.51614,0.14157
1039.44461,0.13545
1041.37308,0.13430
1043.30154,0.13900
1045.23001,0.14464
1047.15848,0.14575
1049.08695,0.14012
1051.01542,0.13412
1052.94389,0.13568
1054.87236,0.13868
1056.80083,0.13795
1058.72929,0.13560
1060.65776,0.13415
1062.58623,0.13764
1064.51470,0.14321
1066.44317,0.14755
1068.37164,0.15083
1070.30011,0.14915
1072.22857,0.14519
1074.15704,0.14583
1076.08551,0.14496
1078.01398,0.13691
1079.94245,0.13149
1081.87092,0.13579
1083.79939,0.14078
1085.72786,0.14010
1087.65632,0.14021
1089.58479,0.14321
1091.51326,0.14411
1093.44173,0.14116
1095.37020,0.13877
1097.29867,0.14179
1099.22714,0.14924
1101.15560,0.15667
1103.08407,0.16170
1105.01254,0.16388
1106.94101,0.16229
1108.86948,0.16134
1110.79795,0.16272
1112.72642,0.16176
1114.65489,0.16134
1116.58335,0.16165
1118.51182,0.15638
1120.44029,0.14983
1122.36876,0.14875
1124.29723,0.14890
1126.22570,0.14773
1128.15417,0.14980
1130.08263,0.15352
1132.01110,0.15066
1133.93957,0.14197
1135.86804,0.13671
1137.79651,0.13476
1139.72498,0.13317
1141.65345,0.13578
1143.58191,0.14173
1145.51038,0.14625
1147.43885,0.14629
1149.36732,0.14343
1151.29579,0.14414
1153.22426,0.14859
1155.15273,0.15178
1157.08120,0.15169
1159.00966,0.14900
1160.93813,0.14870
1162.86660,0.15214
1164.79507,0.15288
1166.72354,0.15064
1168.65201,0.15058
1170.58048,0.15291
1172.50894,0.15421
1174.43741,0.15421
1176.36588,0.15582
1178.29435,0.15609
1180.22282,0.15167
1182.15129,0.14816
1184.07976,0.14978
1186.00823,0.15457
1187.93669,0.15749
1189.86516,0.15424
1191.79363,0.14690
1193.72210,0.14317
1195.65057,0.14707
1197.57904,0.15348
1199.50751,0.15823
1201.43597,0.16092
1203.36444,0.16110
1205.29291,0.16056
1207.22138,0.15980
1209.14985,0.15689
1211.07832,0.15307
1213.00679,0.15192
1214.93526,0.15234
1216.86372,0.15226
1218.79219,0.15313
1220.72066,0.15449
1222.64913,0.15552
1224.57760,0.15580
1226.50607,0.15435
1228.43454,0.15298
1230.36300,0.15343
1232.29147,0.15314
1234.21994,0.15040
1236.14841,0.14802
1238.07688,0.14827
1240.00535,0.15075
1241.93382,0.15250
1243.86229,0.15195
1245.79075,0.15229
1247.71922,0.15531
1249.64769,0.15750
1251.57616,0.15613
1253.50463,0.15362
1255.43310,0.15210
1257.36157,0.15250
1259.29003,0.15513
1261.21850,0.15684
1263.14697,0.15692
1265.07544,0.15641
1267.00391,0.15441
1268.93238,0.15449
1270.86085,0.15814
1272.78932,0.15914
1274.71778,0.15669
1276.64625,0.15790
1278.57472,0.16260
1280.50319,0.16218
1282.43166,0.15768
1284.36013,0.15757
1286.28860,0.16109
1288.21706,0.16454
1290.14553,0.16571
1292.07400,0.16239
1294.00247,0.15888
1295.93094,0.15886
1297.85941,0.15873
1299.78788,0.15456
1301.71634,0.14532
1303.64481,0.13509
1305.57328,0.13470
1307.50175,0.14748
1309.43022,0.16021
1311.35869,0.16455
1313.28716,0.16653
1315.21563,0.16823
1317.14409,0.16580
1319.07256,0.16047
1321.00103,0.15857
1322.92950,0.16170
1324.85797,0.16319
1326.78644,0.16081
1328.71491,0.16015
1330.64337,0.16062
1332.57184,0.16034
1334.50031,0.16191
1336.42878,0.16373
1338.35725,0.16449
1340.28572,0.16337
1342.21419,0.16025
1344.14266,0.15815
1346.07112,0.15571
1347.99959,0.15369
1349.92806,0.15450
1351.85653,0.15619
1353.78500,0.15740
1355.71347,0.15967
1357.64194,0.16540
1359.57040,0.17192
1361.49887,0.17533
1363.42734,0.17413
1365.35581,0.17035
1367.28428,0.16787
1369.21275,0.16689
1371.14122,0.16926
1373.06969,0.17462
1374.99815,0.17560
1376.92662,0.17208
1378.85509,0.16913
1380.78356,0.16747
1382.71203,0.16938
1384.64050,0.17476
1386.56897,0.17830
1388.49743,0.17632
1390.42590,0.17304
1392.35437,0.17392
1394.28284,0.17916
1396.21131,0.18272
1398.13978,0.18091
1400.06825,0.17769
1401.99672,0.17711
1403.92518,0.17752
1405.85365,0.17671
1407.78212,0.17475
1409.71059,0.17150
1411.63906,0.17142
1413.56753,0.17668
1415.49600,0.18072
1417.42446,0.18153
1419.35293,0.17969
1421.28140,0.17602
1423.20987,0.17654
1425.13834,0.18054
1427.06681,0.18201
1428.99528,0.18031
1430.92375,0.17828
1432.85221,0.17801
1434.78068,0.17997
1436.70915,0.18105
1438.63762,0.17757
1440.56609,0.17582
1442.49456,0.17790
1444.42303,0.17958
1446.35149,0.18064
1448.27996,0.18256
1450.20843,0.18327
1452.13690,0.18410
1454.06537,0.18887
1455.99384,0.19846
1457.92231,0.19958
1459.85077,0.18882
1461.77924,0.18418
1463.70771,0.18591
1465.63618,0.18573
1467.56465,0.18194
1469.49312,0.18306
1471.42159,0.19127
1473.35006,0.19741
1475.27852,0.19350
1477.20699,0.18884
1479.13546,0.18775
1481.06393,0.18727
1482.99240,0.18603
1484.92087,0.18715
1486.84934,0.19166
1488.77780,0.19635
1490.70627,0.19437
1492.63474,0.18903
1494.56321,0.19019
1496.49168,0.19719
1498.42015,0.19655
1500.34862,0.18608
1502.27709,0.17666
1504.20555,0.17376
1506.13402,0.18555
1508.06249,0.20520
1509.99096,0.20221
1511.91943,0.19463
1513.84790,0.19430
1515.77637,0.19872
1517.70483,0.20203
1519.63330,0.20728
1521.56177,0.21356
1523.49024,0.20825
1525.41871,0.19826
1527.34718,0.19207
1529.27565,0.19060
1531.20412,0.19509
1533.13258,0.20257
1535.06105,0.20243
1536.98952,0.20229
1538.91799,0.21962
1540.84646,0.24119
1542.77493,0.22572
1544.70340,0.20663
1546.63186,0.19859
1548.56033,0.19585
1550.48880,0.19483
1552.41727,0.19788
1554.34574,0.20431
1556.27421,0.21229
1558.20268,0.22132
1560.13115,0.21061
1562.05961,0.19824
1563.98808,0.19475
1565.91655,0.19358
1567.84502,0.19496
1569.77349,0.19761
1571.70196,0.19652
1573.63043,0.19755
1575.55889,0.20255
1577.48736,0.19959
1579.41583,0.19092
1581.34430,0.18791
1583.27277,0.19046
1585.20124,0.19293
1587.12971,0.19253
1589.05818,0.18998
1590.98664,0.18712
1592.91511,0.18602
1594.84358,0.18656
1596.77205,0.18626
1598.70052,0.18472
1600.62899,0.18499
1602.55746,0.18685
1604.48592,0.18709
1606.41439,0.18629
1608.34286,0.18587
1610.27133,0.18456
1612.19980,0.18519
1614.12827,0.19156
1616.05674,0.19853
1617.98521,0.19713
1619.91367,0.19619
1621.84214,0.20291
1623.77061,0.21118
1625.69908,0.21195
1627.62755,0.20636
1629.55602,0.19859
1631.48449,0.19587
1633.41295,0.20148
1635.34142,0.21043
1637.26989,0.20580
1639.19836,0.19653
1641.12683,0.19537
1643.05530,0.20119
1644.98377,0.21065
1646.91223,0.21736
1648.84070,0.21511
1650.76917,0.21482
1652.69764,0.22035
1654.62611,0.21354
1656.55458,0.20140
1658.48305,0.19234
1660.41152,0.18239
1662.33998,0.17610
1664.26845,0.18221
1666.19692,0.19389
1668.12539,0.20296
1670.05386,0.20583
1671.98233,0.20449
1673.91080,0.20213
1675.83926,0.19843
1677.76773,0.19694
1679.69620,0.19954
1681.62467,0.20691
1683.55314,0.21903
1685.48161,0.21855
1687.41008,0.20578
1689.33855,0.19508
1691.26701,0.19083
1693.19548,0.19645
1695.12395,0.20846
1697.05242,0.21435
1698.98089,0.21215
1700.90936,0.20716
1702.83783,0.20255
1704.76629,0.20292
1706.69476,0.20305
1708.62323,0.19793
1710.55170,0.19339
1712.48017,0.19460
1714.40864,0.20368
1716.33711,0.21666
1718.26558,0.21284
1720.19404,0.19736
1722.12251,0.18934
1724.05098,0.18757
1725.97945,0.18791
1727.90792,0.19003
1729.83639,0.19422
1731.76486,0.20016
1733.69332,0.20418
1735.62179,0.19884
1737.55026,0.19381
1739.47873,0.19457
1741.40720,0.19608
1743.33567,0.19537
1745.26414,0.19704
1747.19261,0.20189
1749.12107,0.20388
1751.04954,0.19896
1752.97801,0.19268
1754.90648,0.19062
1756.83495,0.19253
1758.76342,0.19541
1760.69189,0.19676
1762.62035,0.19434
1764.54882,0.19127
1766.47729,0.19118
1768.40576,0.19262
1770.33423,0.19740
1772.26270,0.20212
1774.19117,0.19767
1776.11964,0.19442
1778.04810,0.19729
1779.97657,0.19913
1781.90504,0.19598
1783.83351,0.19196
1785.76198,0.18896
1787.69045,0.18885
1789.61892,0.19490
1791.54738,0.20277
1793.47585,0.20197
1795.40432,0.19726
1797.33279,0.19641
1799.26126,0.19625
1801.18973,0.19252
1803.11820,0.18857
1805.04666,0.18833
1806.97513,0.18984
1808.90360,0.19087
1810.83207,0.19137
1812.76054,0.19185
1814.68901,0.19205
1816.61748,0.19049
1818.54595,0.18826
1820.47441,0.18779
1822.40288,0.18938
1824.33135,0.19218
1826.25982,0.19546
1828.18829,0.20010
1830.11676,0.20142
1832.04523,0.19545
1833.97369,0.19144
1835.90216,0.19259
1837.83063,0.19239
1839.75910,0.19081
1841.68757,0.19358
1843.61604,0.19739
1845.54451,0.19710
1847.47298,0.19444
1849.40144,0.18986
1851.32991,0.18690
1853.25838,0.18800
1855.18685,0.18961
1857.11532,0.19032
1859.04379,0.19088
1860.97226,0.19150
1862.90072,0.19368
1864.82919,0.19776
1866.75766,0.20146
1868.68613,0.20039
1870.61460,0.19433
1872.54307,0.18983
1874.47154,0.18880
1876.40001,0.18867
1878.32847,0.18773
1880.25694,0.18716
1882.18541,0.18783
1884.11388,0.18950
1886.04235,0.19220
1887.97082,0.19488
1889.89929,0.19524
1891.82775,0.19340
1893.75622,0.19197
1895.68469,0.19054
1897.61316,0.18902
1899.54163,0.18975
1901.47010,0.19233
1903.39857,0.19381
1905.32704,0.19367
1907.25550,0.19367
1909.18397,0.19378
1911.11244,0.19349
1913.04091,0.19406
1914.96938,0.19605
1916.89785,0.19803
1918.82632,0.19843
1920.75478,0.19819
1922.68325,0.19765
1924.61172,0.19525
1926.54019,0.19234
1928.46866,0.19063
1930.39713,0.18971
1932.32560,0.19043
1934.25407,0.19202
1936.18253,0.19128
1938.11100,0.18943
1940.03947,0.18969
1941.96794,0.19206
1943.89641,0.19457
1945.82488,0.19489
1947.75335,0.19241
1949.68181,0.18956
1951.61028,0.18869
1953.53875,0.18938
1955.46722,0.19017
1957.39569,0.19046
1959.32416,0.19114
1961.25263,0.19350
1963.18110,0.19608
1965.10956,0.19643
1967.03803,0.19513
1968.96650,0.19489
1970.89497,0.19636
1972.82344,0.19664
1974.75191,0.19442
1976.68038,0.18967
1978.60884,0.18434
1980.53731,0.18563
1982.46578,0.19138
1984.39425,0.19195
1986.32272,0.18889
1988.25119,0.18892
1990.17966,0.19257
1992.10812,0.19505
1994.03659,0.19421
1995.96506,0.19309
1997.89353,0.19372
1999.82200,0.19425
2001.75047,0.19221
2003.67894,0.18965
2005.60741,0.18925
2007.53587,0.19025
2009.46434,0.19337
2011.39281,0.19864
2013.32128,0.20139
2015.24975,0.20015
2017.17822,0.19789
2019.10669,0.19626
2021.03515,0.19555
2022.96362,0.19449
2024.89209,0.19220
2026.82056,0.19090
2028.74903,0.19195
2030.67750,0.19345
2032.60597,0.19462
2034.53444,0.19546
2036.46290,0.19537
2038.39137,0.19531
2040.31984,0.19579
2042.24831,0.19603
2044.17678,0.19638
2046.10525,0.19793
2048.03372,0.19859
2049.96218,0.19626
2051.89065,0.19438
2053.81912,0.19599
2055.74759,0.19906
2057.67606,0.20015
2059.60453,0.19870
2061.53300,0.19668
2063.46147,0.19534
2065.38993,0.19464
2067.31840,0.19473
2069.24687,0.19588
2071.17534,0.19677
2073.10381,0.19646
2075.03228,0.19630
2076.96075,0.19655
2078.88921,0.19694
2080.81768,0.19758
2082.74615,0.19655
2084.67462,0.19314
2086.60309,0.19155
2088.53156,0.19522
2090.46003,0.20059
2092.38850,0.20150
2094.31696,0.19758
2096.24543,0.19416
2098.17390,0.19469
2100.10237,0.19647
2102.03084,0.19621
2103.95931,0.19488
2105.88778,0.19526
2107.81624,0.19755
2109.74471,0.19798
2111.67318,0.19489
2113.60165,0.19162
2115.53012,0.19141
2117.45859,0.19401
2119.38706,0.19592
2121.31553,0.19497
2123.24399,0.19422
2125.17246,0.19631
2127.10093,0.19828
2129.02940,0.19699
2130.95787,0.19452
2132.88634,0.19314
2134.81481,0.19291
2136.74327,0.19320
2138.67174,0.19315
2140.60021,0.19524
2142.52868,0.19893
2144.45715,0.19906
2146.38562,0.19665
2148.31409,0.19540
2150.24255,0.19577
2152.17102,0.19763
2154.09949,0.20036
2156.02796,0.20167
2157.95643,0.20055
2159.88490,0.19953
2161.81337,0.19969
2163.74184,0.19935
2165.67030,0.19884
2167.59877,0.19910
2169.52724,0.19962
2171.45571,0.20049
2173.38418,0.20098
2175.31265,0.19937
2177.24112,0.19684
2179.16958,0.19462
2181.09805,0.19149
2183.02652,0.18897
2184.95499,0.18962
2186.88346,0.19258
2188.81193,0.19567
2190.74040,0.19670
2192.66887,0.19682
2194.59733,0.19726
2196.52580,0.19609
2198.45427,0.19470
2200.38274,0.19475
2202.31121,0.19444
2204.23968,0.19380
2206.16815,0.19530
2208.09661,0.19852
2210.02508,0.19955
2211.95355,0.19806
2213.88202,0.19594
2215.81049,0.19362
2217.73896,0.19304
2219.66743,0.19500
2221.59590,0.19651
2223.52436,0.19645
2225.45283,0.19707
2227.38130,0.19948
2229.30977,0.20187
2231.23824,0.20256
2233.16671,0.20208
2235.09518,0.20084
2237.02364,0.19875
2238.95211,0.19718
2240.88058,0.19680
2242.80905,0.19678
2244.73752,0.19754
2246.66599,0.19838
2248.59446,0.19675
2250.52293,0.19438
2252.45139,0.19513
2254.37986,0.19790
2256.30833,0.19913
2258.23680,0.19843
2260.16527,0.19799
2262.09374,0.19875
2264.02221,0.19922
2265.95067,0.19813
2267.87914,0.19670
2269.80761,0.19689
2271.73608,0.19877
2273.66455,0.20085
2275.59302,0.20135
2277.52149,0.19983
2279.44996,0.19752
2281.37842,0.19668
2283.30689,0.19723
2285.23536,0.19583
2287.16383,0.19420
2289.09230,0.19563
2291.02077,0.19561
2292.94924,0.19196
2294.87770,0.18875
2296.80617,0.18686
2298.73464,0.18519
2300.66311,0.18409
2302.59158,0.18277
2304.52005,0.18151
2306.44852,0.18323
2308.37699,0.18676
2310.30545,0.18599
2312.23392,0.18077
2314.16239,0.17896
2316.09086,0.18230
2318.01933,0.18254
2319.94780,0.17750
2321.87627,0.17479
2323.80473,0.17249
2325.73320,0.16672
2327.66167,0.16678
2329.59014,0.17328
2331.51861,0.17371
2333.44708,0.16787
2335.37555,0.16470
2337.30401,0.16093
2339.23248,0.15588
2341.16095,0.16217
2343.08942,0.17682
2345.01789,0.18284
2346.94636,0.17974
2348.87483,0.17430
2350.80330,0.16974
2352.73176,0.17128
2354.66023,0.17379
2356.58870,0.15943
2358.51717,0.13633
2360.44564,0.12340
2362.37411,0.11828
2364.30258,0.12092
2366.23104,0.13314
2368.15951,0.14934
2370.08798,0.16677
2372.01645,0.18003
2373.94492,0.18584
2375.87339,0.18734
2377.80186,0.18716
2379.73033,0.18719
2381.65879,0.18898
2383.58726,0.19277
2385.51573,0.19611
2387.44420,0.19663
2389.37267,0.19609
2391.30114,0.19707
2393.22961,0.19968
2395.15807,0.20152
2397.08654,0.20101
2399.01501,0.19977
2400.94348,0.19843
2402.87195,0.19721
2404.80042,0.19757
2406.72889,0.19987
2408.65736,0.20307
2410.58582,0.20520
2412.51429,0.20392
2414.44276,0.20024
2416.37123,0.19892
2418.29970,0.20013
2420.22817,0.20020
2422.15664,0.20012
2424.08510,0.20193
2426.01357,0.20254
2427.94204,0.20063
2429.87051,0.20007
2431.79898,0.20137
2433.72745,0.20188
2435.65592,0.20199
2437.58439,0.20201
2439.51285,0.20007
2441.44132,0.19802
2443.36979,0.19935
2445.29826,0.20124
2447.22673,0.19977
2449.15520,0.19630
2451.08367,0.19250
2453.01213,0.18854
2454.94060,0.18871
2456.86907,0.19494
2458.79754,0.20061
2460.72601,0.20194
2462.65448,0.20185
2464.58295,0.20190
2466.51142,0.20122
2468.43988,0.20049
2470.36835,0.20109
2472.29682,0.20219
2474.22529,0.20231
2476.15376,0.20254
2478.08223,0.20387
2480.01070,0.20389
2481.93916,0.20172
2483.86763,0.19955
2485.79610,0.19932
2487.72457,0.20140
2489.65304,0.20347
2491.58151,0.20292
2493.50998,0.20137
2495.43844,0.20283
2497.36691,0.20563
2499.29538,0.20588
2501.22385,0.20331
2503.15232,0.19986
2505.08079,0.19932
2507.00926,0.20126
2508.93773,0.20128
2510.86619,0.19923
2512.79466,0.19913
2514.72313,0.20234
2516.65160,0.20462
2518.58007,0.20292
2520.50854,0.20033
2522.43701,0.20130
2524.36547,0.20425
2526.29394,0.20450
2528.22241,0.20199
2530.15088,0.19976
2532.07935,0.20004
2534.00782,0.20268
2535.93629,0.20596
2537.86476,0.20870
2539.79322,0.20910
2541.72169,0.20654
2543.65016,0.20471
2545.57863,0.20484
2547.50710,0.20340
2549.43557,0.20145
2551.36404,0.20170
2553.29250,0.20187
2555.22097,0.20068
2557.14944,0.20078
2559.07791,0.20260
2561.00638,0.20358
2562.93485,0.20336
2564.86332,0.20250
2566.79179,0.20160
2568.72025,0.20211
2570.64872,0.20390
2572.57719,0.20540
2574.50566,0.20565
2576.43413,0.20519
2578.36260,0.20535
2580.29107,0.20609
2582.21953,0.20489
2584.14800,0.20190
2586.07647,0.20037
2588.00494,0.19956
2589.93341,0.19850
2591.86188,0.19880
2593.79035,0.20096
2595.71882,0.20389
2597.64728,0.20628
2599.57575,0.20770
2601.50422,0.20735
2603.43269,0.20617
2605.36116,0.20560
2607.28963,0.20467
2609.21810,0.20391
2611.14656,0.20483
2613.07503,0.20563
2615.00350,0.20411
2616.93197,0.20234
2618.86044,0.20265
2620.78891,0.20317
2622.71738,0.20203
2624.64585,0.20110
2626.57431,0.20239
2628.50278,0.20479
2630.43125,0.20643
2632.35972,0.20617
2634.28819,0.20429
2636.21666,0.20272
2638.14513,0.20266
2640.07359,0.20440
2642.00206,0.20702
2643.93053,0.20804
2645.85900,0.20732
2647.78747,0.20731
2649.71594,0.20789
2651.64441,0.20807
2653.57288,0.20807
2655.50134,0.20678
2657.42981,0.20578
2659.35828,0.20714
2661.28675,0.20777
2663.21522,0.20722
2665.14369,0.20728
2667.07216,0.20752
2669.00062,0.20893
2670.92909,0.21000
2672.85756,0.20802
2674.78603,0.20606
2676.71450,0.20672
2678.64297,0.20674
2680.57144,0.20416
2682.49990,0.20242
2684.42837,0.20395
2686.35684,0.20662
2688.28531,0.20740
2690.21378,0.20599
2692.14225,0.20580
2694.07072,0.20835
2695.99919,0.21059
2697.92765,0.21165
2699.85612,0.21258
2701.78459,0.21225
2703.71306,0.21150
2705.64153,0.21194
2707.57000,0.21193
2709.49847,0.21091
2711.42693,0.21078
2713.35540,0.21179
2715.28387,0.21130
2717.21234,0.20857
2719.14081,0.20691
2721.06928,0.20774
2722.99775,0.21049
2724.92622,0.21367
2726.85468,0.21374
2728.78315,0.21194
2730.71162,0.21163
2732.64009,0.21240
2734.56856,0.21323
2736.49703,0.21300
2738.42550,0.21255
2740.35396,0.21275
2742.28243,0.21291
2744.21090,0.21363
2746.13937,0.21549
2748.06784,0.21799
2749.99631,0.21864
2751.92478,0.21569
2753.85325,0.21265
2755.78171,0.21453
2757.71018,0.21930
2759.63865,0.22061
2761.56712,0.21829
2763.49559,0.21511
2765.42406,0.21221
2767.35253,0.21157
2769.28099,0.21316
2771.20946,0.21419
2773.13793,0.21336
2775.06640,0.21174
2776.99487,0.21110
2778.92334,0.21246
2780.85181,0.21473
2782.78028,0.21627
2784.70874,0.21742
2786.63721,0.21856
2788.56568,0.21722
2790.49415,0.21323
2792.42262,0.21223
2794.35109,0.21529
2796.27956,0.21725
2798.20802,0.21729
2800.13649,0.21774
2802.06496,0.21780
2803.99343,0.21637
2805.92190,0.21485
2807.85037,0.21432
2809.77884,0.21537
2811.70731,0.21907
2813.63577,0.22263
2815.56424,0.22131
2817.49271,0.21698
2819.42118,0.21515
2821.34965,0.21613
2823.27812,0.21681
2825.20659,0.21705
2827.13505,0.21963
2829.06352,0.22390
2830.99199,0.22476
2832.92046,0.22161
2834.84893,0.22068
2836.77740,0.22394
2838.70587,0.22543
2840.63433,0.22360
2842.56280,0.22141
2844.49127,0.21981
2846.41974,0.21962
2848.34821,0.22015
2850.27668,0.22071
2852.20515,0.22170
2854.13362,0.22126
2856.06208,0.21826
2857.99055,0.21534
2859.91902,0.21653
2861.84749,0.22020
2863.77596,0.22012
2865.70443,0.21755
2867.63290,0.21944
2869.56136,0.22443
2871.48983,0.22533
2873.41830,0.22138
2875.34677,0.21685
2877.27524,0.21486
2879.20371,0.21491
2881.13218,0.21435
2883.06065,0.21397
2884.98911,0.21564
2886.91758,0.21675
2888.84605,0.21623
2890.77452,0.21841
2892.70299,0.22223
2894.63146,0.22128
2896.55993,0.21749
2898.48839,0.21719
2900.41686,0.22035
2902.34533,0.22283
2904.27380,0.22195
2906.20227,0.21932
2908.13074,0.21812
2910.05921,0.21774
2911.98768,0.21642
2913.91614,0.21380
2915.84461,0.21149
2917.77308,0.21402
2919.70155,0.21949
2921.63002,0.22074
2923.55849,0.21869
2925.48696,0.22616
2927.41542,0.25100
2929.34389,0.26887
2931.27236,0.25212
2933.20083,0.22024
2935.12930,0.20463
2937.05777,0.20334
2938.98624,0.20793
2940.91471,0.21564
2942.84317,0.21898
2944.77164,0.21524
2946.70011,0.20936
2948.62858,0.21053
2950.55705,0.21800
2952.48552,0.22070
2954.41399,0.21799
2956.34245,0.21278
2958.27092,0.20883
2960.19939,0.21210
2962.12786,0.21805
2964.05633,0.22091
2965.98480,0.22201
2967.91327,0.22368
2969.84174,0.22578
2971.77020,0.22455
2973.69867,0.22095
2975.62714,0.21795
2977.55561,0.21350
2979.48408,0.21194
2981.41255,0.21831
2983.34102,0.22650
2985.26948,0.22885
2987.19795,0.22544
2989.12642,0.22443
2991.05489,0.22810
2992.98336,0.22807
2994.91183,0.22298
2996.84030,0.22036
2998.76877,0.22353
3000.69723,0.22795
3002.62570,0.22940
3004.55417,0.22891
3006.48264,0.22697
3008.41111,0.22430
3010.33958,0.21985
3012.26805,0.20555
3014.19651,0.17649
3016.12498,0.15128
3018.05345,0.16140
3019.98192,0.19872
3021.91039,0.22459
3023.83886,0.23030
3025.76733,0.22785
3027.69579,0.22346
3029.62426,0.22431
3031.55273,0.22903
3033.48120,0.22610
3035.40967,0.21777
3037.33814,0.21499
3039.26661,0.21933
3041.19508,0.22519
3043.12354,0.22773
3045.05201,0.22748
3046.98048,0.22636
3048.90895,0.22562
3050.83742,0.22563
3052.76589,0.22495
3054.69436,0.22202
3056.62282,0.21798
3058.55129,0.21983
3060.47976,0.22740
3062.40823,0.22958
3064.33670,0.22125
3066.26517,0.21023
3068.19364,0.20990
3070.12211,0.21915
3072.05057,0.22425
3073.97904,0.22021
3075.90751,0.21515
3077.83598,0.21845
3079.76445,0.22590
3081.69292,0.22660
3083.62139,0.21580
3085.54985,0.20354
3087.47832,0.20592
3089.40679,0.21820
3091.33526,0.22359
3093.26373,0.21688
3095.19220,0.21109
3097.12067,0.21835
3099.04914,0.22852
3100.97760,0.22705
3102.90607,0.21489
3104.83454,0.20783
3106.76301,0.21478
3108.69148,0.22612
3110.61995,0.22835
3112.54842,0.22157
3114.47688,0.21920
3116.40535,0.22530
3118.33382,0.23049
3120.26229,0.22821
3122.19076,0.22414
3124.11923,0.22566
3126.04770,0.22939
3127.97617,0.23018
3129.90463,0.22773
3131.83310,0.22644
3133.76157,0.22793
3135.69004,0.22759
3137.61851,0.22405
3139.54698,0.22141
3141.47545,0.22264
3143.40391,0.22549
3145.33238,0.22765
3147.26085,0.22899
3149.18932,0.23122
3151.11779,0.23425
3153.04626,0.23436
3154.97473,0.23195
3156.90320,0.22951
3158.83166,0.22825
3160.76013,0.22881
3162.68860,0.22993
3164.61707,0.23225
3166.54554,0.23463
3168.47401,0.23240
3170.40248,0.22760
3172.33094,0.22625
3174.25941,0.22780
3176.18788,0.22972
3178.11635,0.23396
3180.04482,0.23889
3181.97329,0.23914
3183.90176,0.23823
3185.83022,0.23861
3187.75869,0.23353
3189.68716,0.22601
3191.61563,0.22577
3193.54410,0.23103
3195.47257,0.23451
3197.40104,0.23516
3199.32951,0.23554
3201.25797,0.23498
3203.18644,0.23144
3205.11491,0.22760
3207.04338,0.22862
3208.97185,0.23277
3210.90032,0.23441
3212.82879,0.23385
3214.75725,0.23244
3216.68572,0.22906
3218.61419,0.22414
3220.54266,0.22139
3222.47113,0.22315
3224.39960,0.22636
3226.32807,0.22938
3228.25654,0.23071
3230.18500,0.22889
3232.11347,0.22647
3234.04194,0.22584
3235.97041,0.22761
3237.89888,0.22970
3239.82735,0.23105
3241.75582,0.23227
3243.68428,0.23137
3245.61275,0.23010
3247.54122,0.23371
3249.46969,0.23932
3251.39816,0.23945
3253.32663,0.23377
3255.25510,0.22751
3257.18357,0.22404
3259.11203,0.22338
3261.04050,0.22584
3262.96897,0.23081
3264.89744,0.23362
3266.82591,0.23264
3268.75438,0.23206
3270.68285,0.23234
3272.61131,0.22956
3274.53978,0.22484
3276.46825,0.22292
3278.39672,0.22620
3280.32519,0.23251
3282.25366,0.23760
3284.18213,0.23886
3286.11060,0.23314
3288.03906,0.22330
3289.96753,0.21885
3291.89600,0.22204
3293.82447,0.22777
3295.75294,0.23234
3297.68141,0.23452
3299.60988,0.23313
3301.53834,0.22835
3303.46681,0.22311
3305.39528,0.22217
3307.32375,0.22650
3309.25222,0.22973
3311.18069,0.22796
3313.10916,0.22388
3315.03763,0.22054
3316.96609,0.21994
3318.89456,0.22052
3320.82303,0.22130
3322.75150,0.22407
3324.67997,0.22624
3326.60844,0.22773
3328.53691,0.23112
3330.46537,0.23184
3332.39384,0.22890
3334.32231,0.22866
3336.25078,0.23211
3338.17925,0.23428
3340.10772,0.23318
3342.03619,0.23188
3343.96466,0.23236
3345.89312,0.23299
3347.82159,0.23235
3349.75006,0.23146
3351.67853,0.23282
3353.60700,0.23594
3355.53547,0.23722
3357.46394,0.23537
3359.39240,0.23139
3361.32087,0.22991
3363.24934,0.23317
3365.17781,0.23336
3367.10628,0.22976
3369.03475,0.23073
3370.96322,0.23453
3372.89168,0.23403
3374.82015,0.22829
3376.74862,0.22441
3378.67709,0.22743
3380.60556,0.23085
3382.53403,0.23058
3384.46250,0.22932
3386.39097,0.22675
3388.31943,0.22492
3390.24790,0.22659
3392.17637,0.22905
3394.10484,0.23175
3396.03331,0.23522
3397.96178,0.23378
3399.89025,0.22227
3401.81871,0.20939
3403.74718,0.20751
3405.67565,0.21235
3407.60412,0.21628
3409.53259,0.21961
3411.46106,0.22109
3413.38953,0.22096
3415.31800,0.22195
3417.24646,0.22591
3419.17493,0.23062
3421.10340,0.23054
3423.03187,0.22591
3424.96034,0.22274
3426.88881,0.22449
3428.81728,0.22711
3430.74574,0.22708
3432.67421,0.22735
3434.60268,0.22638
3436.53115,0.22067
3438.45962,0.21477
3440.38809,0.21413
3442.31656,0.21693
3444.24503,0.21807
3446.17349,0.21675
3448.10196,0.21448
3450.03043,0.21179
3451.95890,0.21104
3453.88737,0.21066
3455.81584,0.20841
3457.74431,0.20819
3459.67277,0.20887
3461.60124,0.20737
3463.52971,0.20685
3465.45818,0.20801
3467.38665,0.20880
3469.31512,0.20871
3471.24359,0.20838
3473.17206,0.20924
3475.10052,0.20918
3477.02899,0.20527
3478.95746,0.20085
3480.88593,0.19972
3482.81440,0.20246
3484.74287,0.20702
3486.67134,0.20845
3488.59980,0.20717
3490.52827,0.20571
3492.45674,0.20020
3494.38521,0.19355
3496.31368,0.19237
3498.24215,0.19259
3500.17062,0.19238
3502.09909,0.19539
3504.02755,0.19955
3505.95602,0.19939
3507.88449,0.19512
3509.81296,0.19250
3511.74143,0.19172
3513.66990,0.18867
3515.59837,0.18490
3517.52683,0.18384
3519.45530,0.18732
3521.38377,0.19215
3523.31224,0.19423
3525.24071,0.19761
3527.16918,0.20146
3529.09765,0.19614
3531.02611,0.18623
3532.95458,0.18191
3534.88305,0.18283
3536.81152,0.18567
3538.73999,0.18512
3540.66846,0.18026
3542.59693,0.17779
3544.52540,0.17932
3546.45386,0.18036
3548.38233,0.18177
3550.31080,0.18606
3552.23927,0.18810
3554.16774,0.18476
3556.09621,0.18254
3558.02468,0.18336
3559.95314,0.18360
3561.88161,0.18444
3563.81008,0.18866
3565.73855,0.19278
3567.66702,0.18847
3569.59549,0.17800
3571.52396,0.17078
3573.45243,0.16799
3575.38089,0.16792
3577.30936,0.17066
3579.23783,0.17415
3581.16630,0.17424
3583.09477,0.17450
3585.02324,0.17754
3586.95171,0.17771
3588.88017,0.17507
3590.80864,0.17385
3592.73711,0.17051
3594.66558,0.16392
3596.59405,0.15807
3598.52252,0.15608
3600.45099,0.15825
3602.37946,0.16082
3604.30792,0.16142
3606.23639,0.16401
3608.16486,0.17032
3610.09333,0.17487
3612.02180,0.17476
3613.95027,0.17087
3615.87874,0.16527
3617.80720,0.16209
3619.73567,0.16107
3621.66414,0.15788
3623.59261,0.15480
3625.52108,0.15442
3627.44955,0.15672
3629.37802,0.15747
3631.30649,0.15213
3633.23495,0.14663
3635.16342,0.14407
3637.09189,0.14557
3639.02036,0.14921
3640.94883,0.15074
3642.87730,0.15166
3644.80577,0.15685
3646.73423,0.16622
3648.66270,0.17301
3650.59117,0.16723
3652.51964,0.15916
3654.44811,0.15557
3656.37658,0.15188
3658.30505,0.14682
3660.23352,0.14521
3662.16198,0.14727
3664.09045,0.14937
3666.01892,0.15104
3667.94739,0.15499
3669.87586,0.15938
3671.80433,0.15961
3673.73280,0.16018
3675.66126,0.15894
3677.58973,0.15174
3679.51820,0.14755
3681.44667,0.14536
3683.37514,0.14146
3685.30361,0.13881
3687.23208,0.14056
3689.16055,0.14533
3691.08901,0.14855
3693.01748,0.14905
3694.94595,0.14686
3696.87442,0.14265
3698.80289,0.14119
3700.73136,0.14302
3702.65983,0.14074
3704.58829,0.13659
3706.51676,0.14025
3708.44523,0.14937
3710.37370,0.15360
3712.30217,0.15137
3714.23064,0.14878
3716.15911,0.14672
3718.08757,0.14764
3720.01604,0.15053
3721.94451,0.14891
3723.87298,0.14338
3725.80145,0.13974
3727.72992,0.13931
3729.65839,0.14221
3731.58686,0.14949
3733.51532,0.15796
3735.44379,0.15756
3737.37226,0.14853
3739.30073,0.14295
3741.22920,0.14319
3743.15767,0.14569
3745.08614,0.15109
3747.01460,0.16143
3748.94307,0.17073
3750.87154,0.16662
3752.80001,0.15142
3754.72848,0.14521
3756.65695,0.14345
3758.58542,0.14061
3760.51389,0.13960
3762.44235,0.13975
3764.37082,0.13744
3766.29929,0.13331
3768.22776,0.13426
3770.15623,0.14093
3772.08470,0.14087
3774.01317,0.13396
3775.94163,0.12945
3777.87010,0.12954
3779.79857,0.13073
3781.72704,0.13055
3783.65551,0.13072
3785.58398,0.13193
3787.51245,0.13402
3789.44092,0.13653
3791.36938,0.13765
3793.29785,0.13863
3795.22632,0.14046
3797.15479,0.14018
3799.08326,0.13905
3801.01173,0.13995
3802.94020,0.13891
3804.86866,0.13766
3806.79713,0.13928
3808.72560,0.13872
3810.65407,0.13589
3812.58254,0.13287
3814.51101,0.12797
3816.43948,0.12563
3818.36795,0.13327
3820.29641,0.14692
3822.22488,0.15128
3824.15335,0.14319
3826.08182,0.13637
3828.01029,0.13251
3829.93876,0.12608
3831.86723,0.11782
3833.79569,0.11867
3835.72416,0.13201
3837.65263,0.14669
3839.58110,0.14763
3841.50957,0.13903
3843.43804,0.13142
3845.36651,0.12501
3847.29498,0.12142
3849.22344,0.12487
3851.15191,0.13756
3853.08038,0.15111
3855.00885,0.14296
3856.93732,0.13291
3858.86579,0.13003
3860.79426,0.13014
3862.72272,0.13119
3864.65119,0.12787
3866.57966,0.12328
3868.50813,0.12585
3870.43660,0.13126
3872.36507,0.13036
3874.29354,0.12516
3876.22200,0.11914
3878.15047,0.11654
3880.07894,0.12084
3882.00741,0.12783
3883.93588,0.13080
3885.86435,0.12951
3887.79282,0.12634
3889.72129,0.12448
3891.64975,0.12382
3893.57822,0.12392
3895.50669,0.12812
3897.43516,0.13665
3899.36363,0.14110
3901.29210,0.13624
3903.22057,0.13004
3905.14903,0.12620
3907.07750,0.12295
3909.00597,0.11797
3910.93444,0.11327
3912.86291,0.11527
3914.79138,0.12120
3916.71985,0.12278
3918.64832,0.12067
3920.57678,0.12032
3922.50525,0.12304
3924.43372,0.12361
3926.36219,0.11986
3928.29066,0.11882
3930.21913,0.12120
3932.14760,0.12300
3934.07606,0.12206
3936.00453,0.11904
3937.93300,0.11649
3939.86147,0.11411
3941.78994,0.11073
3943.71841,0.10904
3945.64688,0.11091
3947.57535,0.11311
3949.50381,0.11409
3951.43228,0.11640
3953.36075,0.11840
3955.28922,0.11517
3957.21769,0.11103
3959.14616,0.11287
3961.07463,0.11627
3963.00309,0.11673
3964.93156,0.11665
3966.86003,0.11641
3968.78850,0.11422
3970.71697,0.11142
3972.64544,0.10967
3974.57391,0.10762
3976.50238,0.10505
3978.43084,0.10365
3980.35931,0.10386
3982.28778,0.10547
3984.21625,0.10876
3986.14472,0.11307
3988.07319,0.11587
3990.00166,0.11408
3991.93012,0.10996
3993.85859,0.10962
3995.78706,0.11165
3997.71553,0.11131
3999.64400,0.10815
4001.57247,0.10400
4003.50094,0.10078
4005.42941,0.09815
4007.35787,0.09578
4009.28634,0.09522
4011.21481,0.09776
4013.14328,0.10048
4015.07175,0.09964
4017.00022,0.09791
4018.92869,0.09964
4020.85715,0.10435
4022.78562,0.10895
4024.71409,0.11247
4026.64256,0.11465
4028.57103,0.11246
4030.49950,0.10578
4032.42797,0.10050
4034.35644,0.09999
4036.28490,0.10076
4038.21337,0.09976
4040.14184,0.09835
4042.07031,0.09672
4043.99878,0.09453
4045.92725,0.09447
4047.85572,0.09548
4049.78418,0.09565
4051.71265,0.09624
4053.64112,0.09490
4055.56959,0.09108
4057.49806,0.08834
4059.42653,0.08865
4061.35500,0.09315
4063.28346,0.10003
4065.21193,0.10503
4067.14040,0.10564
4069.06887,0.10116
4070.99734,0.09559
4072.92581,0.09563
4074.85428,0.09900
4076.78275,0.09702
4078.71121,0.09031
4080.63968,0.08746
4082.56815,0.08999
4084.49662,0.09259
4086.42509,0.09416
4088.35356,0.09584
4090.28203,0.09750
4092.21049,0.09953
4094.13896,0.09963
4096.06743,0.09829
4097.99590,0.10056
4099.92437,0.10173
4101.85284,0.09623
4103.78131,0.09134
4105.70978,0.09082
4107.63824,0.09186
4109.56671,0.09301
4111.49518,0.08928
4113.42365,0.08265
4115.35212,0.08362
4117.28059,0.09054
4119.20906,0.09461
4121.13752,0.09399
4123.06599,0.08945
4124.99446,0.08408
4126.92293,0.08226
4128.85140,0.08434
4130.77987,0.08593
4132.70834,0.08269
4134.63681,0.07700
4136.56527,0.07442
4138.49374,0.07662
4140.42221,0.07851
4142.35068,0.07417
4144.27915,0.06798
4146.20762,0.06710
4148.13609,0.07079
4150.06455,0.07617
4151.99302,0.08170
4153.92149,0.08570
4155.84996,0.08874
4157.77843,0.09084
4159.70690,0.08844
4161.63537,0.08453
4163.56384,0.08370
4165.49230,0.08185
4167.42077,0.07970
4169.34924,0.08108
4171.27771,0.08183
4173.20618,0.07964
4175.13465,0.07956
4177.06312,0.08303
4178.99158,0.08255
4180.92005,0.07664
4182.84852,0.07348
4184.77699,0.07444
4186.70546,0.07393
4188.63393,0.07380
4190.56240,0.07817
4192.49087,0.08078
4194.41933,0.07978
4196.34780,0.07951
4198.27627,0.07637
4200.20474,0.07014
4202.13321,0.06714
4204.06168,0.06862
4205.99015,0.07101
4207.91861,0.07237
4209.84708,0.07313
4211.77555,0.07106
4213.70402,0.06730
4215.63249,0.06853
4217.56096,0.07351
4219.48943,0.07482
4221.41789,0.07192
4223.34636,0.06927
4225.27483,0.06712
4227.20330,0.06154
4229.13177,0.05378
4231.06024,0.05067
4232.98871,0.05257
4234.91718,0.05289
4236.84564,0.05071
4238.77411,0.05188
4240.70258,0.05626
4242.63105,0.05791
4244.55952,0.05761
4246.48799,0.05856
4248.41646,0.06058
4250.34492,0.06472
4252.27339,0.07006
4254.20186,0.07160
4256.13033,0.06999
4258.05880,0.06986
4259.98727,0.06775
4261.91574,0.06090
4263.84421,0.05525
4265.77267,0.05479
4267.70114,0.05614
4269.62961,0.05558
4271.55808,0.05752
4273.48655,0.06371
4275.41502,0.06397
4277.34349,0.05399
4279.27195,0.04534
4281.20042,0.04739
4283.12889,0.05220
4285.05736,0.05154
4286.98583,0.05154
4288.91430,0.05306
4290.84277,0.04964
4292.77124,0.04817
4294.69970,0.05463
4296.62817,0.05913
4298.55664,0.05750
4300.48511,0.05457
4302.41358,0.05066
4304.34205,0.04676
4306.27052,0.04403
4308.19898,0.04290
4310.12745,0.04567
4312.05592,0.04934
4313.98439,0.04694
4315.91286,0.03882
4317.84133,0.03654
4319.76980,0.04103
4321.69827,0.03986
4323.62673,0.03661
4325.55520,0.04129
4327.48367,0.05017
4329.41214,0.05501
4331.34061,0.05357
4333.26908,0.04834
4335.19755,0.04180
4337.12601,0.03737
4339.05448,0.03753
4340.98295,0.04145
4342.91142,0.04333
4344.83989,0.03839
4346.76836,0.03250
4348.69683,0.03259
4350.62530,0.04055
4352.55376,0.04930
4354.48223,0.04628
4356.41070,0.03251
4358.33917,0.02077
4360.26764,0.02079
4362.19611,0.02850
4364.12458,0.03298
4366.05304,0.03406
4367.98151,0.03553
4369.90998,0.03663
4371.83845,0.03735
4373.76692,0.03906
4375.69539,0.03827
4377.62386,0.03393
4379.55232,0.03377
4381.48079,0.03694
4383.40926,0.03603
4385.33773,0.03163
4387.26620,0.02730
4389.19467,0.02394
4391.12314,0.02232
4393.05161,0.02501
4394.98007,0.02919
4396.90854,0.02615
4398.83701,0.01799
4400.76548,0.01594
4402.69395,0.02121
4404.62242,0.02577
4406.55089,0.02340
4408.47935,0.01660
4410.40782,0.01366
4412.33629,0.01634
4414.26476,0.02052
4416.19323,0.02426
4418.12170,0.02690
4420.05017,0.02580
4421.97864,0.02125
4423.90710,0.01757
4425.83557,0.01721
4427.76404,0.01883
4429.69251,0.01753
4431.62098,0.01336
4433.54945,0.01455
4435.47792,0.02044
4437.40638,0.02044
4439.33485,0.01601
4441.26332,0.01359
4443.19179,0.01243
4445.12026,0.01456
4447.04873,0.01702
4448.97720,0.01579
4450.90567,0.01921
4452.83413,0.02902
4454.76260,0.03434
4456.69107,0.03032
4458.61954,0.02218
4460.54801,0.01772
4462.47648,0.01648
4464.40495,0.01329
4466.33341,0.01052
4468.26188,0.01128
4470.19035,0.01326
4472.11882,0.01366
4474.04729,0.01342
4475.97576,0.01515
4477.90423,0.01836
4479.83270,0.02246
4481.76116,0.02581
4483.68963,0.02668
4485.61810,0.02850
4487.54657,0.02911
4489.47504,0.02245
4491.40351,0.01402
4493.33198,0.00836
4495.26044,0.00402
4497.18891,0.00596
4499.11738,0.01245
4501.04585,0.01358
4502.97432,0.00870
4504.90279,0.00619
4506.83126,0.00995
4508.75973,0.00941
4510.68819,-0.00094
4512.61666,-0.00883
4514.54513,-0.00639
4516.47360,0.00145
4518.40207,0.00933
4520.33054,0.01490
4522.25901,0.01660
4524.18747,0.01546
4526.11594,0.01134
4528.04441,0.00343
4529.97288,-0.00328
4531.90135,-0.00586
4533.82982,-0.00564
4535.75829,-0.00161
4537.68676,0.00269
4539.61522,0.00294
4541.54369,0.00550
4543.47216,0.01104
4545.40063,0.00911
4547.32910,0.00194
4549.25757,0.00263
4551.18604,0.01177
4553.11450,0.01786
4555.04297,0.01352
4556.97144,0.00150
4558.89991,-0.00955
4560.82838,-0.01310
4562.75685,-0.00683
4564.68532,0.00713
4566.61378,0.01852
4568.54225,0.01730
4570.47072,0.00757
4572.39919,0.00566
4574.32766,0.01200
4576.25613,0.00943
4578.18460,0.00257
4580.11307,0.00732
4582.04153,0.01425
4583.97000,0.01157
4585.89847,0.00912
4587.82694,0.01268
4589.75541,0.01341
4591.68388,0.00828
4593.61235,0.00345
4595.54081,0.00028
4597.46928,-0.00230
4599.39775,-0.00234
4601.32622,-0.00334
4603.25469,-0.00421
4605.18316,-0.00042
4607.11163,0.00060
4609.04010,-0.00620
4610.96856,-0.01263
4612.89703,-0.00988
4614.82550,0.00047
4616.75397,0.00994
4618.68244,0.01235
4620.61091,0.00965
4622.53938,0.00592
4624.46784,0.00402
4626.39631,0.00604
4628.32478,0.01117
4630.25325,0.01907
4632.18172,0.02455
4634.11019,0.02378
4636.03866,0.01918
4637.96713,0.01185
4639.89559,0.00513
4641.82406,0.00022
4643.75253,-0.00442
4645.68100,-0.00543
4647.60947,-0.00016
4649.53794,0.00445
4651.46641,0.00387
4653.39487,0.00272
4655.32334,0.00092
4657.25181,-0.00258
4659.18028,-0.00637
4661.10875,-0.01225
4663.03722,-0.01548
4664.96569,-0.00833
4666.89416,0.00287
4668.82262,0.00907
4670.75109,0.00541
4672.67956,-0.00395
4674.60803,-0.00629
4676.53650,-0.00288
4678.46497,-0.00413
4680.39344,-0.00989
4682.32190,-0.01058
4684.25037,-0.00191
4686.17884,0.00808
4688.10731,0.01259
4690.03578,0.00883
4691.96425,0.00532
4693.89272,0.01025
4695.82119,0.01741
4697.74965,0.01771
4699.67812,0.01102
4701.60659,0.00305
4703.53506,-0.00059
4705.46353,0.00045
4707.39200,0.00163
4709.32047,0.00075
4711.24893,-0.00340
4713.17740,-0.01154
4715.10587,-0.01334
4717.03434,-0.00090
4718.96281,0.01874
4720.89128,0.03372
4722.81975,0.03396
4724.74821,0.02716
4726.67668,0.02629
4728.60515,0.02580
4730.53362,0.02029
4732.46209,0.01411
4734.39056,0.00919
4736.31903,0.00577
4738.24750,0.00312
4740.17596,-0.00063
4742.10443,-0.00218
4744.03290,0.00021
4745.96137,-0.00098
4747.88984,-0.00707
4749.81831,-0.00644
4751.74678,-0.00159
4753.67524,-0.00433
4755.60371,-0.00662
4757.53218,-0.00159
4759.46065,0.00010
4761.38912,-0.00589
4763.31759,-0.00734
4765.24606,0.00061
4767.17453,0.00607
4769.10299,0.00741
4771.03146,0.01157
4772.95993,0.01309
4774.88840,0.01013
4776.81687,0.01215
4778.74534,0.01748
4780.67381,0.01707
4782.60227,0.01306
4784.53074,0.00719
4786.45921,-0.00426
4788.38768,-0.01112
4790.31615,-0.00130
4792.24462,0.00786
4794.17309,0.00129
4796.10156,-0.00967
4798.03002,-0.01213
4799.95849,-0.00316
4801.88696,0.01126
4803.81543,0.01680
4805.74390,0.00973
4807.67237,0.00150
4809.60084,-0.00140
4811.52930,-0.00390
4813.45777,-0.00833
4815.38624,-0.00418
4817.31471,0.00600
4819.24318,0.00993
4821.17165,0.01344
4823.10012,0.01803
4825.02859,0.01182
4826.95705,-0.00173
4828.88552,-0.00709
4830.81399,-0.00390
4832.74246,0.00073
4834.67093,0.00797
4836.59940,0.01304
4838.52787,0.01112
4840.45633,0.00848
4842.38480,0.00436
4844.31327,-0.00066
4846.24174,0.00112
4848.17021,0.00157
4850.09868,-0.00570
4852.02715,-0.00910
4853.95562,-0.00008
4855.88408,0.01088
4857.81255,0.01056
4859.74102,0.00445
4861.66949,0.00599
4863.59796,0.01544
4865.52643,0.01951
4867.45490,0.01269
4869.38336,0.00485
4871.31183,0.00214
4873.24030,0.00014
4875.16877,-0.00177
4877.09724,0.00222
4879.02571,0.00737
4880.95418,0.00564
4882.88265,0.00181
4884.81111,0.00283
4886.73958,0.00890
4888.66805,0.01471
4890.59652,0.01400
4892.52499,0.00940
4894.45346,0.01335
4896.38193,0.02630
4898.31039,0.03331
4900.23886,0.02575
4902.16733,0.01244
4904.09580,0.00240
4906.02427,-0.00515
4907.95274,-0.00588
4909.88121,-0.00294
4911.80967,-0.00619
4913.73814,-0.01087
4915.66661,-0.00846
4917.59508,-0.00068
4919.52355,0.00468
4921.45202,0.00652
4923.38049,0.00627
4925.30896,0.00533
4927.23742,0.00867
4929.16589,0.01337
4931.09436,0.01438
4933.02283,0.01140
4934.95130,0.00619
4936.87977,0.00409
4938.80824,0.00406
4940.73670,0.00229
4942.66517,0.00053
4944.59364,0.00357
4946.52211,0.01237
4948.45058,0.01904
4950.37905,0.01497
4952.30752,0.00244
4954.23599,-0.01015
4956.16445,-0.01725
4958.09292,-0.01526
4960.02139,-0.00656
4961.94986,-0.00102
4963.87833,-0.00232
4965.80680,-0.00118
4967.73527,0.00484
4969.66373,0.00553
4971.59220,0.00501
4973.52067,0.01426
4975.44914,0.02666
4977.37761,0.03006
4979.30608,0.02506
4981.23455,0.02638
4983.16302,0.03889
4985.09148,0.04115
4987.01995,0.02188
4988.94842,0.00031
4990.87689,-0.00796
4992.80536,-0.00651
4994.73383,-0.00631
4996.66230,-0.01083
4998.59076,-0.00454
5000.51923,0.00786
5002.44770,0.00543
5004.37617,0.00057
5006.30464,0.00699
5008.23311,0.01545
5010.16158,0.02229
5012.09005,0.02768
5014.01851,0.02470
5015.94698,0.01106
5017.87545,0.00317
5019.80392,0.00885
5021.73239,0.01346
5023.66086,0.01329
5025.58933,0.01484
5027.51779,0.01575
5029.44626,0.01548
5031.37473,0.01453
5033.30320,0.00948
5035.23167,-0.00138
5037.16014,-0.01181
5039.08861,-0.00494
5041.01708,0.02025
5042.94554,0.03991
5044.87401,0.04060
5046.80248,0.03364
5048.73095,0.02836
5050.65942,0.01865
5052.58789,0.00865
5054.51636,0.00854
5056.44482,0.01416
5058.37329,0.01449
5060.30176,0.01002
5062.23023,0.01059
5064.15870,0.01199
5066.08717,0.00099
5068.01564,-0.01610
5069.94410,-0.02229
5071.87257,-0.01901
5073.80104,-0.00881
5075.72951,0.00948
5077.65798,0.02060
5079.58645,0.01771
5081.51492,0.01489
5083.44339,0.01821
5085.37185,0.02230
5087.30032,0.02654
5089.22879,0.03046
5091.15726,0.03063
5093.08573,0.02521
5095.01420,0.01489
5096.94267,0.00366
5098.87113,-0.00302
5100.79960,0.00356
5102.72807,0.02593
5104.65654,0.04471
5106.58501,0.03949
5108.51348,0.02588
5110.44195,0.03056
5112.37042,0.04279
5114.29888,0.03676
5116.22735,0.01613
5118.15582,0.00238
5120.08429,0.00084
5122.01276,0.00535
5123.94123,0.01319
5125.86970,0.01659
5127.79816,0.01138
5129.72663,0.00297
5131.65510,-0.00095
5133.58357,0.00630
5135.51204,0.01198
5137.44051,0.01035
5139.36898,0.01803
5141.29745,0.02221
5143.22591,0.00785
5145.15438,-0.00436
5147.08285,-0.00312
5149.01132,0.00839
5150.93979,0.02575
5152.86826,0.03239
5154.79673,0.02087
5156.72519,0.00950
5158.65366,0.01343
5160.58213,0.02336
5162.51060,0.02911
5164.43907,0.02926
5166.36754,0.02301
5168.29601,0.01299
5170.22448,0.00963
5172.15294,0.02062
5174.08141,0.03293
5176.00988,0.03733
5177.93835,0.04331
5179.86682,0.04263
5181.79529,0.03208
5183.72376,0.03359
5185.65222,0.04544
5187.58069,0.05654
5189.50916,0.06719
5191.43763,0.06953
5193.36610,0.06220
5195.29457,0.05742
5197.22304,0.05958
5199.15151,0.05089
5201.07997,0.02679
5203.00844,0.01504
5204.93691,0.02608
5206.86538,0.03582
5208.79385,0.02799
5210.72232,0.02023
5212.65079,0.02483
5214.57925,0.03236
5216.50772,0.03144
5218.43619,0.03243
5220.36466,0.05524
5222.29313,0.08333
5224.22160,0.08706
5226.15007,0.06936
5228.07854,0.04875
5230.00700,0.02882
5231.93547,0.01567
5233.86394,0.01897
5235.79241,0.03099
5237.72088,0.04155
5239.64935,0.04105
5241.57782,0.02767
5243.50628,0.02384
5245.43475,0.04288
5247.36322,0.06986
5249.29169,0.07735
5251.22016,0.05077
5253.14863,0.02253
5255.07710,0.02295
5257.00556,0.03295
5258.93403,0.02687
5260.86250,0.01012
5262.79097,0.00414
5264.71944,0.02361
5266.64791,0.04295
5268.57638,0.03724
5270.50485,0.03316
5272.43331,0.04283
5274.36178,0.03488
5276.29025,0.00831
5278.21872,-0.00270
5280.14719,0.01785
5282.07566,0.04505
5284.00413,0.05425
5285.93259,0.05888
5287.86106,0.06592
5289.78953,0.06173
5291.71800,0.04679
5293.64647,0.02801
5295.57494,0.02003
5297.50341,0.04219
5299.43188,0.07354
5301.36034,0.07752
5303.28881,0.06444
5305.21728,0.06388
5307.14575,0.07954
5309.07422,0.09084
5311.00269,0.08237
5312.93116,0.06779
5314.85962,0.05741
5316.78809,0.04204
5318.71656,0.02825
5320.64503,0.03767
5322.57350,0.05421
5324.50197,0.04529
5326.43044,0.02790
5328.35891,0.02532
5330.28737,0.02662
5332.21584,0.03127
5334.14431,0.04094
5336.07278,0.04845
5338.00125,0.05094
5339.92972,0.05335
5341.85819,0.06310
5343.78665,0.06954
5345.71512,0.05815
5347.64359,0.04787
5349.57206,0.05743
5351.50053,0.08144
5353.42900,0.09990
5355.35747,0.09336
5357.28594,0.07665
5359.21440,0.06654
5361.14287,0.06744
5363.07134,0.07811
5364.99981,0.08201
5366.92828,0.07763
5368.85675,0.07110
5370.78522,0.06293
5372.71368,0.06848
5374.64215,0.08720
5376.57062,0.08509
5378.49909,0.06475
5380.42756,0.05832
5382.35603,0.05458
5384.28450,0.05084
5386.21297,0.06701
5388.14143,0.08466
5390.06990,0.08905
5391.99837,0.08745
5393.92684,0.08004
5395.85531,0.07710
5397.78378,0.07393
5399.71225,0.05359
5401.64071,0.04131
5403.56918,0.06094
5405.49765,0.08269
5407.42612,0.08044
5409.35459,0.07251
5411.28306,0.07667
5413.21153,0.07924
5415.13999,0.05998
5417.06846,0.02422
5418.99693,0.00205
5420.92540,0.00864
5422.85387,0.02210
5424.78234,0.02182
5426.71081,0.01528
5428.63928,0.03069
5430.56774,0.06308
5432.49621,0.06369
5434.42468,0.03140
5436.35315,0.01895
5438.28162,0.03371
5440.21009,0.05091
5442.13856,0.05819
5444.06702,0.04349
5445.99549,0.01995
5447.92396,0.01831
5449.85243,0.03839
5451.78090,0.04754
5453.70937,0.04335
5455.63784,0.05138
5457.56631,0.06374
5459.49477,0.05810
5461.42324,0.05218
5463.35171,0.05895
5465.28018,0.05466
5467.20865,0.04536
5469.13712,0.05613
5471.06559,0.07034
5472.99405,0.06847
5474.92252,0.05377
5476.85099,0.04509
5478.77946,0.05523
5480.70793,0.06594
5482.63640,0.05986
5484.56487,0.04783
5486.49334,0.04362
5488.42180,0.04395
5490.35027,0.04479
5492.27874,0.04687
5494.20721,0.05525
5496.13568,0.07172
5498.06415,0.08320
5499.99262,0.08446
5501.92108,0.09536
5503.84955,0.11131
5505.77802,0.10794
5507.70649,0.09227
5509.63496,0.07956
5511.56343,0.07600
5513.49190,0.08450
5515.42037,0.08215
5517.34883,0.06708
5519.27730,0.06739
5521.20577,0.06292
5523.13424,0.03784
5525.06271,0.02062
5526.99118,0.01910
5528.91965,0.02070
5530.84811,0.01975
5532.77658,0.02816
5534.70505,0.04447
5536.63352,0.05181
5538.56199,0.05758
5540.49046,0.06679
5542.41893,0.07090
5544.34740,0.07331
5546.27586,0.08213
5548.20433,0.10265
5550.13280,0.12750
5552.06127,0.13685
5553.98974,0.13498
5555.91821,0.13358
5557.84668,0.11674
5559.77514,0.08452
5561.70361,0.07000
5563.63208,0.08156
5565.56055,0.08028
5567.48902,0.06098
5569.41749,0.05280
5571.34596,0.04606
5573.27443,0.03938
5575.20289,0.05126
5577.13136,0.06691
5579.05983,0.07476
5580.98830,0.08252
5582.91677,0.08789
5584.84524,0.08679
5586.77371,0.08113
5588.70217,0.07548
5590.63064,0.07266
5592.55911,0.07359
5594.48758,0.07406
5596.41605,0.06774
5598.34452,0.06899
5600.27299,0.07927
5602.20145,0.07793
5604.12992,0.07158
5606.05839,0.07458
5607.98686,0.08143
5609.91533,0.07940
5611.84380,0.07236
5613.77227,0.08158
5615.70074,0.10305
5617.62920,0.11122
5619.55767,0.10007
5621.48614,0.08674
5623.41461,0.08244
5625.34308,0.07855
5627.27155,0.06694
5629.20002,0.05517
5631.12848,0.06445
5633.05695,0.09666
5634.98542,0.11878
5636.91389,0.11458
5638.84236,0.09710
5640.77083,0.07211
5642.69930,0.05018
5644.62777,0.04432
5646.55623,0.05490
5648.48470,0.07744
5650.41317,0.08797
5652.34164,0.07895
5654.27011,0.07873
5656.19858,0.07527
5658.12705,0.06069
5660.05551,0.06440
5661.98398,0.07580
5663.91245,0.06565
5665.84092,0.04948
5667.76939,0.05543
5669.69786,0.07775
5671.62633,0.09576
5673.55480,0.10123
5675.48326,0.09831
5677.41173,0.09409
5679.34020,0.09158
5681.26867,0.09191
5683.19714,0.09663
5685.12561,0.10435
5687.05408,0.10571
5688.98254,0.09900
5690.91101,0.08364
5692.83948,0.06611
5694.76795,0.07342
5696.69642,0.08874
5698.62489,0.08038
5700.55336,0.07706
5702.48183,0.08028
5704.41029,0.06707
5706.33876,0.06972
5708.26723,0.10072
5710.19570,0.12861
5712.12417,0.13615
5714.05264,0.12551
5715.98111,0.11880
5717.90957,0.12328
5719.83804,0.12590
5721.76651,0.12466
5723.69498,0.11194
5725.62345,0.08635
5727.55192,0.06674
5729.48039,0.06407
5731.40886,0.06664
5733.33732,0.07152
5735.26579,0.09133
5737.19426,0.12120
5739.12273,0.13786
5741.05120,0.12027
5742.97967,0.07233
5744.90814,0.04277
5746.83660,0.06756
5748.76507,0.10446
5750.69354,0.10477
5752.62201,0.09631
5754.55048,0.10445
5756.47895,0.10477
5758.40742,0.07774
5760.33588,0.03575
5762.26435,0.02494
5764.19282,0.05424
5766.12129,0.06621
5768.04976,0.05739
5769.97823,0.05827
5771.90670,0.06428
5773.83517,0.09264
5775.76363,0.13082
5777.69210,0.13065
5779.62057,0.10790
5781.54904,0.08649
5783.47751,0.06265
5785.40598,0.05642
5787.33445,0.06859
5789.26291,0.07656
5791.19138,0.08207
5793.11985,0.07634
5795.04832,0.05366
5796.97679,0.04038
5798.90526,0.04628
5800.83373,0.05978
5802.76220,0.07057
5804.69066,0.06315
5806.61913,0.04778
5808.54760,0.05659
5810.47607,0.07967
5812.40454,0.09605
5814.33301,0.10793
5816.26148,0.10907
5818.18994,0.09544
5820.11841,0.07590
5822.04688,0.05930
5823.97535,0.05570
5825.90382,0.07970
5827.83229,0.12289
5829.76076,0.14400
5831.68923,0.12826
5833.61769,0.08915
5835.54616,0.04523
5837.47463,0.02423
5839.40310,0.03248
5841.33157,0.06085
5843.26004,0.09579
5845.18851,0.11201
5847.11697,0.10683
5849.04544,0.09765
5850.97391,0.09500
5852.90238,0.09648
5854.83085,0.08152
5856.75932,0.05490
5858.68779,0.04716
5860.61626,0.04456
5862.54472,0.03183
5864.47319,0.03377
5866.40166,0.05324
5868.33013,0.06987
5870.25860,0.06528
5872.18707,0.04659
5874.11554,0.05134
5876.04400,0.09140
5877.97247,0.12952
5879.90094,0.11834
5881.82941,0.08501
5883.75788,0.08868
5885.68635,0.11068
5887.61482,0.11700
5889.54329,0.09465
5891.47175,0.05214
5893.40022,0.03854
5895.32869,0.06264
5897.25716,0.07580
5899.18563,0.07986
5901.11410,0.10413
5903.04257,0.12387
5904.97103,0.12252
5906.89950,0.11333
5908.82797,0.09783
5910.75644,0.07208
5912.68491,0.04254
5914.61338,0.03299
5916.54185,0.05638
5918.47032,0.07789
5920.39878,0.06014
5922.32725,0.03172
5924.25572,0.03054
5926.18419,0.06040
5928.11266,0.10154
5930.04113,0.11262
5931.96960,0.07902
5933.89806,0.04691
5935.82653,0.05600
5937.75500,0.06835
5939.68347,0.06722
5941.61194,0.08347
5943.54041,0.10031
5945.46888,0.08309
5947.39734,0.06042
5949.32581,0.07051
5951.25428,0.08901
5953.18275,0.08643
5955.11122,0.07560
5957.03969,0.07999
5958.96816,0.09797
5960.89663,0.10647
5962.82509,0.10828
5964.75356,0.10131
5966.68203,0.07306
5968.61050,0.04245
5970.53897,0.03381
5972.46744,0.04561
5974.39591,0.06233
5976.32437,0.06633
5978.25284,0.04752
5980.18131,0.02905
5982.10978,0.03660
5984.03825,0.06027
5985.96672,0.09410
5987.89519,0.12595
5989.82366,0.13743
5991.75212,0.14022
5993.68059,0.12799
5995.60906,0.09371
5997.53753,0.07031
5999.46600,0.06447
6001.39447,0.05812
6003.32294,0.05521
6005.25140,0.06848
6007.17987,0.07470
6009.10834,0.05799
6011.03681,0.05399
6012.96528,0.06270
6014.89375,0.06086
6016.82222,0.05929
6018.75069,0.05527
6020.67915,0.03726
6022.60762,0.02182
6024.53609,0.03919
6026.46456,0.08100
6028.39303,0.09709
6030.32150,0.07766
6032.24997,0.07364
6034.17843,0.10574
6036.10690,0.12240
6038.03537,0.11228
6039.96384,0.11432
6041.89231,0.10662
6043.82078,0.09003
6045.74925,0.10486
6047.67772,0.11891
6049.60618,0.09293
6051.53465,0.07550
6053.46312,0.10082
6055.39159,0.12982
6057.32006,0.13894
6059.24853,0.15813
6061.17700,0.18338
6063.10546,0.16580
6065.03393,0.11804
6066.96240,0.08792
6068.89087,0.08515
6070.81934,0.07665
6072.74781,0.01303
6074.67628,-0.05417
6076.60475,-0.03058
6078.53321,0.04955
6080.46168,0.10144
6082.39015,0.10517
6084.31862,0.08771
6086.24709,0.07365
6088.17556,0.06985
6090.10403,0.07234
6092.03249,0.06464
6093.96096,0.04184
6095.88943,0.04782
6097.81790,0.08886
6099.74637,0.09052
6101.67484,0.05643
6103.60331,0.04657
6105.53177,0.04848
6107.46024,0.05084
6109.38871,0.04929
6111.31718,0.03962
6113.24565,0.04561
6115.17412,0.06255
6117.10259,0.07889
6119.03106,0.07479
6120.95952,0.03061
6122.88799,0.01024
6124.81646,0.04207
6126.74493,0.05746
6128.67340,0.05108
6130.60187,0.06552
6132.53034,0.06918
6134.45880,0.04360
6136.38727,0.03264
6138.31574,0.06215
6140.24421,0.08719
6142.17268,0.09472
6144.10115,0.11057
6146.02962,0.10436
6147.95809,0.09615
6149.88655,0.11625
6151.81502,0.10749
6153.74349,0.06083
6155.67196,0.04232
6157.60043,0.06931
6159.52890,0.10522
6161.45737,0.08693
6163.38583,0.01272
6165.31430,-0.03166
6167.24277,-0.01482
6169.17124,0.01035
6171.09971,0.01489
6173.02818,0.02641
6174.95665,0.05814
6176.88512,0.08019
6178.81358,0.10205
6180.74205,0.14380
6182.67052,0.16375
6184.59899,0.15025
6186.52746,0.14283
6188.45593,0.14805
6190.38440,0.12152
6192.31286,0.06829
6194.24133,0.04928
6196.16980,0.05135
6198.09827,0.02674
6200.02674,0.01014
6201.95521,0.05618
6203.88368,0.13263
6205.81215,0.14780
6207.74061,0.12639
6209.66908,0.13936
6211.59755,0.14430
6213.52602,0.10944
6215.45449,0.06427
6217.38296,0.00950
6219.31143,-0.03296
6221.23989,-0.01989
6223.16836,0.04793
6225.09683,0.09650
6227.02530,0.07896
6228.95377,0.04067
6230.88224,0.00389
6232.81071,-0.02592
6234.73918,-0.02298
6236.66764,-0.00621
6238.59611,0.01202
6240.52458,0.04794
6242.45305,0.06768
6244.38152,0.05191
6246.30999,0.05523
6248.23846,0.08705
6250.16692,0.09980
6252.09539,0.07663
6254.02386,0.06570
6255.95233,0.10015
6257.88080,0.13309
6259.80927,0.11617
6261.73774,0.07566
6263.66621,0.05838
6265.59467,0.06624
6267.52314,0.05845
6269.45161,0.02981
6271.38008,0.02416
6273.30855,0.04496
6275.23702,0.06136
6277.16549,0.06948
6279.09395,0.07093
6281.02242,0.07873
6282.95089,0.09747
6284.87936,0.10756
6286.80783,0.09626
6288.73630,0.07445
6290.66477,0.07384
6292.59323,0.08245
6294.52170,0.07768
6296.45017,0.08897
6298.37864,0.12781
6300.30711,0.16257
6302.23558,0.16135
6304.16405,0.11211
6306.09252,0.03418
6308.02098,-0.00976
6309.94945,0.00058
6311.87792,0.01598
6313.80639,0.03751
6315.73486,0.06563
6317.66333,0.06792
6319.59180,0.07021
6321.52026,0.09810
6323.44873,0.12043
6325.37720,0.11403
6327.30567,0.10207
6329.23414,0.10634
6331.16261,0.10327
6333.09108,0.09178
6335.01955,0.09623
6336.94801,0.10110
6338.87648,0.10170
6340.80495,0.11378
6342.73342,0.11463
6344.66189,0.08099
6346.59036,0.02679
6348.51883,-0.02543
6350.44729,-0.05210
6352.37576,-0.02988
6354.30423,0.01466
6356.23270,0.02954
6358.16117,-0.00497
6360.08964,-0.04413
6362.01811,-0.01646
6363.94658,0.05733
6365.87504,0.08219
6367.80351,0.03568
6369.73198,-0.00747
6371.66045,0.00231
6373.58892,0.02208
6375.51739,0.02556
6377.44586,0.02994
6379.37432,0.02088
6381.30279,0.02576
6383.23126,0.07449
6385.15973,0.10668
6387.08820,0.09395
6389.01667,0.08690
6390.94514,0.09820
6392.87361,0.10226
6394.80207,0.09005
6396.73054,0.06702
6398.65901,0.05638
6400.58748,0.06152
6402.51595,0.04277
6404.44442,0.00877
6406.37289,0.00430
6408.30135,0.02028
6410.22982,0.05142
6412.15829,0.10033
6414.08676,0.10811
6416.01523,0.07591
6417.94370,0.06766
6419.87217,0.07630
6421.80064,0.06441
6423.72910,0.04327
6425.65757,0.03040
6427.58604,0.04522
6429.51451,0.06037
6431.44298,0.04319
6433.37145,0.04395
6435.29992,0.07640
6437.22838,0.10063
6439.15685,0.08077
6441.08532,0.04515
6443.01379,0.06837
6444.94226,0.13223
6446.87073,0.15811
6448.79920,0.13441
6450.72766,0.08583
6452.65613,0.05104
6454.58460,0.05403
6456.51307,0.08998
6458.44154,0.13541
6460.37001,0.13970
6462.29848,0.08392
6464.22695,0.02766
6466.15541,0.00723
6468.08388,0.01012
6470.01235,0.00652
6471.94082,-0.00832
6473.86929,0.00197
6475.79776,0.02228
6477.72623,0.04438
6479.65469,0.06889
6481.58316,0.03903
6483.51163,-0.01843
6485.44010,-0.01282
6487.36857,0.04570
6489.29704,0.09653
6491.22551,0.13471
6493.15398,0.18944
6495.08244,0.22363
6497.01091,0.20542
6498.93938,0.19455
6500.86785,0.19620
6502.79632,0.13077
6504.72479,0.02339
6506.65326,-0.04863
6508.58172,-0.06352
6510.51019,-0.04273
6512.43866,-0.02713
6514.36713,-0.02422
6516.29560,-0.00971
6518.22407,-0.00086
6520.15254,-0.02845
6522.08101,-0.05643
6524.00947,-0.02167
6525.93794,0.05321
6527.86641,0.08832
6529.79488,0.06335
6531.72335,0.01862
6533.65182,0.02370
6535.58029,0.07361
6537.50875,0.09340
6539.43722,0.05787
6541.36569,0.00633
6543.29416,0.00036
6545.22263,0.06896
6547.15110,0.15239
6549.07957,0.16439
6551.00804,0.07790
6552.93650,-0.00731
6554.86497,0.02052
6556.79344,0.10115
6558.72191,0.10013
6560.65038,0.04913
6562.57885,0.03710
6564.50732,0.04143
6566.43578,0.04163
6568.36425,0.05823
6570.29272,0.07320
6572.22119,0.05219
6574.14966,0.01427
6576.07813,0.00817
6578.00660,0.01127
6579.93507,0.00829
6581.86353,0.06161
6583.79200,0.13395
6585.72047,0.15752
6587.64894,0.17236
6589.57741,0.19207
6591.50588,0.18989
6593.43435,0.16577
6595.36281,0.13617
6597.29128,0.08485
6599.21975,0.01617
6601.14822,-0.02412
6603.07669,-0.02719
6605.00516,0.00764
6606.93363,0.06408
6608.86210,0.06348
6610.79056,0.00914
6612.71903,-0.01147
6614.64750,-0.00341
6616.57597,-0.00544
6618.50444,0.02680
6620.43291,0.07679
6622.36138,0.06562
6624.28984,0.02495
6626.21831,0.01662
6628.14678,0.01885
6630.07525,0.02279
6632.00372,0.04202
6633.93219,0.07262
6635.86066,0.09112
6637.78912,0.10287
6639.71759,0.12290
6641.64606,0.09587
6643.57453,0.03993
6645.50300,0.05209
6647.43147,0.09332
6649.35994,0.07318
6651.28841,0.02166
6653.21687,-0.01143
6655.14534,-0.02685
6657.07381,-0.01482
6659.00228,0.03827
6660.93075,0.06412
6662.85922,0.05903
6664.78769,0.10553
6666.71615,0.16072
6668.64462,0.13866
6670.57309,0.10252
6672.50156,0.11053
6674.43003,0.10731
6676.35850,0.09402
6678.28697,0.07351
6680.21544,0.02750
6682.14390,0.00161
6684.07237,0.03222
6686.00084,0.10290
6687.92931,0.14419
6689.85778,0.09467
6691.78625,0.01919
6693.71472,-0.00614
6695.64318,0.02118
6697.57165,0.06691
6699.50012,0.07993
6701.42859,0.02211
6703.35706,-0.03578
6705.28553,0.00173
6707.21400,0.06631
6709.14247,0.08634
6711.07093,0.09228
6712.99940,0.10665
6714.92787,0.13197
6716.85634,0.14287
6718.78481,0.11462
6720.71328,0.06817
6722.64175,0.01713
6724.57021,-0.02736
6726.49868,-0.01924
6728.42715,0.02165
6730.35562,0.02237
6732.28409,0.03618
6734.21256,0.11016
6736.14103,0.11661
6738.06950,0.04197
6739.99796,-0.00906
6741.92643,-0.01576
6743.85490,0.01678
6745.78337,0.06707
6747.71184,0.10293
6749.64031,0.11544
6751.56878,0.10363
6753.49724,0.06654
6755.42571,0.03057
6757.35418,0.03873
6759.28265,0.07704
6761.21112,0.08174
6763.13959,0.07687
6765.06806,0.10425
6766.99653,0.12140
6768.92499,0.11532
6770.85346,0.11357
6772.78193,0.12533
6774.71040,0.13611
6776.63887,0.10382
6778.56734,0.05479
6780.49581,0.04307
6782.42427,0.03213
6784.35274,-0.01788
6786.28121,-0.05492
6788.20968,-0.02533
6790.13815,0.04153
6792.06662,0.07464
6793.99509,0.04207
6795.92355,-0.01312
6797.85202,-0.03549
6799.78049,-0.00130
6801.70896,0.08591
6803.63743,0.14988
6805.56590,0.15235
6807.49437,0.16292
6809.42284,0.17621
6811.35130,0.13470
6813.27977,0.07426
6815.20824,0.04283
6817.13671,0.03479
6819.06518,0.07537
6820.99365,0.13153
6822.92212,0.14878
6824.85058,0.15304
6826.77905,0.15110
6828.70752,0.15133
6830.63599,0.15129
6832.56446,0.11715
6834.49293,0.10444
6836.42140,0.12715
6838.34987,0.11491
6840.27833,0.10012
6842.20680,0.11117
6844.13527,0.07604
6846.06374,-0.00988
6847.99221,-0.02967
6849.92068,0.07372
6851.84915,0.15550
6853.77761,0.12318
6855.70608,0.06061
6857.63455,0.08400
6859.56302,0.11987
6861.49149,0.09551
6863.41996,0.09343
6865.34843,0.12841
6867.27690,0.09701
6869.20536,0.02652
6871.13383,0.01419
6873.06230,0.01834
6874.99077,-0.03235
6876.91924,-0.10083
6878.84771,-0.12949
6880.77618,-0.08033
6882.70464,-0.01534
6884.63311,0.03978
6886.56158,0.12382
6888.49005,0.15611
6890.41852,0.09622
6892.34699,0.03710
6894.27546,0.01245
6896.20393,0.04019
6898.13239,0.12629
6900.06086,0.12608
6901.98933,0.02561
6903.91780,-0.02833
6905.84627,0.00576
6907.77474,0.03778
6909.70321,0.03591
6911.63167,0.05926
6913.56014,0.11483
6915.48861,0.10990
6917.41708,0.01811
6919.34555,-0.04909
6921.27402,-0.00654
6923.20249,0.01211
6925.13096,-0.03932
6927.05942,-0.07070
6928.98789,-0.04699
6930.91636,-0.01755
6932.84483,-0.07397
6934.77330,-0.14671
6936.70177,-0.11813
6938.63024,-0.04995
6940.55870,-0.04917
6942.48717,-0.06421
6944.41564,0.01107
6946.34411,0.13896
6948.27258,0.18222
6950.20105,0.15875
6952.12952,0.18687
6954.05799,0.22582
6955.98645,0.20775
6957.91492,0.17722
6959.84339,0.12986
6961.77186,0.07245
6963.70033,0.06823
6965.62880,0.06937
6967.55727,-0.01190
6969.48573,-0.10434
6971.41420,-0.04161
6973.34267,0.12062
6975.27114,0.17274
6977.19961,0.10262
6979.12808,0.02157
6981.05655,-0.01146
6982.98501,0.02275
6984.91348,0.05467
6986.84195,0.03438
6988.77042,0.01305
6990.69889,0.00402
6992.62736,0.00780
6994.55583,0.07291
6996.48430,0.18077
6998.41276,0.22732
7000.34123,0.15793
7002.26970,0.02914
7004.19817,-0.05742
7006.12664,-0.05952
7008.05511,0.01229
7009.98358,0.12354
7011.91204,0.21618
7013.84051,0.22622
7015.76898,0.20003
7017.69745,0.18534
7019.62592,0.16046
7021.55439,0.15640
7023.48286,0.15928
7025.41133,0.13349
7027.33979,0.08797
7029.26826,0.02657
7031.19673,-0.01707
7033.12520,-0.07470
7035.05367,-0.16622
7036.98214,-0.20834
7038.91061,-0.16742
7040.83907,-0.04734
7042.76754,0.09000
7044.69601,0.15170
7046.62448,0.22823
7048.55295,0.30466
7050.48142,0.22565
7052.40989,0.06108
7054.33836,-0.07454
7056.26682,-0.15566
7058.19529,-0.09041
7060.12376,0.03458
7062.05223,0.07754
7063.98070,0.08740
7065.90917,0.05302
7067.83764,-0.00735
7069.76610,-0.00648
7071.69457,0.00296
7073.62304,-0.02833
7075.55151,-0.03356
7077.47998,-0.02377
7079.40845,-0.00661
7081.33692,0.10785
7083.26539,0.27072
7085.19385,0.31433
7087.12232,0.25662
7089.05079,0.20967
7090.97926,0.21652
7092.90773,0.20811
7094.83620,0.10721
7096.76467,0.00142
7098.69313,-0.01272
7100.62160,0.00019
7102.55007,0.01319
7104.47854,0.04204
7106.40701,0.10292
7108.33548,0.15862
7110.26395,0.10220
7112.19242,-0.02229
7114.12088,-0.04081
7116.04935,0.07609
7117.97782,0.15557
7119.90629,0.13936
7121.83476,0.15040
7123.76323,0.14069
7125.69170,0.08744
7127.62016,0.05163
7129.54863,0.02998
7131.47710,0.02103
7133.40557,0.03329
7135.33404,0.05660
7137.26251,0.09793
7139.19098,0.09538
7141.11944,0.00182
7143.04791,-0.08272
7144.97638,-0.10239
7146.90485,-0.06904
7148.83332,-0.01038
7150.76179,0.05051
7152.69026,0.16342
7154.61873,0.32471
7156.54719,0.39422
7158.47566,0.35891
7160.40413,0.27015
7162.33260,0.14223
7164.26107,0.02945
7166.18954,-0.04386
7168.11801,-0.09570
7170.04647,-0.06785
7171.97494,0.07368
7173.90341,0.16310
7175.83188,0.13544
7177.76035,0.12072
7179.68882,0.09820
7181.61729,-0.00387
7183.54576,-0.02435
7185.47422,0.10892
7187.40269,0.20460
7189.33116,0.21916
7191.25963,0.17947
7193.18810,0.08771
7195.11657,0.04514
7197.04504,0.01332
7198.97350,-0.02608
7200.90197,0.06799
7202.83044,0.21680
7204.75891,0.21738
7206.68738,0.17827
7208.61585,0.23009
7210.54432,0.25828
7212.47279,0.22850
7214.40125,0.19248
7216.32972,0.14998
7218.25819,0.06016
7220.18666,-0.01410
7222.11513,-0.02841
7224.04360,0.02361
7225.97207,0.14175
7227.90053,0.15343
7229.82900,-0.04200
7231.75747,-0.20073
7233.68594,-0.17750
7235.61441,-0.10333
7237.54288,-0.02347
7239.47135,0.03108
7241.39982,-0.01743
7243.32828,-0.12077
7245.25675,-0.08314
7247.18522,0.02300
7249.11369,0.03970
7251.04216,-0.05787
7252.97063,-0.08207
7254.89910,0.02214
7256.82756,0.07981
7258.75603,0.14304
7260.68450,0.19144
7262.61297,0.11032
7264.54144,0.00069
7266.46991,0.00541
7268.39838,0.07750
7270.32685,0.05582
7272.25531,-0.07634
7274.18378,-0.07329
7276.11225,0.05312
7278.04072,0.20990
7279.96919,0.28757
7281.89766,0.13495
7283.82613,-0.02189
7285.75459,-0.06743
7287.68306,-0.06634
7289.61153,-0.00212
7291.54000,0.06546
7293.46847,0.11065
7295.39694,0.15705
7297.32541,0.07096
7299.25387,-0.04086
7301.18234,-0.02372
7303.11081,0.04205
7305.03928,0.13339
7306.96775,0.22002
7308.89622,0.14198
7310.82469,0.08889
7312.75316,0.18827
7314.68162,0.20830
7316.61009,0.11791
7318.53856,0.10184
7320.46703,0.09271
7322.39550,0.01632
7324.32397,-0.01597
7326.25244,0.08215
7328.18090,0.26440
7330.10937,0.28690
7332.03784,0.17074
7333.96631,0.17258
7335.89478,0.18484
7337.82325,0.18504
7339.75172,0.34520
7341.68019,0.44963
7343.60865,0.29454
7345.53712,0.07888
7347.46559,-0.03387
7349.39406,-0.03585
7351.32253,-0.01682
7353.25100,0.04224
7355.17947,0.13139
7357.10793,0.10705
7359.03640,-0.07837
7360.96487,-0.17214
7362.89334,-0.11028
7364.82181,0.01486
7366.75028,0.16301
7368.67875,0.18788
7370.60722,0.12072
7372.53568,0.16826
7374.46415,0.28725
7376.39262,0.23611
7378.32109,0.08241
7380.24956,-0.04536
7382.17803,-0.11126
7384.10650,-0.11649
7386.03496,-0.11884
7387.96343,-0.07333
7389.89190,0.02410
7391.82037,0.10362
7393.74884,0.15938
7395.67731,0.18390
7397.60578,0.20868
7399.53425,0.28762
7401.46271,0.36836
7403.39118,0.35899
7405.31965,0.24960
7407.24812,0.09848
7409.17659,-0.03143
7411.10506,-0.02478
7413.03353,0.07715
7414.96199,0.17353
7416.89046,0.21694
7418.81893,0.12846
7420.74740,0.07038
7422.67587,0.15406
7424.60434,0.18817
7426.53281,0.13426
7428.46128,0.08642
7430.38974,0.06912
7432.31821,0.04844
7434.24668,0.04299
7436.17515,0.03908
7438.10362,0.04419
7440.03209,0.04379
7441.96056,-0.01399
7443.88902,-0.02553
7445.81749,0.04805
7447.74596,0.08364
7449.67443,0.09007
7451.60290,0.14779
7453.53137,0.16287
7455.45984,0.11195
7457.38831,0.01083
7459.31677,-0.15154
7461.24524,-0.14032
7463.17371,0.13761
7465.10218,0.36134
7467.03065,0.26316
7468.95912,0.05304
7470.88759,-0.00143
7472.81605,0.05089
7474.74452,0.07689
7476.67299,0.11572
7478.60146,0.18421
7480.52993,0.18923
7482.45840,0.10110
7484.38687,0.05755
7486.31533,0.09850
7488.24380,0.09732
7490.17227,0.05889
7492.10074,0.04471
7494.02921,0.03404
7495.95768,0.05376
7497.88615,0.08718
