399.19301,1.02786
401.12148,-0.08167
403.04995,-0.04404
404.97842,0.06419
406.90689,0.07962
408.83536,0.10210
410.76382,0.09247
412.69229,0.01317
414.62076,-0.01853
416.54923,0.04178
418.47770,0.10439
420.40617,0.02560
422.33464,-0.07645
424.26311,-0.06631
426.19157,0.06427
428.12004,0.17392
430.04851,0.17909
431.97698,0.12742
433.90545,0.08322
435.83392,0.04590
437.76239,0.06644
439.69085,0.16617
441.61932,0.22026
443.54779,0.15047
445.47626,0.09051
447.40473,0.07393
449.33320,0.02701
451.26167,-0.01497
453.19013,0.02800
455.11860,0.12773
457.04707,0.18367
458.97554,0.14073
460.90401,0.06516
462.83248,0.04676
464.76095,0.06144
466.68942,0.02869
468.61788,-0.01216
470.54635,0.01484
472.47482,0.09371
474.40329,0.13710
476.33176,0.11043
478.26023,0.06756
480.18870,0.03668
482.11716,0.03527
484.04563,0.05616
485.97410,0.05990
487.90257,0.06067
489.83104,0.10435
491.75951,0.15292
493.68798,0.14559
495.61645,0.08430
497.54491,0.04925
499.47338,0.07831
501.40185,0.10261
503.33032,0.09446
505.25879,0.08393
507.18726,0.07040
509.11573,0.06475
511.04419,0.08718
512.97266,0.11221
514.90113,0.11440
516.82960,0.11365
518.75807,0.12926
520.68654,0.13762
522.61501,0.12132
524.54348,0.09283
526.47194,0.06379
528.40041,0.05205
530.32888,0.07671
532.25735,0.10564
534.18582,0.10038
536.11429,0.08119
538.04276,0.06727
539.97122,0.05681
541.89969,0.06820
543.82816,0.10009
545.75663,0.10766
547.68510,0.07667
549.61357,0.03539
551.54204,-0.02473
553.47051,-0.08205
555.39897,-0.04801
557.32744,0.03594
559.25591,0.05995
561.18438,0.05042
563.11285,0.06011
565.04132,0.08877
566.96979,0.11026
568.89825,0.10888
570.82672,0.10430
572.75519,0.10817
574.68366,0.11091
576.61213,0.08563
578.54060,0.05318
580.46907,0.05698
582.39754,0.06846
584.32600,0.05424
586.25447,0.04459
588.18294,0.07022
590.11141,0.10721
592.03988,0.11478
593.96835,0.09817
595.89682,0.08390
597.82528,0.08504
599.75375,0.10453
601.68222,0.11855
603.61069,0.10930
605.53916,0.09832
607.46763,0.10000
609.39610,0.09772
611.32456,0.09180
613.25303,0.09842
615.18150,0.10044
617.10997,0.07589
619.03844,0.04548
620.96691,0.03676
622.89538,0.03868
624.82385,0.04805
626.75231,0.07389
628.68078,0.09426
630.60925,0.09631
632.53772,0.08985
634.46619,0.08756
636.39466,0.09619
638.32313,0.10780
640.25159,0.11083
642.18006,0.10010
644.10853,0.08641
646.03700,0.08130
647.96547,0.08939
649.89394,0.10478
651.82241,0.10799
653.75088,0.09530
655.67934,0.08583
657.60781,0.08718
659.53628,0.08815
661.46475,0.09006
663.39322,0.09221
665.32169,0.08716
667.25016,0.08699
669.17862,0.10565
671.10709,0.12077
673.03556,0.13099
674.96403,0.13384
676.89250,0.12233
678.82097,0.10244
680.74944,0.08664
682.67791,0.08858
684.60637,0.10368
686.53484,0.11661
688.46331,0.11784
690.39178,0.11207
692.32025,0.11236
694.24872,0.11233
696.17719,0.09951
698.10565,0.08326
700.03412,0.08039
701.96259,0.09149
703.89106,0.10021
705.81953,0.09880
707.74800,0.09634
709.67647,0.08330
711.60494,0.05893
713.53340,0.05861
715.46187,0.08199
717.39034,0.09772
719.31881,0.10114
721.24728,0.09277
723.17575,0.07950
725.10422,0.08143
727.03268,0.09558
728.96115,0.10301
730.88962,0.10366
732.81809,0.10139
734.74656,0.09256
736.67503,0.08796
738.60350,0.09942
740.53197,0.11560
742.46043,0.11792
744.38890,0.11035
746.31737,0.10605
748.24584,0.10172
750.17431,0.10016
752.10278,0.11005
754.03125,0.11912
755.95971,0.11640
757.88818,0.10798
759.81665,0.10174
761.74512,0.10519
763.67359,0.11662
765.60206,0.12198
767.53053,0.11986
769.45900,0.11751
771.38746,0.11008
773.31593,0.09734
775.24440,0.09249
777.17287,0.09780
779.10134,0.10569
781.02981,0.11840
782.95828,0.13341
784.88674,0.13835
786.81521,0.13021
788.74368,0.11373
790.67215,0.10028
792.60062,0.10034
794.52909,0.10613
796.45756,0.10721
798.38602,0.10631
800.31449,0.10869
802.24296,0.11623
804.17143,0.12171
806.09990,0.12052
808.02837,0.12111
809.95684,0.12283
811.88531,0.11438
813.81377,0.10272
815.74224,0.09875
817.67071,0.09760
819.59918,0.10103
821.52765,0.11170
823.45612,0.12052
825.38459,0.12464
827.31305,0.12556
829.24152,0.12081
831.16999,0.11677
833.09846,0.12019
835.02693,0.12548
836.95540,0.12675
838.88387,0.12360
840.81234,0.11872
842.74080,0.11637
844.66927,0.11817
846.59774,0.12225
848.52621,0.12926
850.45468,0.13987
852.38315,0.14553
854.31162,0.14244
856.24008,0.13949
858.16855,0.13796
860.09702,0.13307
862.02549,0.12890
863.95396,0.13129
865.88243,0.13145
867.81090,0.10976
869.73937,0.08142
871.66783,0.08433
873.59630,0.10553
875.52477,0.11367
877.45324,0.11438
879.38171,0.11569
881.31018,0.11572
883.23865,0.11948
885.16711,0.12473
887.09558,0.12461
889.02405,0.12469
890.95252,0.13087
892.88099,0.13611
894.80946,0.13170
896.73793,0.12379
898.66640,0.12068
900.59486,0.11855
902.52333,0.12024
904.45180,0.13315
906.38027,0.14423
908.30874,0.13998
910.23721,0.12873
912.16568,0.12229
914.09414,0.12315
916.02261,0.12597
917.95108,0.12566
919.87955,0.12259
921.80802,0.12036
923.73649,0.12111
925.66496,0.12136
927.59343,0.12296
929.52189,0.13080
931.45036,0.13679
933.37883,0.13481
935.30730,0.13050
937.23577,0.12487
939.16424,0.12038
941.09271,0.12264
943.02117,0.12561
944.94964,0.12637
946.87811,0.12766
948.80658,0.12805
950.73505,0.13032
952.66352,0.13528
954.59199,0.13895
956.52045,0.13932
958.44892,0.13758
960.37739,0.13753
962.30586,0.13621
964.23433,0.12940
966.16280,0.12526
968.09127,0.12922
970.01974,0.13278
971.94820,0.13211
973.87667,0.13323
975.80514,0.13396
977.73361,0.12956
979.66208,0.12746
981.59055,0.13230
983.51902,0.13614
985.44748,0.13642
987.37595,0.13758
989.30442,0.13986
991.23289,0.14279
993.16136,0.14364
995.08983,0.13961
997.01830,0.13690
998.94677,0.14064
1000.87523,0.14521
1002.80370,0.14203
1004.73217,0.13408
1006.66064,0.13325
1008.58911,0.14056
1010.51758,0.14572
1012.44605,0.14466
1014.37451,0.14070
1016.30298,0.13741
1018.23145,0.13916
1020.15992,0.14260
1022.08839,0.13957
1024.01686,0.13140
1025.94533,0.12053
1027.87380,0.11231
1029.80226,0.12071
1031.73073,0.13830
1033.65920,0.14496
1035.58767,0.14490
1037.51614,0.14397
1039.44461,0.13736
1041.37308,0.13159
1043.30154,0.13436
1045.23001,0.14130
1047.15848,0.14356
1049.08695,0.14011
1051.01542,0.13615
1052.94389,0.13417
1054.87236,0.13577
1056.80083,0.13945
1058.72929,0.14174
1060.65776,0.14308
1062.58623,0.14319
1064.51470,0.13987
1066.44317,0.13901
1068.37164,0.14719
1070.30011,0.15566
1072.22857,0.15639
1074.15704,0.15807
1076.08551,0.16299
1078.01398,0.16039
1079.94245,0.15477
1081.87092,0.15552
1083.79939,0.15523
1085.72786,0.15052
1087.65632,0.14730
1089.58479,0.14497
1091.51326,0.14436
1093.44173,0.14998
1095.37020,0.15631
1097.29867,0.15509
1099.22714,0.14851
1101.15560,0.14395
1103.08407,0.13880
1105.01254,0.13123
1106.94101,0.13302
1108.86948,0.14224
1110.79795,0.14741
1112.72642,0.14792
1114.65489,0.14476
1116.58335,0.14219
1118.51182,0.14229
1120.44029,0.13992
1122.36876,0.13892
1124.29723,0.14647
1126.22570,0.15420
1128.15417,0.15280
1130.08263,0.14849
1132.01110,0.14691
1133.93957,0.14815
1135.86804,0.15088
1137.79651,0.15129
1139.72498,0.15388
1141.65345,0.16004
1143.58191,0.15911
1145.51038,0.15364
1147.43885,0.15339
1149.36732,0.15487
1151.29579,0.15310
1153.22426,0.15257
1155.15273,0.15623
1157.08120,0.15884
1159.00966,0.15766
1160.93813,0.15332
1162.86660,0.15008
1164.79507,0.15196
1166.72354,0.15310
1168.65201,0.15181
1170.58048,0.15338
1172.50894,0.15622
1174.43741,0.15590
1176.36588,0.15198
1178.29435,0.14921
1180.22282,0.15110
1182.15129,0.15712
1184.07976,0.16754
1186.00823,0.17330
1187.93669,0.16489
1189.86516,0.15314
1191.79363,0.14942
1193.72210,0.15112
1195.65057,0.15311
1197.57904,0.15414
1199.50751,0.15423
1201.43597,0.15281
1203.36444,0.15265
1205.29291,0.15528
1207.22138,0.15635
1209.14985,0.15456
1211.07832,0.15493
1213.00679,0.15818
1214.93526,0.15834
1216.86372,0.15516
1218.79219,0.15435
1220.72066,0.15571
1222.64913,0.15615
1224.57760,0.15772
1226.50607,0.16068
1228.43454,0.16104
1230.36300,0.16034
1232.29147,0.16169
1234.21994,0.16214
1236.14841,0.15847
1238.07688,0.15364
1240.00535,0.15167
1241.93382,0.15162
1243.86229,0.15247
1245.79075,0.15405
1247.71922,0.15516
1249.64769,0.15530
1251.57616,0.15444
1253.50463,0.15367
1255.43310,0.15355
1257.36157,0.15266
1259.29003,0.15137
1261.21850,0.15260
1263.14697,0.15484
1265.07544,0.15453
1267.00391,0.15386
1268.93238,0.15400
1270.86085,0.15427
1272.78932,0.15435
1274.71778,0.15421
1276.64625,0.15653
1278.57472,0.15981
1280.50319,0.16057
1282.43166,0.16263
1284.36013,0.16791
1286.28860,0.17040
1288.21706,0.16861
1290.14553,0.16645
1292.07400,0.16418
1294.00247,0.16031
1295.93094,0.15549
1297.85941,0.15207
1299.78788,0.14924
1301.71634,0.14312
1303.64481,0.13531
1305.57328,0.13577
1307.50175,0.14870
1309.43022,0.16148
1311.35869,0.16494
1313.28716,0.16499
1315.21563,0.16594
1317.14409,0.16667
1319.07256,0.16673
1321.00103,0.16818
1322.92950,0.17036
1324.85797,0.16714
1326.78644,0.15979
1328.71491,0.15582
1330.64337,0.15499
1332.57184,0.15616
1334.50031,0.15931
1336.42878,0.16200
1338.35725,0.16403
1340.28572,0.16343
1342.21419,0.16607
1344.14266,0.17564
1346.07112,0.17713
1347.99959,0.16735
1349.92806,0.16124
1351.85653,0.16176
1353.78500,0.16184
1355.71347,0.16029
1357.64194,0.15958
1359.57040,0.16033
1361.49887,0.16379
1363.42734,0.16715
1365.35581,0.16600
1367.28428,0.16479
1369.21275,0.16694
1371.14122,0.17102
1373.06969,0.17547
1374.99815,0.17801
1376.92662,0.17677
1378.85509,0.17389
1380.78356,0.17187
1382.71203,0.17139
1384.64050,0.17132
1386.56897,0.17030
1388.49743,0.16982
1390.42590,0.17241
1392.35437,0.17777
1394.28284,0.18378
1396.21131,0.18728
1398.13978,0.18683
1400.06825,0.18267
1401.99672,0.17822
1403.92518,0.17582
1405.85365,0.17601
1407.78212,0.17877
1409.71059,0.18038
1411.63906,0.17986
1413.56753,0.18092
1415.49600,0.18435
1417.42446,0.18820
1419.35293,0.18940
1421.28140,0.18791
1423.20987,0.18530
1425.13834,0.18052
1427.06681,0.17730
1428.99528,0.17850
1430.92375,0.17984
1432.85221,0.17928
1434.78068,0.18069
1436.70915,0.18117
1438.63762,0.17685
1440.56609,0.17429
1442.49456,0.17464
1444.42303,0.17647
1446.35149,0.18011
1448.27996,0.18444
1450.20843,0.18660
1452.13690,0.18845
1454.06537,0.19478
1455.99384,0.20565
1457.92231,0.20389
1459.85077,0.18883
1461.77924,0.18295
1463.70771,0.18620
1465.63618,0.18765
1467.56465,0.18355
1469.49312,0.18395
1471.42159,0.19156
1473.35006,0.19778
1475.27852,0.19443
1477.20699,0.18829
1479.13546,0.18422
1481.06393,0.18234
1482.99240,0.18225
1484.92087,0.18548
1486.84934,0.19240
1488.77780,0.19796
1490.70627,0.19541
1492.63474,0.19075
1494.56321,0.19016
1496.49168,0.19349
1498.42015,0.19464
1500.34862,0.19040
1502.27709,0.18934
1504.20555,0.19807
1506.13402,0.21669
1508.06249,0.21821
1509.99096,0.20256
1511.91943,0.19444
1513.84790,0.19640
1515.77637,0.20415
1517.70483,0.20793
1519.63330,0.20743
1521.56177,0.20712
1523.49024,0.20502
1525.41871,0.20362
1527.34718,0.19927
1529.27565,0.19289
1531.20412,0.19260
1533.13258,0.19639
1535.06105,0.19739
1536.98952,0.20146
1538.91799,0.21594
1540.84646,0.22967
1542.77493,0.21982
1544.70340,0.20307
1546.63186,0.19084
1548.56033,0.18731
1550.48880,0.19124
1552.41727,0.19612
1554.34574,0.20056
1556.27421,0.21201
1558.20268,0.23118
1560.13115,0.22174
1562.05961,0.20259
1563.98808,0.19497
1565.91655,0.19409
1567.84502,0.19759
1569.77349,0.19960
1571.70196,0.19807
1573.63043,0.20117
1575.55889,0.20677
1577.48736,0.20315
1579.41583,0.19463
1581.34430,0.18950
1583.27277,0.18851
1585.20124,0.18894
1587.12971,0.18824
1589.05818,0.18661
1590.98664,0.18592
1592.91511,0.18750
1594.84358,0.18877
1596.77205,0.18735
1598.70052,0.18610
1600.62899,0.18641
1602.55746,0.18674
1604.48592,0.18782
1606.41439,0.18877
1608.34286,0.18709
1610.27133,0.18459
1612.19980,0.18569
1614.12827,0.19135
1616.05674,0.19708
1617.98521,0.19639
1619.91367,0.19636
1621.84214,0.20174
1623.77061,0.20678
1625.69908,0.20633
1627.62755,0.20151
1629.55602,0.19504
1631.48449,0.19313
1633.41295,0.19674
1635.34142,0.20251
1637.26989,0.20301
1639.19836,0.19953
1641.12683,0.19756
1643.05530,0.19969
1644.98377,0.20808
1646.91223,0.21735
1648.84070,0.21633
1650.76917,0.21681
1652.69764,0.22592
1654.62611,0.21959
1656.55458,0.20518
1658.48305,0.19993
1660.41152,0.20064
1662.33998,0.20201
1664.26845,0.20038
1666.19692,0.19933
1668.12539,0.20482
1670.05386,0.21175
1671.98233,0.20924
1673.91080,0.20484
1675.83926,0.20240
1677.76773,0.20331
1679.69620,0.20860
1681.62467,0.21525
1683.55314,0.21868
1685.48161,0.21340
1687.41008,0.20753
1689.33855,0.20373
1691.26701,0.20036
1693.19548,0.20061
1695.12395,0.20657
1697.05242,0.21666
1698.98089,0.22418
1700.90936,0.21970
1702.83783,0.21169
1704.76629,0.20824
1706.69476,0.20267
1708.62323,0.19612
1710.55170,0.19396
1712.48017,0.19619
1714.40864,0.20370
1716.33711,0.21476
1718.26558,0.21191
1720.19404,0.19796
1722.12251,0.18979
1724.05098,0.18912
1725.97945,0.19260
1727.90792,0.19780
1729.83639,0.20504
1731.76486,0.21207
1733.69332,0.21148
1735.62179,0.20192
1737.55026,0.19866
1739.47873,0.20069
1741.40720,0.19861
1743.33567,0.19367
1745.26414,0.19397
1747.19261,0.20014
1749.12107,0.20598
1751.04954,0.20469
1752.97801,0.19950
1754.90648,0.19723
1756.83495,0.19643
1758.76342,0.19445
1760.69189,0.19438
1762.62035,0.19665
1764.54882,0.19731
1766.47729,0.19735
1768.40576,0.20040
1770.33423,0.20670
1772.26270,0.20849
1774.19117,0.20119
1776.11964,0.19507
1778.04810,0.19424
1779.97657,0.19504
1781.90504,0.19362
1783.83351,0.19129
1785.76198,0.18978
1787.69045,0.18974
1789.61892,0.19269
1791.54738,0.19834
1793.47585,0.19999
1795.40432,0.19592
1797.33279,0.19429
1799.26126,0.19808
1801.18973,0.19897
1803.11820,0.19133
1805.04666,0.18486
1806.97513,0.18591
1808.90360,0.19014
1810.83207,0.19267
1812.76054,0.19380
1814.68901,0.19326
1816.61748,0.18976
1818.54595,0.18712
1820.47441,0.18803
1822.40288,0.19048
1824.33135,0.19380
1826.25982,0.19575
1828.18829,0.19653
1830.11676,0.19720
1832.04523,0.19505
1833.97369,0.19324
1835.90216,0.19371
1837.83063,0.19379
1839.75910,0.19390
1841.68757,0.19657
1843.61604,0.20087
1845.54451,0.20153
1847.47298,0.19735
1849.40144,0.19279
1851.32991,0.19086
1853.25838,0.19107
1855.18685,0.19135
1857.11532,0.19083
1859.04379,0.18931
1860.97226,0.18683
1862.90072,0.18544
1864.82919,0.18832
1866.75766,0.19565
1868.68613,0.20120
1870.61460,0.19837
1872.54307,0.19267
1874.47154,0.19020
1876.40001,0.19036
1878.32847,0.18992
1880.25694,0.18796
1882.18541,0.18585
1884.11388,0.18673
1886.04235,0.19221
1887.97082,0.19861
1889.89929,0.20082
1891.82775,0.19785
1893.75622,0.19408
1895.68469,0.19297
1897.61316,0.19397
1899.54163,0.19479
1901.47010,0.19424
1903.39857,0.19374
1905.32704,0.19396
1907.25550,0.19345
1909.18397,0.19272
1911.11244,0.19236
1913.04091,0.19281
1914.96938,0.19547
1916.89785,0.19849
1918.82632,0.19836
1920.75478,0.19670
1922.68325,0.19607
1924.61172,0.19548
1926.54019,0.19482
1928.46866,0.19368
1930.39713,0.19138
1932.32560,0.18970
1934.25407,0.18955
1936.18253,0.19008
1938.11100,0.19110
1940.03947,0.19314
1941.96794,0.19500
1943.89641,0.19455
1945.82488,0.19318
1947.75335,0.19275
1949.68181,0.19358
1951.61028,0.19462
1953.53875,0.19427
1955.46722,0.19289
1957.39569,0.19091
1959.32416,0.18961
1961.25263,0.19059
1963.18110,0.19181
1965.10956,0.19289
1967.03803,0.19508
1968.96650,0.19559
1970.89497,0.19379
1972.82344,0.19243
1974.75191,0.19126
1976.68038,0.18875
1978.60884,0.18747
1980.53731,0.18918
1982.46578,0.19062
1984.39425,0.19124
1986.32272,0.19222
1988.25119,0.19338
1990.17966,0.19485
1992.10812,0.19503
1994.03659,0.19462
1995.96506,0.19527
1997.89353,0.19457
1999.82200,0.19206
2001.75047,0.19058
2003.67894,0.19098
2005.60741,0.19189
2007.53587,0.19212
2009.46434,0.19149
2011.39281,0.19009
2013.32128,0.18887
2015.24975,0.18972
2017.17822,0.19281
2019.10669,0.19558
2021.03515,0.19550
2022.96362,0.19380
2024.89209,0.19296
2026.82056,0.19247
2028.74903,0.19153
2030.67750,0.19086
2032.60597,0.19095
2034.53444,0.19147
2036.46290,0.19349
2038.39137,0.19721
2040.31984,0.19888
2042.24831,0.19688
2044.17678,0.19412
2046.10525,0.19385
2048.03372,0.19497
2049.96218,0.19419
2051.89065,0.19287
2053.81912,0.19305
2055.74759,0.19370
2057.67606,0.19380
2059.60453,0.19313
2061.53300,0.19188
2063.46147,0.19083
2065.38993,0.19071
2067.31840,0.19155
2069.24687,0.19321
2071.17534,0.19461
2073.10381,0.19504
2075.03228,0.19511
2076.96075,0.19509
2078.88921,0.19621
2080.81768,0.19792
2082.74615,0.19633
2084.67462,0.19260
2086.60309,0.19138
2088.53156,0.19209
2090.46003,0.19376
2092.38850,0.19718
2094.31696,0.19876
2096.24543,0.19623
2098.17390,0.19403
2100.10237,0.19426
2102.03084,0.19427
2103.95931,0.19257
2105.88778,0.19053
2107.81624,0.19147
2109.74471,0.19456
2111.67318,0.19531
2113.60165,0.19479
2115.53012,0.19558
2117.45859,0.19565
2119.38706,0.19578
2121.31553,0.19761
2123.24399,0.19863
2125.17246,0.19816
2127.10093,0.19796
2129.02940,0.19910
2130.95787,0.19977
2132.88634,0.19689
2134.81481,0.19355
2136.74327,0.19497
2138.67174,0.19714
2140.60021,0.19549
2142.52868,0.19485
2144.45715,0.19668
2146.38562,0.19730
2148.31409,0.19660
2150.24255,0.19489
2152.17102,0.19304
2154.09949,0.19413
2156.02796,0.19762
2157.95643,0.19886
2159.88490,0.19726
2161.81337,0.19675
2163.74184,0.19830
2165.67030,0.19949
2167.59877,0.19869
2169.52724,0.19680
2171.45571,0.19594
2173.38418,0.19625
2175.31265,0.19579
2177.24112,0.19447
2179.16958,0.19513
2181.09805,0.19824
2183.02652,0.19978
2184.95499,0.19839
2186.88346,0.19757
2188.81193,0.19819
2190.74040,0.19846
2192.66887,0.19912
2194.59733,0.19952
2196.52580,0.19741
2198.45427,0.19571
2200.38274,0.19655
2202.31121,0.19725
2204.23968,0.19731
2206.16815,0.19790
2208.09661,0.19757
2210.02508,0.19526
2211.95355,0.19329
2213.88202,0.19277
2215.81049,0.19253
2217.73896,0.19316
2219.66743,0.19589
2221.59590,0.19910
2223.52436,0.19948
2225.45283,0.19746
2227.38130,0.19598
2229.30977,0.19523
2231.23824,0.19494
2233.16671,0.19507
2235.09518,0.19354
2237.02364,0.19191
2238.95211,0.19375
2240.88058,0.19693
2242.80905,0.19919
2244.73752,0.20057
2246.66599,0.19987
2248.59446,0.19832
2250.52293,0.19780
2252.45139,0.19753
2254.37986,0.19773
2256.30833,0.19886
2258.23680,0.19951
2260.16527,0.19870
2262.09374,0.19686
2264.02221,0.19556
2265.95067,0.19627
2267.87914,0.19772
2269.80761,0.19783
2271.73608,0.19710
2273.66455,0.19675
2275.59302,0.19663
2277.52149,0.19660
2279.44996,0.19715
2281.37842,0.19842
2283.30689,0.19924
2285.23536,0.19801
2287.16383,0.19461
2289.09230,0.19262
2291.02077,0.19431
2292.94924,0.19434
2294.87770,0.19138
2296.80617,0.19125
2298.73464,0.19286
2300.66311,0.19021
2302.59158,0.18444
2304.52005,0.18133
2306.44852,0.18160
2308.37699,0.18176
2310.30545,0.18024
2312.23392,0.17934
2314.16239,0.18017
2316.09086,0.18024
2318.01933,0.17791
2319.94780,0.17444
2321.87627,0.17477
2323.80473,0.17783
2325.73320,0.17491
2327.66167,0.16775
2329.59014,0.16436
2331.51861,0.16272
2333.44708,0.15877
2335.37555,0.15573
2337.30401,0.15521
2339.23248,0.15979
2341.16095,0.16785
2343.08942,0.17004
2345.01789,0.16637
2346.94636,0.16670
2348.87483,0.17181
2350.80330,0.17599
2352.73176,0.17617
2354.66023,0.16998
2356.58870,0.15568
2358.51717,0.14559
2360.44564,0.14365
2362.37411,0.13855
2364.30258,0.13866
2366.23104,0.14745
2368.15951,0.15378
2370.08798,0.15538
2372.01645,0.15887
2373.94492,0.16739
2375.87339,0.17665
2377.80186,0.18371
2379.73033,0.18805
2381.65879,0.19095
2383.58726,0.19436
2385.51573,0.19604
2387.44420,0.19413
2389.37267,0.19241
2391.30114,0.19451
2393.22961,0.19770
2395.15807,0.19790
2397.08654,0.19625
2399.01501,0.19576
2400.94348,0.19696
2402.87195,0.19899
2404.80042,0.20143
2406.72889,0.20344
2408.65736,0.20374
2410.58582,0.20355
2412.51429,0.20361
2414.44276,0.20301
2416.37123,0.20283
2418.29970,0.20269
2420.22817,0.20125
2422.15664,0.20027
2424.08510,0.20029
2426.01357,0.19956
2427.94204,0.19903
2429.87051,0.20024
2431.79898,0.20173
2433.72745,0.20220
2435.65592,0.20138
2437.58439,0.20016
2439.51285,0.20174
2441.44132,0.20417
2443.36979,0.20149
2445.29826,0.19664
2447.22673,0.19724
2449.15520,0.20297
2451.08367,0.20537
2453.01213,0.20088
2454.94060,0.19813
2456.86907,0.20058
2458.79754,0.20127
2460.72601,0.19993
2462.65448,0.20120
2464.58295,0.20304
2466.51142,0.20211
2468.43988,0.20073
2470.36835,0.20153
2472.29682,0.20386
2474.22529,0.20501
2476.15376,0.20308
2478.08223,0.20100
2480.01070,0.20151
2481.93916,0.20185
2483.86763,0.20024
2485.79610,0.19952
2487.72457,0.20103
2489.65304,0.20284
2491.58151,0.20348
2493.50998,0.20439
2495.43844,0.20629
2497.36691,0.20645
2499.29538,0.20508
2501.22385,0.20486
2503.15232,0.20497
2505.08079,0.20430
2507.00926,0.20467
2508.93773,0.20642
2510.86619,0.20701
2512.79466,0.20584
2514.72313,0.20378
2516.65160,0.20101
2518.58007,0.19948
2520.50854,0.19939
2522.43701,0.19840
2524.36547,0.19751
2526.29394,0.19714
2528.22241,0.19711
2530.15088,0.20064
2532.07935,0.20588
2534.00782,0.20699
2535.93629,0.20483
2537.86476,0.20322
2539.79322,0.20217
2541.72169,0.20174
2543.65016,0.20298
2545.57863,0.20389
2547.50710,0.20356
2549.43557,0.20399
2551.36404,0.20389
2553.29250,0.20167
2555.22097,0.20031
2557.14944,0.20108
2559.07791,0.20216
2561.00638,0.20304
2562.93485,0.20206
2564.86332,0.19915
2566.79179,0.19813
2568.72025,0.19950
2570.64872,0.20087
2572.57719,0.20157
2574.50566,0.20228
2576.43413,0.20400
2578.36260,0.20598
2580.29107,0.20654
2582.21953,0.20571
2584.14800,0.20533
2586.07647,0.20688
2588.00494,0.20838
2589.93341,0.20778
2591.86188,0.20654
2593.79035,0.20597
2595.71882,0.20444
2597.64728,0.20192
2599.57575,0.20125
2601.50422,0.20273
2603.43269,0.20479
2605.36116,0.20691
2607.28963,0.20804
2609.21810,0.20571
2611.14656,0.20089
2613.07503,0.19986
2615.00350,0.20319
2616.93197,0.20513
2618.86044,0.20517
2620.78891,0.20520
2622.71738,0.20490
2624.64585,0.20570
2626.57431,0.20754
2628.50278,0.20886
2630.43125,0.21004
2632.35972,0.20973
2634.28819,0.20810
2636.21666,0.20794
2638.14513,0.20892
2640.07359,0.21026
2642.00206,0.21062
2643.93053,0.20888
2645.85900,0.20800
2647.78747,0.20774
2649.71594,0.20581
2651.64441,0.20459
2653.57288,0.20565
2655.50134,0.20775
2657.42981,0.20990
2659.35828,0.21142
2661.28675,0.21112
2663.21522,0.20929
2665.14369,0.20867
2667.07216,0.20905
2669.00062,0.20893
2670.92909,0.20944
2672.85756,0.21114
2674.78603,0.21289
2676.71450,0.21303
2678.64297,0.21124
2680.57144,0.20883
2682.49990,0.20744
2684.42837,0.20876
2686.35684,0.21125
2688.28531,0.21136
2690.21378,0.20950
2692.14225,0.20900
2694.07072,0.21149
2695.99919,0.21408
2697.92765,0.21453
2699.85612,0.21558
2701.78459,0.21621
2703.71306,0.21324
2705.64153,0.21067
2707.57000,0.21234
2709.49847,0.21498
2711.42693,0.21523
2713.35540,0.21373
2715.28387,0.21227
2717.21234,0.21223
2719.14081,0.21241
2721.06928,0.21076
2722.99775,0.20980
2724.92622,0.21206
2726.85468,0.21362
2728.78315,0.21238
2730.71162,0.21247
2732.64009,0.21469
2734.56856,0.21701
2736.49703,0.21982
2738.42550,0.22155
2740.35396,0.21938
2742.28243,0.21573
2744.21090,0.21438
2746.13937,0.21378
2748.06784,0.21213
2749.99631,0.21193
2751.92478,0.21542
2753.85325,0.21934
2755.78171,0.21905
2757.71018,0.21715
2759.63865,0.21824
2761.56712,0.22008
2763.49559,0.21913
2765.42406,0.21727
2767.35253,0.21679
2769.28099,0.21667
2771.20946,0.21614
2773.13793,0.21510
2775.06640,0.21522
2776.99487,0.21744
2778.92334,0.21853
2780.85181,0.21767
2782.78028,0.21692
2784.70874,0.21673
2786.63721,0.21688
2788.56568,0.21747
2790.49415,0.21845
2792.42262,0.21853
2794.35109,0.21706
2796.27956,0.21505
2798.20802,0.21412
2800.13649,0.21536
2802.06496,0.21679
2803.99343,0.21695
2805.92190,0.21803
2807.85037,0.22076
2809.77884,0.22270
2811.70731,0.22230
2813.63577,0.22100
2815.56424,0.22033
2817.49271,0.21945
2819.42118,0.21810
2821.34965,0.21738
2823.27812,0.21771
2825.20659,0.21888
2827.13505,0.21998
2829.06352,0.21993
2830.99199,0.22032
2832.92046,0.22404
2834.84893,0.22890
2836.77740,0.22955
2838.70587,0.22544
2840.63433,0.22042
2842.56280,0.21848
2844.49127,0.22049
2846.41974,0.22232
2848.34821,0.21983
2850.27668,0.21580
2852.20515,0.21527
2854.13362,0.21722
2856.06208,0.21902
2857.99055,0.22154
2859.91902,0.22420
2861.84749,0.22419
2863.77596,0.22134
2865.70443,0.21825
2867.63290,0.21743
2869.56136,0.21818
2871.48983,0.21724
2873.41830,0.21620
2875.34677,0.21802
2877.27524,0.21895
2879.20371,0.21791
2881.13218,0.21856
2883.06065,0.21956
2884.98911,0.21941
2886.91758,0.21999
2888.84605,0.22031
2890.77452,0.21983
2892.70299,0.22177
2894.63146,0.22507
2896.55993,0.22460
2898.48839,0.22071
2900.41686,0.21972
2902.34533,0.22307
2904.27380,0.22345
2906.20227,0.21940
2908.13074,0.21862
2910.05921,0.22205
2911.98768,0.22346
2913.91614,0.22068
2915.84461,0.21593
2917.77308,0.21464
2919.70155,0.21831
2921.63002,0.22197
2923.55849,0.22506
2925.48696,0.22455
2927.41542,0.21826
2929.34389,0.21427
2931.27236,0.21499
2933.20083,0.21616
2935.12930,0.21227
2937.05777,0.20519
2938.98624,0.20793
2940.91471,0.21837
2942.84317,0.22247
2944.77164,0.21846
2946.70011,0.21177
2948.62858,0.20814
2950.55705,0.21112
2952.48552,0.21828
2954.41399,0.22130
2956.34245,0.21430
2958.27092,0.20844
2960.19939,0.21447
2962.12786,0.22250
2964.05633,0.22415
2965.98480,0.22108
2967.91327,0.21582
2969.84174,0.21472
2971.77020,0.21884
2973.69867,0.22184
2975.62714,0.22000
2977.55561,0.21388
2979.48408,0.21071
2981.41255,0.21508
2983.34102,0.21988
2985.26948,0.21757
2987.19795,0.20984
2989.12642,0.20731
2991.05489,0.21568
2992.98336,0.22538
2994.91183,0.22744
2996.84030,0.22511
2998.76877,0.22550
3000.69723,0.22955
3002.62570,0.23357
3004.55417,0.23442
3006.48264,0.22848
3008.41111,0.21752
3010.33958,0.20748
3012.26805,0.19402
3014.19651,0.16885
3016.12498,0.14650
3018.05345,0.15659
3019.98192,0.19283
3021.91039,0.21859
3023.83886,0.22455
3025.76733,0.22454
3027.69579,0.22511
3029.62426,0.22508
3031.55273,0.22401
3033.48120,0.22464
3035.40967,0.22528
3037.33814,0.22244
3039.26661,0.21914
3041.19508,0.21996
3043.12354,0.22400
3045.05201,0.22497
3046.98048,0.22247
3048.90895,0.22333
3050.83742,0.22659
3052.76589,0.22664
3054.69436,0.22117
3056.62282,0.21193
3058.55129,0.20935
3060.47976,0.21648
3062.40823,0.22333
3064.33670,0.22372
3066.26517,0.21943
3068.19364,0.21942
3070.12211,0.22415
3072.05057,0.22586
3073.97904,0.22387
3075.90751,0.21846
3077.83598,0.21508
3079.76445,0.21858
3081.69292,0.22129
3083.62139,0.21632
3085.54985,0.21211
3087.47832,0.21827
3089.40679,0.22387
3091.33526,0.21965
3093.26373,0.21138
3095.19220,0.20811
3097.12067,0.21526
3099.04914,0.22357
3100.97760,0.22293
3102.90607,0.21773
3104.83454,0.21868
3106.76301,0.22567
3108.69148,0.22780
3110.61995,0.22096
3112.54842,0.21272
3114.47688,0.21365
3116.40535,0.22167
3118.33382,0.22519
3120.26229,0.22105
3122.19076,0.21804
3124.11923,0.22284
3126.04770,0.22946
3127.97617,0.23179
3129.90463,0.22986
3131.83310,0.22752
3133.76157,0.22699
3135.69004,0.22562
3137.61851,0.22297
3139.54698,0.22082
3141.47545,0.22163
3143.40391,0.22485
3145.33238,0.22701
3147.26085,0.22589
3149.18932,0.22304
3151.11779,0.22546
3153.04626,0.23369
3154.97473,0.23895
3156.90320,0.23782
3158.83166,0.23447
3160.76013,0.23116
3162.68860,0.22702
3164.61707,0.22373
3166.54554,0.22380
3168.47401,0.22687
3170.40248,0.23036
3172.33094,0.23101
3174.25941,0.23092
3176.18788,0.23403
3178.11635,0.23561
3180.04482,0.23330
3181.97329,0.23241
3183.90176,0.23391
3185.83022,0.23528
3187.75869,0.23428
3189.68716,0.23191
3191.61563,0.23194
3193.54410,0.23357
3195.47257,0.23420
3197.40104,0.23344
3199.32951,0.23174
3201.25797,0.23023
3203.18644,0.22943
3205.11491,0.22976
3207.04338,0.23197
3208.97185,0.23390
3210.90032,0.23488
3212.82879,0.23676
3214.75725,0.23580
3216.68572,0.23197
3218.61419,0.23153
3220.54266,0.23322
3222.47113,0.23278
3224.39960,0.23097
3226.32807,0.23065
3228.25654,0.23161
3230.18500,0.23146
3232.11347,0.22961
3234.04194,0.22809
3235.97041,0.22898
3237.89888,0.23116
3239.82735,0.23355
3241.75582,0.23388
3243.68428,0.23176
3245.61275,0.23029
3247.54122,0.22702
3249.46969,0.22258
3251.39816,0.22252
3253.32663,0.22504
3255.25510,0.22768
3257.18357,0.23062
3259.11203,0.22942
3261.04050,0.22339
3262.96897,0.22053
3264.89744,0.22408
3266.82591,0.22831
3268.75438,0.22999
3270.68285,0.23035
3272.61131,0.22887
3274.53978,0.22756
3276.46825,0.22817
3278.39672,0.22749
3280.32519,0.22576
3282.25366,0.22556
3284.18213,0.22732
3286.11060,0.22804
3288.03906,0.22375
3289.96753,0.22056
3291.89600,0.22504
3293.82447,0.22937
3295.75294,0.22804
3297.68141,0.22636
3299.60988,0.22610
3301.53834,0.22572
3303.46681,0.22592
3305.39528,0.22754
3307.32375,0.22843
3309.25222,0.22420
3311.18069,0.21926
3313.10916,0.22050
3315.03763,0.22418
3316.96609,0.22886
3318.89456,0.23412
3320.82303,0.23392
3322.75150,0.22928
3324.67997,0.22659
3326.60844,0.22779
3328.53691,0.22964
3330.46537,0.22929
3332.39384,0.22871
3334.32231,0.22920
3336.25078,0.23013
3338.17925,0.23113
3340.10772,0.23050
3342.03619,0.22803
3343.96466,0.22760
3345.89312,0.23021
3347.82159,0.23101
3349.75006,0.22880
3351.67853,0.22714
3353.60700,0.22797
3355.53547,0.23195
3357.46394,0.23563
3359.39240,0.23254
3361.32087,0.22530
3363.24934,0.22251
3365.17781,0.22340
3367.10628,0.22445
3369.03475,0.22688
3370.96322,0.22869
3372.89168,0.22941
3374.82015,0.23107
3376.74862,0.23127
3378.67709,0.22935
3380.60556,0.22837
3382.53403,0.22890
3384.46250,0.22838
3386.39097,0.22769
3388.31943,0.22991
3390.24790,0.23246
3392.17637,0.23280
3394.10484,0.23352
3396.03331,0.23525
3397.96178,0.23397
3399.89025,0.22532
3401.81871,0.21293
3403.74718,0.20921
3405.67565,0.21563
3407.60412,0.22060
3409.53259,0.22058
3411.46106,0.22132
3413.38953,0.22619
3415.31800,0.23189
3417.24646,0.23423
3419.17493,0.23195
3421.10340,0.22589
3423.03187,0.22104
3424.96034,0.21967
3426.88881,0.21878
3428.81728,0.21796
3430.74574,0.21887
3432.67421,0.22042
3434.60268,0.22071
3436.53115,0.22006
3438.45962,0.21906
3440.38809,0.21637
3442.31656,0.21212
3444.24503,0.21099
3446.17349,0.21477
3448.10196,0.21727
3450.03043,0.21519
3451.95890,0.21123
3453.88737,0.20539
3455.81584,0.20152
3457.74431,0.20519
3459.67277,0.21021
3461.60124,0.21108
3463.52971,0.21170
3465.45818,0.21217
3467.38665,0.20974
3469.31512,0.20734
3471.24359,0.20949
3473.17206,0.21282
3475.10052,0.21179
3477.02899,0.20911
3478.95746,0.20731
3480.88593,0.20647
3482.81440,0.20922
3484.74287,0.21277
3486.67134,0.21097
3488.59980,0.20574
3490.52827,0.20159
3492.45674,0.19714
3494.38521,0.19312
3496.31368,0.19278
3498.24215,0.19436
3500.17062,0.19552
3502.09909,0.19735
3504.02755,0.19776
3505.95602,0.19646
3507.88449,0.19806
3509.81296,0.20045
3511.74143,0.19836
3513.66990,0.19135
3515.59837,0.18459
3517.52683,0.18384
3519.45530,0.18749
3521.38377,0.19170
3523.31224,0.19282
3525.24071,0.19070
3527.16918,0.18966
3529.09765,0.18854
3531.02611,0.18646
3532.95458,0.18580
3534.88305,0.18526
3536.81152,0.18311
3538.73999,0.18133
3540.66846,0.18241
3542.59693,0.18649
3544.52540,0.19078
3546.45386,0.19155
3548.38233,0.18895
3550.31080,0.18595
3552.23927,0.18462
3554.16774,0.18636
3556.09621,0.18748
3558.02468,0.18078
3559.95314,0.16946
3561.88161,0.16628
3563.81008,0.17510
3565.73855,0.18814
3567.66702,0.19159
3569.59549,0.18330
3571.52396,0.17522
3573.45243,0.17189
3575.38089,0.17354
3577.30936,0.17565
3579.23783,0.17325
3581.16630,0.16925
3583.09477,0.16737
3585.02324,0.16746
3586.95171,0.16964
3588.88017,0.16963
3590.80864,0.16804
3592.73711,0.16850
3594.66558,0.16641
3596.59405,0.16120
3598.52252,0.15960
3600.45099,0.16239
3602.37946,0.16543
3604.30792,0.16835
3606.23639,0.17103
3608.16486,0.16860
3610.09333,0.16512
3612.02180,0.16574
3613.95027,0.16410
3615.87874,0.16295
3617.80720,0.16855
3619.73567,0.17045
3621.66414,0.16110
3623.59261,0.15538
3625.52108,0.16109
3627.44955,0.17377
3629.37802,0.17719
3631.30649,0.16691
3633.23495,0.15939
3635.16342,0.15611
3637.09189,0.15526
3639.02036,0.15585
3640.94883,0.15456
3642.87730,0.15172
3644.80577,0.15310
3646.73423,0.16065
3648.66270,0.16795
3650.59117,0.16064
3652.51964,0.14862
3654.44811,0.14462
3656.37658,0.14441
3658.30505,0.14011
3660.23352,0.13599
3662.16198,0.13702
3664.09045,0.13992
3666.01892,0.14354
3667.94739,0.15075
3669.87586,0.15522
3671.80433,0.15276
3673.73280,0.15977
3675.66126,0.17124
3677.58973,0.15913
3679.51820,0.14195
3681.44667,0.13684
3683.37514,0.13886
3685.30361,0.14065
3687.23208,0.14231
3689.16055,0.14680
3691.08901,0.14997
3693.01748,0.14835
3694.94595,0.14419
3696.87442,0.14007
3698.80289,0.13955
3700.73136,0.14339
3702.65983,0.14706
3704.58829,0.14719
3706.51676,0.14709
3708.44523,0.14801
3710.37370,0.14979
3712.30217,0.14903
3714.23064,0.14253
3716.15911,0.13961
3718.08757,0.14429
3720.01604,0.14944
3721.94451,0.14971
3723.87298,0.14795
3725.80145,0.14401
3727.72992,0.14000
3729.65839,0.13923
3731.58686,0.14048
3733.51532,0.14482
3735.44379,0.14939
3737.37226,0.14951
3739.30073,0.15140
3741.22920,0.15532
3743.15767,0.15737
3745.08614,0.15682
3747.01460,0.15709
3748.94307,0.16042
3750.87154,0.16322
3752.80001,0.15932
3754.72848,0.15522
3756.65695,0.15228
3758.58542,0.14889
3760.51389,0.14490
3762.44235,0.13981
3764.37082,0.13532
3766.29929,0.13412
3768.22776,0.13523
3770.15623,0.13412
3772.08470,0.13213
3774.01317,0.13493
3775.94163,0.14039
3777.87010,0.14164
3779.79857,0.13681
3781.72704,0.13251
3783.65551,0.13313
3785.58398,0.13671
3787.51245,0.13743
3789.44092,0.13358
3791.36938,0.12953
3793.29785,0.12886
3795.22632,0.12944
3797.15479,0.12847
3799.08326,0.12967
3801.01173,0.13638
3802.94020,0.14201
3804.86866,0.14335
3806.79713,0.14492
3808.72560,0.14288
3810.65407,0.13810
3812.58254,0.13563
3814.51101,0.13541
3816.43948,0.13726
3818.36795,0.13907
3820.29641,0.13906
3822.22488,0.13932
3824.15335,0.13724
3826.08182,0.13346
3828.01029,0.13229
3829.93876,0.13361
3831.86723,0.13577
3833.79569,0.13664
3835.72416,0.13545
3837.65263,0.13844
3839.58110,0.14264
3841.50957,0.13842
3843.43804,0.13376
3845.36651,0.13155
3847.29498,0.12894
3849.22344,0.13232
3851.15191,0.14577
3853.08038,0.15768
3855.00885,0.14712
3856.93732,0.13376
3858.86579,0.12942
3860.79426,0.12987
3862.72272,0.12705
3864.65119,0.12247
3866.57966,0.12550
3868.50813,0.13262
3870.43660,0.13646
3872.36507,0.13438
3874.29354,0.12839
3876.22200,0.12286
3878.15047,0.12195
3880.07894,0.12431
3882.00741,0.12787
3883.93588,0.13215
3885.86435,0.13266
3887.79282,0.12776
3889.72129,0.12528
3891.64975,0.12617
3893.57822,0.12398
3895.50669,0.12084
3897.43516,0.12173
3899.36363,0.12792
3901.29210,0.13749
3903.22057,0.14071
3905.14903,0.13309
3907.07750,0.12483
3909.00597,0.12001
3910.93444,0.11758
3912.86291,0.11940
3914.79138,0.12470
3916.71985,0.12840
3918.64832,0.12702
3920.57678,0.12327
3922.50525,0.12217
3924.43372,0.12410
3926.36219,0.12396
3928.29066,0.12066
3930.21913,0.11829
3932.14760,0.11809
3934.07606,0.11752
3936.00453,0.11601
3937.93300,0.11416
3939.86147,0.11488
3941.78994,0.11959
3943.71841,0.12167
3945.64688,0.12035
3947.57535,0.12117
3949.50381,0.12194
3951.43228,0.12006
3953.36075,0.11919
3955.28922,0.11997
3957.21769,0.11684
3959.14616,0.10989
3961.07463,0.10830
3963.00309,0.11393
3964.93156,0.11825
3966.86003,0.11920
3968.78850,0.12068
3970.71697,0.11965
3972.64544,0.11276
3974.57391,0.10668
3976.50238,0.10698
3978.43084,0.10877
3980.35931,0.10839
3982.28778,0.10719
3984.21625,0.10727
3986.14472,0.10933
3988.07319,0.11059
3990.00166,0.11020
3991.93012,0.10923
3993.85859,0.10842
3995.78706,0.10851
3997.71553,0.10848
3999.64400,0.11029
4001.57247,0.11368
4003.50094,0.11240
4005.42941,0.10681
4007.35787,0.10422
4009.28634,0.10622
4011.21481,0.10826
4013.14328,0.10762
4015.07175,0.10449
4017.00022,0.10164
4018.92869,0.10163
4020.85715,0.10546
4022.78562,0.11211
4024.71409,0.11467
4026.64256,0.10910
4028.57103,0.10055
4030.49950,0.09544
4032.42797,0.09632
4034.35644,0.10084
4036.28490,0.10573
4038.21337,0.10920
4040.14184,0.11082
4042.07031,0.11112
4043.99878,0.10826
4045.92725,0.10270
4047.85572,0.10075
4049.78418,0.10239
4051.71265,0.10052
4053.64112,0.09601
4055.56959,0.09602
4057.49806,0.09976
4059.42653,0.10109
4061.35500,0.10043
4063.28346,0.10053
4065.21193,0.09982
4067.14040,0.09791
4069.06887,0.09601
4070.99734,0.09514
4072.92581,0.09565
4074.85428,0.09560
4076.78275,0.09364
4078.71121,0.08950
4080.63968,0.08607
4082.56815,0.08686
4084.49662,0.08818
4086.42509,0.08729
4088.35356,0.08673
4090.28203,0.08740
4092.21049,0.08857
4094.13896,0.08954
4096.06743,0.09053
4097.99590,0.09195
4099.92437,0.09307
4101.85284,0.09307
4103.78131,0.09263
4105.70978,0.09413
4107.63824,0.09590
4109.56671,0.09257
4111.49518,0.08688
4113.42365,0.08602
4115.35212,0.08907
4117.28059,0.09164
4119.20906,0.09393
4121.13752,0.09596
4123.06599,0.09479
4124.99446,0.09239
4126.92293,0.09148
4128.85140,0.08934
4130.77987,0.08732
4132.70834,0.08815
4134.63681,0.08765
4136.56527,0.08406
4138.49374,0.08359
4140.42221,0.08678
4142.35068,0.08795
4144.27915,0.08857
4146.20762,0.08865
4148.13609,0.08607
4150.06455,0.08556
4151.99302,0.08733
4153.92149,0.08598
4155.84996,0.08339
4157.77843,0.08354
4159.70690,0.08249
4161.63537,0.07858
4163.56384,0.07655
4165.49230,0.07721
4167.42077,0.08057
4169.34924,0.08593
4171.27771,0.08803
4173.20618,0.08691
4175.13465,0.08434
4177.06312,0.07827
4178.99158,0.07138
4180.92005,0.06821
4182.84852,0.06940
4184.77699,0.07239
4186.70546,0.07592
4188.63393,0.07996
4190.56240,0.08118
4192.49087,0.08034
4194.41933,0.07958
4196.34780,0.07599
4198.27627,0.06991
4200.20474,0.06527
4202.13321,0.06553
4204.06168,0.07155
4205.99015,0.07653
4207.91861,0.07549
4209.84708,0.07331
4211.77555,0.07101
4213.70402,0.06710
4215.63249,0.06701
4217.56096,0.07051
4219.48943,0.07093
4221.41789,0.06876
4223.34636,0.06830
4225.27483,0.06914
4227.20330,0.06897
4229.13177,0.06947
4231.06024,0.07083
4232.98871,0.06774
4234.91718,0.06220
4236.84564,0.05983
4238.77411,0.05854
4240.70258,0.05924
4242.63105,0.06353
4244.55952,0.06636
4246.48799,0.06737
4248.41646,0.07097
4250.34492,0.07508
4252.27339,0.07408
4254.20186,0.06858
4256.13033,0.06437
4258.05880,0.06135
4259.98727,0.05576
4261.91574,0.04988
4263.84421,0.04596
4265.77267,0.04603
4267.70114,0.04963
4269.62961,0.04933
4271.55808,0.04553
4273.48655,0.04651
4275.41502,0.05221
4277.34349,0.05468
4279.27195,0.05457
4281.20042,0.05898
4283.12889,0.06382
4285.05736,0.06128
4286.98583,0.05397
4288.91430,0.05044
4290.84277,0.05378
4292.77124,0.05821
4294.69970,0.05742
4296.62817,0.05307
4298.55664,0.05149
4300.48511,0.05336
4302.41358,0.05396
4304.34205,0.05128
4306.27052,0.04687
4308.19898,0.04511
4310.12745,0.04689
4312.05592,0.04537
4313.98439,0.04270
4315.91286,0.04598
4317.84133,0.04996
4319.76980,0.04673
4321.69827,0.04020
4323.62673,0.04385
4325.55520,0.05412
4327.48367,0.05335
4329.41214,0.04432
4331.34061,0.03821
4333.26908,0.03716
4335.19755,0.04129
4337.12601,0.04599
4339.05448,0.04391
4340.98295,0.03642
4342.91142,0.03277
4344.83989,0.03347
4346.76836,0.03331
4348.69683,0.03736
4350.62530,0.04305
4352.55376,0.04021
4354.48223,0.03739
4356.41070,0.04200
4358.33917,0.04284
4360.26764,0.03761
4362.19611,0.03443
4364.12458,0.03465
4366.05304,0.03810
4367.98151,0.04057
4369.90998,0.03468
4371.83845,0.02564
4373.76692,0.02262
4375.69539,0.02379
4377.62386,0.02265
4379.55232,0.02117
4381.48079,0.02475
4383.40926,0.02964
4385.33773,0.03087
4387.26620,0.02748
4389.19467,0.02250
4391.12314,0.02173
4393.05161,0.02627
4394.98007,0.03185
4396.90854,0.03118
4398.83701,0.02570
4400.76548,0.02244
4402.69395,0.02090
4404.62242,0.02115
4406.55089,0.02345
4408.47935,0.02572
4410.40782,0.02742
4412.33629,0.02683
4414.26476,0.02557
4416.19323,0.02707
4418.12170,0.02607
4420.05017,0.01913
4421.97864,0.01491
4423.90710,0.01538
4425.83557,0.01205
4427.76404,0.00747
4429.69251,0.01195
4431.62098,0.02330
4433.54945,0.02918
4435.47792,0.02501
4437.40638,0.01951
4439.33485,0.01867
4441.26332,0.01650
4443.19179,0.01209
4445.12026,0.01386
4447.04873,0.02265
4448.97720,0.03131
4450.90567,0.03441
4452.83413,0.03049
4454.76260,0.02261
4456.69107,0.01690
4458.61954,0.01602
4460.54801,0.01422
4462.47648,0.01039
4464.40495,0.01123
4466.33341,0.01418
4468.26188,0.01419
4470.19035,0.01250
4472.11882,0.01425
4474.04729,0.02107
4475.97576,0.01890
4477.90423,0.00564
4479.83270,0.00242
4481.76116,0.01055
4483.68963,0.01329
4485.61810,0.01054
4487.54657,0.00944
4489.47504,0.00868
4491.40351,0.00848
4493.33198,0.00886
4495.26044,0.00655
4497.18891,0.00387
4499.11738,0.00589
4501.04585,0.01173
4502.97432,0.01571
4504.90279,0.01446
4506.83126,0.00927
4508.75973,0.00094
4510.68819,-0.00695
4512.61666,-0.00717
4514.54513,-0.00088
4516.47360,0.00596
4518.40207,0.01148
4520.33054,0.01323
4522.25901,0.01044
4524.18747,0.00562
4526.11594,0.00109
4528.04441,-0.00166
4529.97288,-0.00112
4531.90135,0.00327
4533.82982,0.00794
4535.75829,0.01069
4537.68676,0.01310
4539.61522,0.01362
4541.54369,0.00833
4543.47216,0.00047
4545.40063,-0.00144
4547.32910,0.00474
4549.25757,0.01384
4551.18604,0.01760
4553.11450,0.01102
4555.04297,0.00089
4556.97144,-0.00102
4558.89991,0.00464
4560.82838,0.00503
4562.75685,-0.00151
4564.68532,-0.00398
4566.61378,-0.00249
4568.54225,-0.00543
4570.47072,-0.00885
4572.39919,-0.00519
4574.32766,-0.00049
4576.25613,0.00090
4578.18460,0.00442
4580.11307,0.00606
4582.04153,0.00225
4583.97000,0.00052
4585.89847,0.00397
4587.82694,0.00682
4589.75541,0.00568
4591.68388,0.00459
4593.61235,0.00558
4595.54081,0.00890
4597.46928,0.01381
4599.39775,0.01323
4601.32622,0.00328
4603.25469,-0.00637
4605.18316,-0.00422
4607.11163,0.00488
4609.04010,0.00966
4610.96856,0.00654
4612.89703,-0.00021
4614.82550,-0.00456
4616.75397,-0.00339
4618.68244,-0.00114
4620.61091,-0.00239
4622.53938,-0.00421
4624.46784,-0.00581
4626.39631,-0.00720
4628.32478,-0.00468
4630.25325,0.00355
4632.18172,0.01163
4634.11019,0.01203
4636.03866,0.00667
4637.96713,0.00142
4639.89559,0.00034
4641.82406,0.00420
4643.75253,0.00706
4645.68100,0.00446
4647.60947,-0.00123
4649.53794,-0.00417
4651.46641,-0.00163
4653.39487,0.00083
4655.32334,-0.00101
4657.25181,-0.00179
4659.18028,0.00286
4661.10875,0.00977
4663.03722,0.01400
4664.96569,0.01247
4666.89416,0.00810
4668.82262,0.00643
4670.75109,0.00929
4672.67956,0.01328
4674.60803,0.01533
4676.53650,0.02129
4678.46497,0.02992
4680.39344,0.02624
4682.32190,0.01025
4684.25037,-0.00058
4686.17884,0.00163
4688.10731,0.00942
4690.03578,0.01333
4691.96425,0.00839
4693.89272,-0.00005
4695.82119,-0.00101
4697.74965,0.00669
4699.67812,0.01814
4701.60659,0.02374
4703.53506,0.01575
4705.46353,0.00696
4707.39200,0.00959
4709.32047,0.01489
4711.24893,0.01256
4713.17740,0.00407
4715.10587,-0.00285
4717.03434,-0.00477
4718.96281,-0.00532
4720.89128,-0.00658
4722.81975,-0.00511
4724.74821,-0.00102
4726.67668,0.00078
4728.60515,0.00131
4730.53362,0.00441
4732.46209,0.00695
4734.39056,0.00439
4736.31903,0.00180
4738.24750,0.00782
4740.17596,0.02145
4742.10443,0.02833
4744.03290,0.01659
4745.96137,-0.00285
4747.88984,-0.01043
4749.81831,-0.00337
4751.74678,0.00299
4753.67524,-0.00368
4755.60371,-0.01237
4757.53218,-0.00670
4759.46065,0.00590
4761.38912,0.01237
4763.31759,0.01509
4765.24606,0.01708
4767.17453,0.01505
4769.10299,0.00979
4771.03146,0.00890
4772.95993,0.01423
4774.88840,0.01744
4776.81687,0.01201
4778.74534,-0.00042
4780.67381,-0.00880
4782.60227,-0.00522
4784.53074,0.00413
4786.45921,0.01380
4788.38768,0.02174
4790.31615,0.02269
4792.24462,0.01776
4794.17309,0.01377
4796.10156,0.01468
4798.03002,0.01646
4799.95849,0.01087
4801.88696,0.00322
4803.81543,0.00190
4805.74390,-0.00088
4807.67237,-0.00410
4809.60084,0.00183
4811.52930,0.00792
4813.45777,0.00711
4815.38624,0.00229
4817.31471,-0.00338
4819.24318,-0.00300
4821.17165,0.00376
4823.10012,0.01085
4825.02859,0.01506
4826.95705,0.01371
4828.88552,0.00554
4830.81399,-0.00128
4832.74246,0.00217
4834.67093,0.00756
4836.59940,0.00745
4838.52787,0.00805
4840.45633,0.00777
4842.38480,0.00535
4844.31327,0.00852
4846.24174,0.01403
4848.17021,0.01404
4850.09868,0.00655
4852.02715,0.00170
4853.95562,0.00700
4855.88408,0.01133
4857.81255,0.00873
4859.74102,0.00419
4861.66949,-0.00104
4863.59796,-0.00748
4865.52643,-0.01165
4867.45490,-0.01015
4869.38336,-0.00769
4871.31183,-0.00347
4873.24030,0.00429
4875.16877,0.00711
4877.09724,0.00848
4879.02571,0.01623
4880.95418,0.02366
4882.88265,0.02339
4884.81111,0.01683
4886.73958,0.01053
4888.66805,0.00972
4890.59652,0.01229
4892.52499,0.01461
4894.45346,0.01319
4896.38193,0.00783
4898.31039,0.00579
4900.23886,0.00316
4902.16733,-0.00271
4904.09580,0.00535
4906.02427,0.02651
4907.95274,0.03453
4909.88121,0.02455
4911.80967,0.00752
4913.73814,-0.00814
4915.66661,-0.01103
4917.59508,-0.00290
4919.52355,0.00456
4921.45202,0.00324
4923.38049,-0.00283
4925.30896,0.00134
4927.23742,0.00884
4929.16589,0.00563
4931.09436,0.00081
4933.02283,0.00617
4934.95130,0.01718
4936.87977,0.02357
4938.80824,0.02434
4940.73670,0.02466
4942.66517,0.02509
4944.59364,0.01599
4946.52211,0.00380
4948.45058,0.00311
4950.37905,0.00910
4952.30752,0.00941
4954.23599,0.00355
4956.16445,-0.00708
4958.09292,-0.02018
4960.02139,-0.02274
4961.94986,-0.01762
4963.87833,-0.01538
4965.80680,-0.00464
4967.73527,0.01455
4969.66373,0.02340
4971.59220,0.01761
4973.52067,0.00889
4975.44914,0.00317
4977.37761,0.00187
4979.30608,0.01427
4981.23455,0.02765
4983.16302,0.02149
4985.09148,0.01052
4987.01995,0.00619
4988.94842,0.00688
4990.87689,0.01221
4992.80536,0.01078
4994.73383,0.00896
4996.66230,0.01884
4998.59076,0.02224
5000.51923,0.01928
5002.44770,0.02500
5004.37617,0.02799
5006.30464,0.01594
5008.23311,-0.00156
5010.16158,-0.01045
5012.09005,-0.00811
5014.01851,0.00168
5015.94698,0.01065
5017.87545,0.00356
5019.80392,-0.01438
5021.73239,-0.01986
5023.66086,-0.00853
5025.58933,0.00675
5027.51779,0.01440
5029.44626,0.01164
5031.37473,0.00765
5033.30320,0.00933
5035.23167,0.01217
5037.16014,0.01127
5039.08861,0.00786
5041.01708,0.00755
5042.94554,0.00948
5044.87401,0.00734
5046.80248,0.00267
5048.73095,0.00554
5050.65942,0.01564
5052.58789,0.01706
5054.51636,0.00748
5056.44482,0.00263
5058.37329,0.00916
5060.30176,0.01963
5062.23023,0.02590
5064.15870,0.02856
5066.08717,0.03107
5068.01564,0.02930
5069.94410,0.02086
5071.87257,0.01346
5073.80104,0.01028
5075.72951,0.01331
5077.65798,0.02049
5079.58645,0.02083
5081.51492,0.01802
5083.44339,0.02330
5085.37185,0.03253
5087.30032,0.03118
5089.22879,0.01599
5091.15726,0.00642
5093.08573,0.01574
5095.01420,0.02831
5096.94267,0.02870
5098.87113,0.02549
5100.79960,0.02458
5102.72807,0.02106
5104.65654,0.02407
5106.58501,0.03335
5108.51348,0.03210
5110.44195,0.02451
5112.37042,0.01992
5114.29888,0.01461
5116.22735,0.00815
5118.15582,0.00347
5120.08429,0.00275
5122.01276,0.00690
5123.94123,0.01184
5125.86970,0.01187
5127.79816,0.01186
5129.72663,0.01658
5131.65510,0.02143
5133.58357,0.02905
5135.51204,0.04132
5137.44051,0.04388
5139.36898,0.02394
5141.29745,-0.00043
5143.22591,-0.00178
5145.15438,0.01344
5147.08285,0.02304
5149.01132,0.02310
5150.93979,0.01718
5152.86826,0.01134
5154.79673,0.01713
5156.72519,0.02552
5158.65366,0.01955
5160.58213,0.01093
5162.51060,0.01487
5164.43907,0.02652
5166.36754,0.03103
5168.29601,0.02575
5170.22448,0.02601
5172.15294,0.03945
5174.08141,0.05164
5176.00988,0.04795
5177.93835,0.03001
5179.86682,0.01972
5181.79529,0.03274
5183.72376,0.05084
5185.65222,0.05572
5187.58069,0.05388
5189.50916,0.05009
5191.43763,0.04119
5193.36610,0.03209
5195.29457,0.02453
5197.22304,0.01683
5199.15151,0.01372
5201.07997,0.01064
5203.00844,0.01100
5204.93691,0.02865
5206.86538,0.04896
5208.79385,0.05070
5210.72232,0.04441
5212.65079,0.04080
5214.57925,0.04156
5216.50772,0.04507
5218.43619,0.05208
5220.36466,0.06290
5222.29313,0.06693
5224.22160,0.05852
5226.15007,0.03871
5228.07854,0.02088
5230.00700,0.02757
5231.93547,0.04597
5233.86394,0.04545
5235.79241,0.03567
5237.72088,0.03637
5239.64935,0.03779
5241.57782,0.03724
5243.50628,0.04222
5245.43475,0.03947
5247.36322,0.02890
5249.29169,0.02390
5251.22016,0.02486
5253.14863,0.03264
5255.07710,0.03958
5257.00556,0.04316
5258.93403,0.04674
5260.86250,0.03954
5262.79097,0.03176
5264.71944,0.04538
5266.64791,0.05757
5268.57638,0.05395
5270.50485,0.05445
5272.43331,0.05541
5274.36178,0.04551
5276.29025,0.03880
5278.21872,0.04724
5280.14719,0.05357
5282.07566,0.04147
5284.00413,0.02818
5285.93259,0.02856
5287.86106,0.03847
5289.78953,0.04532
5291.71800,0.03965
5293.64647,0.03734
5295.57494,0.04506
5297.50341,0.05153
5299.43188,0.05078
5301.36034,0.04154
5303.28881,0.03487
5305.21728,0.04319
5307.14575,0.05869
5309.07422,0.06372
5311.00269,0.05243
5312.93116,0.04082
5314.85962,0.04490
5316.78809,0.05272
5318.71656,0.04977
5320.64503,0.04770
5322.57350,0.05382
5324.50197,0.05900
5326.43044,0.05669
5328.35891,0.04720
5330.28737,0.03600
5332.21584,0.03104
5334.14431,0.03256
5336.07278,0.03062
5338.00125,0.03060
5339.92972,0.04296
5341.85819,0.05305
5343.78665,0.05514
5345.71512,0.05423
5347.64359,0.04906
5349.57206,0.04186
5351.50053,0.04219
5353.42900,0.05503
5355.35747,0.06515
5357.28594,0.06700
5359.21440,0.06853
5361.14287,0.06858
5363.07134,0.06173
5364.99981,0.04250
5366.92828,0.03058
5368.85675,0.04429
5370.78522,0.06464
5372.71368,0.07699
5374.64215,0.07388
5376.57062,0.05181
5378.49909,0.04066
5380.42756,0.04463
5382.35603,0.04740
5384.28450,0.05332
5386.21297,0.07026
5388.14143,0.08345
5390.06990,0.07596
5391.99837,0.06007
5393.92684,0.05743
5395.85531,0.06735
5397.78378,0.06984
5399.71225,0.06175
5401.64071,0.05661
5403.56918,0.05396
5405.49765,0.04775
5407.42612,0.03952
5409.35459,0.02978
5411.28306,0.02112
5413.21153,0.02439
5415.13999,0.04283
5417.06846,0.05232
5418.99693,0.04984
5420.92540,0.05014
5422.85387,0.04277
5424.78234,0.02643
5426.71081,0.02559
5428.63928,0.04838
5430.56774,0.06997
5432.49621,0.07807
5434.42468,0.08007
5436.35315,0.07120
5438.28162,0.06485
5440.21009,0.07497
5442.13856,0.09026
5444.06702,0.10401
5445.99549,0.10722
5447.92396,0.09057
5449.85243,0.06664
5451.78090,0.04370
5453.70937,0.02469
5455.63784,0.02301
5457.56631,0.04918
5459.49477,0.08348
5461.42324,0.09330
5463.35171,0.07934
5465.28018,0.06518
5467.20865,0.05483
5469.13712,0.05307
5471.06559,0.06285
5472.99405,0.06152
5474.92252,0.04668
5476.85099,0.03968
5478.77946,0.03403
5480.70793,0.02722
5482.63640,0.02947
5484.56487,0.03748
5486.49334,0.05761
5488.42180,0.09141
5490.35027,0.11207
5492.27874,0.10133
5494.20721,0.07673
5496.13568,0.05039
5498.06415,0.02565
5499.99262,0.02687
5501.92108,0.05285
5503.84955,0.08212
5505.77802,0.09516
5507.70649,0.08157
5509.63496,0.07664
5511.56343,0.09196
5513.49190,0.09602
5515.42037,0.08359
5517.34883,0.07621
5519.27730,0.07826
5521.20577,0.07558
5523.13424,0.07686
5525.06271,0.09519
5526.99118,0.10596
5528.91965,0.09211
5530.84811,0.07434
5532.77658,0.07674
5534.70505,0.09610
5536.63352,0.10095
5538.56199,0.08791
5540.49046,0.08991
5542.41893,0.09656
5544.34740,0.07990
5546.27586,0.05681
5548.20433,0.04933
5550.13280,0.05665
5552.06127,0.06478
5553.98974,0.06359
5555.91821,0.06940
5557.84668,0.08767
5559.77514,0.08980
5561.70361,0.06732
5563.63208,0.05570
5565.56055,0.07698
5567.48902,0.09850
5569.41749,0.10702
5571.34596,0.12116
5573.27443,0.13033
5575.20289,0.11866
5577.13136,0.10208
5579.05983,0.09514
5580.98830,0.08616
5582.91677,0.08152
5584.84524,0.09699
5586.77371,0.11396
5588.70217,0.11633
5590.63064,0.11180
5592.55911,0.10611
5594.48758,0.09114
5596.41605,0.06951
5598.34452,0.06291
5600.27299,0.07942
5602.20145,0.09848
5604.12992,0.10652
5606.05839,0.10715
5607.98686,0.10229
5609.91533,0.09743
5611.84380,0.09995
5613.77227,0.11728
5615.70074,0.14770
5617.62920,0.16114
5619.55767,0.12058
5621.48614,0.06092
5623.41461,0.05007
5625.34308,0.06627
5627.27155,0.07382
5629.20002,0.07991
5631.12848,0.07190
5633.05695,0.06009
5634.98542,0.06819
5636.91389,0.07765
5638.84236,0.08223
5640.77083,0.10272
5642.69930,0.12292
5644.62777,0.11572
5646.55623,0.08813
5648.48470,0.06478
5650.41317,0.05661
5652.34164,0.05774
5654.27011,0.07121
5656.19858,0.09357
5658.12705,0.10539
5660.05551,0.10361
5661.98398,0.09512
5663.91245,0.08468
5665.84092,0.07160
5667.76939,0.05692
5669.69786,0.05540
5671.62633,0.07330
5673.55480,0.09704
5675.48326,0.10644
5677.41173,0.09933
5679.34020,0.08943
5681.26867,0.07482
5683.19714,0.05530
5685.12561,0.04816
5687.05408,0.07689
5688.98254,0.13176
5690.91101,0.14958
5692.83948,0.11051
5694.76795,0.07272
5696.69642,0.07191
5698.62489,0.08347
5700.55336,0.08580
5702.48183,0.08812
5704.41029,0.09816
5706.33876,0.09821
5708.26723,0.07402
5710.19570,0.05080
5712.12417,0.06282
5714.05264,0.08770
5715.98111,0.07517
5717.90957,0.05339
5719.83804,0.07515
5721.76651,0.11026
5723.69498,0.11615
5725.62345,0.11017
5727.55192,0.09974
5729.48039,0.06768
5731.40886,0.04792
5733.33732,0.07411
5735.26579,0.12047
5737.19426,0.15268
5739.12273,0.16707
5741.05120,0.15580
5742.97967,0.12511
5744.90814,0.10632
5746.83660,0.10461
5748.76507,0.10263
5750.69354,0.08709
5752.62201,0.07052
5754.55048,0.08187
5756.47895,0.11332
5758.40742,0.13646
5760.33588,0.13606
5762.26435,0.10461
5764.19282,0.07138
5766.12129,0.07663
5768.04976,0.09708
5769.97823,0.09218
5771.90670,0.07163
5773.83517,0.07084
5775.76363,0.08083
5777.69210,0.07332
5779.62057,0.05997
5781.54904,0.06191
5783.47751,0.08348
5785.40598,0.10929
5787.33445,0.11752
5789.26291,0.10717
5791.19138,0.08430
5793.11985,0.06953
5795.04832,0.07857
5796.97679,0.08558
5798.90526,0.08065
5800.83373,0.08016
5802.76220,0.07896
5804.69066,0.07007
5806.61913,0.05317
5808.54760,0.04689
5810.47607,0.06267
5812.40454,0.06781
5814.33301,0.05477
5816.26148,0.05484
5818.18994,0.07534
5820.11841,0.10174
5822.04688,0.12389
5823.97535,0.11893
5825.90382,0.07618
5827.83229,0.03528
5829.76076,0.02361
5831.68923,0.03532
5833.61769,0.06847
5835.54616,0.08924
5837.47463,0.06534
5839.40310,0.03966
5841.33157,0.05636
5843.26004,0.08096
5845.18851,0.07822
5847.11697,0.07746
5849.04544,0.09923
5850.97391,0.10882
5852.90238,0.08751
5854.83085,0.06106
5856.75932,0.05736
5858.68779,0.07186
5860.61626,0.08025
5862.54472,0.07485
5864.47319,0.07019
5866.40166,0.08733
5868.33013,0.12103
5870.25860,0.13527
5872.18707,0.09814
5874.11554,0.04634
5876.04400,0.05839
5877.97247,0.10461
5879.90094,0.10916
5881.82941,0.09132
5883.75788,0.08960
5885.68635,0.09935
5887.61482,0.10327
5889.54329,0.10271
5891.47175,0.09568
5893.40022,0.07609
5895.32869,0.06017
5897.25716,0.05822
5899.18563,0.05911
5901.11410,0.05192
5903.04257,0.05004
5904.97103,0.07851
5906.89950,0.12687
5908.82797,0.12983
5910.75644,0.07600
5912.68491,0.06547
5914.61338,0.10599
5916.54185,0.11378
5918.47032,0.09536
5920.39878,0.08610
5922.32725,0.08985
5924.25572,0.11395
5926.18419,0.13236
5928.11266,0.11873
5930.04113,0.11350
5931.96960,0.13614
5933.89806,0.15470
5935.82653,0.13577
5937.75500,0.09054
5939.68347,0.08036
5941.61194,0.10063
5943.54041,0.08795
5945.46888,0.05835
5947.39734,0.06585
5949.32581,0.08701
5951.25428,0.06197
5953.18275,0.01891
5955.11122,0.01926
5957.03969,0.04678
5958.96816,0.06323
5960.89663,0.08224
5962.82509,0.11041
5964.75356,0.11907
5966.68203,0.10779
5968.61050,0.10059
5970.53897,0.10292
5972.46744,0.08965
5974.39591,0.05415
5976.32437,0.04716
5978.25284,0.07959
5980.18131,0.10092
5982.10978,0.10319
5984.03825,0.10295
5985.96672,0.10080
5987.89519,0.11577
5989.82366,0.14349
5991.75212,0.15032
5993.68059,0.14374
5995.60906,0.13794
5997.53753,0.11377
5999.46600,0.07216
6001.39447,0.03759
6003.32294,0.03494
6005.25140,0.05228
6007.17987,0.05548
6009.10834,0.06558
6011.03681,0.09168
6012.96528,0.10049
6014.89375,0.08301
6016.82222,0.05839
6018.75069,0.05353
6020.67915,0.06302
6022.60762,0.06097
6024.53609,0.04499
6026.46456,0.01758
6028.39303,-0.00703
6030.32150,0.00210
6032.24997,0.03924
6034.17843,0.07699
6036.10690,0.10356
6038.03537,0.09591
6039.96384,0.04204
6041.89231,-0.00978
6043.82078,-0.01783
6045.74925,0.00291
6047.67772,0.03328
6049.60618,0.04653
6051.53465,0.04696
6053.46312,0.07688
6055.39159,0.10730
6057.32006,0.09093
6059.24853,0.06140
6061.17700,0.05091
6063.10546,0.04458
6065.03393,0.04934
6066.96240,0.08756
6068.89087,0.13027
6070.81934,0.13707
6072.74781,0.11751
6074.67628,0.09857
6076.60475,0.08696
6078.53321,0.07113
6080.46168,0.05569
6082.39015,0.04674
6084.31862,0.02093
6086.24709,0.00480
6088.17556,0.03622
6090.10403,0.05734
6092.03249,0.04117
6093.96096,0.03677
6095.88943,0.04831
6097.81790,0.05631
6099.74637,0.08384
6101.67484,0.11443
6103.60331,0.11437
6105.53177,0.11590
6107.46024,0.13538
6109.38871,0.14588
6111.31718,0.13939
6113.24565,0.12221
6115.17412,0.10048
6117.10259,0.06505
6119.03106,0.00897
6120.95952,-0.02323
6122.88799,-0.00046
6124.81646,0.04591
6126.74493,0.04661
6128.67340,0.00316
6130.60187,0.00671
6132.53034,0.05366
6134.45880,0.09014
6136.38727,0.09234
6138.31574,0.06165
6140.24421,0.05469
6142.17268,0.08366
6144.10115,0.09545
6146.02962,0.08754
6147.95809,0.08796
6149.88655,0.09708
6151.81502,0.10057
6153.74349,0.09956
6155.67196,0.10135
6157.60043,0.10052
6159.52890,0.09803
6161.45737,0.10305
6163.38583,0.10383
6165.31430,0.07359
6167.24277,0.04263
6169.17124,0.05174
6171.09971,0.06347
6173.02818,0.05431
6174.95665,0.05790
6176.88512,0.08458
6178.81358,0.11068
6180.74205,0.09158
6182.67052,0.05351
6184.59899,0.07779
6186.52746,0.12439
6188.45593,0.09516
6190.38440,0.04623
6192.31286,0.04107
6194.24133,0.02846
6196.16980,0.00210
6198.09827,0.01013
6200.02674,0.04780
6201.95521,0.06409
6203.88368,0.06152
6205.81215,0.06824
6207.74061,0.06823
6209.66908,0.05642
6211.59755,0.02995
6213.52602,-0.00757
6215.45449,-0.01813
6217.38296,0.00298
6219.31143,0.00705
6221.23989,-0.00801
6223.16836,0.00103
6225.09683,0.01597
6227.02530,0.00083
6228.95377,-0.01066
6230.88224,-0.00109
6232.81071,0.00591
6234.73918,0.01074
6236.66764,0.04832
6238.59611,0.11942
6240.52458,0.15275
6242.45305,0.13620
6244.38152,0.13108
6246.30999,0.13165
6248.23846,0.11325
6250.16692,0.08048
6252.09539,0.05734
6254.02386,0.06214
6255.95233,0.08365
6257.88080,0.09506
6259.80927,0.06980
6261.73774,0.02774
6263.66621,0.01622
6265.59467,0.04814
6267.52314,0.07157
6269.45161,0.04562
6271.38008,0.01904
6273.30855,0.05302
6275.23702,0.10971
6277.16549,0.11590
6279.09395,0.09959
6281.02242,0.09150
6282.95089,0.07805
6284.87936,0.03741
6286.80783,-0.01672
6288.73630,-0.01448
6290.66477,0.05218
6292.59323,0.08809
6294.52170,0.06391
6296.45017,0.04618
6298.37864,0.06644
6300.30711,0.09875
6302.23558,0.12543
6304.16405,0.14329
6306.09252,0.13908
6308.02098,0.11754
6309.94945,0.09082
6311.87792,0.05913
6313.80639,0.04385
6315.73486,0.04877
6317.66333,0.05083
6319.59180,0.04601
6321.52026,0.05141
6323.44873,0.06550
6325.37720,0.07092
6327.30567,0.10098
6329.23414,0.15364
6331.16261,0.13390
6333.09108,0.05667
6335.01955,0.01233
6336.94801,-0.01638
6338.87648,-0.05034
6340.80495,-0.04848
6342.73342,0.00075
6344.66189,0.05762
6346.59036,0.08383
6348.51883,0.05657
6350.44729,-0.00522
6352.37576,-0.01755
6354.30423,0.02075
6356.23270,0.04739
6358.16117,0.06663
6360.08964,0.11613
6362.01811,0.18404
6363.94658,0.20423
6365.87504,0.15990
6367.80351,0.10430
6369.73198,0.06037
6371.66045,0.02368
6373.58892,0.01797
6375.51739,0.05772
6377.44586,0.09667
6379.37432,0.09657
6381.30279,0.08127
6383.23126,0.06910
6385.15973,0.06505
6387.08820,0.09655
6389.01667,0.13849
6390.94514,0.16422
6392.87361,0.18137
6394.80207,0.12805
6396.73054,0.01339
6398.65901,-0.05579
6400.58748,-0.05255
6402.51595,-0.02314
6404.44442,0.01421
6406.37289,0.04876
6408.30135,0.02463
6410.22982,-0.03586
6412.15829,-0.04008
6414.08676,0.01178
6416.01523,0.09234
6417.94370,0.19039
6419.87217,0.22955
6421.80064,0.18626
6423.72910,0.12504
6425.65757,0.09115
6427.58604,0.08458
6429.51451,0.08749
6431.44298,0.09585
6433.37145,0.12292
6435.29992,0.14625
6437.22838,0.13083
6439.15685,0.11450
6441.08532,0.11653
6443.01379,0.10423
6444.94226,0.09579
6446.87073,0.08727
6448.79920,0.04339
6450.72766,0.00377
6452.65613,0.01235
6454.58460,0.04374
6456.51307,0.07680
6458.44154,0.09984
6460.37001,0.11595
6462.29848,0.12793
6464.22695,0.08020
6466.15541,-0.02423
6468.08388,-0.07982
6470.01235,-0.05957
6471.94082,-0.00408
6473.86929,0.06602
6475.79776,0.10956
6477.72623,0.11696
6479.65469,0.13189
6481.58316,0.14883
6483.51163,0.13112
6485.44010,0.10020
6487.36857,0.06728
6489.29704,0.01901
6491.22551,-0.01802
6493.15398,-0.02782
6495.08244,-0.00244
6497.01091,0.05293
6498.93938,0.10251
6500.86785,0.14194
6502.79632,0.13342
6504.72479,0.08300
6506.65326,0.06740
6508.58172,0.05597
6510.51019,0.03730
6512.43866,0.09069
6514.36713,0.15499
6516.29560,0.14150
6518.22407,0.08931
6520.15254,0.04158
6522.08101,0.01596
6524.00947,0.02939
6525.93794,0.05029
6527.86641,0.06531
6529.79488,0.08229
6531.72335,0.07457
6533.65182,0.07036
6535.58029,0.08069
6537.50875,0.05492
6539.43722,-0.00415
6541.36569,-0.07745
6543.29416,-0.11526
6545.22263,-0.04430
6547.15110,0.08456
6549.07957,0.15167
6551.00804,0.09973
6552.93650,0.03381
6554.86497,0.01482
6556.79344,-0.01276
6558.72191,-0.03837
6560.65038,-0.01317
6562.57885,0.04153
6564.50732,0.06486
6566.43578,0.04070
6568.36425,0.02352
6570.29272,0.04769
6572.22119,0.10151
6574.14966,0.14454
6576.07813,0.12340
6578.00660,0.07162
6579.93507,0.04728
6581.86353,0.01256
6583.79200,-0.01234
6585.72047,0.02343
6587.64894,0.06121
6589.57741,0.06264
6591.50588,0.06845
6593.43435,0.10255
6595.36281,0.09618
6597.29128,0.04561
6599.21975,0.05598
6601.14822,0.10940
6603.07669,0.11953
6605.00516,0.11186
6606.93363,0.10303
6608.86210,0.08201
6610.79056,0.03837
6612.71903,-0.01409
6614.64750,-0.01687
6616.57597,0.04786
6618.50444,0.09487
6620.43291,0.07307
6622.36138,0.06087
6624.28984,0.05672
6626.21831,0.01390
6628.14678,0.00282
6630.07525,0.03244
6632.00372,0.01417
6633.93219,-0.03364
6635.86066,-0.03144
6637.78912,0.01909
6639.71759,0.04120
6641.64606,0.04138
6643.57453,0.07575
6645.50300,0.11972
6647.43147,0.14367
6649.35994,0.17072
6651.28841,0.16228
6653.21687,0.13246
6655.14534,0.15610
6657.07381,0.15643
6659.00228,0.08733
6660.93075,0.06405
6662.85922,0.04928
6664.78769,0.01293
6666.71615,0.02058
6668.64462,0.06271
6670.57309,0.08311
6672.50156,0.04827
6674.43003,0.03278
6676.35850,0.06419
6678.28697,0.03123
6680.21544,-0.02768
6682.14390,-0.02783
6684.07237,-0.02759
6686.00084,-0.03920
6687.92931,-0.00842
6689.85778,0.06552
6691.78625,0.13538
6693.71472,0.14565
6695.64318,0.10381
6697.57165,0.09239
6699.50012,0.11235
6701.42859,0.05676
6703.35706,-0.01023
6705.28553,0.06381
6707.21400,0.16986
6709.14247,0.15063
6711.07093,0.06180
6712.99940,-0.00687
6714.92787,-0.01654
6716.85634,0.04182
6718.78481,0.12005
6720.71328,0.15109
6722.64175,0.15195
6724.57021,0.14464
6726.49868,0.09626
6728.42715,0.03345
6730.35562,-0.00363
6732.28409,-0.05624
6734.21256,-0.11758
6736.14103,-0.10922
6738.06950,-0.09109
6739.99796,-0.09185
6741.92643,-0.01885
6743.85490,0.04195
6745.78337,0.01190
6747.71184,-0.01541
6749.64031,0.00089
6751.56878,0.06892
6753.49724,0.16457
6755.42571,0.15233
6757.35418,0.04274
6759.28265,0.01090
6761.21112,0.09924
6763.13959,0.15950
6765.06806,0.15529
6766.99653,0.12595
6768.92499,0.07559
6770.85346,0.02630
6772.78193,0.02181
6774.71040,0.04171
6776.63887,0.03145
6778.56734,0.00829
6780.49581,-0.02199
6782.42427,-0.04665
6784.35274,-0.04586
6786.28121,-0.04240
6788.20968,0.01416
6790.13815,0.13976
6792.06662,0.21171
6793.99509,0.18855
6795.92355,0.16768
6797.85202,0.19299
6799.78049,0.22394
6801.70896,0.21584
6803.63743,0.14036
6805.56590,0.03308
6807.49437,-0.02280
6809.42284,-0.01911
6811.35130,-0.01176
6813.27977,-0.02811
6815.20824,-0.03916
6817.13671,-0.03317
6819.06518,0.00114
6820.99365,0.08901
6822.92212,0.18246
6824.85058,0.19332
6826.77905,0.18324
6828.70752,0.14836
6830.63599,0.04352
6832.56446,0.00728
6834.49293,0.07058
6836.42140,0.12454
6838.34987,0.13626
6840.27833,0.11249
6842.20680,0.04037
6844.13527,-0.06112
6846.06374,-0.13436
6847.99221,-0.12805
6849.92068,-0.05911
6851.84915,-0.00681
6853.77761,0.02422
6855.70608,0.06704
6857.63455,0.08854
6859.56302,0.07993
6861.49149,0.06945
6863.41996,0.04654
6865.34843,0.03660
6867.27690,0.06533
6869.20536,0.08302
6871.13383,0.07426
6873.06230,0.06071
6874.99077,0.04794
6876.91924,0.04217
6878.84771,0.04991
6880.77618,0.08289
6882.70464,0.11063
6884.63311,0.07090
6886.56158,0.00092
6888.49005,-0.02131
6890.41852,0.02065
6892.34699,0.11915
6894.27546,0.19546
6896.20393,0.19932
6898.13239,0.16252
6900.06086,0.08819
6901.98933,-0.00104
6903.91780,-0.01661
6905.84627,0.06011
6907.77474,0.10135
6909.70321,0.06378
6911.63167,0.01053
6913.56014,-0.04034
6915.48861,-0.05265
6917.41708,0.02904
6919.34555,0.09313
6921.27402,0.03831
6923.20249,0.01967
6925.13096,0.05183
6927.05942,0.07094
6928.98789,0.10955
6930.91636,0.09740
6932.84483,-0.00955
6934.77330,-0.03200
6936.70177,0.03534
6938.63024,0.05037
6940.55870,-0.00561
6942.48717,-0.02679
6944.41564,0.01172
6946.34411,0.08738
6948.27258,0.16402
6950.20105,0.17898
6952.12952,0.15323
6954.05799,0.09746
6955.98645,-0.03574
6957.91492,-0.15370
6959.84339,-0.12832
6961.77186,0.02916
6963.70033,0.13441
6965.62880,0.09660
6967.55727,0.01070
6969.48573,-0.02137
6971.41420,0.00716
6973.34267,0.06448
6975.27114,0.13665
6977.19961,0.14526
6979.12808,0.06048
6981.05655,-0.03752
6982.98501,-0.11016
6984.91348,-0.15162
6986.84195,-0.10202
6988.77042,0.06148
6990.69889,0.16336
6992.62736,0.08128
6994.55583,-0.04103
6996.48430,-0.07941
6998.41276,-0.06957
7000.34123,-0.06691
7002.26970,-0.07659
7004.19817,-0.06817
7006.12664,-0.03567
7008.05511,-0.00393
7009.98358,0.03952
7011.91204,0.07422
7013.84051,0.05789
7015.76898,0.05483
7017.69745,0.06415
7019.62592,0.00570
7021.55439,-0.09187
7023.48286,-0.13376
7025.41133,-0.04574
7027.33979,0.12097
7029.26826,0.20660
7031.19673,0.15426
7033.12520,0.09404
7035.05367,0.10345
7036.98214,0.11261
7038.91061,0.08283
7040.83907,0.10995
7042.76754,0.24737
7044.69601,0.31881
7046.62448,0.23745
7048.55295,0.14612
7050.48142,0.11161
7052.40989,0.08967
7054.33836,0.07177
7056.26682,0.08692
7058.19529,0.12947
7060.12376,0.18361
7062.05223,0.21940
7063.98070,0.18130
7065.90917,0.08739
7067.83764,0.02422
7069.76610,0.05611
7071.69457,0.08101
7073.62304,0.02193
7075.55151,0.01519
7077.47998,0.07031
7079.40845,0.11576
7081.33692,0.13046
7083.26539,0.10989
7085.19385,0.12080
7087.12232,0.22262
7089.05079,0.28360
7090.97926,0.19336
7092.90773,0.09610
7094.83620,0.14654
7096.76467,0.26082
7098.69313,0.20669
7100.62160,0.02698
7102.55007,-0.02836
7104.47854,0.04635
7106.40701,0.12130
7108.33548,0.13933
7110.26395,0.09515
7112.19242,0.01873
7114.12088,-0.00275
7116.04935,-0.00013
7117.97782,-0.04436
7119.90629,-0.03561
7121.83476,0.04903
7123.76323,0.10043
7125.69170,0.08710
7127.62016,0.06173
7129.54863,0.04870
7131.47710,-0.01901
7133.40557,-0.15957
7135.33404,-0.23047
7137.26251,-0.11940
7139.19098,0.07230
7141.11944,0.15189
7143.04791,0.07634
7144.97638,-0.08161
7146.90485,-0.16780
7148.83332,-0.12133
7150.76179,-0.08114
7152.69026,-0.11279
7154.61873,-0.13894
7156.54719,-0.11858
7158.47566,-0.03731
7160.40413,0.09948
7162.33260,0.16746
7164.26107,0.13237
7166.18954,0.12616
7168.11801,0.17213
7170.04647,0.19541
7171.97494,0.24094
7173.90341,0.28179
7175.83188,0.16725
7177.76035,-0.02116
7179.68882,-0.06731
7181.61729,0.01564
7183.54576,0.09214
7185.47422,0.08095
7187.40269,0.04022
7189.33116,-0.00634
7191.25963,-0.11585
7193.18810,-0.25683
7195.11657,-0.27331
7197.04504,-0.09810
7198.97350,0.11742
7200.90197,0.21055
7202.83044,0.18004
7204.75891,0.05130
7206.68738,-0.09383
7208.61585,-0.15053
7210.54432,-0.13317
7212.47279,-0.08185
7214.40125,0.01465
7216.32972,0.14361
7218.25819,0.15629
7220.18666,0.08644
7222.11513,0.10213
7224.04360,0.14897
7225.97207,0.16197
7227.90053,0.11060
7229.82900,0.01537
7231.75747,-0.05640
7233.68594,-0.04069
7235.61441,0.12504
7237.54288,0.30750
7239.47135,0.25162
7241.39982,0.08747
7243.32828,0.12034
7245.25675,0.27759
7247.18522,0.31561
7249.11369,0.25419
7251.04216,0.21020
7252.97063,0.24268
7254.89910,0.25086
7256.82756,0.18315
7258.75603,0.08632
7260.68450,-0.05449
7262.61297,-0.17864
7264.54144,-0.14636
7266.46991,-0.08843
7268.39838,-0.13181
7270.32685,-0.19145
7272.25531,-0.10620
7274.18378,0.06341
7276.11225,0.09825
7278.04072,0.01560
7279.96919,-0.07283
7281.89766,-0.01823
7283.82613,0.08987
7285.75459,0.12292
7287.68306,0.13935
7289.61153,0.15597
7291.54000,0.16305
7293.46847,0.13165
7295.39694,0.00837
7297.32541,-0.07736
7299.25387,-0.02950
7301.18234,-0.01196
7303.11081,-0.07090
7305.03928,-0.03784
7306.96775,-0.02275
7308.89622,-0.16925
7310.82469,-0.12202
7312.75316,0.11368
7314.68162,0.25999
7316.61009,0.26350
7318.53856,0.14747
7320.46703,0.03736
7322.39550,0.02983
7324.32397,0.07455
7326.25244,0.03713
7328.18090,-0.10130
7330.10937,-0.11660
7332.03784,0.08783
7333.96631,0.26987
7335.89478,0.34729
7337.82325,0.33196
7339.75172,0.15339
7341.68019,0.03165
7343.60865,0.03527
7345.53712,-0.02734
7347.46559,-0.09495
7349.39406,-0.13007
7351.32253,-0.14806
7353.25100,-0.10619
7355.17947,-0.01410
7357.10793,0.11763
7359.03640,0.19574
7360.96487,0.18246
7362.89334,0.19273
7364.82181,0.22574
7366.75028,0.29934
7368.67875,0.39594
7370.60722,0.39841
7372.53568,0.32238
7374.46415,0.20547
7376.39262,0.04997
7378.32109,-0.04888
7380.24956,-0.03460
7382.17803,0.06024
7384.10650,0.12700
7386.03496,0.11591
7387.96343,0.05095
7389.89190,0.00805
7391.82037,-0.02897
7393.74884,-0.09799
7395.67731,-0.11766
7397.60578,-0.04870
7399.53425,0.03022
7401.46271,0.11369
7403.39118,0.19802
7405.31965,0.13903
7407.24812,-0.00303
7409.17659,-0.05612
7411.10506,-0.02816
7413.03353,0.04617
7414.96199,0.11926
7416.89046,0.13185
7418.81893,0.17444
7420.74740,0.27955
7422.67587,0.28467
7424.60434,0.27690
7426.53281,0.31256
7428.46128,0.30056
7430.38974,0.14594
7432.31821,-0.03845
7434.24668,-0.06981
7436.17515,0.00505
7438.10362,0.03332
7440.03209,0.02560
7441.96056,-0.02066
7443.88902,-0.09940
7445.81749,-0.04875
7447.74596,0.04459
7449.67443,0.09747
7451.60290,0.18511
7453.53137,0.22667
7455.45984,0.24512
7457.38831,0.26628
7459.31677,0.16592
7461.24524,0.02859
7463.17371,0.06892
7465.10218,0.14559
7467.03065,0.13549
7468.95912,0.13888
7470.88759,0.15132
7472.81605,0.15509
7474.74452,0.15293
7476.67299,0.02813
7478.60146,-0.19848
7480.52993,-0.27491
7482.45840,-0.07442
7484.38687,0.17115
7486.31533,0.21798
7488.24380,0.06242
7490.17227,-0.05948
7492.10074,-0.04277
7494.02921,-0.00662
7495.95768,0.08336
7497.88615,0.28797
