399.19301,-0.19547
401.12148,-0.13649
403.04995,-0.11845
404.97842,0.03926
406.90689,0.14936
408.83536,0.20975
410.76382,0.18328
412.69229,0.09211
414.62076,0.02419
416.54923,-0.06411
418.47770,-0.16711
420.40617,-0.13691
422.33464,-0.05468
424.26311,-0.00387
426.19157,0.01398
428.12004,-0.03108
430.04851,-0.11299
431.97698,-0.11423
433.90545,-0.04570
435.83392,0.00111
437.76239,0.02930
439.69085,0.03764
441.61932,0.00169
443.54779,-0.07537
445.47626,-0.10896
447.40473,-0.01448
449.33320,0.11150
451.26167,0.13675
453.19013,0.09866
455.11860,0.06027
457.04707,0.05014
458.97554,0.06419
460.90401,0.07914
462.83248,0.09325
464.76095,0.09383
466.68942,0.09313
468.61788,0.08508
470.54635,0.02610
472.47482,-0.06820
474.40329,-0.05695
476.33176,0.06444
478.26023,0.12569
480.18870,0.12835
482.11716,0.11309
484.04563,0.08667
485.97410,0.07895
487.90257,0.12284
489.83104,0.17285
491.75951,0.17631
493.68798,0.11805
495.61645,0.05016
497.54491,0.03796
499.47338,0.05551
501.40185,0.09693
503.33032,0.14998
505.25879,0.13893
507.18726,0.08800
509.11573,0.07807
511.04419,0.10866
512.97266,0.14201
514.90113,0.14768
516.82960,0.11981
518.75807,0.09006
520.68654,0.07221
522.61501,0.06174
524.54348,0.08617
526.47194,0.13185
528.40041,0.13997
530.32888,0.12579
532.25735,0.12493
534.18582,0.13023
536.11429,0.12043
538.04276,0.08839
539.97122,0.06100
541.89969,0.06884
543.82816,0.10170
545.75663,0.11536
547.68510,0.09598
549.61357,0.06722
551.54204,0.02286
553.47051,-0.01364
555.39897,0.01942
557.32744,0.07557
559.25591,0.08010
561.18438,0.07022
563.11285,0.09069
565.04132,0.10334
566.96979,0.07162
568.89825,0.04101
570.82672,0.05369
572.75519,0.09014
574.68366,0.10406
576.61213,0.07573
578.54060,0.04939
580.46907,0.04872
582.39754,0.05123
584.32600,0.05357
586.25447,0.06106
588.18294,0.06041
590.11141,0.06057
592.03988,0.07209
593.96835,0.07332
595.89682,0.07018
597.82528,0.07342
599.75375,0.07348
601.68222,0.08332
603.61069,0.10398
605.53916,0.11189
607.46763,0.10325
609.39610,0.08902
611.32456,0.07966
613.25303,0.07628
615.18150,0.07365
617.10997,0.07485
619.03844,0.08029
620.96691,0.08276
622.89538,0.08185
624.82385,0.08503
626.75231,0.09402
628.68078,0.09972
630.60925,0.10011
632.53772,0.09861
634.46619,0.09616
636.39466,0.09914
638.32313,0.10786
640.25159,0.11391
642.18006,0.11134
644.10853,0.09846
646.03700,0.08137
647.96547,0.07292
649.89394,0.07952
651.82241,0.10058
653.75088,0.12916
655.67934,0.15247
657.60781,0.15936
659.53628,0.13790
661.46475,0.10159
663.39322,0.08051
665.32169,0.07473
667.25016,0.07491
669.17862,0.09434
671.10709,0.11571
673.03556,0.11786
674.96403,0.10757
676.89250,0.09598
678.82097,0.09114
680.74944,0.09192
682.67791,0.09555
684.60637,0.09517
686.53484,0.08695
688.46331,0.09113
690.39178,0.10688
692.32025,0.10786
694.24872,0.09692
696.17719,0.09346
698.10565,0.09590
700.03412,0.09310
701.96259,0.08775
703.89106,0.08863
705.81953,0.09650
707.74800,0.10634
709.67647,0.13283
711.60494,0.15853
713.53340,0.13692
715.46187,0.10488
717.39034,0.10127
719.31881,0.10181
721.24728,0.10249
723.17575,0.10357
725.10422,0.09775
727.03268,0.09037
728.96115,0.08582
730.88962,0.08525
732.81809,0.08734
734.74656,0.09124
736.67503,0.09658
738.60350,0.10216
740.53197,0.10475
742.46043,0.10316
744.38890,0.10452
746.31737,0.11060
748.24584,0.11747
750.17431,0.12289
752.10278,0.12198
754.03125,0.11727
755.95971,0.11290
757.88818,0.10796
759.81665,0.10369
761.74512,0.10088
763.67359,0.09885
765.60206,0.09578
767.53053,0.09397
769.45900,0.09725
771.38746,0.10366
773.31593,0.10571
775.24440,0.10030
777.17287,0.09531
779.10134,0.09774
781.02981,0.10477
782.95828,0.10850
784.88674,0.10970
786.81521,0.11269
788.74368,0.11526
790.67215,0.11547
792.60062,0.11555
794.52909,0.11789
796.45756,0.11760
798.38602,0.11438
800.31449,0.11309
802.24296,0.11236
804.17143,0.11112
806.09990,0.11136
808.02837,0.11507
809.95684,0.12008
811.88531,0.11899
813.81377,0.10808
815.74224,0.09843
817.67071,0.09915
819.59918,0.10013
821.52765,0.09659
823.45612,0.10160
825.38459,0.12048
827.31305,0.13998
829.24152,0.14477
831.16999,0.13215
833.09846,0.11716
835.02693,0.11361
836.95540,0.11942
838.88387,0.12618
840.81234,0.12493
842.74080,0.11877
844.66927,0.11855
846.59774,0.12344
848.52621,0.12424
850.45468,0.12130
852.38315,0.12115
854.31162,0.12059
856.24008,0.11862
858.16855,0.11901
860.09702,0.12097
862.02549,0.12448
863.95396,0.12456
865.88243,0.11662
867.81090,0.11682
869.73937,0.13318
871.66783,0.13960
873.59630,0.12581
875.52477,0.11401
877.45324,0.11320
879.38171,0.11375
881.31018,0.11259
883.23865,0.11552
885.16711,0.11860
887.09558,0.11512
889.02405,0.11092
890.95252,0.11113
892.88099,0.11737
894.80946,0.12483
896.73793,0.12489
898.66640,0.12214
900.59486,0.12181
902.52333,0.11977
904.45180,0.11646
906.38027,0.11642
908.30874,0.12025
910.23721,0.12597
912.16568,0.12894
914.09414,0.12741
916.02261,0.12537
917.95108,0.12716
919.87955,0.13418
921.80802,0.14054
923.73649,0.13849
925.66496,0.13132
927.59343,0.13121
929.52189,0.13792
931.45036,0.13981
933.37883,0.13577
935.30730,0.13044
937.23577,0.12582
939.16424,0.12429
941.09271,0.12765
943.02117,0.12887
944.94964,0.12161
946.87811,0.11498
948.80658,0.11626
950.73505,0.12099
952.66352,0.12283
954.59199,0.12193
956.52045,0.12258
958.44892,0.12188
960.37739,0.11827
962.30586,0.11863
964.23433,0.12310
966.16280,0.12370
968.09127,0.12133
970.01974,0.12113
971.94820,0.12282
973.87667,0.12568
975.80514,0.13015
977.73361,0.13573
979.66208,0.14081
981.59055,0.14290
983.51902,0.14015
985.44748,0.13708
987.37595,0.13967
989.30442,0.14347
991.23289,0.14091
993.16136,0.13769
995.08983,0.14038
997.01830,0.14190
998.94677,0.13860
1000.87523,0.13424
1002.80370,0.12920
1004.73217,0.12224
1006.66064,0.11907
1008.58911,0.12524
1010.51758,0.13289
1012.44605,0.13450
1014.37451,0.13350
1016.30298,0.13397
1018.23145,0.13477
1020.15992,0.13557
1022.08839,0.13827
1024.01686,0.14156
1025.94533,0.14335
1027.87380,0.14164
1029.80226,0.13752
1031.73073,0.14034
1033.65920,0.15439
1035.58767,0.16256
1037.51614,0.15138
1039.44461,0.13852
1041.37308,0.14089
1043.30154,0.14641
1045.23001,0.14045
1047.15848,0.13282
1049.08695,0.13657
1051.01542,0.14396
1052.94389,0.14629
1054.87236,0.14966
1056.80083,0.15327
1058.72929,0.15032
1060.65776,0.15003
1062.58623,0.15938
1064.51470,0.16566
1066.44317,0.15986
1068.37164,0.15124
1070.30011,0.15049
1072.22857,0.15855
1074.15704,0.16510
1076.08551,0.16105
1078.01398,0.15281
1079.94245,0.14906
1081.87092,0.14586
1083.79939,0.13963
1085.72786,0.14031
1087.65632,0.14781
1089.58479,0.14839
1091.51326,0.14132
1093.44173,0.13551
1095.37020,0.13625
1097.29867,0.14162
1099.22714,0.14595
1101.15560,0.14520
1103.08407,0.14164
1105.01254,0.14161
1106.94101,0.14499
1108.86948,0.14872
1110.79795,0.15044
1112.72642,0.14802
1114.65489,0.14445
1116.58335,0.14365
1118.51182,0.14343
1120.44029,0.14232
1122.36876,0.14264
1124.29723,0.14258
1126.22570,0.13822
1128.15417,0.13336
1130.08263,0.13487
1132.01110,0.14243
1133.93957,0.15037
1135.86804,0.15406
1137.79651,0.15354
1139.72498,0.15134
1141.65345,0.15156
1143.58191,0.15537
1145.51038,0.15724
1147.43885,0.15458
1149.36732,0.15155
1151.29579,0.14984
1153.22426,0.14695
1155.15273,0.14620
1157.08120,0.15141
1159.00966,0.15671
1160.93813,0.15675
1162.86660,0.15398
1164.79507,0.15340
1166.72354,0.15645
1168.65201,0.15910
1170.58048,0.15821
1172.50894,0.15583
1174.43741,0.15502
1176.36588,0.15724
1178.29435,0.15839
1180.22282,0.15415
1182.15129,0.14871
1184.07976,0.14618
1186.00823,0.14654
1187.93669,0.14668
1189.86516,0.14543
1191.79363,0.14667
1193.72210,0.14837
1195.65057,0.14721
1197.57904,0.14598
1199.50751,0.14810
1201.43597,0.15385
1203.36444,0.15823
1205.29291,0.15727
1207.22138,0.15422
1209.14985,0.15428
1211.07832,0.15805
1213.00679,0.16275
1214.93526,0.16429
1216.86372,0.15880
1218.79219,0.15189
1220.72066,0.15122
1222.64913,0.15358
1224.57760,0.15596
1226.50607,0.15721
1228.43454,0.15576
1230.36300,0.15579
1232.29147,0.15869
1234.21994,0.15996
1236.14841,0.15852
1238.07688,0.15724
1240.00535,0.15697
1241.93382,0.15578
1243.86229,0.15396
1245.79075,0.15487
1247.71922,0.15861
1249.64769,0.16100
1251.57616,0.15831
1253.50463,0.15268
1255.43310,0.15169
1257.36157,0.15525
1259.29003,0.15641
1261.21850,0.15409
1263.14697,0.15174
1265.07544,0.15184
1267.00391,0.15284
1268.93238,0.15304
1270.86085,0.15456
1272.78932,0.15627
1274.71778,0.15634
1276.64625,0.15752
1278.57472,0.15931
1280.50319,0.15773
1282.43166,0.15485
1284.36013,0.15552
1286.28860,0.15771
1288.21706,0.15829
1290.14553,0.15979
1292.07400,0.16248
1294.00247,0.16271
1295.93094,0.15917
1297.85941,0.15398
1299.78788,0.14904
1301.71634,0.14302
1303.64481,0.13603
1305.57328,0.13618
1307.50175,0.14837
1309.43022,0.16109
1311.35869,0.16497
1313.28716,0.16560
1315.21563,0.16801
1317.14409,0.17017
1319.07256,0.16831
1321.00103,0.16460
1322.92950,0.16447
1324.85797,0.16411
1326.78644,0.16003
1328.71491,0.15659
1330.64337,0.15368
1332.57184,0.15186
1334.50031,0.15420
1336.42878,0.15699
1338.35725,0.15761
1340.28572,0.15612
1342.21419,0.15559
1344.14266,0.15866
1346.07112,0.16068
1347.99959,0.16004
1349.92806,0.15982
1351.85653,0.16108
1353.78500,0.16338
1355.71347,0.16545
1357.64194,0.16670
1359.57040,0.16946
1361.49887,0.17533
1363.42734,0.17716
1365.35581,0.17134
1367.28428,0.16504
1369.21275,0.16302
1371.14122,0.16610
1373.06969,0.17036
1374.99815,0.17070
1376.92662,0.16851
1378.85509,0.16815
1380.78356,0.17057
1382.71203,0.17471
1384.64050,0.17897
1386.56897,0.18080
1388.49743,0.17898
1390.42590,0.17903
1392.35437,0.18276
1394.28284,0.18722
1396.21131,0.19114
1398.13978,0.19069
1400.06825,0.18454
1401.99672,0.18097
1403.92518,0.18244
1405.85365,0.18170
1407.78212,0.17530
1409.71059,0.16974
1411.63906,0.16891
1413.56753,0.17015
1415.49600,0.17299
1417.42446,0.18165
1419.35293,0.19184
1421.28140,0.19108
1423.20987,0.18328
1425.13834,0.17565
1427.06681,0.17314
1428.99528,0.17559
1430.92375,0.17907
1432.85221,0.18167
1434.78068,0.18486
1436.70915,0.18607
1438.63762,0.18226
1440.56609,0.17814
1442.49456,0.17514
1444.42303,0.17466
1446.35149,0.17916
1448.27996,0.18611
1450.20843,0.18972
1452.13690,0.19085
1454.06537,0.19343
1455.99384,0.19856
1457.92231,0.19852
1459.85077,0.19091
1461.77924,0.18638
1463.70771,0.18586
1465.63618,0.18594
1467.56465,0.18453
1469.49312,0.18603
1471.42159,0.19494
1473.35006,0.20503
1475.27852,0.20191
1477.20699,0.19316
1479.13546,0.18848
1481.06393,0.18778
1482.99240,0.18821
1484.92087,0.18912
1486.84934,0.19266
1488.77780,0.20079
1490.70627,0.20256
1492.63474,0.19615
1494.56321,0.19390
1496.49168,0.19539
1498.42015,0.19427
1500.34862,0.19424
1502.27709,0.19835
1504.20555,0.20474
1506.13402,0.20963
1508.06249,0.20584
1509.99096,0.19982
1511.91943,0.19435
1513.84790,0.19120
1515.77637,0.19115
1517.70483,0.19078
1519.63330,0.19146
1521.56177,0.19580
1523.49024,0.19922
1525.41871,0.19963
1527.34718,0.19626
1529.27565,0.19115
1531.20412,0.18983
1533.13258,0.19119
1535.06105,0.19260
1536.98952,0.19992
1538.91799,0.21707
1540.84646,0.22927
1542.77493,0.21827
1544.70340,0.20262
1546.63186,0.19268
1548.56033,0.19093
1550.48880,0.19494
1552.41727,0.20184
1554.34574,0.20945
1556.27421,0.21939
1558.20268,0.23155
1560.13115,0.21648
1562.05961,0.19761
1563.98808,0.19089
1565.91655,0.19093
1567.84502,0.19697
1569.77349,0.20215
1571.70196,0.19860
1573.63043,0.19670
1575.55889,0.20084
1577.48736,0.19905
1579.41583,0.19125
1581.34430,0.18685
1583.27277,0.18685
1585.20124,0.18924
1587.12971,0.19001
1589.05818,0.18808
1590.98664,0.18721
1592.91511,0.19007
1594.84358,0.19347
1596.77205,0.19266
1598.70052,0.18898
1600.62899,0.18656
1602.55746,0.18661
1604.48592,0.18715
1606.41439,0.18816
1608.34286,0.19116
1610.27133,0.19348
1612.19980,0.19447
1614.12827,0.19745
1616.05674,0.20149
1617.98521,0.20085
1619.91367,0.19939
1621.84214,0.20163
1623.77061,0.20319
1625.69908,0.20160
1627.62755,0.20049
1629.55602,0.19831
1631.48449,0.19743
1633.41295,0.20422
1635.34142,0.21468
1637.26989,0.20935
1639.19836,0.19939
1641.12683,0.19655
1643.05530,0.19868
1644.98377,0.20433
1646.91223,0.20994
1648.84070,0.21105
1650.76917,0.21541
1652.69764,0.22466
1654.62611,0.21573
1656.55458,0.20035
1658.48305,0.19345
1660.41152,0.19285
1662.33998,0.19567
1664.26845,0.19653
1666.19692,0.19459
1668.12539,0.19480
1670.05386,0.19859
1671.98233,0.20229
1673.91080,0.20447
1675.83926,0.20343
1677.76773,0.20202
1679.69620,0.20461
1681.62467,0.21225
1683.55314,0.22300
1685.48161,0.22034
1687.41008,0.20930
1689.33855,0.20269
1691.26701,0.19956
1693.19548,0.20080
1695.12395,0.20963
1697.05242,0.21910
1698.98089,0.21585
1700.90936,0.20510
1702.83783,0.20146
1704.76629,0.20419
1706.69476,0.20367
1708.62323,0.19638
1710.55170,0.19023
1712.48017,0.18992
1714.40864,0.19621
1716.33711,0.20596
1718.26558,0.20389
1720.19404,0.19387
1722.12251,0.19012
1724.05098,0.19090
1725.97945,0.19193
1727.90792,0.19328
1729.83639,0.19659
1731.76486,0.20310
1733.69332,0.20825
1735.62179,0.20257
1737.55026,0.19672
1739.47873,0.19566
1741.40720,0.19595
1743.33567,0.19613
1745.26414,0.19742
1747.19261,0.20026
1749.12107,0.20095
1751.04954,0.19631
1752.97801,0.19231
1754.90648,0.19233
1756.83495,0.19349
1758.76342,0.19477
1760.69189,0.19817
1762.62035,0.19933
1764.54882,0.19603
1766.47729,0.19491
1768.40576,0.19781
1770.33423,0.20233
1772.26270,0.20350
1774.19117,0.19882
1776.11964,0.19502
1778.04810,0.19406
1779.97657,0.19329
1781.90504,0.19263
1783.83351,0.19486
1785.76198,0.19574
1787.69045,0.19269
1789.61892,0.19261
1791.54738,0.19727
1793.47585,0.19779
1795.40432,0.19329
1797.33279,0.19200
1799.26126,0.19478
1801.18973,0.19603
1803.11820,0.19451
1805.04666,0.19326
1806.97513,0.19208
1808.90360,0.19071
1810.83207,0.19001
1812.76054,0.18932
1814.68901,0.18939
1816.61748,0.19656
1818.54595,0.20941
1820.47441,0.21010
1822.40288,0.19811
1824.33135,0.19314
1826.25982,0.19660
1828.18829,0.19753
1830.11676,0.19633
1832.04523,0.19441
1833.97369,0.19288
1835.90216,0.19227
1837.83063,0.19037
1839.75910,0.18874
1841.68757,0.19155
1843.61604,0.19633
1845.54451,0.19698
1847.47298,0.19493
1849.40144,0.19200
1851.32991,0.18866
1853.25838,0.18717
1855.18685,0.18808
1857.11532,0.18993
1859.04379,0.19201
1860.97226,0.19379
1862.90072,0.19441
1864.82919,0.19574
1866.75766,0.19897
1868.68613,0.19980
1870.61460,0.19477
1872.54307,0.18907
1874.47154,0.18777
1876.40001,0.18937
1878.32847,0.18897
1880.25694,0.18664
1882.18541,0.18591
1884.11388,0.18733
1886.04235,0.18896
1887.97082,0.19061
1889.89929,0.19120
1891.82775,0.19009
1893.75622,0.19044
1895.68469,0.19195
1897.61316,0.19247
1899.54163,0.19306
1901.47010,0.19354
1903.39857,0.19227
1905.32704,0.19042
1907.25550,0.18999
1909.18397,0.18940
1911.11244,0.18807
1913.04091,0.18915
1914.96938,0.19228
1916.89785,0.19389
1918.82632,0.19224
1920.75478,0.18957
1922.68325,0.18841
1924.61172,0.18895
1926.54019,0.19093
1928.46866,0.19317
1930.39713,0.19387
1932.32560,0.19332
1934.25407,0.19241
1936.18253,0.19092
1938.11100,0.19019
1940.03947,0.19176
1941.96794,0.19333
1943.89641,0.19224
1945.82488,0.19097
1947.75335,0.19149
1949.68181,0.19226
1951.61028,0.19308
1953.53875,0.19486
1955.46722,0.19544
1957.39569,0.19289
1959.32416,0.18965
1961.25263,0.18856
1963.18110,0.19082
1965.10956,0.19540
1967.03803,0.19715
1968.96650,0.19443
1970.89497,0.19245
1972.82344,0.19262
1974.75191,0.19534
1976.68038,0.20102
1978.60884,0.20234
1980.53731,0.19649
1982.46578,0.19146
1984.39425,0.19046
1986.32272,0.19178
1988.25119,0.19457
1990.17966,0.19673
1992.10812,0.19635
1994.03659,0.19371
1995.96506,0.19181
1997.89353,0.19172
1999.82200,0.19123
2001.75047,0.19088
2003.67894,0.19249
2005.60741,0.19449
2007.53587,0.19571
2009.46434,0.19634
2011.39281,0.19663
2013.32128,0.19740
2015.24975,0.19773
2017.17822,0.19619
2019.10669,0.19457
2021.03515,0.19553
2022.96362,0.19718
2024.89209,0.19672
2026.82056,0.19568
2028.74903,0.19569
2030.67750,0.19566
2032.60597,0.19520
2034.53444,0.19518
2036.46290,0.19449
2038.39137,0.19286
2040.31984,0.19194
2042.24831,0.19175
2044.17678,0.19213
2046.10525,0.19258
2048.03372,0.19273
2049.96218,0.19250
2051.89065,0.19158
2053.81912,0.19142
2055.74759,0.19283
2057.67606,0.19391
2059.60453,0.19409
2061.53300,0.19447
2063.46147,0.19464
2065.38993,0.19394
2067.31840,0.19236
2069.24687,0.19126
2071.17534,0.19302
2073.10381,0.19634
2075.03228,0.19759
2076.96075,0.19658
2078.88921,0.19579
2080.81768,0.19604
2082.74615,0.19584
2084.67462,0.19402
2086.60309,0.19283
2088.53156,0.19479
2090.46003,0.19816
2092.38850,0.20000
2094.31696,0.19940
2096.24543,0.19742
2098.17390,0.19486
2100.10237,0.19303
2102.03084,0.19402
2103.95931,0.19671
2105.88778,0.19833
2107.81624,0.19757
2109.74471,0.19573
2111.67318,0.19514
2113.60165,0.19538
2115.53012,0.19580
2117.45859,0.19679
2119.38706,0.19706
2121.31553,0.19581
2123.24399,0.19522
2125.17246,0.19652
2127.10093,0.19701
2129.02940,0.19640
2130.95787,0.19623
2132.88634,0.19578
2134.81481,0.19620
2136.74327,0.19504
2138.67174,0.19111
2140.60021,0.19040
2142.52868,0.19251
2144.45715,0.19415
2146.38562,0.19484
2148.31409,0.19446
2150.24255,0.19494
2152.17102,0.19622
2154.09949,0.19768
2156.02796,0.19931
2157.95643,0.19870
2159.88490,0.19646
2161.81337,0.19658
2163.74184,0.19708
2165.67030,0.19411
2167.59877,0.19244
2169.52724,0.19613
2171.45571,0.20045
2173.38418,0.20141
2175.31265,0.20031
2177.24112,0.19958
2179.16958,0.19984
2181.09805,0.19875
2183.02652,0.19625
2184.95499,0.19510
2186.88346,0.19521
2188.81193,0.19566
2190.74040,0.19619
2192.66887,0.19700
2194.59733,0.19871
2196.52580,0.19944
2198.45427,0.19779
2200.38274,0.19694
2202.31121,0.19918
2204.23968,0.20083
2206.16815,0.19881
2208.09661,0.19673
2210.02508,0.19680
2211.95355,0.19610
2213.88202,0.19523
2215.81049,0.19545
2217.73896,0.19555
2219.66743,0.19628
2221.59590,0.19748
2223.52436,0.19770
2225.45283,0.19803
2227.38130,0.19942
2229.30977,0.19993
2231.23824,0.19876
2233.16671,0.19801
2235.09518,0.19825
2237.02364,0.19848
2238.95211,0.19937
2240.88058,0.20010
2242.80905,0.19883
2244.73752,0.19805
2246.66599,0.19908
2248.59446,0.19951
2250.52293,0.19930
2252.45139,0.19972
2254.37986,0.19984
2256.30833,0.19879
2258.23680,0.19779
2260.16527,0.19763
2262.09374,0.19722
2264.02221,0.19683
2265.95067,0.19778
2267.87914,0.19785
2269.80761,0.19581
2271.73608,0.19441
2273.66455,0.19494
2275.59302,0.19599
2277.52149,0.19560
2279.44996,0.19527
2281.37842,0.19685
2283.30689,0.19824
2285.23536,0.19778
2287.16383,0.19546
2289.09230,0.19326
2291.02077,0.19310
2292.94924,0.19265
2294.87770,0.19125
2296.80617,0.19106
2298.73464,0.19134
2300.66311,0.19135
2302.59158,0.19068
2304.52005,0.18749
2306.44852,0.18233
2308.37699,0.17793
2310.30545,0.17546
2312.23392,0.17626
2314.16239,0.17992
2316.09086,0.18182
2318.01933,0.18257
2319.94780,0.18405
2321.87627,0.17970
2323.80473,0.17174
2325.73320,0.17265
2327.66167,0.17644
2329.59014,0.17193
2331.51861,0.16480
2333.44708,0.16044
2335.37555,0.16062
2337.30401,0.16928
2339.23248,0.18024
2341.16095,0.17891
2343.08942,0.16567
2345.01789,0.16087
2346.94636,0.16743
2348.87483,0.17107
2350.80330,0.16863
2352.73176,0.16233
2354.66023,0.15196
2356.58870,0.14191
2358.51717,0.13965
2360.44564,0.13657
2362.37411,0.13079
2364.30258,0.13835
2366.23104,0.15635
2368.15951,0.16383
2370.08798,0.16285
2372.01645,0.16692
2373.94492,0.17476
2375.87339,0.17948
2377.80186,0.18152
2379.73033,0.18432
2381.65879,0.18799
2383.58726,0.19235
2385.51573,0.19630
2387.44420,0.19840
2389.37267,0.19975
2391.30114,0.20110
2393.22961,0.20145
2395.15807,0.20057
2397.08654,0.19951
2399.01501,0.19807
2400.94348,0.19645
2402.87195,0.19661
2404.80042,0.19801
2406.72889,0.19847
2408.65736,0.19872
2410.58582,0.20083
2412.51429,0.20333
2414.44276,0.20337
2416.37123,0.20136
2418.29970,0.19979
2420.22817,0.19977
2422.15664,0.20045
2424.08510,0.20117
2426.01357,0.20104
2427.94204,0.19934
2429.87051,0.19719
2431.79898,0.19609
2433.72745,0.19620
2435.65592,0.19696
2437.58439,0.19835
2439.51285,0.20033
2441.44132,0.20324
2443.36979,0.20540
2445.29826,0.20480
2447.22673,0.20308
2449.15520,0.19797
2451.08367,0.18795
2453.01213,0.18435
2454.94060,0.19259
2456.86907,0.19965
2458.79754,0.19980
2460.72601,0.20054
2462.65448,0.20149
2464.58295,0.20000
2466.51142,0.20012
2468.43988,0.20127
2470.36835,0.20032
2472.29682,0.19944
2474.22529,0.20078
2476.15376,0.20275
2478.08223,0.20261
2480.01070,0.20146
2481.93916,0.20190
2483.86763,0.20232
2485.79610,0.20164
2487.72457,0.20132
2489.65304,0.20177
2491.58151,0.20248
2493.50998,0.20239
2495.43844,0.20164
2497.36691,0.20145
2499.29538,0.20199
2501.22385,0.20316
2503.15232,0.20354
2505.08079,0.20204
2507.00926,0.20120
2508.93773,0.20186
2510.86619,0.20148
2512.79466,0.20064
2514.72313,0.20144
2516.65160,0.20210
2518.58007,0.20163
2520.50854,0.20226
2522.43701,0.20343
2524.36547,0.20254
2526.29394,0.20034
2528.22241,0.19967
2530.15088,0.20026
2532.07935,0.20026
2534.00782,0.19999
2535.93629,0.20007
2537.86476,0.20157
2539.79322,0.20381
2541.72169,0.20402
2543.65016,0.20329
2545.57863,0.20316
2547.50710,0.20247
2549.43557,0.20254
2551.36404,0.20477
2553.29250,0.20732
2555.22097,0.20834
2557.14944,0.20708
2559.07791,0.20423
2561.00638,0.20131
2562.93485,0.19982
2564.86332,0.20011
2566.79179,0.20080
2568.72025,0.20233
2570.64872,0.20559
2572.57719,0.20700
2574.50566,0.20426
2576.43413,0.20140
2578.36260,0.20145
2580.29107,0.20310
2582.21953,0.20489
2584.14800,0.20624
2586.07647,0.20651
2588.00494,0.20634
2589.93341,0.20679
2591.86188,0.20625
2593.79035,0.20418
2595.71882,0.20286
2597.64728,0.20265
2599.57575,0.20304
2601.50422,0.20457
2603.43269,0.20684
2605.36116,0.20862
2607.28963,0.20744
2609.21810,0.20292
2611.14656,0.19970
2613.07503,0.20081
2615.00350,0.20378
2616.93197,0.20494
2618.86044,0.20414
2620.78891,0.20352
2622.71738,0.20305
2624.64585,0.20204
2626.57431,0.20081
2628.50278,0.20085
2630.43125,0.20319
2632.35972,0.20528
2634.28819,0.20573
2636.21666,0.20713
2638.14513,0.20979
2640.07359,0.21082
2642.00206,0.20972
2643.93053,0.20954
2645.85900,0.21061
2647.78747,0.21003
2649.71594,0.20808
2651.64441,0.20709
2653.57288,0.20694
2655.50134,0.20705
2657.42981,0.20884
2659.35828,0.21092
2661.28675,0.21025
2663.21522,0.20836
2665.14369,0.20806
2667.07216,0.20941
2669.00062,0.21035
2670.92909,0.20956
2672.85756,0.20852
2674.78603,0.21025
2676.71450,0.21395
2678.64297,0.21557
2680.57144,0.21549
2682.49990,0.21452
2684.42837,0.21140
2686.35684,0.20885
2688.28531,0.20901
2690.21378,0.20918
2692.14225,0.20805
2694.07072,0.20689
2695.99919,0.20703
2697.92765,0.20985
2699.85612,0.21299
2701.78459,0.21212
2703.71306,0.20918
2705.64153,0.20891
2707.57000,0.21160
2709.49847,0.21498
2711.42693,0.21558
2713.35540,0.21244
2715.28387,0.21081
2717.21234,0.21200
2719.14081,0.21142
2721.06928,0.20908
2722.99775,0.20909
2724.92622,0.21227
2726.85468,0.21402
2728.78315,0.21167
2730.71162,0.20943
2732.64009,0.21003
2734.56856,0.21124
2736.49703,0.21208
2738.42550,0.21343
2740.35396,0.21491
2742.28243,0.21573
2744.21090,0.21617
2746.13937,0.21613
2748.06784,0.21524
2749.99631,0.21328
2751.92478,0.21140
2753.85325,0.21214
2755.78171,0.21450
2757.71018,0.21477
2759.63865,0.21319
2761.56712,0.21342
2763.49559,0.21699
2765.42406,0.22320
2767.35253,0.22723
2769.28099,0.22421
2771.20946,0.21831
2773.13793,0.21596
2775.06640,0.21733
2776.99487,0.21849
2778.92334,0.21884
2780.85181,0.21940
2782.78028,0.21902
2784.70874,0.21874
2786.63721,0.21809
2788.56568,0.21680
2790.49415,0.21836
2792.42262,0.22199
2794.35109,0.22337
2796.27956,0.22217
2798.20802,0.22034
2800.13649,0.21790
2802.06496,0.21570
2803.99343,0.21663
2805.92190,0.21925
2807.85037,0.21784
2809.77884,0.21470
2811.70731,0.21632
2813.63577,0.21899
2815.56424,0.21916
2817.49271,0.22008
2819.42118,0.22026
2821.34965,0.21774
2823.27812,0.21636
2825.20659,0.21697
2827.13505,0.21797
2829.06352,0.21992
2830.99199,0.22139
2832.92046,0.22118
2834.84893,0.22200
2836.77740,0.22439
2838.70587,0.22527
2840.63433,0.22357
2842.56280,0.22099
2844.49127,0.22019
2846.41974,0.22098
2848.34821,0.22014
2850.27668,0.21740
2852.20515,0.21494
2854.13362,0.21509
2856.06208,0.21857
2857.99055,0.22225
2859.91902,0.22260
2861.84749,0.22122
2863.77596,0.22252
2865.70443,0.22515
2867.63290,0.22540
2869.56136,0.22388
2871.48983,0.22248
2873.41830,0.22120
2875.34677,0.22002
2877.27524,0.21985
2879.20371,0.21980
2881.13218,0.21981
2883.06065,0.22136
2884.98911,0.22373
2886.91758,0.22481
2888.84605,0.22261
2890.77452,0.21827
2892.70299,0.21494
2894.63146,0.21297
2896.55993,0.21258
2898.48839,0.21378
2900.41686,0.21408
2902.34533,0.21407
2904.27380,0.21400
2906.20227,0.21141
2908.13074,0.21052
2910.05921,0.21335
2911.98768,0.21500
2913.91614,0.21359
2915.84461,0.21048
2917.77308,0.20903
2919.70155,0.21220
2921.63002,0.21604
2923.55849,0.20343
2925.48696,0.17257
2927.41542,0.16003
2929.34389,0.18416
2931.27236,0.21464
2933.20083,0.22424
2935.12930,0.21708
2937.05777,0.20847
2938.98624,0.20908
2940.91471,0.21534
2942.84317,0.21764
2944.77164,0.21482
2946.70011,0.20994
2948.62858,0.21016
2950.55705,0.21599
2952.48552,0.21942
2954.41399,0.21708
2956.34245,0.20860
2958.27092,0.20364
2960.19939,0.21026
2962.12786,0.21821
2964.05633,0.22090
2965.98480,0.22090
2967.91327,0.21794
2969.84174,0.21708
2971.77020,0.22204
2973.69867,0.22616
2975.62714,0.22318
2977.55561,0.21564
2979.48408,0.21362
2981.41255,0.21974
2983.34102,0.22761
2985.26948,0.22973
2987.19795,0.22134
2989.12642,0.21427
2991.05489,0.21994
2992.98336,0.22841
2994.91183,0.23036
2996.84030,0.22871
2998.76877,0.22905
3000.69723,0.23132
3002.62570,0.23106
3004.55417,0.22923
3006.48264,0.22592
3008.41111,0.21865
3010.33958,0.20746
3012.26805,0.18956
3014.19651,0.16369
3016.12498,0.14372
3018.05345,0.15464
3019.98192,0.19143
3021.91039,0.21968
3023.83886,0.22812
3025.76733,0.22693
3027.69579,0.22520
3029.62426,0.22894
3031.55273,0.23322
3033.48120,0.23035
3035.40967,0.22498
3037.33814,0.22262
3039.26661,0.22171
3041.19508,0.22138
3043.12354,0.22326
3045.05201,0.22528
3046.98048,0.22370
3048.90895,0.22224
3050.83742,0.22531
3052.76589,0.23072
3054.69436,0.23000
3056.62282,0.22020
3058.55129,0.21708
3060.47976,0.22593
3062.40823,0.23155
3064.33670,0.22583
3066.26517,0.21524
3068.19364,0.21413
3070.12211,0.22364
3072.05057,0.22930
3073.97904,0.22420
3075.90751,0.21454
3077.83598,0.21018
3079.76445,0.21506
3081.69292,0.22444
3083.62139,0.22475
3085.54985,0.21558
3087.47832,0.21485
3089.40679,0.22161
3091.33526,0.22166
3093.26373,0.21266
3095.19220,0.20423
3097.12067,0.20665
3099.04914,0.21414
3100.97760,0.21616
3102.90607,0.21037
3104.83454,0.20785
3106.76301,0.21850
3108.69148,0.22993
3110.61995,0.22918
3112.54842,0.22298
3114.47688,0.22358
3116.40535,0.22752
3118.33382,0.22529
3120.26229,0.22061
3122.19076,0.22093
3124.11923,0.22596
3126.04770,0.23079
3127.97617,0.23279
3129.90463,0.23093
3131.83310,0.22761
3133.76157,0.22634
3135.69004,0.22625
3137.61851,0.22597
3139.54698,0.22547
3141.47545,0.22590
3143.40391,0.22745
3145.33238,0.22938
3147.26085,0.23107
3149.18932,0.23240
3151.11779,0.23319
3153.04626,0.23230
3154.97473,0.23116
3156.90320,0.23074
3158.83166,0.22884
3160.76013,0.22691
3162.68860,0.22984
3164.61707,0.23381
3166.54554,0.23241
3168.47401,0.23001
3170.40248,0.23119
3172.33094,0.23335
3174.25941,0.23433
3176.18788,0.23603
3178.11635,0.23725
3180.04482,0.23476
3181.97329,0.23262
3183.90176,0.23338
3185.83022,0.23190
3187.75869,0.22799
3189.68716,0.22734
3191.61563,0.23021
3193.54410,0.23368
3195.47257,0.23645
3197.40104,0.23795
3199.32951,0.23815
3201.25797,0.23697
3203.18644,0.23484
3205.11491,0.23148
3207.04338,0.22773
3208.97185,0.22695
3210.90032,0.22999
3212.82879,0.23312
3214.75725,0.23292
3216.68572,0.23236
3218.61419,0.23283
3220.54266,0.23120
3222.47113,0.23067
3224.39960,0.23094
3226.32807,0.22802
3228.25654,0.22647
3230.18500,0.22763
3232.11347,0.22863
3234.04194,0.22916
3235.97041,0.22879
3237.89888,0.22994
3239.82735,0.23462
3241.75582,0.23880
3243.68428,0.23758
3245.61275,0.23378
3247.54122,0.23266
3249.46969,0.23278
3251.39816,0.23126
3253.32663,0.22881
3255.25510,0.22738
3257.18357,0.22889
3259.11203,0.23193
3261.04050,0.23111
3262.96897,0.22701
3264.89744,0.22477
3266.82591,0.22649
3268.75438,0.22992
3270.68285,0.22947
3272.61131,0.22628
3274.53978,0.22675
3276.46825,0.23011
3278.39672,0.23062
3280.32519,0.22634
3282.25366,0.22035
3284.18213,0.21807
3286.11060,0.22040
3288.03906,0.22395
3289.96753,0.22743
3291.89600,0.22664
3293.82447,0.22290
3295.75294,0.22396
3297.68141,0.22633
3299.60988,0.22523
3301.53834,0.22530
3303.46681,0.22932
3305.39528,0.23149
3307.32375,0.22757
3309.25222,0.22180
3311.18069,0.21972
3313.10916,0.22236
3315.03763,0.22511
3316.96609,0.22506
3318.89456,0.22573
3320.82303,0.22880
3322.75150,0.23070
3324.67997,0.23103
3326.60844,0.23238
3328.53691,0.23360
3330.46537,0.23286
3332.39384,0.23136
3334.32231,0.23205
3336.25078,0.23462
3338.17925,0.23442
3340.10772,0.23093
3342.03619,0.23021
3343.96466,0.23359
3345.89312,0.23488
3347.82159,0.23342
3349.75006,0.23387
3351.67853,0.23579
3353.60700,0.23558
3355.53547,0.23275
3357.46394,0.23100
3359.39240,0.23249
3361.32087,0.23295
3363.24934,0.23100
3365.17781,0.23057
3367.10628,0.23172
3369.03475,0.23392
3370.96322,0.23577
3372.89168,0.23495
3374.82015,0.23210
3376.74862,0.22792
3378.67709,0.22570
3380.60556,0.22704
3382.53403,0.22846
3384.46250,0.22842
3386.39097,0.22839
3388.31943,0.22952
3390.24790,0.23208
3392.17637,0.23363
3394.10484,0.22979
3396.03331,0.22394
3397.96178,0.22587
3399.89025,0.23582
3401.81871,0.24024
3403.74718,0.23313
3405.67565,0.22647
3407.60412,0.22587
3409.53259,0.22626
3411.46106,0.22824
3413.38953,0.23019
3415.31800,0.22845
3417.24646,0.22755
3419.17493,0.23107
3421.10340,0.23478
3423.03187,0.23372
3424.96034,0.22830
3426.88881,0.22301
3428.81728,0.22226
3430.74574,0.22435
3432.67421,0.22459
3434.60268,0.22296
3436.53115,0.21950
3438.45962,0.21698
3440.38809,0.21933
3442.31656,0.22288
3444.24503,0.22330
3446.17349,0.22213
3448.10196,0.22323
3450.03043,0.22585
3451.95890,0.22609
3453.88737,0.22171
3455.81584,0.21568
3457.74431,0.21515
3459.67277,0.21726
3461.60124,0.21412
3463.52971,0.20954
3465.45818,0.20875
3467.38665,0.20776
3469.31512,0.20581
3471.24359,0.20743
3473.17206,0.21104
3475.10052,0.21151
3477.02899,0.20834
3478.95746,0.20603
3480.88593,0.20604
3482.81440,0.20550
3484.74287,0.20479
3486.67134,0.20182
3488.59980,0.19579
3490.52827,0.19496
3492.45674,0.19919
3494.38521,0.20157
3496.31368,0.20267
3498.24215,0.20444
3500.17062,0.20574
3502.09909,0.20280
3504.02755,0.19515
3505.95602,0.19073
3507.88449,0.19158
3509.81296,0.19163
3511.74143,0.18856
3513.66990,0.18687
3515.59837,0.18970
3517.52683,0.19340
3519.45530,0.19381
3521.38377,0.19106
3523.31224,0.18785
3525.24071,0.18937
3527.16918,0.19211
3529.09765,0.18743
3531.02611,0.18064
3532.95458,0.17960
3534.88305,0.18262
3536.81152,0.18290
3538.73999,0.17875
3540.66846,0.17760
3542.59693,0.18110
3544.52540,0.18409
3546.45386,0.18476
3548.38233,0.18355
3550.31080,0.18246
3552.23927,0.18433
3554.16774,0.18626
3556.09621,0.18465
3558.02468,0.18158
3559.95314,0.18019
3561.88161,0.18201
3563.81008,0.18588
3565.73855,0.18977
3567.66702,0.18769
3569.59549,0.18092
3571.52396,0.17918
3573.45243,0.17816
3575.38089,0.17399
3577.30936,0.17156
3579.23783,0.16975
3581.16630,0.16765
3583.09477,0.16862
3585.02324,0.17242
3586.95171,0.17495
3588.88017,0.17121
3590.80864,0.16873
3592.73711,0.17185
3594.66558,0.17392
3596.59405,0.16923
3598.52252,0.16133
3600.45099,0.15680
3602.37946,0.15775
3604.30792,0.16206
3606.23639,0.16826
3608.16486,0.17242
3610.09333,0.16984
3612.02180,0.16458
3613.95027,0.16063
3615.87874,0.15841
3617.80720,0.16135
3619.73567,0.16772
3621.66414,0.16519
3623.59261,0.15724
3625.52108,0.15290
3627.44955,0.15257
3629.37802,0.15302
3631.30649,0.15290
3633.23495,0.15180
3635.16342,0.14914
3637.09189,0.14773
3639.02036,0.15024
3640.94883,0.15396
3642.87730,0.15693
3644.80577,0.16069
3646.73423,0.16526
3648.66270,0.16741
3650.59117,0.15943
3652.51964,0.14961
3654.44811,0.14660
3656.37658,0.14670
3658.30505,0.14377
3660.23352,0.13956
3662.16198,0.13869
3664.09045,0.14199
3666.01892,0.14790
3667.94739,0.15550
3669.87586,0.15933
3671.80433,0.15677
3673.73280,0.15680
3675.66126,0.15408
3677.58973,0.14454
3679.51820,0.13897
3681.44667,0.13781
3683.37514,0.14007
3685.30361,0.14382
3687.23208,0.14627
3689.16055,0.14906
3691.08901,0.15023
3693.01748,0.14518
3694.94595,0.13904
3696.87442,0.13587
3698.80289,0.13653
3700.73136,0.13930
3702.65983,0.13914
3704.58829,0.13696
3706.51676,0.13944
3708.44523,0.14764
3710.37370,0.15593
3712.30217,0.15403
3714.23064,0.14620
3716.15911,0.14308
3718.08757,0.14698
3720.01604,0.15532
3721.94451,0.16071
3723.87298,0.15911
3725.80145,0.15051
3727.72992,0.13990
3729.65839,0.13837
3731.58686,0.14796
3733.51532,0.15796
3735.44379,0.15574
3737.37226,0.14995
3739.30073,0.15023
3741.22920,0.15094
3743.15767,0.14671
3745.08614,0.14104
3747.01460,0.14359
3748.94307,0.15004
3750.87154,0.15336
3752.80001,0.14977
3754.72848,0.14586
3756.65695,0.14616
3758.58542,0.14806
3760.51389,0.14578
3762.44235,0.14495
3764.37082,0.14890
3766.29929,0.14973
3768.22776,0.14592
3770.15623,0.14214
3772.08470,0.13706
3774.01317,0.13299
3775.94163,0.13433
3777.87010,0.13937
3779.79857,0.13944
3781.72704,0.13499
3783.65551,0.13596
3785.58398,0.13976
3787.51245,0.13899
3789.44092,0.13668
3791.36938,0.13648
3793.29785,0.13690
3795.22632,0.13742
3797.15479,0.13882
3799.08326,0.14263
3801.01173,0.15163
3802.94020,0.15612
3804.86866,0.15031
3806.79713,0.14340
3808.72560,0.13986
3810.65407,0.13876
3812.58254,0.13914
3814.51101,0.14056
3816.43948,0.14163
3818.36795,0.14365
3820.29641,0.14435
3822.22488,0.13861
3824.15335,0.13558
3826.08182,0.13601
3828.01029,0.13374
3829.93876,0.13020
3831.86723,0.12977
3833.79569,0.13367
3835.72416,0.13949
3837.65263,0.14561
3839.58110,0.15191
3841.50957,0.15377
3843.43804,0.14883
3845.36651,0.14101
3847.29498,0.13412
3849.22344,0.13039
3851.15191,0.13102
3853.08038,0.13479
3855.00885,0.13584
3856.93732,0.13284
3858.86579,0.12940
3860.79426,0.12828
3862.72272,0.13074
3864.65119,0.13303
3866.57966,0.13279
3868.50813,0.13275
3870.43660,0.13457
3872.36507,0.13553
3874.29354,0.12935
3876.22200,0.12053
3878.15047,0.11945
3880.07894,0.12665
3882.00741,0.13280
3883.93588,0.13283
3885.86435,0.12835
3887.79282,0.12313
3889.72129,0.12517
3891.64975,0.13030
3893.57822,0.12667
3895.50669,0.12309
3897.43516,0.12612
3899.36363,0.13036
3901.29210,0.13502
3903.22057,0.14068
3905.14903,0.13702
3907.07750,0.12665
3909.00597,0.12269
3910.93444,0.12427
3912.86291,0.12332
3914.79138,0.11980
3916.71985,0.11754
3918.64832,0.11703
3920.57678,0.11756
3922.50525,0.11706
3924.43372,0.11572
3926.36219,0.11780
3928.29066,0.12153
3930.21913,0.12059
3932.14760,0.11613
3934.07606,0.11617
3936.00453,0.12020
3937.93300,0.12115
3939.86147,0.11866
3941.78994,0.11737
3943.71841,0.11804
3945.64688,0.11775
3947.57535,0.11456
3949.50381,0.11243
3951.43228,0.11534
3953.36075,0.11889
3955.28922,0.12063
3957.21769,0.11979
3959.14616,0.11546
3961.07463,0.11211
3963.00309,0.11176
3964.93156,0.11248
3966.86003,0.11289
3968.78850,0.11029
3970.71697,0.10709
3972.64544,0.10856
3974.57391,0.11067
3976.50238,0.10935
3978.43084,0.10853
3980.35931,0.10994
3982.28778,0.11115
3984.21625,0.11045
3986.14472,0.10946
3988.07319,0.11015
3990.00166,0.11002
3991.93012,0.10690
3993.85859,0.10249
3995.78706,0.09902
3997.71553,0.09814
3999.64400,0.09934
4001.57247,0.10050
4003.50094,0.10132
4005.42941,0.10273
4007.35787,0.10381
4009.28634,0.10318
4011.21481,0.10285
4013.14328,0.10474
4015.07175,0.10669
4017.00022,0.10850
4018.92869,0.11058
4020.85715,0.11058
4022.78562,0.11032
4024.71409,0.11073
4026.64256,0.10661
4028.57103,0.10018
4030.49950,0.09945
4032.42797,0.10191
4034.35644,0.10218
4036.28490,0.10035
4038.21337,0.09773
4040.14184,0.09992
4042.07031,0.10754
4043.99878,0.10946
4045.92725,0.10287
4047.85572,0.09990
4049.78418,0.10402
4051.71265,0.10549
4053.64112,0.10169
4055.56959,0.09758
4057.49806,0.09485
4059.42653,0.09410
4061.35500,0.09552
4063.28346,0.09722
4065.21193,0.09876
4067.14040,0.10085
4069.06887,0.10124
4070.99734,0.09825
4072.92581,0.09556
4074.85428,0.09627
4076.78275,0.09930
4078.71121,0.10069
4080.63968,0.09763
4082.56815,0.09466
4084.49662,0.09576
4086.42509,0.09730
4088.35356,0.09620
4090.28203,0.09374
4092.21049,0.09108
4094.13896,0.08977
4096.06743,0.09255
4097.99590,0.09762
4099.92437,0.09981
4101.85284,0.09808
4103.78131,0.09589
4105.70978,0.09658
4107.63824,0.09918
4109.56671,0.09927
4111.49518,0.09670
4113.42365,0.09487
4115.35212,0.09185
4117.28059,0.08652
4119.20906,0.08301
4121.13752,0.08237
4123.06599,0.08428
4124.99446,0.08769
4126.92293,0.08851
4128.85140,0.08758
4130.77987,0.08912
4132.70834,0.09068
4134.63681,0.08757
4136.56527,0.08408
4138.49374,0.08766
4140.42221,0.09417
4142.35068,0.09433
4144.27915,0.08846
4146.20762,0.08303
4148.13609,0.08170
4150.06455,0.08287
4151.99302,0.08133
4153.92149,0.07952
4155.84996,0.08504
4157.77843,0.09045
4159.70690,0.08762
4161.63537,0.08225
4163.56384,0.07805
4165.49230,0.07607
4167.42077,0.07519
4169.34924,0.07295
4171.27771,0.07165
4173.20618,0.07404
4175.13465,0.08047
4177.06312,0.08489
4178.99158,0.08155
4180.92005,0.07470
4182.84852,0.06975
4184.77699,0.06804
4186.70546,0.07014
4188.63393,0.07659
4190.56240,0.08150
4192.49087,0.08050
4194.41933,0.07905
4196.34780,0.07411
4198.27627,0.06396
4200.20474,0.06223
4202.13321,0.06898
4204.06168,0.07180
4205.99015,0.07054
4207.91861,0.06869
4209.84708,0.06627
4211.77555,0.06384
4213.70402,0.06110
4215.63249,0.05943
4217.56096,0.06103
4219.48943,0.06403
4221.41789,0.06530
4223.34636,0.06499
4225.27483,0.06490
4227.20330,0.06624
4229.13177,0.06899
4231.06024,0.06899
4232.98871,0.06498
4234.91718,0.06257
4236.84564,0.06438
4238.77411,0.06934
4240.70258,0.07262
4242.63105,0.06858
4244.55952,0.06130
4246.48799,0.05703
4248.41646,0.05557
4250.34492,0.05420
4252.27339,0.05155
4254.20186,0.05147
4256.13033,0.05680
4258.05880,0.06173
4259.98727,0.06471
4261.91574,0.07060
4263.84421,0.07315
4265.77267,0.06630
4267.70114,0.05875
4269.62961,0.05535
4271.55808,0.05093
4273.48655,0.04426
4275.41502,0.04058
4277.34349,0.04459
4279.27195,0.05308
4281.20042,0.05865
4283.12889,0.06002
4285.05736,0.05761
4286.98583,0.05173
4288.91430,0.04647
4290.84277,0.04582
4292.77124,0.05157
4294.69970,0.05682
4296.62817,0.05597
4298.55664,0.05457
4300.48511,0.05504
4302.41358,0.05380
4304.34205,0.05001
4306.27052,0.04917
4308.19898,0.05379
4310.12745,0.05706
4312.05592,0.05558
4313.98439,0.05186
4315.91286,0.04502
4317.84133,0.03877
4319.76980,0.04063
4321.69827,0.04482
4323.62673,0.04518
4325.55520,0.04476
4327.48367,0.04390
4329.41214,0.04042
4331.34061,0.03341
4333.26908,0.02790
4335.19755,0.03082
4337.12601,0.03760
4339.05448,0.04038
4340.98295,0.04320
4342.91142,0.04938
4344.83989,0.04908
4346.76836,0.03539
4348.69683,0.02331
4350.62530,0.02681
4352.55376,0.03406
4354.48223,0.03853
4356.41070,0.04554
4358.33917,0.04712
4360.26764,0.03855
4362.19611,0.02887
4364.12458,0.02577
4366.05304,0.02745
4367.98151,0.02658
4369.90998,0.02445
4371.83845,0.02748
4373.76692,0.03349
4375.69539,0.03735
4377.62386,0.03733
4379.55232,0.03362
4381.48079,0.02806
4383.40926,0.02530
4385.33773,0.02817
4387.26620,0.03102
4389.19467,0.02898
4391.12314,0.02512
4393.05161,0.02379
4394.98007,0.02688
4396.90854,0.03362
4398.83701,0.03963
4400.76548,0.03949
4402.69395,0.02999
4404.62242,0.01696
4406.55089,0.01280
4408.47935,0.01687
4410.40782,0.01953
4412.33629,0.02119
4414.26476,0.02503
4416.19323,0.02571
4418.12170,0.02086
4420.05017,0.01739
4421.97864,0.01732
4423.90710,0.01606
4425.83557,0.01085
4427.76404,0.00685
4429.69251,0.01079
4431.62098,0.01614
4433.54945,0.01441
4435.47792,0.00632
4437.40638,-0.00197
4439.33485,-0.00101
4441.26332,0.00932
4443.19179,0.01733
4445.12026,0.01435
4447.04873,0.00380
4448.97720,-0.00174
4450.90567,0.00292
4452.83413,0.00818
4454.76260,0.00791
4456.69107,0.00813
4458.61954,0.01130
4460.54801,0.00957
4462.47648,0.00167
4464.40495,0.00051
4466.33341,0.00887
4468.26188,0.01525
4470.19035,0.01687
4472.11882,0.01669
4474.04729,0.01348
4475.97576,0.01066
4477.90423,0.01252
4479.83270,0.01493
4481.76116,0.01327
4483.68963,0.00935
4485.61810,0.00756
4487.54657,0.00785
4489.47504,0.00959
4491.40351,0.01751
4493.33198,0.02217
4495.26044,0.00912
4497.18891,-0.00654
4499.11738,-0.00755
4501.04585,-0.00309
4502.97432,-0.00139
4504.90279,0.00121
4506.83126,0.00252
4508.75973,-0.00077
4510.68819,-0.00153
4512.61666,0.00215
4514.54513,0.00453
4516.47360,0.00454
4518.40207,0.00224
4520.33054,-0.00072
4522.25901,-0.00244
4524.18747,-0.00424
4526.11594,-0.00434
4528.04441,0.00207
4529.97288,0.01368
4531.90135,0.01970
4533.82982,0.01485
4535.75829,0.00868
4537.68676,0.00741
4539.61522,0.00745
4541.54369,0.00976
4543.47216,0.01541
4545.40063,0.02068
4547.32910,0.02313
4549.25757,0.02352
4551.18604,0.02277
4553.11450,0.01904
4555.04297,0.01541
4556.97144,0.01408
4558.89991,0.00790
4560.82838,0.00026
4562.75685,0.00278
4564.68532,0.00824
4566.61378,0.00713
4568.54225,0.00395
4570.47072,-0.00294
4572.39919,-0.00964
4574.32766,-0.00539
4576.25613,0.00124
4578.18460,-0.00056
4580.11307,-0.00409
4582.04153,-0.00243
4583.97000,0.00006
4585.89847,0.00193
4587.82694,0.00464
4589.75541,0.00550
4591.68388,0.00576
4593.61235,0.00387
4595.54081,-0.00184
4597.46928,-0.00258
4599.39775,0.00059
4601.32622,-0.00203
4603.25469,-0.00472
4605.18316,-0.00083
4607.11163,0.00402
4609.04010,0.00860
4610.96856,0.01423
4612.89703,0.01863
4614.82550,0.01828
4616.75397,0.01211
4618.68244,0.00676
4620.61091,0.00358
4622.53938,-0.00156
4624.46784,-0.00567
4626.39631,-0.00598
4628.32478,-0.00468
4630.25325,-0.00206
4632.18172,0.00438
4634.11019,0.00926
4636.03866,0.00399
4637.96713,-0.00497
4639.89559,-0.00741
4641.82406,-0.00662
4643.75253,-0.00728
4645.68100,-0.00335
4647.60947,0.00416
4649.53794,0.00539
4651.46641,0.00477
4653.39487,0.01034
4655.32334,0.01731
4657.25181,0.02080
4659.18028,0.02031
4661.10875,0.01397
4663.03722,0.00439
4664.96569,-0.00054
4666.89416,0.00247
4668.82262,0.00647
4670.75109,0.00450
4672.67956,-0.00107
4674.60803,-0.00590
4676.53650,-0.00028
4678.46497,0.01092
4680.39344,0.01185
4682.32190,0.00884
4684.25037,0.01195
4686.17884,0.01747
4688.10731,0.01764
4690.03578,0.01012
4691.96425,-0.00118
4693.89272,-0.00778
4695.82119,-0.00654
4697.74965,-0.00377
4699.67812,-0.00703
4701.60659,-0.01407
4703.53506,-0.01588
4705.46353,-0.00699
4707.39200,0.00739
4709.32047,0.01307
4711.24893,0.00928
4713.17740,0.01124
4715.10587,0.01695
4717.03434,0.01701
4718.96281,0.01643
4720.89128,0.01602
4722.81975,0.01453
4724.74821,0.01525
4726.67668,0.01586
4728.60515,0.01581
4730.53362,0.01688
4732.46209,0.01465
4734.39056,0.00757
4736.31903,-0.00104
4738.24750,-0.00673
4740.17596,-0.00627
4742.10443,-0.00411
4744.03290,-0.00572
4745.96137,-0.00351
4747.88984,0.00746
4749.81831,0.01301
4751.74678,0.00774
4753.67524,0.00567
4755.60371,0.01347
4757.53218,0.02072
4759.46065,0.01868
4761.38912,0.01149
4763.31759,0.00643
4765.24606,0.00725
4767.17453,0.00618
4769.10299,-0.00357
4771.03146,-0.00777
4772.95993,0.00120
4774.88840,0.00952
4776.81687,0.00950
4778.74534,0.00658
4780.67381,0.00633
4782.60227,0.00625
4784.53074,0.00295
4786.45921,-0.00096
4788.38768,-0.00182
4790.31615,0.00658
4792.24462,0.01640
4794.17309,0.01519
4796.10156,0.00910
4798.03002,0.00488
4799.95849,0.00577
4801.88696,0.01249
4803.81543,0.01549
4805.74390,0.01016
4807.67237,0.00173
4809.60084,-0.00705
4811.52930,-0.00875
4813.45777,0.00356
4815.38624,0.01741
4817.31471,0.02016
4819.24318,0.01384
4821.17165,0.00796
4823.10012,0.00973
4825.02859,0.01453
4826.95705,0.01236
4828.88552,0.00679
4830.81399,0.00743
4832.74246,0.00827
4834.67093,0.00300
4836.59940,-0.00162
4838.52787,-0.00197
4840.45633,-0.00217
4842.38480,-0.00406
4844.31327,-0.00369
4846.24174,0.00341
4848.17021,0.01319
4850.09868,0.01316
4852.02715,0.00965
4853.95562,0.01542
4855.88408,0.01728
4857.81255,0.00830
4859.74102,0.00325
4861.66949,0.00633
4863.59796,0.01290
4865.52643,0.01947
4867.45490,0.01944
4869.38336,0.01527
4871.31183,0.01324
4873.24030,0.01124
4875.16877,0.00481
4877.09724,-0.00738
4879.02571,-0.01342
4880.95418,-0.00417
4882.88265,0.00487
4884.81111,0.00321
4886.73958,0.00025
4888.66805,0.00081
4890.59652,0.00295
4892.52499,0.00551
4894.45346,0.00457
4896.38193,-0.00035
4898.31039,-0.00422
4900.23886,-0.00429
4902.16733,0.00211
4904.09580,0.01400
4906.02427,0.02200
4907.95274,0.02091
4909.88121,0.01623
4911.80967,0.01026
4913.73814,0.00662
4915.66661,0.01505
4917.59508,0.02163
4919.52355,0.00806
4921.45202,-0.01203
4923.38049,-0.01826
4925.30896,-0.00741
4927.23742,0.00778
4929.16589,0.01432
4931.09436,0.01477
4933.02283,0.01748
4934.95130,0.02025
4936.87977,0.01625
4938.80824,0.00616
4940.73670,-0.00451
4942.66517,-0.01091
4944.59364,-0.00895
4946.52211,0.00356
4948.45058,0.01813
4950.37905,0.02072
4952.30752,0.01241
4954.23599,0.00473
4956.16445,0.00080
4958.09292,0.00022
4960.02139,0.00023
4961.94986,-0.00311
4963.87833,-0.00663
4965.80680,-0.00813
4967.73527,-0.00789
4969.66373,-0.00316
4971.59220,-0.00123
4973.52067,-0.01451
4975.44914,-0.02885
4977.37761,-0.02527
4979.30608,-0.01069
4981.23455,0.00844
4983.16302,0.02688
4985.09148,0.03751
4987.01995,0.03857
4988.94842,0.02618
4990.87689,0.00732
4992.80536,-0.00544
4994.73383,-0.01313
4996.66230,-0.01545
4998.59076,-0.00737
5000.51923,0.00723
5002.44770,0.02377
5004.37617,0.03994
5006.30464,0.04819
5008.23311,0.03972
5010.16158,0.01973
5012.09005,0.00661
5014.01851,0.00641
5015.94698,0.01013
5017.87545,0.01088
5019.80392,0.00950
5021.73239,0.00657
5023.66086,-0.00035
5025.58933,-0.00987
5027.51779,-0.01370
5029.44626,-0.00284
5031.37473,0.01683
5033.30320,0.02653
5035.23167,0.01968
5037.16014,0.01413
5039.08861,0.01768
5041.01708,0.01372
5042.94554,0.00550
5044.87401,0.00937
5046.80248,0.02188
5048.73095,0.02395
5050.65942,0.00696
5052.58789,-0.00763
5054.51636,-0.00787
5056.44482,-0.00649
5058.37329,-0.00544
5060.30176,-0.00408
5062.23023,-0.00381
5064.15870,0.00271
5066.08717,0.01300
5068.01564,0.02389
5069.94410,0.03691
5071.87257,0.03616
5073.80104,0.01864
5075.72951,0.00729
5077.65798,0.00699
5079.58645,0.01369
5081.51492,0.02530
5083.44339,0.02621
5085.37185,0.01915
5087.30032,0.01535
5089.22879,0.01370
5091.15726,0.01866
5093.08573,0.02561
5095.01420,0.02768
5096.94267,0.02502
5098.87113,0.01826
5100.79960,0.01204
5102.72807,0.00655
5104.65654,0.00585
5106.58501,0.01378
5108.51348,0.02299
5110.44195,0.02582
5112.37042,0.02455
5114.29888,0.02830
5116.22735,0.03206
5118.15582,0.02899
5120.08429,0.03097
5122.01276,0.03821
5123.94123,0.03900
5125.86970,0.04114
5127.79816,0.04848
5129.72663,0.05350
5131.65510,0.06147
5133.58357,0.06944
5135.51204,0.06440
5137.44051,0.05431
5139.36898,0.05075
5141.29745,0.04670
5143.22591,0.04425
5145.15438,0.04559
5147.08285,0.03635
5149.01132,0.02949
5150.93979,0.04063
5152.86826,0.04325
5154.79673,0.02297
5156.72519,0.00260
5158.65366,0.00350
5160.58213,0.02418
5162.51060,0.04669
5164.43907,0.05614
5166.36754,0.05390
5168.29601,0.04712
5170.22448,0.03990
5172.15294,0.03663
5174.08141,0.04102
5176.00988,0.04018
5177.93835,0.02471
5179.86682,0.01468
5181.79529,0.02226
5183.72376,0.03612
5185.65222,0.04414
5187.58069,0.03931
5189.50916,0.03091
5191.43763,0.02868
5193.36610,0.02597
5195.29457,0.02286
5197.22304,0.02632
5199.15151,0.02937
5201.07997,0.02431
5203.00844,0.01692
5204.93691,0.01085
5206.86538,0.00644
5208.79385,0.01032
5210.72232,0.01744
5212.65079,0.01628
5214.57925,0.01205
5216.50772,0.01869
5218.43619,0.03769
5220.36466,0.05864
5222.29313,0.07180
5224.22160,0.06817
5226.15007,0.05347
5228.07854,0.04654
5230.00700,0.04219
5231.93547,0.03284
5233.86394,0.02798
5235.79241,0.03079
5237.72088,0.03400
5239.64935,0.03551
5241.57782,0.03669
5243.50628,0.03318
5245.43475,0.03009
5247.36322,0.03534
5249.29169,0.04221
5251.22016,0.04961
5253.14863,0.05082
5255.07710,0.03379
5257.00556,0.01505
5258.93403,0.01012
5260.86250,0.01469
5262.79097,0.02633
5264.71944,0.03597
5266.64791,0.03458
5268.57638,0.02944
5270.50485,0.02429
5272.43331,0.01985
5274.36178,0.02162
5276.29025,0.03104
5278.21872,0.03698
5280.14719,0.02998
5282.07566,0.03085
5284.00413,0.04826
5285.93259,0.05249
5287.86106,0.04338
5289.78953,0.04287
5291.71800,0.04612
5293.64647,0.05304
5295.57494,0.07060
5297.50341,0.07754
5299.43188,0.06851
5301.36034,0.06986
5303.28881,0.07235
5305.21728,0.05815
5307.14575,0.04410
5309.07422,0.04455
5311.00269,0.05601
5312.93116,0.06224
5314.85962,0.05216
5316.78809,0.03808
5318.71656,0.03156
5320.64503,0.03302
5322.57350,0.04537
5324.50197,0.06325
5326.43044,0.06896
5328.35891,0.05782
5330.28737,0.05053
5332.21584,0.05629
5334.14431,0.06766
5336.07278,0.07554
5338.00125,0.06332
5339.92972,0.03744
5341.85819,0.02445
5343.78665,0.02708
5345.71512,0.04114
5347.64359,0.05219
5349.57206,0.04108
5351.50053,0.01564
5353.42900,0.00385
5355.35747,0.00841
5357.28594,0.02117
5359.21440,0.04347
5361.14287,0.06412
5363.07134,0.07796
5364.99981,0.08981
5366.92828,0.09459
5368.85675,0.08729
5370.78522,0.07529
5372.71368,0.06909
5374.64215,0.07085
5376.57062,0.06861
5378.49909,0.04726
5380.42756,0.02679
5382.35603,0.03230
5384.28450,0.04681
5386.21297,0.04356
5388.14143,0.03874
5390.06990,0.04132
5391.99837,0.04572
5393.92684,0.05691
5395.85531,0.07154
5397.78378,0.07976
5399.71225,0.07746
5401.64071,0.07152
5403.56918,0.07101
5405.49765,0.07466
5407.42612,0.07999
5409.35459,0.08155
5411.28306,0.08177
5413.21153,0.09884
5415.13999,0.11098
5417.06846,0.09031
5418.99693,0.07280
5420.92540,0.08549
5422.85387,0.09779
5424.78234,0.08926
5426.71081,0.07204
5428.63928,0.05489
5430.56774,0.04244
5432.49621,0.02724
5434.42468,0.01273
5436.35315,0.01705
5438.28162,0.03055
5440.21009,0.04987
5442.13856,0.06971
5444.06702,0.06684
5445.99549,0.05230
5447.92396,0.05024
5449.85243,0.05325
5451.78090,0.04815
5453.70937,0.03898
5455.63784,0.03682
5457.56631,0.05512
5459.49477,0.07870
5461.42324,0.07750
5463.35171,0.06791
5465.28018,0.07607
5467.20865,0.09552
5469.13712,0.11201
5471.06559,0.11215
5472.99405,0.10035
5474.92252,0.09543
5476.85099,0.09194
5478.77946,0.07378
5480.70793,0.05607
5482.63640,0.05343
5484.56487,0.05294
5486.49334,0.04073
5488.42180,0.03651
5490.35027,0.06394
5492.27874,0.09717
5494.20721,0.09956
5496.13568,0.08349
5498.06415,0.07494
5499.99262,0.07769
5501.92108,0.07805
5503.84955,0.07154
5505.77802,0.07151
5507.70649,0.07963
5509.63496,0.08349
5511.56343,0.08556
5513.49190,0.08573
5515.42037,0.08134
5517.34883,0.07982
5519.27730,0.07300
5521.20577,0.05706
5523.13424,0.04583
5525.06271,0.04573
5526.99118,0.05259
5528.91965,0.05690
5530.84811,0.05932
5532.77658,0.06140
5534.70505,0.05479
5536.63352,0.05256
5538.56199,0.06791
5540.49046,0.08539
5542.41893,0.08583
5544.34740,0.07367
5546.27586,0.07205
5548.20433,0.07823
5550.13280,0.07654
5552.06127,0.06673
5553.98974,0.05486
5555.91821,0.06341
5557.84668,0.08946
5559.77514,0.08924
5561.70361,0.05959
5563.63208,0.04546
5565.56055,0.06841
5567.48902,0.09002
5569.41749,0.07558
5571.34596,0.04895
5573.27443,0.03872
5575.20289,0.04957
5577.13136,0.07041
5579.05983,0.08406
5580.98830,0.08690
5582.91677,0.07399
5584.84524,0.04227
5586.77371,0.02635
5588.70217,0.05433
5590.63064,0.09026
5592.55911,0.10064
5594.48758,0.09645
5596.41605,0.08720
5598.34452,0.08135
5600.27299,0.09232
5602.20145,0.12032
5604.12992,0.14376
5606.05839,0.14382
5607.98686,0.13097
5609.91533,0.11599
5611.84380,0.08954
5613.77227,0.06816
5615.70074,0.08464
5617.62920,0.10741
5619.55767,0.09683
5621.48614,0.07381
5623.41461,0.06340
5625.34308,0.06584
5627.27155,0.06407
5629.20002,0.06060
5631.12848,0.07328
5633.05695,0.08786
5634.98542,0.08291
5636.91389,0.06197
5638.84236,0.04528
5640.77083,0.04413
5642.69930,0.04748
5644.62777,0.04013
5646.55623,0.04415
5648.48470,0.07710
5650.41317,0.10441
5652.34164,0.11282
5654.27011,0.10871
5656.19858,0.09038
5658.12705,0.08604
5660.05551,0.11051
5661.98398,0.12672
5663.91245,0.11697
5665.84092,0.09688
5667.76939,0.07022
5669.69786,0.04638
5671.62633,0.04399
5673.55480,0.06747
5675.48326,0.09752
5677.41173,0.10839
5679.34020,0.09944
5681.26867,0.07922
5683.19714,0.05887
5685.12561,0.05661
5687.05408,0.06819
5688.98254,0.07701
5690.91101,0.08701
5692.83948,0.09750
5694.76795,0.09267
5696.69642,0.08089
5698.62489,0.07863
5700.55336,0.07004
5702.48183,0.05566
5704.41029,0.05898
5706.33876,0.06429
5708.26723,0.05786
5710.19570,0.05851
5712.12417,0.07265
5714.05264,0.08713
5715.98111,0.09611
5717.90957,0.11162
5719.83804,0.13209
5721.76651,0.12924
5723.69498,0.09562
5725.62345,0.07214
5727.55192,0.08527
5729.48039,0.10763
5731.40886,0.12244
5733.33732,0.13738
5735.26579,0.14040
5737.19426,0.11263
5739.12273,0.07225
5741.05120,0.06059
5742.97967,0.08075
5744.90814,0.09273
5746.83660,0.07442
5748.76507,0.06125
5750.69354,0.09123
5752.62201,0.12713
5754.55048,0.11996
5756.47895,0.09501
5758.40742,0.09188
5760.33588,0.10542
5762.26435,0.11193
5764.19282,0.09432
5766.12129,0.06764
5768.04976,0.06753
5769.97823,0.08672
5771.90670,0.08526
5773.83517,0.05929
5775.76363,0.05616
5777.69210,0.09067
5779.62057,0.10574
5781.54904,0.09086
5783.47751,0.09803
5785.40598,0.11979
5787.33445,0.11241
5789.26291,0.07659
5791.19138,0.04495
5793.11985,0.04495
5795.04832,0.07677
5796.97679,0.10292
5798.90526,0.09475
5800.83373,0.07288
5802.76220,0.05685
5804.69066,0.05676
5806.61913,0.07485
5808.54760,0.10051
5810.47607,0.13281
5812.40454,0.14349
5814.33301,0.11330
5816.26148,0.08052
5818.18994,0.06959
5820.11841,0.06790
5822.04688,0.07592
5823.97535,0.09431
5825.90382,0.08711
5827.83229,0.05875
5829.76076,0.05045
5831.68923,0.04932
5833.61769,0.04792
5835.54616,0.05927
5837.47463,0.06876
5839.40310,0.08267
5841.33157,0.09840
5843.26004,0.08407
5845.18851,0.05411
5847.11697,0.04522
5849.04544,0.05036
5850.97391,0.04783
5852.90238,0.04921
5854.83085,0.05894
5856.75932,0.07330
5858.68779,0.09774
5860.61626,0.09607
5862.54472,0.06023
5864.47319,0.04408
5866.40166,0.04066
5868.33013,0.03265
5870.25860,0.05054
5872.18707,0.07863
5874.11554,0.08627
5876.04400,0.08097
5877.97247,0.08286
5879.90094,0.10834
5881.82941,0.12855
5883.75788,0.11115
5885.68635,0.08884
5887.61482,0.08402
5889.54329,0.09762
5891.47175,0.12420
5893.40022,0.11571
5895.32869,0.06208
5897.25716,0.01440
5899.18563,0.00140
5901.11410,0.02434
5903.04257,0.05653
5904.97103,0.05740
5906.89950,0.03921
5908.82797,0.03000
5910.75644,0.03987
5912.68491,0.05763
5914.61338,0.05568
5916.54185,0.05222
5918.47032,0.06600
5920.39878,0.06773
5922.32725,0.06532
5924.25572,0.08046
5926.18419,0.08995
5928.11266,0.09245
5930.04113,0.10655
5931.96960,0.11548
5933.89806,0.10376
5935.82653,0.08499
5937.75500,0.08988
5939.68347,0.12288
5941.61194,0.13585
5943.54041,0.10526
5945.46888,0.07614
5947.39734,0.07617
5949.32581,0.08356
5951.25428,0.07193
5953.18275,0.06098
5955.11122,0.07696
5957.03969,0.08451
5958.96816,0.06501
5960.89663,0.05816
5962.82509,0.06919
5964.75356,0.08566
5966.68203,0.09652
5968.61050,0.07864
5970.53897,0.05892
5972.46744,0.07411
5974.39591,0.10820
5976.32437,0.12403
5978.25284,0.10598
5980.18131,0.08732
5982.10978,0.09335
5984.03825,0.10491
5985.96672,0.10909
5987.89519,0.11384
5989.82366,0.13006
5991.75212,0.14565
5993.68059,0.15294
5995.60906,0.15642
5997.53753,0.13793
5999.46600,0.10796
6001.39447,0.08882
6003.32294,0.07734
6005.25140,0.07595
6007.17987,0.08370
6009.10834,0.08391
6011.03681,0.07791
6012.96528,0.07678
6014.89375,0.07307
6016.82222,0.06926
6018.75069,0.08193
6020.67915,0.11086
6022.60762,0.13452
6024.53609,0.12403
6026.46456,0.08121
6028.39303,0.04373
6030.32150,0.03968
6032.24997,0.06880
6034.17843,0.10023
6036.10690,0.07281
6038.03537,0.01024
6039.96384,0.00006
6041.89231,0.01966
6043.82078,0.00612
6045.74925,0.00321
6047.67772,0.06079
6049.60618,0.11040
6051.53465,0.07577
6053.46312,0.00333
6055.39159,-0.00905
6057.32006,0.04612
6059.24853,0.09537
6061.17700,0.12376
6063.10546,0.13883
6065.03393,0.13987
6066.96240,0.12867
6068.89087,0.08805
6070.81934,0.03529
6072.74781,0.04044
6074.67628,0.09496
6076.60475,0.10515
6078.53321,0.08981
6080.46168,0.10931
6082.39015,0.11045
6084.31862,0.07805
6086.24709,0.08008
6088.17556,0.09757
6090.10403,0.08272
6092.03249,0.07421
6093.96096,0.09837
6095.88943,0.13324
6097.81790,0.14276
6099.74637,0.10632
6101.67484,0.05791
6103.60331,0.04919
6105.53177,0.07296
6107.46024,0.09918
6109.38871,0.12802
6111.31718,0.13920
6113.24565,0.10318
6115.17412,0.04665
6117.10259,0.01420
6119.03106,0.00691
6120.95952,0.00385
6122.88799,0.01569
6124.81646,0.03403
6126.74493,0.03633
6128.67340,0.04013
6130.60187,0.04310
6132.53034,0.02156
6134.45880,0.00887
6136.38727,0.02870
6138.31574,0.05225
6140.24421,0.06495
6142.17268,0.06378
6144.10115,0.05569
6146.02962,0.05711
6147.95809,0.05241
6149.88655,0.05207
6151.81502,0.07767
6153.74349,0.09466
6155.67196,0.07298
6157.60043,0.03762
6159.52890,0.03085
6161.45737,0.03947
6163.38583,0.04294
6165.31430,0.05275
6167.24277,0.04189
6169.17124,0.02368
6171.09971,0.03078
6173.02818,0.03774
6174.95665,0.03776
6176.88512,0.04526
6178.81358,0.04390
6180.74205,0.00653
6182.67052,-0.05270
6184.59899,-0.06828
6186.52746,-0.01594
6188.45593,0.05411
6190.38440,0.09897
6192.31286,0.09280
6194.24133,0.03010
6196.16980,-0.01688
6198.09827,0.00773
6200.02674,0.05615
6201.95521,0.06674
6203.88368,0.05423
6205.81215,0.06287
6207.74061,0.10093
6209.66908,0.14281
6211.59755,0.14677
6213.52602,0.12591
6215.45449,0.11702
6217.38296,0.11970
6219.31143,0.11974
6221.23989,0.11310
6223.16836,0.09242
6225.09683,0.07268
6227.02530,0.08402
6228.95377,0.10230
6230.88224,0.10517
6232.81071,0.09507
6234.73918,0.06963
6236.66764,0.04539
6238.59611,0.05622
6240.52458,0.10670
6242.45305,0.13758
6244.38152,0.10260
6246.30999,0.03274
6248.23846,0.00283
6250.16692,0.03302
6252.09539,0.05386
6254.02386,0.03799
6255.95233,0.01538
6257.88080,0.00808
6259.80927,0.01898
6261.73774,0.03197
6263.66621,0.05448
6265.59467,0.09366
6267.52314,0.13522
6269.45161,0.17254
6271.38008,0.17919
6273.30855,0.15763
6275.23702,0.14152
6277.16549,0.10312
6279.09395,0.04288
6281.02242,0.02714
6282.95089,0.07932
6284.87936,0.12145
6286.80783,0.08780
6288.73630,0.04226
6290.66477,0.03528
6292.59323,0.03728
6294.52170,0.03665
6296.45017,0.03833
6298.37864,0.04148
6300.30711,0.03539
6302.23558,0.00174
6304.16405,-0.02769
6306.09252,-0.00695
6308.02098,0.04061
6309.94945,0.05404
6311.87792,0.02653
6313.80639,0.01489
6315.73486,0.03910
6317.66333,0.07219
6319.59180,0.09302
6321.52026,0.08592
6323.44873,0.05008
6325.37720,0.01232
6327.30567,0.02519
6329.23414,0.08974
6331.16261,0.11907
6333.09108,0.08769
6335.01955,0.05551
6336.94801,0.06761
6338.87648,0.10379
6340.80495,0.10560
6342.73342,0.05572
6344.66189,-0.01803
6346.59036,-0.07050
6348.51883,-0.05963
6350.44729,-0.00372
6352.37576,0.04427
6354.30423,0.07515
6356.23270,0.09892
6358.16117,0.11888
6360.08964,0.15725
6362.01811,0.20088
6363.94658,0.16836
6365.87504,0.07604
6367.80351,0.06024
6369.73198,0.09842
6371.66045,0.09480
6373.58892,0.06969
6375.51739,0.05535
6377.44586,0.03274
6379.37432,0.01076
6381.30279,0.03410
6383.23126,0.08874
6385.15973,0.10410
6387.08820,0.08982
6389.01667,0.07878
6390.94514,0.05185
6392.87361,0.01968
6394.80207,0.02318
6396.73054,0.03540
6398.65901,0.03363
6400.58748,0.03499
6402.51595,0.02844
6404.44442,-0.00073
6406.37289,-0.02154
6408.30135,0.00572
6410.22982,0.08597
6412.15829,0.17206
6414.08676,0.19614
6416.01523,0.15946
6417.94370,0.12600
6419.87217,0.10906
6421.80064,0.06086
6423.72910,0.01327
6425.65757,0.03046
6427.58604,0.08912
6429.51451,0.12008
6431.44298,0.10437
6433.37145,0.06738
6435.29992,0.06126
6437.22838,0.09873
6439.15685,0.10531
6441.08532,0.07749
6443.01379,0.04284
6444.94226,-0.01433
6446.87073,-0.06156
6448.79920,-0.06808
6450.72766,-0.04034
6452.65613,0.01463
6454.58460,0.08443
6456.51307,0.12974
6458.44154,0.12583
6460.37001,0.10857
6462.29848,0.10047
6464.22695,0.07350
6466.15541,0.04253
6468.08388,0.05624
6470.01235,0.09134
6471.94082,0.09657
6473.86929,0.06533
6475.79776,0.03671
6477.72623,0.02445
6479.65469,0.01048
6481.58316,0.00246
6483.51163,0.00724
6485.44010,0.00319
6487.36857,-0.03269
6489.29704,-0.03588
6491.22551,0.04845
6493.15398,0.12313
6495.08244,0.11027
6497.01091,0.07137
6498.93938,0.05659
6500.86785,0.05679
6502.79632,0.06496
6504.72479,0.07253
6506.65326,0.06419
6508.58172,0.03965
6510.51019,0.00376
6512.43866,-0.00840
6514.36713,0.03959
6516.29560,0.08320
6518.22407,0.04893
6520.15254,-0.00298
6522.08101,-0.00697
6524.00947,0.03078
6525.93794,0.07413
6527.86641,0.09028
6529.79488,0.08273
6531.72335,0.07249
6533.65182,0.04243
6535.58029,-0.01452
6537.50875,-0.03179
6539.43722,-0.01875
6541.36569,-0.04356
6543.29416,-0.05434
6545.22263,0.00437
6547.15110,0.07418
6549.07957,0.10710
6551.00804,0.08392
6552.93650,0.02135
6554.86497,-0.00380
6556.79344,0.02108
6558.72191,0.02312
6560.65038,0.01592
6562.57885,0.04496
6564.50732,0.06393
6566.43578,0.05393
6568.36425,0.03597
6570.29272,-0.00562
6572.22119,-0.02593
6574.14966,0.00253
6576.07813,0.03585
6578.00660,0.07925
6579.93507,0.12518
6581.86353,0.12370
6583.79200,0.08163
6585.72047,0.05350
6587.64894,0.06392
6589.57741,0.07614
6591.50588,0.07287
6593.43435,0.09957
6595.36281,0.13459
6597.29128,0.13133
6599.21975,0.11681
6601.14822,0.09621
6603.07669,0.06377
6605.00516,0.05769
6606.93363,0.09966
6608.86210,0.13473
6610.79056,0.10875
6612.71903,0.04802
6614.64750,0.00301
6616.57597,-0.01963
6618.50444,-0.03057
6620.43291,-0.00209
6622.36138,0.06682
6624.28984,0.11853
6626.21831,0.13770
6628.14678,0.12581
6630.07525,0.07397
6632.00372,0.04113
6633.93219,0.07183
6635.86066,0.12866
6637.78912,0.13123
6639.71759,0.09099
6641.64606,0.07399
6643.57453,0.08680
6645.50300,0.09388
6647.43147,0.07877
6649.35994,0.08765
6651.28841,0.11994
6653.21687,0.11930
6655.14534,0.09746
6657.07381,0.09956
6659.00228,0.12963
6660.93075,0.12528
6662.85922,0.04829
6664.78769,0.00083
6666.71615,0.04478
6668.64462,0.10309
6670.57309,0.12625
6672.50156,0.11928
6674.43003,0.09113
6676.35850,0.05542
6678.28697,0.03885
6680.21544,0.06162
6682.14390,0.04743
6684.07237,-0.00436
6686.00084,0.01555
6687.92931,0.07074
6689.85778,0.08115
6691.78625,0.07762
6693.71472,0.06556
6695.64318,0.05997
6697.57165,0.11408
6699.50012,0.17644
6701.42859,0.17891
6703.35706,0.16012
6705.28553,0.15702
6707.21400,0.14394
6709.14247,0.11984
6711.07093,0.09796
6712.99940,0.03706
6714.92787,-0.05001
6716.85634,-0.09075
6718.78481,-0.05980
6720.71328,0.02982
6722.64175,0.11090
6724.57021,0.13402
6726.49868,0.13375
6728.42715,0.10638
6730.35562,0.04838
6732.28409,0.03971
6734.21256,0.10144
6736.14103,0.18433
6738.06950,0.24065
6739.99796,0.24843
6741.92643,0.20683
6743.85490,0.14091
6745.78337,0.11141
6747.71184,0.11174
6749.64031,0.07129
6751.56878,-0.01266
6753.49724,-0.06146
6755.42571,-0.03005
6757.35418,0.00598
6759.28265,0.01555
6761.21112,0.06552
6763.13959,0.12095
6765.06806,0.07561
6766.99653,-0.02685
6768.92499,-0.04549
6770.85346,0.03462
6772.78193,0.10367
6774.71040,0.09205
6776.63887,0.03744
6778.56734,0.02860
6780.49581,0.09009
6782.42427,0.15265
6784.35274,0.15047
6786.28121,0.11626
6788.20968,0.08909
6790.13815,0.07929
6792.06662,0.08928
6793.99509,0.08102
6795.92355,0.03561
6797.85202,0.00765
6799.78049,0.01715
6801.70896,0.03024
6803.63743,0.03875
6805.56590,0.03755
6807.49437,0.03683
6809.42284,0.04922
6811.35130,0.05984
6813.27977,0.09931
6815.20824,0.17700
6817.13671,0.18020
6819.06518,0.08668
6820.99365,0.00993
6822.92212,0.01455
6824.85058,0.06983
6826.77905,0.09818
6828.70752,0.05348
6830.63599,-0.01775
6832.56446,-0.00247
6834.49293,0.09537
6836.42140,0.17244
6838.34987,0.14283
6840.27833,0.07150
6842.20680,0.09214
6844.13527,0.17321
6846.06374,0.19099
6847.99221,0.13136
6849.92068,0.06850
6851.84915,0.06754
6853.77761,0.08439
6855.70608,0.07990
6857.63455,0.06672
6859.56302,0.05107
6861.49149,0.04051
6863.41996,0.03212
6865.34843,0.03599
6867.27690,0.05518
6869.20536,0.05935
6871.13383,0.06745
6873.06230,0.07828
6874.99077,0.05766
6876.91924,0.05516
6878.84771,0.10502
6880.77618,0.13079
6882.70464,0.08022
6884.63311,0.03012
6886.56158,0.02517
6888.49005,0.04865
6890.41852,0.05492
6892.34699,-0.00446
6894.27546,-0.07234
6896.20393,-0.08741
6898.13239,-0.03375
6900.06086,0.03857
6901.98933,0.05235
6903.91780,0.08196
6905.84627,0.16727
6907.77474,0.16976
6909.70321,0.09146
6911.63167,0.03547
6913.56014,0.01972
6915.48861,0.04807
6917.41708,0.12831
6919.34555,0.21579
6921.27402,0.26432
6923.20249,0.26259
6925.13096,0.20842
6927.05942,0.13131
6928.98789,0.08809
6930.91636,0.09335
6932.84483,0.07029
6934.77330,-0.00535
6936.70177,-0.06004
6938.63024,-0.04185
6940.55870,0.00298
6942.48717,-0.04563
6944.41564,-0.13496
6946.34411,-0.13344
6948.27258,-0.02943
6950.20105,0.07154
6952.12952,0.11200
6954.05799,0.12741
6955.98645,0.13515
6957.91492,0.14146
6959.84339,0.18620
6961.77186,0.20419
6963.70033,0.13325
6965.62880,0.04589
6967.55727,0.03489
6969.48573,0.07100
6971.41420,0.01403
6973.34267,-0.10174
6975.27114,-0.14089
6977.19961,-0.09536
6979.12808,0.01543
6981.05655,0.15386
6982.98501,0.21293
6984.91348,0.17814
6986.84195,0.19510
6988.77042,0.28103
6990.69889,0.27438
6992.62736,0.15967
6994.55583,0.06926
6996.48430,0.09604
6998.41276,0.18667
7000.34123,0.14356
7002.26970,-0.02606
7004.19817,-0.09592
7006.12664,-0.03666
7008.05511,0.00508
7009.98358,0.02271
7011.91204,0.05770
7013.84051,0.05396
7015.76898,0.02683
7017.69745,0.04880
7019.62592,0.10839
7021.55439,0.14264
7023.48286,0.08919
7025.41133,0.02140
7027.33979,0.10467
7029.26826,0.21181
7031.19673,0.17741
7033.12520,0.17043
7035.05367,0.16758
7036.98214,0.06815
7038.91061,-0.00857
7040.83907,-0.00655
7042.76754,0.06429
7044.69601,0.12753
7046.62448,0.13780
7048.55295,0.14634
7050.48142,0.11957
7052.40989,0.06120
7054.33836,0.03613
7056.26682,0.02259
7058.19529,-0.03991
7060.12376,-0.12615
7062.05223,-0.13759
7063.98070,-0.08815
7065.90917,-0.07940
7067.83764,-0.05003
7069.76610,0.08786
7071.69457,0.20944
7073.62304,0.18926
7075.55151,0.12783
7077.47998,0.09902
7079.40845,0.11263
7081.33692,0.09450
7083.26539,-0.06054
7085.19385,-0.19761
7087.12232,-0.16520
7089.05079,-0.05269
7090.97926,-0.02290
7092.90773,-0.03131
7094.83620,-0.00395
7096.76467,-0.00393
7098.69313,-0.02993
7100.62160,0.02599
7102.55007,0.10519
7104.47854,0.11980
7106.40701,0.11003
7108.33548,0.11910
7110.26395,0.09073
7112.19242,0.02339
7114.12088,-0.00270
7116.04935,-0.00738
7117.97782,-0.05498
7119.90629,-0.08891
7121.83476,-0.07986
7123.76323,-0.07509
7125.69170,-0.07451
7127.62016,-0.02746
7129.54863,0.06019
7131.47710,0.09070
7133.40557,0.04145
7135.33404,0.02593
7137.26251,0.06298
7139.19098,0.03407
7141.11944,-0.06063
7143.04791,-0.03789
7144.97638,0.07619
7146.90485,0.07983
7148.83332,0.03198
7150.76179,-0.03429
7152.69026,-0.13939
7154.61873,-0.16805
7156.54719,-0.10940
7158.47566,-0.05322
7160.40413,-0.07689
7162.33260,-0.14345
7164.26107,-0.13210
7166.18954,-0.04310
7168.11801,0.02442
7170.04647,0.04770
7171.97494,0.11730
7173.90341,0.21602
7175.83188,0.33074
7177.76035,0.37574
7179.68882,0.23296
7181.61729,0.04418
7183.54576,-0.00234
7185.47422,0.05955
7187.40269,0.07129
7189.33116,-0.00199
7191.25963,-0.03628
7193.18810,0.05754
7195.11657,0.17835
7197.04504,0.23479
7198.97350,0.24975
7200.90197,0.23229
7202.83044,0.14039
7204.75891,0.00161
7206.68738,-0.02075
7208.61585,0.03561
7210.54432,0.03238
7212.47279,-0.02146
7214.40125,-0.04949
7216.32972,-0.07485
7218.25819,-0.09387
7220.18666,-0.06727
7222.11513,-0.07949
7224.04360,-0.12421
7225.97207,-0.12366
7227.90053,-0.08445
7229.82900,-0.06791
7231.75747,-0.12125
7233.68594,-0.22284
7235.61441,-0.28873
7237.54288,-0.25812
7239.47135,-0.16474
7241.39982,-0.09712
7243.32828,-0.03284
7245.25675,0.05956
7247.18522,0.09615
7249.11369,0.09112
7251.04216,0.10443
7252.97063,0.05082
7254.89910,-0.01509
7256.82756,0.03864
7258.75603,0.13617
7260.68450,0.19022
7262.61297,0.14780
7264.54144,0.10216
7266.46991,0.09969
7268.39838,0.02402
7270.32685,-0.12827
7272.25531,-0.16947
7274.18378,-0.05682
7276.11225,-0.00075
7278.04072,0.03466
7279.96919,0.19442
7281.89766,0.27644
7283.82613,0.17205
7285.75459,0.10876
7287.68306,0.15098
7289.61153,0.22600
7291.54000,0.28751
7293.46847,0.28526
7295.39694,0.18923
7297.32541,0.14124
7299.25387,0.19291
7301.18234,0.15330
7303.11081,-0.00673
7305.03928,-0.03624
7306.96775,0.17306
7308.89622,0.33969
7310.82469,0.28559
7312.75316,0.19636
7314.68162,0.05329
7316.61009,-0.08461
7318.53856,0.04837
7320.46703,0.25654
7322.39550,0.23438
7324.32397,0.07084
7326.25244,0.02001
7328.18090,0.06056
7330.10937,0.04214
7332.03784,-0.02662
7333.96631,-0.05883
7335.89478,-0.03072
7337.82325,0.07893
7339.75172,0.19966
7341.68019,0.18556
7343.60865,0.15717
7345.53712,0.08274
7347.46559,-0.09257
7349.39406,-0.20158
7351.32253,-0.09492
7353.25100,0.08021
7355.17947,0.13973
7357.10793,0.04531
7359.03640,-0.06582
7360.96487,0.04785
7362.89334,0.27757
7364.82181,0.31587
7366.75028,0.20762
7368.67875,0.18329
7370.60722,0.20006
7372.53568,0.14801
7374.46415,0.05011
7376.39262,0.02950
7378.32109,0.09308
7380.24956,0.14286
7382.17803,0.13268
7384.10650,0.13242
7386.03496,0.14937
7387.96343,0.13610
7389.89190,0.15158
7391.82037,0.21988
7393.74884,0.26466
7395.67731,0.22241
7397.60578,0.18240
7399.53425,0.14531
7401.46271,0.06400
7403.39118,0.01168
7405.31965,0.00792
7407.24812,0.05633
7409.17659,0.16892
7411.10506,0.27812
7413.03353,0.34951
7414.96199,0.35985
7416.89046,0.26750
7418.81893,0.11731
7420.74740,-0.00144
7422.67587,-0.04593
7424.60434,-0.00634
7426.53281,0.06942
7428.46128,0.14506
7430.38974,0.14705
7432.31821,0.03809
7434.24668,-0.08383
7436.17515,-0.13953
7438.10362,-0.08142
7440.03209,-0.05555
7441.96056,-0.13443
7443.88902,-0.09101
7445.81749,0.06786
7447.74596,0.15718
7449.67443,0.21055
7451.60290,0.27332
7453.53137,0.19953
7455.45984,0.02722
7457.38831,-0.10452
7459.31677,-0.13105
7461.24524,-0.06860
7463.17371,-0.02876
7465.10218,0.04816
7467.03065,0.19096
7468.95912,0.22905
7470.88759,0.11672
7472.81605,0.04751
7474.74452,0.10158
7476.67299,0.07902
7478.60146,-0.02156
7480.52993,0.03872
7482.45840,0.07486
7484.38687,-0.08278
7486.31533,-0.15632
7488.24380,-0.05848
7490.17227,0.08476
7492.10074,0.16173
7494.02921,0.13160
7495.95768,0.09212
7497.88615,0.12677
