399.19301,-0.53353
401.12148,-0.62316
403.04995,-0.11314
404.97842,0.08580
406.90689,0.03589
408.83536,0.03791
410.76382,0.09505
412.69229,0.08072
414.62076,0.05442
416.54923,0.06157
418.47770,0.01965
420.40617,-0.04837
422.33464,0.02632
424.26311,0.15711
426.19157,0.22548
428.12004,0.24623
430.04851,0.19773
431.97698,0.08839
433.90545,0.04953
435.83392,0.05357
437.76239,0.03109
439.69085,-0.00632
441.61932,-0.00126
443.54779,0.06666
445.47626,0.10173
447.40473,0.06871
449.33320,0.04556
451.26167,0.07680
453.19013,0.12688
455.11860,0.15141
457.04707,0.12129
458.97554,0.06910
460.90401,0.04643
462.83248,0.01919
464.76095,-0.00231
466.68942,0.02244
468.61788,0.04935
470.54635,0.05104
472.47482,0.06268
474.40329,0.09113
476.33176,0.11247
478.26023,0.11048
480.18870,0.07846
482.11716,0.06987
484.04563,0.10331
485.97410,0.12271
487.90257,0.11181
489.83104,0.08039
491.75951,0.05967
493.68798,0.08643
495.61645,0.12124
497.54491,0.09815
499.47338,0.05605
501.40185,0.06077
503.33032,0.08682
505.25879,0.07470
507.18726,0.04935
509.11573,0.05415
511.04419,0.05277
512.97266,0.02921
514.90113,0.02089
516.82960,0.04702
518.75807,0.07478
520.68654,0.08634
522.61501,0.09387
524.54348,0.10260
526.47194,0.11006
528.40041,0.09918
530.32888,0.07868
532.25735,0.06627
534.18582,0.07300
536.11429,0.08503
538.04276,0.07747
539.97122,0.06747
541.89969,0.06532
543.82816,0.06399
545.75663,0.06748
547.68510,0.06527
549.61357,0.10171
551.54204,0.36576
553.47051,0.67637
555.39897,0.56356
557.32744,0.21421
559.25591,0.08505
561.18438,0.10629
563.11285,0.11586
565.04132,0.10763
566.96979,0.09817
568.89825,0.09417
570.82672,0.09442
572.75519,0.08810
574.68366,0.07249
576.61213,0.07524
578.54060,0.09554
580.46907,0.10471
582.39754,0.10435
584.32600,0.11454
586.25447,0.11720
588.18294,0.09181
590.11141,0.07182
592.03988,0.08957
593.96835,0.11608
595.89682,0.11750
597.82528,0.11036
599.75375,0.10990
601.68222,0.10517
603.61069,0.09501
605.53916,0.09390
607.46763,0.10165
609.39610,0.10408
611.32456,0.09846
613.25303,0.09543
615.18150,0.09318
617.10997,0.08834
619.03844,0.09213
620.96691,0.09983
622.89538,0.10264
624.82385,0.10350
626.75231,0.10272
628.68078,0.10168
630.60925,0.10773
632.53772,0.12057
634.46619,0.12133
636.39466,0.10420
638.32313,0.09385
640.25159,0.10362
642.18006,0.11266
644.10853,0.11000
646.03700,0.10747
647.96547,0.10536
649.89394,0.09140
651.82241,0.07424
653.75088,0.07608
655.67934,0.08674
657.60781,0.08615
659.53628,0.08182
661.46475,0.08532
663.39322,0.08678
665.32169,0.07538
667.25016,0.06979
669.17862,0.09758
671.10709,0.11686
673.03556,0.12094
674.96403,0.12697
676.89250,0.13364
678.82097,0.13088
680.74944,0.11395
682.67791,0.10092
684.60637,0.10560
686.53484,0.11284
688.46331,0.10911
690.39178,0.10586
692.32025,0.11230
694.24872,0.11803
696.17719,0.11431
698.10565,0.10545
700.03412,0.09947
701.96259,0.09805
703.89106,0.10186
705.81953,0.10732
707.74800,0.10609
709.67647,0.10729
711.60494,0.12062
713.53340,0.12929
715.46187,0.11792
717.39034,0.10116
719.31881,0.09545
721.24728,0.09674
723.17575,0.10155
725.10422,0.11235
727.03268,0.12475
728.96115,0.13073
730.88962,0.12694
732.81809,0.11908
734.74656,0.11561
736.67503,0.11406
738.60350,0.10644
740.53197,0.09628
742.46043,0.09617
744.38890,0.10350
746.31737,0.10270
748.24584,0.09989
750.17431,0.10689
752.10278,0.11298
754.03125,0.11179
755.95971,0.10972
757.88818,0.11053
759.81665,0.11013
761.74512,0.09990
763.67359,0.08781
765.60206,0.08954
767.53053,0.10336
769.45900,0.11569
771.38746,0.11708
773.31593,0.11279
775.24440,0.11014
777.17287,0.10978
779.10134,0.10891
781.02981,0.10596
782.95828,0.10605
784.88674,0.10941
786.81521,0.10781
788.74368,0.10160
790.67215,0.10264
792.60062,0.11238
794.52909,0.12224
796.45756,0.12461
798.38602,0.12036
800.31449,0.11898
802.24296,0.11790
804.17143,0.11190
806.09990,0.10787
808.02837,0.11196
809.95684,0.11730
811.88531,0.11169
813.81377,0.10340
815.74224,0.10796
817.67071,0.11891
819.59918,0.12074
821.52765,0.11469
823.45612,0.11357
825.38459,0.11678
827.31305,0.11088
829.24152,0.10036
831.16999,0.10200
833.09846,0.11343
835.02693,0.12235
836.95540,0.12641
838.88387,0.12985
840.81234,0.13164
842.74080,0.12850
844.66927,0.12398
846.59774,0.12287
848.52621,0.12593
850.45468,0.12602
852.38315,0.11968
854.31162,0.11668
856.24008,0.12056
858.16855,0.12380
860.09702,0.11987
862.02549,0.11207
863.95396,0.10922
865.88243,0.11012
867.81090,0.10896
869.73937,0.10726
871.66783,0.10818
873.59630,0.11109
875.52477,0.11616
877.45324,0.12323
879.38171,0.12788
881.31018,0.12713
883.23865,0.12341
885.16711,0.12130
887.09558,0.12000
889.02405,0.11779
890.95252,0.12055
892.88099,0.12722
894.80946,0.12739
896.73793,0.12167
898.66640,0.11893
900.59486,0.12017
902.52333,0.12166
904.45180,0.12138
906.38027,0.11980
908.30874,0.11861
910.23721,0.11866
912.16568,0.12213
914.09414,0.12900
916.02261,0.13340
917.95108,0.13356
919.87955,0.13264
921.80802,0.13009
923.73649,0.12627
925.66496,0.12468
927.59343,0.12473
929.52189,0.12212
931.45036,0.11811
933.37883,0.11972
935.30730,0.12614
937.23577,0.13060
939.16424,0.13029
941.09271,0.12633
943.02117,0.12460
944.94964,0.12708
946.87811,0.12869
948.80658,0.12972
950.73505,0.13186
952.66352,0.13165
954.59199,0.12991
956.52045,0.12899
958.44892,0.12838
960.37739,0.12894
962.30586,0.13043
964.23433,0.13436
966.16280,0.14051
968.09127,0.14100
970.01974,0.13426
971.94820,0.13073
973.87667,0.13346
975.80514,0.13427
977.73361,0.13206
979.66208,0.13003
981.59055,0.12725
983.51902,0.12370
985.44748,0.12266
987.37595,0.12684
989.30442,0.13362
991.23289,0.13763
993.16136,0.13472
995.08983,0.12713
997.01830,0.12334
998.94677,0.12477
1000.87523,0.12447
1002.80370,0.12212
1004.73217,0.12382
1006.66064,0.12866
1008.58911,0.13273
1010.51758,0.13475
1012.44605,0.13474
1014.37451,0.13605
1016.30298,0.13901
1018.23145,0.13958
1020.15992,0.13887
1022.08839,0.14114
1024.01686,0.14413
1025.94533,0.14157
1027.87380,0.13416
1029.80226,0.13034
1031.73073,0.13262
1033.65920,0.13686
1035.58767,0.14075
1037.51614,0.14089
1039.44461,0.13787
1041.37308,0.13538
1043.30154,0.13456
1045.23001,0.13529
1047.15848,0.13454
1049.08695,0.13198
1051.01542,0.13216
1052.94389,0.13742
1054.87236,0.14390
1056.80083,0.14738
1058.72929,0.14963
1060.65776,0.15166
1062.58623,0.15186
1064.51470,0.15126
1066.44317,0.15044
1068.37164,0.14815
1070.30011,0.14685
1072.22857,0.14786
1074.15704,0.14800
1076.08551,0.14867
1078.01398,0.15048
1079.94245,0.14990
1081.87092,0.14725
1083.79939,0.14258
1085.72786,0.13808
1087.65632,0.13956
1089.58479,0.14450
1091.51326,0.14436
1093.44173,0.13934
1095.37020,0.13857
1097.29867,0.14546
1099.22714,0.15379
1101.15560,0.15622
1103.08407,0.15428
1105.01254,0.15375
1106.94101,0.15411
1108.86948,0.15523
1110.79795,0.15508
1112.72642,0.15131
1114.65489,0.15016
1116.58335,0.15278
1118.51182,0.15164
1120.44029,0.14646
1122.36876,0.14393
1124.29723,0.14468
1126.22570,0.14479
1128.15417,0.14372
1130.08263,0.14376
1132.01110,0.14647
1133.93957,0.14862
1135.86804,0.14702
1137.79651,0.14499
1139.72498,0.14491
1141.65345,0.14667
1143.58191,0.14855
1145.51038,0.14728
1147.43885,0.14637
1149.36732,0.14924
1151.29579,0.15288
1153.22426,0.15528
1155.15273,0.15551
1157.08120,0.15322
1159.00966,0.15038
1160.93813,0.14782
1162.86660,0.14580
1164.79507,0.14686
1166.72354,0.14925
1168.65201,0.15007
1170.58048,0.15180
1172.50894,0.15392
1174.43741,0.15237
1176.36588,0.14836
1178.29435,0.14738
1180.22282,0.15049
1182.15129,0.15473
1184.07976,0.15797
1186.00823,0.16050
1187.93669,0.16273
1189.86516,0.16153
1191.79363,0.15710
1193.72210,0.15353
1195.65057,0.15155
1197.57904,0.15016
1199.50751,0.14899
1201.43597,0.14922
1203.36444,0.15040
1205.29291,0.14903
1207.22138,0.14692
1209.14985,0.14938
1211.07832,0.15399
1213.00679,0.15561
1214.93526,0.15528
1216.86372,0.15507
1218.79219,0.15409
1220.72066,0.15271
1222.64913,0.15367
1224.57760,0.15522
1226.50607,0.15333
1228.43454,0.15210
1230.36300,0.15519
1232.29147,0.15728
1234.21994,0.15612
1236.14841,0.15615
1238.07688,0.15870
1240.00535,0.16003
1241.93382,0.15803
1243.86229,0.15487
1245.79075,0.15250
1247.71922,0.15169
1249.64769,0.15222
1251.57616,0.15256
1253.50463,0.15241
1255.43310,0.15235
1257.36157,0.15310
1259.29003,0.15546
1261.21850,0.15828
1263.14697,0.15984
1265.07544,0.16052
1267.00391,0.15978
1268.93238,0.15870
1270.86085,0.16092
1272.78932,0.16387
1274.71778,0.16338
1276.64625,0.16208
1278.57472,0.16301
1280.50319,0.16408
1282.43166,0.16480
1284.36013,0.16702
1286.28860,0.16933
1288.21706,0.16982
1290.14553,0.16814
1292.07400,0.16643
1294.00247,0.16692
1295.93094,0.16816
1297.85941,0.16827
1299.78788,0.16577
1301.71634,0.16120
1303.64481,0.15736
1305.57328,0.15693
1307.50175,0.16124
1309.43022,0.16664
1311.35869,0.16877
1313.28716,0.16960
1315.21563,0.17143
1317.14409,0.17263
1319.07256,0.17260
1321.00103,0.17215
1322.92950,0.17132
1324.85797,0.16936
1326.78644,0.16644
1328.71491,0.16318
1330.64337,0.16011
1332.57184,0.16112
1334.50031,0.16698
1336.42878,0.17102
1338.35725,0.17052
1340.28572,0.16851
1342.21419,0.16614
1344.14266,0.16463
1346.07112,0.16416
1347.99959,0.16432
1349.92806,0.16685
1351.85653,0.17013
1353.78500,0.17044
1355.71347,0.16754
1357.64194,0.16432
1359.57040,0.16542
1361.49887,0.17178
1363.42734,0.17505
1365.35581,0.17230
1367.28428,0.17177
1369.21275,0.17363
1371.14122,0.17450
1373.06969,0.17443
1374.99815,0.17178
1376.92662,0.16917
1378.85509,0.17016
1380.78356,0.17234
1382.71203,0.17349
1384.64050,0.17615
1386.56897,0.18047
1388.49743,0.17887
1390.42590,0.17362
1392.35437,0.17457
1394.28284,0.18194
1396.21131,0.18749
1398.13978,0.18524
1400.06825,0.17752
1401.99672,0.17251
1403.92518,0.17305
1405.85365,0.17390
1407.78212,0.17263
1409.71059,0.17274
1411.63906,0.17426
1413.56753,0.17549
1415.49600,0.17938
1417.42446,0.18840
1419.35293,0.19316
1421.28140,0.18694
1423.20987,0.18105
1425.13834,0.17829
1427.06681,0.17700
1428.99528,0.17682
1430.92375,0.17571
1432.85221,0.17573
1434.78068,0.17989
1436.70915,0.18432
1438.63762,0.18434
1440.56609,0.18290
1442.49456,0.18154
1444.42303,0.18148
1446.35149,0.18400
1448.27996,0.18587
1450.20843,0.18466
1452.13690,0.18478
1454.06537,0.19006
1455.99384,0.19991
1457.92231,0.20046
1459.85077,0.19021
1461.77924,0.18613
1463.70771,0.18663
1465.63618,0.18447
1467.56465,0.18060
1469.49312,0.18269
1471.42159,0.19267
1473.35006,0.19907
1475.27852,0.19259
1477.20699,0.18654
1479.13546,0.18413
1481.06393,0.18287
1482.99240,0.18409
1484.92087,0.18905
1486.84934,0.19516
1488.77780,0.19902
1490.70627,0.19811
1492.63474,0.19468
1494.56321,0.19503
1496.49168,0.20015
1498.42015,0.20008
1500.34862,0.19129
1502.27709,0.18339
1504.20555,0.18329
1506.13402,0.19633
1508.06249,0.20602
1509.99096,0.19908
1511.91943,0.19498
1513.84790,0.19689
1515.77637,0.20089
1517.70483,0.20371
1519.63330,0.21060
1521.56177,0.21707
1523.49024,0.20880
1525.41871,0.19981
1527.34718,0.19625
1529.27565,0.19281
1531.20412,0.19327
1533.13258,0.20060
1535.06105,0.20528
1536.98952,0.20853
1538.91799,0.22108
1540.84646,0.22968
1542.77493,0.21613
1544.70340,0.20239
1546.63186,0.19542
1548.56033,0.19619
1550.48880,0.19976
1552.41727,0.20085
1554.34574,0.20264
1556.27421,0.20925
1558.20268,0.22168
1560.13115,0.21744
1562.05961,0.20336
1563.98808,0.19631
1565.91655,0.19425
1567.84502,0.19706
1569.77349,0.19956
1571.70196,0.19631
1573.63043,0.19611
1575.55889,0.20073
1577.48736,0.19821
1579.41583,0.18947
1581.34430,0.18446
1583.27277,0.18426
1585.20124,0.18620
1587.12971,0.18725
1589.05818,0.18603
1590.98664,0.18464
1592.91511,0.18603
1594.84358,0.18898
1596.77205,0.18961
1598.70052,0.18846
1600.62899,0.18885
1602.55746,0.19069
1604.48592,0.19133
1606.41439,0.19061
1608.34286,0.18998
1610.27133,0.18866
1612.19980,0.18750
1614.12827,0.19010
1616.05674,0.19563
1617.98521,0.19595
1619.91367,0.19434
1621.84214,0.19753
1623.77061,0.20182
1625.69908,0.20274
1627.62755,0.20214
1629.55602,0.19972
1631.48449,0.19864
1633.41295,0.20493
1635.34142,0.21777
1637.26989,0.21619
1639.19836,0.20384
1641.12683,0.19864
1643.05530,0.20309
1644.98377,0.21571
1646.91223,0.22772
1648.84070,0.22234
1650.76917,0.21625
1652.69764,0.22025
1654.62611,0.21593
1656.55458,0.20470
1658.48305,0.19549
1660.41152,0.18640
1662.33998,0.18295
1664.26845,0.18896
1666.19692,0.19720
1668.12539,0.20658
1670.05386,0.21230
1671.98233,0.20826
1673.91080,0.20392
1675.83926,0.20136
1677.76773,0.20023
1679.69620,0.20353
1681.62467,0.21150
1683.55314,0.21991
1685.48161,0.21577
1687.41008,0.20576
1689.33855,0.19923
1691.26701,0.19624
1693.19548,0.19839
1695.12395,0.20567
1697.05242,0.21304
1698.98089,0.21740
1700.90936,0.21575
1702.83783,0.21063
1704.76629,0.20848
1706.69476,0.20441
1708.62323,0.19813
1710.55170,0.19560
1712.48017,0.19888
1714.40864,0.20829
1716.33711,0.21802
1718.26558,0.21266
1720.19404,0.20212
1722.12251,0.19779
1724.05098,0.19522
1725.97945,0.19339
1727.90792,0.19511
1729.83639,0.19879
1731.76486,0.20247
1733.69332,0.20442
1735.62179,0.20006
1737.55026,0.19681
1739.47873,0.19720
1741.40720,0.19855
1743.33567,0.20066
1745.26414,0.20256
1747.19261,0.20372
1749.12107,0.20452
1751.04954,0.20145
1752.97801,0.19630
1754.90648,0.19487
1756.83495,0.19533
1758.76342,0.19457
1760.69189,0.19466
1762.62035,0.19414
1764.54882,0.19122
1766.47729,0.18988
1768.40576,0.19146
1770.33423,0.19486
1772.26270,0.19812
1774.19117,0.19708
1776.11964,0.19327
1778.04810,0.19133
1779.97657,0.19243
1781.90504,0.19313
1783.83351,0.19263
1785.76198,0.19230
1787.69045,0.19204
1789.61892,0.19407
1791.54738,0.19806
1793.47585,0.19821
1795.40432,0.19648
1797.33279,0.19714
1799.26126,0.19844
1801.18973,0.19764
1803.11820,0.19415
1805.04666,0.19059
1806.97513,0.18990
1808.90360,0.19189
1810.83207,0.19303
1812.76054,0.19099
1814.68901,0.18831
1816.61748,0.18735
1818.54595,0.18834
1820.47441,0.18995
1822.40288,0.19178
1824.33135,0.19438
1826.25982,0.19629
1828.18829,0.19796
1830.11676,0.19767
1832.04523,0.19368
1833.97369,0.19181
1835.90216,0.19294
1837.83063,0.19399
1839.75910,0.19446
1841.68757,0.19628
1843.61604,0.19937
1845.54451,0.19833
1847.47298,0.19366
1849.40144,0.19066
1851.32991,0.18920
1853.25838,0.18762
1855.18685,0.18711
1857.11532,0.18801
1859.04379,0.18871
1860.97226,0.18913
1862.90072,0.18941
1864.82919,0.19067
1866.75766,0.19439
1868.68613,0.19696
1870.61460,0.19429
1872.54307,0.19039
1874.47154,0.18834
1876.40001,0.18820
1878.32847,0.18894
1880.25694,0.18892
1882.18541,0.18891
1884.11388,0.19051
1886.04235,0.19240
1887.97082,0.19373
1889.89929,0.19369
1891.82775,0.19264
1893.75622,0.19329
1895.68469,0.19347
1897.61316,0.19133
1899.54163,0.19023
1901.47010,0.19104
1903.39857,0.19302
1905.32704,0.19552
1907.25550,0.19594
1909.18397,0.19358
1911.11244,0.19160
1913.04091,0.19136
1914.96938,0.19248
1916.89785,0.19487
1918.82632,0.19558
1920.75478,0.19404
1922.68325,0.19378
1924.61172,0.19405
1926.54019,0.19318
1928.46866,0.19348
1930.39713,0.19469
1932.32560,0.19412
1934.25407,0.19262
1936.18253,0.19125
1938.11100,0.19045
1940.03947,0.19176
1941.96794,0.19405
1943.89641,0.19470
1945.82488,0.19430
1947.75335,0.19379
1949.68181,0.19298
1951.61028,0.19261
1953.53875,0.19252
1955.46722,0.19195
1957.39569,0.19109
1959.32416,0.19088
1961.25263,0.19224
1963.18110,0.19428
1965.10956,0.19591
1967.03803,0.19615
1968.96650,0.19430
1970.89497,0.19233
1972.82344,0.19156
1974.75191,0.19126
1976.68038,0.18966
1978.60884,0.18775
1980.53731,0.18964
1982.46578,0.19285
1984.39425,0.19280
1986.32272,0.19161
1988.25119,0.19081
1990.17966,0.19063
1992.10812,0.19124
1994.03659,0.19070
1995.96506,0.18906
1997.89353,0.18777
1999.82200,0.18802
2001.75047,0.19031
2003.67894,0.19311
2005.60741,0.19460
2007.53587,0.19469
2009.46434,0.19424
2011.39281,0.19381
2013.32128,0.19453
2015.24975,0.19615
2017.17822,0.19608
2019.10669,0.19374
2021.03515,0.19201
2022.96362,0.19208
2024.89209,0.19231
2026.82056,0.19226
2028.74903,0.19251
2030.67750,0.19315
2032.60597,0.19407
2034.53444,0.19431
2036.46290,0.19457
2038.39137,0.19585
2040.31984,0.19606
2042.24831,0.19483
2044.17678,0.19369
2046.10525,0.19368
2048.03372,0.19605
2049.96218,0.19868
2051.89065,0.19765
2053.81912,0.19408
2055.74759,0.19232
2057.67606,0.19296
2059.60453,0.19410
2061.53300,0.19467
2063.46147,0.19467
2065.38993,0.19521
2067.31840,0.19657
2069.24687,0.19770
2071.17534,0.19751
2073.10381,0.19661
2075.03228,0.19640
2076.96075,0.19632
2078.88921,0.19499
2080.81768,0.19321
2082.74615,0.19277
2084.67462,0.19313
2086.60309,0.19320
2088.53156,0.19238
2090.46003,0.19181
2092.38850,0.19346
2094.31696,0.19494
2096.24543,0.19514
2098.17390,0.19561
2100.10237,0.19528
2102.03084,0.19458
2103.95931,0.19546
2105.88778,0.19686
2107.81624,0.19715
2109.74471,0.19688
2111.67318,0.19676
2113.60165,0.19613
2115.53012,0.19431
2117.45859,0.19216
2119.38706,0.19204
2121.31553,0.19460
2123.24399,0.19674
2125.17246,0.19679
2127.10093,0.19641
2129.02940,0.19691
2130.95787,0.19825
2132.88634,0.19936
2134.81481,0.19918
2136.74327,0.19875
2138.67174,0.19861
2140.60021,0.19699
2142.52868,0.19573
2144.45715,0.19683
2146.38562,0.19653
2148.31409,0.19446
2150.24255,0.19462
2152.17102,0.19624
2154.09949,0.19567
2156.02796,0.19371
2157.95643,0.19329
2159.88490,0.19502
2161.81337,0.19765
2163.74184,0.19862
2165.67030,0.19776
2167.59877,0.19752
2169.52724,0.19725
2171.45571,0.19542
2173.38418,0.19427
2175.31265,0.19529
2177.24112,0.19654
2179.16958,0.19634
2181.09805,0.19550
2183.02652,0.19655
2184.95499,0.19925
2186.88346,0.20026
2188.81193,0.19891
2190.74040,0.19752
2192.66887,0.19670
2194.59733,0.19524
2196.52580,0.19391
2198.45427,0.19407
2200.38274,0.19511
2202.31121,0.19540
2204.23968,0.19450
2206.16815,0.19383
2208.09661,0.19452
2210.02508,0.19634
2211.95355,0.19771
2213.88202,0.19727
2215.81049,0.19695
2217.73896,0.19876
2219.66743,0.20019
2221.59590,0.19940
2223.52436,0.19759
2225.45283,0.19531
2227.38130,0.19462
2229.30977,0.19658
2231.23824,0.19829
2233.16671,0.19836
2235.09518,0.19779
2237.02364,0.19664
2238.95211,0.19547
2240.88058,0.19566
2242.80905,0.19681
2244.73752,0.19786
2246.66599,0.19776
2248.59446,0.19651
2250.52293,0.19647
2252.45139,0.19758
2254.37986,0.19755
2256.30833,0.19676
2258.23680,0.19683
2260.16527,0.19796
2262.09374,0.19863
2264.02221,0.19709
2265.95067,0.19486
2267.87914,0.19467
2269.80761,0.19466
2271.73608,0.19432
2273.66455,0.19664
2275.59302,0.19896
2277.52149,0.19848
2279.44996,0.19754
2281.37842,0.19665
2283.30689,0.19615
2285.23536,0.19657
2287.16383,0.19638
2289.09230,0.19551
2291.02077,0.19363
2292.94924,0.18983
2294.87770,0.18712
2296.80617,0.18892
2298.73464,0.19298
2300.66311,0.19479
2302.59158,0.19313
2304.52005,0.18994
2306.44852,0.18757
2308.37699,0.18802
2310.30545,0.19065
2312.23392,0.19019
2314.16239,0.18686
2316.09086,0.18583
2318.01933,0.18353
2319.94780,0.17612
2321.87627,0.17053
2323.80473,0.17119
2325.73320,0.17214
2327.66167,0.17105
2329.59014,0.17048
2331.51861,0.16846
2333.44708,0.16552
2335.37555,0.16507
2337.30401,0.16445
2339.23248,0.16337
2341.16095,0.16470
2343.08942,0.16528
2345.01789,0.16699
2346.94636,0.17185
2348.87483,0.17401
2350.80330,0.17216
2352.73176,0.16700
2354.66023,0.15813
2356.58870,0.15127
2358.51717,0.15288
2360.44564,0.15825
2362.37411,0.16150
2364.30258,0.16425
2366.23104,0.17103
2368.15951,0.17789
2370.08798,0.17994
2372.01645,0.17991
2373.94492,0.18116
2375.87339,0.18343
2377.80186,0.18606
2379.73033,0.18857
2381.65879,0.19050
2383.58726,0.19323
2385.51573,0.19635
2387.44420,0.19823
2389.37267,0.19952
2391.30114,0.20042
2393.22961,0.20029
2395.15807,0.19980
2397.08654,0.20016
2399.01501,0.20065
2400.94348,0.19924
2402.87195,0.19699
2404.80042,0.19713
2406.72889,0.20031
2408.65736,0.20282
2410.58582,0.20182
2412.51429,0.19974
2414.44276,0.19890
2416.37123,0.19831
2418.29970,0.19775
2420.22817,0.19844
2422.15664,0.20038
2424.08510,0.20259
2426.01357,0.20393
2427.94204,0.20332
2429.87051,0.20110
2431.79898,0.19847
2433.72745,0.19711
2435.65592,0.19734
2437.58439,0.19709
2439.51285,0.19617
2441.44132,0.19711
2443.36979,0.20021
2445.29826,0.20239
2447.22673,0.20230
2449.15520,0.20140
2451.08367,0.19997
2453.01213,0.19844
2454.94060,0.19881
2456.86907,0.20047
2458.79754,0.20015
2460.72601,0.19852
2462.65448,0.19852
2464.58295,0.19870
2466.51142,0.19829
2468.43988,0.19869
2470.36835,0.19871
2472.29682,0.19764
2474.22529,0.19817
2476.15376,0.20181
2478.08223,0.20441
2480.01070,0.20340
2481.93916,0.20143
2483.86763,0.20051
2485.79610,0.20096
2487.72457,0.20135
2489.65304,0.20011
2491.58151,0.19898
2493.50998,0.19981
2495.43844,0.20155
2497.36691,0.20309
2499.29538,0.20386
2501.22385,0.20285
2503.15232,0.20144
2505.08079,0.20165
2507.00926,0.20206
2508.93773,0.20127
2510.86619,0.20074
2512.79466,0.20145
2514.72313,0.20286
2516.65160,0.20402
2518.58007,0.20397
2520.50854,0.20329
2522.43701,0.20331
2524.36547,0.20363
2526.29394,0.20353
2528.22241,0.20367
2530.15088,0.20401
2532.07935,0.20391
2534.00782,0.20411
2535.93629,0.20398
2537.86476,0.20269
2539.79322,0.20175
2541.72169,0.20279
2543.65016,0.20546
2545.57863,0.20705
2547.50710,0.20609
2549.43557,0.20402
2551.36404,0.20238
2553.29250,0.20259
2555.22097,0.20440
2557.14944,0.20468
2559.07791,0.20262
2561.00638,0.20169
2562.93485,0.20384
2564.86332,0.20600
2566.79179,0.20483
2568.72025,0.20233
2570.64872,0.20181
2572.57719,0.20267
2574.50566,0.20365
2576.43413,0.20406
2578.36260,0.20250
2580.29107,0.20051
2582.21953,0.20025
2584.14800,0.19996
2586.07647,0.19951
2588.00494,0.20077
2589.93341,0.20214
2591.86188,0.20191
2593.79035,0.20073
2595.71882,0.20005
2597.64728,0.20207
2599.57575,0.20629
2601.50422,0.20892
2603.43269,0.20829
2605.36116,0.20640
2607.28963,0.20551
2609.21810,0.20529
2611.14656,0.20462
2613.07503,0.20356
2615.00350,0.20324
2616.93197,0.20380
2618.86044,0.20405
2620.78891,0.20441
2622.71738,0.20536
2624.64585,0.20601
2626.57431,0.20668
2628.50278,0.20817
2630.43125,0.21011
2632.35972,0.21019
2634.28819,0.20688
2636.21666,0.20353
2638.14513,0.20350
2640.07359,0.20529
2642.00206,0.20593
2643.93053,0.20591
2645.85900,0.20600
2647.78747,0.20476
2649.71594,0.20413
2651.64441,0.20520
2653.57288,0.20573
2655.50134,0.20570
2657.42981,0.20602
2659.35828,0.20703
2661.28675,0.20827
2663.21522,0.20889
2665.14369,0.20944
2667.07216,0.20995
2669.00062,0.20885
2670.92909,0.20644
2672.85756,0.20510
2674.78603,0.20595
2676.71450,0.20809
2678.64297,0.20910
2680.57144,0.20938
2682.49990,0.21022
2684.42837,0.20980
2686.35684,0.20905
2688.28531,0.20949
2690.21378,0.20900
2692.14225,0.20714
2694.07072,0.20587
2695.99919,0.20615
2697.92765,0.20839
2699.85612,0.21173
2701.78459,0.21295
2703.71306,0.21154
2705.64153,0.21131
2707.57000,0.21295
2709.49847,0.21310
2711.42693,0.21175
2713.35540,0.21081
2715.28387,0.21059
2717.21234,0.21160
2719.14081,0.21318
2721.06928,0.21363
2722.99775,0.21291
2724.92622,0.21190
2726.85468,0.21206
2728.78315,0.21345
2730.71162,0.21398
2732.64009,0.21410
2734.56856,0.21552
2736.49703,0.21633
2738.42550,0.21378
2740.35396,0.20986
2742.28243,0.20900
2744.21090,0.21070
2746.13937,0.21130
2748.06784,0.21084
2749.99631,0.21168
2751.92478,0.21356
2753.85325,0.21477
2755.78171,0.21580
2757.71018,0.21711
2759.63865,0.21659
2761.56712,0.21566
2763.49559,0.21689
2765.42406,0.21719
2767.35253,0.21546
2769.28099,0.21414
2771.20946,0.21422
2773.13793,0.21531
2775.06640,0.21620
2776.99487,0.21591
2778.92334,0.21422
2780.85181,0.21288
2782.78028,0.21393
2784.70874,0.21649
2786.63721,0.21868
2788.56568,0.21964
2790.49415,0.21841
2792.42262,0.21649
2794.35109,0.21754
2796.27956,0.21906
2798.20802,0.21710
2800.13649,0.21450
2802.06496,0.21499
2803.99343,0.21713
2805.92190,0.21825
2807.85037,0.21890
2809.77884,0.21893
2811.70731,0.21748
2813.63577,0.21723
2815.56424,0.21955
2817.49271,0.22200
2819.42118,0.22322
2821.34965,0.22274
2823.27812,0.22036
2825.20659,0.21798
2827.13505,0.21737
2829.06352,0.21843
2830.99199,0.22050
2832.92046,0.22217
2834.84893,0.22143
2836.77740,0.21964
2838.70587,0.21884
2840.63433,0.21779
2842.56280,0.21623
2844.49127,0.21497
2846.41974,0.21463
2848.34821,0.21664
2850.27668,0.22041
2852.20515,0.22283
2854.13362,0.22324
2856.06208,0.22309
2857.99055,0.22131
2859.91902,0.21841
2861.84749,0.21892
2863.77596,0.22182
2865.70443,0.22267
2867.63290,0.22248
2869.56136,0.22310
2871.48983,0.22386
2873.41830,0.22370
2875.34677,0.22200
2877.27524,0.21987
2879.20371,0.22010
2881.13218,0.22182
2883.06065,0.22090
2884.98911,0.21837
2886.91758,0.21792
2888.84605,0.21919
2890.77452,0.22049
2892.70299,0.22181
2894.63146,0.22126
2896.55993,0.21761
2898.48839,0.21524
2900.41686,0.21579
2902.34533,0.21584
2904.27380,0.21545
2906.20227,0.21713
2908.13074,0.21951
2910.05921,0.21977
2911.98768,0.21933
2913.91614,0.22123
2915.84461,0.22333
2917.77308,0.22155
2919.70155,0.21821
2921.63002,0.21788
2923.55849,0.21987
2925.48696,0.22083
2927.41542,0.22142
2929.34389,0.22274
2931.27236,0.22270
2933.20083,0.22155
2935.12930,0.22018
2937.05777,0.21931
2938.98624,0.21998
2940.91471,0.21996
2942.84317,0.21897
2944.77164,0.21882
2946.70011,0.21895
2948.62858,0.21934
2950.55705,0.22026
2952.48552,0.22142
2954.41399,0.22250
2956.34245,0.22127
2958.27092,0.21787
2960.19939,0.21751
2962.12786,0.22104
2964.05633,0.22290
2965.98480,0.22285
2967.91327,0.22523
2969.84174,0.22792
2971.77020,0.22619
2973.69867,0.22207
2975.62714,0.21968
2977.55561,0.21914
2979.48408,0.22134
2981.41255,0.22516
2983.34102,0.22655
2985.26948,0.22614
2987.19795,0.22619
2989.12642,0.22679
2991.05489,0.22590
2992.98336,0.22337
2994.91183,0.22287
2996.84030,0.22444
2998.76877,0.22664
3000.69723,0.23006
3002.62570,0.23120
3004.55417,0.22690
3006.48264,0.22248
3008.41111,0.22292
3010.33958,0.22390
3012.26805,0.21902
3014.19651,0.20899
3016.12498,0.20141
3018.05345,0.20440
3019.98192,0.21502
3021.91039,0.22230
3023.83886,0.22474
3025.76733,0.22627
3027.69579,0.22637
3029.62426,0.22545
3031.55273,0.22582
3033.48120,0.22764
3035.40967,0.22983
3037.33814,0.23245
3039.26661,0.23434
3041.19508,0.23285
3043.12354,0.22829
3045.05201,0.22478
3046.98048,0.22456
3048.90895,0.22509
3050.83742,0.22506
3052.76589,0.22559
3054.69436,0.22514
3056.62282,0.22207
3058.55129,0.21946
3060.47976,0.22133
3062.40823,0.22676
3064.33670,0.22970
3066.26517,0.22643
3068.19364,0.22269
3070.12211,0.22362
3072.05057,0.22489
3073.97904,0.22243
3075.90751,0.21907
3077.83598,0.21944
3079.76445,0.22385
3081.69292,0.22812
3083.62139,0.22815
3085.54985,0.22690
3087.47832,0.22940
3089.40679,0.23208
3091.33526,0.23079
3093.26373,0.22752
3095.19220,0.22520
3097.12067,0.22545
3099.04914,0.22726
3100.97760,0.22734
3102.90607,0.22471
3104.83454,0.22365
3106.76301,0.22657
3108.69148,0.23031
3110.61995,0.23112
3112.54842,0.22741
3114.47688,0.22323
3116.40535,0.22341
3118.33382,0.22642
3120.26229,0.22924
3122.19076,0.23025
3124.11923,0.22909
3126.04770,0.22810
3127.97617,0.22858
3129.90463,0.23006
3131.83310,0.23113
3133.76157,0.22993
3135.69004,0.22953
3137.61851,0.23081
3139.54698,0.22971
3141.47545,0.22856
3143.40391,0.22992
3145.33238,0.23052
3147.26085,0.23036
3149.18932,0.23239
3151.11779,0.23415
3153.04626,0.23115
3154.97473,0.22656
3156.90320,0.22533
3158.83166,0.22651
3160.76013,0.22809
3162.68860,0.23014
3164.61707,0.23180
3166.54554,0.23105
3168.47401,0.23067
3170.40248,0.23297
3172.33094,0.23186
3174.25941,0.22836
3176.18788,0.23022
3178.11635,0.23240
3180.04482,0.22956
3181.97329,0.22774
3183.90176,0.22932
3185.83022,0.23011
3187.75869,0.22815
3189.68716,0.22571
3191.61563,0.22647
3193.54410,0.23126
3195.47257,0.23607
3197.40104,0.23627
3199.32951,0.23271
3201.25797,0.23162
3203.18644,0.23399
3205.11491,0.23420
3207.04338,0.23261
3208.97185,0.23178
3210.90032,0.23069
3212.82879,0.23036
3214.75725,0.23103
3216.68572,0.23243
3218.61419,0.23511
3220.54266,0.23711
3222.47113,0.23710
3224.39960,0.23527
3226.32807,0.23183
3228.25654,0.22845
3230.18500,0.22774
3232.11347,0.22895
3234.04194,0.22975
3235.97041,0.23106
3237.89888,0.23147
3239.82735,0.22869
3241.75582,0.22652
3243.68428,0.22764
3245.61275,0.22778
3247.54122,0.22544
3249.46969,0.22471
3251.39816,0.22538
3253.32663,0.22526
3255.25510,0.22528
3257.18357,0.22626
3259.11203,0.22810
3261.04050,0.23173
3262.96897,0.23640
3264.89744,0.23762
3266.82591,0.23550
3268.75438,0.23318
3270.68285,0.23010
3272.61131,0.22753
3274.53978,0.22899
3276.46825,0.23251
3278.39672,0.23310
3280.32519,0.23216
3282.25366,0.23210
3284.18213,0.23294
3286.11060,0.23388
3288.03906,0.23142
3289.96753,0.22677
3291.89600,0.22468
3293.82447,0.22587
3295.75294,0.22842
3297.68141,0.22856
3299.60988,0.22495
3301.53834,0.22258
3303.46681,0.22301
3305.39528,0.22235
3307.32375,0.22217
3309.25222,0.22314
3311.18069,0.22067
3313.10916,0.21825
3315.03763,0.21981
3316.96609,0.22118
3318.89456,0.22274
3320.82303,0.22639
3322.75150,0.22748
3324.67997,0.22606
3326.60844,0.22689
3328.53691,0.22843
3330.46537,0.22819
3332.39384,0.22769
3334.32231,0.22780
3336.25078,0.22900
3338.17925,0.23022
3340.10772,0.22931
3342.03619,0.22753
3343.96466,0.22804
3345.89312,0.23004
3347.82159,0.23024
3349.75006,0.23081
3351.67853,0.23348
3353.60700,0.23489
3355.53547,0.23365
3357.46394,0.23057
3359.39240,0.22696
3361.32087,0.22539
3363.24934,0.22725
3365.17781,0.22955
3367.10628,0.23012
3369.03475,0.23220
3370.96322,0.23670
3372.89168,0.23870
3374.82015,0.23454
3376.74862,0.22808
3378.67709,0.22616
3380.60556,0.22901
3382.53403,0.23275
3384.46250,0.23450
3386.39097,0.23103
3388.31943,0.22527
3390.24790,0.22516
3392.17637,0.22836
3394.10484,0.22767
3396.03331,0.22665
3397.96178,0.23005
3399.89025,0.23509
3401.81871,0.23848
3403.74718,0.23907
3405.67565,0.23619
3407.60412,0.22987
3409.53259,0.22354
3411.46106,0.22021
3413.38953,0.21802
3415.31800,0.21638
3417.24646,0.21844
3419.17493,0.22551
3421.10340,0.23116
3423.03187,0.22910
3424.96034,0.22355
3426.88881,0.22030
3428.81728,0.21850
3430.74574,0.21613
3432.67421,0.21604
3434.60268,0.21876
3436.53115,0.21900
3438.45962,0.21643
3440.38809,0.21772
3442.31656,0.22239
3444.24503,0.22183
3446.17349,0.21576
3448.10196,0.21275
3450.03043,0.21573
3451.95890,0.21853
3453.88737,0.21659
3455.81584,0.21222
3457.74431,0.20936
3459.67277,0.20936
3461.60124,0.21081
3463.52971,0.21170
3465.45818,0.21228
3467.38665,0.21220
3469.31512,0.20909
3471.24359,0.20577
3473.17206,0.20733
3475.10052,0.21144
3477.02899,0.21347
3478.95746,0.21262
3480.88593,0.20958
3482.81440,0.20504
3484.74287,0.20085
3486.67134,0.19974
3488.59980,0.20132
3490.52827,0.20135
3492.45674,0.19980
3494.38521,0.19980
3496.31368,0.19911
3498.24215,0.19632
3500.17062,0.19633
3502.09909,0.19997
3504.02755,0.20078
3505.95602,0.19780
3507.88449,0.19647
3509.81296,0.19631
3511.74143,0.19393
3513.66990,0.19021
3515.59837,0.18855
3517.52683,0.18953
3519.45530,0.19018
3521.38377,0.19123
3523.31224,0.19363
3525.24071,0.19405
3527.16918,0.19171
3529.09765,0.18907
3531.02611,0.18756
3532.95458,0.18643
3534.88305,0.18666
3536.81152,0.18838
3538.73999,0.18678
3540.66846,0.18231
3542.59693,0.18172
3544.52540,0.18523
3546.45386,0.18684
3548.38233,0.18674
3550.31080,0.18784
3552.23927,0.18704
3554.16774,0.18310
3556.09621,0.18009
3558.02468,0.17829
3559.95314,0.17736
3561.88161,0.17888
3563.81008,0.18212
3565.73855,0.18464
3567.66702,0.18062
3569.59549,0.17184
3571.52396,0.16668
3573.45243,0.16543
3575.38089,0.16660
3577.30936,0.16887
3579.23783,0.16967
3581.16630,0.16862
3583.09477,0.17013
3585.02324,0.17694
3586.95171,0.18392
3588.88017,0.18114
3590.80864,0.17312
3592.73711,0.17006
3594.66558,0.17146
3596.59405,0.16988
3598.52252,0.16548
3600.45099,0.16370
3602.37946,0.16430
3604.30792,0.16486
3606.23639,0.16566
3608.16486,0.16574
3610.09333,0.16636
3612.02180,0.16832
3613.95027,0.16613
3615.87874,0.16355
3617.80720,0.16627
3619.73567,0.16503
3621.66414,0.15796
3623.59261,0.15576
3625.52108,0.15843
3627.44955,0.16207
3629.37802,0.16352
3631.30649,0.16229
3633.23495,0.15942
3635.16342,0.15463
3637.09189,0.15201
3639.02036,0.15255
3640.94883,0.15300
3642.87730,0.15338
3644.80577,0.15537
3646.73423,0.16093
3648.66270,0.16836
3650.59117,0.16303
3652.51964,0.15119
3654.44811,0.14559
3656.37658,0.14573
3658.30505,0.14659
3660.23352,0.14526
3662.16198,0.14312
3664.09045,0.14213
3666.01892,0.14449
3667.94739,0.15141
3669.87586,0.15870
3671.80433,0.16137
3673.73280,0.16446
3675.66126,0.16348
3677.58973,0.15355
3679.51820,0.14536
3681.44667,0.14054
3683.37514,0.13864
3685.30361,0.14055
3687.23208,0.14631
3689.16055,0.15124
3691.08901,0.14810
3693.01748,0.14198
3694.94595,0.13890
3696.87442,0.13892
3698.80289,0.13919
3700.73136,0.14023
3702.65983,0.14419
3704.58829,0.14715
3706.51676,0.14832
3708.44523,0.15059
3710.37370,0.15400
3712.30217,0.15416
3714.23064,0.15030
3716.15911,0.14634
3718.08757,0.14147
3720.01604,0.13614
3721.94451,0.13612
3723.87298,0.14145
3725.80145,0.14468
3727.72992,0.14469
3729.65839,0.14658
3731.58686,0.15391
3733.51532,0.16568
3735.44379,0.17078
3737.37226,0.16043
3739.30073,0.14844
3741.22920,0.14399
3743.15767,0.14618
3745.08614,0.15053
3747.01460,0.15001
3748.94307,0.15011
3750.87154,0.15681
3752.80001,0.15736
3754.72848,0.14853
3756.65695,0.14192
3758.58542,0.14108
3760.51389,0.13933
3762.44235,0.13652
3764.37082,0.13738
3766.29929,0.14020
3768.22776,0.14249
3770.15623,0.14042
3772.08470,0.13392
3774.01317,0.12971
3775.94163,0.12965
3777.87010,0.13351
3779.79857,0.13738
3781.72704,0.13614
3783.65551,0.13330
3785.58398,0.13245
3787.51245,0.13374
3789.44092,0.13521
3791.36938,0.13540
3793.29785,0.13698
3795.22632,0.14353
3797.15479,0.15156
3799.08326,0.15431
3801.01173,0.15251
3802.94020,0.14701
3804.86866,0.14208
3806.79713,0.14071
3808.72560,0.14064
3810.65407,0.14058
3812.58254,0.14148
3814.51101,0.14287
3816.43948,0.14229
3818.36795,0.14085
3820.29641,0.14191
3822.22488,0.13987
3824.15335,0.13571
3826.08182,0.13502
3828.01029,0.13486
3829.93876,0.13090
3831.86723,0.12674
3833.79569,0.12998
3835.72416,0.14016
3837.65263,0.15078
3839.58110,0.15101
3841.50957,0.14360
3843.43804,0.13904
3845.36651,0.13497
3847.29498,0.13066
3849.22344,0.13044
3851.15191,0.13571
3853.08038,0.14119
3855.00885,0.13553
3856.93732,0.13137
3858.86579,0.13287
3860.79426,0.13526
3862.72272,0.13612
3864.65119,0.13373
3866.57966,0.13320
3868.50813,0.13982
3870.43660,0.14467
3872.36507,0.14019
3874.29354,0.13265
3876.22200,0.12468
3878.15047,0.12011
3880.07894,0.12006
3882.00741,0.12015
3883.93588,0.12026
3885.86435,0.12176
3887.79282,0.12063
3889.72129,0.11850
3891.64975,0.11907
3893.57822,0.12060
3895.50669,0.12161
3897.43516,0.12378
3899.36363,0.12717
3901.29210,0.13041
3903.22057,0.13224
3905.14903,0.12991
3907.07750,0.12579
3909.00597,0.12282
3910.93444,0.11979
3912.86291,0.11751
3914.79138,0.11765
3916.71985,0.12066
3918.64832,0.12432
3920.57678,0.12437
3922.50525,0.12150
3924.43372,0.11797
3926.36219,0.11561
3928.29066,0.11682
3930.21913,0.11985
3932.14760,0.12081
3934.07606,0.12037
3936.00453,0.11974
3937.93300,0.11773
3939.86147,0.11653
3941.78994,0.11795
3943.71841,0.11842
3945.64688,0.11667
3947.57535,0.11688
3949.50381,0.12000
3951.43228,0.12211
3953.36075,0.12240
3955.28922,0.12359
3957.21769,0.12503
3959.14616,0.12326
3961.07463,0.11986
3963.00309,0.11875
3964.93156,0.11750
3966.86003,0.11443
3968.78850,0.11357
3970.71697,0.11477
3972.64544,0.11507
3974.57391,0.11482
3976.50238,0.11546
3978.43084,0.11643
3980.35931,0.11556
3982.28778,0.11337
3984.21625,0.11137
3986.14472,0.10967
3988.07319,0.10932
3990.00166,0.11083
3991.93012,0.11136
3993.85859,0.10902
3995.78706,0.10745
3997.71553,0.10819
3999.64400,0.10811
4001.57247,0.10743
4003.50094,0.10900
4005.42941,0.11138
4007.35787,0.11072
4009.28634,0.10694
4011.21481,0.10311
4013.14328,0.10157
4015.07175,0.10178
4017.00022,0.10139
4018.92869,0.09966
4020.85715,0.09991
4022.78562,0.10386
4024.71409,0.10630
4026.64256,0.10319
4028.57103,0.09921
4030.49950,0.10133
4032.42797,0.10850
4034.35644,0.11129
4036.28490,0.10594
4038.21337,0.10099
4040.14184,0.10037
4042.07031,0.10025
4043.99878,0.10144
4045.92725,0.10370
4047.85572,0.10341
4049.78418,0.10191
4051.71265,0.10203
4053.64112,0.10116
4055.56959,0.09788
4057.49806,0.09636
4059.42653,0.09711
4061.35500,0.09771
4063.28346,0.09724
4065.21193,0.09524
4067.14040,0.09385
4069.06887,0.09488
4070.99734,0.09515
4072.92581,0.09298
4074.85428,0.09139
4076.78275,0.09121
4078.71121,0.09347
4080.63968,0.09725
4082.56815,0.09717
4084.49662,0.09588
4086.42509,0.09561
4088.35356,0.09196
4090.28203,0.08907
4092.21049,0.09245
4094.13896,0.09769
4096.06743,0.09966
4097.99590,0.09699
4099.92437,0.09338
4101.85284,0.09434
4103.78131,0.09658
4105.70978,0.09465
4107.63824,0.09106
4109.56671,0.08943
4111.49518,0.09068
4113.42365,0.09381
4115.35212,0.09573
4117.28059,0.09485
4119.20906,0.09231
4121.13752,0.08973
4123.06599,0.08967
4124.99446,0.09056
4126.92293,0.08627
4128.85140,0.07988
4130.77987,0.08023
4132.70834,0.08490
4134.63681,0.08588
4136.56527,0.08270
4138.49374,0.08095
4140.42221,0.08371
4142.35068,0.08683
4144.27915,0.08537
4146.20762,0.08215
4148.13609,0.08361
4150.06455,0.08882
4151.99302,0.09107
4153.92149,0.08862
4155.84996,0.08482
4157.77843,0.08060
4159.70690,0.07752
4161.63537,0.07888
4163.56384,0.08096
4165.49230,0.07971
4167.42077,0.07800
4169.34924,0.07723
4171.27771,0.07700
4173.20618,0.07763
4175.13465,0.07824
4177.06312,0.07673
4178.99158,0.07299
4180.92005,0.07024
4182.84852,0.06944
4184.77699,0.07040
4186.70546,0.07470
4188.63393,0.08024
4190.56240,0.08118
4192.49087,0.07634
4194.41933,0.07195
4196.34780,0.07314
4198.27627,0.07563
4200.20474,0.07479
4202.13321,0.07436
4204.06168,0.07524
4205.99015,0.07393
4207.91861,0.07063
4209.84708,0.06882
4211.77555,0.07042
4213.70402,0.07356
4215.63249,0.07395
4217.56096,0.07175
4219.48943,0.07264
4221.41789,0.07428
4223.34636,0.07066
4225.27483,0.06420
4227.20330,0.06056
4229.13177,0.06092
4231.06024,0.06124
4232.98871,0.05974
4234.91718,0.05878
4236.84564,0.05951
4238.77411,0.05983
4240.70258,0.05917
4242.63105,0.05936
4244.55952,0.05998
4246.48799,0.06119
4248.41646,0.06369
4250.34492,0.06478
4252.27339,0.06253
4254.20186,0.06081
4256.13033,0.06034
4258.05880,0.05777
4259.98727,0.05556
4261.91574,0.05403
4263.84421,0.05117
4265.77267,0.04941
4267.70114,0.04962
4269.62961,0.05104
4271.55808,0.05421
4273.48655,0.05922
4275.41502,0.06293
4277.34349,0.05964
4279.27195,0.05299
4281.20042,0.05305
4283.12889,0.05774
4285.05736,0.05860
4286.98583,0.05368
4288.91430,0.04767
4290.84277,0.04727
4292.77124,0.05042
4294.69970,0.05096
4296.62817,0.05185
4298.55664,0.05469
4300.48511,0.05382
4302.41358,0.04889
4304.34205,0.04603
4306.27052,0.04782
4308.19898,0.04951
4310.12745,0.05012
4312.05592,0.05168
4313.98439,0.04889
4315.91286,0.04225
4317.84133,0.03885
4319.76980,0.03931
4321.69827,0.04241
4323.62673,0.04463
4325.55520,0.04057
4327.48367,0.03355
4329.41214,0.03054
4331.34061,0.03341
4333.26908,0.03976
4335.19755,0.04384
4337.12601,0.04256
4339.05448,0.04091
4340.98295,0.04099
4342.91142,0.03831
4344.83989,0.03599
4346.76836,0.03795
4348.69683,0.03835
4350.62530,0.03621
4352.55376,0.03530
4354.48223,0.03306
4356.41070,0.02898
4358.33917,0.02931
4360.26764,0.03366
4362.19611,0.03359
4364.12458,0.02913
4366.05304,0.02814
4367.98151,0.02885
4369.90998,0.02562
4371.83845,0.02416
4373.76692,0.02948
4375.69539,0.03253
4377.62386,0.02960
4379.55232,0.03023
4381.48079,0.03331
4383.40926,0.03259
4385.33773,0.03025
4387.26620,0.02782
4389.19467,0.02711
4391.12314,0.02919
4393.05161,0.03116
4394.98007,0.03057
4396.90854,0.02883
4398.83701,0.02914
4400.76548,0.02951
4402.69395,0.02667
4404.62242,0.02159
4406.55089,0.01839
4408.47935,0.02228
4410.40782,0.02896
4412.33629,0.02823
4414.26476,0.02145
4416.19323,0.01741
4418.12170,0.02016
4420.05017,0.02448
4421.97864,0.02345
4423.90710,0.01823
4425.83557,0.01422
4427.76404,0.01341
4429.69251,0.01288
4431.62098,0.01247
4433.54945,0.01398
4435.47792,0.01657
4437.40638,0.02041
4439.33485,0.02289
4441.26332,0.02106
4443.19179,0.01999
4445.12026,0.02354
4447.04873,0.02468
4448.97720,0.01842
4450.90567,0.01127
4452.83413,0.00998
4454.76260,0.01226
4456.69107,0.01305
4458.61954,0.01107
4460.54801,0.00751
4462.47648,0.00870
4464.40495,0.01738
4466.33341,0.02339
4468.26188,0.02148
4470.19035,0.01790
4472.11882,0.01610
4474.04729,0.01449
4475.97576,0.01083
4477.90423,0.00502
4479.83270,0.00195
4481.76116,0.00417
4483.68963,0.00800
4485.61810,0.01052
4487.54657,0.01177
4489.47504,0.01003
4491.40351,0.00494
4493.33198,0.00337
4495.26044,0.00727
4497.18891,0.00860
4499.11738,0.00408
4501.04585,0.00067
4502.97432,0.00307
4504.90279,0.00842
4506.83126,0.01393
4508.75973,0.01793
4510.68819,0.01827
4512.61666,0.01249
4514.54513,0.00193
4516.47360,-0.00572
4518.40207,-0.00511
4520.33054,-0.00020
4522.25901,0.00598
4524.18747,0.01439
4526.11594,0.01754
4528.04441,0.01031
4529.97288,0.00356
4531.90135,0.00639
4533.82982,0.00954
4535.75829,0.00580
4537.68676,0.00285
4539.61522,0.00298
4541.54369,0.00432
4543.47216,0.00601
4545.40063,0.00599
4547.32910,0.00432
4549.25757,0.00082
4551.18604,-0.00243
4553.11450,-0.00304
4555.04297,-0.00233
4556.97144,0.00025
4558.89991,0.00494
4560.82838,0.00697
4562.75685,0.00614
4564.68532,0.00715
4566.61378,0.01056
4568.54225,0.01250
4570.47072,0.00664
4572.39919,-0.00136
4574.32766,0.00104
4576.25613,0.00743
4578.18460,0.00477
4580.11307,-0.00531
4582.04153,-0.01139
4583.97000,-0.00826
4585.89847,-0.00418
4587.82694,-0.00218
4589.75541,0.00148
4591.68388,0.00039
4593.61235,-0.00587
4595.54081,-0.00735
4597.46928,-0.00306
4599.39775,-0.00115
4601.32622,-0.00249
4603.25469,0.00146
4605.18316,0.00821
4607.11163,0.00913
4609.04010,0.00932
4610.96856,0.01214
4612.89703,0.00900
4614.82550,0.00116
4616.75397,0.00036
4618.68244,0.00491
4620.61091,0.00440
4622.53938,-0.00143
4624.46784,-0.00372
4626.39631,0.00085
4628.32478,0.00390
4630.25325,0.00159
4632.18172,-0.00054
4634.11019,-0.00070
4636.03866,0.00176
4637.96713,0.00911
4639.89559,0.01683
4641.82406,0.01511
4643.75253,0.00282
4645.68100,-0.00518
4647.60947,-0.00071
4649.53794,0.00530
4651.46641,0.00750
4653.39487,0.00934
4655.32334,0.00759
4657.25181,0.00276
4659.18028,0.00101
4661.10875,0.00271
4663.03722,0.00506
4664.96569,0.00107
4666.89416,-0.01168
4668.82262,-0.02173
4670.75109,-0.01982
4672.67956,-0.00826
4674.60803,0.00137
4676.53650,0.00067
4678.46497,-0.00220
4680.39344,0.00021
4682.32190,0.00131
4684.25037,-0.00287
4686.17884,-0.00558
4688.10731,-0.00085
4690.03578,0.00538
4691.96425,0.00574
4693.89272,0.00591
4695.82119,0.00941
4697.74965,0.01050
4699.67812,0.00679
4701.60659,0.00305
4703.53506,0.00180
4705.46353,0.00211
4707.39200,0.00833
4709.32047,0.01737
4711.24893,0.01561
4713.17740,0.00587
4715.10587,0.00059
4717.03434,-0.00077
4718.96281,-0.00222
4720.89128,-0.00002
4722.81975,0.00750
4724.74821,0.01543
4726.67668,0.02125
4728.60515,0.01882
4730.53362,0.00804
4732.46209,0.00349
4734.39056,0.00918
4736.31903,0.01462
4738.24750,0.01401
4740.17596,0.00909
4742.10443,0.00154
4744.03290,-0.00550
4745.96137,-0.00825
4747.88984,-0.00799
4749.81831,-0.00623
4751.74678,-0.00438
4753.67524,-0.00192
4755.60371,0.00317
4757.53218,0.00920
4759.46065,0.01420
4761.38912,0.01398
4763.31759,0.00661
4765.24606,-0.00047
4767.17453,-0.00136
4769.10299,0.00400
4771.03146,0.01312
4772.95993,0.01798
4774.88840,0.01313
4776.81687,0.00484
4778.74534,0.00214
4780.67381,0.00626
4782.60227,0.01085
4784.53074,0.00961
4786.45921,0.00499
4788.38768,0.00447
4790.31615,0.00598
4792.24462,0.00529
4794.17309,0.00604
4796.10156,0.00730
4798.03002,0.00592
4799.95849,0.00326
4801.88696,0.00199
4803.81543,0.00465
4805.74390,0.00715
4807.67237,0.00662
4809.60084,0.00575
4811.52930,0.00342
4813.45777,0.00237
4815.38624,0.00526
4817.31471,0.00463
4819.24318,-0.00112
4821.17165,-0.00385
4823.10012,-0.00280
4825.02859,0.00228
4826.95705,0.01309
4828.88552,0.01610
4830.81399,0.00381
4832.74246,-0.00766
4834.67093,-0.00795
4836.59940,-0.00544
4838.52787,-0.00513
4840.45633,-0.00428
4842.38480,-0.00266
4844.31327,0.00105
4846.24174,0.00845
4848.17021,0.01368
4850.09868,0.00939
4852.02715,-0.00179
4853.95562,-0.00701
4855.88408,-0.00388
4857.81255,0.00061
4859.74102,0.00612
4861.66949,0.01369
4863.59796,0.01691
4865.52643,0.01336
4867.45490,0.00827
4869.38336,0.00412
4871.31183,0.00244
4873.24030,0.00559
4875.16877,0.00807
4877.09724,0.00377
4879.02571,0.00001
4880.95418,0.00015
4882.88265,0.00126
4884.81111,0.00616
4886.73958,0.01214
4888.66805,0.01040
4890.59652,0.00314
4892.52499,-0.00034
4894.45346,-0.00012
4896.38193,-0.00314
4898.31039,-0.00683
4900.23886,-0.00331
4902.16733,0.00448
4904.09580,0.01174
4906.02427,0.01798
4907.95274,0.01669
4909.88121,0.00679
4911.80967,-0.00229
4913.73814,-0.00304
4915.66661,0.00646
4917.59508,0.01880
4919.52355,0.02436
4921.45202,0.02095
4923.38049,0.01067
4925.30896,-0.00070
4927.23742,-0.00402
4929.16589,0.00093
4931.09436,0.00748
4933.02283,0.01233
4934.95130,0.01379
4936.87977,0.01176
4938.80824,0.00732
4940.73670,0.00324
4942.66517,-0.00116
4944.59364,-0.00507
4946.52211,-0.00052
4948.45058,0.00591
4950.37905,0.00403
4952.30752,0.00343
4954.23599,0.01111
4956.16445,0.01551
4958.09292,0.01127
4960.02139,0.00546
4961.94986,-0.00336
4963.87833,-0.01279
4965.80680,-0.01019
4967.73527,-0.00415
4969.66373,-0.00685
4971.59220,-0.00829
4973.52067,-0.00515
4975.44914,-0.00304
4977.37761,0.00246
4979.30608,0.01026
4981.23455,0.01127
4983.16302,0.00598
4985.09148,0.00024
4987.01995,-0.00476
4988.94842,-0.00787
4990.87689,-0.00669
4992.80536,-0.00563
4994.73383,-0.00792
4996.66230,-0.00254
4998.59076,0.01171
5000.51923,0.01939
5002.44770,0.01903
5004.37617,0.01691
5006.30464,0.01108
5008.23311,0.00407
5010.16158,0.00246
5012.09005,0.00446
5014.01851,0.00686
5015.94698,0.00642
5017.87545,0.00314
5019.80392,0.00432
5021.73239,0.00555
5023.66086,0.00278
5025.58933,0.00594
5027.51779,0.01409
5029.44626,0.01874
5031.37473,0.01994
5033.30320,0.02247
5035.23167,0.02558
5037.16014,0.02074
5039.08861,0.01359
5041.01708,0.01774
5042.94554,0.02463
5044.87401,0.02200
5046.80248,0.01283
5048.73095,0.00645
5050.65942,0.00876
5052.58789,0.01087
5054.51636,0.00443
5056.44482,-0.00151
5058.37329,0.00087
5060.30176,0.00924
5062.23023,0.01676
5064.15870,0.01701
5066.08717,0.01198
5068.01564,0.00454
5069.94410,-0.00055
5071.87257,0.00462
5073.80104,0.01137
5075.72951,0.00802
5077.65798,0.00280
5079.58645,0.00605
5081.51492,0.01595
5083.44339,0.02707
5085.37185,0.03216
5087.30032,0.02612
5089.22879,0.01719
5091.15726,0.01369
5093.08573,0.01651
5095.01420,0.02511
5096.94267,0.03066
5098.87113,0.02575
5100.79960,0.01477
5102.72807,0.00284
5104.65654,-0.00617
5106.58501,-0.00598
5108.51348,0.00624
5110.44195,0.02296
5112.37042,0.03024
5114.29888,0.02637
5116.22735,0.02469
5118.15582,0.02913
5120.08429,0.03049
5122.01276,0.02199
5123.94123,0.00711
5125.86970,-0.00275
5127.79816,0.00070
5129.72663,0.01309
5131.65510,0.02020
5133.58357,0.01922
5135.51204,0.02122
5137.44051,0.02588
5139.36898,0.02677
5141.29745,0.02269
5143.22591,0.01751
5145.15438,0.01724
5147.08285,0.01800
5149.01132,0.01509
5150.93979,0.00895
5152.86826,0.00265
5154.79673,0.00063
5156.72519,0.00729
5158.65366,0.02233
5160.58213,0.03039
5162.51060,0.02577
5164.43907,0.02327
5166.36754,0.02715
5168.29601,0.03420
5170.22448,0.04347
5172.15294,0.04651
5174.08141,0.04607
5176.00988,0.04888
5177.93835,0.04489
5179.86682,0.03085
5181.79529,0.01980
5183.72376,0.01836
5185.65222,0.01932
5187.58069,0.01706
5189.50916,0.01240
5191.43763,0.00665
5193.36610,0.00401
5195.29457,0.01011
5197.22304,0.02493
5199.15151,0.03734
5201.07997,0.04004
5203.00844,0.03109
5204.93691,0.01243
5206.86538,0.01350
5208.79385,0.04487
5210.72232,0.06267
5212.65079,0.05369
5214.57925,0.04286
5216.50772,0.04210
5218.43619,0.04558
5220.36466,0.04420
5222.29313,0.03363
5224.22160,0.02395
5226.15007,0.03705
5228.07854,0.06265
5230.00700,0.06066
5231.93547,0.03667
5233.86394,0.02681
5235.79241,0.03516
5237.72088,0.04199
5239.64935,0.03863
5241.57782,0.03350
5243.50628,0.02864
5245.43475,0.02097
5247.36322,0.02347
5249.29169,0.03785
5251.22016,0.04213
5253.14863,0.04397
5255.07710,0.05549
5257.00556,0.05432
5258.93403,0.03594
5260.86250,0.01569
5262.79097,0.00781
5264.71944,0.01858
5266.64791,0.02739
5268.57638,0.02605
5270.50485,0.02946
5272.43331,0.04055
5274.36178,0.04998
5276.29025,0.05400
5278.21872,0.05217
5280.14719,0.04785
5282.07566,0.04816
5284.00413,0.05228
5285.93259,0.06082
5287.86106,0.07142
5289.78953,0.07386
5291.71800,0.06370
5293.64647,0.03938
5295.57494,0.01572
5297.50341,0.01899
5299.43188,0.04358
5301.36034,0.06183
5303.28881,0.06612
5305.21728,0.06145
5307.14575,0.05173
5309.07422,0.04596
5311.00269,0.04879
5312.93116,0.05750
5314.85962,0.06680
5316.78809,0.07398
5318.71656,0.08233
5320.64503,0.08464
5322.57350,0.07381
5324.50197,0.06501
5326.43044,0.07046
5328.35891,0.07111
5330.28737,0.05627
5332.21584,0.04547
5334.14431,0.04275
5336.07278,0.03496
5338.00125,0.02867
5339.92972,0.04434
5341.85819,0.07561
5343.78665,0.08936
5345.71512,0.06717
5347.64359,0.04298
5349.57206,0.04080
5351.50053,0.05295
5353.42900,0.05952
5355.35747,0.05064
5357.28594,0.04455
5359.21440,0.04836
5361.14287,0.04996
5363.07134,0.04048
5364.99981,0.02788
5366.92828,0.02489
5368.85675,0.02364
5370.78522,0.01645
5372.71368,0.01568
5374.64215,0.03392
5376.57062,0.06039
5378.49909,0.07021
5380.42756,0.06871
5382.35603,0.06638
5384.28450,0.05800
5386.21297,0.04599
5388.14143,0.03893
5390.06990,0.03430
5391.99837,0.03044
5393.92684,0.04134
5395.85531,0.06765
5397.78378,0.07809
5399.71225,0.06709
5401.64071,0.05524
5403.56918,0.05310
5405.49765,0.05826
5407.42612,0.06327
5409.35459,0.06653
5411.28306,0.07560
5413.21153,0.08286
5415.13999,0.07077
5417.06846,0.05656
5418.99693,0.05427
5420.92540,0.05481
5422.85387,0.05572
5424.78234,0.06022
5426.71081,0.07211
5428.63928,0.08794
5430.56774,0.08635
5432.49621,0.07024
5434.42468,0.06276
5436.35315,0.06819
5438.28162,0.07698
5440.21009,0.08366
5442.13856,0.08691
5444.06702,0.08943
5445.99549,0.09106
5447.92396,0.08167
5449.85243,0.06008
5451.78090,0.05415
5453.70937,0.06738
5455.63784,0.06957
5457.56631,0.05453
5459.49477,0.04493
5461.42324,0.04933
5463.35171,0.05963
5465.28018,0.06765
5467.20865,0.06932
5469.13712,0.07199
5471.06559,0.08215
5472.99405,0.08390
5474.92252,0.06896
5476.85099,0.05405
5478.77946,0.05379
5480.70793,0.06418
5482.63640,0.07441
5484.56487,0.07549
5486.49334,0.06895
5488.42180,0.06918
5490.35027,0.07998
5492.27874,0.08620
5494.20721,0.08291
5496.13568,0.07618
5498.06415,0.06483
5499.99262,0.05417
5501.92108,0.05370
5503.84955,0.06042
5505.77802,0.07397
5507.70649,0.09557
5509.63496,0.10653
5511.56343,0.08993
5513.49190,0.06458
5515.42037,0.05737
5517.34883,0.05852
5519.27730,0.05135
5521.20577,0.04352
5523.13424,0.05008
5525.06271,0.06921
5526.99118,0.07876
5528.91965,0.06837
5530.84811,0.05525
5532.77658,0.05688
5534.70505,0.07284
5536.63352,0.08911
5538.56199,0.09511
5540.49046,0.09781
5542.41893,0.09445
5544.34740,0.07902
5546.27586,0.06003
5548.20433,0.04368
5550.13280,0.03887
5552.06127,0.04630
5553.98974,0.05666
5555.91821,0.06747
5557.84668,0.07081
5559.77514,0.06343
5561.70361,0.05758
5563.63208,0.05968
5565.56055,0.07073
5567.48902,0.08269
5569.41749,0.08634
5571.34596,0.09010
5573.27443,0.09124
5575.20289,0.07752
5577.13136,0.05503
5579.05983,0.04321
5580.98830,0.05792
5582.91677,0.08251
5584.84524,0.09231
5586.77371,0.08640
5588.70217,0.07392
5590.63064,0.06941
5592.55911,0.07466
5594.48758,0.07655
5596.41605,0.06801
5598.34452,0.05518
5600.27299,0.05631
5602.20145,0.07939
5604.12992,0.09667
5606.05839,0.08906
5607.98686,0.08076
5609.91533,0.08879
5611.84380,0.09086
5613.77227,0.08014
5615.70074,0.08746
5617.62920,0.10731
5619.55767,0.10885
5621.48614,0.09333
5623.41461,0.07410
5625.34308,0.06332
5627.27155,0.06782
5629.20002,0.07462
5631.12848,0.07383
5633.05695,0.07629
5634.98542,0.08558
5636.91389,0.08452
5638.84236,0.06906
5640.77083,0.05822
5642.69930,0.06390
5644.62777,0.07942
5646.55623,0.08662
5648.48470,0.07634
5650.41317,0.06167
5652.34164,0.05454
5654.27011,0.05923
5656.19858,0.07148
5658.12705,0.07130
5660.05551,0.05220
5661.98398,0.03923
5663.91245,0.04498
5665.84092,0.05004
5667.76939,0.05198
5669.69786,0.06487
5671.62633,0.08084
5673.55480,0.08488
5675.48326,0.08615
5677.41173,0.08658
5679.34020,0.06603
5681.26867,0.04090
5683.19714,0.04289
5685.12561,0.06354
5687.05408,0.07917
5688.98254,0.08557
5690.91101,0.08977
5692.83948,0.09047
5694.76795,0.08920
5696.69642,0.09334
5698.62489,0.09595
5700.55336,0.08097
5702.48183,0.05902
5704.41029,0.05629
5706.33876,0.07187
5708.26723,0.08220
5710.19570,0.08195
5712.12417,0.08680
5714.05264,0.09093
5715.98111,0.08797
5717.90957,0.09184
5719.83804,0.09949
5721.76651,0.10337
5723.69498,0.10250
5725.62345,0.09305
5727.55192,0.09168
5729.48039,0.11488
5731.40886,0.13264
5733.33732,0.12160
5735.26579,0.10229
5737.19426,0.09071
5739.12273,0.07747
5741.05120,0.07550
5742.97967,0.08933
5744.90814,0.08454
5746.83660,0.06178
5748.76507,0.06205
5750.69354,0.08421
5752.62201,0.08919
5754.55048,0.08378
5756.47895,0.08531
5758.40742,0.07669
5760.33588,0.05914
5762.26435,0.05117
5764.19282,0.05038
5766.12129,0.05113
5768.04976,0.06365
5769.97823,0.08760
5771.90670,0.10463
5773.83517,0.10022
5775.76363,0.08170
5777.69210,0.06874
5779.62057,0.07963
5781.54904,0.10886
5783.47751,0.11287
5785.40598,0.08663
5787.33445,0.07159
5789.26291,0.07326
5791.19138,0.07434
5793.11985,0.06836
5795.04832,0.06516
5796.97679,0.07283
5798.90526,0.08462
5800.83373,0.09689
5802.76220,0.10482
5804.69066,0.09745
5806.61913,0.08278
5808.54760,0.08453
5810.47607,0.09770
5812.40454,0.10388
5814.33301,0.09818
5816.26148,0.08814
5818.18994,0.09364
5820.11841,0.10851
5822.04688,0.09567
5823.97535,0.06090
5825.90382,0.04731
5827.83229,0.06927
5829.76076,0.09939
5831.68923,0.09512
5833.61769,0.06086
5835.54616,0.04119
5837.47463,0.04010
5839.40310,0.04337
5841.33157,0.05887
5843.26004,0.07782
5845.18851,0.08854
5847.11697,0.09939
5849.04544,0.09987
5850.97391,0.08502
5852.90238,0.08707
5854.83085,0.10687
5856.75932,0.12073
5858.68779,0.12852
5860.61626,0.13174
5862.54472,0.13389
5864.47319,0.13666
5866.40166,0.12329
5868.33013,0.10112
5870.25860,0.08744
5872.18707,0.08326
5874.11554,0.08771
5876.04400,0.09015
5877.97247,0.09203
5879.90094,0.10301
5881.82941,0.10548
5883.75788,0.09547
5885.68635,0.09240
5887.61482,0.09088
5889.54329,0.07862
5891.47175,0.06924
5893.40022,0.07424
5895.32869,0.07848
5897.25716,0.06847
5899.18563,0.06095
5901.11410,0.06521
5903.04257,0.07387
5904.97103,0.08678
5906.89950,0.09514
5908.82797,0.08986
5910.75644,0.09373
5912.68491,0.11993
5914.61338,0.11830
5916.54185,0.07782
5918.47032,0.06175
5920.39878,0.07035
5922.32725,0.06321
5924.25572,0.06365
5926.18419,0.09279
5928.11266,0.11769
5930.04113,0.13709
5931.96960,0.16436
5933.89806,0.16170
5935.82653,0.14271
5937.75500,0.16349
5939.68347,0.17081
5941.61194,0.11166
5943.54041,0.06048
5945.46888,0.06076
5947.39734,0.06302
5949.32581,0.04828
5951.25428,0.04075
5953.18275,0.04709
5955.11122,0.04468
5957.03969,0.02915
5958.96816,0.02219
5960.89663,0.04132
5962.82509,0.06852
5964.75356,0.07493
5966.68203,0.06715
5968.61050,0.05930
5970.53897,0.05864
5972.46744,0.06261
5974.39591,0.04787
5976.32437,0.02872
5978.25284,0.03778
5980.18131,0.05992
5982.10978,0.08206
5984.03825,0.11409
5985.96672,0.12888
5987.89519,0.10730
5989.82366,0.09276
5991.75212,0.10454
5993.68059,0.11873
5995.60906,0.12860
5997.53753,0.13130
5999.46600,0.11152
6001.39447,0.07219
6003.32294,0.03327
6005.25140,0.01301
6007.17987,0.02142
6009.10834,0.04447
6011.03681,0.05062
6012.96528,0.04157
6014.89375,0.04844
6016.82222,0.08258
6018.75069,0.12322
6020.67915,0.14000
6022.60762,0.13373
6024.53609,0.12560
6026.46456,0.12091
6028.39303,0.11009
6030.32150,0.09953
6032.24997,0.09610
6034.17843,0.08252
6036.10690,0.06352
6038.03537,0.06683
6039.96384,0.08982
6041.89231,0.08931
6043.82078,0.05853
6045.74925,0.06268
6047.67772,0.09857
6049.60618,0.09732
6051.53465,0.06695
6053.46312,0.05183
6055.39159,0.05399
6057.32006,0.06654
6059.24853,0.08851
6061.17700,0.10404
6063.10546,0.10560
6065.03393,0.11675
6066.96240,0.14151
6068.89087,0.14897
6070.81934,0.12233
6072.74781,0.09545
6074.67628,0.09798
6076.60475,0.09990
6078.53321,0.06972
6080.46168,0.03897
6082.39015,0.05296
6084.31862,0.09175
6086.24709,0.09800
6088.17556,0.05648
6090.10403,0.02096
6092.03249,0.02832
6093.96096,0.03622
6095.88943,0.02553
6097.81790,0.04647
6099.74637,0.08990
6101.67484,0.08330
6103.60331,0.04249
6105.53177,0.03869
6107.46024,0.06164
6109.38871,0.08161
6111.31718,0.11145
6113.24565,0.12917
6115.17412,0.11690
6117.10259,0.09446
6119.03106,0.05879
6120.95952,0.02840
6122.88799,0.03683
6124.81646,0.06217
6126.74493,0.09264
6128.67340,0.12847
6130.60187,0.12074
6132.53034,0.06015
6134.45880,0.01181
6136.38727,0.01945
6138.31574,0.05849
6140.24421,0.08140
6142.17268,0.08529
6144.10115,0.08397
6146.02962,0.07697
6147.95809,0.06800
6149.88655,0.06272
6151.81502,0.06453
6153.74349,0.06030
6155.67196,0.06042
6157.60043,0.08643
6159.52890,0.10896
6161.45737,0.10482
6163.38583,0.10217
6165.31430,0.11079
6167.24277,0.10892
6169.17124,0.10981
6171.09971,0.12041
6173.02818,0.10911
6174.95665,0.08680
6176.88512,0.08577
6178.81358,0.09299
6180.74205,0.09321
6182.67052,0.09351
6184.59899,0.09480
6186.52746,0.10034
6188.45593,0.09730
6190.38440,0.07287
6192.31286,0.05173
6194.24133,0.04248
6196.16980,0.04410
6198.09827,0.04533
6200.02674,0.02171
6201.95521,-0.00751
6203.88368,-0.00131
6205.81215,0.02507
6207.74061,0.02181
6209.66908,0.00451
6211.59755,0.02441
6213.52602,0.07832
6215.45449,0.12707
6217.38296,0.13197
6219.31143,0.11748
6221.23989,0.14733
6223.16836,0.18556
6225.09683,0.14306
6227.02530,0.06466
6228.95377,0.03252
6230.88224,0.03395
6232.81071,0.04872
6234.73918,0.07143
6236.66764,0.08027
6238.59611,0.07327
6240.52458,0.08117
6242.45305,0.10235
6244.38152,0.10235
6246.30999,0.09364
6248.23846,0.10753
6250.16692,0.13381
6252.09539,0.12432
6254.02386,0.08836
6255.95233,0.07953
6257.88080,0.07865
6259.80927,0.06742
6261.73774,0.08515
6263.66621,0.11991
6265.59467,0.11785
6267.52314,0.09311
6269.45161,0.07665
6271.38008,0.05550
6273.30855,0.03817
6275.23702,0.05884
6277.16549,0.09766
6279.09395,0.08584
6281.02242,0.02731
6282.95089,-0.01741
6284.87936,-0.01820
6286.80783,0.01250
6288.73630,0.04733
6290.66477,0.07111
6292.59323,0.08920
6294.52170,0.11524
6296.45017,0.12941
6298.37864,0.10795
6300.30711,0.06918
6302.23558,0.03980
6304.16405,0.03267
6306.09252,0.03759
6308.02098,0.04753
6309.94945,0.06198
6311.87792,0.06282
6313.80639,0.04770
6315.73486,0.03543
6317.66333,0.03035
6319.59180,0.05577
6321.52026,0.11457
6323.44873,0.11961
6325.37720,0.06830
6327.30567,0.04213
6329.23414,0.04863
6331.16261,0.07627
6333.09108,0.12047
6335.01955,0.14052
6336.94801,0.12189
6338.87648,0.10804
6340.80495,0.11659
6342.73342,0.11829
6344.66189,0.09645
6346.59036,0.06279
6348.51883,0.03840
6350.44729,0.03353
6352.37576,0.05943
6354.30423,0.09537
6356.23270,0.10828
6358.16117,0.08667
6360.08964,0.06586
6362.01811,0.09047
6363.94658,0.11755
6365.87504,0.09923
6367.80351,0.06288
6369.73198,0.05336
6371.66045,0.07567
6373.58892,0.09734
6375.51739,0.10503
6377.44586,0.10382
6379.37432,0.09111
6381.30279,0.07701
6383.23126,0.08609
6385.15973,0.09097
6387.08820,0.05392
6389.01667,0.01187
6390.94514,-0.00454
6392.87361,0.00782
6394.80207,0.04174
6396.73054,0.06332
6398.65901,0.05099
6400.58748,0.03810
6402.51595,0.06516
6404.44442,0.11368
6406.37289,0.17024
6408.30135,0.21325
6410.22982,0.20446
6412.15829,0.15720
6414.08676,0.10328
6416.01523,0.06511
6417.94370,0.07244
6419.87217,0.10813
6421.80064,0.09604
6423.72910,0.03832
6425.65757,0.02065
6427.58604,0.04653
6429.51451,0.04124
6431.44298,0.03367
6433.37145,0.05418
6435.29992,0.05051
6437.22838,0.03480
6439.15685,0.04340
6441.08532,0.05063
6443.01379,0.02017
6444.94226,-0.02090
6446.87073,-0.01530
6448.79920,0.01519
6450.72766,0.02519
6452.65613,0.02017
6454.58460,0.02355
6456.51307,0.05925
6458.44154,0.10417
6460.37001,0.09573
6462.29848,0.05962
6464.22695,0.03014
6466.15541,-0.01071
6468.08388,-0.02053
6470.01235,0.01922
6471.94082,0.04524
6473.86929,0.03861
6475.79776,0.01429
6477.72623,-0.00781
6479.65469,0.01859
6481.58316,0.06506
6483.51163,0.07212
6485.44010,0.08779
6487.36857,0.12568
6489.29704,0.11361
6491.22551,0.04292
6493.15398,0.00937
6495.08244,0.04293
6497.01091,0.06486
6498.93938,0.06146
6500.86785,0.06799
6502.79632,0.07208
6504.72479,0.06114
6506.65326,0.05108
6508.58172,0.03916
6510.51019,0.02792
6512.43866,0.02662
6514.36713,0.01347
6516.29560,-0.00625
6518.22407,0.00332
6520.15254,0.03331
6522.08101,0.07296
6524.00947,0.13825
6525.93794,0.17321
6527.86641,0.12637
6529.79488,0.06856
6531.72335,0.05186
6533.65182,0.04515
6535.58029,0.00866
6537.50875,-0.01669
6539.43722,0.01650
6541.36569,0.04141
6543.29416,0.01551
6545.22263,0.00187
6547.15110,0.02717
6549.07957,0.04246
6551.00804,0.03159
6552.93650,0.04394
6554.86497,0.06702
6556.79344,0.06282
6558.72191,0.03713
6560.65038,-0.00146
6562.57885,-0.04416
6564.50732,-0.08857
6566.43578,-0.10187
6568.36425,-0.05713
6570.29272,-0.01273
6572.22119,0.01988
6574.14966,0.07207
6576.07813,0.08124
6578.00660,0.03754
6579.93507,0.01148
6581.86353,-0.00571
6583.79200,0.00482
6585.72047,0.07425
6587.64894,0.14234
6589.57741,0.16736
6591.50588,0.15741
6593.43435,0.13748
6595.36281,0.12203
6597.29128,0.09843
6599.21975,0.05652
6601.14822,0.01534
6603.07669,0.01902
6605.00516,0.06756
6606.93363,0.12883
6608.86210,0.15880
6610.79056,0.12162
6612.71903,0.05721
6614.64750,0.02708
6616.57597,0.00972
6618.50444,-0.00240
6620.43291,0.02732
6622.36138,0.09695
6624.28984,0.15717
6626.21831,0.15264
6628.14678,0.09381
6630.07525,0.04391
6632.00372,0.04815
6633.93219,0.10284
6635.86066,0.13913
6637.78912,0.11041
6639.71759,0.07818
6641.64606,0.04762
6643.57453,0.02924
6645.50300,0.10998
6647.43147,0.23238
6649.35994,0.24568
6651.28841,0.16621
6653.21687,0.08622
6655.14534,0.04897
6657.07381,0.02256
6659.00228,-0.01644
6660.93075,-0.01638
6662.85922,0.02933
6664.78769,0.08201
6666.71615,0.11327
6668.64462,0.11348
6670.57309,0.11564
6672.50156,0.10565
6674.43003,0.05707
6676.35850,0.03828
6678.28697,0.07211
6680.21544,0.09384
6682.14390,0.05568
6684.07237,-0.00553
6686.00084,-0.00687
6687.92931,0.05384
6689.85778,0.07787
6691.78625,0.02618
6693.71472,-0.02592
6695.64318,-0.01898
6697.57165,0.04037
6699.50012,0.06846
6701.42859,0.03093
6703.35706,-0.00433
6705.28553,0.00160
6707.21400,0.02594
6709.14247,0.04026
6711.07093,0.03051
6712.99940,0.00825
6714.92787,-0.00651
6716.85634,0.00355
6718.78481,0.02466
6720.71328,0.02054
6722.64175,0.00872
6724.57021,0.02441
6726.49868,0.06143
6728.42715,0.11007
6730.35562,0.13774
6732.28409,0.11915
6734.21256,0.08962
6736.14103,0.09722
6738.06950,0.11551
6739.99796,0.06571
6741.92643,-0.01597
6743.85490,-0.01308
6745.78337,0.03825
6747.71184,0.04550
6749.64031,0.02547
6751.56878,0.04793
6753.49724,0.09223
6755.42571,0.11172
6757.35418,0.11580
6759.28265,0.08169
6761.21112,0.00226
6763.13959,-0.01759
6765.06806,0.01744
6766.99653,0.03443
6768.92499,0.03056
6770.85346,0.01596
6772.78193,-0.00942
6774.71040,-0.04919
6776.63887,-0.06737
6778.56734,-0.05811
6780.49581,-0.04195
6782.42427,0.01763
6784.35274,0.09349
6786.28121,0.12538
6788.20968,0.12410
6790.13815,0.13642
6792.06662,0.14737
6793.99509,0.08864
6795.92355,-0.00637
6797.85202,-0.05466
6799.78049,-0.03360
6801.70896,0.02937
6803.63743,0.04833
6805.56590,-0.00484
6807.49437,-0.03171
6809.42284,0.00280
6811.35130,0.01674
6813.27977,-0.01203
6815.20824,0.01750
6817.13671,0.06545
6819.06518,0.02219
6820.99365,-0.04059
6822.92212,-0.02171
6824.85058,0.03051
6826.77905,0.04757
6828.70752,0.06052
6830.63599,0.06945
6832.56446,0.05862
6834.49293,0.04117
6836.42140,-0.00508
6838.34987,-0.07305
6840.27833,-0.11150
6842.20680,-0.10491
6844.13527,-0.06077
6846.06374,-0.00398
6847.99221,0.04631
6849.92068,0.09964
6851.84915,0.12828
6853.77761,0.10495
6855.70608,0.07057
6857.63455,0.08844
6859.56302,0.14186
6861.49149,0.15279
6863.41996,0.09695
6865.34843,0.05363
6867.27690,0.06080
6869.20536,0.08272
6871.13383,0.10026
6873.06230,0.10348
6874.99077,0.08098
6876.91924,0.06607
6878.84771,0.05786
6880.77618,0.04713
6882.70464,0.09290
6884.63311,0.16014
6886.56158,0.15855
6888.49005,0.10401
6890.41852,0.05995
6892.34699,0.03741
6894.27546,0.02181
6896.20393,0.01952
6898.13239,0.04403
6900.06086,0.09372
6901.98933,0.16916
6903.91780,0.22612
6905.84627,0.17968
6907.77474,0.07357
6909.70321,0.03046
6911.63167,0.06023
6913.56014,0.07558
6915.48861,0.03711
6917.41708,-0.00716
6919.34555,-0.02392
6921.27402,-0.03847
6923.20249,-0.06225
6925.13096,-0.05276
6927.05942,0.00785
6928.98789,0.05733
6930.91636,0.01958
6932.84483,-0.04332
6934.77330,-0.04831
6936.70177,-0.00898
6938.63024,0.06990
6940.55870,0.13088
6942.48717,0.08580
6944.41564,0.00306
6946.34411,0.00480
6948.27258,0.07284
6950.20105,0.10026
6952.12952,0.08482
6954.05799,0.07617
6955.98645,0.11338
6957.91492,0.15792
6959.84339,0.14381
6961.77186,0.08533
6963.70033,0.03265
6965.62880,0.02852
6967.55727,0.08914
6969.48573,0.10980
6971.41420,0.03270
6973.34267,-0.00482
6975.27114,0.02530
6977.19961,0.02816
6979.12808,-0.00324
6981.05655,-0.04173
6982.98501,-0.02416
6984.91348,0.07654
6986.84195,0.13398
6988.77042,0.09199
6990.69889,0.06599
6992.62736,0.06293
6994.55583,0.00042
6996.48430,-0.07870
6998.41276,-0.05162
7000.34123,0.04377
7002.26970,0.05366
7004.19817,-0.00889
7006.12664,-0.03038
7008.05511,-0.00702
7009.98358,-0.01598
7011.91204,-0.04612
7013.84051,-0.00685
7015.76898,0.08602
7017.69745,0.10718
7019.62592,0.06537
7021.55439,0.04212
7023.48286,0.05825
7025.41133,0.10155
7027.33979,0.11587
7029.26826,0.06401
7031.19673,0.02912
7033.12520,0.04351
7035.05367,0.02203
7036.98214,-0.03261
7038.91061,-0.05502
7040.83907,-0.03764
7042.76754,0.02263
7044.69601,0.07524
7046.62448,0.07993
7048.55295,0.07895
7050.48142,0.05800
7052.40989,0.01800
7054.33836,0.04234
7056.26682,0.12187
7058.19529,0.15970
7060.12376,0.16212
7062.05223,0.17221
7063.98070,0.11284
7065.90917,-0.02501
7067.83764,-0.09048
7069.76610,-0.03012
7071.69457,0.07720
7073.62304,0.13732
7075.55151,0.15140
7077.47998,0.11706
7079.40845,0.05262
7081.33692,0.00449
7083.26539,-0.04430
7085.19385,-0.04534
7087.12232,0.05051
7089.05079,0.09419
7090.97926,0.04836
7092.90773,0.06834
7094.83620,0.12353
7096.76467,0.07587
7098.69313,-0.03716
7100.62160,-0.05761
7102.55007,0.00190
7104.47854,0.02274
7106.40701,-0.03476
7108.33548,-0.04962
7110.26395,0.02491
7112.19242,0.07723
7114.12088,0.06794
7116.04935,0.07294
7117.97782,0.12986
7119.90629,0.20847
7121.83476,0.23929
7123.76323,0.20468
7125.69170,0.19026
7127.62016,0.22138
7129.54863,0.20342
7131.47710,0.11720
7133.40557,0.06616
7135.33404,0.09993
7137.26251,0.13539
7139.19098,0.10599
7141.11944,0.02506
7143.04791,-0.06375
7144.97638,-0.07170
7146.90485,-0.04291
7148.83332,-0.07261
7150.76179,-0.05305
7152.69026,0.01979
7154.61873,0.03406
7156.54719,0.00424
7158.47566,-0.03058
7160.40413,-0.04937
7162.33260,0.00571
7164.26107,0.09059
7166.18954,0.08776
7168.11801,0.04235
7170.04647,0.05097
7171.97494,0.05346
7173.90341,0.00905
7175.83188,0.00081
7177.76035,0.07965
7179.68882,0.15091
7181.61729,0.13743
7183.54576,0.09767
7185.47422,0.11436
7187.40269,0.13651
7189.33116,0.10539
7191.25963,0.06384
7193.18810,0.06268
7195.11657,0.02402
7197.04504,-0.05173
7198.97350,-0.06249
7200.90197,-0.01308
7202.83044,-0.00172
7204.75891,-0.05858
7206.68738,-0.03447
7208.61585,0.04098
7210.54432,0.05696
7212.47279,0.05094
7214.40125,0.08101
7216.32972,0.17283
7218.25819,0.29327
7220.18666,0.30068
7222.11513,0.19980
7224.04360,0.07378
7225.97207,-0.00550
7227.90053,-0.00203
7229.82900,-0.02031
7231.75747,-0.12621
7233.68594,-0.17426
7235.61441,-0.13007
7237.54288,-0.09774
7239.47135,-0.09795
7241.39982,-0.06803
7243.32828,-0.05416
7245.25675,-0.09840
7247.18522,-0.08581
7249.11369,0.02041
7251.04216,0.15922
7252.97063,0.23283
7254.89910,0.16811
7256.82756,0.08770
7258.75603,0.09956
7260.68450,0.17636
7262.61297,0.19337
7264.54144,0.10011
7266.46991,-0.07428
7268.39838,-0.16859
7270.32685,-0.05565
7272.25531,0.12264
7274.18378,0.10725
7276.11225,0.03230
7278.04072,0.06059
7279.96919,0.14641
7281.89766,0.13211
7283.82613,0.07708
7285.75459,0.04682
7287.68306,0.00889
7289.61153,0.01883
7291.54000,0.14696
7293.46847,0.25318
7295.39694,0.21010
7297.32541,0.08933
7299.25387,-0.02647
7301.18234,-0.14054
7303.11081,-0.23350
7305.03928,-0.22444
7306.96775,-0.09988
7308.89622,0.02852
7310.82469,0.08070
7312.75316,0.12923
7314.68162,0.21723
7316.61009,0.26183
7318.53856,0.22043
7320.46703,0.22026
7322.39550,0.22730
7324.32397,0.12780
7326.25244,-0.04115
7328.18090,-0.20661
7330.10937,-0.21432
7332.03784,-0.07189
7333.96631,0.04792
7335.89478,0.10861
7337.82325,0.11210
7339.75172,0.08402
7341.68019,0.08178
7343.60865,0.06574
7345.53712,0.04242
7347.46559,0.09456
7349.39406,0.15312
7351.32253,0.09346
7353.25100,0.06276
7355.17947,0.13618
7357.10793,0.16438
7359.03640,0.13558
7360.96487,0.17356
7362.89334,0.18837
7364.82181,0.11762
7366.75028,0.06057
7368.67875,0.03788
7370.60722,0.00217
7372.53568,-0.02738
7374.46415,-0.04987
7376.39262,-0.06127
7378.32109,0.00433
7380.24956,0.13743
7382.17803,0.21934
7384.10650,0.16993
7386.03496,-0.00656
7387.96343,-0.11896
7389.89190,-0.02055
7391.82037,0.17293
7393.74884,0.32075
7395.67731,0.31123
7397.60578,0.11997
7399.53425,-0.03300
7401.46271,-0.00761
7403.39118,0.04157
7405.31965,0.02812
7407.24812,0.09002
7409.17659,0.19305
7411.10506,0.22119
7413.03353,0.15577
7414.96199,0.02454
7416.89046,-0.07867
7418.81893,-0.06334
7420.74740,-0.03264
7422.67587,0.00192
7424.60434,0.12634
7426.53281,0.26232
7428.46128,0.27363
7430.38974,0.06921
7432.31821,-0.13023
7434.24668,-0.05707
7436.17515,0.16682
7438.10362,0.24856
7440.03209,0.15978
7441.96056,0.02962
7443.88902,-0.08861
7445.81749,-0.14593
7447.74596,-0.12479
7449.67443,-0.06795
7451.60290,-0.04243
7453.53137,-0.09682
7455.45984,-0.15834
7457.38831,-0.14954
7459.31677,-0.08541
7461.24524,-0.02706
7463.17371,0.02178
7465.10218,0.10547
7467.03065,0.17484
7468.95912,0.17044
7470.88759,0.14748
7472.81605,0.09308
7474.74452,-0.00682
7476.67299,-0.03524
7478.60146,0.02002
7480.52993,-0.03737
7482.45840,-0.19509
7484.38687,-0.17127
7486.31533,0.00839
7488.24380,0.11162
7490.17227,0.08977
7492.10074,0.07034
7494.02921,0.06667
7495.95768,0.05022
7497.88615,0.08393
