399.19301,0.52762
401.12148,0.31726
403.04995,0.09934
404.97842,0.03835
406.90689,0.08713
408.83536,0.10574
410.76382,0.08574
412.69229,0.09859
414.62076,0.13524
416.54923,0.16458
418.47770,0.17747
420.40617,0.20203
422.33464,0.22175
424.26311,0.20877
426.19157,0.17472
428.12004,0.11279
430.04851,0.01544
431.97698,-0.01349
433.90545,0.06385
435.83392,0.11758
437.76239,0.12697
439.69085,0.12530
441.61932,0.08926
443.54779,0.02725
445.47626,0.02659
447.40473,0.07978
449.33320,0.09931
451.26167,0.08948
453.19013,0.07638
455.11860,0.05094
457.04707,0.02261
458.97554,0.01704
460.90401,0.02458
462.83248,0.01786
464.76095,0.02514
466.68942,0.05779
468.61788,0.08359
470.54635,0.08934
472.47482,0.04717
474.40329,-0.00854
476.33176,0.04469
478.26023,0.10333
480.18870,0.11198
482.11716,0.10202
484.04563,0.09986
485.97410,0.10292
487.90257,0.08912
489.83104,0.08535
491.75951,0.13567
493.68798,0.17358
495.61645,0.12796
497.54491,0.07075
499.47338,0.07850
501.40185,0.10453
503.33032,0.12233
505.25879,0.13814
507.18726,0.10617
509.11573,0.04362
511.04419,0.02863
512.97266,0.04985
514.90113,0.04927
516.82960,0.02777
518.75807,0.04641
520.68654,0.09556
522.61501,0.11572
524.54348,0.12034
526.47194,0.13910
528.40041,0.15595
530.32888,0.15677
532.25735,0.14097
534.18582,0.12661
536.11429,0.11000
538.04276,0.08436
539.97122,0.07311
541.89969,0.06948
543.82816,0.04429
545.75663,0.00998
547.68510,0.00753
549.61357,0.02787
551.54204,0.01777
553.47051,-0.00741
555.39897,0.01819
557.32744,0.07245
559.25591,0.09216
561.18438,0.09177
563.11285,0.09732
565.04132,0.08896
566.96979,0.06428
568.89825,0.06584
570.82672,0.08350
572.75519,0.07816
574.68366,0.06270
576.61213,0.05285
578.54060,0.04744
580.46907,0.05199
582.39754,0.07058
584.32600,0.08853
586.25447,0.08893
588.18294,0.08499
590.11141,0.09305
592.03988,0.10470
593.96835,0.10339
595.89682,0.08761
597.82528,0.08189
599.75375,0.09624
601.68222,0.10749
603.61069,0.09840
605.53916,0.08249
607.46763,0.09039
609.39610,0.10993
611.32456,0.10892
613.25303,0.09585
615.18150,0.08198
617.10997,0.07100
619.03844,0.07051
620.96691,0.06970
622.89538,0.06582
624.82385,0.07829
626.75231,0.10420
628.68078,0.11434
630.60925,0.10660
632.53772,0.10235
634.46619,0.10034
636.39466,0.09172
638.32313,0.08411
640.25159,0.07948
642.18006,0.08045
644.10853,0.09126
646.03700,0.09968
647.96547,0.10307
649.89394,0.10452
651.82241,0.09862
653.75088,0.08901
655.67934,0.08856
657.60781,0.09605
659.53628,0.09351
661.46475,0.08761
663.39322,0.09373
665.32169,0.10142
667.25016,0.10097
669.17862,0.11069
671.10709,0.13443
673.03556,0.14270
674.96403,0.13180
676.89250,0.11899
678.82097,0.10894
680.74944,0.09494
682.67791,0.08344
684.60637,0.08368
686.53484,0.09629
688.46331,0.10434
690.39178,0.09759
692.32025,0.09128
694.24872,0.09436
696.17719,0.10043
698.10565,0.10168
700.03412,0.09730
701.96259,0.09790
703.89106,0.10948
705.81953,0.11911
707.74800,0.11891
709.67647,0.11645
711.60494,0.11535
713.53340,0.11175
715.46187,0.10525
717.39034,0.10288
719.31881,0.10470
721.24728,0.10800
723.17575,0.11357
725.10422,0.11607
727.03268,0.11030
728.96115,0.10297
730.88962,0.10954
732.81809,0.12393
734.74656,0.12425
736.67503,0.11503
738.60350,0.11131
740.53197,0.10970
742.46043,0.10540
744.38890,0.10385
746.31737,0.10235
748.24584,0.09612
750.17431,0.09440
752.10278,0.10259
754.03125,0.11225
755.95971,0.11546
757.88818,0.11343
759.81665,0.10998
761.74512,0.10604
763.67359,0.10441
765.60206,0.10647
767.53053,0.11157
769.45900,0.11720
771.38746,0.11320
773.31593,0.09955
775.24440,0.08962
777.17287,0.09078
779.10134,0.10178
781.02981,0.11450
782.95828,0.11883
784.88674,0.11414
786.81521,0.11100
788.74368,0.11580
790.67215,0.12253
792.60062,0.12635
794.52909,0.12884
796.45756,0.12815
798.38602,0.12354
800.31449,0.12123
802.24296,0.12043
804.17143,0.11600
806.09990,0.11301
808.02837,0.11419
809.95684,0.10990
811.88531,0.09774
813.81377,0.08523
815.74224,0.08010
817.67071,0.08812
819.59918,0.10378
821.52765,0.11737
823.45612,0.12402
825.38459,0.12561
827.31305,0.12701
829.24152,0.12505
831.16999,0.12058
833.09846,0.11998
835.02693,0.11938
836.95540,0.11659
838.88387,0.11734
840.81234,0.12028
842.74080,0.12341
844.66927,0.12859
846.59774,0.13129
848.52621,0.12441
850.45468,0.11574
852.38315,0.11564
854.31162,0.11701
856.24008,0.11747
858.16855,0.12004
860.09702,0.11941
862.02549,0.11374
863.95396,0.10929
865.88243,0.10961
867.81090,0.10796
869.73937,0.10223
871.66783,0.10047
873.59630,0.10692
875.52477,0.11438
877.45324,0.11524
879.38171,0.11508
881.31018,0.11606
883.23865,0.11396
885.16711,0.11534
887.09558,0.12445
889.02405,0.13238
890.95252,0.13562
892.88099,0.13735
894.80946,0.13626
896.73793,0.13149
898.66640,0.12639
900.59486,0.12486
902.52333,0.12715
904.45180,0.12894
906.38027,0.12601
908.30874,0.11847
910.23721,0.11168
912.16568,0.11337
914.09414,0.12329
916.02261,0.13127
917.95108,0.13452
919.87955,0.13652
921.80802,0.13699
923.73649,0.13715
925.66496,0.13608
927.59343,0.13123
929.52189,0.12653
931.45036,0.12478
933.37883,0.12559
935.30730,0.13251
937.23577,0.14191
939.16424,0.14152
941.09271,0.12947
943.02117,0.11745
944.94964,0.11743
946.87811,0.12448
948.80658,0.12592
950.73505,0.12395
952.66352,0.12438
954.59199,0.12720
956.52045,0.12924
958.44892,0.12706
960.37739,0.12198
962.30586,0.11780
964.23433,0.11962
966.16280,0.12668
968.09127,0.13154
970.01974,0.13201
971.94820,0.12977
973.87667,0.12664
975.80514,0.12636
977.73361,0.13059
979.66208,0.13627
981.59055,0.14001
983.51902,0.13927
985.44748,0.13505
987.37595,0.13272
989.30442,0.13248
991.23289,0.13337
993.16136,0.13759
995.08983,0.14016
997.01830,0.13806
998.94677,0.13589
1000.87523,0.13323
1002.80370,0.13307
1004.73217,0.13760
1006.66064,0.13680
1008.58911,0.13104
1010.51758,0.13083
1012.44605,0.13712
1014.37451,0.14447
1016.30298,0.14696
1018.23145,0.14133
1020.15992,0.13046
1022.08839,0.12320
1024.01686,0.12467
1025.94533,0.12861
1027.87380,0.12782
1029.80226,0.12338
1031.73073,0.12164
1033.65920,0.12822
1035.58767,0.13944
1037.51614,0.14472
1039.44461,0.14470
1041.37308,0.14484
1043.30154,0.14249
1045.23001,0.13837
1047.15848,0.13918
1049.08695,0.14286
1051.01542,0.14460
1052.94389,0.14898
1054.87236,0.15351
1056.80083,0.15385
1058.72929,0.15559
1060.65776,0.15814
1062.58623,0.15952
1064.51470,0.16124
1066.44317,0.16055
1068.37164,0.15798
1070.30011,0.15811
1072.22857,0.16154
1074.15704,0.16507
1076.08551,0.16535
1078.01398,0.16003
1079.94245,0.15263
1081.87092,0.15144
1083.79939,0.15327
1085.72786,0.15172
1087.65632,0.15181
1089.58479,0.15434
1091.51326,0.15604
1093.44173,0.15594
1095.37020,0.15148
1097.29867,0.14707
1099.22714,0.14691
1101.15560,0.14725
1103.08407,0.14946
1105.01254,0.15623
1106.94101,0.16023
1108.86948,0.15501
1110.79795,0.14674
1112.72642,0.14335
1114.65489,0.14394
1116.58335,0.14580
1118.51182,0.14652
1120.44029,0.14623
1122.36876,0.14875
1124.29723,0.15147
1126.22570,0.14841
1128.15417,0.14111
1130.08263,0.13742
1132.01110,0.14182
1133.93957,0.14923
1135.86804,0.15145
1137.79651,0.14926
1139.72498,0.14817
1141.65345,0.14610
1143.58191,0.14199
1145.51038,0.14242
1147.43885,0.14878
1149.36732,0.15522
1151.29579,0.15897
1153.22426,0.15871
1155.15273,0.15276
1157.08120,0.14783
1159.00966,0.15067
1160.93813,0.15652
1162.86660,0.16061
1164.79507,0.16388
1166.72354,0.16438
1168.65201,0.16093
1170.58048,0.15927
1172.50894,0.16182
1174.43741,0.16323
1176.36588,0.16101
1178.29435,0.15954
1180.22282,0.16020
1182.15129,0.15914
1184.07976,0.15687
1186.00823,0.15509
1187.93669,0.15331
1189.86516,0.15439
1191.79363,0.15765
1193.72210,0.15801
1195.65057,0.15521
1197.57904,0.15122
1199.50751,0.14809
1201.43597,0.14786
1203.36444,0.15142
1205.29291,0.15619
1207.22138,0.15586
1209.14985,0.15107
1211.07832,0.14973
1213.00679,0.15524
1214.93526,0.15942
1216.86372,0.15444
1218.79219,0.14914
1220.72066,0.15275
1222.64913,0.16008
1224.57760,0.16304
1226.50607,0.16104
1228.43454,0.15914
1230.36300,0.16056
1232.29147,0.16283
1234.21994,0.16041
1236.14841,0.15463
1238.07688,0.15312
1240.00535,0.15648
1241.93382,0.15859
1243.86229,0.15629
1245.79075,0.15178
1247.71922,0.14925
1249.64769,0.15061
1251.57616,0.15316
1253.50463,0.15486
1255.43310,0.15786
1257.36157,0.15991
1259.29003,0.15589
1261.21850,0.14971
1263.14697,0.14952
1265.07544,0.15406
1267.00391,0.15533
1268.93238,0.15316
1270.86085,0.15358
1272.78932,0.15494
1274.71778,0.15328
1276.64625,0.15148
1278.57472,0.15195
1280.50319,0.15146
1282.43166,0.15054
1284.36013,0.15296
1286.28860,0.15554
1288.21706,0.15632
1290.14553,0.15703
1292.07400,0.15638
1294.00247,0.15413
1295.93094,0.15300
1297.85941,0.15383
1299.78788,0.14969
1301.71634,0.13475
1303.64481,0.11997
1305.57328,0.12377
1307.50175,0.14446
1309.43022,0.16099
1311.35869,0.16518
1313.28716,0.16542
1315.21563,0.16636
1317.14409,0.16759
1319.07256,0.16753
1321.00103,0.16557
1322.92950,0.16392
1324.85797,0.16006
1326.78644,0.15479
1328.71491,0.15427
1330.64337,0.15399
1332.57184,0.15219
1334.50031,0.15290
1336.42878,0.15491
1338.35725,0.15760
1340.28572,0.15479
1342.21419,0.14842
1344.14266,0.14740
1346.07112,0.14861
1347.99959,0.15126
1349.92806,0.15563
1351.85653,0.15756
1353.78500,0.15710
1355.71347,0.15791
1357.64194,0.16042
1359.57040,0.16133
1361.49887,0.16241
1363.42734,0.16570
1365.35581,0.16927
1367.28428,0.17160
1369.21275,0.17007
1371.14122,0.16788
1373.06969,0.16976
1374.99815,0.17354
1376.92662,0.17595
1378.85509,0.17765
1380.78356,0.17717
1382.71203,0.17383
1384.64050,0.17292
1386.56897,0.17460
1388.49743,0.17250
1390.42590,0.16989
1392.35437,0.17256
1394.28284,0.17740
1396.21131,0.17853
1398.13978,0.17686
1400.06825,0.17472
1401.99672,0.17382
1403.92518,0.17403
1405.85365,0.17287
1407.78212,0.17276
1409.71059,0.17780
1411.63906,0.18472
1413.56753,0.18892
1415.49600,0.19222
1417.42446,0.19524
1419.35293,0.19149
1421.28140,0.18339
1423.20987,0.17931
1425.13834,0.17750
1427.06681,0.17705
1428.99528,0.17923
1430.92375,0.18072
1432.85221,0.17969
1434.78068,0.18013
1436.70915,0.18291
1438.63762,0.18228
1440.56609,0.17838
1442.49456,0.17606
1444.42303,0.17875
1446.35149,0.18393
1448.27996,0.18328
1450.20843,0.17771
1452.13690,0.17697
1454.06537,0.18364
1455.99384,0.19340
1457.92231,0.19415
1459.85077,0.18757
1461.77924,0.18611
1463.70771,0.18943
1465.63618,0.19116
1467.56465,0.18907
1469.49312,0.19032
1471.42159,0.19527
1473.35006,0.19469
1475.27852,0.18899
1477.20699,0.18648
1479.13546,0.18421
1481.06393,0.17983
1482.99240,0.17719
1484.92087,0.17952
1486.84934,0.18436
1488.77780,0.18804
1490.70627,0.18687
1492.63474,0.18267
1494.56321,0.18225
1496.49168,0.18715
1498.42015,0.18956
1500.34862,0.18820
1502.27709,0.19217
1504.20555,0.20362
1506.13402,0.21602
1508.06249,0.20891
1509.99096,0.19788
1511.91943,0.19508
1513.84790,0.19749
1515.77637,0.20485
1517.70483,0.21234
1519.63330,0.21703
1521.56177,0.21890
1523.49024,0.21035
1525.41871,0.20017
1527.34718,0.19270
1529.27565,0.18883
1531.20412,0.19218
1533.13258,0.19598
1535.06105,0.19233
1536.98952,0.19296
1538.91799,0.20675
1540.84646,0.22161
1542.77493,0.21227
1544.70340,0.19765
1546.63186,0.19149
1548.56033,0.19602
1550.48880,0.20360
1552.41727,0.20617
1554.34574,0.20787
1556.27421,0.21325
1558.20268,0.21860
1560.13115,0.21005
1562.05961,0.19951
1563.98808,0.19457
1565.91655,0.19529
1567.84502,0.20116
1569.77349,0.20374
1571.70196,0.19928
1573.63043,0.19906
1575.55889,0.20422
1577.48736,0.20382
1579.41583,0.19924
1581.34430,0.19631
1583.27277,0.19206
1585.20124,0.18673
1587.12971,0.18493
1589.05818,0.18670
1590.98664,0.18800
1592.91511,0.18895
1594.84358,0.19197
1596.77205,0.19336
1598.70052,0.18991
1600.62899,0.18745
1602.55746,0.18978
1604.48592,0.19060
1606.41439,0.18788
1608.34286,0.18692
1610.27133,0.18758
1612.19980,0.18794
1614.12827,0.19070
1616.05674,0.19720
1617.98521,0.19923
1619.91367,0.19688
1621.84214,0.19802
1623.77061,0.19887
1625.69908,0.19673
1627.62755,0.19681
1629.55602,0.19755
1631.48449,0.19732
1633.41295,0.19927
1635.34142,0.20514
1637.26989,0.20697
1639.19836,0.20356
1641.12683,0.20177
1643.05530,0.20302
1644.98377,0.20699
1646.91223,0.21010
1648.84070,0.20897
1650.76917,0.21049
1652.69764,0.21683
1654.62611,0.21466
1656.55458,0.20636
1658.48305,0.20275
1660.41152,0.20505
1662.33998,0.20633
1664.26845,0.20012
1666.19692,0.19821
1668.12539,0.20726
1670.05386,0.21494
1671.98233,0.20954
1673.91080,0.20317
1675.83926,0.20016
1677.76773,0.20021
1679.69620,0.20317
1681.62467,0.20853
1683.55314,0.21589
1685.48161,0.21575
1687.41008,0.20883
1689.33855,0.20392
1691.26701,0.20206
1693.19548,0.20391
1695.12395,0.21144
1697.05242,0.22060
1698.98089,0.22182
1700.90936,0.21561
1702.83783,0.21206
1704.76629,0.21142
1706.69476,0.20483
1708.62323,0.19502
1710.55170,0.19089
1712.48017,0.19423
1714.40864,0.20429
1716.33711,0.21375
1718.26558,0.20866
1720.19404,0.19898
1722.12251,0.19468
1724.05098,0.19243
1725.97945,0.19069
1727.90792,0.19251
1729.83639,0.19838
1731.76486,0.20385
1733.69332,0.20369
1735.62179,0.19858
1737.55026,0.19745
1739.47873,0.19942
1741.40720,0.20068
1743.33567,0.20078
1745.26414,0.20050
1747.19261,0.20156
1749.12107,0.20364
1751.04954,0.19970
1752.97801,0.19261
1754.90648,0.19246
1756.83495,0.19741
1758.76342,0.19953
1760.69189,0.19925
1762.62035,0.19869
1764.54882,0.19838
1766.47729,0.19932
1768.40576,0.19988
1770.33423,0.20140
1772.26270,0.20191
1774.19117,0.19632
1776.11964,0.19156
1778.04810,0.19089
1779.97657,0.19241
1781.90504,0.19378
1783.83351,0.19456
1785.76198,0.19513
1787.69045,0.19541
1789.61892,0.19681
1791.54738,0.19892
1793.47585,0.19717
1795.40432,0.19302
1797.33279,0.19138
1799.26126,0.19270
1801.18973,0.19397
1803.11820,0.19291
1805.04666,0.19250
1806.97513,0.19403
1808.90360,0.19532
1810.83207,0.19503
1812.76054,0.19260
1814.68901,0.18888
1816.61748,0.18656
1818.54595,0.18915
1820.47441,0.19532
1822.40288,0.19844
1824.33135,0.19576
1826.25982,0.19299
1828.18829,0.19592
1830.11676,0.19847
1832.04523,0.19432
1833.97369,0.19078
1835.90216,0.19198
1837.83063,0.19453
1839.75910,0.19568
1841.68757,0.19705
1843.61604,0.19838
1845.54451,0.19617
1847.47298,0.19343
1849.40144,0.19299
1851.32991,0.19269
1853.25838,0.19131
1855.18685,0.19024
1857.11532,0.19107
1859.04379,0.19258
1860.97226,0.19210
1862.90072,0.19032
1864.82919,0.19086
1866.75766,0.19529
1868.68613,0.19897
1870.61460,0.19607
1872.54307,0.19177
1874.47154,0.19033
1876.40001,0.18998
1878.32847,0.19025
1880.25694,0.19177
1882.18541,0.19229
1884.11388,0.19013
1886.04235,0.18746
1887.97082,0.18683
1889.89929,0.18747
1891.82775,0.18727
1893.75622,0.18688
1895.68469,0.18792
1897.61316,0.18927
1899.54163,0.18996
1901.47010,0.19086
1903.39857,0.19073
1905.32704,0.18944
1907.25550,0.19048
1909.18397,0.19305
1911.11244,0.19307
1913.04091,0.19167
1914.96938,0.19192
1916.89785,0.19287
1918.82632,0.19203
1920.75478,0.19228
1922.68325,0.19486
1924.61172,0.19474
1926.54019,0.19260
1928.46866,0.19221
1930.39713,0.19232
1932.32560,0.19250
1934.25407,0.19337
1936.18253,0.19328
1938.11100,0.19257
1940.03947,0.19368
1941.96794,0.19553
1943.89641,0.19438
1945.82488,0.19167
1947.75335,0.19034
1949.68181,0.18981
1951.61028,0.19054
1953.53875,0.19310
1955.46722,0.19582
1957.39569,0.19702
1959.32416,0.19600
1961.25263,0.19333
1963.18110,0.19197
1965.10956,0.19327
1967.03803,0.19389
1968.96650,0.19330
1970.89497,0.19390
1972.82344,0.19435
1974.75191,0.19326
1976.68038,0.19316
1978.60884,0.19460
1980.53731,0.19440
1982.46578,0.19356
1984.39425,0.19431
1986.32272,0.19556
1988.25119,0.19568
1990.17966,0.19367
1992.10812,0.19043
1994.03659,0.18844
1995.96506,0.18926
1997.89353,0.19126
1999.82200,0.19212
2001.75047,0.19260
2003.67894,0.19325
2005.60741,0.19334
2007.53587,0.19459
2009.46434,0.19736
2011.39281,0.19859
2013.32128,0.19796
2015.24975,0.19708
2017.17822,0.19635
2019.10669,0.19597
2021.03515,0.19608
2022.96362,0.19582
2024.89209,0.19402
2026.82056,0.19173
2028.74903,0.19131
2030.67750,0.19293
2032.60597,0.19426
2034.53444,0.19347
2036.46290,0.19236
2038.39137,0.19347
2040.31984,0.19527
2042.24831,0.19533
2044.17678,0.19324
2046.10525,0.19072
2048.03372,0.19062
2049.96218,0.19172
2051.89065,0.19247
2053.81912,0.19419
2055.74759,0.19568
2057.67606,0.19480
2059.60453,0.19270
2061.53300,0.19250
2063.46147,0.19479
2065.38993,0.19760
2067.31840,0.19864
2069.24687,0.19649
2071.17534,0.19266
2073.10381,0.19141
2075.03228,0.19443
2076.96075,0.19811
2078.88921,0.19958
2080.81768,0.19827
2082.74615,0.19489
2084.67462,0.19302
2086.60309,0.19441
2088.53156,0.19557
2090.46003,0.19381
2092.38850,0.19234
2094.31696,0.19364
2096.24543,0.19495
2098.17390,0.19454
2100.10237,0.19390
2102.03084,0.19374
2103.95931,0.19398
2105.88778,0.19553
2107.81624,0.19798
2109.74471,0.20015
2111.67318,0.20104
2113.60165,0.19927
2115.53012,0.19652
2117.45859,0.19560
2119.38706,0.19586
2121.31553,0.19593
2123.24399,0.19495
2125.17246,0.19407
2127.10093,0.19563
2129.02940,0.19866
2130.95787,0.20014
2132.88634,0.19811
2134.81481,0.19681
2136.74327,0.19915
2138.67174,0.19944
2140.60021,0.19757
2142.52868,0.19672
2144.45715,0.19562
2146.38562,0.19573
2148.31409,0.19683
2150.24255,0.19548
2152.17102,0.19299
2154.09949,0.19310
2156.02796,0.19553
2157.95643,0.19686
2159.88490,0.19610
2161.81337,0.19508
2163.74184,0.19556
2165.67030,0.19838
2167.59877,0.20135
2169.52724,0.20197
2171.45571,0.20051
2173.38418,0.19822
2175.31265,0.19737
2177.24112,0.19788
2179.16958,0.19786
2181.09805,0.19827
2183.02652,0.20019
2184.95499,0.20163
2186.88346,0.20102
2188.81193,0.20041
2190.74040,0.20028
2192.66887,0.19871
2194.59733,0.19717
2196.52580,0.19732
2198.45427,0.19744
2200.38274,0.19665
2202.31121,0.19581
2204.23968,0.19461
2206.16815,0.19376
2208.09661,0.19474
2210.02508,0.19616
2211.95355,0.19637
2213.88202,0.19594
2215.81049,0.19538
2217.73896,0.19533
2219.66743,0.19603
2221.59590,0.19675
2223.52436,0.19788
2225.45283,0.19815
2227.38130,0.19669
2229.30977,0.19607
2231.23824,0.19667
2233.16671,0.19689
2235.09518,0.19672
2237.02364,0.19693
2238.95211,0.19798
2240.88058,0.19940
2242.80905,0.20035
2244.73752,0.20025
2246.66599,0.19869
2248.59446,0.19740
2250.52293,0.19850
2252.45139,0.20052
2254.37986,0.20085
2256.30833,0.19843
2258.23680,0.19555
2260.16527,0.19512
2262.09374,0.19559
2264.02221,0.19469
2265.95067,0.19334
2267.87914,0.19356
2269.80761,0.19549
2271.73608,0.19814
2273.66455,0.20060
2275.59302,0.20082
2277.52149,0.19906
2279.44996,0.19743
2281.37842,0.19593
2283.30689,0.19537
2285.23536,0.19659
2287.16383,0.19780
2289.09230,0.19834
2291.02077,0.19782
2292.94924,0.19513
2294.87770,0.19215
2296.80617,0.19051
2298.73464,0.18937
2300.66311,0.18814
2302.59158,0.18596
2304.52005,0.18344
2306.44852,0.18320
2308.37699,0.18354
2310.30545,0.18058
2312.23392,0.17728
2314.16239,0.17666
2316.09086,0.17675
2318.01933,0.17634
2319.94780,0.17316
2321.87627,0.16754
2323.80473,0.16329
2325.73320,0.15884
2327.66167,0.15492
2329.59014,0.15748
2331.51861,0.16649
2333.44708,0.17308
2335.37555,0.17172
2337.30401,0.16506
2339.23248,0.15667
2341.16095,0.15288
2343.08942,0.15602
2345.01789,0.16013
2346.94636,0.16536
2348.87483,0.17136
2350.80330,0.17373
2352.73176,0.16918
2354.66023,0.15803
2356.58870,0.14647
2358.51717,0.14539
2360.44564,0.15362
2362.37411,0.15980
2364.30258,0.16039
2366.23104,0.15878
2368.15951,0.16320
2370.08798,0.17119
2372.01645,0.17729
2373.94492,0.18176
2375.87339,0.18358
2377.80186,0.18368
2379.73033,0.18381
2381.65879,0.18551
2383.58726,0.19055
2385.51573,0.19591
2387.44420,0.19762
2389.37267,0.19736
2391.30114,0.19664
2393.22961,0.19437
2395.15807,0.19249
2397.08654,0.19344
2399.01501,0.19558
2400.94348,0.19711
2402.87195,0.19897
2404.80042,0.20048
2406.72889,0.19999
2408.65736,0.19926
2410.58582,0.19910
2412.51429,0.19865
2414.44276,0.19951
2416.37123,0.20166
2418.29970,0.20210
2420.22817,0.20040
2422.15664,0.19898
2424.08510,0.19949
2426.01357,0.20056
2427.94204,0.19981
2429.87051,0.19828
2431.79898,0.19835
2433.72745,0.19907
2435.65592,0.19816
2437.58439,0.19745
2439.51285,0.20012
2441.44132,0.20329
2443.36979,0.20151
2445.29826,0.19637
2447.22673,0.19368
2449.15520,0.19456
2451.08367,0.19636
2453.01213,0.19784
2454.94060,0.19913
2456.86907,0.20056
2458.79754,0.20220
2460.72601,0.20296
2462.65448,0.20157
2464.58295,0.19937
2466.51142,0.19926
2468.43988,0.20037
2470.36835,0.20095
2472.29682,0.20225
2474.22529,0.20311
2476.15376,0.20242
2478.08223,0.20159
2480.01070,0.20136
2481.93916,0.20139
2483.86763,0.19978
2485.79610,0.19776
2487.72457,0.19901
2489.65304,0.20272
2491.58151,0.20490
2493.50998,0.20408
2495.43844,0.20239
2497.36691,0.20147
2499.29538,0.20128
2501.22385,0.20178
2503.15232,0.20155
2505.08079,0.19933
2507.00926,0.19818
2508.93773,0.20004
2510.86619,0.20294
2512.79466,0.20501
2514.72313,0.20414
2516.65160,0.20122
2518.58007,0.19993
2520.50854,0.20079
2522.43701,0.20160
2524.36547,0.20048
2526.29394,0.19774
2528.22241,0.19738
2530.15088,0.20035
2532.07935,0.20181
2534.00782,0.20178
2535.93629,0.20267
2537.86476,0.20349
2539.79322,0.20437
2541.72169,0.20398
2543.65016,0.20185
2545.57863,0.20166
2547.50710,0.20318
2549.43557,0.20339
2551.36404,0.20301
2553.29250,0.20330
2555.22097,0.20447
2557.14944,0.20567
2559.07791,0.20445
2561.00638,0.20187
2562.93485,0.20161
2564.86332,0.20354
2566.79179,0.20463
2568.72025,0.20517
2570.64872,0.20662
2572.57719,0.20670
2574.50566,0.20401
2576.43413,0.20137
2578.36260,0.20140
2580.29107,0.20269
2582.21953,0.20334
2584.14800,0.20391
2586.07647,0.20481
2588.00494,0.20659
2589.93341,0.20887
2591.86188,0.20980
2593.79035,0.20897
2595.71882,0.20669
2597.64728,0.20323
2599.57575,0.20040
2601.50422,0.20010
2603.43269,0.20228
2605.36116,0.20567
2607.28963,0.20861
2609.21810,0.21007
2611.14656,0.20990
2613.07503,0.20815
2615.00350,0.20589
2616.93197,0.20477
2618.86044,0.20462
2620.78891,0.20477
2622.71738,0.20562
2624.64585,0.20663
2626.57431,0.20718
2628.50278,0.20804
2630.43125,0.20880
2632.35972,0.20823
2634.28819,0.20593
2636.21666,0.20241
2638.14513,0.20132
2640.07359,0.20523
2642.00206,0.20987
2643.93053,0.21040
2645.85900,0.20759
2647.78747,0.20517
2649.71594,0.20572
2651.64441,0.20781
2653.57288,0.20792
2655.50134,0.20730
2657.42981,0.20910
2659.35828,0.21164
2661.28675,0.21306
2663.21522,0.21217
2665.14369,0.20920
2667.07216,0.20857
2669.00062,0.21024
2670.92909,0.20978
2672.85756,0.20906
2674.78603,0.20993
2676.71450,0.20981
2678.64297,0.20952
2680.57144,0.20929
2682.49990,0.20866
2684.42837,0.20881
2686.35684,0.20687
2688.28531,0.20321
2690.21378,0.20295
2692.14225,0.20504
2694.07072,0.20640
2695.99919,0.20775
2697.92765,0.20940
2699.85612,0.21035
2701.78459,0.20999
2703.71306,0.20907
2705.64153,0.20826
2707.57000,0.20716
2709.49847,0.20781
2711.42693,0.21056
2713.35540,0.21131
2715.28387,0.20934
2717.21234,0.20820
2719.14081,0.21026
2721.06928,0.21357
2722.99775,0.21366
2724.92622,0.21139
2726.85468,0.21170
2728.78315,0.21454
2730.71162,0.21556
2732.64009,0.21323
2734.56856,0.21010
2736.49703,0.20919
2738.42550,0.21084
2740.35396,0.21256
2742.28243,0.21351
2744.21090,0.21409
2746.13937,0.21319
2748.06784,0.21221
2749.99631,0.21359
2751.92478,0.21605
2753.85325,0.21616
2755.78171,0.21412
2757.71018,0.21413
2759.63865,0.21542
2761.56712,0.21411
2763.49559,0.21243
2765.42406,0.21339
2767.35253,0.21625
2769.28099,0.22016
2771.20946,0.22353
2773.13793,0.22378
2775.06640,0.22182
2776.99487,0.22105
2778.92334,0.22036
2780.85181,0.21773
2782.78028,0.21672
2784.70874,0.21819
2786.63721,0.21819
2788.56568,0.21732
2790.49415,0.21789
2792.42262,0.21777
2794.35109,0.21713
2796.27956,0.21925
2798.20802,0.22163
2800.13649,0.22009
2802.06496,0.21731
2803.99343,0.21739
2805.92190,0.21954
2807.85037,0.22082
2809.77884,0.22082
2811.70731,0.22176
2813.63577,0.22399
2815.56424,0.22487
2817.49271,0.22398
2819.42118,0.22306
2821.34965,0.22082
2823.27812,0.21675
2825.20659,0.21483
2827.13505,0.21601
2829.06352,0.21880
2830.99199,0.22271
2832.92046,0.22495
2834.84893,0.22447
2836.77740,0.22405
2838.70587,0.22414
2840.63433,0.22388
2842.56280,0.22493
2844.49127,0.22500
2846.41974,0.22112
2848.34821,0.21766
2850.27668,0.21692
2852.20515,0.21632
2854.13362,0.21607
2856.06208,0.21740
2857.99055,0.21817
2859.91902,0.21863
2861.84749,0.22165
2863.77596,0.22362
2865.70443,0.22202
2867.63290,0.22054
2869.56136,0.21931
2871.48983,0.21714
2873.41830,0.21673
2875.34677,0.21746
2877.27524,0.21643
2879.20371,0.21562
2881.13218,0.21524
2883.06065,0.21341
2884.98911,0.21509
2886.91758,0.22158
2888.84605,0.22301
2890.77452,0.21850
2892.70299,0.21688
2894.63146,0.21758
2896.55993,0.21762
2898.48839,0.21883
2900.41686,0.22097
2902.34533,0.22219
2904.27380,0.22138
2906.20227,0.21977
2908.13074,0.21911
2910.05921,0.21825
2911.98768,0.21748
2913.91614,0.21653
2915.84461,0.21359
2917.77308,0.21201
2919.70155,0.21333
2921.63002,0.21409
2923.55849,0.21150
2925.48696,0.20831
2927.41542,0.21293
2929.34389,0.22175
2931.27236,0.22251
2933.20083,0.21675
2935.12930,0.21063
2937.05777,0.20586
2938.98624,0.20764
2940.91471,0.21324
2942.84317,0.21491
2944.77164,0.21148
2946.70011,0.20463
2948.62858,0.20522
2950.55705,0.21477
2952.48552,0.21952
2954.41399,0.21595
2956.34245,0.20515
2958.27092,0.19602
2960.19939,0.20176
2962.12786,0.21598
2964.05633,0.22378
2965.98480,0.21897
2967.91327,0.21035
2969.84174,0.21255
2971.77020,0.22143
2973.69867,0.22531
2975.62714,0.22171
2977.55561,0.21327
2979.48408,0.21066
2981.41255,0.21714
2983.34102,0.22244
2985.26948,0.22168
2987.19795,0.21625
2989.12642,0.21337
2991.05489,0.22081
2992.98336,0.23139
2994.91183,0.23408
2996.84030,0.22915
2998.76877,0.22307
3000.69723,0.22146
3002.62570,0.22255
3004.55417,0.22130
3006.48264,0.21789
3008.41111,0.21454
3010.33958,0.20795
3012.26805,0.18735
3014.19651,0.14771
3016.12498,0.11297
3018.05345,0.12497
3019.98192,0.17728
3021.91039,0.21715
3023.83886,0.22728
3025.76733,0.22506
3027.69579,0.22128
3029.62426,0.22052
3031.55273,0.22284
3033.48120,0.22501
3035.40967,0.22506
3037.33814,0.22184
3039.26661,0.21984
3041.19508,0.22338
3043.12354,0.22765
3045.05201,0.22708
3046.98048,0.22224
3048.90895,0.22002
3050.83742,0.22306
3052.76589,0.22482
3054.69436,0.21976
3056.62282,0.21136
3058.55129,0.21124
3060.47976,0.21847
3062.40823,0.22139
3064.33670,0.21649
3066.26517,0.20821
3068.19364,0.20947
3070.12211,0.22192
3072.05057,0.22936
3073.97904,0.22385
3075.90751,0.21364
3077.83598,0.21142
3079.76445,0.21586
3081.69292,0.21641
3083.62139,0.20713
3085.54985,0.19560
3087.47832,0.19909
3089.40679,0.21271
3091.33526,0.21586
3093.26373,0.20572
3095.19220,0.20141
3097.12067,0.21313
3099.04914,0.22425
3100.97760,0.22276
3102.90607,0.21227
3104.83454,0.20699
3106.76301,0.21644
3108.69148,0.22732
3110.61995,0.22547
3112.54842,0.21774
3114.47688,0.21902
3116.40535,0.22603
3118.33382,0.22527
3120.26229,0.21509
3122.19076,0.20763
3124.11923,0.21270
3126.04770,0.22273
3127.97617,0.22794
3129.90463,0.22470
3131.83310,0.22033
3133.76157,0.22663
3135.69004,0.23462
3137.61851,0.23094
3139.54698,0.22513
3141.47545,0.22971
3143.40391,0.23546
3145.33238,0.23236
3147.26085,0.22658
3149.18932,0.22682
3151.11779,0.23194
3153.04626,0.23391
3154.97473,0.23120
3156.90320,0.22881
3158.83166,0.22961
3160.76013,0.23151
3162.68860,0.23197
3164.61707,0.23349
3166.54554,0.23627
3168.47401,0.23591
3170.40248,0.23298
3172.33094,0.23047
3174.25941,0.22899
3176.18788,0.22958
3178.11635,0.23247
3180.04482,0.23514
3181.97329,0.23430
3183.90176,0.23181
3185.83022,0.23149
3187.75869,0.23156
3189.68716,0.23018
3191.61563,0.22877
3193.54410,0.23050
3195.47257,0.23603
3197.40104,0.23977
3199.32951,0.23758
3201.25797,0.23306
3203.18644,0.23129
3205.11491,0.23131
3207.04338,0.23093
3208.97185,0.22969
3210.90032,0.22655
3212.82879,0.22635
3214.75725,0.23149
3216.68572,0.23315
3218.61419,0.22838
3220.54266,0.22593
3222.47113,0.22923
3224.39960,0.23084
3226.32807,0.23027
3228.25654,0.23401
3230.18500,0.23839
3232.11347,0.23760
3234.04194,0.23339
3235.97041,0.22804
3237.89888,0.22352
3239.82735,0.22245
3241.75582,0.22437
3243.68428,0.22987
3245.61275,0.23723
3247.54122,0.23851
3249.46969,0.23444
3251.39816,0.23197
3253.32663,0.23062
3255.25510,0.22788
3257.18357,0.22568
3259.11203,0.22538
3261.04050,0.22627
3262.96897,0.22875
3264.89744,0.22970
3266.82591,0.22733
3268.75438,0.22790
3270.68285,0.23179
3272.61131,0.23367
3274.53978,0.23465
3276.46825,0.23392
3278.39672,0.23067
3280.32519,0.22944
3282.25366,0.22806
3284.18213,0.22575
3286.11060,0.22695
3288.03906,0.23105
3289.96753,0.23616
3291.89600,0.23925
3293.82447,0.23771
3295.75294,0.23292
3297.68141,0.22827
3299.60988,0.22775
3301.53834,0.23088
3303.46681,0.23158
3305.39528,0.22755
3307.32375,0.22455
3309.25222,0.22467
3311.18069,0.22477
3313.10916,0.22375
3315.03763,0.22215
3316.96609,0.22266
3318.89456,0.22612
3320.82303,0.22898
3322.75150,0.22985
3324.67997,0.23107
3326.60844,0.23358
3328.53691,0.23520
3330.46537,0.23445
3332.39384,0.23205
3334.32231,0.22937
3336.25078,0.22783
3338.17925,0.22637
3340.10772,0.22274
3342.03619,0.22045
3343.96466,0.22423
3345.89312,0.23039
3347.82159,0.23424
3349.75006,0.23651
3351.67853,0.23735
3353.60700,0.23709
3355.53547,0.23708
3357.46394,0.23663
3359.39240,0.23423
3361.32087,0.23166
3363.24934,0.23194
3365.17781,0.23221
3367.10628,0.22941
3369.03475,0.22567
3370.96322,0.22510
3372.89168,0.22862
3374.82015,0.23134
3376.74862,0.23112
3378.67709,0.23077
3380.60556,0.23191
3382.53403,0.23116
3384.46250,0.22616
3386.39097,0.22170
3388.31943,0.22141
3390.24790,0.22552
3392.17637,0.23338
3394.10484,0.24098
3396.03331,0.24254
3397.96178,0.23780
3399.89025,0.23232
3401.81871,0.22959
3403.74718,0.22830
3405.67565,0.22745
3407.60412,0.23046
3409.53259,0.23395
3411.46106,0.23001
3413.38953,0.22488
3415.31800,0.22738
3417.24646,0.23541
3419.17493,0.24072
3421.10340,0.23655
3423.03187,0.22739
3424.96034,0.22255
3426.88881,0.22300
3428.81728,0.22421
3430.74574,0.22403
3432.67421,0.22395
3434.60268,0.22380
3436.53115,0.22207
3438.45962,0.22050
3440.38809,0.22018
3442.31656,0.21932
3444.24503,0.21821
3446.17349,0.21915
3448.10196,0.21900
3450.03043,0.21578
3451.95890,0.21449
3453.88737,0.21412
3455.81584,0.21209
3457.74431,0.21082
3459.67277,0.20935
3461.60124,0.20626
3463.52971,0.20366
3465.45818,0.20285
3467.38665,0.20347
3469.31512,0.20498
3471.24359,0.20631
3473.17206,0.20732
3475.10052,0.20744
3477.02899,0.20605
3478.95746,0.20492
3480.88593,0.20481
3482.81440,0.20605
3484.74287,0.20827
3486.67134,0.20827
3488.59980,0.20405
3490.52827,0.19907
3492.45674,0.19705
3494.38521,0.19697
3496.31368,0.19734
3498.24215,0.19900
3500.17062,0.20260
3502.09909,0.20605
3504.02755,0.20566
3505.95602,0.20160
3507.88449,0.19970
3509.81296,0.19923
3511.74143,0.19260
3513.66990,0.18393
3515.59837,0.18102
3517.52683,0.18331
3519.45530,0.18883
3521.38377,0.19618
3523.31224,0.20000
3525.24071,0.19671
3527.16918,0.19200
3529.09765,0.19034
3531.02611,0.18895
3532.95458,0.18687
3534.88305,0.18783
3536.81152,0.18855
3538.73999,0.18369
3540.66846,0.18043
3542.59693,0.18430
3544.52540,0.18992
3546.45386,0.19007
3548.38233,0.18674
3550.31080,0.18459
3552.23927,0.18185
3554.16774,0.17932
3556.09621,0.18002
3558.02468,0.17920
3559.95314,0.17290
3561.88161,0.16981
3563.81008,0.17503
3565.73855,0.18046
3567.66702,0.18179
3569.59549,0.18089
3571.52396,0.17708
3573.45243,0.17195
3575.38089,0.16889
3577.30936,0.16773
3579.23783,0.16635
3581.16630,0.16471
3583.09477,0.16442
3585.02324,0.16695
3586.95171,0.17174
3588.88017,0.17277
3590.80864,0.16972
3592.73711,0.16859
3594.66558,0.16865
3596.59405,0.16765
3598.52252,0.16633
3600.45099,0.16372
3602.37946,0.16095
3604.30792,0.16090
3606.23639,0.16348
3608.16486,0.16490
3610.09333,0.16525
3612.02180,0.16814
3613.95027,0.16706
3615.87874,0.16017
3617.80720,0.15784
3619.73567,0.16143
3621.66414,0.16109
3623.59261,0.15846
3625.52108,0.15837
3627.44955,0.15976
3629.37802,0.15995
3631.30649,0.16185
3633.23495,0.16426
3635.16342,0.16177
3637.09189,0.15771
3639.02036,0.15651
3640.94883,0.15495
3642.87730,0.15298
3644.80577,0.15565
3646.73423,0.16557
3648.66270,0.17489
3650.59117,0.16664
3652.51964,0.15596
3654.44811,0.15332
3656.37658,0.15255
3658.30505,0.14883
3660.23352,0.14523
3662.16198,0.14320
3664.09045,0.14289
3666.01892,0.14613
3667.94739,0.15126
3669.87586,0.15249
3671.80433,0.15189
3673.73280,0.15648
3675.66126,0.16050
3677.58973,0.15326
3679.51820,0.14518
3681.44667,0.14231
3683.37514,0.14196
3685.30361,0.14407
3687.23208,0.14868
3689.16055,0.15010
3691.08901,0.14452
3693.01748,0.13968
3694.94595,0.14054
3696.87442,0.14261
3698.80289,0.14137
3700.73136,0.13863
3702.65983,0.13522
3704.58829,0.13423
3706.51676,0.13900
3708.44523,0.14623
3710.37370,0.15180
3712.30217,0.15246
3714.23064,0.14686
3716.15911,0.14336
3718.08757,0.14666
3720.01604,0.15096
3721.94451,0.15084
3723.87298,0.14878
3725.80145,0.14560
3727.72992,0.14097
3729.65839,0.13906
3731.58686,0.14455
3733.51532,0.15601
3735.44379,0.15942
3737.37226,0.15218
3739.30073,0.14812
3741.22920,0.14826
3743.15767,0.15130
3745.08614,0.15537
3747.01460,0.15524
3748.94307,0.15558
3750.87154,0.15495
3752.80001,0.14910
3754.72848,0.14626
3756.65695,0.14630
3758.58542,0.14400
3760.51389,0.13883
3762.44235,0.13722
3764.37082,0.13905
3766.29929,0.14002
3768.22776,0.14027
3770.15623,0.13881
3772.08470,0.13486
3774.01317,0.13272
3775.94163,0.13339
3777.87010,0.13600
3779.79857,0.13596
3781.72704,0.13057
3783.65551,0.12841
3785.58398,0.13246
3787.51245,0.13561
3789.44092,0.13563
3791.36938,0.13568
3793.29785,0.13619
3795.22632,0.13525
3797.15479,0.13282
3799.08326,0.13340
3801.01173,0.14077
3802.94020,0.14668
3804.86866,0.14465
3806.79713,0.14027
3808.72560,0.13451
3810.65407,0.12948
3812.58254,0.13007
3814.51101,0.13890
3816.43948,0.14982
3818.36795,0.15344
3820.29641,0.15206
3822.22488,0.14777
3824.15335,0.14574
3826.08182,0.14453
3828.01029,0.13963
3829.93876,0.13374
3831.86723,0.13083
3833.79569,0.13197
3835.72416,0.13741
3837.65263,0.14458
3839.58110,0.14391
3841.50957,0.13688
3843.43804,0.13309
3845.36651,0.13364
3847.29498,0.13424
3849.22344,0.13337
3851.15191,0.13515
3853.08038,0.14394
3855.00885,0.14580
3856.93732,0.13531
3858.86579,0.12430
3860.79426,0.11966
3862.72272,0.12233
3864.65119,0.12849
3866.57966,0.13446
3868.50813,0.13486
3870.43660,0.13000
3872.36507,0.12997
3874.29354,0.13211
3876.22200,0.13107
3878.15047,0.12955
3880.07894,0.12788
3882.00741,0.12716
3883.93588,0.13020
3885.86435,0.13331
3887.79282,0.13249
3889.72129,0.13169
3891.64975,0.13325
3893.57822,0.13268
3895.50669,0.12932
3897.43516,0.12997
3899.36363,0.13404
3901.29210,0.12932
3903.22057,0.12063
3905.14903,0.11935
3907.07750,0.11938
3909.00597,0.11847
3910.93444,0.11755
3912.86291,0.11615
3914.79138,0.11585
3916.71985,0.11667
3918.64832,0.11719
3920.57678,0.11918
3922.50525,0.12273
3924.43372,0.12479
3926.36219,0.12598
3928.29066,0.12692
3930.21913,0.12514
3932.14760,0.12133
3934.07606,0.11685
3936.00453,0.11242
3937.93300,0.10871
3939.86147,0.10620
3941.78994,0.10814
3943.71841,0.11443
3945.64688,0.11873
3947.57535,0.11932
3949.50381,0.11898
3951.43228,0.11860
3953.36075,0.11785
3955.28922,0.11768
3957.21769,0.11725
3959.14616,0.11515
3961.07463,0.11261
3963.00309,0.11114
3964.93156,0.10939
3966.86003,0.10657
3968.78850,0.10754
3970.71697,0.11298
3972.64544,0.11486
3974.57391,0.11117
3976.50238,0.10745
3978.43084,0.10682
3980.35931,0.10919
3982.28778,0.11204
3984.21625,0.11110
3986.14472,0.10694
3988.07319,0.10433
3990.00166,0.10371
3991.93012,0.10347
3993.85859,0.10604
3995.78706,0.11020
3997.71553,0.10999
3999.64400,0.10679
4001.57247,0.10656
4003.50094,0.10895
4005.42941,0.11010
4007.35787,0.11029
4009.28634,0.10983
4011.21481,0.10661
4013.14328,0.10346
4015.07175,0.10238
4017.00022,0.10175
4018.92869,0.10436
4020.85715,0.10890
4022.78562,0.10641
4024.71409,0.09889
4026.64256,0.09749
4028.57103,0.09840
4030.49950,0.09420
4032.42797,0.09322
4034.35644,0.09861
4036.28490,0.10178
4038.21337,0.10191
4040.14184,0.10332
4042.07031,0.10451
4043.99878,0.10335
4045.92725,0.10114
4047.85572,0.09882
4049.78418,0.09767
4051.71265,0.10012
4053.64112,0.10397
4055.56959,0.10535
4057.49806,0.10463
4059.42653,0.10248
4061.35500,0.09965
4063.28346,0.09805
4065.21193,0.09819
4067.14040,0.09803
4069.06887,0.09515
4070.99734,0.09195
4072.92581,0.09267
4074.85428,0.09521
4076.78275,0.09469
4078.71121,0.09291
4080.63968,0.09306
4082.56815,0.09382
4084.49662,0.09371
4086.42509,0.09325
4088.35356,0.09459
4090.28203,0.09552
4092.21049,0.09232
4094.13896,0.08875
4096.06743,0.08896
4097.99590,0.08993
4099.92437,0.08889
4101.85284,0.08998
4103.78131,0.09414
4105.70978,0.09471
4107.63824,0.09038
4109.56671,0.08739
4111.49518,0.08953
4113.42365,0.09348
4115.35212,0.09322
4117.28059,0.08989
4119.20906,0.08707
4121.13752,0.08277
4123.06599,0.07930
4124.99446,0.08194
4126.92293,0.08533
4128.85140,0.08241
4130.77987,0.08059
4132.70834,0.08733
4134.63681,0.09251
4136.56527,0.08941
4138.49374,0.08610
4140.42221,0.08426
4142.35068,0.08144
4144.27915,0.08151
4146.20762,0.08500
4148.13609,0.08686
4150.06455,0.08566
4151.99302,0.08543
4153.92149,0.08738
4155.84996,0.08934
4157.77843,0.09134
4159.70690,0.09151
4161.63537,0.08829
4163.56384,0.08571
4165.49230,0.08431
4167.42077,0.08107
4169.34924,0.07759
4171.27771,0.07695
4173.20618,0.07850
4175.13465,0.07730
4177.06312,0.07144
4178.99158,0.06540
4180.92005,0.06339
4182.84852,0.06573
4184.77699,0.07047
4186.70546,0.07595
4188.63393,0.07925
4190.56240,0.07907
4192.49087,0.07836
4194.41933,0.08133
4196.34780,0.08736
4198.27627,0.08644
4200.20474,0.07564
4202.13321,0.06838
4204.06168,0.07192
4205.99015,0.07726
4207.91861,0.07635
4209.84708,0.07317
4211.77555,0.07289
4213.70402,0.07376
4215.63249,0.07354
4217.56096,0.07138
4219.48943,0.06859
4221.41789,0.06784
4223.34636,0.06777
4225.27483,0.06854
4227.20330,0.06940
4229.13177,0.06580
4231.06024,0.06134
4232.98871,0.06121
4234.91718,0.06419
4236.84564,0.06724
4238.77411,0.06609
4240.70258,0.06231
4242.63105,0.06359
4244.55952,0.06846
4246.48799,0.06920
4248.41646,0.06621
4250.34492,0.06376
4252.27339,0.06245
4254.20186,0.06056
4256.13033,0.05629
4258.05880,0.05300
4259.98727,0.05817
4261.91574,0.06784
4263.84421,0.07118
4265.77267,0.06940
4267.70114,0.06566
4269.62961,0.05776
4271.55808,0.04852
4273.48655,0.04511
4275.41502,0.05088
4277.34349,0.05777
4279.27195,0.05273
4281.20042,0.04259
4283.12889,0.04165
4285.05736,0.04183
4286.98583,0.03997
4288.91430,0.04481
4290.84277,0.05013
4292.77124,0.05241
4294.69970,0.05517
4296.62817,0.05413
4298.55664,0.04953
4300.48511,0.04754
4302.41358,0.05016
4304.34205,0.05288
4306.27052,0.04913
4308.19898,0.04374
4310.12745,0.04560
4312.05592,0.04918
4313.98439,0.04580
4315.91286,0.04139
4317.84133,0.04292
4319.76980,0.04422
4321.69827,0.04218
4323.62673,0.04191
4325.55520,0.04537
4327.48367,0.04949
4329.41214,0.05045
4331.34061,0.04805
4333.26908,0.04364
4335.19755,0.03953
4337.12601,0.03945
4339.05448,0.04376
4340.98295,0.04702
4342.91142,0.04309
4344.83989,0.03579
4346.76836,0.03415
4348.69683,0.03461
4350.62530,0.03229
4352.55376,0.03456
4354.48223,0.04321
4356.41070,0.04819
4358.33917,0.04280
4360.26764,0.03423
4362.19611,0.03141
4364.12458,0.03349
4366.05304,0.03789
4367.98151,0.03846
4369.90998,0.03225
4371.83845,0.02944
4373.76692,0.03395
4375.69539,0.03836
4377.62386,0.03897
4379.55232,0.03608
4381.48079,0.03024
4383.40926,0.02465
4385.33773,0.02278
4387.26620,0.02310
4389.19467,0.02379
4391.12314,0.02606
4393.05161,0.02663
4394.98007,0.02398
4396.90854,0.02083
4398.83701,0.01839
4400.76548,0.01955
4402.69395,0.02316
4404.62242,0.02432
4406.55089,0.02402
4408.47935,0.02475
4410.40782,0.02364
4412.33629,0.02036
4414.26476,0.02089
4416.19323,0.02363
4418.12170,0.02316
4420.05017,0.02091
4421.97864,0.01736
4423.90710,0.01183
4425.83557,0.00850
4427.76404,0.00970
4429.69251,0.01201
4431.62098,0.01411
4433.54945,0.01573
4435.47792,0.01608
4437.40638,0.01654
4439.33485,0.01658
4441.26332,0.01661
4443.19179,0.01511
4445.12026,0.00882
4447.04873,0.00465
4448.97720,0.00888
4450.90567,0.01561
4452.83413,0.01842
4454.76260,0.01932
4456.69107,0.01807
4458.61954,0.01168
4460.54801,0.00807
4462.47648,0.01389
4464.40495,0.02063
4466.33341,0.02105
4468.26188,0.01822
4470.19035,0.01536
4472.11882,0.01464
4474.04729,0.01624
4475.97576,0.01510
4477.90423,0.01155
4479.83270,0.00940
4481.76116,0.00932
4483.68963,0.01250
4485.61810,0.01621
4487.54657,0.01724
4489.47504,0.01638
4491.40351,0.00733
4493.33198,-0.00648
4495.26044,-0.00291
4497.18891,0.01490
4499.11738,0.02214
4501.04585,0.01681
4502.97432,0.01040
4504.90279,0.00757
4506.83126,0.00842
4508.75973,0.00863
4510.68819,0.00523
4512.61666,0.00265
4514.54513,0.00251
4516.47360,-0.00064
4518.40207,-0.00408
4520.33054,0.00009
4522.25901,0.00919
4524.18747,0.01398
4526.11594,0.01126
4528.04441,0.00986
4529.97288,0.01632
4531.90135,0.02030
4533.82982,0.01645
4535.75829,0.01225
4537.68676,0.00783
4539.61522,-0.00074
4541.54369,-0.00809
4543.47216,-0.00513
4545.40063,0.00610
4547.32910,0.01658
4549.25757,0.01902
4551.18604,0.00812
4553.11450,-0.00571
4555.04297,-0.00570
4556.97144,0.00350
4558.89991,0.00802
4560.82838,0.00833
4562.75685,0.01074
4564.68532,0.01610
4566.61378,0.02059
4568.54225,0.01964
4570.47072,0.01525
4572.39919,0.01148
4574.32766,0.00903
4576.25613,0.00770
4578.18460,0.00627
4580.11307,0.00244
4582.04153,-0.00167
4583.97000,0.00191
4585.89847,0.00994
4587.82694,0.01106
4589.75541,0.00573
4591.68388,0.00319
4593.61235,0.00895
4595.54081,0.01888
4597.46928,0.02303
4599.39775,0.01610
4601.32622,0.00532
4603.25469,-0.00077
4605.18316,-0.00121
4607.11163,0.00248
4609.04010,0.00446
4610.96856,0.00025
4612.89703,-0.00310
4614.82550,-0.00013
4616.75397,0.00162
4618.68244,-0.00085
4620.61091,-0.00235
4622.53938,-0.00383
4624.46784,-0.00527
4626.39631,-0.00169
4628.32478,0.00671
4630.25325,0.01324
4632.18172,0.01473
4634.11019,0.01270
4636.03866,0.00692
4637.96713,0.00123
4639.89559,-0.00084
4641.82406,-0.00343
4643.75253,-0.00370
4645.68100,0.00347
4647.60947,0.00870
4649.53794,0.00593
4651.46641,0.00415
4653.39487,0.00644
4655.32334,0.00759
4657.25181,0.00850
4659.18028,0.00851
4661.10875,0.00349
4663.03722,-0.00285
4664.96569,-0.00472
4666.89416,-0.00292
4668.82262,-0.00340
4670.75109,-0.00481
4672.67956,-0.00142
4674.60803,0.00373
4676.53650,0.00677
4678.46497,0.00934
4680.39344,0.01169
4682.32190,0.00914
4684.25037,0.00145
4686.17884,-0.00637
4688.10731,-0.01033
4690.03578,-0.00501
4691.96425,0.00887
4693.89272,0.02165
4695.82119,0.02401
4697.74965,0.02005
4699.67812,0.01704
4701.60659,0.01302
4703.53506,0.01285
4705.46353,0.01783
4707.39200,0.01607
4709.32047,0.00662
4711.24893,-0.00054
4713.17740,-0.00092
4715.10587,0.00477
4717.03434,0.01137
4718.96281,0.00976
4720.89128,0.00180
4722.81975,-0.00235
4724.74821,-0.00019
4726.67668,0.00407
4728.60515,0.00469
4730.53362,0.00328
4732.46209,0.00523
4734.39056,0.00979
4736.31903,0.00950
4738.24750,0.00464
4740.17596,0.00356
4742.10443,0.00424
4744.03290,0.00614
4745.96137,0.01059
4747.88984,0.00917
4749.81831,0.00259
4751.74678,0.00136
4753.67524,0.00699
4755.60371,0.00529
4757.53218,-0.00593
4759.46065,-0.01074
4761.38912,-0.00805
4763.31759,-0.00589
4765.24606,-0.00177
4767.17453,0.00901
4769.10299,0.01930
4771.03146,0.01921
4772.95993,0.01437
4774.88840,0.00930
4776.81687,-0.00005
4778.74534,-0.00841
4780.67381,-0.00514
4782.60227,0.00514
4784.53074,0.01320
4786.45921,0.01819
4788.38768,0.02178
4790.31615,0.01908
4792.24462,0.00804
4794.17309,-0.00101
4796.10156,-0.00234
4798.03002,0.00032
4799.95849,0.00406
4801.88696,0.00568
4803.81543,0.00133
4805.74390,-0.00750
4807.67237,-0.01091
4809.60084,-0.00593
4811.52930,0.00085
4813.45777,0.00489
4815.38624,0.00263
4817.31471,-0.00416
4819.24318,-0.00503
4821.17165,0.00251
4823.10012,0.00540
4825.02859,0.00031
4826.95705,-0.00235
4828.88552,-0.00191
4830.81399,-0.00336
4832.74246,-0.00418
4834.67093,-0.00524
4836.59940,-0.00611
4838.52787,0.00196
4840.45633,0.01413
4842.38480,0.01925
4844.31327,0.01242
4846.24174,-0.00264
4848.17021,-0.01155
4850.09868,-0.00767
4852.02715,0.00356
4853.95562,0.01289
4855.88408,0.01273
4857.81255,0.00811
4859.74102,0.00711
4861.66949,0.00732
4863.59796,0.00750
4865.52643,0.01074
4867.45490,0.01014
4869.38336,-0.00023
4871.31183,-0.00796
4873.24030,-0.00404
4875.16877,0.00329
4877.09724,0.00867
4879.02571,0.01466
4880.95418,0.01713
4882.88265,0.01059
4884.81111,0.00610
4886.73958,0.01163
4888.66805,0.01792
4890.59652,0.02157
4892.52499,0.02683
4894.45346,0.02953
4896.38193,0.01943
4898.31039,0.00004
4900.23886,-0.01142
4902.16733,-0.01029
4904.09580,-0.00483
4906.02427,0.00294
4907.95274,0.01139
4909.88121,0.01338
4911.80967,0.01378
4913.73814,0.01617
4915.66661,0.01454
4917.59508,0.01356
4919.52355,0.01859
4921.45202,0.02502
4923.38049,0.02560
4925.30896,0.01753
4927.23742,0.00473
4929.16589,-0.00456
4931.09436,-0.00166
4933.02283,0.00568
4934.95130,0.00204
4936.87977,-0.00718
4938.80824,-0.00914
4940.73670,0.00154
4942.66517,0.01677
4944.59364,0.01900
4946.52211,0.01231
4948.45058,0.01347
4950.37905,0.01665
4952.30752,0.01026
4954.23599,0.00332
4956.16445,0.00541
4958.09292,0.00873
4960.02139,0.00450
4961.94986,-0.00594
4963.87833,-0.00978
4965.80680,-0.00275
4967.73527,0.00417
4969.66373,0.01058
4971.59220,0.01417
4973.52067,0.00499
4975.44914,-0.00888
4977.37761,-0.01400
4979.30608,-0.01226
4981.23455,-0.00968
4983.16302,-0.00399
4985.09148,0.01057
4987.01995,0.02331
4988.94842,0.01672
4990.87689,-0.00365
4992.80536,-0.02102
4994.73383,-0.02556
4996.66230,-0.02021
4998.59076,-0.01545
5000.51923,-0.00914
5002.44770,-0.00051
5004.37617,0.00363
5006.30464,0.00941
5008.23311,0.01977
5010.16158,0.02266
5012.09005,0.01588
5014.01851,0.01572
5015.94698,0.02663
5017.87545,0.03476
5019.80392,0.03064
5021.73239,0.01933
5023.66086,0.02155
5025.58933,0.03444
5027.51779,0.02502
5029.44626,-0.00015
5031.37473,-0.01018
5033.30320,-0.00746
5035.23167,-0.00114
5037.16014,0.01028
5039.08861,0.01678
5041.01708,0.01034
5042.94554,-0.00139
5044.87401,-0.00803
5046.80248,-0.00879
5048.73095,-0.00960
5050.65942,-0.00555
5052.58789,0.00949
5054.51636,0.02535
5056.44482,0.02980
5058.37329,0.02598
5060.30176,0.02107
5062.23023,0.01268
5064.15870,0.00854
5066.08717,0.02088
5068.01564,0.03301
5069.94410,0.02964
5071.87257,0.02623
5073.80104,0.02579
5075.72951,0.01200
5077.65798,-0.00413
5079.58645,0.00099
5081.51492,0.01540
5083.44339,0.02013
5085.37185,0.02275
5087.30032,0.02830
5089.22879,0.03432
5091.15726,0.03733
5093.08573,0.03449
5095.01420,0.03357
5096.94267,0.03193
5098.87113,0.02158
5100.79960,0.01251
5102.72807,0.01024
5104.65654,0.00759
5106.58501,0.00645
5108.51348,0.00615
5110.44195,0.00568
5112.37042,0.01977
5114.29888,0.03977
5116.22735,0.04007
5118.15582,0.02309
5120.08429,0.00773
5122.01276,0.00839
5123.94123,0.01551
5125.86970,0.01032
5127.79816,-0.00100
5129.72663,-0.00877
5131.65510,-0.01057
5133.58357,0.00298
5135.51204,0.02432
5137.44051,0.03439
5139.36898,0.03275
5141.29745,0.02208
5143.22591,0.00099
5145.15438,-0.01665
5147.08285,-0.01686
5149.01132,-0.00440
5150.93979,0.00842
5152.86826,0.01201
5154.79673,0.00818
5156.72519,0.00456
5158.65366,0.01134
5160.58213,0.03388
5162.51060,0.05050
5164.43907,0.04262
5166.36754,0.02884
5168.29601,0.02810
5170.22448,0.04166
5172.15294,0.06075
5174.08141,0.06494
5176.00988,0.05215
5177.93835,0.04289
5179.86682,0.04083
5181.79529,0.03960
5183.72376,0.03695
5185.65222,0.03449
5187.58069,0.04281
5189.50916,0.05350
5191.43763,0.04691
5193.36610,0.02953
5195.29457,0.01628
5197.22304,0.01591
5199.15151,0.03175
5201.07997,0.03744
5203.00844,0.01534
5204.93691,-0.00960
5206.86538,-0.00586
5208.79385,0.02284
5210.72232,0.03877
5212.65079,0.02829
5214.57925,0.01974
5216.50772,0.02928
5218.43619,0.03989
5220.36466,0.04631
5222.29313,0.05031
5224.22160,0.04446
5226.15007,0.03925
5228.07854,0.04691
5230.00700,0.04946
5231.93547,0.03580
5233.86394,0.02648
5235.79241,0.02779
5237.72088,0.02467
5239.64935,0.01950
5241.57782,0.01857
5243.50628,0.02585
5245.43475,0.04171
5247.36322,0.04878
5249.29169,0.04294
5251.22016,0.03777
5253.14863,0.03142
5255.07710,0.03018
5257.00556,0.04777
5258.93403,0.06245
5260.86250,0.05340
5262.79097,0.03739
5264.71944,0.03658
5266.64791,0.04667
5268.57638,0.05410
5270.50485,0.05467
5272.43331,0.05085
5274.36178,0.04663
5276.29025,0.04294
5278.21872,0.04236
5280.14719,0.04927
5282.07566,0.05360
5284.00413,0.04305
5285.93259,0.03272
5287.86106,0.04290
5289.78953,0.06664
5291.71800,0.08348
5293.64647,0.08440
5295.57494,0.06908
5297.50341,0.04266
5299.43188,0.02789
5301.36034,0.03622
5303.28881,0.04864
5305.21728,0.04226
5307.14575,0.02427
5309.07422,0.02831
5311.00269,0.04716
5312.93116,0.05559
5314.85962,0.06740
5316.78809,0.07662
5318.71656,0.05883
5320.64503,0.03733
5322.57350,0.03891
5324.50197,0.05081
5326.43044,0.05796
5328.35891,0.06352
5330.28737,0.06699
5332.21584,0.06595
5334.14431,0.06474
5336.07278,0.06519
5338.00125,0.06103
5339.92972,0.04535
5341.85819,0.03146
5343.78665,0.03464
5345.71512,0.04606
5347.64359,0.04915
5349.57206,0.04783
5351.50053,0.04864
5353.42900,0.05337
5355.35747,0.06206
5357.28594,0.07080
5359.21440,0.07711
5361.14287,0.07626
5363.07134,0.06975
5364.99981,0.06660
5366.92828,0.05973
5368.85675,0.04626
5370.78522,0.03882
5372.71368,0.03825
5374.64215,0.03383
5376.57062,0.02753
5378.49909,0.03433
5380.42756,0.05332
5382.35603,0.06713
5384.28450,0.05643
5386.21297,0.03533
5388.14143,0.02660
5390.06990,0.02210
5391.99837,0.02650
5393.92684,0.04710
5395.85531,0.06849
5397.78378,0.07320
5399.71225,0.06954
5401.64071,0.07049
5403.56918,0.06960
5405.49765,0.06712
5407.42612,0.06670
5409.35459,0.06712
5411.28306,0.06715
5413.21153,0.06178
5415.13999,0.05893
5417.06846,0.06083
5418.99693,0.06235
5420.92540,0.06356
5422.85387,0.05201
5424.78234,0.02848
5426.71081,0.02835
5428.63928,0.06294
5430.56774,0.08003
5432.49621,0.06027
5434.42468,0.05167
5436.35315,0.07160
5438.28162,0.08154
5440.21009,0.07114
5442.13856,0.05852
5444.06702,0.05450
5445.99549,0.06910
5447.92396,0.09207
5449.85243,0.08635
5451.78090,0.05705
5453.70937,0.02779
5455.63784,0.01832
5457.56631,0.04980
5459.49477,0.07951
5461.42324,0.07793
5463.35171,0.07574
5465.28018,0.07423
5467.20865,0.06473
5469.13712,0.06662
5471.06559,0.08383
5472.99405,0.08995
5474.92252,0.07767
5476.85099,0.06755
5478.77946,0.07308
5480.70793,0.09151
5482.63640,0.09786
5484.56487,0.07214
5486.49334,0.04422
5488.42180,0.04841
5490.35027,0.07260
5492.27874,0.08873
5494.20721,0.09071
5496.13568,0.08788
5498.06415,0.07471
5499.99262,0.05243
5501.92108,0.04866
5503.84955,0.05714
5505.77802,0.06090
5507.70649,0.07361
5509.63496,0.07923
5511.56343,0.06238
5513.49190,0.05132
5515.42037,0.04827
5517.34883,0.03619
5519.27730,0.03927
5521.20577,0.06457
5523.13424,0.06984
5525.06271,0.05013
5526.99118,0.04036
5528.91965,0.04715
5530.84811,0.06613
5532.77658,0.08314
5534.70505,0.07933
5536.63352,0.06610
5538.56199,0.05941
5540.49046,0.06058
5542.41893,0.07378
5544.34740,0.09262
5546.27586,0.10464
5548.20433,0.10502
5550.13280,0.09703
5552.06127,0.08712
5553.98974,0.07603
5555.91821,0.08233
5557.84668,0.10336
5559.77514,0.09529
5561.70361,0.07241
5563.63208,0.07064
5565.56055,0.07322
5567.48902,0.07606
5569.41749,0.09360
5571.34596,0.10583
5573.27443,0.10191
5575.20289,0.09564
5577.13136,0.08479
5579.05983,0.08314
5580.98830,0.09565
5582.91677,0.08748
5584.84524,0.07230
5586.77371,0.07962
5588.70217,0.08237
5590.63064,0.06159
5592.55911,0.04380
5594.48758,0.05184
5596.41605,0.08041
5598.34452,0.09906
5600.27299,0.08319
5602.20145,0.05370
5604.12992,0.03733
5606.05839,0.02777
5607.98686,0.01947
5609.91533,0.02146
5611.84380,0.05017
5613.77227,0.09474
5615.70074,0.10454
5617.62920,0.08245
5619.55767,0.07633
5621.48614,0.07639
5623.41461,0.06997
5625.34308,0.08231
5627.27155,0.09153
5629.20002,0.06788
5631.12848,0.03981
5633.05695,0.03963
5634.98542,0.06388
5636.91389,0.07654
5638.84236,0.06906
5640.77083,0.06034
5642.69930,0.04909
5644.62777,0.04222
5646.55623,0.05238
5648.48470,0.06336
5650.41317,0.05775
5652.34164,0.04504
5654.27011,0.03345
5656.19858,0.02247
5658.12705,0.03332
5660.05551,0.07572
5661.98398,0.10907
5663.91245,0.10071
5665.84092,0.07060
5667.76939,0.05937
5669.69786,0.08100
5671.62633,0.10388
5673.55480,0.10178
5675.48326,0.08884
5677.41173,0.08611
5679.34020,0.09250
5681.26867,0.09048
5683.19714,0.07281
5685.12561,0.05129
5687.05408,0.05120
5688.98254,0.07727
5690.91101,0.08666
5692.83948,0.07158
5694.76795,0.07802
5696.69642,0.09748
5698.62489,0.08908
5700.55336,0.06760
5702.48183,0.05703
5704.41029,0.06377
5706.33876,0.07826
5708.26723,0.07618
5710.19570,0.06554
5712.12417,0.07145
5714.05264,0.08757
5715.98111,0.08741
5717.90957,0.07252
5719.83804,0.06743
5721.76651,0.07572
5723.69498,0.09412
5725.62345,0.11408
5727.55192,0.11557
5729.48039,0.10620
5731.40886,0.10951
5733.33732,0.11693
5735.26579,0.10437
5737.19426,0.08078
5739.12273,0.07320
5741.05120,0.07258
5742.97967,0.07146
5744.90814,0.09015
5746.83660,0.12482
5748.76507,0.13921
5750.69354,0.11074
5752.62201,0.06363
5754.55048,0.04931
5756.47895,0.07444
5758.40742,0.09316
5760.33588,0.08313
5762.26435,0.06117
5764.19282,0.04542
5766.12129,0.04436
5768.04976,0.05550
5769.97823,0.07052
5771.90670,0.07837
5773.83517,0.07330
5775.76363,0.06772
5777.69210,0.06166
5779.62057,0.03941
5781.54904,0.02493
5783.47751,0.05250
5785.40598,0.09615
5787.33445,0.12714
5789.26291,0.14606
5791.19138,0.12908
5793.11985,0.09339
5795.04832,0.08610
5796.97679,0.09061
5798.90526,0.09143
5800.83373,0.09679
5802.76220,0.09009
5804.69066,0.06785
5806.61913,0.04630
5808.54760,0.03258
5810.47607,0.03107
5812.40454,0.03444
5814.33301,0.03319
5816.26148,0.03873
5818.18994,0.06585
5820.11841,0.10228
5822.04688,0.11366
5823.97535,0.10424
5825.90382,0.11806
5827.83229,0.15326
5829.76076,0.15225
5831.68923,0.11435
5833.61769,0.09063
5835.54616,0.08353
5837.47463,0.06889
5839.40310,0.04855
5841.33157,0.05962
5843.26004,0.09135
5845.18851,0.08412
5847.11697,0.05533
5849.04544,0.03540
5850.97391,0.01984
5852.90238,0.03170
5854.83085,0.06172
5856.75932,0.06479
5858.68779,0.04877
5860.61626,0.03422
5862.54472,0.01514
5864.47319,0.01644
5866.40166,0.05480
5868.33013,0.08949
5870.25860,0.09746
5872.18707,0.10881
5874.11554,0.12613
5876.04400,0.11246
5877.97247,0.08317
5879.90094,0.07775
5881.82941,0.08012
5883.75788,0.06766
5885.68635,0.05725
5887.61482,0.05991
5889.54329,0.06785
5891.47175,0.08784
5893.40022,0.10329
5895.32869,0.08612
5897.25716,0.06685
5899.18563,0.08367
5901.11410,0.10494
5903.04257,0.09085
5904.97103,0.08400
5906.89950,0.11945
5908.82797,0.14136
5910.75644,0.12431
5912.68491,0.10597
5914.61338,0.08800
5916.54185,0.07236
5918.47032,0.09415
5920.39878,0.13303
5922.32725,0.11578
5924.25572,0.06257
5926.18419,0.05196
5928.11266,0.06616
5930.04113,0.05765
5931.96960,0.05272
5933.89806,0.07057
5935.82653,0.08425
5937.75500,0.07639
5939.68347,0.04648
5941.61194,0.03258
5943.54041,0.07305
5945.46888,0.11673
5947.39734,0.12213
5949.32581,0.11662
5951.25428,0.11971
5953.18275,0.12670
5955.11122,0.12869
5957.03969,0.11522
5958.96816,0.10581
5960.89663,0.12755
5962.82509,0.15040
5964.75356,0.14384
5966.68203,0.11837
5968.61050,0.09202
5970.53897,0.07175
5972.46744,0.06249
5974.39591,0.06266
5976.32437,0.05210
5978.25284,0.04316
5980.18131,0.06409
5982.10978,0.09288
5984.03825,0.09340
5985.96672,0.06945
5987.89519,0.04864
5989.82366,0.03710
5991.75212,0.02496
5993.68059,0.02258
5995.60906,0.03818
5997.53753,0.05076
5999.46600,0.05315
6001.39447,0.05280
6003.32294,0.05441
6005.25140,0.06147
6007.17987,0.05974
6009.10834,0.05770
6011.03681,0.06889
6012.96528,0.05652
6014.89375,0.02138
6016.82222,0.01899
6018.75069,0.03751
6020.67915,0.03573
6022.60762,0.05280
6024.53609,0.09626
6026.46456,0.12666
6028.39303,0.12254
6030.32150,0.08055
6032.24997,0.06014
6034.17843,0.09402
6036.10690,0.12150
6038.03537,0.12111
6039.96384,0.12314
6041.89231,0.11291
6043.82078,0.07932
6045.74925,0.05881
6047.67772,0.07136
6049.60618,0.09641
6051.53465,0.10325
6053.46312,0.09184
6055.39159,0.08437
6057.32006,0.08756
6059.24853,0.08989
6061.17700,0.07858
6063.10546,0.03766
6065.03393,-0.01008
6066.96240,-0.01123
6068.89087,0.01643
6070.81934,0.02754
6072.74781,0.04203
6074.67628,0.06404
6076.60475,0.06538
6078.53321,0.05062
6080.46168,0.02270
6082.39015,0.00163
6084.31862,0.01495
6086.24709,0.04916
6088.17556,0.07600
6090.10403,0.08913
6092.03249,0.10867
6093.96096,0.13657
6095.88943,0.16360
6097.81790,0.17759
6099.74637,0.14103
6101.67484,0.07488
6103.60331,0.04994
6105.53177,0.06452
6107.46024,0.06685
6109.38871,0.05253
6111.31718,0.05066
6113.24565,0.06376
6115.17412,0.08341
6117.10259,0.09704
6119.03106,0.09770
6120.95952,0.08891
6122.88799,0.09171
6124.81646,0.12737
6126.74493,0.15356
6128.67340,0.11365
6130.60187,0.04395
6132.53034,0.00350
6134.45880,0.01012
6136.38727,0.06890
6138.31574,0.14075
6140.24421,0.16583
6142.17268,0.13171
6144.10115,0.07894
6146.02962,0.05435
6147.95809,0.05890
6149.88655,0.06027
6151.81502,0.03682
6153.74349,0.01772
6155.67196,0.03557
6157.60043,0.06266
6159.52890,0.05682
6161.45737,0.02906
6163.38583,0.02504
6165.31430,0.05108
6167.24277,0.07692
6169.17124,0.07167
6171.09971,0.04171
6173.02818,0.03147
6174.95665,0.04846
6176.88512,0.06752
6178.81358,0.06827
6180.74205,0.05093
6182.67052,0.05010
6184.59899,0.07208
6186.52746,0.06872
6188.45593,0.04166
6190.38440,0.04164
6192.31286,0.06572
6194.24133,0.10375
6196.16980,0.12293
6198.09827,0.08892
6200.02674,0.06438
6201.95521,0.10797
6203.88368,0.16157
6205.81215,0.13418
6207.74061,0.06436
6209.66908,0.04538
6211.59755,0.07163
6213.52602,0.07204
6215.45449,0.04524
6217.38296,0.04197
6219.31143,0.07762
6221.23989,0.11106
6223.16836,0.11156
6225.09683,0.10508
6227.02530,0.10926
6228.95377,0.09395
6230.88224,0.07364
6232.81071,0.07579
6234.73918,0.07239
6236.66764,0.06294
6238.59611,0.06301
6240.52458,0.06052
6242.45305,0.04685
6244.38152,0.03190
6246.30999,0.04954
6248.23846,0.11273
6250.16692,0.16866
6252.09539,0.15580
6254.02386,0.08859
6255.95233,0.02661
6257.88080,0.02421
6259.80927,0.08141
6261.73774,0.13975
6263.66621,0.15153
6265.59467,0.11926
6267.52314,0.09929
6269.45161,0.10146
6271.38008,0.07068
6273.30855,0.02123
6275.23702,0.01544
6277.16549,0.02607
6279.09395,0.01410
6281.02242,0.00943
6282.95089,0.00146
6284.87936,-0.03433
6286.80783,-0.05067
6288.73630,-0.01698
6290.66477,0.03190
6292.59323,0.06662
6294.52170,0.10282
6296.45017,0.14428
6298.37864,0.16760
6300.30711,0.15059
6302.23558,0.09553
6304.16405,0.02888
6306.09252,-0.03270
6308.02098,-0.03919
6309.94945,0.02535
6311.87792,0.07195
6313.80639,0.06270
6315.73486,0.06483
6317.66333,0.10592
6319.59180,0.12375
6321.52026,0.08877
6323.44873,0.07003
6325.37720,0.10155
6327.30567,0.12666
6329.23414,0.12519
6331.16261,0.13789
6333.09108,0.14997
6335.01955,0.11536
6336.94801,0.05795
6338.87648,0.05441
6340.80495,0.11760
6342.73342,0.16067
6344.66189,0.12926
6346.59036,0.05094
6348.51883,0.00549
6350.44729,0.02515
6352.37576,0.04271
6354.30423,0.03330
6356.23270,0.04250
6358.16117,0.07093
6360.08964,0.08844
6362.01811,0.08503
6363.94658,0.06677
6365.87504,0.06409
6367.80351,0.09491
6369.73198,0.11398
6371.66045,0.08380
6373.58892,0.04414
6375.51739,0.04748
6377.44586,0.07200
6379.37432,0.09113
6381.30279,0.08860
6383.23126,0.05469
6385.15973,0.03327
6387.08820,0.04826
6389.01667,0.05924
6390.94514,0.01565
6392.87361,-0.05206
6394.80207,-0.04432
6396.73054,0.02898
6398.65901,0.10344
6400.58748,0.13172
6402.51595,0.09032
6404.44442,0.02536
6406.37289,0.00554
6408.30135,0.04351
6410.22982,0.09679
6412.15829,0.14283
6414.08676,0.14786
6416.01523,0.10877
6417.94370,0.09634
6419.87217,0.12283
6421.80064,0.13440
6423.72910,0.12388
6425.65757,0.08075
6427.58604,0.02045
6429.51451,-0.00080
6431.44298,0.03634
6433.37145,0.08889
6435.29992,0.11070
6437.22838,0.11454
6439.15685,0.09520
6441.08532,0.04182
6443.01379,0.01663
6444.94226,0.01420
6446.87073,-0.02435
6448.79920,-0.03432
6450.72766,0.02089
6452.65613,0.05886
6454.58460,0.04146
6456.51307,0.01252
6458.44154,0.01702
6460.37001,0.04189
6462.29848,0.06664
6464.22695,0.09403
6466.15541,0.09991
6468.08388,0.08506
6470.01235,0.07010
6471.94082,0.03043
6473.86929,0.01399
6475.79776,0.06226
6477.72623,0.07423
6479.65469,0.05185
6481.58316,0.08091
6483.51163,0.10772
6485.44010,0.12022
6487.36857,0.13674
6489.29704,0.10836
6491.22551,0.06775
6493.15398,0.07279
6495.08244,0.07313
6497.01091,0.06017
6498.93938,0.05548
6500.86785,0.02477
6502.79632,0.01148
6504.72479,0.08779
6506.65326,0.18627
6508.58172,0.21862
6510.51019,0.16922
6512.43866,0.08722
6514.36713,0.04374
6516.29560,0.02075
6518.22407,-0.00427
6520.15254,0.00723
6522.08101,0.04347
6524.00947,0.06382
6525.93794,0.05549
6527.86641,0.02123
6529.79488,0.00114
6531.72335,0.02543
6533.65182,0.04732
6535.58029,0.02812
6537.50875,0.00364
6539.43722,0.00026
6541.36569,-0.00124
6543.29416,0.00046
6545.22263,0.02265
6547.15110,0.06250
6549.07957,0.11348
6551.00804,0.14473
6552.93650,0.11968
6554.86497,0.08446
6556.79344,0.08990
6558.72191,0.09864
6560.65038,0.08812
6562.57885,0.08657
6564.50732,0.08668
6566.43578,0.04424
6568.36425,-0.00012
6570.29272,0.02134
6572.22119,0.07006
6574.14966,0.10667
6576.07813,0.12954
6578.00660,0.12023
6579.93507,0.08976
6581.86353,0.06723
6583.79200,0.04685
6585.72047,0.03656
6587.64894,0.05724
6589.57741,0.07799
6591.50588,0.06729
6593.43435,0.05294
6595.36281,0.05927
6597.29128,0.05281
6599.21975,0.04660
6601.14822,0.08212
6603.07669,0.11625
6605.00516,0.11103
6606.93363,0.09188
6608.86210,0.09746
6610.79056,0.11681
6612.71903,0.11623
6614.64750,0.13159
6616.57597,0.16193
6618.50444,0.15340
6620.43291,0.14441
6622.36138,0.14827
6624.28984,0.11402
6626.21831,0.09085
6628.14678,0.13418
6630.07525,0.16302
6632.00372,0.12875
6633.93219,0.12304
6635.86066,0.20512
6637.78912,0.26022
6639.71759,0.19524
6641.64606,0.11367
6643.57453,0.11395
6645.50300,0.14854
6647.43147,0.13007
6649.35994,0.06567
6651.28841,-0.02205
6653.21687,-0.08765
6655.14534,-0.04048
6657.07381,0.08250
6659.00228,0.16035
6660.93075,0.18606
6662.85922,0.15294
6664.78769,0.06511
6666.71615,-0.00425
6668.64462,-0.02127
6670.57309,-0.02959
6672.50156,-0.00094
6674.43003,0.06600
6676.35850,0.05733
6678.28697,0.00687
6680.21544,0.00383
6682.14390,0.02310
6684.07237,0.03646
6686.00084,0.05818
6687.92931,0.08047
6689.85778,0.05124
6691.78625,-0.01325
6693.71472,-0.03391
6695.64318,0.00486
6697.57165,0.06232
6699.50012,0.09909
6701.42859,0.10196
6703.35706,0.10163
6705.28553,0.13446
6707.21400,0.18831
6709.14247,0.22089
6711.07093,0.19650
6712.99940,0.12807
6714.92787,0.05586
6716.85634,0.02268
6718.78481,0.04352
6720.71328,0.07832
6722.64175,0.08911
6724.57021,0.09881
6726.49868,0.11576
6728.42715,0.10576
6730.35562,0.08109
6732.28409,0.08002
6734.21256,0.07831
6736.14103,0.07633
6738.06950,0.05860
6739.99796,-0.00655
6741.92643,-0.01900
6743.85490,0.03038
6745.78337,0.03902
6747.71184,0.04255
6749.64031,0.07978
6751.56878,0.10674
6753.49724,0.07971
6755.42571,-0.00815
6757.35418,-0.10917
6759.28265,-0.11895
6761.21112,-0.01667
6763.13959,0.05346
6765.06806,0.06657
6766.99653,0.05425
6768.92499,0.02594
6770.85346,-0.00875
6772.78193,-0.04272
6774.71040,-0.03117
6776.63887,0.03206
6778.56734,0.06332
6780.49581,0.00985
6782.42427,-0.07193
6784.35274,-0.09152
6786.28121,-0.04096
6788.20968,0.03394
6790.13815,0.08523
6792.06662,0.08648
6793.99509,0.06347
6795.92355,0.04784
6797.85202,0.05514
6799.78049,0.06919
6801.70896,0.04416
6803.63743,-0.00453
6805.56590,-0.06067
6807.49437,-0.11880
6809.42284,-0.09227
6811.35130,0.00936
6813.27977,0.05000
6815.20824,0.02602
6817.13671,0.03947
6819.06518,0.10162
6820.99365,0.13710
6822.92212,0.09940
6824.85058,0.03946
6826.77905,0.01178
6828.70752,0.03482
6830.63599,0.11536
6832.56446,0.18847
6834.49293,0.20404
6836.42140,0.12134
6838.34987,-0.04730
6840.27833,-0.15695
6842.20680,-0.11200
6844.13527,-0.01767
6846.06374,-0.02440
6847.99221,-0.05782
6849.92068,0.04590
6851.84915,0.15068
6853.77761,0.10180
6855.70608,-0.02007
6857.63455,-0.03184
6859.56302,0.06314
6861.49149,0.13340
6863.41996,0.11995
6865.34843,0.03486
6867.27690,-0.09033
6869.20536,-0.14496
6871.13383,-0.06735
6873.06230,0.06645
6874.99077,0.09256
6876.91924,0.00900
6878.84771,-0.05838
6880.77618,-0.04766
6882.70464,-0.01282
6884.63311,0.01074
6886.56158,0.06752
6888.49005,0.14563
6890.41852,0.14062
6892.34699,0.06704
6894.27546,0.05438
6896.20393,0.09251
6898.13239,0.08508
6900.06086,0.07428
6901.98933,0.10293
6903.91780,0.08834
6905.84627,0.04192
6907.77474,0.06459
6909.70321,0.14136
6911.63167,0.21026
6913.56014,0.23089
6915.48861,0.20204
6917.41708,0.13633
6919.34555,0.02435
6921.27402,-0.07603
6923.20249,-0.08236
6925.13096,-0.01705
6927.05942,0.05087
6928.98789,0.08702
6930.91636,0.09415
6932.84483,0.09367
6934.77330,0.08250
6936.70177,0.04925
6938.63024,0.01309
6940.55870,-0.03461
6942.48717,-0.09458
6944.41564,-0.06780
6946.34411,0.04142
6948.27258,0.07957
6950.20105,0.03296
6952.12952,0.00593
6954.05799,0.00744
6955.98645,-0.01118
6957.91492,-0.03626
6959.84339,-0.02932
6961.77186,-0.01949
6963.70033,-0.01873
6965.62880,-0.00176
6967.55727,0.03646
6969.48573,0.09217
6971.41420,0.13226
6973.34267,0.11238
6975.27114,0.05142
6977.19961,0.03670
6979.12808,0.08181
6981.05655,0.12409
6982.98501,0.13423
6984.91348,0.15330
6986.84195,0.20055
6988.77042,0.22652
6990.69889,0.21945
6992.62736,0.17003
6994.55583,0.08312
6996.48430,0.03537
6998.41276,0.04142
7000.34123,0.08064
7002.26970,0.14953
7004.19817,0.13056
7006.12664,0.03869
7008.05511,0.04911
7009.98358,0.09192
7011.91204,0.03796
7013.84051,-0.04184
7015.76898,-0.07416
7017.69745,-0.08464
7019.62592,-0.07033
7021.55439,-0.03292
7023.48286,-0.00814
7025.41133,0.00882
7027.33979,0.03447
7029.26826,0.04449
7031.19673,0.08585
7033.12520,0.16942
7035.05367,0.16596
7036.98214,0.05387
7038.91061,-0.03977
7040.83907,-0.05641
7042.76754,0.01192
7044.69601,0.07297
7046.62448,0.04664
7048.55295,0.00986
7050.48142,0.04077
7052.40989,0.07942
7054.33836,0.05801
7056.26682,0.03845
7058.19529,0.12965
7060.12376,0.26122
7062.05223,0.25474
7063.98070,0.10998
7065.90917,0.00690
7067.83764,-0.03731
7069.76610,-0.06804
7071.69457,-0.00333
7073.62304,0.10426
7075.55151,0.13843
7077.47998,0.16142
7079.40845,0.16804
7081.33692,0.08079
7083.26539,0.01349
7085.19385,0.04678
7087.12232,0.10897
7089.05079,0.14753
7090.97926,0.13771
7092.90773,0.08693
7094.83620,0.05214
7096.76467,0.06525
7098.69313,0.11966
7100.62160,0.18084
7102.55007,0.23347
7104.47854,0.26117
7106.40701,0.24941
7108.33548,0.21293
7110.26395,0.18939
7112.19242,0.19151
7114.12088,0.16241
7116.04935,0.13398
7117.97782,0.18024
7119.90629,0.15529
7121.83476,0.00690
7123.76323,-0.10620
7125.69170,-0.10265
7127.62016,-0.04198
7129.54863,-0.04917
7131.47710,-0.10923
7133.40557,-0.09635
7135.33404,-0.00119
7137.26251,0.09790
7139.19098,0.11489
7141.11944,0.03791
7143.04791,0.01341
7144.97638,0.05467
7146.90485,0.06395
7148.83332,0.06911
7150.76179,0.11987
7152.69026,0.18169
7154.61873,0.16197
7156.54719,0.10895
7158.47566,0.10149
7160.40413,0.08845
7162.33260,-0.00210
7164.26107,-0.15247
7166.18954,-0.22558
7168.11801,-0.13521
7170.04647,0.00868
7171.97494,0.05906
7173.90341,0.00453
7175.83188,-0.04211
7177.76035,0.03436
7179.68882,0.13230
7181.61729,0.09854
7183.54576,0.00718
7185.47422,0.05384
7187.40269,0.19574
7189.33116,0.27551
7191.25963,0.22540
7193.18810,0.10412
7195.11657,0.01100
7197.04504,-0.03511
7198.97350,-0.07260
7200.90197,-0.07525
7202.83044,-0.01480
7204.75891,0.05244
7206.68738,0.09727
7208.61585,0.16745
7210.54432,0.24268
7212.47279,0.21992
7214.40125,0.05921
7216.32972,-0.13767
7218.25819,-0.23280
7220.18666,-0.21418
7222.11513,-0.15677
7224.04360,-0.06834
7225.97207,0.04114
7227.90053,0.13008
7229.82900,0.18988
7231.75747,0.15784
7233.68594,0.03648
7235.61441,-0.03740
7237.54288,0.02894
7239.47135,0.17197
7241.39982,0.22139
7243.32828,0.17865
7245.25675,0.14833
7247.18522,0.12064
7249.11369,0.11561
7251.04216,0.09956
7252.97063,0.04562
7254.89910,0.06047
7256.82756,0.02812
7258.75603,-0.09668
7260.68450,-0.15125
7262.61297,-0.07466
7264.54144,-0.02353
7266.46991,-0.11158
7268.39838,-0.25380
7270.32685,-0.26500
7272.25531,-0.11824
7274.18378,-0.11649
7276.11225,-0.25924
7278.04072,-0.30487
7279.96919,-0.11651
7281.89766,0.18146
7283.82613,0.27507
7285.75459,0.15284
7287.68306,-0.03156
7289.61153,-0.13617
7291.54000,-0.01631
7293.46847,0.21086
7295.39694,0.26316
7297.32541,0.15486
7299.25387,0.06915
7301.18234,0.05430
7303.11081,0.08159
7305.03928,0.05942
7306.96775,-0.06222
7308.89622,-0.06692
7310.82469,0.10651
7312.75316,0.16896
7314.68162,0.06214
7316.61009,-0.12988
7318.53856,-0.25662
7320.46703,-0.19316
7322.39550,0.01022
7324.32397,0.15244
7326.25244,0.21279
7328.18090,0.27308
7330.10937,0.12505
7332.03784,-0.15314
7333.96631,-0.21350
7335.89478,-0.11058
7337.82325,-0.00214
7339.75172,0.07337
7341.68019,0.03753
7343.60865,-0.08320
7345.53712,-0.15753
7347.46559,-0.07234
7349.39406,0.06900
7351.32253,0.08834
7353.25100,0.05947
7355.17947,0.09990
7357.10793,0.07153
7359.03640,-0.11704
7360.96487,-0.14510
7362.89334,0.02652
7364.82181,0.10703
7366.75028,0.04971
7368.67875,-0.00402
7370.60722,0.03874
7372.53568,0.16667
7374.46415,0.26698
7376.39262,0.19375
7378.32109,0.15034
7380.24956,0.12411
7382.17803,-0.08621
7384.10650,-0.32851
7386.03496,-0.36382
7387.96343,-0.21479
7389.89190,-0.02318
7391.82037,0.11170
7393.74884,0.18060
7395.67731,0.25192
7397.60578,0.31058
7399.53425,0.25459
7401.46271,0.11904
7403.39118,0.00907
7405.31965,-0.01900
7407.24812,0.04322
7409.17659,0.11841
7411.10506,0.10975
7413.03353,0.07746
7414.96199,0.11970
7416.89046,0.18604
7418.81893,0.13061
7420.74740,0.01973
7422.67587,0.01644
7424.60434,0.01463
7426.53281,-0.02373
7428.46128,0.03278
7430.38974,0.15836
7432.31821,0.08322
7434.24668,-0.07794
7436.17515,-0.06187
7438.10362,0.08408
7440.03209,0.18689
7441.96056,0.24255
7443.88902,0.27122
7445.81749,0.26032
7447.74596,0.33252
7449.67443,0.48071
7451.60290,0.45519
7453.53137,0.27499
7455.45984,0.20233
7457.38831,0.24388
7459.31677,0.19542
7461.24524,-0.04343
7463.17371,-0.16137
7465.10218,-0.11559
7467.03065,-0.04858
7468.95912,0.05958
7470.88759,0.15515
7472.81605,0.17507
7474.74452,0.19025
7476.67299,0.13170
7478.60146,0.01901
7480.52993,0.06906
7482.45840,0.21786
7484.38687,0.32053
7486.31533,0.39114
7488.24380,0.39212
7490.17227,0.25135
7492.10074,0.02300
7494.02921,-0.04302
7495.95768,0.04167
7497.88615,0.07757
