399.19301,0.14272
401.12148,0.07654
403.04995,0.15719
404.97842,0.31374
406.90689,0.38254
408.83536,0.27641
410.76382,0.15629
412.69229,0.14919
414.62076,0.12842
416.54923,0.04252
418.47770,-0.09485
420.40617,-0.17412
422.33464,-0.12361
424.26311,0.01059
426.19157,0.13142
428.12004,0.16110
430.04851,0.15385
431.97698,0.16135
433.90545,0.12625
435.83392,0.04071
437.76239,-0.00100
439.69085,0.02518
441.61932,0.05098
443.54779,0.05485
445.47626,0.07714
447.40473,0.07827
449.33320,0.05201
451.26167,0.02978
453.19013,0.00347
455.11860,0.00159
457.04707,0.06459
458.97554,0.13364
460.90401,0.11774
462.83248,0.06493
464.76095,0.06548
466.68942,0.11374
468.61788,0.12244
470.54635,0.07236
472.47482,0.05241
474.40329,0.12042
476.33176,0.13638
478.26023,0.12065
480.18870,0.12118
482.11716,0.10496
484.04563,0.08504
485.97410,0.11781
487.90257,0.15434
489.83104,0.14666
491.75951,0.13507
493.68798,0.11412
495.61645,0.07871
497.54491,0.05932
499.47338,0.05483
501.40185,0.05244
503.33032,0.04475
505.25879,0.04923
507.18726,0.05785
509.11573,0.05945
511.04419,0.07743
512.97266,0.10651
514.90113,0.13102
516.82960,0.12564
518.75807,0.08483
520.68654,0.04596
522.61501,0.02400
524.54348,0.02655
526.47194,0.05075
528.40041,0.06263
530.32888,0.05877
532.25735,0.06575
534.18582,0.08958
536.11429,0.10597
538.04276,0.09300
539.97122,0.08209
541.89969,0.09390
543.82816,0.10981
545.75663,0.11504
547.68510,0.10177
549.61357,0.09646
551.54204,0.12144
553.47051,0.13399
555.39897,0.10388
557.32744,0.07722
559.25591,0.08417
561.18438,0.08318
563.11285,0.06043
565.04132,0.06561
566.96979,0.11240
568.89825,0.13733
570.82672,0.12867
572.75519,0.12186
574.68366,0.11016
576.61213,0.10050
578.54060,0.10879
580.46907,0.11492
582.39754,0.10576
584.32600,0.09721
586.25447,0.10642
588.18294,0.11894
590.11141,0.10513
592.03988,0.07845
593.96835,0.06855
595.89682,0.05681
597.82528,0.04166
599.75375,0.05289
601.68222,0.07711
603.61069,0.08495
605.53916,0.07940
607.46763,0.07879
609.39610,0.08933
611.32456,0.09759
613.25303,0.10041
615.18150,0.10572
617.10997,0.10883
619.03844,0.09679
620.96691,0.07507
622.89538,0.06867
624.82385,0.08109
626.75231,0.09367
628.68078,0.09247
630.60925,0.08538
632.53772,0.08984
634.46619,0.09687
636.39466,0.09467
638.32313,0.09364
640.25159,0.08983
642.18006,0.07708
644.10853,0.07399
646.03700,0.07905
647.96547,0.07256
649.89394,0.06717
651.82241,0.07946
653.75088,0.09153
655.67934,0.08650
657.60781,0.07334
659.53628,0.06936
661.46475,0.07828
663.39322,0.09211
665.32169,0.09918
667.25016,0.08352
669.17862,0.05863
671.10709,0.07192
673.03556,0.09586
674.96403,0.10554
676.89250,0.10461
678.82097,0.10357
680.74944,0.09481
682.67791,0.07824
684.60637,0.07136
686.53484,0.07350
688.46331,0.07063
690.39178,0.06758
692.32025,0.07459
694.24872,0.09192
696.17719,0.10674
698.10565,0.10550
700.03412,0.09497
701.96259,0.08863
703.89106,0.09097
705.81953,0.09808
707.74800,0.10058
709.67647,0.08880
711.60494,0.07664
713.53340,0.09144
715.46187,0.11526
717.39034,0.11457
719.31881,0.10283
721.24728,0.10351
723.17575,0.11075
725.10422,0.11403
727.03268,0.11436
728.96115,0.11103
730.88962,0.10174
732.81809,0.09427
734.74656,0.09904
736.67503,0.10981
738.60350,0.10807
740.53197,0.09239
742.46043,0.08421
744.38890,0.08960
746.31737,0.09568
748.24584,0.10152
750.17431,0.10731
752.10278,0.10933
754.03125,0.11280
755.95971,0.11748
757.88818,0.11802
759.81665,0.11497
761.74512,0.11263
763.67359,0.11204
765.60206,0.10905
767.53053,0.10353
769.45900,0.10153
771.38746,0.10655
773.31593,0.11216
775.24440,0.11520
777.17287,0.11773
779.10134,0.11707
781.02981,0.11118
782.95828,0.10393
784.88674,0.10568
786.81521,0.11412
788.74368,0.11737
790.67215,0.11592
792.60062,0.11312
794.52909,0.10868
796.45756,0.10598
798.38602,0.10973
800.31449,0.11644
802.24296,0.12196
804.17143,0.12970
806.09990,0.13523
808.02837,0.12663
809.95684,0.10935
811.88531,0.09538
813.81377,0.08695
815.74224,0.08789
817.67071,0.09416
819.59918,0.10111
821.52765,0.10812
823.45612,0.10948
825.38459,0.10903
827.31305,0.11552
829.24152,0.12976
831.16999,0.13941
833.09846,0.13524
835.02693,0.12794
836.95540,0.12508
838.88387,0.12488
840.81234,0.12342
842.74080,0.11759
844.66927,0.11876
846.59774,0.13070
848.52621,0.13316
850.45468,0.12056
852.38315,0.11013
854.31162,0.11100
856.24008,0.12191
858.16855,0.13545
860.09702,0.14084
862.02549,0.13693
863.95396,0.13076
865.88243,0.12294
867.81090,0.11107
869.73937,0.10643
871.66783,0.11822
873.59630,0.13413
875.52477,0.14150
877.45324,0.13815
879.38171,0.12651
881.31018,0.11817
883.23865,0.11858
885.16711,0.11789
887.09558,0.11246
889.02405,0.10895
890.95252,0.11537
892.88099,0.12734
894.80946,0.12835
896.73793,0.12315
898.66640,0.12507
900.59486,0.12334
902.52333,0.11424
904.45180,0.11315
906.38027,0.12073
908.30874,0.12940
910.23721,0.13785
912.16568,0.14016
914.09414,0.13160
916.02261,0.12083
917.95108,0.11907
919.87955,0.12225
921.80802,0.12092
923.73649,0.11861
925.66496,0.12032
927.59343,0.12309
929.52189,0.12497
931.45036,0.12764
933.37883,0.13140
935.30730,0.12914
937.23577,0.12107
939.16424,0.12022
941.09271,0.12542
943.02117,0.12432
944.94964,0.11748
946.87811,0.11599
948.80658,0.12398
950.73505,0.13463
952.66352,0.14068
954.59199,0.13775
956.52045,0.12924
958.44892,0.12283
960.37739,0.11887
962.30586,0.11570
964.23433,0.11644
966.16280,0.12245
968.09127,0.12835
970.01974,0.13007
971.94820,0.13025
973.87667,0.12851
975.80514,0.12464
977.73361,0.12640
979.66208,0.13460
981.59055,0.14179
983.51902,0.14560
985.44748,0.14616
987.37595,0.14281
989.30442,0.13772
991.23289,0.13532
993.16136,0.13873
995.08983,0.14432
997.01830,0.14302
998.94677,0.14018
1000.87523,0.14475
1002.80370,0.14642
1004.73217,0.13980
1006.66064,0.13396
1008.58911,0.13366
1010.51758,0.13691
1012.44605,0.13956
1014.37451,0.14122
1016.30298,0.14277
1018.23145,0.14357
1020.15992,0.14184
1022.08839,0.13590
1024.01686,0.13155
1025.94533,0.13345
1027.87380,0.13903
1029.80226,0.14587
1031.73073,0.15004
1033.65920,0.14769
1035.58767,0.14122
1037.51614,0.13889
1039.44461,0.14339
1041.37308,0.14955
1043.30154,0.15450
1045.23001,0.15600
1047.15848,0.15166
1049.08695,0.14434
1051.01542,0.14037
1052.94389,0.13968
1054.87236,0.13859
1056.80083,0.13818
1058.72929,0.13778
1060.65776,0.13918
1062.58623,0.14558
1064.51470,0.15063
1066.44317,0.15168
1068.37164,0.15083
1070.30011,0.14869
1072.22857,0.14897
1074.15704,0.14980
1076.08551,0.14978
1078.01398,0.14795
1079.94245,0.13983
1081.87092,0.13187
1083.79939,0.13162
1085.72786,0.13637
1087.65632,0.14171
1089.58479,0.14571
1091.51326,0.14481
1093.44173,0.14179
1095.37020,0.14375
1097.29867,0.14579
1099.22714,0.14543
1101.15560,0.15022
1103.08407,0.15818
1105.01254,0.15702
1106.94101,0.14553
1108.86948,0.13495
1110.79795,0.13066
1112.72642,0.13313
1114.65489,0.13966
1116.58335,0.14588
1118.51182,0.15180
1120.44029,0.15422
1122.36876,0.15260
1124.29723,0.15193
1126.22570,0.15001
1128.15417,0.14628
1130.08263,0.14320
1132.01110,0.13743
1133.93957,0.13005
1135.86804,0.12827
1137.79651,0.13400
1139.72498,0.13992
1141.65345,0.14257
1143.58191,0.14473
1145.51038,0.14687
1147.43885,0.15166
1149.36732,0.15710
1151.29579,0.15742
1153.22426,0.15685
1155.15273,0.15904
1157.08120,0.15875
1159.00966,0.15525
1160.93813,0.15464
1162.86660,0.15541
1164.79507,0.15440
1166.72354,0.15332
1168.65201,0.14950
1170.58048,0.14381
1172.50894,0.14211
1174.43741,0.14410
1176.36588,0.14679
1178.29435,0.14948
1180.22282,0.15250
1182.15129,0.15479
1184.07976,0.15436
1186.00823,0.15094
1187.93669,0.14884
1189.86516,0.15187
1191.79363,0.15426
1193.72210,0.15199
1195.65057,0.15143
1197.57904,0.15511
1199.50751,0.15835
1201.43597,0.15866
1203.36444,0.15727
1205.29291,0.15545
1207.22138,0.15323
1209.14985,0.15085
1211.07832,0.14987
1213.00679,0.15276
1214.93526,0.15671
1216.86372,0.15725
1218.79219,0.15930
1220.72066,0.16274
1222.64913,0.16018
1224.57760,0.15498
1226.50607,0.15302
1228.43454,0.15372
1230.36300,0.15364
1232.29147,0.15030
1234.21994,0.14702
1236.14841,0.14677
1238.07688,0.14850
1240.00535,0.14988
1241.93382,0.14974
1243.86229,0.15104
1245.79075,0.15555
1247.71922,0.15997
1249.64769,0.16040
1251.57616,0.15642
1253.50463,0.15166
1255.43310,0.15127
1257.36157,0.15390
1259.29003,0.15216
1261.21850,0.14685
1263.14697,0.14514
1265.07544,0.14831
1267.00391,0.15177
1268.93238,0.15260
1270.86085,0.15591
1272.78932,0.16087
1274.71778,0.16014
1276.64625,0.15854
1278.57472,0.16036
1280.50319,0.16010
1282.43166,0.15837
1284.36013,0.15906
1286.28860,0.15951
1288.21706,0.15912
1290.14553,0.15994
1292.07400,0.15966
1294.00247,0.15747
1295.93094,0.15491
1297.85941,0.15252
1299.78788,0.14795
1301.71634,0.13459
1303.64481,0.11835
1305.57328,0.11942
1307.50175,0.13927
1309.43022,0.15667
1311.35869,0.16290
1313.28716,0.16548
1315.21563,0.16675
1317.14409,0.16483
1319.07256,0.16144
1321.00103,0.16180
1322.92950,0.16640
1324.85797,0.16553
1326.78644,0.15789
1328.71491,0.15436
1330.64337,0.15395
1332.57184,0.15318
1334.50031,0.15409
1336.42878,0.15416
1338.35725,0.15529
1340.28572,0.15594
1342.21419,0.15435
1344.14266,0.15509
1346.07112,0.15580
1347.99959,0.15631
1349.92806,0.15660
1351.85653,0.15528
1353.78500,0.15518
1355.71347,0.15557
1357.64194,0.15585
1359.57040,0.16008
1361.49887,0.17018
1363.42734,0.17810
1365.35581,0.17586
1367.28428,0.16882
1369.21275,0.16471
1371.14122,0.16795
1373.06969,0.17530
1374.99815,0.17751
1376.92662,0.17234
1378.85509,0.16764
1380.78356,0.16689
1382.71203,0.16948
1384.64050,0.17479
1386.56897,0.17924
1388.49743,0.17874
1390.42590,0.17712
1392.35437,0.17857
1394.28284,0.18189
1396.21131,0.18246
1398.13978,0.17934
1400.06825,0.17527
1401.99672,0.17230
1403.92518,0.17168
1405.85365,0.17232
1407.78212,0.17227
1409.71059,0.17179
1411.63906,0.17228
1413.56753,0.17379
1415.49600,0.17532
1417.42446,0.17739
1419.35293,0.17902
1421.28140,0.17929
1423.20987,0.17914
1425.13834,0.17663
1427.06681,0.17371
1428.99528,0.17403
1430.92375,0.17662
1432.85221,0.17922
1434.78068,0.18155
1436.70915,0.18136
1438.63762,0.17832
1440.56609,0.17720
1442.49456,0.17868
1444.42303,0.18039
1446.35149,0.18051
1448.27996,0.17944
1450.20843,0.17898
1452.13690,0.18110
1454.06537,0.18613
1455.99384,0.19368
1457.92231,0.19655
1459.85077,0.19021
1461.77924,0.18705
1463.70771,0.18879
1465.63618,0.18887
1467.56465,0.18635
1469.49312,0.18848
1471.42159,0.19451
1473.35006,0.19555
1475.27852,0.19085
1477.20699,0.18568
1479.13546,0.18136
1481.06393,0.17918
1482.99240,0.17989
1484.92087,0.18438
1486.84934,0.19215
1488.77780,0.19969
1490.70627,0.19886
1492.63474,0.19289
1494.56321,0.19185
1496.49168,0.19648
1498.42015,0.19625
1500.34862,0.18867
1502.27709,0.18488
1504.20555,0.19035
1506.13402,0.20749
1508.06249,0.21918
1509.99096,0.21258
1511.91943,0.20447
1513.84790,0.19965
1515.77637,0.20046
1517.70483,0.20589
1519.63330,0.21285
1521.56177,0.21643
1523.49024,0.21027
1525.41871,0.20419
1527.34718,0.20159
1529.27565,0.19775
1531.20412,0.19533
1533.13258,0.19703
1535.06105,0.19733
1536.98952,0.19841
1538.91799,0.20893
1540.84646,0.21963
1542.77493,0.21266
1544.70340,0.20230
1546.63186,0.19374
1548.56033,0.19192
1550.48880,0.19680
1552.41727,0.20098
1554.34574,0.20243
1556.27421,0.20664
1558.20268,0.21565
1560.13115,0.21123
1562.05961,0.20082
1563.98808,0.19554
1565.91655,0.19419
1567.84502,0.19614
1569.77349,0.19749
1571.70196,0.19778
1573.63043,0.20089
1575.55889,0.20318
1577.48736,0.19790
1579.41583,0.19036
1581.34430,0.18543
1583.27277,0.18462
1585.20124,0.18670
1587.12971,0.18816
1589.05818,0.18778
1590.98664,0.18712
1592.91511,0.18874
1594.84358,0.19115
1596.77205,0.19037
1598.70052,0.18763
1600.62899,0.18708
1602.55746,0.18823
1604.48592,0.18725
1606.41439,0.18552
1608.34286,0.18568
1610.27133,0.18565
1612.19980,0.18582
1614.12827,0.18876
1616.05674,0.19352
1617.98521,0.19564
1619.91367,0.19622
1621.84214,0.19898
1623.77061,0.20096
1625.69908,0.19995
1627.62755,0.20001
1629.55602,0.19925
1631.48449,0.19629
1633.41295,0.19621
1635.34142,0.20287
1637.26989,0.20600
1639.19836,0.20091
1641.12683,0.19662
1643.05530,0.19590
1644.98377,0.20132
1646.91223,0.21277
1648.84070,0.21531
1650.76917,0.21527
1652.69764,0.22224
1654.62611,0.21726
1656.55458,0.20549
1658.48305,0.19908
1660.41152,0.19701
1662.33998,0.19670
1664.26845,0.19398
1666.19692,0.19289
1668.12539,0.19980
1670.05386,0.20869
1671.98233,0.20572
1673.91080,0.19878
1675.83926,0.19583
1677.76773,0.19751
1679.69620,0.20080
1681.62467,0.20779
1683.55314,0.22393
1685.48161,0.22838
1687.41008,0.21579
1689.33855,0.20451
1691.26701,0.19703
1693.19548,0.19649
1695.12395,0.20425
1697.05242,0.21116
1698.98089,0.20820
1700.90936,0.20275
1702.83783,0.20303
1704.76629,0.20416
1706.69476,0.19982
1708.62323,0.19451
1710.55170,0.19377
1712.48017,0.19801
1714.40864,0.20701
1716.33711,0.21651
1718.26558,0.21230
1720.19404,0.19847
1722.12251,0.18983
1724.05098,0.18641
1725.97945,0.18641
1727.90792,0.19256
1729.83639,0.20351
1731.76486,0.21119
1733.69332,0.20942
1735.62179,0.20128
1737.55026,0.19941
1739.47873,0.20248
1741.40720,0.20160
1743.33567,0.19679
1745.26414,0.19528
1747.19261,0.19751
1749.12107,0.20022
1751.04954,0.19954
1752.97801,0.19595
1754.90648,0.19525
1756.83495,0.19691
1758.76342,0.19582
1760.69189,0.19328
1762.62035,0.19228
1764.54882,0.19250
1766.47729,0.19366
1768.40576,0.19603
1770.33423,0.20067
1772.26270,0.20398
1774.19117,0.19952
1776.11964,0.19373
1778.04810,0.19229
1779.97657,0.19427
1781.90504,0.19573
1783.83351,0.19405
1785.76198,0.18997
1787.69045,0.18842
1789.61892,0.19237
1791.54738,0.19844
1793.47585,0.20008
1795.40432,0.19708
1797.33279,0.19396
1799.26126,0.19245
1801.18973,0.18983
1803.11820,0.18564
1805.04666,0.18517
1806.97513,0.18818
1808.90360,0.19033
1810.83207,0.19090
1812.76054,0.19175
1814.68901,0.19242
1816.61748,0.19124
1818.54595,0.18924
1820.47441,0.18874
1822.40288,0.19082
1824.33135,0.19297
1826.25982,0.19189
1828.18829,0.19078
1830.11676,0.19086
1832.04523,0.19010
1833.97369,0.19054
1835.90216,0.19239
1837.83063,0.19258
1839.75910,0.19257
1841.68757,0.19656
1843.61604,0.20140
1845.54451,0.19943
1847.47298,0.19427
1849.40144,0.19181
1851.32991,0.19130
1853.25838,0.19036
1855.18685,0.18850
1857.11532,0.18781
1859.04379,0.18882
1860.97226,0.18857
1862.90072,0.18894
1864.82919,0.19332
1866.75766,0.19805
1868.68613,0.19865
1870.61460,0.19678
1872.54307,0.19565
1874.47154,0.19435
1876.40001,0.19167
1878.32847,0.18954
1880.25694,0.18952
1882.18541,0.19052
1884.11388,0.19122
1886.04235,0.19204
1887.97082,0.19372
1889.89929,0.19429
1891.82775,0.19332
1893.75622,0.19319
1895.68469,0.19340
1897.61316,0.19224
1899.54163,0.19009
1901.47010,0.18880
1903.39857,0.18982
1905.32704,0.19240
1907.25550,0.19360
1909.18397,0.19185
1911.11244,0.19031
1913.04091,0.19215
1914.96938,0.19598
1916.89785,0.19901
1918.82632,0.19848
1920.75478,0.19516
1922.68325,0.19310
1924.61172,0.19324
1926.54019,0.19336
1928.46866,0.19282
1930.39713,0.19302
1932.32560,0.19437
1934.25407,0.19443
1936.18253,0.19123
1938.11100,0.18881
1940.03947,0.19141
1941.96794,0.19454
1943.89641,0.19369
1945.82488,0.19171
1947.75335,0.18970
1949.68181,0.18792
1951.61028,0.18826
1953.53875,0.18939
1955.46722,0.18976
1957.39569,0.18966
1959.32416,0.18942
1961.25263,0.18970
1963.18110,0.19004
1965.10956,0.19089
1967.03803,0.19229
1968.96650,0.19293
1970.89497,0.19379
1972.82344,0.19479
1974.75191,0.19438
1976.68038,0.19359
1978.60884,0.19459
1980.53731,0.19597
1982.46578,0.19484
1984.39425,0.19179
1986.32272,0.19059
1988.25119,0.19287
1990.17966,0.19577
1992.10812,0.19722
1994.03659,0.19676
1995.96506,0.19516
1997.89353,0.19410
1999.82200,0.19332
2001.75047,0.19250
2003.67894,0.19170
2005.60741,0.19093
2007.53587,0.19150
2009.46434,0.19299
2011.39281,0.19224
2013.32128,0.18942
2015.24975,0.18916
2017.17822,0.19256
2019.10669,0.19461
2021.03515,0.19260
2022.96362,0.18960
2024.89209,0.18924
2026.82056,0.19090
2028.74903,0.19189
2030.67750,0.19263
2032.60597,0.19432
2034.53444,0.19594
2036.46290,0.19569
2038.39137,0.19384
2040.31984,0.19238
2042.24831,0.19214
2044.17678,0.19375
2046.10525,0.19549
2048.03372,0.19514
2049.96218,0.19589
2051.89065,0.19802
2053.81912,0.19695
2055.74759,0.19371
2057.67606,0.19246
2059.60453,0.19371
2061.53300,0.19485
2063.46147,0.19468
2065.38993,0.19537
2067.31840,0.19709
2069.24687,0.19736
2071.17534,0.19684
2073.10381,0.19750
2075.03228,0.19863
2076.96075,0.19834
2078.88921,0.19623
2080.81768,0.19466
2082.74615,0.19603
2084.67462,0.19831
2086.60309,0.19836
2088.53156,0.19680
2090.46003,0.19624
2092.38850,0.19692
2094.31696,0.19684
2096.24543,0.19626
2098.17390,0.19614
2100.10237,0.19650
2102.03084,0.19840
2103.95931,0.20029
2105.88778,0.19974
2107.81624,0.19874
2109.74471,0.19901
2111.67318,0.19855
2113.60165,0.19681
2115.53012,0.19611
2117.45859,0.19623
2119.38706,0.19558
2121.31553,0.19602
2123.24399,0.19837
2125.17246,0.19937
2127.10093,0.19827
2129.02940,0.19683
2130.95787,0.19615
2132.88634,0.19868
2134.81481,0.20271
2136.74327,0.20162
2138.67174,0.19603
2140.60021,0.19272
2142.52868,0.19364
2144.45715,0.19619
2146.38562,0.19750
2148.31409,0.19677
2150.24255,0.19589
2152.17102,0.19728
2154.09949,0.20003
2156.02796,0.20113
2157.95643,0.20093
2159.88490,0.20011
2161.81337,0.19816
2163.74184,0.19724
2165.67030,0.19893
2167.59877,0.20151
2169.52724,0.20224
2171.45571,0.20062
2173.38418,0.19878
2175.31265,0.19897
2177.24112,0.20177
2179.16958,0.20450
2181.09805,0.20353
2183.02652,0.19962
2184.95499,0.19577
2186.88346,0.19374
2188.81193,0.19375
2190.74040,0.19415
2192.66887,0.19469
2194.59733,0.19597
2196.52580,0.19702
2198.45427,0.19723
2200.38274,0.19726
2202.31121,0.19888
2204.23968,0.20154
2206.16815,0.20169
2208.09661,0.19947
2210.02508,0.19774
2211.95355,0.19665
2213.88202,0.19594
2215.81049,0.19530
2217.73896,0.19413
2219.66743,0.19362
2221.59590,0.19502
2223.52436,0.19766
2225.45283,0.19902
2227.38130,0.19763
2229.30977,0.19559
2231.23824,0.19534
2233.16671,0.19550
2235.09518,0.19574
2237.02364,0.19869
2238.95211,0.20165
2240.88058,0.20094
2242.80905,0.19984
2244.73752,0.19990
2246.66599,0.19759
2248.59446,0.19443
2250.52293,0.19489
2252.45139,0.19687
2254.37986,0.19726
2256.30833,0.19685
2258.23680,0.19732
2260.16527,0.19848
2262.09374,0.19803
2264.02221,0.19694
2265.95067,0.19766
2267.87914,0.19821
2269.80761,0.19766
2271.73608,0.19758
2273.66455,0.19751
2275.59302,0.19750
2277.52149,0.19771
2279.44996,0.19783
2281.37842,0.19847
2283.30689,0.19935
2285.23536,0.19925
2287.16383,0.19764
2289.09230,0.19399
2291.02077,0.18905
2292.94924,0.18652
2294.87770,0.18766
2296.80617,0.18989
2298.73464,0.18993
2300.66311,0.18781
2302.59158,0.18766
2304.52005,0.18929
2306.44852,0.18910
2308.37699,0.18509
2310.30545,0.17864
2312.23392,0.17458
2314.16239,0.17491
2316.09086,0.17664
2318.01933,0.17565
2319.94780,0.17418
2321.87627,0.17806
2323.80473,0.18250
2325.73320,0.17913
2327.66167,0.17013
2329.59014,0.16256
2331.51861,0.16141
2333.44708,0.16491
2335.37555,0.16705
2337.30401,0.16485
2339.23248,0.15961
2341.16095,0.15752
2343.08942,0.16074
2345.01789,0.16963
2346.94636,0.17940
2348.87483,0.18077
2350.80330,0.17602
2352.73176,0.17299
2354.66023,0.17384
2356.58870,0.16700
2358.51717,0.14273
2360.44564,0.11563
2362.37411,0.11544
2364.30258,0.14155
2366.23104,0.16130
2368.15951,0.16891
2370.08798,0.17487
2372.01645,0.17757
2373.94492,0.17708
2375.87339,0.17867
2377.80186,0.18417
2379.73033,0.18946
2381.65879,0.19250
2383.58726,0.19414
2385.51573,0.19530
2387.44420,0.19744
2389.37267,0.20000
2391.30114,0.20004
2393.22961,0.19697
2395.15807,0.19501
2397.08654,0.19646
2399.01501,0.19890
2400.94348,0.20109
2402.87195,0.20223
2404.80042,0.20162
2406.72889,0.20101
2408.65736,0.20081
2410.58582,0.20008
2412.51429,0.19896
2414.44276,0.19800
2416.37123,0.19839
2418.29970,0.20017
2420.22817,0.20200
2422.15664,0.20253
2424.08510,0.20102
2426.01357,0.19816
2427.94204,0.19591
2429.87051,0.19647
2431.79898,0.19924
2433.72745,0.20134
2435.65592,0.20188
2437.58439,0.20200
2439.51285,0.20143
2441.44132,0.19880
2443.36979,0.19723
2445.29826,0.19999
2447.22673,0.20434
2449.15520,0.20756
2451.08367,0.20871
2453.01213,0.20650
2454.94060,0.20240
2456.86907,0.19925
2458.79754,0.19862
2460.72601,0.19925
2462.65448,0.19857
2464.58295,0.19833
2466.51142,0.19993
2468.43988,0.20056
2470.36835,0.20043
2472.29682,0.20265
2474.22529,0.20573
2476.15376,0.20504
2478.08223,0.20193
2480.01070,0.20198
2481.93916,0.20446
2483.86763,0.20448
2485.79610,0.20277
2487.72457,0.20231
2489.65304,0.20120
2491.58151,0.19963
2493.50998,0.20056
2495.43844,0.20213
2497.36691,0.20261
2499.29538,0.20346
2501.22385,0.20514
2503.15232,0.20649
2505.08079,0.20644
2507.00926,0.20595
2508.93773,0.20544
2510.86619,0.20396
2512.79466,0.20251
2514.72313,0.20214
2516.65160,0.20211
2518.58007,0.20156
2520.50854,0.20028
2522.43701,0.19904
2524.36547,0.19828
2526.29394,0.19807
2528.22241,0.20021
2530.15088,0.20501
2532.07935,0.20748
2534.00782,0.20537
2535.93629,0.20285
2537.86476,0.20241
2539.79322,0.20313
2541.72169,0.20380
2543.65016,0.20418
2545.57863,0.20399
2547.50710,0.20359
2549.43557,0.20421
2551.36404,0.20533
2553.29250,0.20638
2555.22097,0.20720
2557.14944,0.20641
2559.07791,0.20476
2561.00638,0.20490
2562.93485,0.20602
2564.86332,0.20557
2566.79179,0.20506
2568.72025,0.20600
2570.64872,0.20608
2572.57719,0.20511
2574.50566,0.20547
2576.43413,0.20653
2578.36260,0.20510
2580.29107,0.20188
2582.21953,0.20046
2584.14800,0.20021
2586.07647,0.20059
2588.00494,0.20349
2589.93341,0.20713
2591.86188,0.20825
2593.79035,0.20672
2595.71882,0.20426
2597.64728,0.20219
2599.57575,0.20177
2601.50422,0.20357
2603.43269,0.20588
2605.36116,0.20653
2607.28963,0.20631
2609.21810,0.20757
2611.14656,0.20944
2613.07503,0.20898
2615.00350,0.20669
2616.93197,0.20642
2618.86044,0.20846
2620.78891,0.20790
2622.71738,0.20343
2624.64585,0.20128
2626.57431,0.20401
2628.50278,0.20600
2630.43125,0.20549
2632.35972,0.20485
2634.28819,0.20474
2636.21666,0.20539
2638.14513,0.20556
2640.07359,0.20446
2642.00206,0.20396
2643.93053,0.20496
2645.85900,0.20591
2647.78747,0.20617
2649.71594,0.20632
2651.64441,0.20783
2653.57288,0.21015
2655.50134,0.21039
2657.42981,0.20949
2659.35828,0.20793
2661.28675,0.20461
2663.21522,0.20247
2665.14369,0.20345
2667.07216,0.20630
2669.00062,0.20929
2670.92909,0.20907
2672.85756,0.20610
2674.78603,0.20554
2676.71450,0.20698
2678.64297,0.20764
2680.57144,0.20905
2682.49990,0.21061
2684.42837,0.21029
2686.35684,0.21035
2688.28531,0.21092
2690.21378,0.20956
2692.14225,0.20826
2694.07072,0.20861
2695.99919,0.20931
2697.92765,0.21005
2699.85612,0.21082
2701.78459,0.20994
2703.71306,0.20779
2705.64153,0.20754
2707.57000,0.20824
2709.49847,0.20877
2711.42693,0.21095
2713.35540,0.21377
2715.28387,0.21442
2717.21234,0.21233
2719.14081,0.21022
2721.06928,0.21046
2722.99775,0.21179
2724.92622,0.21101
2726.85468,0.20899
2728.78315,0.21110
2730.71162,0.21561
2732.64009,0.21550
2734.56856,0.21238
2736.49703,0.21108
2738.42550,0.21054
2740.35396,0.21059
2742.28243,0.21302
2744.21090,0.21568
2746.13937,0.21458
2748.06784,0.21019
2749.99631,0.20754
2751.92478,0.20925
2753.85325,0.21266
2755.78171,0.21418
2757.71018,0.21408
2759.63865,0.21502
2761.56712,0.21577
2763.49559,0.21428
2765.42406,0.21282
2767.35253,0.21245
2769.28099,0.21267
2771.20946,0.21545
2773.13793,0.21901
2775.06640,0.21894
2776.99487,0.21665
2778.92334,0.21547
2780.85181,0.21520
2782.78028,0.21406
2784.70874,0.21304
2786.63721,0.21449
2788.56568,0.21698
2790.49415,0.21926
2792.42262,0.22096
2794.35109,0.21976
2796.27956,0.21718
2798.20802,0.21601
2800.13649,0.21553
2802.06496,0.21588
2803.99343,0.21715
2805.92190,0.21793
2807.85037,0.21703
2809.77884,0.21516
2811.70731,0.21557
2813.63577,0.21795
2815.56424,0.21846
2817.49271,0.21718
2819.42118,0.21749
2821.34965,0.22097
2823.27812,0.22490
2825.20659,0.22483
2827.13505,0.22114
2829.06352,0.21841
2830.99199,0.21812
2832.92046,0.21907
2834.84893,0.22075
2836.77740,0.22200
2838.70587,0.22381
2840.63433,0.22633
2842.56280,0.22492
2844.49127,0.22135
2846.41974,0.22101
2848.34821,0.22224
2850.27668,0.22331
2852.20515,0.22529
2854.13362,0.22724
2856.06208,0.22651
2857.99055,0.22285
2859.91902,0.21808
2861.84749,0.21506
2863.77596,0.21592
2865.70443,0.21880
2867.63290,0.22103
2869.56136,0.22195
2871.48983,0.22242
2873.41830,0.22167
2875.34677,0.21983
2877.27524,0.21998
2879.20371,0.22131
2881.13218,0.22026
2883.06065,0.21605
2884.98911,0.21249
2886.91758,0.21427
2888.84605,0.21953
2890.77452,0.22118
2892.70299,0.21702
2894.63146,0.21321
2896.55993,0.21372
2898.48839,0.21521
2900.41686,0.21657
2902.34533,0.21835
2904.27380,0.21732
2906.20227,0.21507
2908.13074,0.21569
2910.05921,0.21591
2911.98768,0.21387
2913.91614,0.21103
2915.84461,0.20619
2917.77308,0.20485
2919.70155,0.20960
2921.63002,0.21756
2923.55849,0.23289
2925.48696,0.24338
2927.41542,0.24015
2929.34389,0.23447
2931.27236,0.22643
2933.20083,0.21887
2935.12930,0.21353
2937.05777,0.20798
2938.98624,0.21113
2940.91471,0.21873
2942.84317,0.21997
2944.77164,0.21421
2946.70011,0.20400
2948.62858,0.20065
2950.55705,0.20783
2952.48552,0.21398
2954.41399,0.21397
2956.34245,0.20616
2958.27092,0.19893
2960.19939,0.20568
2962.12786,0.21795
2964.05633,0.22225
2965.98480,0.21694
2967.91327,0.21124
2969.84174,0.21493
2971.77020,0.22177
2973.69867,0.22510
2975.62714,0.22235
2977.55561,0.21178
2979.48408,0.20633
2981.41255,0.21368
2983.34102,0.22304
2985.26948,0.22577
2987.19795,0.22132
2989.12642,0.21824
2991.05489,0.22209
2992.98336,0.22523
2994.91183,0.22596
2996.84030,0.22601
2998.76877,0.22378
3000.69723,0.22206
3002.62570,0.22129
3004.55417,0.21957
3006.48264,0.21770
3008.41111,0.21492
3010.33958,0.20589
3012.26805,0.18389
3014.19651,0.14883
3016.12498,0.12094
3018.05345,0.13446
3019.98192,0.18256
3021.91039,0.21732
3023.83886,0.22506
3025.76733,0.22394
3027.69579,0.22284
3029.62426,0.22475
3031.55273,0.23005
3033.48120,0.23595
3035.40967,0.23695
3037.33814,0.23097
3039.26661,0.22594
3041.19508,0.22614
3043.12354,0.22780
3045.05201,0.22579
3046.98048,0.21973
3048.90895,0.21821
3050.83742,0.22189
3052.76589,0.22215
3054.69436,0.21630
3056.62282,0.20854
3058.55129,0.20928
3060.47976,0.21798
3062.40823,0.22145
3064.33670,0.21635
3066.26517,0.21046
3068.19364,0.21357
3070.12211,0.22245
3072.05057,0.22528
3073.97904,0.21895
3075.90751,0.20935
3077.83598,0.20736
3079.76445,0.21212
3081.69292,0.21478
3083.62139,0.21264
3085.54985,0.20760
3087.47832,0.21028
3089.40679,0.22126
3091.33526,0.22321
3093.26373,0.21120
3095.19220,0.20557
3097.12067,0.21651
3099.04914,0.22535
3100.97760,0.22060
3102.90607,0.21013
3104.83454,0.20880
3106.76301,0.21795
3108.69148,0.22120
3110.61995,0.21342
3112.54842,0.20485
3114.47688,0.20703
3116.40535,0.21816
3118.33382,0.22451
3120.26229,0.22002
3122.19076,0.21298
3124.11923,0.21615
3126.04770,0.22603
3127.97617,0.22816
3129.90463,0.22029
3131.83310,0.21355
3133.76157,0.21549
3135.69004,0.22195
3137.61851,0.22443
3139.54698,0.22249
3141.47545,0.22406
3143.40391,0.22878
3145.33238,0.23049
3147.26085,0.22872
3149.18932,0.22881
3151.11779,0.23347
3153.04626,0.23480
3154.97473,0.22942
3156.90320,0.22487
3158.83166,0.22609
3160.76013,0.22997
3162.68860,0.23209
3164.61707,0.23242
3166.54554,0.23233
3168.47401,0.23303
3170.40248,0.23506
3172.33094,0.23696
3174.25941,0.23711
3176.18788,0.23565
3178.11635,0.23475
3180.04482,0.23623
3181.97329,0.23686
3183.90176,0.23460
3185.83022,0.23510
3187.75869,0.23741
3189.68716,0.23404
3191.61563,0.22936
3193.54410,0.23040
3195.47257,0.23305
3197.40104,0.23339
3199.32951,0.23377
3201.25797,0.23411
3203.18644,0.23234
3205.11491,0.22945
3207.04338,0.22655
3208.97185,0.22536
3210.90032,0.22839
3212.82879,0.23135
3214.75725,0.22828
3216.68572,0.22408
3218.61419,0.22668
3220.54266,0.23262
3222.47113,0.23394
3224.39960,0.23004
3226.32807,0.22622
3228.25654,0.22714
3230.18500,0.22983
3232.11347,0.23072
3234.04194,0.23270
3235.97041,0.23480
3237.89888,0.23333
3239.82735,0.23045
3241.75582,0.23023
3243.68428,0.23154
3245.61275,0.23131
3247.54122,0.23186
3249.46969,0.23350
3251.39816,0.23456
3253.32663,0.23488
3255.25510,0.23179
3257.18357,0.22876
3259.11203,0.23094
3261.04050,0.23419
3262.96897,0.23476
3264.89744,0.23331
3266.82591,0.23181
3268.75438,0.23278
3270.68285,0.23530
3272.61131,0.23422
3274.53978,0.22981
3276.46825,0.22777
3278.39672,0.22685
3280.32519,0.22412
3282.25366,0.22169
3284.18213,0.22164
3286.11060,0.22418
3288.03906,0.22529
3289.96753,0.22303
3291.89600,0.22198
3293.82447,0.22354
3295.75294,0.22601
3297.68141,0.22909
3299.60988,0.23128
3301.53834,0.23135
3303.46681,0.23088
3305.39528,0.23110
3307.32375,0.23110
3309.25222,0.22987
3311.18069,0.22822
3313.10916,0.22709
3315.03763,0.22485
3316.96609,0.22298
3318.89456,0.22495
3320.82303,0.22776
3322.75150,0.22805
3324.67997,0.22652
3326.60844,0.22504
3328.53691,0.22534
3330.46537,0.22663
3332.39384,0.22853
3334.32231,0.23040
3336.25078,0.22959
3338.17925,0.22759
3340.10772,0.22908
3342.03619,0.23403
3343.96466,0.23730
3345.89312,0.23695
3347.82159,0.23662
3349.75006,0.23662
3351.67853,0.23400
3353.60700,0.23137
3355.53547,0.23162
3357.46394,0.23110
3359.39240,0.23016
3361.32087,0.23265
3363.24934,0.23538
3365.17781,0.23598
3367.10628,0.23535
3369.03475,0.23345
3370.96322,0.23324
3372.89168,0.23551
3374.82015,0.23514
3376.74862,0.22972
3378.67709,0.22436
3380.60556,0.22310
3382.53403,0.22421
3384.46250,0.22654
3386.39097,0.22864
3388.31943,0.23032
3390.24790,0.23312
3392.17637,0.23334
3394.10484,0.22896
3396.03331,0.22629
3397.96178,0.23009
3399.89025,0.23470
3401.81871,0.23395
3403.74718,0.23172
3405.67565,0.23203
3407.60412,0.23054
3409.53259,0.22172
3411.46106,0.21256
3413.38953,0.21398
3415.31800,0.22004
3417.24646,0.22142
3419.17493,0.22228
3421.10340,0.22610
3423.03187,0.22754
3424.96034,0.22493
3426.88881,0.22055
3428.81728,0.21492
3430.74574,0.21132
3432.67421,0.21165
3434.60268,0.21358
3436.53115,0.21712
3438.45962,0.22146
3440.38809,0.22217
3442.31656,0.21857
3444.24503,0.21581
3446.17349,0.21726
3448.10196,0.22014
3450.03043,0.21905
3451.95890,0.21523
3453.88737,0.21269
3455.81584,0.21079
3457.74431,0.20933
3459.67277,0.20890
3461.60124,0.21017
3463.52971,0.21294
3465.45818,0.21292
3467.38665,0.20885
3469.31512,0.20387
3471.24359,0.20213
3473.17206,0.20460
3475.10052,0.20547
3477.02899,0.20342
3478.95746,0.20396
3480.88593,0.20673
3482.81440,0.20677
3484.74287,0.20503
3486.67134,0.20585
3488.59980,0.20772
3490.52827,0.20582
3492.45674,0.20146
3494.38521,0.20029
3496.31368,0.20190
3498.24215,0.20134
3500.17062,0.19910
3502.09909,0.19769
3504.02755,0.19770
3505.95602,0.19983
3507.88449,0.20200
3509.81296,0.20081
3511.74143,0.19660
3513.66990,0.19151
3515.59837,0.18899
3517.52683,0.19041
3519.45530,0.19113
3521.38377,0.18995
3523.31224,0.18977
3525.24071,0.19123
3527.16918,0.19261
3529.09765,0.19104
3531.02611,0.18782
3532.95458,0.18582
3534.88305,0.18462
3536.81152,0.18417
3538.73999,0.18460
3540.66846,0.18516
3542.59693,0.18657
3544.52540,0.18872
3546.45386,0.19115
3548.38233,0.19314
3550.31080,0.19154
3552.23927,0.18484
3554.16774,0.17744
3556.09621,0.17517
3558.02468,0.17626
3559.95314,0.17761
3561.88161,0.17866
3563.81008,0.17922
3565.73855,0.18085
3567.66702,0.17850
3569.59549,0.17096
3571.52396,0.16793
3573.45243,0.16940
3575.38089,0.17103
3577.30936,0.17129
3579.23783,0.17122
3581.16630,0.17229
3583.09477,0.17412
3585.02324,0.17632
3586.95171,0.17800
3588.88017,0.17492
3590.80864,0.16968
3592.73711,0.16477
3594.66558,0.16099
3596.59405,0.16332
3598.52252,0.16648
3600.45099,0.16270
3602.37946,0.15648
3604.30792,0.15520
3606.23639,0.15927
3608.16486,0.16187
3610.09333,0.16053
3612.02180,0.16137
3613.95027,0.16297
3615.87874,0.16424
3617.80720,0.16815
3619.73567,0.16765
3621.66414,0.15898
3623.59261,0.15369
3625.52108,0.15567
3627.44955,0.16413
3629.37802,0.17126
3631.30649,0.16490
3633.23495,0.15682
3635.16342,0.15232
3637.09189,0.14890
3639.02036,0.14646
3640.94883,0.14690
3642.87730,0.15176
3644.80577,0.15952
3646.73423,0.16613
3648.66270,0.16767
3650.59117,0.16287
3652.51964,0.15708
3654.44811,0.15426
3656.37658,0.15299
3658.30505,0.14992
3660.23352,0.14765
3662.16198,0.14749
3664.09045,0.14679
3666.01892,0.14694
3667.94739,0.15095
3669.87586,0.15556
3671.80433,0.15561
3673.73280,0.15474
3675.66126,0.15217
3677.58973,0.14895
3679.51820,0.14876
3681.44667,0.14739
3683.37514,0.14216
3685.30361,0.13594
3687.23208,0.13420
3689.16055,0.14094
3691.08901,0.14669
3693.01748,0.14670
3694.94595,0.14776
3696.87442,0.14610
3698.80289,0.14029
3700.73136,0.13859
3702.65983,0.14211
3704.58829,0.14309
3706.51676,0.14065
3708.44523,0.13892
3710.37370,0.14186
3712.30217,0.14690
3714.23064,0.14438
3716.15911,0.13577
3718.08757,0.12928
3720.01604,0.12989
3721.94451,0.13544
3723.87298,0.14036
3725.80145,0.14055
3727.72992,0.13878
3729.65839,0.14053
3731.58686,0.14826
3733.51532,0.15746
3735.44379,0.15903
3737.37226,0.15597
3739.30073,0.15008
3741.22920,0.14316
3743.15767,0.14293
3745.08614,0.14943
3747.01460,0.15193
3748.94307,0.15564
3750.87154,0.15871
3752.80001,0.15077
3754.72848,0.14512
3756.65695,0.14541
3758.58542,0.14417
3760.51389,0.13908
3762.44235,0.13597
3764.37082,0.13595
3766.29929,0.13707
3768.22776,0.13709
3770.15623,0.13385
3772.08470,0.13030
3774.01317,0.13022
3775.94163,0.13168
3777.87010,0.13315
3779.79857,0.13563
3781.72704,0.13788
3783.65551,0.13829
3785.58398,0.13547
3787.51245,0.13163
3789.44092,0.13171
3791.36938,0.13349
3793.29785,0.13492
3795.22632,0.13871
3797.15479,0.14177
3799.08326,0.14204
3801.01173,0.14506
3802.94020,0.14576
3804.86866,0.14136
3806.79713,0.13550
3808.72560,0.12792
3810.65407,0.12321
3812.58254,0.12436
3814.51101,0.13125
3816.43948,0.13843
3818.36795,0.14181
3820.29641,0.14420
3822.22488,0.14007
3824.15335,0.13486
3826.08182,0.13410
3828.01029,0.13400
3829.93876,0.13419
3831.86723,0.13592
3833.79569,0.13773
3835.72416,0.14125
3837.65263,0.14778
3839.58110,0.14693
3841.50957,0.13752
3843.43804,0.13115
3845.36651,0.13170
3847.29498,0.13429
3849.22344,0.13663
3851.15191,0.14312
3853.08038,0.15588
3855.00885,0.15416
3856.93732,0.13903
3858.86579,0.12835
3860.79426,0.12559
3862.72272,0.12831
3864.65119,0.13213
3866.57966,0.13452
3868.50813,0.13660
3870.43660,0.13689
3872.36507,0.13424
3874.29354,0.12951
3876.22200,0.12613
3878.15047,0.12851
3880.07894,0.13143
3882.00741,0.12656
3883.93588,0.11882
3885.86435,0.11665
3887.79282,0.12131
3889.72129,0.12577
3891.64975,0.12604
3893.57822,0.12495
3895.50669,0.12603
3897.43516,0.12939
3899.36363,0.13524
3901.29210,0.13829
3903.22057,0.13268
3905.14903,0.12565
3907.07750,0.12374
3909.00597,0.12214
3910.93444,0.11948
3912.86291,0.11776
3914.79138,0.11580
3916.71985,0.11514
3918.64832,0.11828
3920.57678,0.12138
3922.50525,0.12297
3924.43372,0.12270
3926.36219,0.12016
3928.29066,0.11804
3930.21913,0.11812
3932.14760,0.12174
3934.07606,0.12371
3936.00453,0.11913
3937.93300,0.11400
3939.86147,0.11400
3941.78994,0.11609
3943.71841,0.11557
3945.64688,0.11584
3947.57535,0.11790
3949.50381,0.11575
3951.43228,0.11167
3953.36075,0.11276
3955.28922,0.11747
3957.21769,0.12121
3959.14616,0.12231
3961.07463,0.12091
3963.00309,0.11906
3964.93156,0.11836
3966.86003,0.11773
3968.78850,0.11681
3970.71697,0.11531
3972.64544,0.11228
3974.57391,0.10874
3976.50238,0.10603
3978.43084,0.10637
3980.35931,0.11103
3982.28778,0.11474
3984.21625,0.11272
3986.14472,0.10732
3988.07319,0.10353
3990.00166,0.10412
3991.93012,0.10674
3993.85859,0.10746
3995.78706,0.10741
3997.71553,0.10911
3999.64400,0.10980
4001.57247,0.10778
4003.50094,0.10596
4005.42941,0.10507
4007.35787,0.10401
4009.28634,0.10325
4011.21481,0.10304
4013.14328,0.10252
4015.07175,0.10355
4017.00022,0.10519
4018.92869,0.10277
4020.85715,0.10024
4022.78562,0.10308
4024.71409,0.10852
4026.64256,0.10963
4028.57103,0.10294
4030.49950,0.09637
4032.42797,0.09823
4034.35644,0.10325
4036.28490,0.10388
4038.21337,0.10259
4040.14184,0.10246
4042.07031,0.10216
4043.99878,0.09984
4045.92725,0.09735
4047.85572,0.10013
4049.78418,0.10477
4051.71265,0.10364
4053.64112,0.09838
4055.56959,0.09643
4057.49806,0.09985
4059.42653,0.10306
4061.35500,0.10292
4063.28346,0.10106
4065.21193,0.10051
4067.14040,0.10261
4069.06887,0.10429
4070.99734,0.10180
4072.92581,0.09557
4074.85428,0.09035
4076.78275,0.08753
4078.71121,0.08662
4080.63968,0.08842
4082.56815,0.09043
4084.49662,0.09046
4086.42509,0.08904
4088.35356,0.08825
4090.28203,0.08961
4092.21049,0.09257
4094.13896,0.09629
4096.06743,0.09789
4097.99590,0.09550
4099.92437,0.09363
4101.85284,0.09509
4103.78131,0.09574
4105.70978,0.09190
4107.63824,0.08631
4109.56671,0.08446
4111.49518,0.08480
4113.42365,0.08422
4115.35212,0.08634
4117.28059,0.09164
4119.20906,0.09358
4121.13752,0.08965
4123.06599,0.08689
4124.99446,0.08769
4126.92293,0.08447
4128.85140,0.07704
4130.77987,0.07448
4132.70834,0.07995
4134.63681,0.08537
4136.56527,0.08447
4138.49374,0.08236
4140.42221,0.08204
4142.35068,0.07996
4144.27915,0.07862
4146.20762,0.08072
4148.13609,0.08354
4150.06455,0.08532
4151.99302,0.08258
4153.92149,0.07700
4155.84996,0.07661
4157.77843,0.08191
4159.70690,0.08668
4161.63537,0.08777
4163.56384,0.08755
4165.49230,0.08664
4167.42077,0.08321
4169.34924,0.07829
4171.27771,0.07520
4173.20618,0.07533
4175.13465,0.07702
4177.06312,0.07936
4178.99158,0.08159
4180.92005,0.08245
4182.84852,0.08270
4184.77699,0.08317
4186.70546,0.08275
4188.63393,0.08037
4190.56240,0.07689
4192.49087,0.07469
4194.41933,0.07443
4196.34780,0.07587
4198.27627,0.07941
4200.20474,0.08268
4202.13321,0.08226
4204.06168,0.07734
4205.99015,0.07104
4207.91861,0.06663
4209.84708,0.06353
4211.77555,0.06273
4213.70402,0.06408
4215.63249,0.06384
4217.56096,0.06365
4219.48943,0.06684
4221.41789,0.06944
4223.34636,0.06824
4225.27483,0.06613
4227.20330,0.06539
4229.13177,0.06598
4231.06024,0.06720
4232.98871,0.06724
4234.91718,0.06705
4236.84564,0.06814
4238.77411,0.06564
4240.70258,0.06038
4242.63105,0.05836
4244.55952,0.05903
4246.48799,0.06174
4248.41646,0.06347
4250.34492,0.06260
4252.27339,0.06478
4254.20186,0.07100
4256.13033,0.07411
4258.05880,0.06838
4259.98727,0.05928
4261.91574,0.05576
4263.84421,0.05567
4265.77267,0.05317
4267.70114,0.05201
4269.62961,0.05527
4271.55808,0.05622
4273.48655,0.05246
4275.41502,0.04730
4277.34349,0.04241
4279.27195,0.04243
4281.20042,0.04944
4283.12889,0.05727
4285.05736,0.06230
4286.98583,0.06509
4288.91430,0.06171
4290.84277,0.05137
4292.77124,0.04401
4294.69970,0.04553
4296.62817,0.04888
4298.55664,0.04817
4300.48511,0.04752
4302.41358,0.05007
4304.34205,0.05260
4306.27052,0.05168
4308.19898,0.04630
4310.12745,0.04298
4312.05592,0.04666
4313.98439,0.04989
4315.91286,0.04695
4317.84133,0.04113
4319.76980,0.03897
4321.69827,0.04138
4323.62673,0.04213
4325.55520,0.03974
4327.48367,0.03804
4329.41214,0.03967
4331.34061,0.04389
4333.26908,0.04552
4335.19755,0.04299
4337.12601,0.04139
4339.05448,0.04126
4340.98295,0.04094
4342.91142,0.04346
4344.83989,0.04674
4346.76836,0.04749
4348.69683,0.04717
4350.62530,0.04438
4352.55376,0.03826
4354.48223,0.03202
4356.41070,0.03091
4358.33917,0.03545
4360.26764,0.03934
4362.19611,0.04272
4364.12458,0.04642
4366.05304,0.04481
4367.98151,0.03699
4369.90998,0.02544
4371.83845,0.01624
4373.76692,0.01499
4375.69539,0.01765
4377.62386,0.02023
4379.55232,0.02457
4381.48079,0.02875
4383.40926,0.02798
4385.33773,0.02713
4387.26620,0.03175
4389.19467,0.03499
4391.12314,0.03225
4393.05161,0.02716
4394.98007,0.02442
4396.90854,0.02642
4398.83701,0.02919
4400.76548,0.03031
4402.69395,0.03142
4404.62242,0.03058
4406.55089,0.02693
4408.47935,0.02190
4410.40782,0.01657
4412.33629,0.01519
4414.26476,0.02009
4416.19323,0.02592
4418.12170,0.02557
4420.05017,0.02036
4421.97864,0.01727
4423.90710,0.01802
4425.83557,0.02278
4427.76404,0.02883
4429.69251,0.02822
4431.62098,0.01972
4433.54945,0.01057
4435.47792,0.01078
4437.40638,0.02014
4439.33485,0.02406
4441.26332,0.01642
4443.19179,0.00966
4445.12026,0.01402
4447.04873,0.02276
4448.97720,0.02500
4450.90567,0.01970
4452.83413,0.01509
4454.76260,0.01734
4456.69107,0.02101
4458.61954,0.01939
4460.54801,0.01368
4462.47648,0.00839
4464.40495,0.00764
4466.33341,0.01316
4468.26188,0.01788
4470.19035,0.01445
4472.11882,0.01031
4474.04729,0.01052
4475.97576,0.00841
4477.90423,0.00490
4479.83270,0.00592
4481.76116,0.01216
4483.68963,0.02111
4485.61810,0.02723
4487.54657,0.02550
4489.47504,0.01842
4491.40351,0.01160
4493.33198,0.00526
4495.26044,0.00056
4497.18891,0.00230
4499.11738,0.00969
4501.04585,0.01466
4502.97432,0.01168
4504.90279,0.00578
4506.83126,0.00479
4508.75973,0.01160
4510.68819,0.02031
4512.61666,0.02126
4514.54513,0.01631
4516.47360,0.01030
4518.40207,0.00549
4520.33054,0.00842
4522.25901,0.01719
4524.18747,0.02008
4526.11594,0.01224
4528.04441,0.00135
4529.97288,-0.00437
4531.90135,-0.00488
4533.82982,-0.00257
4535.75829,-0.00008
4537.68676,0.00179
4539.61522,0.00376
4541.54369,0.00408
4543.47216,0.00129
4545.40063,-0.00311
4547.32910,-0.00277
4549.25757,0.00470
4551.18604,0.00856
4553.11450,0.00372
4555.04297,-0.00005
4556.97144,0.00058
4558.89991,0.00056
4560.82838,-0.00090
4562.75685,-0.00208
4564.68532,0.00006
4566.61378,0.00556
4568.54225,0.00992
4570.47072,0.01440
4572.39919,0.02079
4574.32766,0.02317
4576.25613,0.02219
4578.18460,0.02182
4580.11307,0.01650
4582.04153,0.01092
4583.97000,0.01215
4585.89847,0.01036
4587.82694,0.00271
4589.75541,-0.00276
4591.68388,-0.00487
4593.61235,-0.00844
4595.54081,-0.00971
4597.46928,-0.00271
4599.39775,0.00165
4601.32622,-0.00170
4603.25469,0.00020
4605.18316,0.00982
4607.11163,0.01502
4609.04010,0.00961
4610.96856,0.00018
4612.89703,-0.00511
4614.82550,-0.00835
4616.75397,-0.01016
4618.68244,-0.00430
4620.61091,0.00419
4622.53938,0.00736
4624.46784,0.00840
4626.39631,0.00697
4628.32478,-0.00122
4630.25325,-0.00778
4632.18172,-0.00230
4634.11019,0.00740
4636.03866,0.00760
4637.96713,0.00090
4639.89559,-0.00106
4641.82406,0.00125
4643.75253,0.00098
4645.68100,0.00039
4647.60947,0.00329
4649.53794,0.00698
4651.46641,0.00759
4653.39487,0.00769
4655.32334,0.00892
4657.25181,0.01071
4659.18028,0.01518
4661.10875,0.01716
4663.03722,0.00866
4664.96569,-0.00658
4666.89416,-0.01380
4668.82262,-0.00514
4670.75109,0.00729
4672.67956,0.01106
4674.60803,0.00852
4676.53650,0.00955
4678.46497,0.01691
4680.39344,0.01905
4682.32190,0.01139
4684.25037,0.00405
4686.17884,0.00415
4688.10731,0.00693
4690.03578,0.00143
4691.96425,-0.00989
4693.89272,-0.01448
4695.82119,-0.01235
4697.74965,-0.00594
4699.67812,0.00531
4701.60659,0.01212
4703.53506,0.01139
4705.46353,0.01051
4707.39200,0.01166
4709.32047,0.01092
4711.24893,0.00141
4713.17740,-0.01293
4715.10587,-0.01864
4717.03434,-0.01235
4718.96281,-0.00193
4720.89128,0.00198
4722.81975,0.00006
4724.74821,0.00190
4726.67668,0.00576
4728.60515,0.00612
4730.53362,0.00089
4732.46209,-0.00626
4734.39056,-0.00026
4736.31903,0.01546
4738.24750,0.01994
4740.17596,0.01817
4742.10443,0.02264
4744.03290,0.02181
4745.96137,0.00711
4747.88984,-0.00681
4749.81831,-0.00726
4751.74678,-0.00211
4753.67524,0.00070
4755.60371,0.00248
4757.53218,0.00660
4759.46065,0.01457
4761.38912,0.01619
4763.31759,0.00911
4765.24606,0.00423
4767.17453,0.00385
4769.10299,0.00756
4771.03146,0.01104
4772.95993,0.00609
4774.88840,-0.00068
4776.81687,0.00007
4778.74534,0.00590
4780.67381,0.01068
4782.60227,0.01266
4784.53074,0.01814
4786.45921,0.02563
4788.38768,0.02358
4790.31615,0.01000
4792.24462,-0.00004
4794.17309,0.00148
4796.10156,0.00933
4798.03002,0.01556
4799.95849,0.01305
4801.88696,0.00717
4803.81543,0.00600
4805.74390,0.00677
4807.67237,0.00651
4809.60084,0.00648
4811.52930,0.00660
4813.45777,0.00045
4815.38624,-0.01261
4817.31471,-0.02075
4819.24318,-0.01325
4821.17165,0.00478
4823.10012,0.01014
4825.02859,-0.00330
4826.95705,-0.01190
4828.88552,-0.00438
4830.81399,0.00134
4832.74246,-0.00205
4834.67093,0.00044
4836.59940,0.00854
4838.52787,0.00992
4840.45633,0.00919
4842.38480,0.01438
4844.31327,0.02068
4846.24174,0.02320
4848.17021,0.02412
4850.09868,0.02288
4852.02715,0.01740
4853.95562,0.00900
4855.88408,-0.00092
4857.81255,-0.00691
4859.74102,-0.00008
4861.66949,0.01227
4863.59796,0.01563
4865.52643,0.01234
4867.45490,0.00968
4869.38336,0.00948
4871.31183,0.00583
4873.24030,-0.00437
4875.16877,-0.00989
4877.09724,-0.00732
4879.02571,-0.00521
4880.95418,-0.00187
4882.88265,0.01479
4884.81111,0.03795
4886.73958,0.03994
4888.66805,0.01571
4890.59652,-0.00930
4892.52499,-0.01462
4894.45346,-0.00290
4896.38193,0.01156
4898.31039,0.01919
4900.23886,0.02084
4902.16733,0.01876
4904.09580,0.01282
4906.02427,0.01182
4907.95274,0.02058
4909.88121,0.02425
4911.80967,0.01557
4913.73814,0.00601
4915.66661,0.00156
4917.59508,0.00046
4919.52355,-0.00036
4921.45202,-0.00245
4923.38049,-0.00042
4925.30896,0.00580
4927.23742,0.00832
4929.16589,0.00383
4931.09436,-0.00513
4933.02283,-0.00729
4934.95130,0.00282
4936.87977,0.01585
4938.80824,0.02245
4940.73670,0.01977
4942.66517,0.01424
4944.59364,0.00889
4946.52211,0.00260
4948.45058,0.00392
4950.37905,0.01459
4952.30752,0.02222
4954.23599,0.01761
4956.16445,0.01056
4958.09292,0.01258
4960.02139,0.01134
4961.94986,0.00069
4963.87833,-0.00173
4965.80680,0.00224
4967.73527,-0.00540
4969.66373,-0.01638
4971.59220,-0.01128
4973.52067,0.00246
4975.44914,0.00872
4977.37761,0.00648
4979.30608,0.00225
4981.23455,-0.00480
4983.16302,-0.00954
4985.09148,0.00061
4987.01995,0.01608
4988.94842,0.01552
4990.87689,0.01051
4992.80536,0.01259
4994.73383,0.01135
4996.66230,0.00902
4998.59076,0.00792
5000.51923,0.00566
5002.44770,0.00452
5004.37617,0.00727
5006.30464,0.00741
5008.23311,0.00440
5010.16158,0.00963
5012.09005,0.01872
5014.01851,0.01634
5015.94698,0.00986
5017.87545,0.00800
5019.80392,0.00695
5021.73239,0.00589
5023.66086,0.00301
5025.58933,-0.00332
5027.51779,-0.01180
5029.44626,-0.01668
5031.37473,-0.00729
5033.30320,0.01252
5035.23167,0.02465
5037.16014,0.01751
5039.08861,0.00130
5041.01708,-0.00089
5042.94554,0.00265
5044.87401,-0.00077
5046.80248,0.00720
5048.73095,0.02163
5050.65942,0.01821
5052.58789,0.00241
5054.51636,-0.00632
5056.44482,-0.00015
5058.37329,0.01049
5060.30176,0.01237
5062.23023,0.01444
5064.15870,0.02468
5066.08717,0.02779
5068.01564,0.01615
5069.94410,0.00417
5071.87257,0.00192
5073.80104,0.00712
5075.72951,0.01746
5077.65798,0.02735
5079.58645,0.02785
5081.51492,0.02037
5083.44339,0.01272
5085.37185,0.00578
5087.30032,0.00085
5089.22879,0.00352
5091.15726,0.00625
5093.08573,0.00113
5095.01420,0.00061
5096.94267,0.00936
5098.87113,0.01126
5100.79960,0.00417
5102.72807,-0.00037
5104.65654,-0.00536
5106.58501,-0.00865
5108.51348,-0.00614
5110.44195,-0.01152
5112.37042,-0.02189
5114.29888,-0.01456
5116.22735,0.00976
5118.15582,0.02616
5120.08429,0.02516
5122.01276,0.01663
5123.94123,0.01025
5125.86970,0.01365
5127.79816,0.02476
5129.72663,0.03506
5131.65510,0.03589
5133.58357,0.02357
5135.51204,0.01330
5137.44051,0.02263
5139.36898,0.03961
5141.29745,0.04595
5143.22591,0.04931
5145.15438,0.04604
5147.08285,0.03004
5149.01132,0.02382
5150.93979,0.02942
5152.86826,0.02942
5154.79673,0.02376
5156.72519,0.01752
5158.65366,0.01598
5160.58213,0.01942
5162.51060,0.01560
5164.43907,0.01017
5166.36754,0.02084
5168.29601,0.03236
5170.22448,0.02585
5172.15294,0.01119
5174.08141,0.00581
5176.00988,0.01981
5177.93835,0.03751
5179.86682,0.03729
5181.79529,0.03113
5183.72376,0.03252
5185.65222,0.03593
5187.58069,0.03200
5189.50916,0.02410
5191.43763,0.02310
5193.36610,0.02311
5195.29457,0.01759
5197.22304,0.00657
5199.15151,0.00023
5201.07997,0.01497
5203.00844,0.03386
5204.93691,0.03289
5206.86538,0.02987
5208.79385,0.04953
5210.72232,0.06418
5212.65079,0.05807
5214.57925,0.05011
5216.50772,0.04429
5218.43619,0.03536
5220.36466,0.02116
5222.29313,0.01010
5224.22160,0.01874
5226.15007,0.03800
5228.07854,0.04759
5230.00700,0.04205
5231.93547,0.02667
5233.86394,0.01595
5235.79241,0.01623
5237.72088,0.02186
5239.64935,0.01890
5241.57782,0.01185
5243.50628,0.02132
5245.43475,0.03876
5247.36322,0.04041
5249.29169,0.02787
5251.22016,0.02612
5253.14863,0.03620
5255.07710,0.03495
5257.00556,0.02851
5258.93403,0.02958
5260.86250,0.02690
5262.79097,0.02170
5264.71944,0.02519
5266.64791,0.02948
5268.57638,0.02282
5270.50485,0.00880
5272.43331,0.00705
5274.36178,0.01923
5276.29025,0.02537
5278.21872,0.02459
5280.14719,0.02185
5282.07566,0.01359
5284.00413,0.01368
5285.93259,0.02640
5287.86106,0.03136
5289.78953,0.03326
5291.71800,0.04186
5293.64647,0.04488
5295.57494,0.05236
5297.50341,0.06924
5299.43188,0.07527
5301.36034,0.07522
5303.28881,0.08160
5305.21728,0.07718
5307.14575,0.05519
5309.07422,0.03843
5311.00269,0.03799
5312.93116,0.03941
5314.85962,0.03595
5316.78809,0.03091
5318.71656,0.02514
5320.64503,0.02937
5322.57350,0.03949
5324.50197,0.03941
5326.43044,0.04253
5328.35891,0.05492
5330.28737,0.06172
5332.21584,0.06228
5334.14431,0.05921
5336.07278,0.06162
5338.00125,0.06984
5339.92972,0.06268
5341.85819,0.04896
5343.78665,0.04851
5345.71512,0.05086
5347.64359,0.04721
5349.57206,0.04237
5351.50053,0.02876
5353.42900,0.00558
5355.35747,-0.00288
5357.28594,0.01352
5359.21440,0.03805
5361.14287,0.05142
5363.07134,0.04974
5364.99981,0.04105
5366.92828,0.02679
5368.85675,0.02039
5370.78522,0.03958
5372.71368,0.06560
5374.64215,0.06174
5376.57062,0.02630
5378.49909,0.00251
5380.42756,0.01351
5382.35603,0.04255
5384.28450,0.05833
5386.21297,0.04897
5388.14143,0.04443
5390.06990,0.06063
5391.99837,0.07459
5393.92684,0.06841
5395.85531,0.05947
5397.78378,0.05487
5399.71225,0.04743
5401.64071,0.04514
5403.56918,0.05241
5405.49765,0.05887
5407.42612,0.05863
5409.35459,0.06785
5411.28306,0.08183
5413.21153,0.07323
5415.13999,0.05918
5417.06846,0.05823
5418.99693,0.06252
5420.92540,0.06741
5422.85387,0.06506
5424.78234,0.05860
5426.71081,0.06110
5428.63928,0.07575
5430.56774,0.08885
5432.49621,0.08643
5434.42468,0.08037
5436.35315,0.07451
5438.28162,0.05804
5440.21009,0.04892
5442.13856,0.05293
5444.06702,0.04729
5445.99549,0.04526
5447.92396,0.05972
5449.85243,0.06494
5451.78090,0.05372
5453.70937,0.03625
5455.63784,0.02758
5457.56631,0.03613
5459.49477,0.04528
5461.42324,0.05827
5463.35171,0.07743
5465.28018,0.09092
5467.20865,0.10078
5469.13712,0.10311
5471.06559,0.10316
5472.99405,0.11163
5474.92252,0.10678
5476.85099,0.07213
5478.77946,0.04405
5480.70793,0.04079
5482.63640,0.04147
5484.56487,0.04237
5486.49334,0.05303
5488.42180,0.05547
5490.35027,0.04665
5492.27874,0.05382
5494.20721,0.05799
5496.13568,0.04437
5498.06415,0.04819
5499.99262,0.06318
5501.92108,0.05516
5503.84955,0.03951
5505.77802,0.04435
5507.70649,0.06238
5509.63496,0.07611
5511.56343,0.08697
5513.49190,0.09149
5515.42037,0.08503
5517.34883,0.07994
5519.27730,0.08417
5521.20577,0.08647
5523.13424,0.08412
5525.06271,0.09400
5526.99118,0.10969
5528.91965,0.10864
5530.84811,0.08789
5532.77658,0.05689
5534.70505,0.03548
5536.63352,0.04017
5538.56199,0.05855
5540.49046,0.06974
5542.41893,0.06935
5544.34740,0.05912
5546.27586,0.04610
5548.20433,0.05109
5550.13280,0.07852
5552.06127,0.09849
5553.98974,0.08965
5555.91821,0.07876
5557.84668,0.09472
5559.77514,0.10946
5561.70361,0.09067
5563.63208,0.06296
5565.56055,0.06454
5567.48902,0.08110
5569.41749,0.07414
5571.34596,0.04977
5573.27443,0.04718
5575.20289,0.07091
5577.13136,0.08507
5579.05983,0.08229
5580.98830,0.08182
5582.91677,0.08786
5584.84524,0.08773
5586.77371,0.07805
5588.70217,0.06389
5590.63064,0.04409
5592.55911,0.03530
5594.48758,0.05546
5596.41605,0.08425
5598.34452,0.10413
5600.27299,0.11906
5602.20145,0.11138
5604.12992,0.06593
5606.05839,0.03075
5607.98686,0.04781
5609.91533,0.07432
5611.84380,0.07125
5613.77227,0.05642
5615.70074,0.04903
5617.62920,0.05941
5619.55767,0.07770
5621.48614,0.07995
5623.41461,0.08350
5625.34308,0.10089
5627.27155,0.09832
5629.20002,0.07336
5631.12848,0.06306
5633.05695,0.07813
5634.98542,0.09257
5636.91389,0.09035
5638.84236,0.09156
5640.77083,0.09829
5642.69930,0.09271
5644.62777,0.07848
5646.55623,0.06945
5648.48470,0.06234
5650.41317,0.05282
5652.34164,0.05853
5654.27011,0.08316
5656.19858,0.09806
5658.12705,0.09425
5660.05551,0.09563
5661.98398,0.10504
5663.91245,0.10771
5665.84092,0.11125
5667.76939,0.12260
5669.69786,0.12189
5671.62633,0.09720
5673.55480,0.07908
5675.48326,0.08665
5677.41173,0.10048
5679.34020,0.10424
5681.26867,0.09585
5683.19714,0.08909
5685.12561,0.09154
5687.05408,0.08390
5688.98254,0.06286
5690.91101,0.06159
5692.83948,0.08739
5694.76795,0.09071
5696.69642,0.05690
5698.62489,0.04522
5700.55336,0.07537
5702.48183,0.10102
5704.41029,0.09200
5706.33876,0.07228
5708.26723,0.08227
5710.19570,0.10520
5712.12417,0.10164
5714.05264,0.08094
5715.98111,0.07015
5717.90957,0.07082
5719.83804,0.06891
5721.76651,0.06668
5723.69498,0.07650
5725.62345,0.09141
5727.55192,0.09806
5729.48039,0.09677
5731.40886,0.10172
5733.33732,0.11217
5735.26579,0.10893
5737.19426,0.09205
5739.12273,0.07524
5741.05120,0.05937
5742.97967,0.05635
5744.90814,0.08087
5746.83660,0.10049
5748.76507,0.07090
5750.69354,0.02272
5752.62201,0.02183
5754.55048,0.06989
5756.47895,0.11704
5758.40742,0.12970
5760.33588,0.11789
5762.26435,0.10526
5764.19282,0.09431
5766.12129,0.08091
5768.04976,0.08567
5769.97823,0.10389
5771.90670,0.09678
5773.83517,0.07163
5775.76363,0.06705
5777.69210,0.08872
5779.62057,0.10603
5781.54904,0.10242
5783.47751,0.08830
5785.40598,0.07755
5787.33445,0.08721
5789.26291,0.09457
5791.19138,0.08454
5793.11985,0.08147
5795.04832,0.07503
5796.97679,0.06264
5798.90526,0.06539
5800.83373,0.07923
5802.76220,0.09203
5804.69066,0.08831
5806.61913,0.06453
5808.54760,0.04868
5810.47607,0.05173
5812.40454,0.05799
5814.33301,0.05399
5816.26148,0.04179
5818.18994,0.04880
5820.11841,0.07449
5822.04688,0.09322
5823.97535,0.10619
5825.90382,0.11588
5827.83229,0.12115
5829.76076,0.10553
5831.68923,0.07970
5833.61769,0.07543
5835.54616,0.07611
5837.47463,0.07324
5839.40310,0.07650
5841.33157,0.08091
5843.26004,0.08636
5845.18851,0.08776
5847.11697,0.07900
5849.04544,0.06367
5850.97391,0.05187
5852.90238,0.05204
5854.83085,0.07039
5856.75932,0.10900
5858.68779,0.13357
5860.61626,0.12032
5862.54472,0.11212
5864.47319,0.12606
5866.40166,0.12447
5868.33013,0.10224
5870.25860,0.09240
5872.18707,0.09827
5874.11554,0.08542
5876.04400,0.06460
5877.97247,0.07578
5879.90094,0.09054
5881.82941,0.08137
5883.75788,0.07377
5885.68635,0.08512
5887.61482,0.11088
5889.54329,0.13341
5891.47175,0.14225
5893.40022,0.14064
5895.32869,0.12356
5897.25716,0.08717
5899.18563,0.05608
5901.11410,0.05913
5903.04257,0.07830
5904.97103,0.08332
5906.89950,0.07971
5908.82797,0.08396
5910.75644,0.09758
5912.68491,0.10245
5914.61338,0.10221
5916.54185,0.10575
5918.47032,0.09737
5920.39878,0.09881
5922.32725,0.12417
5924.25572,0.13595
5926.18419,0.12942
5928.11266,0.11682
5930.04113,0.09880
5931.96960,0.08557
5933.89806,0.07249
5935.82653,0.05710
5937.75500,0.05510
5939.68347,0.07741
5941.61194,0.10139
5943.54041,0.08614
5945.46888,0.05524
5947.39734,0.05876
5949.32581,0.08943
5951.25428,0.10427
5953.18275,0.08271
5955.11122,0.05375
5957.03969,0.05645
5958.96816,0.08189
5960.89663,0.10504
5962.82509,0.11465
5964.75356,0.10301
5966.68203,0.08779
5968.61050,0.08611
5970.53897,0.09179
5972.46744,0.09316
5974.39591,0.06837
5976.32437,0.02320
5978.25284,0.01098
5980.18131,0.05045
5982.10978,0.10537
5984.03825,0.14119
5985.96672,0.13543
5987.89519,0.11295
5989.82366,0.11606
5991.75212,0.12394
5993.68059,0.11610
5995.60906,0.10194
5997.53753,0.08482
5999.46600,0.07221
6001.39447,0.05401
6003.32294,0.02662
6005.25140,0.04645
6007.17987,0.10362
6009.10834,0.11267
6011.03681,0.08512
6012.96528,0.07365
6014.89375,0.08376
6016.82222,0.11083
6018.75069,0.13796
6020.67915,0.13515
6022.60762,0.11223
6024.53609,0.09302
6026.46456,0.08102
6028.39303,0.09214
6030.32150,0.11568
6032.24997,0.10654
6034.17843,0.07282
6036.10690,0.04633
6038.03537,0.03564
6039.96384,0.05308
6041.89231,0.07163
6043.82078,0.05478
6045.74925,0.04145
6047.67772,0.06276
6049.60618,0.09370
6051.53465,0.11384
6053.46312,0.11335
6055.39159,0.08044
6057.32006,0.03836
6059.24853,0.02186
6061.17700,0.03227
6063.10546,0.05663
6065.03393,0.08241
6066.96240,0.10313
6068.89087,0.11281
6070.81934,0.09830
6072.74781,0.06238
6074.67628,0.04311
6076.60475,0.04984
6078.53321,0.04535
6080.46168,0.04047
6082.39015,0.06575
6084.31862,0.09020
6086.24709,0.07231
6088.17556,0.04060
6090.10403,0.02370
6092.03249,0.00876
6093.96096,-0.00378
6095.88943,-0.02058
6097.81790,-0.02083
6099.74637,0.01580
6101.67484,0.04895
6103.60331,0.05643
6105.53177,0.05285
6107.46024,0.06249
6109.38871,0.08297
6111.31718,0.07683
6113.24565,0.04866
6115.17412,0.02135
6117.10259,-0.00341
6119.03106,-0.00101
6120.95952,0.04627
6122.88799,0.08687
6124.81646,0.09031
6126.74493,0.06744
6128.67340,0.03278
6130.60187,0.03357
6132.53034,0.06057
6134.45880,0.04702
6136.38727,0.01052
6138.31574,0.02287
6140.24421,0.08042
6142.17268,0.10558
6144.10115,0.07956
6146.02962,0.05414
6147.95809,0.05324
6149.88655,0.06486
6151.81502,0.07325
6153.74349,0.07612
6155.67196,0.06854
6157.60043,0.03998
6159.52890,0.01968
6161.45737,0.05405
6163.38583,0.11237
6165.31430,0.12642
6167.24277,0.08709
6169.17124,0.02970
6171.09971,-0.00991
6173.02818,-0.00773
6174.95665,0.02989
6176.88512,0.06045
6178.81358,0.07170
6180.74205,0.07927
6182.67052,0.05813
6184.59899,0.02965
6186.52746,0.04352
6188.45593,0.05835
6190.38440,0.04060
6192.31286,0.03601
6194.24133,0.05681
6196.16980,0.08613
6198.09827,0.09968
6200.02674,0.08513
6201.95521,0.07423
6203.88368,0.07878
6205.81215,0.07580
6207.74061,0.08506
6209.66908,0.11736
6211.59755,0.12863
6213.52602,0.11576
6215.45449,0.09951
6217.38296,0.07455
6219.31143,0.04551
6221.23989,0.03880
6223.16836,0.05794
6225.09683,0.07140
6227.02530,0.08201
6228.95377,0.10063
6230.88224,0.09919
6232.81071,0.05916
6234.73918,0.02531
6236.66764,0.03717
6238.59611,0.07488
6240.52458,0.11546
6242.45305,0.12582
6244.38152,0.09591
6246.30999,0.07866
6248.23846,0.07545
6250.16692,0.07120
6252.09539,0.09881
6254.02386,0.12367
6255.95233,0.10506
6257.88080,0.06579
6259.80927,0.04192
6261.73774,0.04743
6263.66621,0.03980
6265.59467,0.01093
6267.52314,0.03534
6269.45161,0.11009
6271.38008,0.15570
6273.30855,0.13614
6275.23702,0.07736
6277.16549,0.00894
6279.09395,-0.04199
6281.02242,-0.03710
6282.95089,0.01906
6284.87936,0.06641
6286.80783,0.06151
6288.73630,0.03234
6290.66477,0.01404
6292.59323,0.01472
6294.52170,0.03599
6296.45017,0.05003
6298.37864,0.04968
6300.30711,0.08033
6302.23558,0.11122
6304.16405,0.06221
6306.09252,-0.01068
6308.02098,-0.01993
6309.94945,0.02252
6311.87792,0.06009
6313.80639,0.05001
6315.73486,0.00848
6317.66333,-0.01194
6319.59180,-0.00882
6321.52026,0.01387
6323.44873,0.06127
6325.37720,0.08488
6327.30567,0.04723
6329.23414,0.00820
6331.16261,0.03398
6333.09108,0.03723
6335.01955,-0.01489
6336.94801,-0.00303
6338.87648,0.07220
6340.80495,0.10598
6342.73342,0.07579
6344.66189,0.03855
6346.59036,0.02378
6348.51883,-0.00545
6350.44729,-0.02958
6352.37576,-0.00249
6354.30423,0.02318
6356.23270,0.01957
6358.16117,0.01443
6360.08964,0.01790
6362.01811,0.01046
6363.94658,-0.01558
6365.87504,-0.01612
6367.80351,0.04092
6369.73198,0.08721
6371.66045,0.06332
6373.58892,0.03830
6375.51739,0.08730
6377.44586,0.15876
6379.37432,0.16790
6381.30279,0.10576
6383.23126,0.05257
6385.15973,0.07014
6387.08820,0.10851
6389.01667,0.11116
6390.94514,0.08216
6392.87361,0.06864
6394.80207,0.08124
6396.73054,0.08658
6398.65901,0.08768
6400.58748,0.10383
6402.51595,0.11685
6404.44442,0.11792
6406.37289,0.12568
6408.30135,0.11012
6410.22982,0.06956
6412.15829,0.06363
6414.08676,0.09502
6416.01523,0.12047
6417.94370,0.11170
6419.87217,0.09085
6421.80064,0.08578
6423.72910,0.08334
6425.65757,0.07762
6427.58604,0.07674
6429.51451,0.09408
6431.44298,0.10532
6433.37145,0.08259
6435.29992,0.06366
6437.22838,0.05604
6439.15685,0.02929
6441.08532,0.01043
6443.01379,0.03435
6444.94226,0.05710
6446.87073,0.04047
6448.79920,0.02177
6450.72766,0.04421
6452.65613,0.10444
6454.58460,0.15695
6456.51307,0.16383
6458.44154,0.12766
6460.37001,0.08948
6462.29848,0.06896
6464.22695,0.06885
6466.15541,0.10333
6468.08388,0.13643
6470.01235,0.08360
6471.94082,-0.00979
6473.86929,-0.01649
6475.79776,0.04387
6477.72623,0.08701
6479.65469,0.09683
6481.58316,0.10073
6483.51163,0.10657
6485.44010,0.09949
6487.36857,0.07880
6489.29704,0.05217
6491.22551,0.01221
6493.15398,-0.03840
6495.08244,-0.04833
6497.01091,-0.00187
6498.93938,0.03030
6500.86785,0.01763
6502.79632,0.03107
6504.72479,0.04140
6506.65326,-0.02746
6508.58172,-0.08385
6510.51019,-0.02605
6512.43866,0.08603
6514.36713,0.13450
6516.29560,0.11643
6518.22407,0.10320
6520.15254,0.10205
6522.08101,0.08672
6524.00947,0.06607
6525.93794,0.06372
6527.86641,0.04877
6529.79488,-0.01107
6531.72335,-0.07188
6533.65182,-0.07590
6535.58029,-0.00015
6537.50875,0.11686
6539.43722,0.17662
6541.36569,0.14695
6543.29416,0.10503
6545.22263,0.07602
6547.15110,0.03887
6549.07957,0.03051
6551.00804,0.05205
6552.93650,0.03445
6554.86497,0.00063
6556.79344,0.03256
6558.72191,0.09247
6560.65038,0.11241
6562.57885,0.12966
6564.50732,0.15598
6566.43578,0.15582
6568.36425,0.13836
6570.29272,0.09512
6572.22119,0.02853
6574.14966,0.01439
6576.07813,0.07917
6578.00660,0.16578
6579.93507,0.22138
6581.86353,0.21814
6583.79200,0.13771
6585.72047,0.02291
6587.64894,-0.01490
6589.57741,0.06177
6591.50588,0.12875
6593.43435,0.08213
6595.36281,0.00627
6597.29128,0.01776
6599.21975,0.09310
6601.14822,0.13287
6603.07669,0.07913
6605.00516,0.03300
6606.93363,0.04681
6608.86210,0.04753
6610.79056,0.01476
6612.71903,-0.00262
6614.64750,0.01876
6616.57597,0.05146
6618.50444,0.06435
6620.43291,0.07519
6622.36138,0.09327
6624.28984,0.09123
6626.21831,0.06821
6628.14678,0.04719
6630.07525,0.01683
6632.00372,-0.03312
6633.93219,-0.06615
6635.86066,-0.03531
6637.78912,0.04244
6639.71759,0.09238
6641.64606,0.10670
6643.57453,0.13681
6645.50300,0.18115
6647.43147,0.17863
6649.35994,0.14705
6651.28841,0.13140
6653.21687,0.10299
6655.14534,0.03849
6657.07381,-0.00020
6659.00228,0.01728
6660.93075,0.05269
6662.85922,0.10187
6664.78769,0.11502
6666.71615,0.08117
6668.64462,0.06340
6670.57309,0.07301
6672.50156,0.10710
6674.43003,0.16131
6676.35850,0.16743
6678.28697,0.10635
6680.21544,0.07617
6682.14390,0.10056
6684.07237,0.10818
6686.00084,0.08994
6687.92931,0.03295
6689.85778,-0.03678
6691.78625,-0.00935
6693.71472,0.08659
6695.64318,0.14002
6697.57165,0.11211
6699.50012,0.07799
6701.42859,0.08035
6703.35706,0.08407
6705.28553,0.04555
6707.21400,-0.01209
6709.14247,-0.01957
6711.07093,-0.01449
6712.99940,-0.06332
6714.92787,-0.12615
6716.85634,-0.11099
6718.78481,-0.01686
6720.71328,0.05874
6722.64175,0.06438
6724.57021,0.00929
6726.49868,-0.04806
6728.42715,-0.00575
6730.35562,0.11279
6732.28409,0.16083
6734.21256,0.10116
6736.14103,0.00402
6738.06950,-0.06628
6739.99796,-0.08269
6741.92643,-0.03579
6743.85490,0.01025
6745.78337,0.02350
6747.71184,0.08180
6749.64031,0.16625
6751.56878,0.16054
6753.49724,0.09696
6755.42571,0.07371
6757.35418,0.10391
6759.28265,0.14861
6761.21112,0.14719
6763.13959,0.11184
6765.06806,0.08605
6766.99653,0.09427
6768.92499,0.12353
6770.85346,0.08921
6772.78193,0.02892
6774.71040,0.04765
6776.63887,0.09702
6778.56734,0.09353
6780.49581,0.06212
6782.42427,0.04984
6784.35274,0.06796
6786.28121,0.09115
6788.20968,0.07750
6790.13815,0.03088
6792.06662,0.01053
6793.99509,0.00574
6795.92355,-0.00718
6797.85202,-0.01351
6799.78049,-0.03155
6801.70896,-0.01717
6803.63743,0.06733
6805.56590,0.11495
6807.49437,0.08769
6809.42284,0.02926
6811.35130,-0.03510
6813.27977,-0.05385
6815.20824,-0.01168
6817.13671,0.05693
6819.06518,0.10117
6820.99365,0.10887
6822.92212,0.11668
6824.85058,0.15844
6826.77905,0.21332
6828.70752,0.23567
6830.63599,0.21332
6832.56446,0.16767
6834.49293,0.09666
6836.42140,0.03462
6838.34987,0.03384
6840.27833,0.07180
6842.20680,0.09183
6844.13527,0.05275
6846.06374,0.01816
6847.99221,0.04737
6849.92068,0.06977
6851.84915,0.07421
6853.77761,0.08950
6855.70608,0.05698
6857.63455,-0.01795
6859.56302,-0.02159
6861.49149,0.06442
6863.41996,0.10457
6865.34843,0.05532
6867.27690,0.01987
6869.20536,0.02915
6871.13383,0.05751
6873.06230,0.08373
6874.99077,0.05863
6876.91924,0.00451
6878.84771,0.00757
6880.77618,0.10559
6882.70464,0.17005
6884.63311,0.11312
6886.56158,0.03757
6888.49005,0.02597
6890.41852,0.03653
6892.34699,0.02178
6894.27546,-0.01862
6896.20393,-0.03395
6898.13239,0.00602
6900.06086,0.06153
6901.98933,0.10343
6903.91780,0.09923
6905.84627,0.00111
6907.77474,-0.13299
6909.70321,-0.18179
6911.63167,-0.14608
6913.56014,-0.11879
6915.48861,-0.11295
6917.41708,-0.09877
6919.34555,-0.08256
6921.27402,-0.06155
6923.20249,-0.03462
6925.13096,0.01328
6927.05942,0.08368
6928.98789,0.12380
6930.91636,0.13140
6932.84483,0.16830
6934.77330,0.19810
6936.70177,0.17287
6938.63024,0.10356
6940.55870,-0.00252
6942.48717,-0.07940
6944.41564,-0.03743
6946.34411,0.10182
6948.27258,0.19373
6950.20105,0.18613
6952.12952,0.17069
6954.05799,0.17900
6955.98645,0.14396
6957.91492,0.05137
6959.84339,0.01179
6961.77186,0.05008
6963.70033,0.06719
6965.62880,0.08613
6967.55727,0.15148
6969.48573,0.18562
6971.41420,0.17199
6973.34267,0.14696
6975.27114,0.11444
6977.19961,0.08434
6979.12808,-0.00435
6981.05655,-0.12155
6982.98501,-0.16968
6984.91348,-0.15685
6986.84195,-0.12287
6988.77042,-0.06954
6990.69889,0.03800
6992.62736,0.14937
6994.55583,0.12332
6996.48430,-0.03355
6998.41276,-0.13102
7000.34123,-0.07505
7002.26970,0.04577
7004.19817,0.13409
7006.12664,0.14280
7008.05511,0.07872
7009.98358,0.01360
7011.91204,-0.02335
7013.84051,-0.08117
7015.76898,-0.15168
7017.69745,-0.14439
7019.62592,-0.04383
7021.55439,0.04928
7023.48286,0.09301
7025.41133,0.12452
7027.33979,0.12597
7029.26826,0.13949
7031.19673,0.19940
7033.12520,0.17303
7035.05367,0.05668
7036.98214,0.02574
7038.91061,0.07474
7040.83907,0.07686
7042.76754,0.02310
7044.69601,0.00727
7046.62448,0.01284
7048.55295,-0.01777
7050.48142,-0.02111
7052.40989,-0.00074
7054.33836,-0.00224
7056.26682,0.06735
7058.19529,0.18558
7060.12376,0.15280
7062.05223,-0.01216
7063.98070,-0.11196
7065.90917,-0.04502
7067.83764,0.07457
7069.76610,0.10919
7071.69457,0.00766
7073.62304,-0.05204
7075.55151,0.00723
7077.47998,0.04076
7079.40845,0.01909
7081.33692,0.06885
7083.26539,0.16555
7085.19385,0.15272
7087.12232,0.07557
7089.05079,0.04901
7090.97926,0.04972
7092.90773,0.05893
7094.83620,0.07399
7096.76467,0.05057
7098.69313,0.02065
7100.62160,0.05294
7102.55007,0.11700
7104.47854,0.16655
7106.40701,0.16552
7108.33548,0.09570
7110.26395,0.06372
7112.19242,0.06725
7114.12088,-0.04838
7116.04935,-0.20260
7117.97782,-0.19323
7119.90629,-0.10616
7121.83476,-0.06732
7123.76323,-0.00478
7125.69170,0.09041
7127.62016,0.11622
7129.54863,0.07620
7131.47710,0.05657
7133.40557,0.04553
7135.33404,0.00450
7137.26251,-0.03064
7139.19098,-0.02247
7141.11944,0.01061
7143.04791,0.04459
7144.97638,0.06597
7146.90485,0.08196
7148.83332,0.09469
7150.76179,0.08483
7152.69026,0.06680
7154.61873,0.03240
7156.54719,-0.05007
7158.47566,-0.12821
7160.40413,-0.16915
7162.33260,-0.20810
7164.26107,-0.18405
7166.18954,-0.02697
7168.11801,0.08690
7170.04647,0.03568
7171.97494,-0.02760
7173.90341,-0.00325
7175.83188,0.05682
7177.76035,0.14136
7179.68882,0.23822
7181.61729,0.32502
7183.54576,0.37326
7185.47422,0.31586
7187.40269,0.21058
7189.33116,0.19020
7191.25963,0.27842
7193.18810,0.31661
7195.11657,0.23796
7197.04504,0.12237
7198.97350,0.03527
7200.90197,-0.01222
7202.83044,-0.05050
7204.75891,-0.10056
7206.68738,-0.12309
7208.61585,-0.10436
7210.54432,-0.07242
7212.47279,-0.01935
7214.40125,0.07387
7216.32972,0.15897
7218.25819,0.07311
7220.18666,-0.09105
7222.11513,-0.09116
7224.04360,-0.03497
7225.97207,-0.07920
7227.90053,-0.12216
7229.82900,-0.02046
7231.75747,0.11275
7233.68594,0.13898
7235.61441,0.11790
7237.54288,0.03540
7239.47135,-0.06290
7241.39982,-0.08544
7243.32828,-0.06238
7245.25675,-0.01386
7247.18522,0.08530
7249.11369,0.20365
7251.04216,0.26887
7252.97063,0.17208
7254.89910,-0.08741
7256.82756,-0.20481
7258.75603,-0.08153
7260.68450,0.24066
7262.61297,0.44335
7264.54144,0.29811
7266.46991,0.06347
7268.39838,0.03390
7270.32685,0.21008
7272.25531,0.27348
7274.18378,0.01388
7276.11225,-0.21383
7278.04072,-0.24929
7279.96919,-0.10653
7281.89766,0.01008
7283.82613,-0.03304
7285.75459,-0.02933
7287.68306,0.05405
7289.61153,0.00459
7291.54000,-0.09775
7293.46847,-0.03484
7295.39694,0.06945
7297.32541,0.11810
7299.25387,0.11743
7301.18234,0.05573
7303.11081,-0.00913
7305.03928,-0.00090
7306.96775,0.04937
7308.89622,0.09315
7310.82469,0.15304
7312.75316,0.17920
7314.68162,0.13000
7316.61009,0.14167
7318.53856,0.26947
7320.46703,0.33310
7322.39550,0.26437
7324.32397,0.07319
7326.25244,-0.06649
7328.18090,-0.02047
7330.10937,0.04284
7332.03784,-0.01589
7333.96631,-0.01134
7335.89478,0.09388
7337.82325,0.16498
7339.75172,0.07827
7341.68019,0.00314
7343.60865,0.05958
7345.53712,0.02947
7347.46559,0.01100
7349.39406,0.20104
7351.32253,0.35207
7353.25100,0.24839
7355.17947,0.06654
7357.10793,0.07202
7359.03640,0.16145
7360.96487,0.05597
7362.89334,-0.03932
7364.82181,0.00296
7366.75028,0.03535
7368.67875,-0.03600
7370.60722,-0.08813
7372.53568,-0.03253
7374.46415,0.11205
7376.39262,0.23655
7378.32109,0.25363
7380.24956,0.22263
7382.17803,0.14607
7384.10650,0.05354
7386.03496,0.02050
7387.96343,0.05288
7389.89190,0.02720
7391.82037,-0.00473
7393.74884,0.12196
7395.67731,0.24722
7397.60578,0.16872
7399.53425,0.07203
7401.46271,0.08718
7403.39118,0.10147
7405.31965,0.05142
7407.24812,0.01319
7409.17659,0.00850
7411.10506,0.00115
7413.03353,-0.04871
7414.96199,-0.04792
7416.89046,0.06416
7418.81893,0.15441
7420.74740,0.16424
7422.67587,0.16497
7424.60434,0.12120
7426.53281,0.00890
7428.46128,-0.12846
7430.38974,-0.19758
7432.31821,-0.15744
7434.24668,-0.05214
7436.17515,0.03977
7438.10362,0.07018
7440.03209,0.09977
7441.96056,0.13930
7443.88902,0.15358
7445.81749,0.16403
7447.74596,0.18252
7449.67443,0.21876
7451.60290,0.28320
7453.53137,0.21834
7455.45984,0.04270
7457.38831,-0.04492
7459.31677,-0.01316
7461.24524,0.02515
7463.17371,0.07086
7465.10218,0.16900
7467.03065,0.17508
7468.95912,0.03413
7470.88759,-0.10957
7472.81605,-0.08768
7474.74452,0.07884
7476.67299,0.15086
7478.60146,-0.04033
7480.52993,-0.19763
7482.45840,-0.03514
7484.38687,0.16132
7486.31533,0.19427
7488.24380,0.11295
7490.17227,0.05575
7492.10074,0.13341
7494.02921,0.22993
7495.95768,0.21500
7497.88615,0.09455
