399.19301,0.00002
401.12148,0.00003
403.04995,0.00006
404.97842,0.00008
406.90689,0.00011
408.83536,0.00011
410.76382,0.00011
412.69229,0.00011
414.62076,0.00011
416.54923,0.00009
418.47770,0.00007
420.40617,0.00006
422.33464,0.00006
424.26311,0.00008
426.19157,0.00011
428.12004,0.00012
430.04851,0.00011
431.97698,0.00012
433.90545,0.00014
435.83392,0.00013
437.76239,0.00012
439.69085,0.00013
441.61932,0.00012
443.54779,0.00011
445.47626,0.00011
447.40473,0.00014
449.33320,0.00016
451.26167,0.00018
453.19013,0.00018
455.11860,0.00016
457.04707,0.00014
458.97554,0.00014
460.90401,0.00017
462.83248,0.00018
464.76095,0.00018
466.68942,0.00016
468.61788,0.00016
470.54635,0.00016
472.47482,0.00016
474.40329,0.00016
476.33176,0.00019
478.26023,0.00020
480.18870,0.00020
482.11716,0.00018
484.04563,0.00016
485.97410,0.00018
487.90257,0.00021
489.83104,0.00023
491.75951,0.00023
493.68798,0.00024
495.61645,0.00025
497.54491,0.00025
499.47338,0.00025
501.40185,0.00023
503.33032,0.00021
505.25879,0.00021
507.18726,0.00023
509.11573,0.00025
511.04419,0.00026
512.97266,0.00027
514.90113,0.00025
516.82960,0.00022
518.75807,0.00022
520.68654,0.00025
522.61501,0.00027
524.54348,0.00027
526.47194,0.00026
528.40041,0.00027
530.32888,0.00029
532.25735,0.00031
534.18582,0.00030
536.11429,0.00029
538.04276,0.00029
539.97122,0.00029
541.89969,0.00028
543.82816,0.00027
545.75663,0.00027
547.68510,0.00027
549.61357,0.00028
551.54204,0.00030
553.47051,0.00031
555.39897,0.00032
557.32744,0.00034
559.25591,0.00034
561.18438,0.00032
563.11285,0.00029
565.04132,0.00029
566.96979,0.00030
568.89825,0.00030
570.82672,0.00030
572.75519,0.00031
574.68366,0.00033
576.61213,0.00034
578.54060,0.00035
580.46907,0.00037
582.39754,0.00038
584.32600,0.00037
586.25447,0.00037
588.18294,0.00037
590.11141,0.00036
592.03988,0.00035
593.96835,0.00036
595.89682,0.00039
597.82528,0.00041
599.75375,0.00040
601.68222,0.00039
603.61069,0.00040
605.53916,0.00041
607.46763,0.00041
609.39610,0.00041
611.32456,0.00044
613.25303,0.00046
615.18150,0.00045
617.10997,0.00043
619.03844,0.00042
620.96691,0.00043
622.89538,0.00043
624.82385,0.00044
626.75231,0.00047
628.68078,0.00049
630.60925,0.00048
632.53772,0.00048
634.46619,0.00049
636.39466,0.00050
638.32313,0.00051
640.25159,0.00052
642.18006,0.00053
644.10853,0.00054
646.03700,0.00054
647.96547,0.00053
649.89394,0.00051
651.82241,0.00049
653.75088,0.00047
655.67934,0.00048
657.60781,0.00050
659.53628,0.00053
661.46475,0.00054
663.39322,0.00054
665.32169,0.00050
667.25016,0.00040
669.17862,0.00040
671.10709,0.00049
673.03556,0.00055
674.96403,0.00054
676.89250,0.00053
678.82097,0.00054
680.74944,0.00056
682.67791,0.00055
684.60637,0.00055
686.53484,0.00055
688.46331,0.00056
690.39178,0.00057
692.32025,0.00058
694.24872,0.00060
696.17719,0.00063
698.10565,0.00064
700.03412,0.00064
701.96259,0.00065
703.89106,0.00067
705.81953,0.00068
707.74800,0.00069
709.67647,0.00070
711.60494,0.00071
713.53340,0.00072
715.46187,0.00073
717.39034,0.00073
719.31881,0.00071
721.24728,0.00070
723.17575,0.00072
725.10422,0.00074
727.03268,0.00073
728.96115,0.00072
730.88962,0.00073
732.81809,0.00073
734.74656,0.00072
736.67503,0.00072
738.60350,0.00073
740.53197,0.00073
742.46043,0.00073
744.38890,0.00072
746.31737,0.00072
748.24584,0.00072
750.17431,0.00073
752.10278,0.00073
754.03125,0.00073
755.95971,0.00074
757.88818,0.00075
759.81665,0.00075
761.74512,0.00076
763.67359,0.00076
765.60206,0.00076
767.53053,0.00076
769.45900,0.00076
771.38746,0.00075
773.31593,0.00075
775.24440,0.00075
777.17287,0.00075
779.10134,0.00074
781.02981,0.00074
782.95828,0.00075
784.88674,0.00076
786.81521,0.00075
788.74368,0.00074
790.67215,0.00072
792.60062,0.00072
794.52909,0.00072
796.45756,0.00072
798.38602,0.00070
800.31449,0.00069
802.24296,0.00068
804.17143,0.00066
806.09990,0.00066
808.02837,0.00068
809.95684,0.00068
811.88531,0.00067
813.81377,0.00066
815.74224,0.00067
817.67071,0.00067
819.59918,0.00067
821.52765,0.00068
823.45612,0.00068
825.38459,0.00068
827.31305,0.00070
829.24152,0.00072
831.16999,0.00073
833.09846,0.00074
835.02693,0.00074
836.95540,0.00073
838.88387,0.00072
840.81234,0.00072
842.74080,0.00073
844.66927,0.00074
846.59774,0.00074
848.52621,0.00073
850.45468,0.00072
852.38315,0.00073
854.31162,0.00074
856.24008,0.00074
858.16855,0.00074
860.09702,0.00075
862.02549,0.00075
863.95396,0.00075
865.88243,0.00074
867.81090,0.00075
869.73937,0.00076
871.66783,0.00076
873.59630,0.00078
875.52477,0.00080
877.45324,0.00079
879.38171,0.00079
881.31018,0.00079
883.23865,0.00080
885.16711,0.00080
887.09558,0.00081
889.02405,0.00082
890.95252,0.00082
892.88099,0.00082
894.80946,0.00083
896.73793,0.00083
898.66640,0.00083
900.59486,0.00084
902.52333,0.00086
904.45180,0.00086
906.38027,0.00085
908.30874,0.00086
910.23721,0.00089
912.16568,0.00090
914.09414,0.00090
916.02261,0.00090
917.95108,0.00090
919.87955,0.00091
921.80802,0.00092
923.73649,0.00091
925.66496,0.00091
927.59343,0.00092
929.52189,0.00093
931.45036,0.00093
933.37883,0.00094
935.30730,0.00095
937.23577,0.00096
939.16424,0.00096
941.09271,0.00097
943.02117,0.00097
944.94964,0.00097
946.87811,0.00096
948.80658,0.00097
950.73505,0.00098
952.66352,0.00098
954.59199,0.00098
956.52045,0.00099
958.44892,0.00099
960.37739,0.00099
962.30586,0.00100
964.23433,0.00099
966.16280,0.00099
968.09127,0.00098
970.01974,0.00098
971.94820,0.00098
973.87667,0.00097
975.80514,0.00097
977.73361,0.00097
979.66208,0.00096
981.59055,0.00096
983.51902,0.00097
985.44748,0.00097
987.37595,0.00096
989.30442,0.00096
991.23289,0.00095
993.16136,0.00096
995.08983,0.00096
997.01830,0.00096
998.94677,0.00096
1000.87523,0.00096
1002.80370,0.00096
1004.73217,0.00095
1006.66064,0.00093
1008.58911,0.00093
1010.51758,0.00092
1012.44605,0.00092
1014.37451,0.00092
1016.30298,0.00092
1018.23145,0.00090
1020.15992,0.00089
1022.08839,0.00089
1024.01686,0.00088
1025.94533,0.00088
1027.87380,0.00087
1029.80226,0.00087
1031.73073,0.00087
1033.65920,0.00086
1035.58767,0.00085
1037.51614,0.00085
1039.44461,0.00085
1041.37308,0.00085
1043.30154,0.00085
1045.23001,0.00085
1047.15848,0.00083
1049.08695,0.00080
1051.01542,0.00081
1052.94389,0.00082
1054.87236,0.00083
1056.80083,0.00083
1058.72929,0.00082
1060.65776,0.00081
1062.58623,0.00081
1064.51470,0.00080
1066.44317,0.00080
1068.37164,0.00080
1070.30011,0.00080
1072.22857,0.00079
1074.15704,0.00080
1076.08551,0.00080
1078.01398,0.00081
1079.94245,0.00082
1081.87092,0.00083
1083.79939,0.00082
1085.72786,0.00081
1087.65632,0.00081
1089.58479,0.00082
1091.51326,0.00082
1093.44173,0.00082
1095.37020,0.00082
1097.29867,0.00082
1099.22714,0.00083
1101.15560,0.00084
1103.08407,0.00085
1105.01254,0.00084
1106.94101,0.00084
1108.86948,0.00083
1110.79795,0.00083
1112.72642,0.00082
1114.65489,0.00081
1116.58335,0.00081
1118.51182,0.00082
1120.44029,0.00083
1122.36876,0.00085
1124.29723,0.00085
1126.22570,0.00085
1128.15417,0.00087
1130.08263,0.00089
1132.01110,0.00090
1133.93957,0.00092
1135.86804,0.00094
1137.79651,0.00096
1139.72498,0.00098
1141.65345,0.00100
1143.58191,0.00101
1145.51038,0.00103
1147.43885,0.00104
1149.36732,0.00106
1151.29579,0.00108
1153.22426,0.00109
1155.15273,0.00110
1157.08120,0.00111
1159.00966,0.00112
1160.93813,0.00112
1162.86660,0.00113
1164.79507,0.00114
1166.72354,0.00115
1168.65201,0.00115
1170.58048,0.00116
1172.50894,0.00118
1174.43741,0.00119
1176.36588,0.00120
1178.29435,0.00122
1180.22282,0.00123
1182.15129,0.00123
1184.07976,0.00124
1186.00823,0.00124
1187.93669,0.00125
1189.86516,0.00126
1191.79363,0.00126
1193.72210,0.00126
1195.65057,0.00127
1197.57904,0.00128
1199.50751,0.00129
1201.43597,0.00131
1203.36444,0.00132
1205.29291,0.00132
1207.22138,0.00133
1209.14985,0.00133
1211.07832,0.00133
1213.00679,0.00134
1214.93526,0.00136
1216.86372,0.00136
1218.79219,0.00137
1220.72066,0.00138
1222.64913,0.00139
1224.57760,0.00139
1226.50607,0.00139
1228.43454,0.00140
1230.36300,0.00141
1232.29147,0.00142
1234.21994,0.00142
1236.14841,0.00142
1238.07688,0.00143
1240.00535,0.00145
1241.93382,0.00146
1243.86229,0.00147
1245.79075,0.00147
1247.71922,0.00147
1249.64769,0.00148
1251.57616,0.00148
1253.50463,0.00147
1255.43310,0.00146
1257.36157,0.00143
1259.29003,0.00139
1261.21850,0.00137
1263.14697,0.00135
1265.07544,0.00135
1267.00391,0.00135
1268.93238,0.00137
1270.86085,0.00141
1272.78932,0.00144
1274.71778,0.00147
1276.64625,0.00150
1278.57472,0.00151
1280.50319,0.00153
1282.43166,0.00154
1284.36013,0.00154
1286.28860,0.00154
1288.21706,0.00153
1290.14553,0.00154
1292.07400,0.00155
1294.00247,0.00155
1295.93094,0.00155
1297.85941,0.00156
1299.78788,0.00157
1301.71634,0.00157
1303.64481,0.00156
1305.57328,0.00157
1307.50175,0.00157
1309.43022,0.00155
1311.35869,0.00152
1313.28716,0.00149
1315.21563,0.00148
1317.14409,0.00147
1319.07256,0.00147
1321.00103,0.00151
1322.92950,0.00157
1324.85797,0.00159
1326.78644,0.00159
1328.71491,0.00158
1330.64337,0.00158
1332.57184,0.00158
1334.50031,0.00153
1336.42878,0.00142
1338.35725,0.00130
1340.28572,0.00131
1342.21419,0.00144
1344.14266,0.00154
1346.07112,0.00155
1347.99959,0.00153
1349.92806,0.00153
1351.85653,0.00154
1353.78500,0.00153
1355.71347,0.00152
1357.64194,0.00150
1359.57040,0.00141
1361.49887,0.00127
1363.42734,0.00126
1365.35581,0.00137
1367.28428,0.00144
1369.21275,0.00144
1371.14122,0.00139
1373.06969,0.00130
1374.99815,0.00128
1376.92662,0.00138
1378.85509,0.00146
1380.78356,0.00149
1382.71203,0.00149
1384.64050,0.00140
1386.56897,0.00128
1388.49743,0.00130
1390.42590,0.00139
1392.35437,0.00132
1394.28284,0.00114
1396.21131,0.00106
1398.13978,0.00110
1400.06825,0.00121
1401.99672,0.00131
1403.92518,0.00131
1405.85365,0.00132
1407.78212,0.00140
1409.71059,0.00143
1411.63906,0.00142
1413.56753,0.00139
1415.49600,0.00125
1417.42446,0.00103
1419.35293,0.00096
1421.28140,0.00110
1423.20987,0.00122
1425.13834,0.00130
1427.06681,0.00134
1428.99528,0.00130
1430.92375,0.00128
1432.85221,0.00129
1434.78068,0.00116
1436.70915,0.00108
1438.63762,0.00124
1440.56609,0.00146
1442.49456,0.00154
1444.42303,0.00149
1446.35149,0.00136
1448.27996,0.00129
1450.20843,0.00133
1452.13690,0.00131
1454.06537,0.00107
1455.99384,0.00075
1457.92231,0.00069
1459.85077,0.00100
1461.77924,0.00126
1463.70771,0.00125
1465.63618,0.00125
1467.56465,0.00136
1469.49312,0.00128
1471.42159,0.00098
1473.35006,0.00084
1475.27852,0.00099
1477.20699,0.00125
1479.13546,0.00143
1481.06393,0.00149
1482.99240,0.00150
1484.92087,0.00140
1486.84934,0.00114
1488.77780,0.00094
1490.70627,0.00101
1492.63474,0.00122
1494.56321,0.00121
1496.49168,0.00104
1498.42015,0.00104
1500.34862,0.00120
1502.27709,0.00124
1504.20555,0.00094
1506.13402,0.00056
1508.06249,0.00052
1509.99096,0.00079
1511.91943,0.00103
1513.84790,0.00105
1515.77637,0.00090
1517.70483,0.00078
1519.63330,0.00069
1521.56177,0.00064
1523.49024,0.00074
1525.41871,0.00087
1527.34718,0.00101
1529.27565,0.00115
1531.20412,0.00111
1533.13258,0.00098
1535.06105,0.00098
1536.98952,0.00090
1538.91799,0.00060
1540.84646,0.00044
1542.77493,0.00055
1544.70340,0.00082
1546.63186,0.00109
1548.56033,0.00119
1550.48880,0.00116
1552.41727,0.00109
1554.34574,0.00093
1556.27421,0.00067
1558.20268,0.00045
1560.13115,0.00057
1562.05961,0.00096
1563.98808,0.00121
1565.91655,0.00123
1567.84502,0.00113
1569.77349,0.00108
1571.70196,0.00120
1573.63043,0.00118
1575.55889,0.00100
1577.48736,0.00106
1579.41583,0.00135
1581.34430,0.00153
1583.27277,0.00158
1585.20124,0.00159
1587.12971,0.00158
1589.05818,0.00155
1590.98664,0.00153
1592.91511,0.00151
1594.84358,0.00149
1596.77205,0.00152
1598.70052,0.00155
1600.62899,0.00153
1602.55746,0.00150
1604.48592,0.00149
1606.41439,0.00147
1608.34286,0.00143
1610.27133,0.00146
1612.19980,0.00148
1614.12827,0.00131
1616.05674,0.00108
1617.98521,0.00111
1619.91367,0.00125
1621.84214,0.00119
1623.77061,0.00112
1625.69908,0.00119
1627.62755,0.00128
1629.55602,0.00139
1631.48449,0.00141
1633.41295,0.00115
1635.34142,0.00084
1637.26989,0.00090
1639.19836,0.00121
1641.12683,0.00140
1643.05530,0.00132
1644.98377,0.00100
1646.91223,0.00078
1648.84070,0.00083
1650.76917,0.00078
1652.69764,0.00059
1654.62611,0.00073
1656.55458,0.00116
1658.48305,0.00143
1660.41152,0.00136
1662.33998,0.00123
1664.26845,0.00128
1666.19692,0.00129
1668.12539,0.00107
1670.05386,0.00093
1671.98233,0.00101
1673.91080,0.00107
1675.83926,0.00112
1677.76773,0.00123
1679.69620,0.00120
1681.62467,0.00094
1683.55314,0.00070
1685.48161,0.00077
1687.41008,0.00105
1689.33855,0.00125
1691.26701,0.00135
1693.19548,0.00123
1695.12395,0.00093
1697.05242,0.00072
1698.98089,0.00065
1700.90936,0.00073
1702.83783,0.00091
1704.76629,0.00102
1706.69476,0.00113
1708.62323,0.00131
1710.55170,0.00140
1712.48017,0.00127
1714.40864,0.00098
1716.33711,0.00076
1718.26558,0.00084
1720.19404,0.00118
1722.12251,0.00145
1724.05098,0.00155
1725.97945,0.00158
1727.90792,0.00149
1729.83639,0.00128
1731.76486,0.00101
1733.69332,0.00085
1735.62179,0.00099
1737.55026,0.00117
1739.47873,0.00119
1741.40720,0.00119
1743.33567,0.00122
1745.26414,0.00120
1747.19261,0.00110
1749.12107,0.00100
1751.04954,0.00109
1752.97801,0.00132
1754.90648,0.00145
1756.83495,0.00143
1758.76342,0.00141
1760.69189,0.00136
1762.62035,0.00140
1764.54882,0.00152
1766.47729,0.00150
1768.40576,0.00132
1770.33423,0.00110
1772.26270,0.00101
1774.19117,0.00119
1776.11964,0.00144
1778.04810,0.00153
1779.97657,0.00150
1781.90504,0.00151
1783.83351,0.00155
1785.76198,0.00160
1787.69045,0.00161
1789.61892,0.00143
1791.54738,0.00121
1793.47585,0.00122
1795.40432,0.00139
1797.33279,0.00146
1799.26126,0.00142
1801.18973,0.00143
1803.11820,0.00155
1805.04666,0.00167
1806.97513,0.00167
1808.90360,0.00158
1810.83207,0.00154
1812.76054,0.00163
1814.68901,0.00172
1816.61748,0.00175
1818.54595,0.00176
1820.47441,0.00175
1822.40288,0.00166
1824.33135,0.00152
1826.25982,0.00145
1828.18829,0.00138
1830.11676,0.00137
1832.04523,0.00153
1833.97369,0.00168
1835.90216,0.00169
1837.83063,0.00168
1839.75910,0.00167
1841.68757,0.00153
1843.61604,0.00134
1845.54451,0.00136
1847.47298,0.00154
1849.40144,0.00169
1851.32991,0.00177
1853.25838,0.00180
1855.18685,0.00180
1857.11532,0.00178
1859.04379,0.00176
1860.97226,0.00176
1862.90072,0.00174
1864.82919,0.00163
1866.75766,0.00143
1868.68613,0.00133
1870.61460,0.00147
1872.54307,0.00167
1874.47154,0.00178
1876.40001,0.00179
1878.32847,0.00179
1880.25694,0.00178
1882.18541,0.00177
1884.11388,0.00176
1886.04235,0.00173
1887.97082,0.00165
1889.89929,0.00161
1891.82775,0.00166
1893.75622,0.00169
1895.68469,0.00170
1897.61316,0.00175
1899.54163,0.00179
1901.47010,0.00179
1903.39857,0.00178
1905.32704,0.00175
1907.25550,0.00170
1909.18397,0.00167
1911.11244,0.00170
1913.04091,0.00175
1914.96938,0.00171
1916.89785,0.00161
1918.82632,0.00157
1920.75478,0.00159
1922.68325,0.00159
1924.61172,0.00166
1926.54019,0.00176
1928.46866,0.00180
1930.39713,0.00180
1932.32560,0.00180
1934.25407,0.00179
1936.18253,0.00179
1938.11100,0.00177
1940.03947,0.00169
1941.96794,0.00160
1943.89641,0.00161
1945.82488,0.00169
1947.75335,0.00175
1949.68181,0.00177
1951.61028,0.00177
1953.53875,0.00175
1955.46722,0.00175
1957.39569,0.00176
1959.32416,0.00177
1961.25263,0.00177
1963.18110,0.00176
1965.10956,0.00171
1967.03803,0.00167
1968.96650,0.00170
1970.89497,0.00177
1972.82344,0.00179
1974.75191,0.00179
1976.68038,0.00179
1978.60884,0.00179
1980.53731,0.00179
1982.46578,0.00178
1984.39425,0.00177
1986.32272,0.00174
1988.25119,0.00171
1990.17966,0.00166
1992.10812,0.00164
1994.03659,0.00169
1995.96506,0.00175
1997.89353,0.00177
1999.82200,0.00176
2001.75047,0.00176
2003.67894,0.00176
2005.60741,0.00176
2007.53587,0.00176
2009.46434,0.00177
2011.39281,0.00177
2013.32128,0.00176
2015.24975,0.00172
2017.17822,0.00169
2019.10669,0.00171
2021.03515,0.00174
2022.96362,0.00175
2024.89209,0.00174
2026.82056,0.00174
2028.74903,0.00174
2030.67750,0.00175
2032.60597,0.00176
2034.53444,0.00176
2036.46290,0.00175
2038.39137,0.00174
2040.31984,0.00172
2042.24831,0.00171
2044.17678,0.00172
2046.10525,0.00174
2048.03372,0.00175
2049.96218,0.00176
2051.89065,0.00175
2053.81912,0.00175
2055.74759,0.00175
2057.67606,0.00175
2059.60453,0.00174
2061.53300,0.00173
2063.46147,0.00171
2065.38993,0.00170
2067.31840,0.00172
2069.24687,0.00174
2071.17534,0.00174
2073.10381,0.00174
2075.03228,0.00174
2076.96075,0.00173
2078.88921,0.00173
2080.81768,0.00174
2082.74615,0.00174
2084.67462,0.00174
2086.60309,0.00173
2088.53156,0.00172
2090.46003,0.00172
2092.38850,0.00172
2094.31696,0.00173
2096.24543,0.00173
2098.17390,0.00173
2100.10237,0.00173
2102.03084,0.00173
2103.95931,0.00173
2105.88778,0.00173
2107.81624,0.00173
2109.74471,0.00173
2111.67318,0.00173
2113.60165,0.00172
2115.53012,0.00172
2117.45859,0.00172
2119.38706,0.00172
2121.31553,0.00173
2123.24399,0.00173
2125.17246,0.00173
2127.10093,0.00172
2129.02940,0.00171
2130.95787,0.00171
2132.88634,0.00171
2134.81481,0.00172
2136.74327,0.00172
2138.67174,0.00172
2140.60021,0.00172
2142.52868,0.00173
2144.45715,0.00173
2146.38562,0.00172
2148.31409,0.00171
2150.24255,0.00171
2152.17102,0.00171
2154.09949,0.00170
2156.02796,0.00169
2157.95643,0.00169
2159.88490,0.00169
2161.81337,0.00169
2163.74184,0.00169
2165.67030,0.00168
2167.59877,0.00168
2169.52724,0.00168
2171.45571,0.00168
2173.38418,0.00169
2175.31265,0.00169
2177.24112,0.00169
2179.16958,0.00170
2181.09805,0.00169
2183.02652,0.00169
2184.95499,0.00168
2186.88346,0.00168
2188.81193,0.00168
2190.74040,0.00168
2192.66887,0.00168
2194.59733,0.00168
2196.52580,0.00168
2198.45427,0.00168
2200.38274,0.00167
2202.31121,0.00167
2204.23968,0.00167
2206.16815,0.00168
2208.09661,0.00168
2210.02508,0.00168
2211.95355,0.00167
2213.88202,0.00167
2215.81049,0.00167
2217.73896,0.00167
2219.66743,0.00167
2221.59590,0.00167
2223.52436,0.00167
2225.45283,0.00167
2227.38130,0.00166
2229.30977,0.00166
2231.23824,0.00166
2233.16671,0.00167
2235.09518,0.00166
2237.02364,0.00165
2238.95211,0.00166
2240.88058,0.00166
2242.80905,0.00166
2244.73752,0.00165
2246.66599,0.00165
2248.59446,0.00165
2250.52293,0.00164
2252.45139,0.00163
2254.37986,0.00163
2256.30833,0.00162
2258.23680,0.00161
2260.16527,0.00161
2262.09374,0.00161
2264.02221,0.00160
2265.95067,0.00160
2267.87914,0.00160
2269.80761,0.00160
2271.73608,0.00159
2273.66455,0.00159
2275.59302,0.00159
2277.52149,0.00159
2279.44996,0.00159
2281.37842,0.00160
2283.30689,0.00160
2285.23536,0.00158
2287.16383,0.00156
2289.09230,0.00154
2291.02077,0.00152
2292.94924,0.00149
2294.87770,0.00146
2296.80617,0.00142
2298.73464,0.00139
2300.66311,0.00135
2302.59158,0.00130
2304.52005,0.00125
2306.44852,0.00118
2308.37699,0.00111
2310.30545,0.00105
2312.23392,0.00099
2314.16239,0.00095
2316.09086,0.00089
2318.01933,0.00082
2319.94780,0.00074
2321.87627,0.00068
2323.80473,0.00063
2325.73320,0.00060
2327.66167,0.00057
2329.59014,0.00053
2331.51861,0.00049
2333.44708,0.00048
2335.37555,0.00047
2337.30401,0.00046
2339.23248,0.00044
2341.16095,0.00043
2343.08942,0.00045
2345.01789,0.00052
2346.94636,0.00063
2348.87483,0.00070
2350.80330,0.00063
2352.73176,0.00049
2354.66023,0.00038
2356.58870,0.00032
2358.51717,0.00029
2360.44564,0.00028
2362.37411,0.00028
2364.30258,0.00030
2366.23104,0.00034
2368.15951,0.00039
2370.08798,0.00046
2372.01645,0.00056
2373.94492,0.00069
2375.87339,0.00083
2377.80186,0.00098
2379.73033,0.00115
2381.65879,0.00130
2383.58726,0.00142
2385.51573,0.00150
2387.44420,0.00155
2389.37267,0.00157
2391.30114,0.00157
2393.22961,0.00158
2395.15807,0.00158
2397.08654,0.00157
2399.01501,0.00157
2400.94348,0.00157
2402.87195,0.00157
2404.80042,0.00156
2406.72889,0.00156
2408.65736,0.00157
2410.58582,0.00156
2412.51429,0.00156
2414.44276,0.00156
2416.37123,0.00156
2418.29970,0.00157
2420.22817,0.00157
2422.15664,0.00156
2424.08510,0.00156
2426.01357,0.00156
2427.94204,0.00155
2429.87051,0.00155
2431.79898,0.00155
2433.72745,0.00155
2435.65592,0.00155
2437.58439,0.00155
2439.51285,0.00155
2441.44132,0.00155
2443.36979,0.00154
2445.29826,0.00154
2447.22673,0.00154
2449.15520,0.00155
2451.08367,0.00154
2453.01213,0.00153
2454.94060,0.00153
2456.86907,0.00153
2458.79754,0.00153
2460.72601,0.00153
2462.65448,0.00153
2464.58295,0.00153
2466.51142,0.00154
2468.43988,0.00153
2470.36835,0.00153
2472.29682,0.00153
2474.22529,0.00153
2476.15376,0.00153
2478.08223,0.00153
2480.01070,0.00153
2481.93916,0.00153
2483.86763,0.00153
2485.79610,0.00152
2487.72457,0.00152
2489.65304,0.00152
2491.58151,0.00152
2493.50998,0.00151
2495.43844,0.00151
2497.36691,0.00151
2499.29538,0.00151
2501.22385,0.00151
2503.15232,0.00151
2505.08079,0.00151
2507.00926,0.00151
2508.93773,0.00150
2510.86619,0.00150
2512.79466,0.00150
2514.72313,0.00150
2516.65160,0.00151
2518.58007,0.00151
2520.50854,0.00151
2522.43701,0.00150
2524.36547,0.00150
2526.29394,0.00150
2528.22241,0.00150
2530.15088,0.00150
2532.07935,0.00150
2534.00782,0.00150
2535.93629,0.00149
2537.86476,0.00148
2539.79322,0.00148
2541.72169,0.00148
2543.65016,0.00148
2545.57863,0.00148
2547.50710,0.00148
2549.43557,0.00148
2551.36404,0.00148
2553.29250,0.00148
2555.22097,0.00148
2557.14944,0.00147
2559.07791,0.00147
2561.00638,0.00147
2562.93485,0.00148
2564.86332,0.00147
2566.79179,0.00147
2568.72025,0.00147
2570.64872,0.00146
2572.57719,0.00146
2574.50566,0.00146
2576.43413,0.00146
2578.36260,0.00146
2580.29107,0.00146
2582.21953,0.00145
2584.14800,0.00146
2586.07647,0.00146
2588.00494,0.00146
2589.93341,0.00146
2591.86188,0.00146
2593.79035,0.00146
2595.71882,0.00145
2597.64728,0.00144
2599.57575,0.00144
2601.50422,0.00144
2603.43269,0.00144
2605.36116,0.00145
2607.28963,0.00145
2609.21810,0.00145
2611.14656,0.00144
2613.07503,0.00144
2615.00350,0.00144
2616.93197,0.00144
2618.86044,0.00144
2620.78891,0.00144
2622.71738,0.00144
2624.64585,0.00144
2626.57431,0.00143
2628.50278,0.00143
2630.43125,0.00143
2632.35972,0.00143
2634.28819,0.00143
2636.21666,0.00143
2638.14513,0.00143
2640.07359,0.00142
2642.00206,0.00142
2643.93053,0.00142
2645.85900,0.00142
2647.78747,0.00142
2649.71594,0.00141
2651.64441,0.00141
2653.57288,0.00141
2655.50134,0.00141
2657.42981,0.00141
2659.35828,0.00140
2661.28675,0.00140
2663.21522,0.00140
2665.14369,0.00141
2667.07216,0.00140
2669.00062,0.00140
2670.92909,0.00140
2672.85756,0.00140
2674.78603,0.00140
2676.71450,0.00140
2678.64297,0.00140
2680.57144,0.00139
2682.49990,0.00139
2684.42837,0.00138
2686.35684,0.00138
2688.28531,0.00139
2690.21378,0.00139
2692.14225,0.00138
2694.07072,0.00138
2695.99919,0.00138
2697.92765,0.00138
2699.85612,0.00138
2701.78459,0.00138
2703.71306,0.00138
2705.64153,0.00137
2707.57000,0.00137
2709.49847,0.00136
2711.42693,0.00136
2713.35540,0.00136
2715.28387,0.00137
2717.21234,0.00136
2719.14081,0.00136
2721.06928,0.00136
2722.99775,0.00135
2724.92622,0.00135
2726.85468,0.00136
2728.78315,0.00136
2730.71162,0.00136
2732.64009,0.00135
2734.56856,0.00135
2736.49703,0.00135
2738.42550,0.00135
2740.35396,0.00134
2742.28243,0.00134
2744.21090,0.00135
2746.13937,0.00135
2748.06784,0.00135
2749.99631,0.00135
2751.92478,0.00134
2753.85325,0.00133
2755.78171,0.00132
2757.71018,0.00132
2759.63865,0.00132
2761.56712,0.00133
2763.49559,0.00133
2765.42406,0.00133
2767.35253,0.00132
2769.28099,0.00132
2771.20946,0.00132
2773.13793,0.00131
2775.06640,0.00131
2776.99487,0.00131
2778.92334,0.00130
2780.85181,0.00130
2782.78028,0.00130
2784.70874,0.00129
2786.63721,0.00129
2788.56568,0.00129
2790.49415,0.00130
2792.42262,0.00130
2794.35109,0.00129
2796.27956,0.00129
2798.20802,0.00128
2800.13649,0.00128
2802.06496,0.00127
2803.99343,0.00127
2805.92190,0.00128
2807.85037,0.00128
2809.77884,0.00127
2811.70731,0.00126
2813.63577,0.00126
2815.56424,0.00126
2817.49271,0.00126
2819.42118,0.00126
2821.34965,0.00125
2823.27812,0.00125
2825.20659,0.00125
2827.13505,0.00125
2829.06352,0.00125
2830.99199,0.00125
2832.92046,0.00124
2834.84893,0.00124
2836.77740,0.00124
2838.70587,0.00124
2840.63433,0.00124
2842.56280,0.00123
2844.49127,0.00122
2846.41974,0.00121
2848.34821,0.00120
2850.27668,0.00119
2852.20515,0.00119
2854.13362,0.00119
2856.06208,0.00120
2857.99055,0.00119
2859.91902,0.00119
2861.84749,0.00120
2863.77596,0.00120
2865.70443,0.00120
2867.63290,0.00120
2869.56136,0.00120
2871.48983,0.00119
2873.41830,0.00118
2875.34677,0.00118
2877.27524,0.00119
2879.20371,0.00119
2881.13218,0.00118
2883.06065,0.00118
2884.98911,0.00118
2886.91758,0.00118
2888.84605,0.00118
2890.77452,0.00118
2892.70299,0.00117
2894.63146,0.00117
2896.55993,0.00116
2898.48839,0.00115
2900.41686,0.00115
2902.34533,0.00115
2904.27380,0.00115
2906.20227,0.00115
2908.13074,0.00114
2910.05921,0.00114
2911.98768,0.00113
2913.91614,0.00113
2915.84461,0.00112
2917.77308,0.00111
2919.70155,0.00111
2921.63002,0.00111
2923.55849,0.00111
2925.48696,0.00111
2927.41542,0.00110
2929.34389,0.00109
2931.27236,0.00109
2933.20083,0.00110
2935.12930,0.00110
2937.05777,0.00111
2938.98624,0.00111
2940.91471,0.00111
2942.84317,0.00111
2944.77164,0.00111
2946.70011,0.00111
2948.62858,0.00111
2950.55705,0.00111
2952.48552,0.00110
2954.41399,0.00109
2956.34245,0.00108
2958.27092,0.00108
2960.19939,0.00107
2962.12786,0.00106
2964.05633,0.00106
2965.98480,0.00106
2967.91327,0.00106
2969.84174,0.00106
2971.77020,0.00107
2973.69867,0.00107
2975.62714,0.00108
2977.55561,0.00108
2979.48408,0.00109
2981.41255,0.00109
2983.34102,0.00109
2985.26948,0.00108
2987.19795,0.00108
2989.12642,0.00107
2991.05489,0.00108
2992.98336,0.00108
2994.91183,0.00108
2996.84030,0.00108
2998.76877,0.00108
3000.69723,0.00107
3002.62570,0.00107
3004.55417,0.00107
3006.48264,0.00107
3008.41111,0.00107
3010.33958,0.00106
3012.26805,0.00105
3014.19651,0.00105
3016.12498,0.00105
3018.05345,0.00105
3019.98192,0.00105
3021.91039,0.00105
3023.83886,0.00104
3025.76733,0.00104
3027.69579,0.00103
3029.62426,0.00103
3031.55273,0.00102
3033.48120,0.00102
3035.40967,0.00103
3037.33814,0.00104
3039.26661,0.00104
3041.19508,0.00104
3043.12354,0.00104
3045.05201,0.00104
3046.98048,0.00102
3048.90895,0.00102
3050.83742,0.00102
3052.76589,0.00102
3054.69436,0.00102
3056.62282,0.00101
3058.55129,0.00102
3060.47976,0.00102
3062.40823,0.00101
3064.33670,0.00100
3066.26517,0.00099
3068.19364,0.00100
3070.12211,0.00101
3072.05057,0.00100
3073.97904,0.00100
3075.90751,0.00100
3077.83598,0.00099
3079.76445,0.00098
3081.69292,0.00099
3083.62139,0.00100
3085.54985,0.00101
3087.47832,0.00100
3089.40679,0.00100
3091.33526,0.00100
3093.26373,0.00099
3095.19220,0.00098
3097.12067,0.00098
3099.04914,0.00098
3100.97760,0.00098
3102.90607,0.00098
3104.83454,0.00098
3106.76301,0.00098
3108.69148,0.00098
3110.61995,0.00097
3112.54842,0.00097
3114.47688,0.00097
3116.40535,0.00096
3118.33382,0.00096
3120.26229,0.00095
3122.19076,0.00095
3124.11923,0.00096
3126.04770,0.00097
3127.97617,0.00097
3129.90463,0.00097
3131.83310,0.00095
3133.76157,0.00095
3135.69004,0.00095
3137.61851,0.00096
3139.54698,0.00096
3141.47545,0.00096
3143.40391,0.00095
3145.33238,0.00095
3147.26085,0.00095
3149.18932,0.00095
3151.11779,0.00095
3153.04626,0.00095
3154.97473,0.00095
3156.90320,0.00095
3158.83166,0.00095
3160.76013,0.00094
3162.68860,0.00094
3164.61707,0.00093
3166.54554,0.00093
3168.47401,0.00093
3170.40248,0.00093
3172.33094,0.00093
3174.25941,0.00092
3176.18788,0.00092
3178.11635,0.00092
3180.04482,0.00092
3181.97329,0.00091
3183.90176,0.00090
3185.83022,0.00090
3187.75869,0.00090
3189.68716,0.00090
3191.61563,0.00090
3193.54410,0.00091
3195.47257,0.00090
3197.40104,0.00089
3199.32951,0.00089
3201.25797,0.00090
3203.18644,0.00090
3205.11491,0.00090
3207.04338,0.00089
3208.97185,0.00088
3210.90032,0.00088
3212.82879,0.00087
3214.75725,0.00087
3216.68572,0.00087
3218.61419,0.00087
3220.54266,0.00087
3222.47113,0.00087
3224.39960,0.00087
3226.32807,0.00086
3228.25654,0.00087
3230.18500,0.00087
3232.11347,0.00087
3234.04194,0.00087
3235.97041,0.00086
3237.89888,0.00086
3239.82735,0.00086
3241.75582,0.00086
3243.68428,0.00086
3245.61275,0.00086
3247.54122,0.00086
3249.46969,0.00087
3251.39816,0.00086
3253.32663,0.00086
3255.25510,0.00086
3257.18357,0.00086
3259.11203,0.00087
3261.04050,0.00087
3262.96897,0.00086
3264.89744,0.00086
3266.82591,0.00086
3268.75438,0.00086
3270.68285,0.00086
3272.61131,0.00085
3274.53978,0.00085
3276.46825,0.00085
3278.39672,0.00086
3280.32519,0.00086
3282.25366,0.00086
3284.18213,0.00086
3286.11060,0.00085
3288.03906,0.00085
3289.96753,0.00084
3291.89600,0.00084
3293.82447,0.00084
3295.75294,0.00084
3297.68141,0.00084
3299.60988,0.00084
3301.53834,0.00085
3303.46681,0.00085
3305.39528,0.00085
3307.32375,0.00085
3309.25222,0.00084
3311.18069,0.00084
3313.10916,0.00084
3315.03763,0.00085
3316.96609,0.00085
3318.89456,0.00085
3320.82303,0.00085
3322.75150,0.00084
3324.67997,0.00084
3326.60844,0.00084
3328.53691,0.00085
3330.46537,0.00085
3332.39384,0.00085
3334.32231,0.00084
3336.25078,0.00084
3338.17925,0.00085
3340.10772,0.00086
3342.03619,0.00086
3343.96466,0.00085
3345.89312,0.00086
3347.82159,0.00085
3349.75006,0.00085
3351.67853,0.00085
3353.60700,0.00085
3355.53547,0.00083
3357.46394,0.00083
3359.39240,0.00083
3361.32087,0.00083
3363.24934,0.00083
3365.17781,0.00082
3367.10628,0.00083
3369.03475,0.00083
3370.96322,0.00084
3372.89168,0.00084
3374.82015,0.00084
3376.74862,0.00084
3378.67709,0.00084
3380.60556,0.00083
3382.53403,0.00082
3384.46250,0.00082
3386.39097,0.00083
3388.31943,0.00083
3390.24790,0.00082
3392.17637,0.00080
3394.10484,0.00080
3396.03331,0.00081
3397.96178,0.00082
3399.89025,0.00082
3401.81871,0.00082
3403.74718,0.00081
3405.67565,0.00082
3407.60412,0.00082
3409.53259,0.00082
3411.46106,0.00082
3413.38953,0.00082
3415.31800,0.00081
3417.24646,0.00080
3419.17493,0.00078
3421.10340,0.00077
3423.03187,0.00078
3424.96034,0.00080
3426.88881,0.00081
3428.81728,0.00081
3430.74574,0.00080
3432.67421,0.00079
3434.60268,0.00080
3436.53115,0.00080
3438.45962,0.00080
3440.38809,0.00079
3442.31656,0.00078
3444.24503,0.00076
3446.17349,0.00074
3448.10196,0.00075
3450.03043,0.00078
3451.95890,0.00080
3453.88737,0.00080
3455.81584,0.00079
3457.74431,0.00079
3459.67277,0.00078
3461.60124,0.00077
3463.52971,0.00077
3465.45818,0.00077
3467.38665,0.00078
3469.31512,0.00078
3471.24359,0.00078
3473.17206,0.00078
3475.10052,0.00077
3477.02899,0.00077
3478.95746,0.00076
3480.88593,0.00074
3482.81440,0.00074
3484.74287,0.00075
3486.67134,0.00076
3488.59980,0.00077
3490.52827,0.00078
3492.45674,0.00078
3494.38521,0.00076
3496.31368,0.00075
3498.24215,0.00075
3500.17062,0.00073
3502.09909,0.00069
3504.02755,0.00070
3505.95602,0.00073
3507.88449,0.00073
3509.81296,0.00072
3511.74143,0.00075
3513.66990,0.00077
3515.59837,0.00078
3517.52683,0.00077
3519.45530,0.00076
3521.38377,0.00072
3523.31224,0.00069
3525.24071,0.00067
3527.16918,0.00067
3529.09765,0.00069
3531.02611,0.00073
3532.95458,0.00076
3534.88305,0.00075
3536.81152,0.00074
3538.73999,0.00076
3540.66846,0.00076
3542.59693,0.00071
3544.52540,0.00065
3546.45386,0.00064
3548.38233,0.00067
3550.31080,0.00069
3552.23927,0.00069
3554.16774,0.00071
3556.09621,0.00075
3558.02468,0.00074
3559.95314,0.00071
3561.88161,0.00067
3563.81008,0.00060
3565.73855,0.00050
3567.66702,0.00049
3569.59549,0.00060
3571.52396,0.00071
3573.45243,0.00073
3575.38089,0.00072
3577.30936,0.00071
3579.23783,0.00071
3581.16630,0.00072
3583.09477,0.00069
3585.02324,0.00060
3586.95171,0.00051
3588.88017,0.00054
3590.80864,0.00062
3592.73711,0.00063
3594.66558,0.00060
3596.59405,0.00060
3598.52252,0.00061
3600.45099,0.00062
3602.37946,0.00065
3604.30792,0.00067
3606.23639,0.00060
3608.16486,0.00054
3610.09333,0.00052
3612.02180,0.00052
3613.95027,0.00052
3615.87874,0.00052
3617.80720,0.00048
3619.73567,0.00049
3621.66414,0.00058
3623.59261,0.00064
3625.52108,0.00058
3627.44955,0.00044
3629.37802,0.00040
3631.30649,0.00049
3633.23495,0.00060
3635.16342,0.00066
3637.09189,0.00071
3639.02036,0.00072
3640.94883,0.00071
3642.87730,0.00069
3644.80577,0.00059
3646.73423,0.00042
3648.66270,0.00030
3650.59117,0.00035
3652.51964,0.00050
3654.44811,0.00058
3656.37658,0.00059
3658.30505,0.00065
3660.23352,0.00073
3662.16198,0.00077
3664.09045,0.00077
3666.01892,0.00070
3667.94739,0.00055
3669.87586,0.00043
3671.80433,0.00042
3673.73280,0.00039
3675.66126,0.00035
3677.58973,0.00043
3679.51820,0.00057
3681.44667,0.00067
3683.37514,0.00071
3685.30361,0.00065
3687.23208,0.00051
3689.16055,0.00041
3691.08901,0.00045
3693.01748,0.00057
3694.94595,0.00067
3696.87442,0.00070
3698.80289,0.00068
3700.73136,0.00062
3702.65983,0.00061
3704.58829,0.00065
3706.51676,0.00063
3708.44523,0.00053
3710.37370,0.00042
3712.30217,0.00043
3714.23064,0.00055
3716.15911,0.00065
3718.08757,0.00064
3720.01604,0.00058
3721.94451,0.00052
3723.87298,0.00050
3725.80145,0.00051
3727.72992,0.00054
3729.65839,0.00053
3731.58686,0.00044
3733.51532,0.00033
3735.44379,0.00030
3737.37226,0.00037
3739.30073,0.00046
3741.22920,0.00045
3743.15767,0.00037
3745.08614,0.00032
3747.01460,0.00033
3748.94307,0.00031
3750.87154,0.00028
3752.80001,0.00036
3754.72848,0.00048
3756.65695,0.00052
3758.58542,0.00052
3760.51389,0.00056
3762.44235,0.00062
3764.37082,0.00062
3766.29929,0.00058
3768.22776,0.00056
3770.15623,0.00057
3772.08470,0.00065
3774.01317,0.00072
3775.94163,0.00070
3777.87010,0.00063
3779.79857,0.00060
3781.72704,0.00063
3783.65551,0.00065
3785.58398,0.00066
3787.51245,0.00070
3789.44092,0.00073
3791.36938,0.00073
3793.29785,0.00069
3795.22632,0.00060
3797.15479,0.00053
3799.08326,0.00047
3801.01173,0.00041
3802.94020,0.00043
3804.86866,0.00048
3806.79713,0.00050
3808.72560,0.00057
3810.65407,0.00067
3812.58254,0.00065
3814.51101,0.00053
3816.43948,0.00044
3818.36795,0.00040
3820.29641,0.00036
3822.22488,0.00040
3824.15335,0.00050
3826.08182,0.00055
3828.01029,0.00057
3829.93876,0.00056
3831.86723,0.00052
3833.79569,0.00047
3835.72416,0.00040
3837.65263,0.00035
3839.58110,0.00036
3841.50957,0.00042
3843.43804,0.00050
3845.36651,0.00058
3847.29498,0.00062
3849.22344,0.00054
3851.15191,0.00037
3853.08038,0.00027
3855.00885,0.00032
3856.93732,0.00047
3858.86579,0.00056
3860.79426,0.00054
3862.72272,0.00047
3864.65119,0.00044
3866.57966,0.00046
3868.50813,0.00043
3870.43660,0.00040
3872.36507,0.00044
3874.29354,0.00050
3876.22200,0.00057
3878.15047,0.00056
3880.07894,0.00050
3882.00741,0.00048
3883.93588,0.00048
3885.86435,0.00049
3887.79282,0.00054
3889.72129,0.00053
3891.64975,0.00050
3893.57822,0.00054
3895.50669,0.00059
3897.43516,0.00054
3899.36363,0.00045
3901.29210,0.00040
3903.22057,0.00039
3905.14903,0.00045
3907.07750,0.00057
3909.00597,0.00066
3910.93444,0.00069
3912.86291,0.00067
3914.79138,0.00062
3916.71985,0.00056
3918.64832,0.00055
3920.57678,0.00057
3922.50525,0.00057
3924.43372,0.00056
3926.36219,0.00058
3928.29066,0.00060
3930.21913,0.00057
3932.14760,0.00056
3934.07606,0.00060
3936.00453,0.00064
3937.93300,0.00065
3939.86147,0.00063
3941.78994,0.00060
3943.71841,0.00059
3945.64688,0.00061
3947.57535,0.00060
3949.50381,0.00060
3951.43228,0.00062
3953.36075,0.00064
3955.28922,0.00065
3957.21769,0.00065
3959.14616,0.00064
3961.07463,0.00064
3963.00309,0.00064
3964.93156,0.00066
3966.86003,0.00066
3968.78850,0.00065
3970.71697,0.00064
3972.64544,0.00063
3974.57391,0.00063
3976.50238,0.00064
3978.43084,0.00065
3980.35931,0.00065
3982.28778,0.00065
3984.21625,0.00066
3986.14472,0.00066
3988.07319,0.00065
3990.00166,0.00064
3991.93012,0.00063
3993.85859,0.00064
3995.78706,0.00064
3997.71553,0.00064
3999.64400,0.00064
4001.57247,0.00065
4003.50094,0.00064
4005.42941,0.00064
4007.35787,0.00063
4009.28634,0.00063
4011.21481,0.00063
4013.14328,0.00063
4015.07175,0.00063
4017.00022,0.00063
4018.92869,0.00063
4020.85715,0.00064
4022.78562,0.00064
4024.71409,0.00063
4026.64256,0.00063
4028.57103,0.00063
4030.49950,0.00064
4032.42797,0.00064
4034.35644,0.00063
4036.28490,0.00063
4038.21337,0.00063
4040.14184,0.00063
4042.07031,0.00062
4043.99878,0.00061
4045.92725,0.00060
4047.85572,0.00061
4049.78418,0.00062
4051.71265,0.00062
4053.64112,0.00062
4055.56959,0.00062
4057.49806,0.00062
4059.42653,0.00061
4061.35500,0.00061
4063.28346,0.00062
4065.21193,0.00062
4067.14040,0.00062
4069.06887,0.00061
4070.99734,0.00061
4072.92581,0.00061
4074.85428,0.00061
4076.78275,0.00061
4078.71121,0.00061
4080.63968,0.00061
4082.56815,0.00061
4084.49662,0.00061
4086.42509,0.00061
4088.35356,0.00060
4090.28203,0.00060
4092.21049,0.00060
4094.13896,0.00061
4096.06743,0.00061
4097.99590,0.00060
4099.92437,0.00060
4101.85284,0.00060
4103.78131,0.00059
4105.70978,0.00059
4107.63824,0.00060
4109.56671,0.00060
4111.49518,0.00060
4113.42365,0.00059
4115.35212,0.00059
4117.28059,0.00059
4119.20906,0.00058
4121.13752,0.00058
4123.06599,0.00059
4124.99446,0.00059
4126.92293,0.00059
4128.85140,0.00058
4130.77987,0.00058
4132.70834,0.00058
4134.63681,0.00058
4136.56527,0.00058
4138.49374,0.00058
4140.42221,0.00058
4142.35068,0.00058
4144.27915,0.00059
4146.20762,0.00058
4148.13609,0.00058
4150.06455,0.00058
4151.99302,0.00058
4153.92149,0.00057
4155.84996,0.00056
4157.77843,0.00056
4159.70690,0.00056
4161.63537,0.00057
4163.56384,0.00057
4165.49230,0.00057
4167.42077,0.00056
4169.34924,0.00057
4171.27771,0.00057
4173.20618,0.00057
4175.13465,0.00056
4177.06312,0.00056
4178.99158,0.00056
4180.92005,0.00056
4182.84852,0.00056
4184.77699,0.00056
4186.70546,0.00056
4188.63393,0.00056
4190.56240,0.00056
4192.49087,0.00056
4194.41933,0.00056
4196.34780,0.00056
4198.27627,0.00056
4200.20474,0.00056
4202.13321,0.00055
4204.06168,0.00055
4205.99015,0.00055
4207.91861,0.00055
4209.84708,0.00055
4211.77555,0.00055
4213.70402,0.00054
4215.63249,0.00054
4217.56096,0.00054
4219.48943,0.00054
4221.41789,0.00054
4223.34636,0.00054
4225.27483,0.00053
4227.20330,0.00053
4229.13177,0.00053
4231.06024,0.00054
4232.98871,0.00054
4234.91718,0.00053
4236.84564,0.00053
4238.77411,0.00053
4240.70258,0.00053
4242.63105,0.00053
4244.55952,0.00053
4246.48799,0.00053
4248.41646,0.00053
4250.34492,0.00053
4252.27339,0.00052
4254.20186,0.00052
4256.13033,0.00052
4258.05880,0.00052
4259.98727,0.00053
4261.91574,0.00053
4263.84421,0.00053
4265.77267,0.00053
4267.70114,0.00052
4269.62961,0.00052
4271.55808,0.00052
4273.48655,0.00051
4275.41502,0.00051
4277.34349,0.00051
4279.27195,0.00050
4281.20042,0.00051
4283.12889,0.00051
4285.05736,0.00051
4286.98583,0.00051
4288.91430,0.00051
4290.84277,0.00051
4292.77124,0.00051
4294.69970,0.00051
4296.62817,0.00050
4298.55664,0.00050
4300.48511,0.00050
4302.41358,0.00050
4304.34205,0.00050
4306.27052,0.00050
4308.19898,0.00050
4310.12745,0.00050
4312.05592,0.00049
4313.98439,0.00050
4315.91286,0.00050
4317.84133,0.00050
4319.76980,0.00050
4321.69827,0.00050
4323.62673,0.00050
4325.55520,0.00050
4327.48367,0.00050
4329.41214,0.00049
4331.34061,0.00049
4333.26908,0.00049
4335.19755,0.00048
4337.12601,0.00048
4339.05448,0.00048
4340.98295,0.00049
4342.91142,0.00049
4344.83989,0.00048
4346.76836,0.00048
4348.69683,0.00048
4350.62530,0.00048
4352.55376,0.00048
4354.48223,0.00048
4356.41070,0.00048
4358.33917,0.00047
4360.26764,0.00047
4362.19611,0.00048
4364.12458,0.00048
4366.05304,0.00048
4367.98151,0.00048
4369.90998,0.00047
4371.83845,0.00047
4373.76692,0.00047
4375.69539,0.00047
4377.62386,0.00047
4379.55232,0.00047
4381.48079,0.00047
4383.40926,0.00047
4385.33773,0.00047
4387.26620,0.00046
4389.19467,0.00046
4391.12314,0.00046
4393.05161,0.00046
4394.98007,0.00046
4396.90854,0.00046
4398.83701,0.00046
4400.76548,0.00046
4402.69395,0.00046
4404.62242,0.00046
4406.55089,0.00046
4408.47935,0.00046
4410.40782,0.00046
4412.33629,0.00046
4414.26476,0.00046
4416.19323,0.00046
4418.12170,0.00046
4420.05017,0.00045
4421.97864,0.00045
4423.90710,0.00045
4425.83557,0.00045
4427.76404,0.00045
4429.69251,0.00045
4431.62098,0.00045
4433.54945,0.00045
4435.47792,0.00045
4437.40638,0.00045
4439.33485,0.00044
4441.26332,0.00044
4443.19179,0.00044
4445.12026,0.00044
4447.04873,0.00044
4448.97720,0.00044
4450.90567,0.00044
4452.83413,0.00044
4454.76260,0.00043
4456.69107,0.00043
4458.61954,0.00043
4460.54801,0.00043
4462.47648,0.00043
4464.40495,0.00043
4466.33341,0.00043
4468.26188,0.00043
4470.19035,0.00043
4472.11882,0.00043
4474.04729,0.00043
4475.97576,0.00043
4477.90423,0.00042
4479.83270,0.00042
4481.76116,0.00042
4483.68963,0.00042
4485.61810,0.00043
4487.54657,0.00043
4489.47504,0.00043
4491.40351,0.00042
4493.33198,0.00042
4495.26044,0.00041
4497.18891,0.00042
4499.11738,0.00043
4501.04585,0.00043
4502.97432,0.00042
4504.90279,0.00042
4506.83126,0.00042
4508.75973,0.00042
4510.68819,0.00042
4512.61666,0.00042
4514.54513,0.00041
4516.47360,0.00041
4518.40207,0.00041
4520.33054,0.00041
4522.25901,0.00041
4524.18747,0.00041
4526.11594,0.00041
4528.04441,0.00041
4529.97288,0.00041
4531.90135,0.00041
4533.82982,0.00041
4535.75829,0.00041
4537.68676,0.00041
4539.61522,0.00041
4541.54369,0.00040
4543.47216,0.00040
4545.40063,0.00040
4547.32910,0.00040
4549.25757,0.00040
4551.18604,0.00040
4553.11450,0.00040
4555.04297,0.00040
4556.97144,0.00040
4558.89991,0.00039
4560.82838,0.00039
4562.75685,0.00039
4564.68532,0.00039
4566.61378,0.00039
4568.54225,0.00039
4570.47072,0.00039
4572.39919,0.00039
4574.32766,0.00039
4576.25613,0.00039
4578.18460,0.00039
4580.11307,0.00038
4582.04153,0.00038
4583.97000,0.00038
4585.89847,0.00038
4587.82694,0.00038
4589.75541,0.00038
4591.68388,0.00038
4593.61235,0.00038
4595.54081,0.00038
4597.46928,0.00038
4599.39775,0.00038
4601.32622,0.00038
4603.25469,0.00038
4605.18316,0.00038
4607.11163,0.00038
4609.04010,0.00038
4610.96856,0.00038
4612.89703,0.00038
4614.82550,0.00038
4616.75397,0.00037
4618.68244,0.00038
4620.61091,0.00038
4622.53938,0.00037
4624.46784,0.00037
4626.39631,0.00037
4628.32478,0.00037
4630.25325,0.00036
4632.18172,0.00036
4634.11019,0.00037
4636.03866,0.00037
4637.96713,0.00037
4639.89559,0.00036
4641.82406,0.00036
4643.75253,0.00036
4645.68100,0.00036
4647.60947,0.00037
4649.53794,0.00037
4651.46641,0.00036
4653.39487,0.00036
4655.32334,0.00036
4657.25181,0.00036
4659.18028,0.00035
4661.10875,0.00035
4663.03722,0.00035
4664.96569,0.00036
4666.89416,0.00036
4668.82262,0.00036
4670.75109,0.00035
4672.67956,0.00035
4674.60803,0.00035
4676.53650,0.00035
4678.46497,0.00035
4680.39344,0.00035
4682.32190,0.00035
4684.25037,0.00035
4686.17884,0.00035
4688.10731,0.00035
4690.03578,0.00035
4691.96425,0.00035
4693.89272,0.00035
4695.82119,0.00035
4697.74965,0.00035
4699.67812,0.00034
4701.60659,0.00034
4703.53506,0.00035
4705.46353,0.00034
4707.39200,0.00034
4709.32047,0.00034
4711.24893,0.00034
4713.17740,0.00034
4715.10587,0.00033
4717.03434,0.00033
4718.96281,0.00033
4720.89128,0.00033
4722.81975,0.00033
4724.74821,0.00033
4726.67668,0.00033
4728.60515,0.00033
4730.53362,0.00033
4732.46209,0.00034
4734.39056,0.00033
4736.31903,0.00033
4738.24750,0.00033
4740.17596,0.00033
4742.10443,0.00032
4744.03290,0.00032
4745.96137,0.00033
4747.88984,0.00033
4749.81831,0.00033
4751.74678,0.00033
4753.67524,0.00033
4755.60371,0.00033
4757.53218,0.00033
4759.46065,0.00033
4761.38912,0.00033
4763.31759,0.00032
4765.24606,0.00032
4767.17453,0.00032
4769.10299,0.00032
4771.03146,0.00032
4772.95993,0.00032
4774.88840,0.00032
4776.81687,0.00032
4778.74534,0.00032
4780.67381,0.00032
4782.60227,0.00032
4784.53074,0.00032
4786.45921,0.00032
4788.38768,0.00031
4790.31615,0.00032
4792.24462,0.00032
4794.17309,0.00032
4796.10156,0.00031
4798.03002,0.00031
4799.95849,0.00031
4801.88696,0.00031
4803.81543,0.00031
4805.74390,0.00031
4807.67237,0.00031
4809.60084,0.00031
4811.52930,0.00031
4813.45777,0.00030
4815.38624,0.00030
4817.31471,0.00031
4819.24318,0.00031
4821.17165,0.00031
4823.10012,0.00031
4825.02859,0.00030
4826.95705,0.00030
4828.88552,0.00030
4830.81399,0.00030
4832.74246,0.00030
4834.67093,0.00030
4836.59940,0.00030
4838.52787,0.00030
4840.45633,0.00031
4842.38480,0.00031
4844.31327,0.00030
4846.24174,0.00030
4848.17021,0.00029
4850.09868,0.00029
4852.02715,0.00029
4853.95562,0.00029
4855.88408,0.00029
4857.81255,0.00029
4859.74102,0.00029
4861.66949,0.00029
4863.59796,0.00029
4865.52643,0.00029
4867.45490,0.00029
4869.38336,0.00029
4871.31183,0.00028
4873.24030,0.00028
4875.16877,0.00029
4877.09724,0.00029
4879.02571,0.00029
4880.95418,0.00029
4882.88265,0.00029
4884.81111,0.00029
4886.73958,0.00029
4888.66805,0.00029
4890.59652,0.00028
4892.52499,0.00028
4894.45346,0.00028
4896.38193,0.00028
4898.31039,0.00028
4900.23886,0.00028
4902.16733,0.00028
4904.09580,0.00028
4906.02427,0.00028
4907.95274,0.00028
4909.88121,0.00028
4911.80967,0.00027
4913.73814,0.00027
4915.66661,0.00028
4917.59508,0.00028
4919.52355,0.00028
4921.45202,0.00028
4923.38049,0.00028
4925.30896,0.00028
4927.23742,0.00028
4929.16589,0.00027
4931.09436,0.00027
4933.02283,0.00027
4934.95130,0.00027
4936.87977,0.00027
4938.80824,0.00028
4940.73670,0.00027
4942.66517,0.00027
4944.59364,0.00027
4946.52211,0.00027
4948.45058,0.00027
4950.37905,0.00027
4952.30752,0.00026
4954.23599,0.00026
4956.16445,0.00026
4958.09292,0.00026
4960.02139,0.00026
4961.94986,0.00026
4963.87833,0.00026
4965.80680,0.00026
4967.73527,0.00026
4969.66373,0.00025
4971.59220,0.00025
4973.52067,0.00025
4975.44914,0.00025
4977.37761,0.00025
4979.30608,0.00025
4981.23455,0.00025
4983.16302,0.00025
4985.09148,0.00025
4987.01995,0.00025
4988.94842,0.00026
4990.87689,0.00026
4992.80536,0.00025
4994.73383,0.00025
4996.66230,0.00025
4998.59076,0.00025
5000.51923,0.00025
5002.44770,0.00025
5004.37617,0.00025
5006.30464,0.00025
5008.23311,0.00026
5010.16158,0.00025
5012.09005,0.00025
5014.01851,0.00024
5015.94698,0.00024
5017.87545,0.00025
5019.80392,0.00025
5021.73239,0.00025
5023.66086,0.00025
5025.58933,0.00025
5027.51779,0.00025
5029.44626,0.00025
5031.37473,0.00024
5033.30320,0.00024
5035.23167,0.00025
5037.16014,0.00025
5039.08861,0.00025
5041.01708,0.00024
5042.94554,0.00024
5044.87401,0.00024
5046.80248,0.00024
5048.73095,0.00024
5050.65942,0.00024
5052.58789,0.00024
5054.51636,0.00024
5056.44482,0.00023
5058.37329,0.00023
5060.30176,0.00023
5062.23023,0.00023
5064.15870,0.00023
5066.08717,0.00023
5068.01564,0.00024
5069.94410,0.00024
5071.87257,0.00024
5073.80104,0.00024
5075.72951,0.00023
5077.65798,0.00023
5079.58645,0.00023
5081.51492,0.00023
5083.44339,0.00023
5085.37185,0.00023
5087.30032,0.00023
5089.22879,0.00023
5091.15726,0.00023
5093.08573,0.00022
5095.01420,0.00022
5096.94267,0.00022
5098.87113,0.00023
5100.79960,0.00023
5102.72807,0.00023
5104.65654,0.00023
5106.58501,0.00023
5108.51348,0.00023
5110.44195,0.00023
5112.37042,0.00023
5114.29888,0.00023
5116.22735,0.00022
5118.15582,0.00022
5120.08429,0.00022
5122.01276,0.00022
5123.94123,0.00022
5125.86970,0.00022
5127.79816,0.00022
5129.72663,0.00022
5131.65510,0.00022
5133.58357,0.00022
5135.51204,0.00022
5137.44051,0.00022
5139.36898,0.00022
5141.29745,0.00021
5143.22591,0.00021
5145.15438,0.00022
5147.08285,0.00022
5149.01132,0.00022
5150.93979,0.00021
5152.86826,0.00021
5154.79673,0.00021
5156.72519,0.00021
5158.65366,0.00021
5160.58213,0.00021
5162.51060,0.00021
5164.43907,0.00021
5166.36754,0.00021
5168.29601,0.00021
5170.22448,0.00021
5172.15294,0.00020
5174.08141,0.00020
5176.00988,0.00020
5177.93835,0.00020
5179.86682,0.00020
5181.79529,0.00020
5183.72376,0.00020
5185.65222,0.00019
5187.58069,0.00019
5189.50916,0.00020
5191.43763,0.00020
5193.36610,0.00020
5195.29457,0.00019
5197.22304,0.00019
5199.15151,0.00019
5201.07997,0.00020
5203.00844,0.00019
5204.93691,0.00018
5206.86538,0.00017
5208.79385,0.00018
5210.72232,0.00019
5212.65079,0.00020
5214.57925,0.00020
5216.50772,0.00019
5218.43619,0.00019
5220.36466,0.00019
5222.29313,0.00018
5224.22160,0.00017
5226.15007,0.00017
5228.07854,0.00018
5230.00700,0.00018
5231.93547,0.00018
5233.86394,0.00018
5235.79241,0.00019
5237.72088,0.00019
5239.64935,0.00019
5241.57782,0.00018
5243.50628,0.00017
5245.43475,0.00017
5247.36322,0.00017
5249.29169,0.00017
5251.22016,0.00018
5253.14863,0.00017
5255.07710,0.00017
5257.00556,0.00017
5258.93403,0.00018
5260.86250,0.00018
5262.79097,0.00017
5264.71944,0.00017
5266.64791,0.00018
5268.57638,0.00018
5270.50485,0.00018
5272.43331,0.00018
5274.36178,0.00018
5276.29025,0.00018
5278.21872,0.00018
5280.14719,0.00017
5282.07566,0.00017
5284.00413,0.00017
5285.93259,0.00018
5287.86106,0.00017
5289.78953,0.00017
5291.71800,0.00017
5293.64647,0.00019
5295.57494,0.00019
5297.50341,0.00018
5299.43188,0.00018
5301.36034,0.00018
5303.28881,0.00018
5305.21728,0.00017
5307.14575,0.00017
5309.07422,0.00017
5311.00269,0.00018
5312.93116,0.00017
5314.85962,0.00017
5316.78809,0.00017
5318.71656,0.00018
5320.64503,0.00018
5322.57350,0.00017
5324.50197,0.00016
5326.43044,0.00016
5328.35891,0.00016
5330.28737,0.00016
5332.21584,0.00016
5334.14431,0.00015
5336.07278,0.00014
5338.00125,0.00014
5339.92972,0.00014
5341.85819,0.00014
5343.78665,0.00013
5345.71512,0.00013
5347.64359,0.00015
5349.57206,0.00015
5351.50053,0.00015
5353.42900,0.00014
5355.35747,0.00015
5357.28594,0.00016
5359.21440,0.00017
5361.14287,0.00016
5363.07134,0.00016
5364.99981,0.00016
5366.92828,0.00016
5368.85675,0.00016
5370.78522,0.00017
5372.71368,0.00017
5374.64215,0.00015
5376.57062,0.00014
5378.49909,0.00015
5380.42756,0.00016
5382.35603,0.00016
5384.28450,0.00016
5386.21297,0.00015
5388.14143,0.00016
5390.06990,0.00016
5391.99837,0.00015
5393.92684,0.00014
5395.85531,0.00014
5397.78378,0.00015
5399.71225,0.00016
5401.64071,0.00016
5403.56918,0.00016
5405.49765,0.00016
5407.42612,0.00015
5409.35459,0.00014
5411.28306,0.00013
5413.21153,0.00013
5415.13999,0.00014
5417.06846,0.00015
5418.99693,0.00016
5420.92540,0.00016
5422.85387,0.00016
5424.78234,0.00016
5426.71081,0.00015
5428.63928,0.00014
5430.56774,0.00014
5432.49621,0.00014
5434.42468,0.00014
5436.35315,0.00014
5438.28162,0.00014
5440.21009,0.00014
5442.13856,0.00014
5444.06702,0.00014
5445.99549,0.00014
5447.92396,0.00015
5449.85243,0.00015
5451.78090,0.00015
5453.70937,0.00015
5455.63784,0.00015
5457.56631,0.00014
5459.49477,0.00014
5461.42324,0.00014
5463.35171,0.00014
5465.28018,0.00014
5467.20865,0.00014
5469.13712,0.00014
5471.06559,0.00015
5472.99405,0.00014
5474.92252,0.00013
5476.85099,0.00014
5478.77946,0.00015
5480.70793,0.00015
5482.63640,0.00015
5484.56487,0.00014
5486.49334,0.00014
5488.42180,0.00013
5490.35027,0.00013
5492.27874,0.00013
5494.20721,0.00013
5496.13568,0.00014
5498.06415,0.00014
5499.99262,0.00014
5501.92108,0.00014
5503.84955,0.00014
5505.77802,0.00013
5507.70649,0.00013
5509.63496,0.00014
5511.56343,0.00014
5513.49190,0.00014
5515.42037,0.00014
5517.34883,0.00014
5519.27730,0.00014
5521.20577,0.00014
5523.13424,0.00014
5525.06271,0.00014
5526.99118,0.00014
5528.91965,0.00014
5530.84811,0.00014
5532.77658,0.00014
5534.70505,0.00014
5536.63352,0.00014
5538.56199,0.00014
5540.49046,0.00013
5542.41893,0.00014
5544.34740,0.00014
5546.27586,0.00014
5548.20433,0.00014
5550.13280,0.00014
5552.06127,0.00014
5553.98974,0.00014
5555.91821,0.00014
5557.84668,0.00014
5559.77514,0.00014
5561.70361,0.00014
5563.63208,0.00014
5565.56055,0.00014
5567.48902,0.00014
5569.41749,0.00014
5571.34596,0.00014
5573.27443,0.00014
5575.20289,0.00014
5577.13136,0.00014
5579.05983,0.00013
5580.98830,0.00013
5582.91677,0.00013
5584.84524,0.00013
5586.77371,0.00013
5588.70217,0.00013
5590.63064,0.00013
5592.55911,0.00013
5594.48758,0.00013
5596.41605,0.00013
5598.34452,0.00013
5600.27299,0.00013
5602.20145,0.00013
5604.12992,0.00013
5606.05839,0.00013
5607.98686,0.00013
5609.91533,0.00013
5611.84380,0.00013
5613.77227,0.00013
5615.70074,0.00013
5617.62920,0.00013
5619.55767,0.00012
5621.48614,0.00013
5623.41461,0.00013
5625.34308,0.00013
5627.27155,0.00013
5629.20002,0.00013
5631.12848,0.00013
5633.05695,0.00013
5634.98542,0.00013
5636.91389,0.00013
5638.84236,0.00013
5640.77083,0.00013
5642.69930,0.00013
5644.62777,0.00012
5646.55623,0.00012
5648.48470,0.00012
5650.41317,0.00012
5652.34164,0.00012
5654.27011,0.00012
5656.19858,0.00012
5658.12705,0.00012
5660.05551,0.00012
5661.98398,0.00012
5663.91245,0.00012
5665.84092,0.00012
5667.76939,0.00012
5669.69786,0.00012
5671.62633,0.00012
5673.55480,0.00012
5675.48326,0.00012
5677.41173,0.00012
5679.34020,0.00012
5681.26867,0.00012
5683.19714,0.00012
5685.12561,0.00012
5687.05408,0.00012
5688.98254,0.00012
5690.91101,0.00012
5692.83948,0.00012
5694.76795,0.00012
5696.69642,0.00012
5698.62489,0.00011
5700.55336,0.00011
5702.48183,0.00011
5704.41029,0.00012
5706.33876,0.00012
5708.26723,0.00011
5710.19570,0.00011
5712.12417,0.00011
5714.05264,0.00012
5715.98111,0.00012
5717.90957,0.00012
5719.83804,0.00012
5721.76651,0.00012
5723.69498,0.00011
5725.62345,0.00011
5727.55192,0.00011
5729.48039,0.00011
5731.40886,0.00011
5733.33732,0.00011
5735.26579,0.00011
5737.19426,0.00011
5739.12273,0.00011
5741.05120,0.00012
5742.97967,0.00012
5744.90814,0.00012
5746.83660,0.00011
5748.76507,0.00011
5750.69354,0.00011
5752.62201,0.00011
5754.55048,0.00011
5756.47895,0.00011
5758.40742,0.00011
5760.33588,0.00011
5762.26435,0.00011
5764.19282,0.00011
5766.12129,0.00011
5768.04976,0.00010
5769.97823,0.00010
5771.90670,0.00011
5773.83517,0.00011
5775.76363,0.00011
5777.69210,0.00011
5779.62057,0.00011
5781.54904,0.00011
5783.47751,0.00011
5785.40598,0.00011
5787.33445,0.00011
5789.26291,0.00011
5791.19138,0.00011
5793.11985,0.00011
5795.04832,0.00011
5796.97679,0.00010
5798.90526,0.00010
5800.83373,0.00011
5802.76220,0.00011
5804.69066,0.00011
5806.61913,0.00011
5808.54760,0.00010
5810.47607,0.00010
5812.40454,0.00010
5814.33301,0.00010
5816.26148,0.00010
5818.18994,0.00010
5820.11841,0.00010
5822.04688,0.00010
5823.97535,0.00011
5825.90382,0.00010
5827.83229,0.00010
5829.76076,0.00010
5831.68923,0.00010
5833.61769,0.00010
5835.54616,0.00010
5837.47463,0.00010
5839.40310,0.00010
5841.33157,0.00010
5843.26004,0.00010
5845.18851,0.00010
5847.11697,0.00010
5849.04544,0.00010
5850.97391,0.00010
5852.90238,0.00010
5854.83085,0.00010
5856.75932,0.00010
5858.68779,0.00010
5860.61626,0.00010
5862.54472,0.00010
5864.47319,0.00010
5866.40166,0.00010
5868.33013,0.00010
5870.25860,0.00009
5872.18707,0.00009
5874.11554,0.00009
5876.04400,0.00009
5877.97247,0.00009
5879.90094,0.00009
5881.82941,0.00009
5883.75788,0.00009
5885.68635,0.00009
5887.61482,0.00009
5889.54329,0.00009
5891.47175,0.00009
5893.40022,0.00009
5895.32869,0.00009
5897.25716,0.00009
5899.18563,0.00010
5901.11410,0.00010
5903.04257,0.00010
5904.97103,0.00010
5906.89950,0.00010
5908.82797,0.00009
5910.75644,0.00009
5912.68491,0.00009
5914.61338,0.00009
5916.54185,0.00010
5918.47032,0.00010
5920.39878,0.00010
5922.32725,0.00009
5924.25572,0.00009
5926.18419,0.00009
5928.11266,0.00009
5930.04113,0.00009
5931.96960,0.00009
5933.89806,0.00009
5935.82653,0.00009
5937.75500,0.00009
5939.68347,0.00009
5941.61194,0.00009
5943.54041,0.00009
5945.46888,0.00009
5947.39734,0.00009
5949.32581,0.00009
5951.25428,0.00009
5953.18275,0.00009
5955.11122,0.00009
5957.03969,0.00009
5958.96816,0.00009
5960.89663,0.00009
5962.82509,0.00009
5964.75356,0.00009
5966.68203,0.00009
5968.61050,0.00009
5970.53897,0.00009
5972.46744,0.00008
5974.39591,0.00008
5976.32437,0.00008
5978.25284,0.00008
5980.18131,0.00008
5982.10978,0.00009
5984.03825,0.00009
5985.96672,0.00009
5987.89519,0.00008
5989.82366,0.00008
5991.75212,0.00008
5993.68059,0.00009
5995.60906,0.00009
5997.53753,0.00008
5999.46600,0.00008
6001.39447,0.00008
6003.32294,0.00008
6005.25140,0.00008
6007.17987,0.00008
6009.10834,0.00008
6011.03681,0.00008
6012.96528,0.00008
6014.89375,0.00008
6016.82222,0.00008
6018.75069,0.00009
6020.67915,0.00008
6022.60762,0.00008
6024.53609,0.00007
6026.46456,0.00007
6028.39303,0.00007
6030.32150,0.00007
6032.24997,0.00008
6034.17843,0.00008
6036.10690,0.00008
6038.03537,0.00008
6039.96384,0.00008
6041.89231,0.00008
6043.82078,0.00009
6045.74925,0.00008
6047.67772,0.00008
6049.60618,0.00008
6051.53465,0.00008
6053.46312,0.00008
6055.39159,0.00007
6057.32006,0.00007
6059.24853,0.00007
6061.17700,0.00007
6063.10546,0.00008
6065.03393,0.00008
6066.96240,0.00008
6068.89087,0.00008
6070.81934,0.00008
6072.74781,0.00008
6074.67628,0.00008
6076.60475,0.00008
6078.53321,0.00008
6080.46168,0.00008
6082.39015,0.00008
6084.31862,0.00007
6086.24709,0.00007
6088.17556,0.00007
6090.10403,0.00008
6092.03249,0.00008
6093.96096,0.00008
6095.88943,0.00007
6097.81790,0.00007
6099.74637,0.00007
6101.67484,0.00008
6103.60331,0.00008
6105.53177,0.00008
6107.46024,0.00008
6109.38871,0.00008
6111.31718,0.00008
6113.24565,0.00007
6115.17412,0.00007
6117.10259,0.00007
6119.03106,0.00007
6120.95952,0.00008
6122.88799,0.00007
6124.81646,0.00007
6126.74493,0.00007
6128.67340,0.00007
6130.60187,0.00008
6132.53034,0.00007
6134.45880,0.00007
6136.38727,0.00007
6138.31574,0.00007
6140.24421,0.00007
6142.17268,0.00007
6144.10115,0.00007
6146.02962,0.00007
6147.95809,0.00007
6149.88655,0.00007
6151.81502,0.00007
6153.74349,0.00007
6155.67196,0.00008
6157.60043,0.00008
6159.52890,0.00007
6161.45737,0.00007
6163.38583,0.00007
6165.31430,0.00007
6167.24277,0.00006
6169.17124,0.00006
6171.09971,0.00007
6173.02818,0.00007
6174.95665,0.00007
6176.88512,0.00007
6178.81358,0.00007
6180.74205,0.00007
6182.67052,0.00007
6184.59899,0.00007
6186.52746,0.00007
6188.45593,0.00007
6190.38440,0.00007
6192.31286,0.00007
6194.24133,0.00007
6196.16980,0.00007
6198.09827,0.00007
6200.02674,0.00007
6201.95521,0.00007
6203.88368,0.00007
6205.81215,0.00007
6207.74061,0.00007
6209.66908,0.00006
6211.59755,0.00006
6213.52602,0.00007
6215.45449,0.00007
6217.38296,0.00007
6219.31143,0.00007
6221.23989,0.00007
6223.16836,0.00007
6225.09683,0.00007
6227.02530,0.00006
6228.95377,0.00006
6230.88224,0.00006
6232.81071,0.00006
6234.73918,0.00006
6236.66764,0.00006
6238.59611,0.00006
6240.52458,0.00006
6242.45305,0.00006
6244.38152,0.00006
6246.30999,0.00006
6248.23846,0.00006
6250.16692,0.00006
6252.09539,0.00007
6254.02386,0.00007
6255.95233,0.00007
6257.88080,0.00007
6259.80927,0.00007
6261.73774,0.00007
6263.66621,0.00007
6265.59467,0.00006
6267.52314,0.00007
6269.45161,0.00007
6271.38008,0.00007
6273.30855,0.00006
6275.23702,0.00006
6277.16549,0.00006
6279.09395,0.00006
6281.02242,0.00006
6282.95089,0.00006
6284.87936,0.00006
6286.80783,0.00006
6288.73630,0.00006
6290.66477,0.00006
6292.59323,0.00006
6294.52170,0.00007
6296.45017,0.00006
6298.37864,0.00006
6300.30711,0.00006
6302.23558,0.00006
6304.16405,0.00006
6306.09252,0.00006
6308.02098,0.00006
6309.94945,0.00006
6311.87792,0.00007
6313.80639,0.00006
6315.73486,0.00006
6317.66333,0.00006
6319.59180,0.00006
6321.52026,0.00006
6323.44873,0.00006
6325.37720,0.00006
6327.30567,0.00006
6329.23414,0.00006
6331.16261,0.00006
6333.09108,0.00006
6335.01955,0.00006
6336.94801,0.00006
6338.87648,0.00006
6340.80495,0.00006
6342.73342,0.00006
6344.66189,0.00005
6346.59036,0.00005
6348.51883,0.00005
6350.44729,0.00006
6352.37576,0.00006
6354.30423,0.00006
6356.23270,0.00006
6358.16117,0.00006
6360.08964,0.00006
6362.01811,0.00006
6363.94658,0.00005
6365.87504,0.00006
6367.80351,0.00006
6369.73198,0.00006
6371.66045,0.00006
6373.58892,0.00006
6375.51739,0.00006
6377.44586,0.00006
6379.37432,0.00006
6381.30279,0.00006
6383.23126,0.00006
6385.15973,0.00006
6387.08820,0.00006
6389.01667,0.00006
6390.94514,0.00006
6392.87361,0.00006
6394.80207,0.00006
6396.73054,0.00005
6398.65901,0.00005
6400.58748,0.00006
6402.51595,0.00006
6404.44442,0.00006
6406.37289,0.00006
6408.30135,0.00006
6410.22982,0.00006
6412.15829,0.00006
6414.08676,0.00005
6416.01523,0.00005
6417.94370,0.00005
6419.87217,0.00005
6421.80064,0.00005
6423.72910,0.00006
6425.65757,0.00006
6427.58604,0.00006
6429.51451,0.00006
6431.44298,0.00006
6433.37145,0.00006
6435.29992,0.00005
6437.22838,0.00005
6439.15685,0.00005
6441.08532,0.00005
6443.01379,0.00005
6444.94226,0.00005
6446.87073,0.00005
6448.79920,0.00005
6450.72766,0.00005
6452.65613,0.00006
6454.58460,0.00006
6456.51307,0.00005
6458.44154,0.00005
6460.37001,0.00006
6462.29848,0.00005
6464.22695,0.00005
6466.15541,0.00005
6468.08388,0.00005
6470.01235,0.00005
6471.94082,0.00005
6473.86929,0.00005
6475.79776,0.00005
6477.72623,0.00005
6479.65469,0.00005
6481.58316,0.00005
6483.51163,0.00005
6485.44010,0.00005
6487.36857,0.00005
6489.29704,0.00005
6491.22551,0.00005
6493.15398,0.00005
6495.08244,0.00005
6497.01091,0.00005
6498.93938,0.00005
6500.86785,0.00006
6502.79632,0.00005
6504.72479,0.00005
6506.65326,0.00005
6508.58172,0.00005
6510.51019,0.00005
6512.43866,0.00005
6514.36713,0.00005
6516.29560,0.00005
6518.22407,0.00005
6520.15254,0.00005
6522.08101,0.00005
6524.00947,0.00005
6525.93794,0.00005
6527.86641,0.00005
6529.79488,0.00005
6531.72335,0.00005
6533.65182,0.00005
6535.58029,0.00005
6537.50875,0.00005
6539.43722,0.00005
6541.36569,0.00005
6543.29416,0.00005
6545.22263,0.00006
6547.15110,0.00005
6549.07957,0.00005
6551.00804,0.00005
6552.93650,0.00005
6554.86497,0.00005
6556.79344,0.00005
6558.72191,0.00005
6560.65038,0.00005
6562.57885,0.00005
6564.50732,0.00005
6566.43578,0.00005
6568.36425,0.00005
6570.29272,0.00005
6572.22119,0.00005
6574.14966,0.00005
6576.07813,0.00005
6578.00660,0.00005
6579.93507,0.00005
6581.86353,0.00005
6583.79200,0.00005
6585.72047,0.00005
6587.64894,0.00004
6589.57741,0.00005
6591.50588,0.00005
6593.43435,0.00004
6595.36281,0.00005
6597.29128,0.00005
6599.21975,0.00005
6601.14822,0.00005
6603.07669,0.00005
6605.00516,0.00004
6606.93363,0.00004
6608.86210,0.00004
6610.79056,0.00004
6612.71903,0.00004
6614.64750,0.00004
6616.57597,0.00004
6618.50444,0.00005
6620.43291,0.00005
6622.36138,0.00005
6624.28984,0.00005
6626.21831,0.00005
6628.14678,0.00005
6630.07525,0.00005
6632.00372,0.00005
6633.93219,0.00005
6635.86066,0.00005
6637.78912,0.00005
6639.71759,0.00005
6641.64606,0.00005
6643.57453,0.00005
6645.50300,0.00005
6647.43147,0.00005
6649.35994,0.00005
6651.28841,0.00005
6653.21687,0.00005
6655.14534,0.00005
6657.07381,0.00005
6659.00228,0.00005
6660.93075,0.00005
6662.85922,0.00005
6664.78769,0.00004
6666.71615,0.00004
6668.64462,0.00004
6670.57309,0.00005
6672.50156,0.00005
6674.43003,0.00005
6676.35850,0.00005
6678.28697,0.00005
6680.21544,0.00004
6682.14390,0.00004
6684.07237,0.00005
6686.00084,0.00005
6687.92931,0.00005
6689.85778,0.00005
6691.78625,0.00005
6693.71472,0.00004
6695.64318,0.00004
6697.57165,0.00004
6699.50012,0.00005
6701.42859,0.00005
6703.35706,0.00004
6705.28553,0.00004
6707.21400,0.00004
6709.14247,0.00004
6711.07093,0.00004
6712.99940,0.00005
6714.92787,0.00005
6716.85634,0.00005
6718.78481,0.00005
6720.71328,0.00005
6722.64175,0.00004
6724.57021,0.00004
6726.49868,0.00004
6728.42715,0.00004
6730.35562,0.00004
6732.28409,0.00004
6734.21256,0.00004
6736.14103,0.00004
6738.06950,0.00005
6739.99796,0.00005
6741.92643,0.00005
6743.85490,0.00004
6745.78337,0.00004
6747.71184,0.00004
6749.64031,0.00004
6751.56878,0.00004
6753.49724,0.00004
6755.42571,0.00004
6757.35418,0.00004
6759.28265,0.00004
6761.21112,0.00004
6763.13959,0.00005
6765.06806,0.00005
6766.99653,0.00005
6768.92499,0.00004
6770.85346,0.00004
6772.78193,0.00004
6774.71040,0.00004
6776.63887,0.00004
6778.56734,0.00004
6780.49581,0.00004
6782.42427,0.00004
6784.35274,0.00004
6786.28121,0.00004
6788.20968,0.00004
6790.13815,0.00004
6792.06662,0.00004
6793.99509,0.00004
6795.92355,0.00004
6797.85202,0.00004
6799.78049,0.00004
6801.70896,0.00004
6803.63743,0.00003
6805.56590,0.00003
6807.49437,0.00004
6809.42284,0.00004
6811.35130,0.00004
6813.27977,0.00004
6815.20824,0.00004
6817.13671,0.00004
6819.06518,0.00004
6820.99365,0.00004
6822.92212,0.00004
6824.85058,0.00004
6826.77905,0.00004
6828.70752,0.00004
6830.63599,0.00004
6832.56446,0.00004
6834.49293,0.00004
6836.42140,0.00004
6838.34987,0.00004
6840.27833,0.00004
6842.20680,0.00004
6844.13527,0.00004
6846.06374,0.00004
6847.99221,0.00004
6849.92068,0.00004
6851.84915,0.00003
6853.77761,0.00003
6855.70608,0.00003
6857.63455,0.00004
6859.56302,0.00004
6861.49149,0.00004
6863.41996,0.00004
6865.34843,0.00004
6867.27690,0.00004
6869.20536,0.00003
6871.13383,0.00003
6873.06230,0.00003
6874.99077,0.00003
6876.91924,0.00003
6878.84771,0.00003
6880.77618,0.00003
6882.70464,0.00004
6884.63311,0.00004
6886.56158,0.00004
6888.49005,0.00004
6890.41852,0.00004
6892.34699,0.00004
6894.27546,0.00004
6896.20393,0.00003
6898.13239,0.00003
6900.06086,0.00003
6901.98933,0.00004
6903.91780,0.00003
6905.84627,0.00004
6907.77474,0.00004
6909.70321,0.00004
6911.63167,0.00004
6913.56014,0.00004
6915.48861,0.00004
6917.41708,0.00004
6919.34555,0.00004
6921.27402,0.00004
6923.20249,0.00004
6925.13096,0.00004
6927.05942,0.00003
6928.98789,0.00003
6930.91636,0.00003
6932.84483,0.00003
6934.77330,0.00004
6936.70177,0.00003
6938.63024,0.00003
6940.55870,0.00003
6942.48717,0.00003
6944.41564,0.00003
6946.34411,0.00003
6948.27258,0.00003
6950.20105,0.00004
6952.12952,0.00004
6954.05799,0.00004
6955.98645,0.00003
6957.91492,0.00003
6959.84339,0.00003
6961.77186,0.00003
6963.70033,0.00003
6965.62880,0.00003
6967.55727,0.00003
6969.48573,0.00003
6971.41420,0.00003
6973.34267,0.00003
6975.27114,0.00003
6977.19961,0.00003
6979.12808,0.00003
6981.05655,0.00004
6982.98501,0.00004
6984.91348,0.00004
6986.84195,0.00004
6988.77042,0.00004
6990.69889,0.00004
6992.62736,0.00004
6994.55583,0.00003
6996.48430,0.00003
6998.41276,0.00003
7000.34123,0.00003
7002.26970,0.00003
7004.19817,0.00003
7006.12664,0.00003
7008.05511,0.00003
7009.98358,0.00003
7011.91204,0.00003
7013.84051,0.00003
7015.76898,0.00004
7017.69745,0.00004
7019.62592,0.00004
7021.55439,0.00004
7023.48286,0.00003
7025.41133,0.00003
7027.33979,0.00004
7029.26826,0.00003
7031.19673,0.00003
7033.12520,0.00003
7035.05367,0.00003
7036.98214,0.00003
7038.91061,0.00003
7040.83907,0.00003
7042.76754,0.00003
7044.69601,0.00003
7046.62448,0.00003
7048.55295,0.00003
7050.48142,0.00003
7052.40989,0.00003
7054.33836,0.00003
7056.26682,0.00003
7058.19529,0.00003
7060.12376,0.00004
7062.05223,0.00003
7063.98070,0.00003
7065.90917,0.00003
7067.83764,0.00003
7069.76610,0.00003
7071.69457,0.00003
7073.62304,0.00003
7075.55151,0.00003
7077.47998,0.00004
7079.40845,0.00004
7081.33692,0.00003
7083.26539,0.00003
7085.19385,0.00003
7087.12232,0.00003
7089.05079,0.00003
7090.97926,0.00003
7092.90773,0.00002
7094.83620,0.00003
7096.76467,0.00003
7098.69313,0.00003
7100.62160,0.00003
7102.55007,0.00003
7104.47854,0.00003
7106.40701,0.00003
7108.33548,0.00003
7110.26395,0.00003
7112.19242,0.00003
7114.12088,0.00003
7116.04935,0.00003
7117.97782,0.00003
7119.90629,0.00003
7121.83476,0.00003
7123.76323,0.00003
7125.69170,0.00003
7127.62016,0.00003
7129.54863,0.00003
7131.47710,0.00003
7133.40557,0.00002
7135.33404,0.00002
7137.26251,0.00003
7139.19098,0.00003
7141.11944,0.00003
7143.04791,0.00003
7144.97638,0.00003
7146.90485,0.00003
7148.83332,0.00003
7150.76179,0.00003
7152.69026,0.00003
7154.61873,0.00003
7156.54719,0.00003
7158.47566,0.00002
7160.40413,0.00002
7162.33260,0.00002
7164.26107,0.00002
7166.18954,0.00002
7168.11801,0.00003
7170.04647,0.00003
7171.97494,0.00003
7173.90341,0.00003
7175.83188,0.00003
7177.76035,0.00003
7179.68882,0.00003
7181.61729,0.00003
7183.54576,0.00003
7185.47422,0.00003
7187.40269,0.00003
7189.33116,0.00003
7191.25963,0.00003
7193.18810,0.00002
7195.11657,0.00003
7197.04504,0.00003
7198.97350,0.00003
7200.90197,0.00003
7202.83044,0.00003
7204.75891,0.00003
7206.68738,0.00003
7208.61585,0.00003
7210.54432,0.00003
7212.47279,0.00003
7214.40125,0.00003
7216.32972,0.00003
7218.25819,0.00003
7220.18666,0.00003
7222.11513,0.00003
7224.04360,0.00003
7225.97207,0.00003
7227.90053,0.00002
7229.82900,0.00002
7231.75747,0.00002
7233.68594,0.00002
7235.61441,0.00002
7237.54288,0.00002
7239.47135,0.00002
7241.39982,0.00002
7243.32828,0.00002
7245.25675,0.00002
7247.18522,0.00003
7249.11369,0.00003
7251.04216,0.00003
7252.97063,0.00002
7254.89910,0.00002
7256.82756,0.00002
7258.75603,0.00002
7260.68450,0.00002
7262.61297,0.00002
7264.54144,0.00003
7266.46991,0.00003
7268.39838,0.00002
7270.32685,0.00002
7272.25531,0.00002
7274.18378,0.00002
7276.11225,0.00002
7278.04072,0.00002
7279.96919,0.00002
7281.89766,0.00002
7283.82613,0.00002
7285.75459,0.00002
7287.68306,0.00002
7289.61153,0.00002
7291.54000,0.00002
7293.46847,0.00002
7295.39694,0.00002
7297.32541,0.00002
7299.25387,0.00002
7301.18234,0.00002
7303.11081,0.00002
7305.03928,0.00002
7306.96775,0.00002
7308.89622,0.00002
7310.82469,0.00002
7312.75316,0.00002
7314.68162,0.00003
7316.61009,0.00003
7318.53856,0.00002
7320.46703,0.00002
7322.39550,0.00002
7324.32397,0.00002
7326.25244,0.00002
7328.18090,0.00002
7330.10937,0.00002
7332.03784,0.00002
7333.96631,0.00002
7335.89478,0.00002
7337.82325,0.00002
7339.75172,0.00002
7341.68019,0.00002
7343.60865,0.00002
7345.53712,0.00002
7347.46559,0.00002
7349.39406,0.00002
7351.32253,0.00002
7353.25100,0.00002
7355.17947,0.00002
7357.10793,0.00002
7359.03640,0.00002
7360.96487,0.00002
7362.89334,0.00001
7364.82181,0.00002
7366.75028,0.00002
7368.67875,0.00002
7370.60722,0.00002
7372.53568,0.00002
7374.46415,0.00002
7376.39262,0.00002
7378.32109,0.00002
7380.24956,0.00002
7382.17803,0.00002
7384.10650,0.00002
7386.03496,0.00002
7387.96343,0.00002
7389.89190,0.00002
7391.82037,0.00002
7393.74884,0.00002
7395.67731,0.00002
7397.60578,0.00002
7399.53425,0.00002
7401.46271,0.00002
7403.39118,0.00002
7405.31965,0.00002
7407.24812,0.00002
7409.17659,0.00002
7411.10506,0.00002
7413.03353,0.00002
7414.96199,0.00002
7416.89046,0.00002
7418.81893,0.00002
7420.74740,0.00002
7422.67587,0.00002
7424.60434,0.00002
7426.53281,0.00002
7428.46128,0.00002
7430.38974,0.00002
7432.31821,0.00002
7434.24668,0.00002
7436.17515,0.00002
7438.10362,0.00002
7440.03209,0.00002
7441.96056,0.00002
7443.88902,0.00002
7445.81749,0.00002
7447.74596,0.00002
7449.67443,0.00002
7451.60290,0.00002
7453.53137,0.00002
7455.45984,0.00002
7457.38831,0.00002
7459.31677,0.00002
7461.24524,0.00002
7463.17371,0.00002
7465.10218,0.00001
7467.03065,0.00001
7468.95912,0.00002
7470.88759,0.00002
7472.81605,0.00002
7474.74452,0.00002
7476.67299,0.00002
7478.60146,0.00002
7480.52993,0.00002
7482.45840,0.00002
7484.38687,0.00002
7486.31533,0.00002
7488.24380,0.00002
7490.17227,0.00002
7492.10074,0.00002
7494.02921,0.00002
7495.95768,0.00002
7497.88615,0.00002
