399.19301,0.22800
401.12148,0.65494
403.04995,0.48340
404.97842,0.04324
406.90689,-0.19239
408.83536,-0.11385
410.76382,0.02399
412.69229,0.40354
414.62076,1.55060
416.54923,3.13343
418.47770,4.00742
420.40617,3.02306
422.33464,1.67613
424.26311,0.67763
426.19157,0.04513
428.12004,-0.20399
430.04851,-0.23929
431.97698,-0.14912
433.90545,-0.05115
435.83392,0.03011
437.76239,0.13767
439.69085,0.28365
441.61932,0.32232
443.54779,0.15327
445.47626,0.06322
447.40473,0.15227
449.33320,0.15955
451.26167,0.07627
453.19013,0.01436
455.11860,0.00300
457.04707,0.01158
458.97554,-0.03087
460.90401,-0.08257
462.83248,-0.07833
464.76095,-0.01472
466.68942,0.03950
468.61788,0.00594
470.54635,-0.03748
472.47482,0.11490
474.40329,0.31199
476.33176,0.17628
478.26023,0.03072
480.18870,0.00215
482.11716,0.04192
484.04563,0.06017
485.97410,0.05214
487.90257,0.06786
489.83104,0.09020
491.75951,0.10355
493.68798,0.12124
495.61645,0.12548
497.54491,0.10643
499.47338,0.09876
501.40185,0.08480
503.33032,0.04606
505.25879,0.03399
507.18726,0.05789
509.11573,0.06978
511.04419,0.07430
512.97266,0.10082
514.90113,0.11962
516.82960,0.12630
518.75807,0.11452
520.68654,0.07589
522.61501,0.06381
524.54348,0.08822
526.47194,0.11093
528.40041,0.12605
530.32888,0.12734
532.25735,0.10513
534.18582,0.10497
536.11429,0.13729
538.04276,0.13858
539.97122,0.10687
541.89969,0.10339
543.82816,0.11833
545.75663,0.10394
547.68510,0.08425
549.61357,0.26172
551.54204,0.97542
553.47051,1.67866
555.39897,1.37591
557.32744,0.52835
559.25591,0.14403
561.18438,0.10565
563.11285,0.11044
565.04132,0.13086
566.96979,0.12324
568.89825,0.08826
570.82672,0.07270
572.75519,0.08774
574.68366,0.10279
576.61213,0.10344
578.54060,0.09884
580.46907,0.09157
582.39754,0.07869
584.32600,0.08032
586.25447,0.10636
588.18294,0.13895
590.11141,0.13860
592.03988,0.09521
593.96835,0.06869
595.89682,0.08054
597.82528,0.09353
599.75375,0.10323
601.68222,0.11668
603.61069,0.12892
605.53916,0.13922
607.46763,0.14924
609.39610,0.15439
611.32456,0.13963
613.25303,0.11132
615.18150,0.10268
617.10997,0.11401
619.03844,0.12354
620.96691,0.12964
622.89538,0.13434
624.82385,0.13477
626.75231,0.13104
628.68078,0.12729
630.60925,0.13490
632.53772,0.14647
634.46619,0.14117
636.39466,0.13145
638.32313,0.12509
640.25159,0.12319
642.18006,0.13003
644.10853,0.12981
646.03700,0.12390
647.96547,0.11847
649.89394,0.11309
651.82241,0.12021
653.75088,0.13424
655.67934,0.13452
657.60781,0.11895
659.53628,0.09702
661.46475,0.08234
663.39322,0.08139
665.32169,0.09093
667.25016,0.11501
669.17862,0.14796
671.10709,0.15379
673.03556,0.14623
674.96403,0.14046
676.89250,0.13546
678.82097,0.13264
680.74944,0.13010
682.67791,0.12331
684.60637,0.12874
686.53484,0.14792
688.46331,0.15357
690.39178,0.14193
692.32025,0.13210
694.24872,0.12614
696.17719,0.12030
698.10565,0.12370
700.03412,0.13637
701.96259,0.14721
703.89106,0.15014
705.81953,0.14982
707.74800,0.15228
709.67647,0.15525
711.60494,0.15803
713.53340,0.15710
715.46187,0.14869
717.39034,0.13647
719.31881,0.12959
721.24728,0.13594
723.17575,0.13832
725.10422,0.12754
727.03268,0.12738
728.96115,0.14298
730.88962,0.15364
732.81809,0.15062
734.74656,0.14022
736.67503,0.12863
738.60350,0.12468
740.53197,0.13190
742.46043,0.13586
744.38890,0.13154
746.31737,0.12883
748.24584,0.13043
750.17431,0.13213
752.10278,0.13357
754.03125,0.13898
755.95971,0.14409
757.88818,0.14110
759.81665,0.13444
761.74512,0.13079
763.67359,0.12776
765.60206,0.12418
767.53053,0.12978
769.45900,0.14524
771.38746,0.15660
773.31593,0.15985
775.24440,0.15555
777.17287,0.14338
779.10134,0.13606
781.02981,0.14079
782.95828,0.14676
784.88674,0.14347
786.81521,0.13345
788.74368,0.12880
790.67215,0.13493
792.60062,0.14137
794.52909,0.14147
796.45756,0.14474
798.38602,0.15207
800.31449,0.15176
802.24296,0.14866
804.17143,0.15426
806.09990,0.15909
808.02837,0.14978
809.95684,0.13248
811.88531,0.12393
813.81377,0.12533
815.74224,0.12962
817.67071,0.14023
819.59918,0.15181
821.52765,0.15590
823.45612,0.15430
825.38459,0.14844
827.31305,0.14546
829.24152,0.14787
831.16999,0.14749
833.09846,0.14649
835.02693,0.14672
836.95540,0.14291
838.88387,0.13884
840.81234,0.13868
842.74080,0.14098
844.66927,0.14075
846.59774,0.13933
848.52621,0.14477
850.45468,0.15082
852.38315,0.14914
854.31162,0.14190
856.24008,0.13660
858.16855,0.14337
860.09702,0.15702
862.02549,0.16190
863.95396,0.15618
865.88243,0.14811
867.81090,0.13880
869.73937,0.12594
871.66783,0.12305
873.59630,0.13697
875.52477,0.15010
877.45324,0.15499
879.38171,0.15237
881.31018,0.14544
883.23865,0.15051
885.16711,0.16327
887.09558,0.16334
889.02405,0.15247
890.95252,0.14557
892.88099,0.14793
894.80946,0.15059
896.73793,0.14798
898.66640,0.14945
900.59486,0.15659
902.52333,0.15687
904.45180,0.15140
906.38027,0.15092
908.30874,0.15073
910.23721,0.14264
912.16568,0.13234
914.09414,0.13132
916.02261,0.13862
917.95108,0.14182
919.87955,0.14062
921.80802,0.14289
923.73649,0.14275
925.66496,0.13675
927.59343,0.13565
929.52189,0.14024
931.45036,0.14181
933.37883,0.14217
935.30730,0.14670
937.23577,0.15213
939.16424,0.15303
941.09271,0.15219
943.02117,0.15366
944.94964,0.15384
946.87811,0.14924
948.80658,0.14436
950.73505,0.14368
952.66352,0.14381
954.59199,0.14517
956.52045,0.15163
958.44892,0.15762
960.37739,0.15805
962.30586,0.15178
964.23433,0.14289
966.16280,0.14195
968.09127,0.14732
970.01974,0.15113
971.94820,0.15444
973.87667,0.15798
975.80514,0.16028
977.73361,0.16239
979.66208,0.16317
981.59055,0.16027
983.51902,0.15759
985.44748,0.15749
987.37595,0.15558
989.30442,0.15192
991.23289,0.15029
993.16136,0.14904
995.08983,0.14597
997.01830,0.14383
998.94677,0.14440
1000.87523,0.14779
1002.80370,0.15517
1004.73217,0.16410
1006.66064,0.16911
1008.58911,0.16823
1010.51758,0.16258
1012.44605,0.15652
1014.37451,0.15647
1016.30298,0.15995
1018.23145,0.16132
1020.15992,0.16380
1022.08839,0.16581
1024.01686,0.16111
1025.94533,0.15876
1027.87380,0.16259
1029.80226,0.15835
1031.73073,0.15203
1033.65920,0.15677
1035.58767,0.16272
1037.51614,0.16529
1039.44461,0.16690
1041.37308,0.16464
1043.30154,0.16237
1045.23001,0.16368
1047.15848,0.16355
1049.08695,0.15979
1051.01542,0.15716
1052.94389,0.15563
1054.87236,0.15354
1056.80083,0.15520
1058.72929,0.16179
1060.65776,0.16762
1062.58623,0.16809
1064.51470,0.16454
1066.44317,0.16065
1068.37164,0.15928
1070.30011,0.16474
1072.22857,0.17511
1074.15704,0.18312
1076.08551,0.18503
1078.01398,0.18044
1079.94245,0.17076
1081.87092,0.15676
1083.79939,0.14822
1085.72786,0.15597
1087.65632,0.16842
1089.58479,0.17247
1091.51326,0.17173
1093.44173,0.16833
1095.37020,0.16139
1097.29867,0.15859
1099.22714,0.16361
1101.15560,0.16847
1103.08407,0.16941
1105.01254,0.16874
1106.94101,0.16644
1108.86948,0.16207
1110.79795,0.15617
1112.72642,0.15433
1114.65489,0.16087
1116.58335,0.17000
1118.51182,0.17431
1120.44029,0.16944
1122.36876,0.15770
1124.29723,0.15171
1126.22570,0.15410
1128.15417,0.15429
1130.08263,0.15172
1132.01110,0.15461
1133.93957,0.15878
1135.86804,0.15380
1137.79651,0.14544
1139.72498,0.14533
1141.65345,0.15309
1143.58191,0.16185
1145.51038,0.16619
1147.43885,0.16661
1149.36732,0.16571
1151.29579,0.16478
1153.22426,0.16407
1155.15273,0.16378
1157.08120,0.16383
1159.00966,0.16300
1160.93813,0.16270
1162.86660,0.16537
1164.79507,0.16953
1166.72354,0.16954
1168.65201,0.16495
1170.58048,0.16320
1172.50894,0.16308
1174.43741,0.15919
1176.36588,0.15666
1178.29435,0.15843
1180.22282,0.16135
1182.15129,0.16541
1184.07976,0.16820
1186.00823,0.16592
1187.93669,0.16195
1189.86516,0.15953
1191.79363,0.15620
1193.72210,0.15231
1195.65057,0.15151
1197.57904,0.15590
1199.50751,0.16216
1201.43597,0.16354
1203.36444,0.16064
1205.29291,0.15736
1207.22138,0.15567
1209.14985,0.15916
1211.07832,0.16825
1213.00679,0.17613
1214.93526,0.17586
1216.86372,0.16987
1218.79219,0.16592
1220.72066,0.16532
1222.64913,0.16437
1224.57760,0.16380
1226.50607,0.16553
1228.43454,0.16685
1230.36300,0.16674
1232.29147,0.16654
1234.21994,0.16518
1236.14841,0.16222
1238.07688,0.16067
1240.00535,0.16262
1241.93382,0.16749
1243.86229,0.17187
1245.79075,0.17103
1247.71922,0.16720
1249.64769,0.16563
1251.57616,0.16635
1253.50463,0.16695
1255.43310,0.16666
1257.36157,0.16730
1259.29003,0.17028
1261.21850,0.17198
1263.14697,0.16951
1265.07544,0.16944
1267.00391,0.17327
1268.93238,0.17347
1270.86085,0.17053
1272.78932,0.16855
1274.71778,0.16814
1276.64625,0.16995
1278.57472,0.17400
1280.50319,0.17808
1282.43166,0.18040
1284.36013,0.18214
1286.28860,0.18266
1288.21706,0.17963
1290.14553,0.17593
1292.07400,0.17473
1294.00247,0.17444
1295.93094,0.17414
1297.85941,0.17410
1299.78788,0.17442
1301.71634,0.17397
1303.64481,0.17190
1305.57328,0.17138
1307.50175,0.17226
1309.43022,0.17034
1311.35869,0.16813
1313.28716,0.17044
1315.21563,0.17430
1317.14409,0.17441
1319.07256,0.17265
1321.00103,0.17402
1322.92950,0.17600
1324.85797,0.17487
1326.78644,0.17379
1328.71491,0.17344
1330.64337,0.17225
1332.57184,0.17340
1334.50031,0.17665
1336.42878,0.17988
1338.35725,0.18410
1340.28572,0.18394
1342.21419,0.17482
1344.14266,0.16332
1346.07112,0.15838
1347.99959,0.16452
1349.92806,0.17367
1351.85653,0.17738
1353.78500,0.17867
1355.71347,0.17985
1357.64194,0.18057
1359.57040,0.18365
1361.49887,0.18918
1363.42734,0.18846
1365.35581,0.18007
1367.28428,0.17491
1369.21275,0.17586
1371.14122,0.18057
1373.06969,0.18656
1374.99815,0.18530
1376.92662,0.17806
1378.85509,0.17519
1380.78356,0.17400
1382.71203,0.17253
1384.64050,0.17773
1386.56897,0.18775
1388.49743,0.19034
1390.42590,0.18848
1392.35437,0.19325
1394.28284,0.20122
1396.21131,0.20148
1398.13978,0.19625
1400.06825,0.19068
1401.99672,0.18721
1403.92518,0.18704
1405.85365,0.18488
1407.78212,0.17990
1409.71059,0.17721
1411.63906,0.17742
1413.56753,0.18041
1415.49600,0.18801
1417.42446,0.19868
1419.35293,0.19835
1421.28140,0.18871
1423.20987,0.18760
1425.13834,0.19121
1427.06681,0.19358
1428.99528,0.19475
1430.92375,0.19253
1432.85221,0.19183
1434.78068,0.19956
1436.70915,0.20700
1438.63762,0.20046
1440.56609,0.19061
1442.49456,0.18510
1444.42303,0.18705
1446.35149,0.19497
1448.27996,0.19821
1450.20843,0.19567
1452.13690,0.19721
1454.06537,0.20565
1455.99384,0.22035
1457.92231,0.22357
1459.85077,0.20624
1461.77924,0.19645
1463.70771,0.19894
1465.63618,0.20098
1467.56465,0.19633
1469.49312,0.19933
1471.42159,0.21264
1473.35006,0.21777
1475.27852,0.20882
1477.20699,0.20053
1479.13546,0.19513
1481.06393,0.19143
1482.99240,0.18961
1484.92087,0.19388
1486.84934,0.20739
1488.77780,0.22178
1490.70627,0.21578
1492.63474,0.20128
1494.56321,0.19979
1496.49168,0.20748
1498.42015,0.20823
1500.34862,0.20270
1502.27709,0.20097
1504.20555,0.21054
1506.13402,0.24042
1508.06249,0.24966
1509.99096,0.22522
1511.91943,0.21112
1513.84790,0.21226
1515.77637,0.22377
1517.70483,0.23396
1519.63330,0.24315
1521.56177,0.25111
1523.49024,0.24029
1525.41871,0.22614
1527.34718,0.21689
1529.27565,0.20979
1531.20412,0.20973
1533.13258,0.21408
1535.06105,0.21330
1536.98952,0.21856
1538.91799,0.24295
1540.84646,0.26283
1542.77493,0.24564
1544.70340,0.22255
1546.63186,0.20724
1548.56033,0.20313
1550.48880,0.20318
1552.41727,0.20486
1554.34574,0.21346
1556.27421,0.23282
1558.20268,0.26421
1560.13115,0.24811
1562.05961,0.21242
1563.98808,0.19804
1565.91655,0.19495
1567.84502,0.19824
1569.77349,0.20022
1571.70196,0.19516
1573.63043,0.19572
1575.55889,0.20263
1577.48736,0.19796
1579.41583,0.18866
1581.34430,0.18724
1583.27277,0.18763
1585.20124,0.18478
1587.12971,0.18201
1589.05818,0.18271
1590.98664,0.18541
1592.91511,0.18594
1594.84358,0.18335
1596.77205,0.18091
1598.70052,0.18113
1600.62899,0.18336
1602.55746,0.18547
1604.48592,0.18606
1606.41439,0.18618
1608.34286,0.18614
1610.27133,0.18498
1612.19980,0.18598
1614.12827,0.19368
1616.05674,0.20556
1617.98521,0.20551
1619.91367,0.20141
1621.84214,0.20894
1623.77061,0.21696
1625.69908,0.21563
1627.62755,0.21498
1629.55602,0.21163
1631.48449,0.20665
1633.41295,0.21463
1635.34142,0.23556
1637.26989,0.23260
1639.19836,0.21555
1641.12683,0.20812
1643.05530,0.21138
1644.98377,0.22802
1646.91223,0.24467
1648.84070,0.23641
1650.76917,0.23346
1652.69764,0.24910
1654.62611,0.23915
1656.55458,0.21639
1658.48305,0.20653
1660.41152,0.20665
1662.33998,0.21132
1664.26845,0.21084
1666.19692,0.21067
1668.12539,0.21997
1670.05386,0.22649
1671.98233,0.21957
1673.91080,0.21782
1675.83926,0.21953
1677.76773,0.21545
1679.69620,0.21497
1681.62467,0.22629
1683.55314,0.24453
1685.48161,0.23800
1687.41008,0.22066
1689.33855,0.21251
1691.26701,0.20575
1693.19548,0.20448
1695.12395,0.21975
1697.05242,0.24179
1698.98089,0.24753
1700.90936,0.23314
1702.83783,0.21771
1704.76629,0.21293
1706.69476,0.20739
1708.62323,0.19813
1710.55170,0.19378
1712.48017,0.19880
1714.40864,0.21681
1716.33711,0.23934
1718.26558,0.23166
1720.19404,0.20605
1722.12251,0.19294
1724.05098,0.18967
1725.97945,0.19024
1727.90792,0.19421
1729.83639,0.19986
1731.76486,0.20867
1733.69332,0.21968
1735.62179,0.21396
1737.55026,0.20574
1739.47873,0.20895
1741.40720,0.21440
1743.33567,0.21368
1745.26414,0.21207
1747.19261,0.21610
1749.12107,0.22133
1751.04954,0.21422
1752.97801,0.20106
1754.90648,0.19554
1756.83495,0.19635
1758.76342,0.19861
1760.69189,0.20223
1762.62035,0.20096
1764.54882,0.19461
1766.47729,0.19511
1768.40576,0.20412
1770.33423,0.21649
1772.26270,0.22109
1774.19117,0.20859
1776.11964,0.19666
1778.04810,0.19603
1779.97657,0.20149
1781.90504,0.20219
1783.83351,0.19920
1785.76198,0.19815
1787.69045,0.19841
1789.61892,0.20242
1791.54738,0.20978
1793.47585,0.20965
1795.40432,0.20349
1797.33279,0.20127
1799.26126,0.20294
1801.18973,0.20175
1803.11820,0.19599
1805.04666,0.19173
1806.97513,0.19098
1808.90360,0.19172
1810.83207,0.19250
1812.76054,0.19306
1814.68901,0.19342
1816.61748,0.19208
1818.54595,0.18910
1820.47441,0.18721
1822.40288,0.18950
1824.33135,0.19568
1826.25982,0.20086
1828.18829,0.20509
1830.11676,0.20546
1832.04523,0.19820
1833.97369,0.19309
1835.90216,0.19203
1837.83063,0.19030
1839.75910,0.18943
1841.68757,0.19402
1843.61604,0.20263
1845.54451,0.20411
1847.47298,0.19719
1849.40144,0.19037
1851.32991,0.18787
1853.25838,0.18877
1855.18685,0.18894
1857.11532,0.18790
1859.04379,0.18720
1860.97226,0.18703
1862.90072,0.18769
1864.82919,0.19097
1866.75766,0.19838
1868.68613,0.20232
1870.61460,0.19586
1872.54307,0.18868
1874.47154,0.18484
1876.40001,0.18304
1878.32847,0.18366
1880.25694,0.18536
1882.18541,0.18723
1884.11388,0.18864
1886.04235,0.18922
1887.97082,0.19093
1889.89929,0.19174
1891.82775,0.18959
1893.75622,0.18820
1895.68469,0.18780
1897.61316,0.18703
1899.54163,0.18789
1901.47010,0.18970
1903.39857,0.18975
1905.32704,0.18935
1907.25550,0.19045
1909.18397,0.19072
1911.11244,0.18879
1913.04091,0.18761
1914.96938,0.18950
1916.89785,0.19362
1918.82632,0.19564
1920.75478,0.19525
1922.68325,0.19418
1924.61172,0.18955
1926.54019,0.18411
1928.46866,0.18319
1930.39713,0.18584
1932.32560,0.18796
1934.25407,0.18764
1936.18253,0.18583
1938.11100,0.18463
1940.03947,0.18677
1941.96794,0.19133
1943.89641,0.19220
1945.82488,0.18862
1947.75335,0.18597
1949.68181,0.18682
1951.61028,0.18936
1953.53875,0.18996
1955.46722,0.18771
1957.39569,0.18513
1959.32416,0.18425
1961.25263,0.18506
1963.18110,0.18735
1965.10956,0.19034
1967.03803,0.19082
1968.96650,0.18865
1970.89497,0.18805
1972.82344,0.18954
1974.75191,0.19048
1976.68038,0.18975
1978.60884,0.18825
1980.53731,0.18674
1982.46578,0.18584
1984.39425,0.18566
1986.32272,0.18630
1988.25119,0.18877
1990.17966,0.19143
1992.10812,0.19132
1994.03659,0.18941
1995.96506,0.18788
1997.89353,0.18688
1999.82200,0.18666
2001.75047,0.18704
2003.67894,0.18793
2005.60741,0.18924
2007.53587,0.18887
2009.46434,0.18770
2011.39281,0.18924
2013.32128,0.19307
2015.24975,0.19632
2017.17822,0.19596
2019.10669,0.19177
2021.03515,0.18892
2022.96362,0.18957
2024.89209,0.19032
2026.82056,0.18867
2028.74903,0.18578
2030.67750,0.18541
2032.60597,0.18792
2034.53444,0.18870
2036.46290,0.18628
2038.39137,0.18407
2040.31984,0.18354
2042.24831,0.18332
2044.17678,0.18411
2046.10525,0.18645
2048.03372,0.18881
2049.96218,0.19019
2051.89065,0.19022
2053.81912,0.18920
2055.74759,0.18739
2057.67606,0.18565
2059.60453,0.18580
2061.53300,0.18703
2063.46147,0.18767
2065.38993,0.18886
2067.31840,0.19100
2069.24687,0.19285
2071.17534,0.19431
2073.10381,0.19457
2075.03228,0.19349
2076.96075,0.19221
2078.88921,0.19055
2080.81768,0.18904
2082.74615,0.18776
2084.67462,0.18655
2086.60309,0.18803
2088.53156,0.19098
2090.46003,0.19010
2092.38850,0.18674
2094.31696,0.18554
2096.24543,0.18598
2098.17390,0.18641
2100.10237,0.18675
2102.03084,0.18696
2103.95931,0.18762
2105.88778,0.18834
2107.81624,0.18880
2109.74471,0.18992
2111.67318,0.19042
2113.60165,0.18949
2115.53012,0.18944
2117.45859,0.19138
2119.38706,0.19323
2121.31553,0.19342
2123.24399,0.19229
2125.17246,0.19080
2127.10093,0.19036
2129.02940,0.19088
2130.95787,0.19010
2132.88634,0.18272
2134.81481,0.16852
2136.74327,0.15860
2138.67174,0.16275
2140.60021,0.17847
2142.52868,0.19075
2144.45715,0.19231
2146.38562,0.19091
2148.31409,0.18938
2150.24255,0.18767
2152.17102,0.18803
2154.09949,0.18954
2156.02796,0.19050
2157.95643,0.19111
2159.88490,0.19133
2161.81337,0.19004
2163.74184,0.18849
2165.67030,0.18893
2167.59877,0.19048
2169.52724,0.19020
2171.45571,0.18913
2173.38418,0.18962
2175.31265,0.18921
2177.24112,0.18812
2179.16958,0.18896
2181.09805,0.18965
2183.02652,0.18965
2184.95499,0.19003
2186.88346,0.18862
2188.81193,0.18736
2190.74040,0.18936
2192.66887,0.19129
2194.59733,0.19098
2196.52580,0.18968
2198.45427,0.18884
2200.38274,0.18911
2202.31121,0.18864
2204.23968,0.18590
2206.16815,0.18305
2208.09661,0.18211
2210.02508,0.18207
2211.95355,0.18338
2213.88202,0.18595
2215.81049,0.18584
2217.73896,0.18427
2219.66743,0.18558
2221.59590,0.18733
2223.52436,0.18710
2225.45283,0.18813
2227.38130,0.19175
2229.30977,0.19424
2231.23824,0.19317
2233.16671,0.19062
2235.09518,0.18877
2237.02364,0.18849
2238.95211,0.18908
2240.88058,0.18909
2242.80905,0.19073
2244.73752,0.19306
2246.66599,0.19111
2248.59446,0.18763
2250.52293,0.18693
2252.45139,0.18739
2254.37986,0.18708
2256.30833,0.18501
2258.23680,0.18201
2260.16527,0.18121
2262.09374,0.18201
2264.02221,0.18139
2265.95067,0.17974
2267.87914,0.17952
2269.80761,0.18142
2271.73608,0.18293
2273.66455,0.18191
2275.59302,0.17999
2277.52149,0.17904
2279.44996,0.17788
2281.37842,0.17553
2283.30689,0.17381
2285.23536,0.17414
2287.16383,0.17539
2289.09230,0.17655
2291.02077,0.17917
2292.94924,0.18255
2294.87770,0.18264
2296.80617,0.17912
2298.73464,0.17495
2300.66311,0.17284
2302.59158,0.17275
2304.52005,0.17350
2306.44852,0.17500
2308.37699,0.17504
2310.30545,0.17413
2312.23392,0.17485
2314.16239,0.17431
2316.09086,0.17523
2318.01933,0.17838
2319.94780,0.18390
2321.87627,0.18574
2323.80473,0.18385
2325.73320,0.18369
2327.66167,0.18731
2329.59014,0.19438
2331.51861,0.19858
2333.44708,0.19778
2335.37555,0.20307
2337.30401,0.21246
2339.23248,0.21052
2341.16095,0.19852
2343.08942,0.19250
2345.01789,0.19566
2346.94636,0.19885
2348.87483,0.19925
2350.80330,0.19765
2352.73176,0.19642
2354.66023,0.19776
2356.58870,0.20026
2358.51717,0.20636
2360.44564,0.21230
2362.37411,0.20512
2364.30258,0.18970
2366.23104,0.18596
2368.15951,0.18997
2370.08798,0.18981
2372.01645,0.18661
2373.94492,0.18062
2375.87339,0.17251
2377.80186,0.16880
2379.73033,0.16745
2381.65879,0.16848
2383.58726,0.17097
2385.51573,0.17371
2387.44420,0.17565
2389.37267,0.17536
2391.30114,0.17336
2393.22961,0.17297
2395.15807,0.17556
2397.08654,0.17781
2399.01501,0.17722
2400.94348,0.17613
2402.87195,0.17705
2404.80042,0.17866
2406.72889,0.17946
2408.65736,0.18043
2410.58582,0.18185
2412.51429,0.18288
2414.44276,0.18362
2416.37123,0.18381
2418.29970,0.18307
2420.22817,0.18359
2422.15664,0.18605
2424.08510,0.18649
2426.01357,0.18368
2427.94204,0.18240
2429.87051,0.18515
2431.79898,0.18825
2433.72745,0.18846
2435.65592,0.18740
2437.58439,0.18717
2439.51285,0.18725
2441.44132,0.18754
2443.36979,0.18927
2445.29826,0.19129
2447.22673,0.19068
2449.15520,0.18858
2451.08367,0.18902
2453.01213,0.19126
2454.94060,0.19070
2456.86907,0.18751
2458.79754,0.18482
2460.72601,0.18390
2462.65448,0.18583
2464.58295,0.18914
2466.51142,0.19005
2468.43988,0.18896
2470.36835,0.18934
2472.29682,0.19156
2474.22529,0.19344
2476.15376,0.19334
2478.08223,0.19116
2480.01070,0.18895
2481.93916,0.18891
2483.86763,0.18987
2485.79610,0.19014
2487.72457,0.19037
2489.65304,0.19002
2491.58151,0.18918
2493.50998,0.19104
2495.43844,0.19575
2497.36691,0.19790
2499.29538,0.19487
2501.22385,0.19062
2503.15232,0.18865
2505.08079,0.18877
2507.00926,0.18971
2508.93773,0.19041
2510.86619,0.19000
2512.79466,0.18982
2514.72313,0.19089
2516.65160,0.19198
2518.58007,0.19298
2520.50854,0.19327
2522.43701,0.19307
2524.36547,0.19298
2526.29394,0.19198
2528.22241,0.19117
2530.15088,0.19058
2532.07935,0.18838
2534.00782,0.18751
2535.93629,0.19008
2537.86476,0.19140
2539.79322,0.19046
2541.72169,0.19005
2543.65016,0.19032
2545.57863,0.19181
2547.50710,0.19265
2549.43557,0.19096
2551.36404,0.18972
2553.29250,0.18992
2555.22097,0.19001
2557.14944,0.19114
2559.07791,0.19362
2561.00638,0.19524
2562.93485,0.19482
2564.86332,0.19168
2566.79179,0.18808
2568.72025,0.18850
2570.64872,0.19261
2572.57719,0.19563
2574.50566,0.19550
2576.43413,0.19498
2578.36260,0.19588
2580.29107,0.19632
2582.21953,0.19452
2584.14800,0.19202
2586.07647,0.19192
2588.00494,0.19529
2589.93341,0.19940
2591.86188,0.20069
2593.79035,0.19894
2595.71882,0.19606
2597.64728,0.19335
2599.57575,0.19124
2601.50422,0.19163
2603.43269,0.19579
2605.36116,0.19987
2607.28963,0.19999
2609.21810,0.19901
2611.14656,0.19941
2613.07503,0.19767
2615.00350,0.19347
2616.93197,0.19215
2618.86044,0.19471
2620.78891,0.19581
2622.71738,0.19320
2624.64585,0.19139
2626.57431,0.19315
2628.50278,0.19565
2630.43125,0.19683
2632.35972,0.19790
2634.28819,0.19833
2636.21666,0.19596
2638.14513,0.19214
2640.07359,0.19022
2642.00206,0.19020
2643.93053,0.19027
2645.85900,0.19070
2647.78747,0.19180
2649.71594,0.19317
2651.64441,0.19493
2653.57288,0.19555
2655.50134,0.19401
2657.42981,0.19338
2659.35828,0.19567
2661.28675,0.19851
2663.21522,0.20012
2665.14369,0.20068
2667.07216,0.19952
2669.00062,0.19661
2670.92909,0.19543
2672.85756,0.19689
2674.78603,0.19663
2676.71450,0.19394
2678.64297,0.19193
2680.57144,0.19190
2682.49990,0.19342
2684.42837,0.19468
2686.35684,0.19445
2688.28531,0.19483
2690.21378,0.19774
2692.14225,0.19947
2694.07072,0.19808
2695.99919,0.19714
2697.92765,0.19564
2699.85612,0.19160
2701.78459,0.18987
2703.71306,0.19275
2705.64153,0.19511
2707.57000,0.19404
2709.49847,0.19262
2711.42693,0.19305
2713.35540,0.19466
2715.28387,0.19610
2717.21234,0.19644
2719.14081,0.19675
2721.06928,0.19692
2722.99775,0.19557
2724.92622,0.19562
2726.85468,0.19885
2728.78315,0.20075
2730.71162,0.19947
2732.64009,0.19891
2734.56856,0.20126
2736.49703,0.20414
2738.42550,0.20448
2740.35396,0.20280
2742.28243,0.20136
2744.21090,0.19989
2746.13937,0.19735
2748.06784,0.19577
2749.99631,0.19678
2751.92478,0.19769
2753.85325,0.19670
2755.78171,0.19707
2757.71018,0.20098
2759.63865,0.20452
2761.56712,0.20504
2763.49559,0.20504
2765.42406,0.20499
2767.35253,0.20374
2769.28099,0.20217
2771.20946,0.20204
2773.13793,0.20425
2775.06640,0.20531
2776.99487,0.20284
2778.92334,0.20004
2780.85181,0.19895
2782.78028,0.20014
2784.70874,0.20282
2786.63721,0.20421
2788.56568,0.20461
2790.49415,0.20533
2792.42262,0.20437
2794.35109,0.20183
2796.27956,0.20213
2798.20802,0.20521
2800.13649,0.20711
2802.06496,0.20740
2803.99343,0.20721
2805.92190,0.20599
2807.85037,0.20408
2809.77884,0.20434
2811.70731,0.20621
2813.63577,0.20536
2815.56424,0.20245
2817.49271,0.20203
2819.42118,0.20475
2821.34965,0.20678
2823.27812,0.20654
2825.20659,0.20627
2827.13505,0.20665
2829.06352,0.20628
2830.99199,0.20488
2832.92046,0.20410
2834.84893,0.20539
2836.77740,0.20659
2838.70587,0.20517
2840.63433,0.20320
2842.56280,0.20324
2844.49127,0.20415
2846.41974,0.20468
2848.34821,0.20575
2850.27668,0.20742
2852.20515,0.20831
2854.13362,0.20799
2856.06208,0.20781
2857.99055,0.20733
2859.91902,0.20580
2861.84749,0.20644
2863.77596,0.20811
2865.70443,0.20618
2867.63290,0.20393
2869.56136,0.20439
2871.48983,0.20357
2873.41830,0.20015
2875.34677,0.19769
2877.27524,0.19869
2879.20371,0.20180
2881.13218,0.20337
2883.06065,0.20282
2884.98911,0.20141
2886.91758,0.19892
2888.84605,0.19716
2890.77452,0.19801
2892.70299,0.19921
2894.63146,0.19839
2896.55993,0.19707
2898.48839,0.19645
2900.41686,0.19686
2902.34533,0.20019
2904.27380,0.20346
2906.20227,0.20507
2908.13074,0.20862
2910.05921,0.21045
2911.98768,0.20822
2913.91614,0.20718
2915.84461,0.20749
2917.77308,0.20528
2919.70155,0.20082
2921.63002,0.19837
2923.55849,0.19859
2925.48696,0.19851
2927.41542,0.19913
2929.34389,0.19988
2931.27236,0.19980
2933.20083,0.20071
2935.12930,0.20115
2937.05777,0.20212
2938.98624,0.20450
2940.91471,0.20347
2942.84317,0.20008
2944.77164,0.19962
2946.70011,0.20184
2948.62858,0.20391
2950.55705,0.20382
2952.48552,0.20233
2954.41399,0.20163
2956.34245,0.20143
2958.27092,0.20190
2960.19939,0.20448
2962.12786,0.20787
2964.05633,0.20893
2965.98480,0.20683
2967.91327,0.20489
2969.84174,0.20640
2971.77020,0.21115
2973.69867,0.21601
2975.62714,0.21773
2977.55561,0.21676
2979.48408,0.21451
2981.41255,0.21180
2983.34102,0.21056
2985.26948,0.21102
2987.19795,0.21184
2989.12642,0.21152
2991.05489,0.20971
2992.98336,0.20987
2994.91183,0.21267
2996.84030,0.21321
2998.76877,0.21260
3000.69723,0.21560
3002.62570,0.21761
3004.55417,0.21467
3006.48264,0.21224
3008.41111,0.21221
3010.33958,0.21115
3012.26805,0.20903
3014.19651,0.20809
3016.12498,0.20818
3018.05345,0.20845
3019.98192,0.21041
3021.91039,0.21314
3023.83886,0.21370
3025.76733,0.21382
3027.69579,0.21450
3029.62426,0.21381
3031.55273,0.21282
3033.48120,0.21240
3035.40967,0.21169
3037.33814,0.21015
3039.26661,0.20865
3041.19508,0.20889
3043.12354,0.20960
3045.05201,0.20992
3046.98048,0.20925
3048.90895,0.20674
3050.83742,0.20656
3052.76589,0.21097
3054.69436,0.21650
3056.62282,0.22078
3058.55129,0.22214
3060.47976,0.21912
3062.40823,0.21419
3064.33670,0.21138
3066.26517,0.21260
3068.19364,0.21559
3070.12211,0.21661
3072.05057,0.21655
3073.97904,0.21627
3075.90751,0.21303
3077.83598,0.20809
3079.76445,0.20544
3081.69292,0.20478
3083.62139,0.20823
3085.54985,0.21732
3087.47832,0.22231
3089.40679,0.21806
3091.33526,0.21311
3093.26373,0.21345
3095.19220,0.21559
3097.12067,0.21498
3099.04914,0.21265
3100.97760,0.21087
3102.90607,0.20995
3104.83454,0.20941
3106.76301,0.20898
3108.69148,0.21051
3110.61995,0.21375
3112.54842,0.21527
3114.47688,0.21585
3116.40535,0.21684
3118.33382,0.21524
3120.26229,0.21177
3122.19076,0.21027
3124.11923,0.21060
3126.04770,0.21169
3127.97617,0.21245
3129.90463,0.21173
3131.83310,0.21218
3133.76157,0.21403
3135.69004,0.21359
3137.61851,0.21252
3139.54698,0.21341
3141.47545,0.21336
3143.40391,0.21021
3145.33238,0.20761
3147.26085,0.20851
3149.18932,0.21099
3151.11779,0.21276
3153.04626,0.21311
3154.97473,0.21452
3156.90320,0.21800
3158.83166,0.22058
3160.76013,0.22050
3162.68860,0.21733
3164.61707,0.21397
3166.54554,0.21254
3168.47401,0.21096
3170.40248,0.20938
3172.33094,0.20843
3174.25941,0.20782
3176.18788,0.20861
3178.11635,0.20934
3180.04482,0.20958
3181.97329,0.21163
3183.90176,0.21345
3185.83022,0.21360
3187.75869,0.21294
3189.68716,0.21208
3191.61563,0.21463
3193.54410,0.21796
3195.47257,0.21348
3197.40104,0.20550
3199.32951,0.20361
3201.25797,0.20422
3203.18644,0.20483
3205.11491,0.20874
3207.04338,0.21151
3208.97185,0.20974
3210.90032,0.20831
3212.82879,0.20862
3214.75725,0.20907
3216.68572,0.21177
3218.61419,0.21290
3220.54266,0.20961
3222.47113,0.20855
3224.39960,0.21029
3226.32807,0.21160
3228.25654,0.21284
3230.18500,0.21308
3232.11347,0.21296
3234.04194,0.21512
3235.97041,0.21876
3237.89888,0.21921
3239.82735,0.21502
3241.75582,0.21077
3243.68428,0.21042
3245.61275,0.21152
3247.54122,0.21095
3249.46969,0.21025
3251.39816,0.21019
3253.32663,0.21027
3255.25510,0.21031
3257.18357,0.21030
3259.11203,0.21031
3261.04050,0.20836
3262.96897,0.20504
3264.89744,0.20526
3266.82591,0.20817
3268.75438,0.21010
3270.68285,0.21131
3272.61131,0.21095
3274.53978,0.21033
3276.46825,0.21050
3278.39672,0.21043
3280.32519,0.21341
3282.25366,0.21776
3284.18213,0.21660
3286.11060,0.21080
3288.03906,0.20992
3289.96753,0.21638
3291.89600,0.21890
3293.82447,0.21494
3295.75294,0.21328
3297.68141,0.21472
3299.60988,0.21464
3301.53834,0.21241
3303.46681,0.21045
3305.39528,0.20934
3307.32375,0.20813
3309.25222,0.20713
3311.18069,0.20667
3313.10916,0.20675
3315.03763,0.20763
3316.96609,0.20831
3318.89456,0.20931
3320.82303,0.21139
3322.75150,0.21151
3324.67997,0.21000
3326.60844,0.20860
3328.53691,0.20573
3330.46537,0.20416
3332.39384,0.20618
3334.32231,0.20921
3336.25078,0.21191
3338.17925,0.21272
3340.10772,0.21170
3342.03619,0.21263
3343.96466,0.21626
3345.89312,0.21769
3347.82159,0.21313
3349.75006,0.20726
3351.67853,0.20692
3353.60700,0.21161
3355.53547,0.21738
3357.46394,0.22067
3359.39240,0.21904
3361.32087,0.21366
3363.24934,0.20990
3365.17781,0.21195
3367.10628,0.21650
3369.03475,0.21952
3370.96322,0.21981
3372.89168,0.21551
3374.82015,0.20916
3376.74862,0.20740
3378.67709,0.21145
3380.60556,0.21530
3382.53403,0.21461
3384.46250,0.21095
3386.39097,0.20726
3388.31943,0.20631
3390.24790,0.20957
3392.17637,0.21366
3394.10484,0.21496
3396.03331,0.21419
3397.96178,0.21306
3399.89025,0.21132
3401.81871,0.20847
3403.74718,0.20661
3405.67565,0.20478
3407.60412,0.20140
3409.53259,0.20177
3411.46106,0.20585
3413.38953,0.20768
3415.31800,0.20917
3417.24646,0.21315
3419.17493,0.21542
3421.10340,0.21203
3423.03187,0.20519
3424.96034,0.20168
3426.88881,0.20406
3428.81728,0.20590
3430.74574,0.20344
3432.67421,0.20112
3434.60268,0.19947
3436.53115,0.19511
3438.45962,0.19249
3440.38809,0.19700
3442.31656,0.20334
3444.24503,0.20535
3446.17349,0.20477
3448.10196,0.20322
3450.03043,0.20005
3451.95890,0.19728
3453.88737,0.19555
3455.81584,0.19344
3457.74431,0.19287
3459.67277,0.19481
3461.60124,0.19660
3463.52971,0.19771
3465.45818,0.19791
3467.38665,0.19414
3469.31512,0.18806
3471.24359,0.18471
3473.17206,0.18346
3475.10052,0.18510
3477.02899,0.19107
3478.95746,0.19635
3480.88593,0.19988
3482.81440,0.20268
3484.74287,0.20238
3486.67134,0.19994
3488.59980,0.19460
3490.52827,0.18488
3492.45674,0.17843
3494.38521,0.18060
3496.31368,0.18486
3498.24215,0.18645
3500.17062,0.18823
3502.09909,0.19098
3504.02755,0.18932
3505.95602,0.18256
3507.88449,0.17861
3509.81296,0.17964
3511.74143,0.18138
3513.66990,0.18025
3515.59837,0.17681
3517.52683,0.17555
3519.45530,0.17725
3521.38377,0.17874
3523.31224,0.17861
3525.24071,0.17916
3527.16918,0.18182
3529.09765,0.18268
3531.02611,0.17954
3532.95458,0.17452
3534.88305,0.17052
3536.81152,0.16956
3538.73999,0.16965
3540.66846,0.16923
3542.59693,0.17156
3544.52540,0.17816
3546.45386,0.18378
3548.38233,0.18512
3550.31080,0.18420
3552.23927,0.17832
3554.16774,0.16744
3556.09621,0.16090
3558.02468,0.16263
3559.95314,0.16725
3561.88161,0.17003
3563.81008,0.17565
3565.73855,0.18599
3567.66702,0.18304
3569.59549,0.16549
3571.52396,0.15543
3573.45243,0.15330
3575.38089,0.15181
3577.30936,0.15074
3579.23783,0.15150
3581.16630,0.15142
3583.09477,0.15009
3585.02324,0.15368
3586.95171,0.16407
3588.88017,0.16649
3590.80864,0.15897
3592.73711,0.15593
3594.66558,0.15989
3596.59405,0.16280
3598.52252,0.16251
3600.45099,0.16104
3602.37946,0.15900
3604.30792,0.15920
3606.23639,0.16338
3608.16486,0.16928
3610.09333,0.17136
3612.02180,0.17011
3613.95027,0.16891
3615.87874,0.17117
3617.80720,0.17676
3619.73567,0.17343
3621.66414,0.16101
3623.59261,0.15438
3625.52108,0.15531
3627.44955,0.15976
3629.37802,0.15604
3631.30649,0.14579
3633.23495,0.14368
3635.16342,0.14661
3637.09189,0.14856
3639.02036,0.14812
3640.94883,0.14671
3642.87730,0.14620
3644.80577,0.15049
3646.73423,0.16450
3648.66270,0.18017
3650.59117,0.17373
3652.51964,0.15985
3654.44811,0.15354
3656.37658,0.14712
3658.30505,0.13730
3660.23352,0.13457
3662.16198,0.13690
3664.09045,0.13646
3666.01892,0.13658
3667.94739,0.14401
3669.87586,0.15432
3671.80433,0.15721
3673.73280,0.16139
3675.66126,0.16316
3677.58973,0.15016
3679.51820,0.13709
3681.44667,0.13190
3683.37514,0.13440
3685.30361,0.14007
3687.23208,0.14667
3689.16055,0.15542
3691.08901,0.15830
3693.01748,0.15052
3694.94595,0.14120
3696.87442,0.13489
3698.80289,0.13259
3700.73136,0.13418
3702.65983,0.13352
3704.58829,0.13059
3706.51676,0.13393
3708.44523,0.14471
3710.37370,0.15430
3712.30217,0.15043
3714.23064,0.14007
3716.15911,0.13333
3718.08757,0.13052
3720.01604,0.13252
3721.94451,0.13775
3723.87298,0.14109
3725.80145,0.14037
3727.72992,0.13746
3729.65839,0.13870
3731.58686,0.14871
3733.51532,0.16306
3735.44379,0.16449
3737.37226,0.15048
3739.30073,0.14136
3741.22920,0.14296
3743.15767,0.15242
3745.08614,0.15697
3747.01460,0.15233
3748.94307,0.15808
3750.87154,0.16950
3752.80001,0.15931
3754.72848,0.14429
3756.65695,0.13936
3758.58542,0.13976
3760.51389,0.14115
3762.44235,0.14025
3764.37082,0.13570
3766.29929,0.13354
3768.22776,0.13564
3770.15623,0.13434
3772.08470,0.13010
3774.01317,0.12842
3775.94163,0.12982
3777.87010,0.13496
3779.79857,0.13838
3781.72704,0.13474
3783.65551,0.13065
3785.58398,0.12766
3787.51245,0.12488
3789.44092,0.12448
3791.36938,0.12447
3793.29785,0.12335
3795.22632,0.12601
3797.15479,0.13448
3799.08326,0.14348
3801.01173,0.14738
3802.94020,0.13956
3804.86866,0.13290
3806.79713,0.13385
3808.72560,0.13334
3810.65407,0.13047
3812.58254,0.13173
3814.51101,0.13717
3816.43948,0.13827
3818.36795,0.13603
3820.29641,0.13990
3822.22488,0.14062
3824.15335,0.13471
3826.08182,0.13082
3828.01029,0.12922
3829.93876,0.12748
3831.86723,0.12691
3833.79569,0.13130
3835.72416,0.13742
3837.65263,0.14009
3839.58110,0.14048
3841.50957,0.13898
3843.43804,0.13411
3845.36651,0.13009
3847.29498,0.13116
3849.22344,0.13411
3851.15191,0.13753
3853.08038,0.14844
3855.00885,0.15298
3856.93732,0.14191
3858.86579,0.13343
3860.79426,0.13527
3862.72272,0.14297
3864.65119,0.14158
3866.57966,0.13229
3868.50813,0.12614
3870.43660,0.12236
3872.36507,0.12360
3874.29354,0.13000
3876.22200,0.13538
3878.15047,0.13989
3880.07894,0.14040
3882.00741,0.13184
3883.93588,0.12396
3885.86435,0.12154
3887.79282,0.12368
3889.72129,0.12903
3891.64975,0.12854
3893.57822,0.11634
3895.50669,0.10851
3897.43516,0.11491
3899.36363,0.13141
3901.29210,0.14277
3903.22057,0.14128
3905.14903,0.13121
3907.07750,0.12021
3909.00597,0.11361
3910.93444,0.10873
3912.86291,0.10497
3914.79138,0.10789
3916.71985,0.11552
3918.64832,0.11832
3920.57678,0.11801
3922.50525,0.12117
3924.43372,0.12357
3926.36219,0.12006
3928.29066,0.11748
3930.21913,0.12009
3932.14760,0.12116
3934.07606,0.11619
3936.00453,0.10929
3937.93300,0.10614
3939.86147,0.10918
3941.78994,0.11273
3943.71841,0.11094
3945.64688,0.10865
3947.57535,0.11046
3949.50381,0.11148
3951.43228,0.10809
3953.36075,0.10776
3955.28922,0.11273
3957.21769,0.11338
3959.14616,0.10937
3961.07463,0.11035
3963.00309,0.11497
3964.93156,0.11529
3966.86003,0.11158
3968.78850,0.10972
3970.71697,0.11013
3972.64544,0.10868
3974.57391,0.10593
3976.50238,0.10419
3978.43084,0.10363
3980.35931,0.10412
3982.28778,0.10299
3984.21625,0.09870
3986.14472,0.09547
3988.07319,0.09739
3990.00166,0.10228
3991.93012,0.10352
3993.85859,0.10051
3995.78706,0.10012
3997.71553,0.10329
3999.64400,0.10480
4001.57247,0.10420
4003.50094,0.10241
4005.42941,0.09774
4007.35787,0.09356
4009.28634,0.09505
4011.21481,0.09975
4013.14328,0.10280
4015.07175,0.10390
4017.00022,0.10204
4018.92869,0.09658
4020.85715,0.09408
4022.78562,0.09758
4024.71409,0.10150
4026.64256,0.10053
4028.57103,0.09549
4030.49950,0.09308
4032.42797,0.09591
4034.35644,0.09958
4036.28490,0.10026
4038.21337,0.09807
4040.14184,0.09514
4042.07031,0.09350
4043.99878,0.09313
4045.92725,0.09294
4047.85572,0.09350
4049.78418,0.09587
4051.71265,0.09764
4053.64112,0.09619
4055.56959,0.09586
4057.49806,0.09776
4059.42653,0.09693
4061.35500,0.09523
4063.28346,0.09569
4065.21193,0.09588
4067.14040,0.09328
4069.06887,0.08935
4070.99734,0.08901
4072.92581,0.09219
4074.85428,0.09264
4076.78275,0.08921
4078.71121,0.08565
4080.63968,0.08360
4082.56815,0.08526
4084.49662,0.09000
4086.42509,0.09220
4088.35356,0.09005
4090.28203,0.08658
4092.21049,0.08601
4094.13896,0.08922
4096.06743,0.08944
4097.99590,0.08468
4099.92437,0.08339
4101.85284,0.08709
4103.78131,0.08766
4105.70978,0.08453
4107.63824,0.08525
4109.56671,0.08876
4111.49518,0.08637
4113.42365,0.07872
4115.35212,0.07490
4117.28059,0.07750
4119.20906,0.08141
4121.13752,0.08345
4123.06599,0.08664
4124.99446,0.09346
4126.92293,0.09743
4128.85140,0.09324
4130.77987,0.08701
4132.70834,0.08477
4134.63681,0.08395
4136.56527,0.08240
4138.49374,0.08379
4140.42221,0.08628
4142.35068,0.08399
4144.27915,0.08010
4146.20762,0.07960
4148.13609,0.08199
4150.06455,0.08361
4151.99302,0.07931
4153.92149,0.07376
4155.84996,0.07522
4157.77843,0.07788
4159.70690,0.07632
4161.63537,0.07405
4163.56384,0.07337
4165.49230,0.07522
4167.42077,0.07963
4169.34924,0.08237
4171.27771,0.07984
4173.20618,0.07660
4175.13465,0.07731
4177.06312,0.08009
4178.99158,0.08056
4180.92005,0.07829
4182.84852,0.07729
4184.77699,0.07923
4186.70546,0.08348
4188.63393,0.08658
4190.56240,0.08249
4192.49087,0.07045
4194.41933,0.05701
4196.34780,0.05064
4198.27627,0.05634
4200.20474,0.06780
4202.13321,0.07238
4204.06168,0.06969
4205.99015,0.06642
4207.91861,0.06710
4209.84708,0.07360
4211.77555,0.08081
4213.70402,0.08398
4215.63249,0.08362
4217.56096,0.07871
4219.48943,0.07019
4221.41789,0.06604
4223.34636,0.06763
4225.27483,0.06860
4227.20330,0.07018
4229.13177,0.07334
4231.06024,0.07304
4232.98871,0.06871
4234.91718,0.06520
4236.84564,0.06421
4238.77411,0.06441
4240.70258,0.06749
4242.63105,0.07011
4244.55952,0.06751
4246.48799,0.06642
4248.41646,0.06997
4250.34492,0.07361
4252.27339,0.07718
4254.20186,0.07812
4256.13033,0.07427
4258.05880,0.07030
4259.98727,0.06739
4261.91574,0.06410
4263.84421,0.06171
4265.77267,0.05970
4267.70114,0.05738
4269.62961,0.05663
4271.55808,0.05716
4273.48655,0.05724
4275.41502,0.05587
4277.34349,0.05630
4279.27195,0.06252
4281.20042,0.06703
4283.12889,0.06398
4285.05736,0.06017
4286.98583,0.05898
4288.91430,0.05895
4290.84277,0.05836
4292.77124,0.05518
4294.69970,0.05266
4296.62817,0.05483
4298.55664,0.06036
4300.48511,0.06312
4302.41358,0.06027
4304.34205,0.05977
4306.27052,0.06579
4308.19898,0.07019
4310.12745,0.06815
4312.05592,0.06567
4313.98439,0.06530
4315.91286,0.06233
4317.84133,0.05803
4319.76980,0.05549
4321.69827,0.05176
4323.62673,0.04649
4325.55520,0.04179
4327.48367,0.04002
4329.41214,0.04672
4331.34061,0.05569
4333.26908,0.05590
4335.19755,0.05314
4337.12601,0.05165
4339.05448,0.04900
4340.98295,0.04863
4342.91142,0.05115
4344.83989,0.05115
4346.76836,0.04832
4348.69683,0.04924
4350.62530,0.05393
4352.55376,0.05414
4354.48223,0.04572
4356.41070,0.03703
4358.33917,0.03810
4360.26764,0.04480
4362.19611,0.04626
4364.12458,0.04172
4366.05304,0.04004
4367.98151,0.04269
4369.90998,0.04280
4371.83845,0.03953
4373.76692,0.04000
4375.69539,0.04684
4377.62386,0.05443
4379.55232,0.05690
4381.48079,0.04951
4383.40926,0.03764
4385.33773,0.03649
4387.26620,0.04385
4389.19467,0.04297
4391.12314,0.03596
4393.05161,0.03591
4394.98007,0.03872
4396.90854,0.03708
4398.83701,0.03649
4400.76548,0.03660
4402.69395,0.03049
4404.62242,0.02416
4406.55089,0.02578
4408.47935,0.02937
4410.40782,0.02938
4412.33629,0.03063
4414.26476,0.03370
4416.19323,0.03575
4418.12170,0.03913
4420.05017,0.04133
4421.97864,0.03760
4423.90710,0.03116
4425.83557,0.02675
4427.76404,0.02390
4429.69251,0.02244
4431.62098,0.02228
4433.54945,0.02140
4435.47792,0.02204
4437.40638,0.02495
4439.33485,0.02723
4441.26332,0.02926
4443.19179,0.03200
4445.12026,0.03297
4447.04873,0.02898
4448.97720,0.02582
4450.90567,0.03416
4452.83413,0.04673
4454.76260,0.04525
4456.69107,0.03353
4458.61954,0.02480
4460.54801,0.01913
4462.47648,0.01691
4464.40495,0.02172
4466.33341,0.02971
4468.26188,0.03590
4470.19035,0.03777
4472.11882,0.03046
4474.04729,0.01850
4475.97576,0.01551
4477.90423,0.01985
4479.83270,0.01870
4481.76116,0.01228
4483.68963,0.01312
4485.61810,0.02034
4487.54657,0.02108
4489.47504,0.01645
4491.40351,0.01304
4493.33198,0.01034
4495.26044,0.00841
4497.18891,0.00827
4499.11738,0.00829
4501.04585,0.01085
4502.97432,0.01776
4504.90279,0.02103
4506.83126,0.01781
4508.75973,0.01357
4510.68819,0.00974
4512.61666,0.00623
4514.54513,0.00495
4516.47360,0.00924
4518.40207,0.01880
4520.33054,0.02429
4522.25901,0.02130
4524.18747,0.01822
4526.11594,0.01755
4528.04441,0.01408
4529.97288,0.01033
4531.90135,0.00986
4533.82982,0.00938
4535.75829,0.00965
4537.68676,0.01479
4539.61522,0.01935
4541.54369,0.01685
4543.47216,0.01328
4545.40063,0.01350
4547.32910,0.01274
4549.25757,0.01174
4551.18604,0.01759
4553.11450,0.02561
4555.04297,0.02369
4556.97144,0.01248
4558.89991,0.00480
4560.82838,0.00750
4562.75685,0.01157
4564.68532,0.00917
4566.61378,0.00544
4568.54225,0.00166
4570.47072,-0.00339
4572.39919,-0.00490
4574.32766,-0.00147
4576.25613,0.00491
4578.18460,0.00997
4580.11307,0.01042
4582.04153,0.01003
4583.97000,0.01148
4585.89847,0.01443
4587.82694,0.01678
4589.75541,0.01534
4591.68388,0.01189
4593.61235,0.00967
4595.54081,0.00950
4597.46928,0.00956
4599.39775,0.00962
4601.32622,0.01304
4603.25469,0.01709
4605.18316,0.01826
4607.11163,0.02082
4609.04010,0.02793
4610.96856,0.03452
4612.89703,0.02994
4614.82550,0.01401
4616.75397,-0.00064
4618.68244,-0.00758
4620.61091,-0.01007
4622.53938,-0.01133
4624.46784,-0.00940
4626.39631,-0.00183
4628.32478,0.00591
4630.25325,0.00689
4632.18172,0.00211
4634.11019,-0.00213
4636.03866,-0.00165
4637.96713,0.00360
4639.89559,0.01096
4641.82406,0.01230
4643.75253,0.00617
4645.68100,-0.00060
4647.60947,-0.00252
4649.53794,0.00177
4651.46641,0.00398
4653.39487,0.00186
4655.32334,0.00398
4657.25181,0.01113
4659.18028,0.01669
4661.10875,0.01613
4663.03722,0.01079
4664.96569,0.00277
4666.89416,-0.00722
4668.82262,-0.01196
4670.75109,-0.00501
4672.67956,0.00750
4674.60803,0.01330
4676.53650,0.01308
4678.46497,0.01808
4680.39344,0.02456
4682.32190,0.02162
4684.25037,0.01521
4686.17884,0.01383
4688.10731,0.01573
4690.03578,0.01788
4691.96425,0.01558
4693.89272,0.00772
4695.82119,0.00132
4697.74965,0.00002
4699.67812,0.00062
4701.60659,0.00094
4703.53506,0.00378
4705.46353,0.00734
4707.39200,0.00450
4709.32047,-0.00458
4711.24893,-0.01127
4713.17740,-0.00519
4715.10587,0.00670
4717.03434,0.00775
4718.96281,0.00591
4720.89128,0.01338
4722.81975,0.01835
4724.74821,0.01178
4726.67668,0.00437
4728.60515,0.00523
4730.53362,0.00936
4732.46209,0.01091
4734.39056,0.01267
4736.31903,0.01576
4738.24750,0.01591
4740.17596,0.01010
4742.10443,0.00226
4744.03290,0.00276
4745.96137,0.00975
4747.88984,0.01137
4749.81831,0.00979
4751.74678,0.01178
4753.67524,0.01058
4755.60371,0.00319
4757.53218,-0.00061
4759.46065,0.00095
4761.38912,0.00512
4763.31759,0.01305
4765.24606,0.01689
4767.17453,0.01262
4769.10299,0.00711
4771.03146,0.00155
4772.95993,-0.00362
4774.88840,-0.00320
4776.81687,0.00250
4778.74534,0.00741
4780.67381,0.00529
4782.60227,-0.00205
4784.53074,-0.00634
4786.45921,-0.00492
4788.38768,-0.00013
4790.31615,0.00193
4792.24462,-0.00358
4794.17309,-0.00865
4796.10156,-0.00751
4798.03002,-0.00501
4799.95849,-0.00111
4801.88696,0.00258
4803.81543,0.00101
4805.74390,-0.00046
4807.67237,0.00056
4809.60084,-0.00228
4811.52930,-0.00180
4813.45777,0.01158
4815.38624,0.02608
4817.31471,0.02671
4819.24318,0.01668
4821.17165,0.00450
4823.10012,-0.00210
4825.02859,0.00429
4826.95705,0.01550
4828.88552,0.01703
4830.81399,0.01290
4832.74246,0.00829
4834.67093,0.00101
4836.59940,-0.00661
4838.52787,-0.01173
4840.45633,-0.01090
4842.38480,-0.00243
4844.31327,0.00832
4846.24174,0.01494
4848.17021,0.01814
4850.09868,0.01968
4852.02715,0.01375
4853.95562,0.00187
4855.88408,-0.00027
4857.81255,0.00949
4859.74102,0.01322
4861.66949,0.01247
4863.59796,0.01906
4865.52643,0.02205
4867.45490,0.02118
4869.38336,0.02501
4871.31183,0.02223
4873.24030,0.01121
4875.16877,0.00519
4877.09724,0.00166
4879.02571,-0.00105
4880.95418,0.00736
4882.88265,0.01869
4884.81111,0.01688
4886.73958,0.00797
4888.66805,0.00341
4890.59652,0.00745
4892.52499,0.01438
4894.45346,0.01411
4896.38193,0.01248
4898.31039,0.01701
4900.23886,0.02276
4902.16733,0.02655
4904.09580,0.02598
4906.02427,0.01854
4907.95274,0.01110
4909.88121,0.00936
4911.80967,0.00914
4913.73814,0.00942
4915.66661,0.01252
4917.59508,0.01474
4919.52355,0.01424
4921.45202,0.01224
4923.38049,0.00833
4925.30896,0.00398
4927.23742,-0.00253
4929.16589,-0.01187
4931.09436,-0.00961
4933.02283,0.00744
4934.95130,0.01786
4936.87977,0.01390
4938.80824,0.01042
4940.73670,0.01607
4942.66517,0.02083
4944.59364,0.01695
4946.52211,0.01273
4948.45058,0.01578
4950.37905,0.02226
4952.30752,0.03071
4954.23599,0.03823
4956.16445,0.03498
4958.09292,0.02427
4960.02139,0.01281
4961.94986,0.00317
4963.87833,0.00147
4965.80680,0.00614
4967.73527,0.01488
4969.66373,0.02824
4971.59220,0.03826
4973.52067,0.03847
4975.44914,0.02724
4977.37761,0.00880
4979.30608,-0.00106
4981.23455,0.00876
4983.16302,0.02228
4985.09148,0.01910
4987.01995,0.00947
4988.94842,0.00890
4990.87689,0.01086
4992.80536,0.00662
4994.73383,0.00140
4996.66230,0.00462
4998.59076,0.01238
5000.51923,0.01572
5002.44770,0.01601
5004.37617,0.01564
5006.30464,0.01085
5008.23311,0.00700
5010.16158,0.01478
5012.09005,0.02489
5014.01851,0.02239
5015.94698,0.01432
5017.87545,0.01323
5019.80392,0.01662
5021.73239,0.01975
5023.66086,0.02211
5025.58933,0.02194
5027.51779,0.02260
5029.44626,0.02482
5031.37473,0.02371
5033.30320,0.01567
5035.23167,0.00157
5037.16014,-0.00024
5039.08861,0.01859
5041.01708,0.02898
5042.94554,0.01996
5044.87401,0.01428
5046.80248,0.01425
5048.73095,0.01223
5050.65942,0.01325
5052.58789,0.01790
5054.51636,0.02312
5056.44482,0.02854
5058.37329,0.03328
5060.30176,0.03484
5062.23023,0.03398
5064.15870,0.03205
5066.08717,0.02884
5068.01564,0.02818
5069.94410,0.02688
5071.87257,0.01933
5073.80104,0.01706
5075.72951,0.02291
5077.65798,0.01986
5079.58645,0.00972
5081.51492,0.00688
5083.44339,0.00944
5085.37185,0.01416
5087.30032,0.02302
5089.22879,0.02621
5091.15726,0.02264
5093.08573,0.03244
5095.01420,0.04814
5096.94267,0.04384
5098.87113,0.02938
5100.79960,0.02288
5102.72807,0.02053
5104.65654,0.02048
5106.58501,0.01733
5108.51348,0.01001
5110.44195,0.01785
5112.37042,0.03219
5114.29888,0.02848
5116.22735,0.01841
5118.15582,0.01805
5120.08429,0.02452
5122.01276,0.02959
5123.94123,0.02695
5125.86970,0.01929
5127.79816,0.02111
5129.72663,0.03400
5131.65510,0.03979
5133.58357,0.03146
5135.51204,0.01718
5137.44051,0.00917
5139.36898,0.01183
5141.29745,0.01833
5143.22591,0.02377
5145.15438,0.02074
5147.08285,0.01059
5149.01132,0.01633
5150.93979,0.03568
5152.86826,0.03826
5154.79673,0.02369
5156.72519,0.01079
5158.65366,0.00808
5160.58213,0.01417
5162.51060,0.02070
5164.43907,0.02686
5166.36754,0.03797
5168.29601,0.04682
5170.22448,0.04133
5172.15294,0.02482
5174.08141,0.01562
5176.00988,0.02131
5177.93835,0.03103
5179.86682,0.03761
5181.79529,0.04556
5183.72376,0.05761
5185.65222,0.06773
5187.58069,0.05911
5189.50916,0.03136
5191.43763,0.01370
5193.36610,0.02510
5195.29457,0.04246
5197.22304,0.03895
5199.15151,0.03631
5201.07997,0.04806
5203.00844,0.04578
5204.93691,0.03406
5206.86538,0.03363
5208.79385,0.03660
5210.72232,0.03975
5212.65079,0.03982
5214.57925,0.03619
5216.50772,0.03787
5218.43619,0.03694
5220.36466,0.02645
5222.29313,0.01654
5224.22160,0.01063
5226.15007,0.01088
5228.07854,0.01846
5230.00700,0.02871
5231.93547,0.03847
5233.86394,0.04045
5235.79241,0.03313
5237.72088,0.02994
5239.64935,0.03860
5241.57782,0.05300
5243.50628,0.06329
5245.43475,0.06172
5247.36322,0.04951
5249.29169,0.03656
5251.22016,0.03456
5253.14863,0.03669
5255.07710,0.03754
5257.00556,0.04074
5258.93403,0.03967
5260.86250,0.03650
5262.79097,0.03707
5264.71944,0.04127
5266.64791,0.04196
5268.57638,0.03098
5270.50485,0.02910
5272.43331,0.05090
5274.36178,0.06980
5276.29025,0.06658
5278.21872,0.05109
5280.14719,0.03382
5282.07566,0.02041
5284.00413,0.02408
5285.93259,0.05153
5287.86106,0.07716
5289.78953,0.07855
5291.71800,0.06093
5293.64647,0.04148
5295.57494,0.03511
5297.50341,0.03224
5299.43188,0.02471
5301.36034,0.03281
5303.28881,0.04880
5305.21728,0.05563
5307.14575,0.07066
5309.07422,0.08539
5311.00269,0.07201
5312.93116,0.05169
5314.85962,0.04939
5316.78809,0.04395
5318.71656,0.02342
5320.64503,0.01284
5322.57350,0.01986
5324.50197,0.02623
5326.43044,0.02505
5328.35891,0.03397
5330.28737,0.05682
5332.21584,0.07204
5334.14431,0.06944
5336.07278,0.06055
5338.00125,0.05891
5339.92972,0.06702
5341.85819,0.08118
5343.78665,0.09705
5345.71512,0.09594
5347.64359,0.08246
5349.57206,0.08293
5351.50053,0.08900
5353.42900,0.07757
5355.35747,0.06113
5357.28594,0.05642
5359.21440,0.05617
5361.14287,0.06386
5363.07134,0.07513
5364.99981,0.07462
5366.92828,0.06994
5368.85675,0.07024
5370.78522,0.07420
5372.71368,0.07260
5374.64215,0.05789
5376.57062,0.04855
5378.49909,0.05383
5380.42756,0.05315
5382.35603,0.03995
5384.28450,0.03218
5386.21297,0.04815
5388.14143,0.07438
5390.06990,0.08910
5391.99837,0.08870
5393.92684,0.07771
5395.85531,0.05455
5397.78378,0.03600
5399.71225,0.04566
5401.64071,0.06316
5403.56918,0.07094
5405.49765,0.07994
5407.42612,0.08161
5409.35459,0.06638
5411.28306,0.05384
5413.21153,0.06198
5415.13999,0.07550
5417.06846,0.07678
5418.99693,0.07230
5420.92540,0.07093
5422.85387,0.07158
5424.78234,0.07172
5426.71081,0.07253
5428.63928,0.07116
5430.56774,0.06523
5432.49621,0.06789
5434.42468,0.08574
5436.35315,0.08917
5438.28162,0.06896
5440.21009,0.05737
5442.13856,0.06665
5444.06702,0.08162
5445.99549,0.07955
5447.92396,0.05399
5449.85243,0.03931
5451.78090,0.04528
5453.70937,0.05073
5455.63784,0.06156
5457.56631,0.08528
5459.49477,0.09159
5461.42324,0.06974
5463.35171,0.06548
5465.28018,0.09048
5467.20865,0.10275
5469.13712,0.08951
5471.06559,0.06916
5472.99405,0.06232
5474.92252,0.07367
5476.85099,0.07369
5478.77946,0.06695
5480.70793,0.08032
5482.63640,0.09173
5484.56487,0.08222
5486.49334,0.06942
5488.42180,0.06513
5490.35027,0.05772
5492.27874,0.04299
5494.20721,0.04421
5496.13568,0.06286
5498.06415,0.06498
5499.99262,0.03826
5501.92108,0.01418
5503.84955,0.01438
5505.77802,0.03705
5507.70649,0.06512
5509.63496,0.06973
5511.56343,0.05706
5513.49190,0.05506
5515.42037,0.07134
5517.34883,0.08607
5519.27730,0.08659
5521.20577,0.08859
5523.13424,0.09381
5525.06271,0.08690
5526.99118,0.07687
5528.91965,0.07404
5530.84811,0.06789
5532.77658,0.05976
5534.70505,0.05947
5536.63352,0.07195
5538.56199,0.09853
5540.49046,0.11874
5542.41893,0.11586
5544.34740,0.10204
5546.27586,0.09384
5548.20433,0.09652
5550.13280,0.08912
5552.06127,0.05840
5553.98974,0.03608
5555.91821,0.04604
5557.84668,0.06939
5559.77514,0.07663
5561.70361,0.07823
5563.63208,0.09283
5565.56055,0.08953
5567.48902,0.06221
5569.41749,0.05298
5571.34596,0.06779
5573.27443,0.07787
5575.20289,0.07879
5577.13136,0.09017
5579.05983,0.10571
5580.98830,0.11210
5582.91677,0.10849
5584.84524,0.10105
5586.77371,0.08925
5588.70217,0.06042
5590.63064,0.03719
5592.55911,0.04117
5594.48758,0.04645
5596.41605,0.04088
5598.34452,0.04759
5600.27299,0.06882
5602.20145,0.08332
5604.12992,0.08913
5606.05839,0.08352
5607.98686,0.06461
5609.91533,0.06067
5611.84380,0.07776
5613.77227,0.07338
5615.70074,0.05005
5617.62920,0.04647
5619.55767,0.05490
5621.48614,0.06630
5623.41461,0.08768
5625.34308,0.09694
5627.27155,0.07806
5629.20002,0.06557
5631.12848,0.07256
5633.05695,0.07357
5634.98542,0.07177
5636.91389,0.06319
5638.84236,0.03473
5640.77083,0.03340
5642.69930,0.07947
5644.62777,0.10969
5646.55623,0.09627
5648.48470,0.07777
5650.41317,0.06159
5652.34164,0.04187
5654.27011,0.04449
5656.19858,0.06749
5658.12705,0.07850
5660.05551,0.07954
5661.98398,0.08633
5663.91245,0.08595
5665.84092,0.07443
5667.76939,0.06802
5669.69786,0.06890
5671.62633,0.07767
5673.55480,0.10013
5675.48326,0.11706
5677.41173,0.11245
5679.34020,0.09922
5681.26867,0.08673
5683.19714,0.07950
5685.12561,0.07748
5687.05408,0.06929
5688.98254,0.05614
5690.91101,0.06047
5692.83948,0.07415
5694.76795,0.07260
5696.69642,0.06980
5698.62489,0.08258
5700.55336,0.10662
5702.48183,0.12717
5704.41029,0.12661
5706.33876,0.10321
5708.26723,0.07884
5710.19570,0.08321
5712.12417,0.10647
5714.05264,0.11865
5715.98111,0.11899
5717.90957,0.10923
5719.83804,0.09028
5721.76651,0.07260
5723.69498,0.05337
5725.62345,0.04195
5727.55192,0.06821
5729.48039,0.11125
5731.40886,0.11332
5733.33732,0.08588
5735.26579,0.07415
5737.19426,0.06906
5739.12273,0.05633
5741.05120,0.05638
5742.97967,0.06416
5744.90814,0.07572
5746.83660,0.08898
5748.76507,0.07730
5750.69354,0.04303
5752.62201,0.02609
5754.55048,0.03504
5756.47895,0.05031
5758.40742,0.05904
5760.33588,0.05009
5762.26435,0.03330
5764.19282,0.04491
5766.12129,0.08550
5768.04976,0.10697
5769.97823,0.08856
5771.90670,0.05711
5773.83517,0.04168
5775.76363,0.05454
5777.69210,0.08727
5779.62057,0.12118
5781.54904,0.13796
5783.47751,0.12170
5785.40598,0.08901
5787.33445,0.08646
5789.26291,0.11599
5791.19138,0.10597
5793.11985,0.03246
5795.04832,-0.02626
5796.97679,-0.00935
5798.90526,0.03457
5800.83373,0.03652
5802.76220,0.02488
5804.69066,0.03955
5806.61913,0.04476
5808.54760,0.03332
5810.47607,0.04394
5812.40454,0.07541
5814.33301,0.09782
5816.26148,0.09837
5818.18994,0.08017
5820.11841,0.05497
5822.04688,0.03810
5823.97535,0.04085
5825.90382,0.04849
5827.83229,0.04435
5829.76076,0.05118
5831.68923,0.08328
5833.61769,0.11274
5835.54616,0.11778
5837.47463,0.11656
5839.40310,0.11107
5841.33157,0.08267
5843.26004,0.05643
5845.18851,0.05874
5847.11697,0.07272
5849.04544,0.08919
5850.97391,0.09588
5852.90238,0.08466
5854.83085,0.08540
5856.75932,0.10686
5858.68779,0.12812
5860.61626,0.14065
5862.54472,0.12566
5864.47319,0.08596
5866.40166,0.05587
5868.33013,0.04258
5870.25860,0.05459
5872.18707,0.08394
5874.11554,0.09247
5876.04400,0.07558
5877.97247,0.06913
5879.90094,0.09345
5881.82941,0.11789
5883.75788,0.10702
5885.68635,0.06906
5887.61482,0.04644
5889.54329,0.05553
5891.47175,0.05953
5893.40022,0.05265
5895.32869,0.05912
5897.25716,0.07170
5899.18563,0.07226
5901.11410,0.07497
5903.04257,0.10097
5904.97103,0.12432
5906.89950,0.12453
5908.82797,0.13067
5910.75644,0.13413
5912.68491,0.09882
5914.61338,0.06622
5916.54185,0.06257
5918.47032,0.06349
5920.39878,0.07872
5922.32725,0.09370
5924.25572,0.09241
5926.18419,0.10950
5928.11266,0.14001
5930.04113,0.14202
5931.96960,0.12690
5933.89806,0.12280
5935.82653,0.12893
5937.75500,0.12966
5939.68347,0.10776
5941.61194,0.08771
5943.54041,0.09875
5945.46888,0.10994
5947.39734,0.09947
5949.32581,0.08577
5951.25428,0.08047
5953.18275,0.06552
5955.11122,0.03227
5957.03969,0.01342
5958.96816,0.03220
5960.89663,0.06706
5962.82509,0.08895
5964.75356,0.09425
5966.68203,0.09638
5968.61050,0.09757
5970.53897,0.07742
5972.46744,0.04312
5974.39591,0.02946
5976.32437,0.04181
5978.25284,0.06910
5980.18131,0.09007
5982.10978,0.06922
5984.03825,0.01652
5985.96672,-0.00914
5987.89519,0.01500
5989.82366,0.04488
5991.75212,0.05243
5993.68059,0.05138
5995.60906,0.04069
5997.53753,0.01933
5999.46600,0.01244
6001.39447,0.03037
6003.32294,0.04728
6005.25140,0.05478
6007.17987,0.07474
6009.10834,0.08824
6011.03681,0.08511
6012.96528,0.08771
6014.89375,0.10321
6016.82222,0.13267
6018.75069,0.15236
6020.67915,0.13581
6022.60762,0.11720
6024.53609,0.11181
6026.46456,0.08967
6028.39303,0.07299
6030.32150,0.09436
6032.24997,0.10369
6034.17843,0.08811
6036.10690,0.10914
6038.03537,0.14126
6039.96384,0.11356
6041.89231,0.05992
6043.82078,0.04011
6045.74925,0.04810
6047.67772,0.04370
6049.60618,0.00611
6051.53465,-0.02181
6053.46312,-0.00395
6055.39159,0.02661
6057.32006,0.05146
6059.24853,0.08716
6061.17700,0.10617
6063.10546,0.08105
6065.03393,0.05793
6066.96240,0.07514
6068.89087,0.10868
6070.81934,0.13228
6072.74781,0.13995
6074.67628,0.12681
6076.60475,0.10119
6078.53321,0.08353
6080.46168,0.07873
6082.39015,0.08842
6084.31862,0.11453
6086.24709,0.12494
6088.17556,0.10475
6090.10403,0.09345
6092.03249,0.10248
6093.96096,0.10985
6095.88943,0.10214
6097.81790,0.08367
6099.74637,0.07302
6101.67484,0.08012
6103.60331,0.09003
6105.53177,0.08958
6107.46024,0.08303
6109.38871,0.07702
6111.31718,0.07055
6113.24565,0.06108
6115.17412,0.05899
6117.10259,0.06011
6119.03106,0.04309
6120.95952,0.02350
6122.88799,0.02296
6124.81646,0.01757
6126.74493,-0.00077
6128.67340,0.03152
6130.60187,0.10592
6132.53034,0.11992
6134.45880,0.08672
6136.38727,0.07066
6138.31574,0.08268
6140.24421,0.11013
6142.17268,0.11316
6144.10115,0.09364
6146.02962,0.10087
6147.95809,0.11397
6149.88655,0.10773
6151.81502,0.10679
6153.74349,0.09866
6155.67196,0.08406
6157.60043,0.10802
6159.52890,0.15292
6161.45737,0.16958
6163.38583,0.14570
6165.31430,0.11064
6167.24277,0.10497
6169.17124,0.10762
6171.09971,0.08435
6173.02818,0.07645
6174.95665,0.12175
6176.88512,0.15818
6178.81358,0.12990
6180.74205,0.08007
6182.67052,0.05968
6184.59899,0.06911
6186.52746,0.07732
6188.45593,0.05441
6190.38440,0.02538
6192.31286,0.02499
6194.24133,0.05908
6196.16980,0.11321
6198.09827,0.14068
6200.02674,0.12915
6201.95521,0.11902
6203.88368,0.11560
6205.81215,0.10753
6207.74061,0.11912
6209.66908,0.13023
6211.59755,0.10786
6213.52602,0.09060
6215.45449,0.09388
6217.38296,0.10952
6219.31143,0.13234
6221.23989,0.14108
6223.16836,0.12218
6225.09683,0.10046
6227.02530,0.10658
6228.95377,0.11830
6230.88224,0.11601
6232.81071,0.10682
6234.73918,0.08941
6236.66764,0.08284
6238.59611,0.09577
6240.52458,0.08513
6242.45305,0.04796
6244.38152,0.03241
6246.30999,0.03154
6248.23846,0.04504
6250.16692,0.08469
6252.09539,0.10432
6254.02386,0.11103
6255.95233,0.14095
6257.88080,0.14056
6259.80927,0.08058
6261.73774,0.02866
6263.66621,0.03241
6265.59467,0.06748
6267.52314,0.08222
6269.45161,0.06161
6271.38008,0.03835
6273.30855,0.05395
6275.23702,0.10302
6277.16549,0.12876
6279.09395,0.11265
6281.02242,0.07854
6282.95089,0.04809
6284.87936,0.02931
6286.80783,0.01312
6288.73630,-0.00068
6290.66477,0.01233
6292.59323,0.04495
6294.52170,0.05973
6296.45017,0.06116
6298.37864,0.07023
6300.30711,0.08454
6302.23558,0.08914
6304.16405,0.08059
6306.09252,0.06361
6308.02098,0.04414
6309.94945,0.03961
6311.87792,0.06805
6313.80639,0.10644
6315.73486,0.07859
6317.66333,-0.00062
6319.59180,-0.02261
6321.52026,0.01132
6323.44873,0.02344
6325.37720,0.02310
6327.30567,0.04201
6329.23414,0.05385
6331.16261,0.07010
6333.09108,0.11747
6335.01955,0.14939
6336.94801,0.13279
6338.87648,0.11113
6340.80495,0.12755
6342.73342,0.13382
6344.66189,0.09593
6346.59036,0.05824
6348.51883,0.04914
6350.44729,0.08079
6352.37576,0.13054
6354.30423,0.14429
6356.23270,0.12717
6358.16117,0.09194
6360.08964,0.04506
6362.01811,0.02277
6363.94658,0.03757
6365.87504,0.07874
6367.80351,0.13222
6369.73198,0.14346
6371.66045,0.12322
6373.58892,0.13462
6375.51739,0.13398
6377.44586,0.07531
6379.37432,0.02569
6381.30279,0.03876
6383.23126,0.06781
6385.15973,0.07475
6387.08820,0.11141
6389.01667,0.16183
6390.94514,0.14938
6392.87361,0.09704
6394.80207,0.09536
6396.73054,0.12065
6398.65901,0.10309
6400.58748,0.03856
6402.51595,-0.01360
6404.44442,-0.01037
6406.37289,0.03084
6408.30135,0.06575
6410.22982,0.07329
6412.15829,0.06416
6414.08676,0.04167
6416.01523,0.04229
6417.94370,0.08893
6419.87217,0.09838
6421.80064,0.06638
6423.72910,0.08928
6425.65757,0.14748
6427.58604,0.15646
6429.51451,0.14521
6431.44298,0.15184
6433.37145,0.14192
6435.29992,0.12932
6437.22838,0.11979
6439.15685,0.08819
6441.08532,0.08608
6443.01379,0.12064
6444.94226,0.10770
6446.87073,0.06243
6448.79920,0.04553
6450.72766,0.04478
6452.65613,0.05630
6454.58460,0.08357
6456.51307,0.09878
6458.44154,0.10091
6460.37001,0.08933
6462.29848,0.01994
6464.22695,-0.06693
6466.15541,-0.04622
6468.08388,0.08285
6470.01235,0.14955
6471.94082,0.07193
6473.86929,0.01019
6475.79776,0.05005
6477.72623,0.08954
6479.65469,0.09635
6481.58316,0.11087
6483.51163,0.12252
6485.44010,0.11489
6487.36857,0.08763
6489.29704,0.05654
6491.22551,0.01876
6493.15398,-0.01354
6495.08244,0.00959
6497.01091,0.04569
6498.93938,0.05034
6500.86785,0.06213
6502.79632,0.09275
6504.72479,0.13708
6506.65326,0.17661
6508.58172,0.16269
6510.51019,0.12785
6512.43866,0.11114
6514.36713,0.09074
6516.29560,0.07134
6518.22407,0.05190
6520.15254,0.03348
6522.08101,0.03179
6524.00947,0.05184
6525.93794,0.07833
6527.86641,0.07792
6529.79488,0.05861
6531.72335,0.05036
6533.65182,0.04735
6535.58029,0.04761
6537.50875,0.07012
6539.43722,0.09619
6541.36569,0.08070
6543.29416,0.03739
6545.22263,0.04033
6547.15110,0.10340
6549.07957,0.16135
6551.00804,0.12308
6552.93650,0.03212
6554.86497,0.03692
6556.79344,0.12547
6558.72191,0.16329
6560.65038,0.12378
6562.57885,0.09162
6564.50732,0.10238
6566.43578,0.10251
6568.36425,0.06597
6570.29272,0.04013
6572.22119,0.04983
6574.14966,0.05926
6576.07813,0.05031
6578.00660,0.03671
6579.93507,0.03362
6581.86353,0.03216
6583.79200,0.02367
6585.72047,0.03629
6587.64894,0.07556
6589.57741,0.11471
6591.50588,0.15716
6593.43435,0.18308
6595.36281,0.13144
6597.29128,0.02230
6599.21975,-0.05657
6601.14822,-0.04672
6603.07669,0.00970
6605.00516,0.04335
6606.93363,0.04712
6608.86210,0.07409
6610.79056,0.14094
6612.71903,0.16006
6614.64750,0.12705
6616.57597,0.13395
6618.50444,0.16353
6620.43291,0.17208
6622.36138,0.19052
6624.28984,0.19299
6626.21831,0.14296
6628.14678,0.08373
6630.07525,0.03715
6632.00372,0.00333
6633.93219,-0.00187
6635.86066,0.01070
6637.78912,0.01057
6639.71759,-0.00028
6641.64606,0.00283
6643.57453,0.02724
6645.50300,0.05503
6647.43147,0.07119
6649.35994,0.10377
6651.28841,0.13025
6653.21687,0.08880
6655.14534,0.01703
6657.07381,-0.02273
6659.00228,-0.01362
6660.93075,0.03742
6662.85922,0.07596
6664.78769,0.07312
6666.71615,0.04460
6668.64462,0.01669
6670.57309,0.00809
6672.50156,0.00419
6674.43003,0.03050
6676.35850,0.09295
6678.28697,0.08949
6680.21544,0.03817
6682.14390,0.03857
6684.07237,0.03590
6686.00084,-0.00200
6687.92931,0.01257
6689.85778,0.07949
6691.78625,0.12221
6693.71472,0.12066
6695.64318,0.06826
6697.57165,0.00225
6699.50012,-0.02276
6701.42859,-0.02247
6703.35706,0.00759
6705.28553,0.04869
6707.21400,0.04651
6709.14247,0.01732
6711.07093,0.00902
6712.99940,0.01298
6714.92787,0.01350
6716.85634,0.02338
6718.78481,0.03502
6720.71328,0.03980
6722.64175,0.05023
6724.57021,0.06237
6726.49868,0.06887
6728.42715,0.06566
6730.35562,0.07234
6732.28409,0.09837
6734.21256,0.09572
6736.14103,0.04323
6738.06950,0.02130
6739.99796,0.05368
6741.92643,0.08765
6743.85490,0.10584
6745.78337,0.12532
6747.71184,0.14379
6749.64031,0.09988
6751.56878,-0.01404
6753.49724,-0.08409
6755.42571,-0.05083
6757.35418,0.00721
6759.28265,0.03327
6761.21112,0.05474
6763.13959,0.08366
6765.06806,0.08199
6766.99653,0.03270
6768.92499,-0.00242
6770.85346,0.02141
6772.78193,0.06149
6774.71040,0.06482
6776.63887,0.01864
6778.56734,-0.01141
6780.49581,0.00450
6782.42427,0.03538
6784.35274,0.06676
6786.28121,0.08177
6788.20968,0.06136
6790.13815,0.01647
6792.06662,0.02161
6793.99509,0.07918
6795.92355,0.09863
6797.85202,0.07124
6799.78049,0.05745
6801.70896,0.07018
6803.63743,0.05013
6805.56590,0.02343
6807.49437,0.06967
6809.42284,0.11483
6811.35130,0.06722
6813.27977,-0.04222
6815.20824,-0.11995
6817.13671,-0.08809
6819.06518,-0.01959
6820.99365,0.01537
6822.92212,0.08290
6824.85058,0.14834
6826.77905,0.17367
6828.70752,0.22499
6830.63599,0.27110
6832.56446,0.24479
6834.49293,0.14542
6836.42140,0.01547
6838.34987,-0.04220
6840.27833,-0.02133
6842.20680,0.02844
6844.13527,0.06086
6846.06374,0.02761
6847.99221,-0.04047
6849.92068,-0.06701
6851.84915,-0.03955
6853.77761,-0.00991
6855.70608,-0.01079
6857.63455,0.00740
6859.56302,0.05657
6861.49149,0.06445
6863.41996,0.05525
6865.34843,0.11569
6867.27690,0.19163
6869.20536,0.21268
6871.13383,0.22908
6873.06230,0.25663
6874.99077,0.22394
6876.91924,0.11086
6878.84771,0.01292
6880.77618,0.02333
6882.70464,0.06328
6884.63311,0.08816
6886.56158,0.11482
6888.49005,0.08028
6890.41852,0.02714
6892.34699,0.05177
6894.27546,0.08358
6896.20393,0.07774
6898.13239,0.05740
6900.06086,0.05479
6901.98933,0.12217
6903.91780,0.21255
6905.84627,0.17737
6907.77474,0.02888
6909.70321,-0.05541
6911.63167,-0.03416
6913.56014,0.00745
6915.48861,0.03745
6917.41708,0.08248
6919.34555,0.12224
6921.27402,0.12005
6923.20249,0.09221
6925.13096,0.07729
6927.05942,0.12809
6928.98789,0.21299
6930.91636,0.20082
6932.84483,0.09365
6934.77330,0.04167
6936.70177,0.05457
6938.63024,0.04238
6940.55870,-0.02837
6942.48717,-0.07381
6944.41564,-0.06940
6946.34411,-0.03256
6948.27258,0.02892
6950.20105,0.01456
6952.12952,-0.09448
6954.05799,-0.16509
6955.98645,-0.13735
6957.91492,-0.08865
6959.84339,-0.04237
6961.77186,0.01069
6963.70033,0.02883
6965.62880,0.03768
6967.55727,0.09497
6969.48573,0.15067
6971.41420,0.15006
6973.34267,0.15007
6975.27114,0.16073
6977.19961,0.10960
6979.12808,0.05204
6981.05655,0.09037
6982.98501,0.19296
6984.91348,0.20550
6986.84195,0.12999
6988.77042,0.08597
6990.69889,0.03849
6992.62736,-0.04081
6994.55583,-0.09057
6996.48430,-0.07837
6998.41276,-0.02142
7000.34123,0.01934
7002.26970,0.04426
7004.19817,0.09126
7006.12664,0.15347
7008.05511,0.18304
7009.98358,0.16685
7011.91204,0.17497
7013.84051,0.22223
7015.76898,0.19578
7017.69745,0.08803
7019.62592,0.01594
7021.55439,0.03471
7023.48286,0.08065
7025.41133,0.07873
7027.33979,0.06048
7029.26826,0.04556
7031.19673,-0.02419
7033.12520,-0.13171
7035.05367,-0.18159
7036.98214,-0.10413
7038.91061,0.03381
7040.83907,0.12085
7042.76754,0.12455
7044.69601,0.12035
7046.62448,0.07653
7048.55295,-0.02315
7050.48142,-0.03334
7052.40989,0.05188
7054.33836,0.11703
7056.26682,0.09092
7058.19529,0.04447
7060.12376,0.10063
7062.05223,0.20593
7063.98070,0.26246
7065.90917,0.24116
7067.83764,0.17205
7069.76610,0.10906
7071.69457,0.04580
7073.62304,-0.05135
7075.55151,-0.09255
7077.47998,-0.06111
7079.40845,-0.01394
7081.33692,0.04139
7083.26539,0.09006
7085.19385,0.15881
7087.12232,0.25826
7089.05079,0.29463
7090.97926,0.24221
7092.90773,0.13639
7094.83620,0.05037
7096.76467,0.06145
7098.69313,0.09286
7100.62160,0.03422
7102.55007,-0.04406
7104.47854,-0.05932
7106.40701,-0.05297
7108.33548,-0.06598
7110.26395,-0.07645
7112.19242,-0.06768
7114.12088,-0.01576
7116.04935,0.08262
7117.97782,0.17089
7119.90629,0.18004
7121.83476,0.14885
7123.76323,0.12445
7125.69170,0.11371
7127.62016,0.13331
7129.54863,0.17778
7131.47710,0.19908
7133.40557,0.19055
7135.33404,0.20812
7137.26251,0.23899
7139.19098,0.21081
7141.11944,0.13499
7143.04791,0.12851
7144.97638,0.21496
7146.90485,0.21302
7148.83332,0.10444
7150.76179,0.05596
7152.69026,0.04798
7154.61873,0.03045
7156.54719,0.06700
7158.47566,0.08831
7160.40413,0.06858
7162.33260,0.09519
7164.26107,0.16022
7166.18954,0.21722
7168.11801,0.24181
7170.04647,0.21986
7171.97494,0.17215
7173.90341,0.11666
7175.83188,0.00093
7177.76035,-0.16937
7179.68882,-0.27369
7181.61729,-0.23796
7183.54576,-0.04801
7185.47422,0.11052
7187.40269,0.12564
7189.33116,0.09732
7191.25963,0.09327
7193.18810,0.10199
7195.11657,0.09886
7197.04504,0.07864
7198.97350,0.04344
7200.90197,0.03289
7202.83044,0.08944
7204.75891,0.18207
7206.68738,0.17308
7208.61585,0.07405
7210.54432,0.00052
7212.47279,0.00861
7214.40125,0.12258
7216.32972,0.29890
7218.25819,0.36290
7220.18666,0.28490
7222.11513,0.19962
7224.04360,0.16372
7225.97207,0.13153
7227.90053,0.05115
7229.82900,0.04145
7231.75747,0.11894
7233.68594,0.10431
7235.61441,0.01744
7237.54288,-0.03428
7239.47135,-0.01906
7241.39982,0.03978
7243.32828,0.05145
7245.25675,-0.06087
7247.18522,-0.13338
7249.11369,-0.05671
7251.04216,0.08806
7252.97063,0.15284
7254.89910,0.10613
7256.82756,0.06126
7258.75603,0.04107
7260.68450,-0.02476
7262.61297,-0.10682
7264.54144,-0.12836
7266.46991,-0.17106
7268.39838,-0.14566
7270.32685,0.06993
7272.25531,0.29340
7274.18378,0.29168
7276.11225,0.18745
7278.04072,0.08406
7279.96919,0.05168
7281.89766,0.09187
7283.82613,0.09855
7285.75459,0.11202
7287.68306,0.14809
7289.61153,0.14581
7291.54000,0.14481
7293.46847,0.17045
7295.39694,0.16216
7297.32541,0.19014
7299.25387,0.31975
7301.18234,0.43318
7303.11081,0.39729
7305.03928,0.26730
7306.96775,0.11800
7308.89622,-0.02884
7310.82469,-0.06010
7312.75316,-0.05165
7314.68162,-0.10131
7316.61009,-0.08714
7318.53856,0.01536
7320.46703,-0.02038
7322.39550,-0.23739
7324.32397,-0.39648
7326.25244,-0.40113
7328.18090,-0.35410
7330.10937,-0.22285
7332.03784,-0.00417
7333.96631,0.14969
7335.89478,0.12647
7337.82325,0.05388
7339.75172,0.20365
7341.68019,0.50460
7343.60865,0.51709
7345.53712,0.24621
7347.46559,-0.04176
7349.39406,-0.15080
7351.32253,-0.12633
7353.25100,-0.04787
7355.17947,-0.02116
7357.10793,-0.01513
7359.03640,0.08728
7360.96487,0.20118
7362.89334,0.26714
7364.82181,0.32583
7366.75028,0.33272
7368.67875,0.24316
7370.60722,0.10392
7372.53568,-0.02725
7374.46415,-0.11832
7376.39262,-0.03456
7378.32109,0.15680
7380.24956,0.27970
7382.17803,0.22821
7384.10650,0.04111
7386.03496,-0.07584
7387.96343,-0.00810
7389.89190,0.10308
7391.82037,0.15746
7393.74884,0.19731
7395.67731,0.21938
7397.60578,0.19157
7399.53425,0.12316
7401.46271,0.04589
7403.39118,0.01529
7405.31965,0.05648
7407.24812,0.11779
7409.17659,0.12109
7411.10506,0.04238
7413.03353,-0.02771
7414.96199,-0.05629
7416.89046,-0.07069
7418.81893,-0.03214
7420.74740,0.07042
7422.67587,0.14185
7424.60434,0.16472
7426.53281,0.16441
7428.46128,0.18957
7430.38974,0.24381
7432.31821,0.18602
7434.24668,-0.03534
7436.17515,-0.21947
7438.10362,-0.15941
7440.03209,-0.00411
7441.96056,0.03327
7443.88902,0.05754
7445.81749,0.19314
7447.74596,0.34555
7449.67443,0.39291
7451.60290,0.34894
7453.53137,0.23840
7455.45984,0.12189
7457.38831,0.08821
7459.31677,0.06453
7461.24524,-0.04444
7463.17371,-0.10569
7465.10218,-0.03558
7467.03065,0.10330
7468.95912,0.21522
7470.88759,0.22680
7472.81605,0.11088
7474.74452,0.01360
7476.67299,0.01852
7478.60146,0.08027
7480.52993,0.12596
7482.45840,0.16123
7484.38687,0.25198
7486.31533,0.33359
7488.24380,0.30211
7490.17227,0.18369
7492.10074,0.06570
7494.02921,0.05328
7495.95768,0.12163
7497.88615,0.17966
