399.19301,4.36260
401.12148,3.82733
403.04995,2.78030
404.97842,1.89309
406.90689,1.46713
408.83536,1.19467
410.76382,0.86680
412.69229,1.52614
414.62076,3.63860
416.54923,5.80474
418.47770,5.51889
420.40617,2.82021
422.33464,1.56971
424.26311,1.11290
426.19157,0.54920
428.12004,0.21954
430.04851,0.19635
431.97698,0.20690
433.90545,0.13572
435.83392,0.09745
437.76239,0.06178
439.69085,0.00059
441.61932,-0.00596
443.54779,0.12828
445.47626,0.27879
447.40473,0.28082
449.33320,0.14422
451.26167,0.01627
453.19013,-0.02966
455.11860,-0.05669
457.04707,-0.02983
458.97554,0.08915
460.90401,0.15088
462.83248,0.11637
464.76095,0.04639
466.68942,-0.00455
468.61788,0.01285
470.54635,0.13756
472.47482,0.41540
474.40329,0.52269
476.33176,0.22410
478.26023,0.04829
480.18870,0.03826
482.11716,0.07395
484.04563,0.10786
485.97410,0.07960
487.90257,0.01017
489.83104,0.01693
491.75951,0.10766
493.68798,0.16986
495.61645,0.17851
497.54491,0.16871
499.47338,0.13543
501.40185,0.09701
503.33032,0.10034
505.25879,0.12450
507.18726,0.11727
509.11573,0.09607
511.04419,0.08328
512.97266,0.07715
514.90113,0.08349
516.82960,0.10004
518.75807,0.12113
520.68654,0.11940
522.61501,0.08222
524.54348,0.06578
526.47194,0.13061
528.40041,0.22833
530.32888,0.27045
532.25735,0.23127
534.18582,0.16692
536.11429,0.11462
538.04276,0.08873
539.97122,0.10982
541.89969,0.11917
543.82816,0.07583
545.75663,0.04137
547.68510,0.05996
549.61357,0.10414
551.54204,0.15716
553.47051,0.18837
555.39897,0.15319
557.32744,0.12113
559.25591,0.12647
561.18438,0.10245
563.11285,0.06836
565.04132,0.07351
566.96979,0.10031
568.89825,0.12519
570.82672,0.14988
572.75519,0.16156
574.68366,0.15500
576.61213,0.14838
578.54060,0.14802
580.46907,0.14678
582.39754,0.13357
584.32600,0.11216
586.25447,0.09700
588.18294,0.09133
590.11141,0.09984
592.03988,0.13336
593.96835,0.17495
595.89682,0.18825
597.82528,0.16869
599.75375,0.13922
601.68222,0.11761
603.61069,0.11952
605.53916,0.13798
607.46763,0.13635
609.39610,0.11441
611.32456,0.10043
613.25303,0.09466
615.18150,0.08270
617.10997,0.07651
619.03844,0.09101
620.96691,0.10569
622.89538,0.10586
624.82385,0.10407
626.75231,0.11505
628.68078,0.13113
630.60925,0.12902
632.53772,0.11748
634.46619,0.11435
636.39466,0.10967
638.32313,0.10246
640.25159,0.10839
642.18006,0.12359
644.10853,0.13192
646.03700,0.13117
647.96547,0.12467
649.89394,0.12505
651.82241,0.13300
653.75088,0.12732
655.67934,0.11185
657.60781,0.11211
659.53628,0.12526
661.46475,0.13191
663.39322,0.13932
665.32169,0.15183
667.25016,0.16228
669.17862,0.16982
671.10709,0.17334
673.03556,0.17296
674.96403,0.16248
676.89250,0.14401
678.82097,0.13084
680.74944,0.12876
682.67791,0.13420
684.60637,0.14082
686.53484,0.14510
688.46331,0.13888
690.39178,0.12615
692.32025,0.12771
694.24872,0.14488
696.17719,0.15724
698.10565,0.15351
700.03412,0.14398
701.96259,0.14020
703.89106,0.14108
705.81953,0.14649
707.74800,0.16232
709.67647,0.18572
711.60494,0.20520
713.53340,0.20805
715.46187,0.19159
717.39034,0.17145
719.31881,0.16287
721.24728,0.16880
723.17575,0.17383
725.10422,0.16309
727.03268,0.14901
728.96115,0.14584
730.88962,0.14620
732.81809,0.14216
734.74656,0.14072
736.67503,0.15096
738.60350,0.17073
740.53197,0.18391
742.46043,0.18150
744.38890,0.17143
746.31737,0.15805
748.24584,0.14803
750.17431,0.14524
752.10278,0.14137
754.03125,0.13924
755.95971,0.14325
757.88818,0.14584
759.81665,0.14720
761.74512,0.14810
763.67359,0.14489
765.60206,0.14556
767.53053,0.15462
769.45900,0.16208
771.38746,0.15924
773.31593,0.15393
775.24440,0.15566
777.17287,0.15538
779.10134,0.14960
781.02981,0.14838
782.95828,0.15193
784.88674,0.14904
786.81521,0.12691
788.74368,0.07930
790.67215,0.04534
792.60062,0.07661
794.52909,0.13523
796.45756,0.15627
798.38602,0.15461
800.31449,0.15842
802.24296,0.16812
804.17143,0.17381
806.09990,0.16751
808.02837,0.15389
809.95684,0.14265
811.88531,0.13868
813.81377,0.14327
815.74224,0.15303
817.67071,0.15339
819.59918,0.13764
821.52765,0.12401
823.45612,0.12599
825.38459,0.14027
827.31305,0.15541
829.24152,0.15960
831.16999,0.15720
833.09846,0.15173
835.02693,0.13995
836.95540,0.13077
838.88387,0.13382
840.81234,0.14482
842.74080,0.15602
844.66927,0.16446
846.59774,0.16646
848.52621,0.16200
850.45468,0.16084
852.38315,0.16378
854.31162,0.15647
856.24008,0.14392
858.16855,0.14837
860.09702,0.16274
862.02549,0.16186
863.95396,0.15030
865.88243,0.15762
867.81090,0.18958
869.73937,0.20976
871.66783,0.19259
873.59630,0.16323
875.52477,0.14960
877.45324,0.14595
879.38171,0.14045
881.31018,0.13184
883.23865,0.12584
885.16711,0.13202
887.09558,0.14583
889.02405,0.15133
890.95252,0.14978
892.88099,0.15073
894.80946,0.15148
896.73793,0.15056
898.66640,0.15413
900.59486,0.16190
902.52333,0.16762
904.45180,0.16716
906.38027,0.15998
908.30874,0.15129
910.23721,0.14803
912.16568,0.15245
914.09414,0.16351
916.02261,0.17246
917.95108,0.16905
919.87955,0.16067
921.80802,0.15700
923.73649,0.15451
925.66496,0.15267
927.59343,0.15216
929.52189,0.15031
931.45036,0.15227
933.37883,0.15975
935.30730,0.16073
937.23577,0.15404
939.16424,0.15339
941.09271,0.15988
943.02117,0.15867
944.94964,0.14901
946.87811,0.15297
948.80658,0.16777
950.73505,0.17064
952.66352,0.16770
954.59199,0.16813
956.52045,0.16343
958.44892,0.15680
960.37739,0.15986
962.30586,0.16859
964.23433,0.16777
966.16280,0.15437
968.09127,0.14413
970.01974,0.14653
971.94820,0.15382
973.87667,0.15893
975.80514,0.16496
977.73361,0.17150
979.66208,0.16934
981.59055,0.16001
983.51902,0.15478
985.44748,0.15734
987.37595,0.16356
989.30442,0.16873
991.23289,0.17175
993.16136,0.17126
995.08983,0.16732
997.01830,0.16315
998.94677,0.16012
1000.87523,0.15953
1002.80370,0.16528
1004.73217,0.17144
1006.66064,0.16694
1008.58911,0.15745
1010.51758,0.15289
1012.44605,0.15434
1014.37451,0.16203
1016.30298,0.17126
1018.23145,0.17364
1020.15992,0.16980
1022.08839,0.16360
1024.01686,0.15859
1025.94533,0.16079
1027.87380,0.16781
1029.80226,0.17204
1031.73073,0.17384
1033.65920,0.17789
1035.58767,0.18260
1037.51614,0.18318
1039.44461,0.17819
1041.37308,0.17349
1043.30154,0.17646
1045.23001,0.18215
1047.15848,0.18295
1049.08695,0.17754
1051.01542,0.17252
1052.94389,0.17604
1054.87236,0.17938
1056.80083,0.17208
1058.72929,0.16529
1060.65776,0.17200
1062.58623,0.18298
1064.51470,0.18508
1066.44317,0.17665
1068.37164,0.16493
1070.30011,0.16400
1072.22857,0.17653
1074.15704,0.18650
1076.08551,0.18340
1078.01398,0.17782
1079.94245,0.17614
1081.87092,0.17060
1083.79939,0.16497
1085.72786,0.16884
1087.65632,0.17846
1089.58479,0.18162
1091.51326,0.17533
1093.44173,0.16942
1095.37020,0.16890
1097.29867,0.16980
1099.22714,0.17105
1101.15560,0.17484
1103.08407,0.17621
1105.01254,0.17254
1106.94101,0.17145
1108.86948,0.17438
1110.79795,0.17721
1112.72642,0.17745
1114.65489,0.17201
1116.58335,0.16594
1118.51182,0.17074
1120.44029,0.18273
1122.36876,0.18441
1124.29723,0.17480
1126.22570,0.17051
1128.15417,0.17555
1130.08263,0.17948
1132.01110,0.17782
1133.93957,0.17175
1135.86804,0.16481
1137.79651,0.16321
1139.72498,0.16664
1141.65345,0.16978
1143.58191,0.17093
1145.51038,0.17397
1147.43885,0.18082
1149.36732,0.18384
1151.29579,0.17781
1153.22426,0.17261
1155.15273,0.17815
1157.08120,0.18498
1159.00966,0.18470
1160.93813,0.18442
1162.86660,0.18510
1164.79507,0.18344
1166.72354,0.18021
1168.65201,0.17621
1170.58048,0.17593
1172.50894,0.18374
1174.43741,0.19116
1176.36588,0.18526
1178.29435,0.17523
1180.22282,0.17763
1182.15129,0.18535
1184.07976,0.18536
1186.00823,0.18068
1187.93669,0.17682
1189.86516,0.17384
1191.79363,0.17288
1193.72210,0.17461
1195.65057,0.17660
1197.57904,0.17753
1199.50751,0.17954
1201.43597,0.18272
1203.36444,0.18336
1205.29291,0.18078
1207.22138,0.17805
1209.14985,0.17674
1211.07832,0.17662
1213.00679,0.17915
1214.93526,0.18333
1216.86372,0.18550
1218.79219,0.18555
1220.72066,0.18550
1222.64913,0.18648
1224.57760,0.18678
1226.50607,0.18548
1228.43454,0.18512
1230.36300,0.18489
1232.29147,0.18287
1234.21994,0.18175
1236.14841,0.18229
1238.07688,0.18112
1240.00535,0.17871
1241.93382,0.17705
1243.86229,0.17483
1245.79075,0.17153
1247.71922,0.16884
1249.64769,0.16951
1251.57616,0.17328
1253.50463,0.17737
1255.43310,0.18210
1257.36157,0.18801
1259.29003,0.19097
1261.21850,0.18845
1263.14697,0.18578
1265.07544,0.18574
1267.00391,0.18708
1268.93238,0.18998
1270.86085,0.19120
1272.78932,0.18845
1274.71778,0.18412
1276.64625,0.18154
1278.57472,0.18305
1280.50319,0.18608
1282.43166,0.18622
1284.36013,0.18558
1286.28860,0.18759
1288.21706,0.19054
1290.14553,0.19295
1292.07400,0.19408
1294.00247,0.19272
1295.93094,0.18938
1297.85941,0.18670
1299.78788,0.18548
1301.71634,0.18183
1303.64481,0.17784
1305.57328,0.18060
1307.50175,0.18615
1309.43022,0.18833
1311.35869,0.19027
1313.28716,0.19108
1315.21563,0.18609
1317.14409,0.18042
1319.07256,0.17996
1321.00103,0.18294
1322.92950,0.18674
1324.85797,0.18867
1326.78644,0.18830
1328.71491,0.18655
1330.64337,0.18285
1332.57184,0.18258
1334.50031,0.18783
1336.42878,0.19353
1338.35725,0.19735
1340.28572,0.19560
1342.21419,0.19465
1344.14266,0.19913
1346.07112,0.19641
1347.99959,0.18796
1349.92806,0.18712
1351.85653,0.19144
1353.78500,0.19412
1355.71347,0.19280
1357.64194,0.18787
1359.57040,0.18458
1361.49887,0.18899
1363.42734,0.19664
1365.35581,0.19786
1367.28428,0.19603
1369.21275,0.19363
1371.14122,0.19247
1373.06969,0.19486
1374.99815,0.19405
1376.92662,0.18813
1378.85509,0.18499
1380.78356,0.18751
1382.71203,0.19081
1384.64050,0.19234
1386.56897,0.19756
1388.49743,0.20322
1390.42590,0.20186
1392.35437,0.20223
1394.28284,0.20948
1396.21131,0.21197
1398.13978,0.20479
1400.06825,0.19911
1401.99672,0.20095
1403.92518,0.20432
1405.85365,0.20207
1407.78212,0.19867
1409.71059,0.19885
1411.63906,0.19850
1413.56753,0.19752
1415.49600,0.20174
1417.42446,0.21070
1419.35293,0.21137
1421.28140,0.20421
1423.20987,0.20039
1425.13834,0.19677
1427.06681,0.19519
1428.99528,0.19920
1430.92375,0.20383
1432.85221,0.20446
1434.78068,0.20291
1436.70915,0.20000
1438.63762,0.19708
1440.56609,0.19643
1442.49456,0.19615
1444.42303,0.19588
1446.35149,0.19725
1448.27996,0.19994
1450.20843,0.20522
1452.13690,0.21248
1454.06537,0.21860
1455.99384,0.22403
1457.92231,0.22343
1459.85077,0.21436
1461.77924,0.20966
1463.70771,0.21091
1465.63618,0.21000
1467.56465,0.20399
1469.49312,0.20281
1471.42159,0.21159
1473.35006,0.22149
1475.27852,0.21824
1477.20699,0.20868
1479.13546,0.20212
1481.06393,0.20182
1482.99240,0.20450
1484.92087,0.20780
1486.84934,0.21248
1488.77780,0.21589
1490.70627,0.21481
1492.63474,0.21428
1494.56321,0.21909
1496.49168,0.22597
1498.42015,0.22600
1500.34862,0.22529
1502.27709,0.23205
1504.20555,0.24590
1506.13402,0.26301
1508.06249,0.25435
1509.99096,0.23107
1511.91943,0.21734
1513.84790,0.21601
1515.77637,0.22569
1517.70483,0.23346
1519.63330,0.23737
1521.56177,0.24569
1523.49024,0.24661
1525.41871,0.24047
1527.34718,0.23101
1529.27565,0.22152
1531.20412,0.22174
1533.13258,0.22966
1535.06105,0.23238
1536.98952,0.23591
1538.91799,0.24926
1540.84646,0.25673
1542.77493,0.24668
1544.70340,0.23312
1546.63186,0.22148
1548.56033,0.21877
1550.48880,0.22028
1552.41727,0.21943
1554.34574,0.22194
1556.27421,0.23581
1558.20268,0.25627
1560.13115,0.23984
1562.05961,0.21671
1563.98808,0.20917
1565.91655,0.21015
1567.84502,0.21701
1569.77349,0.21973
1571.70196,0.21284
1573.63043,0.20964
1575.55889,0.21010
1577.48736,0.20408
1579.41583,0.19772
1581.34430,0.19647
1583.27277,0.19730
1585.20124,0.19644
1587.12971,0.19296
1589.05818,0.18997
1590.98664,0.19071
1592.91511,0.19424
1594.84358,0.19554
1596.77205,0.19361
1598.70052,0.19363
1600.62899,0.19625
1602.55746,0.19757
1604.48592,0.19731
1606.41439,0.19855
1608.34286,0.20092
1610.27133,0.20187
1612.19980,0.20332
1614.12827,0.20840
1616.05674,0.21585
1617.98521,0.21586
1619.91367,0.21176
1621.84214,0.21398
1623.77061,0.21844
1625.69908,0.21870
1627.62755,0.21857
1629.55602,0.21610
1631.48449,0.21234
1633.41295,0.21743
1635.34142,0.23586
1637.26989,0.23784
1639.19836,0.22197
1641.12683,0.21466
1643.05530,0.22028
1644.98377,0.23514
1646.91223,0.24663
1648.84070,0.24458
1650.76917,0.25077
1652.69764,0.26656
1654.62611,0.25100
1656.55458,0.23225
1658.48305,0.22026
1660.41152,0.20811
1662.33998,0.21474
1664.26845,0.22947
1666.19692,0.23118
1668.12539,0.23810
1670.05386,0.24272
1671.98233,0.23034
1673.91080,0.22069
1675.83926,0.21870
1677.76773,0.22254
1679.69620,0.22998
1681.62467,0.24094
1683.55314,0.24998
1685.48161,0.23846
1687.41008,0.22744
1689.33855,0.22604
1691.26701,0.22310
1693.19548,0.22103
1695.12395,0.22736
1697.05242,0.23856
1698.98089,0.24447
1700.90936,0.23988
1702.83783,0.23283
1704.76629,0.22820
1706.69476,0.22117
1708.62323,0.21507
1710.55170,0.21375
1712.48017,0.21639
1714.40864,0.22556
1716.33711,0.23888
1718.26558,0.23266
1720.19404,0.21583
1722.12251,0.20817
1724.05098,0.20561
1725.97945,0.20625
1727.90792,0.21165
1729.83639,0.21666
1731.76486,0.21810
1733.69332,0.22006
1735.62179,0.21869
1737.55026,0.21737
1739.47873,0.22048
1741.40720,0.22396
1743.33567,0.22445
1745.26414,0.22328
1747.19261,0.22515
1749.12107,0.23106
1751.04954,0.22851
1752.97801,0.21694
1754.90648,0.21074
1756.83495,0.21056
1758.76342,0.21112
1760.69189,0.21316
1762.62035,0.21342
1764.54882,0.20932
1766.47729,0.20853
1768.40576,0.21609
1770.33423,0.22991
1772.26270,0.23777
1774.19117,0.22854
1776.11964,0.21458
1778.04810,0.20668
1779.97657,0.20816
1781.90504,0.21175
1783.83351,0.20866
1785.76198,0.20395
1787.69045,0.20585
1789.61892,0.21622
1791.54738,0.22866
1793.47585,0.22770
1795.40432,0.21865
1797.33279,0.21575
1799.26126,0.21791
1801.18973,0.21716
1803.11820,0.21098
1805.04666,0.20570
1806.97513,0.20608
1808.90360,0.21069
1810.83207,0.21430
1812.76054,0.21151
1814.68901,0.20321
1816.61748,0.20069
1818.54595,0.20737
1820.47441,0.20886
1822.40288,0.20657
1824.33135,0.21019
1826.25982,0.21290
1828.18829,0.21440
1830.11676,0.21650
1832.04523,0.21349
1833.97369,0.20900
1835.90216,0.20689
1837.83063,0.20728
1839.75910,0.20939
1841.68757,0.21396
1843.61604,0.21945
1845.54451,0.21937
1847.47298,0.21647
1849.40144,0.21477
1851.32991,0.21193
1853.25838,0.20875
1855.18685,0.20775
1857.11532,0.20857
1859.04379,0.20979
1860.97226,0.21021
1862.90072,0.20976
1864.82919,0.21020
1866.75766,0.21394
1868.68613,0.21922
1870.61460,0.21965
1872.54307,0.21536
1874.47154,0.21077
1876.40001,0.20839
1878.32847,0.20764
1880.25694,0.20740
1882.18541,0.20869
1884.11388,0.21012
1886.04235,0.20928
1887.97082,0.20966
1889.89929,0.21123
1891.82775,0.20849
1893.75622,0.20545
1895.68469,0.20624
1897.61316,0.20691
1899.54163,0.20691
1901.47010,0.20960
1903.39857,0.21352
1905.32704,0.21588
1907.25550,0.21668
1909.18397,0.21580
1911.11244,0.21340
1913.04091,0.21143
1914.96938,0.21177
1916.89785,0.21348
1918.82632,0.21302
1920.75478,0.21034
1922.68325,0.20740
1924.61172,0.20503
1926.54019,0.20482
1928.46866,0.20666
1930.39713,0.20918
1932.32560,0.21028
1934.25407,0.20732
1936.18253,0.20346
1938.11100,0.20390
1940.03947,0.20790
1941.96794,0.21147
1943.89641,0.21070
1945.82488,0.20750
1947.75335,0.20645
1949.68181,0.20716
1951.61028,0.20618
1953.53875,0.20327
1955.46722,0.20172
1957.39569,0.20265
1959.32416,0.20451
1961.25263,0.20610
1963.18110,0.20909
1965.10956,0.21385
1967.03803,0.21485
1968.96650,0.20995
1970.89497,0.20649
1972.82344,0.20712
1974.75191,0.20392
1976.68038,0.19606
1978.60884,0.19362
1980.53731,0.19905
1982.46578,0.20455
1984.39425,0.20692
1986.32272,0.20828
1988.25119,0.20868
1990.17966,0.21027
1992.10812,0.21254
1994.03659,0.21185
1995.96506,0.20955
1997.89353,0.20736
1999.82200,0.20735
2001.75047,0.20948
2003.67894,0.21130
2005.60741,0.21284
2007.53587,0.21326
2009.46434,0.21085
2011.39281,0.20799
2013.32128,0.20812
2015.24975,0.21006
2017.17822,0.21049
2019.10669,0.20789
2021.03515,0.20530
2022.96362,0.20572
2024.89209,0.20609
2026.82056,0.20403
2028.74903,0.20305
2030.67750,0.20507
2032.60597,0.20630
2034.53444,0.20495
2036.46290,0.20384
2038.39137,0.20419
2040.31984,0.20527
2042.24831,0.20698
2044.17678,0.20844
2046.10525,0.20760
2048.03372,0.20553
2049.96218,0.20550
2051.89065,0.20649
2053.81912,0.20616
2055.74759,0.20630
2057.67606,0.20822
2059.60453,0.20934
2061.53300,0.20866
2063.46147,0.20781
2065.38993,0.20817
2067.31840,0.21125
2069.24687,0.21439
2071.17534,0.21284
2073.10381,0.20970
2075.03228,0.20936
2076.96075,0.20992
2078.88921,0.20994
2080.81768,0.20955
2082.74615,0.20889
2084.67462,0.20936
2086.60309,0.21112
2088.53156,0.21262
2090.46003,0.21243
2092.38850,0.20985
2094.31696,0.20645
2096.24543,0.20546
2098.17390,0.20708
2100.10237,0.20862
2102.03084,0.21023
2103.95931,0.21263
2105.88778,0.21383
2107.81624,0.21264
2109.74471,0.21084
2111.67318,0.21115
2113.60165,0.21340
2115.53012,0.21553
2117.45859,0.21647
2119.38706,0.21554
2121.31553,0.21235
2123.24399,0.20997
2125.17246,0.21062
2127.10093,0.21076
2129.02940,0.20945
2130.95787,0.21019
2132.88634,0.21402
2134.81481,0.21702
2136.74327,0.21551
2138.67174,0.21100
2140.60021,0.20689
2142.52868,0.20533
2144.45715,0.20728
2146.38562,0.21109
2148.31409,0.21205
2150.24255,0.20966
2152.17102,0.20849
2154.09949,0.20877
2156.02796,0.20847
2157.95643,0.20888
2159.88490,0.20998
2161.81337,0.20968
2163.74184,0.20985
2165.67030,0.21259
2167.59877,0.21417
2169.52724,0.21113
2171.45571,0.20694
2173.38418,0.20654
2175.31265,0.20845
2177.24112,0.21001
2179.16958,0.21207
2181.09805,0.21368
2183.02652,0.21257
2184.95499,0.20981
2186.88346,0.20816
2188.81193,0.20794
2190.74040,0.20741
2192.66887,0.20644
2194.59733,0.20709
2196.52580,0.20962
2198.45427,0.21180
2200.38274,0.21300
2202.31121,0.21383
2204.23968,0.21266
2206.16815,0.20918
2208.09661,0.20768
2210.02508,0.20865
2211.95355,0.20737
2213.88202,0.20360
2215.81049,0.20218
2217.73896,0.20454
2219.66743,0.20667
2221.59590,0.20717
2223.52436,0.20781
2225.45283,0.20754
2227.38130,0.20651
2229.30977,0.20872
2231.23824,0.21283
2233.16671,0.21288
2235.09518,0.21008
2237.02364,0.20898
2238.95211,0.20943
2240.88058,0.20999
2242.80905,0.21071
2244.73752,0.21232
2246.66599,0.21340
2248.59446,0.21109
2250.52293,0.20654
2252.45139,0.20399
2254.37986,0.20535
2256.30833,0.20837
2258.23680,0.20982
2260.16527,0.20976
2262.09374,0.20959
2264.02221,0.20872
2265.95067,0.20607
2267.87914,0.20324
2269.80761,0.20255
2271.73608,0.20286
2273.66455,0.20339
2275.59302,0.20535
2277.52149,0.20751
2279.44996,0.20802
2281.37842,0.20808
2283.30689,0.20954
2285.23536,0.21110
2287.16383,0.21037
2289.09230,0.20822
2291.02077,0.20687
2292.94924,0.20517
2294.87770,0.20226
2296.80617,0.20081
2298.73464,0.20100
2300.66311,0.20051
2302.59158,0.20020
2304.52005,0.20274
2306.44852,0.20490
2308.37699,0.19984
2310.30545,0.19228
2312.23392,0.19075
2314.16239,0.19077
2316.09086,0.18967
2318.01933,0.19117
2319.94780,0.19298
2321.87627,0.19495
2323.80473,0.20013
2325.73320,0.20211
2327.66167,0.19784
2329.59014,0.19299
2331.51861,0.18717
2333.44708,0.18734
2335.37555,0.20396
2337.30401,0.21832
2339.23248,0.21108
2341.16095,0.19850
2343.08942,0.19978
2345.01789,0.20501
2346.94636,0.20263
2348.87483,0.19627
2350.80330,0.18568
2352.73176,0.17102
2354.66023,0.16159
2356.58870,0.16265
2358.51717,0.16356
2360.44564,0.16307
2362.37411,0.16923
2364.30258,0.16826
2366.23104,0.15933
2368.15951,0.15349
2370.08798,0.15956
2372.01645,0.17920
2373.94492,0.19345
2375.87339,0.19690
2377.80186,0.20104
2379.73033,0.20650
2381.65879,0.20808
2383.58726,0.20721
2385.51573,0.20735
2387.44420,0.20870
2389.37267,0.20971
2391.30114,0.21021
2393.22961,0.21087
2395.15807,0.21184
2397.08654,0.21210
2399.01501,0.21028
2400.94348,0.20919
2402.87195,0.21026
2404.80042,0.20927
2406.72889,0.20746
2408.65736,0.20923
2410.58582,0.21145
2412.51429,0.21158
2414.44276,0.21154
2416.37123,0.20907
2418.29970,0.20563
2420.22817,0.20787
2422.15664,0.21228
2424.08510,0.21154
2426.01357,0.20866
2427.94204,0.20840
2429.87051,0.20864
2431.79898,0.20902
2433.72745,0.21035
2435.65592,0.21064
2437.58439,0.21047
2439.51285,0.21028
2441.44132,0.20864
2443.36979,0.20659
2445.29826,0.20697
2447.22673,0.20868
2449.15520,0.20734
2451.08367,0.20284
2453.01213,0.20076
2454.94060,0.20462
2456.86907,0.20925
2458.79754,0.21072
2460.72601,0.21113
2462.65448,0.21124
2464.58295,0.21137
2466.51142,0.21169
2468.43988,0.21130
2470.36835,0.21012
2472.29682,0.20932
2474.22529,0.21087
2476.15376,0.21368
2478.08223,0.21539
2480.01070,0.21659
2481.93916,0.21526
2483.86763,0.21103
2485.79610,0.21016
2487.72457,0.21253
2489.65304,0.21266
2491.58151,0.21251
2493.50998,0.21488
2495.43844,0.21654
2497.36691,0.21429
2499.29538,0.20983
2501.22385,0.20799
2503.15232,0.20892
2505.08079,0.20944
2507.00926,0.21010
2508.93773,0.21170
2510.86619,0.21252
2512.79466,0.21223
2514.72313,0.21212
2516.65160,0.21153
2518.58007,0.20997
2520.50854,0.20805
2522.43701,0.20752
2524.36547,0.20952
2526.29394,0.21087
2528.22241,0.21147
2530.15088,0.21430
2532.07935,0.21747
2534.00782,0.21695
2535.93629,0.21465
2537.86476,0.21458
2539.79322,0.21421
2541.72169,0.21201
2543.65016,0.21135
2545.57863,0.21324
2547.50710,0.21490
2549.43557,0.21491
2551.36404,0.21474
2553.29250,0.21483
2555.22097,0.21475
2557.14944,0.21488
2559.07791,0.21506
2561.00638,0.21287
2562.93485,0.20880
2564.86332,0.20841
2566.79179,0.21356
2568.72025,0.21860
2570.64872,0.21864
2572.57719,0.21656
2574.50566,0.21520
2576.43413,0.21431
2578.36260,0.21405
2580.29107,0.21147
2582.21953,0.20587
2584.14800,0.20251
2586.07647,0.20382
2588.00494,0.20628
2589.93341,0.20787
2591.86188,0.21058
2593.79035,0.21425
2595.71882,0.21716
2597.64728,0.21764
2599.57575,0.21428
2601.50422,0.21198
2603.43269,0.21454
2605.36116,0.21837
2607.28963,0.22275
2609.21810,0.22736
2611.14656,0.22715
2613.07503,0.22072
2615.00350,0.21417
2616.93197,0.21274
2618.86044,0.21439
2620.78891,0.21557
2622.71738,0.21550
2624.64585,0.21632
2626.57431,0.21870
2628.50278,0.21957
2630.43125,0.21848
2632.35972,0.21707
2634.28819,0.21678
2636.21666,0.21650
2638.14513,0.21291
2640.07359,0.20790
2642.00206,0.20548
2643.93053,0.20597
2645.85900,0.20972
2647.78747,0.21526
2649.71594,0.21851
2651.64441,0.22002
2653.57288,0.22072
2655.50134,0.21975
2657.42981,0.22071
2659.35828,0.22377
2661.28675,0.22345
2663.21522,0.21890
2665.14369,0.21376
2667.07216,0.21225
2669.00062,0.21583
2670.92909,0.21988
2672.85756,0.21986
2674.78603,0.21690
2676.71450,0.21476
2678.64297,0.21527
2680.57144,0.21776
2682.49990,0.22057
2684.42837,0.22209
2686.35684,0.22273
2688.28531,0.22295
2690.21378,0.22162
2692.14225,0.21943
2694.07072,0.21854
2695.99919,0.22001
2697.92765,0.22269
2699.85612,0.22401
2701.78459,0.22262
2703.71306,0.22068
2705.64153,0.22048
2707.57000,0.22185
2709.49847,0.22365
2711.42693,0.22340
2713.35540,0.22047
2715.28387,0.21896
2717.21234,0.22123
2719.14081,0.22235
2721.06928,0.22021
2722.99775,0.22005
2724.92622,0.22201
2726.85468,0.22244
2728.78315,0.22242
2730.71162,0.22239
2732.64009,0.22163
2734.56856,0.22232
2736.49703,0.22404
2738.42550,0.22460
2740.35396,0.22356
2742.28243,0.22166
2744.21090,0.22112
2746.13937,0.22101
2748.06784,0.22043
2749.99631,0.22129
2751.92478,0.22213
2753.85325,0.22183
2755.78171,0.22371
2757.71018,0.22673
2759.63865,0.22678
2761.56712,0.22658
2763.49559,0.22665
2765.42406,0.22288
2767.35253,0.21852
2769.28099,0.21924
2771.20946,0.22309
2773.13793,0.22431
2775.06640,0.22372
2776.99487,0.22563
2778.92334,0.22884
2780.85181,0.23100
2782.78028,0.23151
2784.70874,0.22935
2786.63721,0.22704
2788.56568,0.22686
2790.49415,0.22671
2792.42262,0.22658
2794.35109,0.22768
2796.27956,0.22997
2798.20802,0.23278
2800.13649,0.23386
2802.06496,0.23185
2803.99343,0.22942
2805.92190,0.23049
2807.85037,0.23149
2809.77884,0.22787
2811.70731,0.22482
2813.63577,0.22423
2815.56424,0.22369
2817.49271,0.22746
2819.42118,0.23239
2821.34965,0.23012
2823.27812,0.22538
2825.20659,0.22555
2827.13505,0.22856
2829.06352,0.22984
2830.99199,0.22985
2832.92046,0.23023
2834.84893,0.23103
2836.77740,0.23290
2838.70587,0.23473
2840.63433,0.23299
2842.56280,0.23001
2844.49127,0.23295
2846.41974,0.23737
2848.34821,0.23469
2850.27668,0.22975
2852.20515,0.23058
2854.13362,0.23448
2856.06208,0.23455
2857.99055,0.23076
2859.91902,0.22707
2861.84749,0.22682
2863.77596,0.22919
2865.70443,0.22898
2867.63290,0.22566
2869.56136,0.22570
2871.48983,0.23162
2873.41830,0.23665
2875.34677,0.23647
2877.27524,0.23233
2879.20371,0.22637
2881.13218,0.22376
2883.06065,0.22463
2884.98911,0.22506
2886.91758,0.22688
2888.84605,0.22964
2890.77452,0.23087
2892.70299,0.23159
2894.63146,0.23036
2896.55993,0.22738
2898.48839,0.22656
2900.41686,0.22975
2902.34533,0.23425
2904.27380,0.23461
2906.20227,0.23204
2908.13074,0.23050
2910.05921,0.22795
2911.98768,0.22620
2913.91614,0.22763
2915.84461,0.22783
2917.77308,0.22642
2919.70155,0.22606
2921.63002,0.22649
2923.55849,0.22533
2925.48696,0.22047
2927.41542,0.21741
2929.34389,0.22187
2931.27236,0.22764
2933.20083,0.22802
2935.12930,0.22545
2937.05777,0.22293
2938.98624,0.22337
2940.91471,0.22726
2942.84317,0.23080
2944.77164,0.23206
2946.70011,0.23103
2948.62858,0.23033
2950.55705,0.23157
2952.48552,0.23303
2954.41399,0.23188
2956.34245,0.22687
2958.27092,0.22240
2960.19939,0.22405
2962.12786,0.23085
2964.05633,0.23547
2965.98480,0.23492
2967.91327,0.23151
2969.84174,0.22980
2971.77020,0.23404
2973.69867,0.23938
2975.62714,0.23786
2977.55561,0.23123
2979.48408,0.22853
2981.41255,0.23104
2983.34102,0.23252
2985.26948,0.23060
2987.19795,0.22761
2989.12642,0.22793
2991.05489,0.23290
2992.98336,0.23673
2994.91183,0.23735
2996.84030,0.23991
2998.76877,0.24077
3000.69723,0.23492
3002.62570,0.22903
3004.55417,0.22899
3006.48264,0.23234
3008.41111,0.23452
3010.33958,0.23297
3012.26805,0.22386
3014.19651,0.20883
3016.12498,0.20146
3018.05345,0.20961
3019.98192,0.22378
3021.91039,0.23599
3023.83886,0.24532
3025.76733,0.24703
3027.69579,0.24238
3029.62426,0.23872
3031.55273,0.23803
3033.48120,0.23845
3035.40967,0.23689
3037.33814,0.23271
3039.26661,0.22876
3041.19508,0.22702
3043.12354,0.22773
3045.05201,0.22952
3046.98048,0.23054
3048.90895,0.23225
3050.83742,0.23591
3052.76589,0.23917
3054.69436,0.23819
3056.62282,0.23193
3058.55129,0.22825
3060.47976,0.23162
3062.40823,0.23593
3064.33670,0.23794
3066.26517,0.23752
3068.19364,0.23670
3070.12211,0.23690
3072.05057,0.23441
3073.97904,0.23164
3075.90751,0.23253
3077.83598,0.23429
3079.76445,0.23382
3081.69292,0.22951
3083.62139,0.22383
3085.54985,0.22360
3087.47832,0.23001
3089.40679,0.23498
3091.33526,0.23601
3093.26373,0.23745
3095.19220,0.23703
3097.12067,0.23286
3099.04914,0.23194
3100.97760,0.23654
3102.90607,0.23817
3104.83454,0.23619
3106.76301,0.23701
3108.69148,0.24018
3110.61995,0.24198
3112.54842,0.23982
3114.47688,0.23659
3116.40535,0.23599
3118.33382,0.23635
3120.26229,0.23635
3122.19076,0.23715
3124.11923,0.23939
3126.04770,0.23932
3127.97617,0.23520
3129.90463,0.23299
3131.83310,0.23559
3133.76157,0.23987
3135.69004,0.24316
3137.61851,0.24333
3139.54698,0.23931
3141.47545,0.23339
3143.40391,0.22906
3145.33238,0.22838
3147.26085,0.23244
3149.18932,0.23615
3151.11779,0.23397
3153.04626,0.23306
3154.97473,0.23713
3156.90320,0.23865
3158.83166,0.23878
3160.76013,0.24505
3162.68860,0.25433
3164.61707,0.25934
3166.54554,0.26108
3168.47401,0.26169
3170.40248,0.25750
3172.33094,0.24861
3174.25941,0.24402
3176.18788,0.24676
3178.11635,0.24764
3180.04482,0.24279
3181.97329,0.23954
3183.90176,0.24174
3185.83022,0.24556
3187.75869,0.24567
3189.68716,0.24266
3191.61563,0.24195
3193.54410,0.24203
3195.47257,0.24274
3197.40104,0.24852
3199.32951,0.25135
3201.25797,0.24483
3203.18644,0.23665
3205.11491,0.23307
3207.04338,0.23308
3208.97185,0.23377
3210.90032,0.23574
3212.82879,0.23894
3214.75725,0.24040
3216.68572,0.24152
3218.61419,0.24191
3220.54266,0.23894
3222.47113,0.23622
3224.39960,0.23479
3226.32807,0.23281
3228.25654,0.23299
3230.18500,0.23669
3232.11347,0.24009
3234.04194,0.23922
3235.97041,0.23587
3237.89888,0.23555
3239.82735,0.23937
3241.75582,0.24221
3243.68428,0.24099
3245.61275,0.23876
3247.54122,0.23868
3249.46969,0.24083
3251.39816,0.24158
3253.32663,0.23860
3255.25510,0.23713
3257.18357,0.23934
3259.11203,0.24045
3261.04050,0.24070
3262.96897,0.24199
3264.89744,0.23974
3266.82591,0.23391
3268.75438,0.23257
3270.68285,0.23678
3272.61131,0.23985
3274.53978,0.24120
3276.46825,0.24322
3278.39672,0.24378
3280.32519,0.24034
3282.25366,0.23485
3284.18213,0.23378
3286.11060,0.23774
3288.03906,0.23987
3289.96753,0.23771
3291.89600,0.23460
3293.82447,0.23338
3295.75294,0.23245
3297.68141,0.23065
3299.60988,0.23157
3301.53834,0.23507
3303.46681,0.23628
3305.39528,0.23640
3307.32375,0.23887
3309.25222,0.24047
3311.18069,0.23941
3313.10916,0.23929
3315.03763,0.24128
3316.96609,0.24377
3318.89456,0.24526
3320.82303,0.24634
3322.75150,0.24863
3324.67997,0.24731
3326.60844,0.23903
3328.53691,0.23296
3330.46537,0.23546
3332.39384,0.24066
3334.32231,0.24171
3336.25078,0.23743
3338.17925,0.23366
3340.10772,0.23535
3342.03619,0.23829
3343.96466,0.23577
3345.89312,0.22763
3347.82159,0.22404
3349.75006,0.23147
3351.67853,0.24015
3353.60700,0.24293
3355.53547,0.24332
3357.46394,0.24191
3359.39240,0.23941
3361.32087,0.24213
3363.24934,0.24945
3365.17781,0.25219
3367.10628,0.24945
3369.03475,0.24729
3370.96322,0.24822
3372.89168,0.24887
3374.82015,0.24670
3376.74862,0.24666
3378.67709,0.24833
3380.60556,0.24458
3382.53403,0.23818
3384.46250,0.23652
3386.39097,0.23644
3388.31943,0.23376
3390.24790,0.23301
3392.17637,0.23670
3394.10484,0.23959
3396.03331,0.23778
3397.96178,0.23832
3399.89025,0.24524
3401.81871,0.24637
3403.74718,0.23492
3405.67565,0.22550
3407.60412,0.22904
3409.53259,0.23598
3411.46106,0.23795
3413.38953,0.23611
3415.31800,0.23382
3417.24646,0.23377
3419.17493,0.23331
3421.10340,0.23196
3423.03187,0.23246
3424.96034,0.23195
3426.88881,0.22816
3428.81728,0.22574
3430.74574,0.22806
3432.67421,0.23398
3434.60268,0.24188
3436.53115,0.24617
3438.45962,0.24277
3440.38809,0.23519
3442.31656,0.23156
3444.24503,0.23721
3446.17349,0.24243
3448.10196,0.23701
3450.03043,0.22996
3451.95890,0.22958
3453.88737,0.23184
3455.81584,0.23066
3457.74431,0.22531
3459.67277,0.22158
3461.60124,0.22243
3463.52971,0.22382
3465.45818,0.22249
3467.38665,0.22037
3469.31512,0.22042
3471.24359,0.22183
3473.17206,0.22201
3475.10052,0.21961
3477.02899,0.21708
3478.95746,0.21734
3480.88593,0.21728
3482.81440,0.21523
3484.74287,0.21596
3486.67134,0.21756
3488.59980,0.21363
3490.52827,0.20789
3492.45674,0.20679
3494.38521,0.20817
3496.31368,0.20868
3498.24215,0.21079
3500.17062,0.21469
3502.09909,0.21694
3504.02755,0.21736
3505.95602,0.21638
3507.88449,0.21318
3509.81296,0.20666
3511.74143,0.20037
3513.66990,0.19949
3515.59837,0.20065
3517.52683,0.19882
3519.45530,0.19557
3521.38377,0.19449
3523.31224,0.19850
3525.24071,0.20680
3527.16918,0.21027
3529.09765,0.20609
3531.02611,0.20119
3532.95458,0.19782
3534.88305,0.19697
3536.81152,0.19799
3538.73999,0.19677
3540.66846,0.19567
3542.59693,0.19981
3544.52540,0.20376
3546.45386,0.20070
3548.38233,0.19733
3550.31080,0.19570
3552.23927,0.19031
3554.16774,0.18480
3556.09621,0.18610
3558.02468,0.19155
3559.95314,0.19515
3561.88161,0.19642
3563.81008,0.19866
3565.73855,0.19807
3567.66702,0.18698
3569.59549,0.17623
3571.52396,0.17373
3573.45243,0.17528
3575.38089,0.17643
3577.30936,0.17332
3579.23783,0.16900
3581.16630,0.17068
3583.09477,0.17764
3585.02324,0.18388
3586.95171,0.18688
3588.88017,0.18516
3590.80864,0.18019
3592.73711,0.17487
3594.66558,0.17257
3596.59405,0.17530
3598.52252,0.17734
3600.45099,0.17377
3602.37946,0.16774
3604.30792,0.16593
3606.23639,0.16860
3608.16486,0.17190
3610.09333,0.17463
3612.02180,0.17613
3613.95027,0.17438
3615.87874,0.17185
3617.80720,0.17520
3619.73567,0.18108
3621.66414,0.17499
3623.59261,0.16355
3625.52108,0.15915
3627.44955,0.15999
3629.37802,0.15686
3631.30649,0.15385
3633.23495,0.15483
3635.16342,0.15647
3637.09189,0.15853
3639.02036,0.16033
3640.94883,0.15822
3642.87730,0.15362
3644.80577,0.15594
3646.73423,0.16908
3648.66270,0.17833
3650.59117,0.16680
3652.51964,0.15665
3654.44811,0.15568
3656.37658,0.15664
3658.30505,0.15484
3660.23352,0.15293
3662.16198,0.15110
3664.09045,0.14907
3666.01892,0.14906
3667.94739,0.15310
3669.87586,0.16066
3671.80433,0.16346
3673.73280,0.16405
3675.66126,0.16777
3677.58973,0.16461
3679.51820,0.15607
3681.44667,0.15187
3683.37514,0.15279
3685.30361,0.15495
3687.23208,0.16027
3689.16055,0.17033
3691.08901,0.16847
3693.01748,0.15616
3694.94595,0.15108
3696.87442,0.15233
3698.80289,0.15418
3700.73136,0.15760
3702.65983,0.15754
3704.58829,0.15247
3706.51676,0.15161
3708.44523,0.15825
3710.37370,0.16643
3712.30217,0.16031
3714.23064,0.14603
3716.15911,0.13857
3718.08757,0.13828
3720.01604,0.14483
3721.94451,0.15446
3723.87298,0.15779
3725.80145,0.15184
3727.72992,0.14467
3729.65839,0.14525
3731.58686,0.15480
3733.51532,0.16810
3735.44379,0.17224
3737.37226,0.16303
3739.30073,0.15684
3741.22920,0.15730
3743.15767,0.16159
3745.08614,0.17351
3747.01460,0.18463
3748.94307,0.19101
3750.87154,0.18958
3752.80001,0.17057
3754.72848,0.15395
3756.65695,0.15047
3758.58542,0.15347
3760.51389,0.15074
3762.44235,0.14644
3764.37082,0.14853
3766.29929,0.15238
3768.22776,0.15301
3770.15623,0.15100
3772.08470,0.14655
3774.01317,0.14333
3775.94163,0.14337
3777.87010,0.14514
3779.79857,0.14779
3781.72704,0.14952
3783.65551,0.14909
3785.58398,0.14748
3787.51245,0.14523
3789.44092,0.14327
3791.36938,0.14261
3793.29785,0.14439
3795.22632,0.14919
3797.15479,0.15287
3799.08326,0.15207
3801.01173,0.15157
3802.94020,0.15129
3804.86866,0.14635
3806.79713,0.13870
3808.72560,0.13432
3810.65407,0.13380
3812.58254,0.13529
3814.51101,0.14092
3816.43948,0.14580
3818.36795,0.14478
3820.29641,0.14615
3822.22488,0.14856
3824.15335,0.14935
3826.08182,0.15063
3828.01029,0.14916
3829.93876,0.14697
3831.86723,0.14803
3833.79569,0.15250
3835.72416,0.15926
3837.65263,0.16193
3839.58110,0.15259
3841.50957,0.14051
3843.43804,0.13661
3845.36651,0.13719
3847.29498,0.13540
3849.22344,0.13497
3851.15191,0.14514
3853.08038,0.16783
3855.00885,0.16334
3856.93732,0.13666
3858.86579,0.12308
3860.79426,0.12666
3862.72272,0.13546
3864.65119,0.14041
3866.57966,0.14413
3868.50813,0.14795
3870.43660,0.14749
3872.36507,0.14184
3874.29354,0.13633
3876.22200,0.13203
3878.15047,0.13137
3880.07894,0.13690
3882.00741,0.14362
3883.93588,0.14476
3885.86435,0.14263
3887.79282,0.14394
3889.72129,0.14751
3891.64975,0.14670
3893.57822,0.14015
3895.50669,0.13563
3897.43516,0.13738
3899.36363,0.14233
3901.29210,0.14224
3903.22057,0.13794
3905.14903,0.13710
3907.07750,0.13713
3909.00597,0.13457
3910.93444,0.13099
3912.86291,0.13105
3914.79138,0.13700
3916.71985,0.14040
3918.64832,0.13553
3920.57678,0.13161
3922.50525,0.13179
3924.43372,0.13147
3926.36219,0.13166
3928.29066,0.13387
3930.21913,0.13687
3932.14760,0.13642
3934.07606,0.12828
3936.00453,0.12153
3937.93300,0.12149
3939.86147,0.12252
3941.78994,0.12339
3943.71841,0.12726
3945.64688,0.13290
3947.57535,0.13638
3949.50381,0.13269
3951.43228,0.12246
3953.36075,0.11500
3955.28922,0.11487
3957.21769,0.11746
3959.14616,0.11818
3961.07463,0.11917
3963.00309,0.12155
3964.93156,0.12389
3966.86003,0.12547
3968.78850,0.12361
3970.71697,0.11989
3972.64544,0.11847
3974.57391,0.12024
3976.50238,0.12173
3978.43084,0.11772
3980.35931,0.11132
3982.28778,0.11110
3984.21625,0.11823
3986.14472,0.12329
3988.07319,0.12040
3990.00166,0.11455
3991.93012,0.11206
3993.85859,0.11314
3995.78706,0.11563
3997.71553,0.11917
3999.64400,0.12154
4001.57247,0.12119
4003.50094,0.12024
4005.42941,0.11960
4007.35787,0.11805
4009.28634,0.11806
4011.21481,0.12115
4013.14328,0.12110
4015.07175,0.11942
4017.00022,0.12154
4018.92869,0.12200
4020.85715,0.11838
4022.78562,0.11407
4024.71409,0.11145
4026.64256,0.11376
4028.57103,0.11773
4030.49950,0.11965
4032.42797,0.12232
4034.35644,0.12369
4036.28490,0.11962
4038.21337,0.11325
4040.14184,0.11000
4042.07031,0.11114
4043.99878,0.11432
4045.92725,0.11763
4047.85572,0.11921
4049.78418,0.11872
4051.71265,0.11532
4053.64112,0.10771
4055.56959,0.10316
4057.49806,0.10485
4059.42653,0.10457
4061.35500,0.10048
4063.28346,0.09760
4065.21193,0.09940
4067.14040,0.10442
4069.06887,0.10624
4070.99734,0.10315
4072.92581,0.10062
4074.85428,0.10190
4076.78275,0.10427
4078.71121,0.10637
4080.63968,0.11074
4082.56815,0.11504
4084.49662,0.11300
4086.42509,0.10678
4088.35356,0.10328
4090.28203,0.10506
4092.21049,0.11086
4094.13896,0.11512
4096.06743,0.11464
4097.99590,0.11209
4099.92437,0.10979
4101.85284,0.10905
4103.78131,0.10897
4105.70978,0.10940
4107.63824,0.11102
4109.56671,0.10866
4111.49518,0.10416
4113.42365,0.10597
4115.35212,0.10894
4117.28059,0.10537
4119.20906,0.10213
4121.13752,0.10580
4123.06599,0.10835
4124.99446,0.10605
4126.92293,0.10631
4128.85140,0.10635
4130.77987,0.10510
4132.70834,0.10823
4134.63681,0.10921
4136.56527,0.10452
4138.49374,0.09888
4140.42221,0.09219
4142.35068,0.08984
4144.27915,0.09858
4146.20762,0.10661
4148.13609,0.10264
4150.06455,0.09797
4151.99302,0.10060
4153.92149,0.10121
4155.84996,0.09588
4157.77843,0.09417
4159.70690,0.09894
4161.63537,0.09915
4163.56384,0.09225
4165.49230,0.08696
4167.42077,0.08441
4169.34924,0.08414
4171.27771,0.08773
4173.20618,0.09212
4175.13465,0.09555
4177.06312,0.09614
4178.99158,0.09348
4180.92005,0.08996
4182.84852,0.08689
4184.77699,0.08494
4186.70546,0.08361
4188.63393,0.09047
4190.56240,0.10512
4192.49087,0.10877
4194.41933,0.09925
4196.34780,0.08964
4198.27627,0.08424
4200.20474,0.08166
4202.13321,0.08152
4204.06168,0.08256
4205.99015,0.08284
4207.91861,0.08129
4209.84708,0.07544
4211.77555,0.07099
4213.70402,0.07634
4215.63249,0.08359
4217.56096,0.08457
4219.48943,0.08305
4221.41789,0.08196
4223.34636,0.08282
4225.27483,0.08337
4227.20330,0.07962
4229.13177,0.07839
4231.06024,0.08457
4232.98871,0.08744
4234.91718,0.08097
4236.84564,0.07579
4238.77411,0.07908
4240.70258,0.08411
4242.63105,0.08424
4244.55952,0.08263
4246.48799,0.08323
4248.41646,0.08414
4250.34492,0.08303
4252.27339,0.07957
4254.20186,0.07802
4256.13033,0.08102
4258.05880,0.08265
4259.98727,0.08072
4261.91574,0.07694
4263.84421,0.07055
4265.77267,0.06473
4267.70114,0.06333
4269.62961,0.06604
4271.55808,0.06850
4273.48655,0.06639
4275.41502,0.06491
4277.34349,0.07008
4279.27195,0.07910
4281.20042,0.08708
4283.12889,0.08788
4285.05736,0.07875
4286.98583,0.07066
4288.91430,0.07250
4290.84277,0.07529
4292.77124,0.07355
4294.69970,0.07256
4296.62817,0.07339
4298.55664,0.07434
4300.48511,0.07298
4302.41358,0.06693
4304.34205,0.05817
4306.27052,0.05326
4308.19898,0.05492
4310.12745,0.05931
4312.05592,0.06457
4313.98439,0.06926
4315.91286,0.07029
4317.84133,0.06447
4319.76980,0.05178
4321.69827,0.04381
4323.62673,0.04971
4325.55520,0.05965
4327.48367,0.06584
4329.41214,0.06909
4331.34061,0.06777
4333.26908,0.06672
4335.19755,0.06668
4337.12601,0.06280
4339.05448,0.06075
4340.98295,0.06255
4342.91142,0.06198
4344.83989,0.06009
4346.76836,0.05979
4348.69683,0.05606
4350.62530,0.05038
4352.55376,0.05359
4354.48223,0.06226
4356.41070,0.06130
4358.33917,0.05273
4360.26764,0.04781
4362.19611,0.04836
4364.12458,0.05186
4366.05304,0.05357
4367.98151,0.05429
4369.90998,0.05588
4371.83845,0.05620
4373.76692,0.05806
4375.69539,0.05681
4377.62386,0.04697
4379.55232,0.03920
4381.48079,0.03987
4383.40926,0.04423
4385.33773,0.05115
4387.26620,0.05574
4389.19467,0.04936
4391.12314,0.04208
4393.05161,0.04623
4394.98007,0.05217
4396.90854,0.05029
4398.83701,0.04329
4400.76548,0.03893
4402.69395,0.04277
4404.62242,0.05142
4406.55089,0.05731
4408.47935,0.05214
4410.40782,0.04000
4412.33629,0.03335
4414.26476,0.03385
4416.19323,0.04007
4418.12170,0.04539
4420.05017,0.04457
4421.97864,0.04324
4423.90710,0.04497
4425.83557,0.04804
4427.76404,0.04526
4429.69251,0.03473
4431.62098,0.02563
4433.54945,0.02439
4435.47792,0.02844
4437.40638,0.03277
4439.33485,0.03590
4441.26332,0.03726
4443.19179,0.03862
4445.12026,0.04123
4447.04873,0.04291
4448.97720,0.04025
4450.90567,0.03136
4452.83413,0.02388
4454.76260,0.02781
4456.69107,0.03992
4458.61954,0.04619
4460.54801,0.04059
4462.47648,0.03261
4464.40495,0.02777
4466.33341,0.02320
4468.26188,0.01820
4470.19035,0.01363
4472.11882,0.01236
4474.04729,0.01643
4475.97576,0.02341
4477.90423,0.02920
4479.83270,0.02817
4481.76116,0.02179
4483.68963,0.01786
4485.61810,0.01918
4487.54657,0.02442
4489.47504,0.02826
4491.40351,0.02718
4493.33198,0.02441
4495.26044,0.02239
4497.18891,0.02079
4499.11738,0.02054
4501.04585,0.02190
4502.97432,0.02423
4504.90279,0.02525
4506.83126,0.02151
4508.75973,0.02102
4510.68819,0.03147
4512.61666,0.04040
4514.54513,0.03659
4516.47360,0.02804
4518.40207,0.02373
4520.33054,0.02328
4522.25901,0.02596
4524.18747,0.02655
4526.11594,0.02173
4528.04441,0.02104
4529.97288,0.02501
4531.90135,0.02620
4533.82982,0.02580
4535.75829,0.02558
4537.68676,0.02968
4539.61522,0.04047
4541.54369,0.04704
4543.47216,0.04168
4545.40063,0.03355
4547.32910,0.02901
4549.25757,0.02672
4551.18604,0.02721
4553.11450,0.02040
4555.04297,0.00456
4556.97144,-0.00166
4558.89991,0.00322
4560.82838,0.00701
4562.75685,0.00948
4564.68532,0.01184
4566.61378,0.01206
4568.54225,0.01355
4570.47072,0.01354
4572.39919,0.00694
4574.32766,0.00102
4576.25613,-0.00146
4578.18460,-0.00433
4580.11307,-0.00458
4582.04153,-0.00031
4583.97000,0.00424
4585.89847,0.00598
4587.82694,0.00898
4589.75541,0.01911
4591.68388,0.02926
4593.61235,0.02802
4595.54081,0.01603
4597.46928,0.00116
4599.39775,-0.00393
4601.32622,0.00548
4603.25469,0.01464
4605.18316,0.01010
4607.11163,0.00343
4609.04010,0.00599
4610.96856,0.00770
4612.89703,0.00792
4614.82550,0.01115
4616.75397,0.00793
4618.68244,0.00465
4620.61091,0.01475
4622.53938,0.02396
4624.46784,0.02275
4626.39631,0.02462
4628.32478,0.02979
4630.25325,0.02717
4632.18172,0.01894
4634.11019,0.01454
4636.03866,0.01540
4637.96713,0.01476
4639.89559,0.01341
4641.82406,0.01736
4643.75253,0.02088
4645.68100,0.01709
4647.60947,0.00986
4649.53794,0.00759
4651.46641,0.01248
4653.39487,0.01260
4655.32334,0.00384
4657.25181,0.00101
4659.18028,0.00590
4661.10875,0.00799
4663.03722,0.01012
4664.96569,0.01431
4666.89416,0.01675
4668.82262,0.01964
4670.75109,0.02266
4672.67956,0.02605
4674.60803,0.03070
4676.53650,0.03179
4678.46497,0.02483
4680.39344,0.01508
4682.32190,0.01153
4684.25037,0.01003
4686.17884,0.01072
4688.10731,0.01406
4690.03578,0.00800
4691.96425,0.00029
4693.89272,0.00397
4695.82119,0.01392
4697.74965,0.02426
4699.67812,0.03060
4701.60659,0.03169
4703.53506,0.02814
4705.46353,0.01742
4707.39200,0.00414
4709.32047,-0.00301
4711.24893,-0.00437
4713.17740,-0.00418
4715.10587,-0.00579
4717.03434,-0.01565
4718.96281,-0.02609
4720.89128,-0.01988
4722.81975,-0.00650
4724.74821,-0.00104
4726.67668,0.00140
4728.60515,0.00300
4730.53362,0.00337
4732.46209,0.00559
4734.39056,0.01048
4736.31903,0.01135
4738.24750,0.00578
4740.17596,0.00551
4742.10443,0.01120
4744.03290,0.01625
4745.96137,0.01816
4747.88984,0.01687
4749.81831,0.01820
4751.74678,0.01635
4753.67524,0.01060
4755.60371,0.01141
4757.53218,0.01633
4759.46065,0.01648
4761.38912,0.00833
4763.31759,0.00343
4765.24606,0.01175
4767.17453,0.02443
4769.10299,0.02979
4771.03146,0.02449
4772.95993,0.01491
4774.88840,0.00817
4776.81687,0.00142
4778.74534,-0.00341
4780.67381,0.00639
4782.60227,0.02505
4784.53074,0.03156
4786.45921,0.02088
4788.38768,0.00937
4790.31615,0.01329
4792.24462,0.02098
4794.17309,0.01826
4796.10156,0.01546
4798.03002,0.01851
4799.95849,0.01911
4801.88696,0.01357
4803.81543,0.00440
4805.74390,-0.00163
4807.67237,-0.00194
4809.60084,-0.00007
4811.52930,0.00373
4813.45777,0.00340
4815.38624,-0.00353
4817.31471,-0.00876
4819.24318,-0.01151
4821.17165,-0.01055
4823.10012,-0.00297
4825.02859,0.00560
4826.95705,0.01108
4828.88552,0.01203
4830.81399,0.00527
4832.74246,-0.00263
4834.67093,-0.00155
4836.59940,0.00695
4838.52787,0.01511
4840.45633,0.01790
4842.38480,0.01324
4844.31327,0.00182
4846.24174,-0.00284
4848.17021,0.00544
4850.09868,0.00619
4852.02715,-0.00075
4853.95562,0.00647
4855.88408,0.01989
4857.81255,0.02290
4859.74102,0.02169
4861.66949,0.02186
4863.59796,0.01793
4865.52643,0.01327
4867.45490,0.01740
4869.38336,0.02273
4871.31183,0.01729
4873.24030,0.00598
4875.16877,-0.00379
4877.09724,-0.00768
4879.02571,-0.00454
4880.95418,0.00023
4882.88265,0.00453
4884.81111,0.01120
4886.73958,0.02307
4888.66805,0.03238
4890.59652,0.02804
4892.52499,0.01754
4894.45346,0.01223
4896.38193,0.00866
4898.31039,0.00212
4900.23886,0.00185
4902.16733,0.01163
4904.09580,0.01237
4906.02427,0.00080
4907.95274,-0.00006
4909.88121,0.01280
4911.80967,0.02837
4913.73814,0.03646
4915.66661,0.02493
4917.59508,0.00676
4919.52355,0.00309
4921.45202,0.00928
4923.38049,0.01264
4925.30896,0.01046
4927.23742,0.00961
4929.16589,0.01372
4931.09436,0.01931
4933.02283,0.02199
4934.95130,0.01692
4936.87977,0.00960
4938.80824,0.00969
4940.73670,0.01672
4942.66517,0.02213
4944.59364,0.01858
4946.52211,0.00936
4948.45058,0.00508
4950.37905,0.01013
4952.30752,0.01565
4954.23599,0.01385
4956.16445,0.01108
4958.09292,0.01209
4960.02139,0.01011
4961.94986,0.00521
4963.87833,0.00498
4965.80680,0.00614
4967.73527,0.00785
4969.66373,0.01364
4971.59220,0.01745
4973.52067,0.00996
4975.44914,-0.00381
4977.37761,-0.00319
4979.30608,0.01100
4981.23455,0.02039
4983.16302,0.02504
4985.09148,0.02593
4987.01995,0.01690
4988.94842,0.00658
4990.87689,0.00639
4992.80536,0.00878
4994.73383,-0.00179
4996.66230,-0.01873
4998.59076,-0.01560
5000.51923,0.00624
5002.44770,0.01989
5004.37617,0.01368
5006.30464,0.00458
5008.23311,0.00924
5010.16158,0.01755
5012.09005,0.01549
5014.01851,0.01009
5015.94698,0.01191
5017.87545,0.01581
5019.80392,0.01188
5021.73239,0.00463
5023.66086,0.00732
5025.58933,0.01251
5027.51779,0.00271
5029.44626,-0.00129
5031.37473,0.02509
5033.30320,0.05733
5035.23167,0.05926
5037.16014,0.03305
5039.08861,0.00782
5041.01708,0.00626
5042.94554,0.02132
5044.87401,0.02558
5046.80248,0.01558
5048.73095,0.01137
5050.65942,0.01623
5052.58789,0.02417
5054.51636,0.02884
5056.44482,0.02287
5058.37329,0.02034
5060.30176,0.03310
5062.23023,0.03844
5064.15870,0.02674
5066.08717,0.01513
5068.01564,0.01397
5069.94410,0.02752
5071.87257,0.04766
5073.80104,0.05696
5075.72951,0.05246
5077.65798,0.04209
5079.58645,0.03161
5081.51492,0.02739
5083.44339,0.02824
5085.37185,0.02820
5087.30032,0.03288
5089.22879,0.04089
5091.15726,0.03867
5093.08573,0.02748
5095.01420,0.02325
5096.94267,0.02829
5098.87113,0.03076
5100.79960,0.02871
5102.72807,0.02656
5104.65654,0.02790
5106.58501,0.03159
5108.51348,0.03287
5110.44195,0.02889
5112.37042,0.02289
5114.29888,0.02555
5116.22735,0.03216
5118.15582,0.03407
5120.08429,0.03325
5122.01276,0.02897
5123.94123,0.02558
5125.86970,0.02399
5127.79816,0.01560
5129.72663,0.00830
5131.65510,0.01546
5133.58357,0.02415
5135.51204,0.02414
5137.44051,0.02570
5139.36898,0.03289
5141.29745,0.04238
5143.22591,0.04519
5145.15438,0.04114
5147.08285,0.03560
5149.01132,0.02423
5150.93979,0.01594
5152.86826,0.01863
5154.79673,0.02212
5156.72519,0.02565
5158.65366,0.03553
5160.58213,0.04835
5162.51060,0.06364
5164.43907,0.07237
5166.36754,0.06035
5168.29601,0.03801
5170.22448,0.01872
5172.15294,0.01453
5174.08141,0.03224
5176.00988,0.04879
5177.93835,0.05077
5179.86682,0.05181
5181.79529,0.05402
5183.72376,0.04751
5185.65222,0.02408
5187.58069,-0.00234
5189.50916,-0.00084
5191.43763,0.03105
5193.36610,0.06326
5195.29457,0.07177
5197.22304,0.06245
5199.15151,0.04965
5201.07997,0.04740
5203.00844,0.06302
5204.93691,0.07725
5206.86538,0.07289
5208.79385,0.05734
5210.72232,0.03468
5212.65079,0.01112
5214.57925,0.00739
5216.50772,0.02549
5218.43619,0.04776
5220.36466,0.06498
5222.29313,0.07254
5224.22160,0.06778
5226.15007,0.04633
5228.07854,0.02427
5230.00700,0.02362
5231.93547,0.02831
5233.86394,0.02722
5235.79241,0.02866
5237.72088,0.03116
5239.64935,0.03662
5241.57782,0.05203
5243.50628,0.07200
5245.43475,0.08343
5247.36322,0.08163
5249.29169,0.06769
5251.22016,0.05379
5253.14863,0.04597
5255.07710,0.03181
5257.00556,0.01896
5258.93403,0.02323
5260.86250,0.03196
5262.79097,0.03226
5264.71944,0.03195
5266.64791,0.03972
5268.57638,0.05256
5270.50485,0.05896
5272.43331,0.05920
5274.36178,0.05761
5276.29025,0.05242
5278.21872,0.05524
5280.14719,0.06192
5282.07566,0.05537
5284.00413,0.04263
5285.93259,0.03097
5287.86106,0.02138
5289.78953,0.02109
5291.71800,0.03136
5293.64647,0.03347
5295.57494,0.02099
5297.50341,0.01915
5299.43188,0.03421
5301.36034,0.04757
5303.28881,0.05896
5305.21728,0.07060
5307.14575,0.07087
5309.07422,0.05416
5311.00269,0.03773
5312.93116,0.03907
5314.85962,0.05188
5316.78809,0.06195
5318.71656,0.06932
5320.64503,0.07682
5322.57350,0.08572
5324.50197,0.09457
5326.43044,0.08905
5328.35891,0.06930
5330.28737,0.05913
5332.21584,0.06758
5334.14431,0.07706
5336.07278,0.07122
5338.00125,0.05938
5339.92972,0.05673
5341.85819,0.07226
5343.78665,0.09489
5345.71512,0.08886
5347.64359,0.06770
5349.57206,0.06481
5351.50053,0.07723
5353.42900,0.09646
5355.35747,0.10818
5357.28594,0.10830
5359.21440,0.10049
5361.14287,0.07904
5363.07134,0.05355
5364.99981,0.03358
5366.92828,0.02451
5368.85675,0.03843
5370.78522,0.06750
5372.71368,0.08384
5374.64215,0.07163
5376.57062,0.05943
5378.49909,0.07055
5380.42756,0.08299
5382.35603,0.09347
5384.28450,0.10269
5386.21297,0.09416
5388.14143,0.07254
5390.06990,0.05990
5391.99837,0.05982
5393.92684,0.07248
5395.85531,0.09095
5397.78378,0.09093
5399.71225,0.07463
5401.64071,0.05940
5403.56918,0.04695
5405.49765,0.03720
5407.42612,0.03052
5409.35459,0.03381
5411.28306,0.04787
5413.21153,0.04840
5415.13999,0.04318
5417.06846,0.05587
5418.99693,0.06868
5420.92540,0.06442
5422.85387,0.05535
5424.78234,0.05533
5426.71081,0.05720
5428.63928,0.04887
5430.56774,0.03430
5432.49621,0.04306
5434.42468,0.07407
5436.35315,0.06981
5438.28162,0.03632
5440.21009,0.02670
5442.13856,0.04896
5444.06702,0.08222
5445.99549,0.11520
5447.92396,0.13106
5449.85243,0.11208
5451.78090,0.08864
5453.70937,0.08690
5455.63784,0.09271
5457.56631,0.10236
5459.49477,0.12114
5461.42324,0.13689
5463.35171,0.12092
5465.28018,0.08080
5467.20865,0.06241
5469.13712,0.07183
5471.06559,0.08870
5472.99405,0.10832
5474.92252,0.11690
5476.85099,0.09960
5478.77946,0.07672
5480.70793,0.06216
5482.63640,0.05563
5484.56487,0.07000
5486.49334,0.10178
5488.42180,0.12278
5490.35027,0.12984
5492.27874,0.13847
5494.20721,0.13001
5496.13568,0.08801
5498.06415,0.05288
5499.99262,0.06691
5501.92108,0.10318
5503.84955,0.12292
5505.77802,0.12706
5507.70649,0.12231
5509.63496,0.11708
5511.56343,0.10758
5513.49190,0.08829
5515.42037,0.07837
5517.34883,0.07910
5519.27730,0.05951
5521.20577,0.02475
5523.13424,0.01618
5525.06271,0.03431
5526.99118,0.04928
5528.91965,0.05164
5530.84811,0.04645
5532.77658,0.04642
5534.70505,0.06031
5536.63352,0.08196
5538.56199,0.08889
5540.49046,0.07042
5542.41893,0.05420
5544.34740,0.07091
5546.27586,0.10316
5548.20433,0.11143
5550.13280,0.09754
5552.06127,0.09779
5553.98974,0.11898
5555.91821,0.12720
5557.84668,0.11138
5559.77514,0.10262
5561.70361,0.11148
5563.63208,0.11300
5565.56055,0.10484
5567.48902,0.09707
5569.41749,0.08138
5571.34596,0.06477
5573.27443,0.06403
5575.20289,0.08435
5577.13136,0.10395
5579.05983,0.09834
5580.98830,0.07997
5582.91677,0.07429
5584.84524,0.06939
5586.77371,0.04716
5588.70217,0.04010
5590.63064,0.06646
5592.55911,0.08904
5594.48758,0.09328
5596.41605,0.08908
5598.34452,0.09140
5600.27299,0.10999
5602.20145,0.11435
5604.12992,0.10047
5606.05839,0.10759
5607.98686,0.11776
5609.91533,0.09250
5611.84380,0.05418
5613.77227,0.05093
5615.70074,0.07080
5617.62920,0.05960
5619.55767,0.02983
5621.48614,0.03740
5623.41461,0.07944
5625.34308,0.11105
5627.27155,0.11385
5629.20002,0.09675
5631.12848,0.07586
5633.05695,0.06905
5634.98542,0.07503
5636.91389,0.07844
5638.84236,0.07862
5640.77083,0.08368
5642.69930,0.08605
5644.62777,0.08639
5646.55623,0.08873
5648.48470,0.07541
5650.41317,0.04691
5652.34164,0.03045
5654.27011,0.04980
5656.19858,0.08011
5658.12705,0.08433
5660.05551,0.08153
5661.98398,0.08919
5663.91245,0.09972
5665.84092,0.10919
5667.76939,0.09982
5669.69786,0.06593
5671.62633,0.04128
5673.55480,0.04788
5675.48326,0.06297
5677.41173,0.07149
5679.34020,0.08388
5681.26867,0.08680
5683.19714,0.07039
5685.12561,0.06270
5687.05408,0.06548
5688.98254,0.04101
5690.91101,0.00087
5692.83948,-0.00032
5694.76795,0.04239
5696.69642,0.09400
5698.62489,0.10588
5700.55336,0.07022
5702.48183,0.06062
5704.41029,0.08811
5706.33876,0.09591
5708.26723,0.09550
5710.19570,0.10510
5712.12417,0.09783
5714.05264,0.07722
5715.98111,0.07739
5717.90957,0.10719
5719.83804,0.14097
5721.76651,0.15186
5723.69498,0.13758
5725.62345,0.10508
5727.55192,0.07216
5729.48039,0.06424
5731.40886,0.07938
5733.33732,0.09905
5735.26579,0.10550
5737.19426,0.10082
5739.12273,0.10724
5741.05120,0.09629
5742.97967,0.05132
5744.90814,0.02903
5746.83660,0.05060
5748.76507,0.08613
5750.69354,0.11108
5752.62201,0.11598
5754.55048,0.11104
5756.47895,0.11429
5758.40742,0.13040
5760.33588,0.13427
5762.26435,0.10876
5764.19282,0.06655
5766.12129,0.03570
5768.04976,0.04002
5769.97823,0.07034
5771.90670,0.11904
5773.83517,0.17120
5775.76363,0.18590
5777.69210,0.14600
5779.62057,0.09371
5781.54904,0.07500
5783.47751,0.07527
5785.40598,0.09023
5787.33445,0.12441
5789.26291,0.13912
5791.19138,0.12052
5793.11985,0.09853
5795.04832,0.11135
5796.97679,0.14600
5798.90526,0.12886
5800.83373,0.05775
5802.76220,0.01336
5804.69066,0.02643
5806.61913,0.05724
5808.54760,0.08513
5810.47607,0.10598
5812.40454,0.10356
5814.33301,0.08886
5816.26148,0.09169
5818.18994,0.11373
5820.11841,0.13810
5822.04688,0.15566
5823.97535,0.14903
5825.90382,0.11445
5827.83229,0.09645
5829.76076,0.11221
5831.68923,0.11961
5833.61769,0.11600
5835.54616,0.12897
5837.47463,0.12726
5839.40310,0.08925
5841.33157,0.05845
5843.26004,0.05141
5845.18851,0.06390
5847.11697,0.08917
5849.04544,0.10291
5850.97391,0.11382
5852.90238,0.11053
5854.83085,0.08603
5856.75932,0.08772
5858.68779,0.10172
5860.61626,0.09732
5862.54472,0.09595
5864.47319,0.08432
5866.40166,0.06277
5868.33013,0.06231
5870.25860,0.07668
5872.18707,0.10308
5874.11554,0.12840
5876.04400,0.13042
5877.97247,0.12016
5879.90094,0.10208
5881.82941,0.09364
5883.75788,0.10543
5885.68635,0.11009
5887.61482,0.11035
5889.54329,0.11234
5891.47175,0.11885
5893.40022,0.15100
5895.32869,0.19101
5897.25716,0.19535
5899.18563,0.16557
5901.11410,0.15158
5903.04257,0.15818
5904.97103,0.15617
5906.89950,0.15097
5908.82797,0.13313
5910.75644,0.10874
5912.68491,0.10932
5914.61338,0.13283
5916.54185,0.16117
5918.47032,0.17229
5920.39878,0.15346
5922.32725,0.13201
5924.25572,0.13007
5926.18419,0.11748
5928.11266,0.09236
5930.04113,0.09510
5931.96960,0.10405
5933.89806,0.07913
5935.82653,0.06433
5937.75500,0.10307
5939.68347,0.13459
5941.61194,0.10384
5943.54041,0.05150
5945.46888,0.02568
5947.39734,0.03145
5949.32581,0.07391
5951.25428,0.12222
5953.18275,0.13953
5955.11122,0.13891
5957.03969,0.13027
5958.96816,0.11113
5960.89663,0.09385
5962.82509,0.09403
5964.75356,0.09370
5966.68203,0.08897
5968.61050,0.10396
5970.53897,0.11305
5972.46744,0.09048
5974.39591,0.06575
5976.32437,0.04843
5978.25284,0.02366
5980.18131,0.00779
5982.10978,0.01080
5984.03825,0.02298
5985.96672,0.05325
5987.89519,0.10981
5989.82366,0.16759
5991.75212,0.18038
5993.68059,0.13573
5995.60906,0.08415
5997.53753,0.07496
5999.46600,0.07162
6001.39447,0.06331
6003.32294,0.09323
6005.25140,0.12271
6007.17987,0.10572
6009.10834,0.09094
6011.03681,0.11161
6012.96528,0.12659
6014.89375,0.10849
6016.82222,0.08445
6018.75069,0.07189
6020.67915,0.07323
6022.60762,0.08456
6024.53609,0.10245
6026.46456,0.13539
6028.39303,0.15772
6030.32150,0.13804
6032.24997,0.09564
6034.17843,0.07022
6036.10690,0.09056
6038.03537,0.12676
6039.96384,0.14813
6041.89231,0.15249
6043.82078,0.11015
6045.74925,0.05173
6047.67772,0.05108
6049.60618,0.10454
6051.53465,0.15513
6053.46312,0.17477
6055.39159,0.12645
6057.32006,0.03276
6059.24853,0.01296
6061.17700,0.07011
6063.10546,0.11994
6065.03393,0.14058
6066.96240,0.15846
6068.89087,0.18939
6070.81934,0.19207
6072.74781,0.14434
6074.67628,0.09219
6076.60475,0.06847
6078.53321,0.05973
6080.46168,0.06056
6082.39015,0.08378
6084.31862,0.11732
6086.24709,0.15083
6088.17556,0.17763
6090.10403,0.16274
6092.03249,0.11988
6093.96096,0.10756
6095.88943,0.11570
6097.81790,0.09956
6099.74637,0.07033
6101.67484,0.06888
6103.60331,0.08049
6105.53177,0.05669
6107.46024,0.02388
6109.38871,0.04151
6111.31718,0.08480
6113.24565,0.10074
6115.17412,0.09495
6117.10259,0.10046
6119.03106,0.11940
6120.95952,0.13759
6122.88799,0.16584
6124.81646,0.18294
6126.74493,0.16758
6128.67340,0.16219
6130.60187,0.16836
6132.53034,0.14960
6134.45880,0.12025
6136.38727,0.09527
6138.31574,0.07681
6140.24421,0.06087
6142.17268,0.03597
6144.10115,0.02131
6146.02962,0.05337
6147.95809,0.11318
6149.88655,0.14232
6151.81502,0.14326
6153.74349,0.16811
6155.67196,0.19294
6157.60043,0.18090
6159.52890,0.17330
6161.45737,0.17798
6163.38583,0.16343
6165.31430,0.16301
6167.24277,0.16346
6169.17124,0.15103
6171.09971,0.18100
6173.02818,0.21680
6174.95665,0.19110
6176.88512,0.13244
6178.81358,0.10602
6180.74205,0.13054
6182.67052,0.15721
6184.59899,0.15981
6186.52746,0.13704
6188.45593,0.08002
6190.38440,0.02760
6192.31286,0.01822
6194.24133,0.04265
6196.16980,0.09268
6198.09827,0.13970
6200.02674,0.13080
6201.95521,0.08648
6203.88368,0.07853
6205.81215,0.11187
6207.74061,0.12231
6209.66908,0.10586
6211.59755,0.11746
6213.52602,0.14517
6215.45449,0.13369
6217.38296,0.07479
6219.31143,0.02426
6221.23989,0.01463
6223.16836,0.01936
6225.09683,0.03230
6227.02530,0.05362
6228.95377,0.07508
6230.88224,0.10603
6232.81071,0.10607
6234.73918,0.06279
6236.66764,0.01891
6238.59611,-0.02771
6240.52458,-0.06282
6242.45305,-0.05284
6244.38152,-0.03013
6246.30999,-0.01027
6248.23846,0.08297
6250.16692,0.19530
6252.09539,0.16496
6254.02386,0.06671
6255.95233,0.04246
6257.88080,0.07586
6259.80927,0.11158
6261.73774,0.12739
6263.66621,0.07913
6265.59467,-0.01803
6267.52314,-0.05747
6269.45161,-0.02402
6271.38008,0.05011
6273.30855,0.13686
6275.23702,0.17342
6277.16549,0.15228
6279.09395,0.10001
6281.02242,0.02925
6282.95089,-0.01010
6284.87936,0.00149
6286.80783,0.00470
6288.73630,-0.01552
6290.66477,-0.03059
6292.59323,-0.03401
6294.52170,-0.02159
6296.45017,0.01010
6298.37864,0.03349
6300.30711,0.03246
6302.23558,0.03325
6304.16405,0.01777
6306.09252,-0.04128
6308.02098,-0.06642
6309.94945,0.01607
6311.87792,0.11393
6313.80639,0.11617
6315.73486,0.07789
6317.66333,0.04969
6319.59180,0.02329
6321.52026,0.03107
6323.44873,0.06778
6325.37720,0.09449
6327.30567,0.08543
6329.23414,0.01037
6331.16261,-0.02346
6333.09108,0.07672
6335.01955,0.16656
6336.94801,0.15890
6338.87648,0.11755
6340.80495,0.07549
6342.73342,0.05362
6344.66189,0.04779
6346.59036,0.01791
6348.51883,0.01390
6350.44729,0.05283
6352.37576,0.06764
6354.30423,0.08939
6356.23270,0.12537
6358.16117,0.15266
6360.08964,0.18015
6362.01811,0.19714
6363.94658,0.17737
6365.87504,0.10291
6367.80351,0.06322
6369.73198,0.10667
6371.66045,0.12629
6373.58892,0.10776
6375.51739,0.12492
6377.44586,0.14970
6379.37432,0.14006
6381.30279,0.12627
6383.23126,0.13424
6385.15973,0.15542
6387.08820,0.17512
6389.01667,0.16830
6390.94514,0.10521
6392.87361,0.02133
6394.80207,0.00072
6396.73054,0.01343
6398.65901,0.01334
6400.58748,0.04490
6402.51595,0.08444
6404.44442,0.03939
6406.37289,-0.02988
6408.30135,0.01231
6410.22982,0.12383
6412.15829,0.16778
6414.08676,0.13511
6416.01523,0.10036
6417.94370,0.06636
6419.87217,0.02880
6421.80064,0.00997
6423.72910,0.00552
6425.65757,0.03274
6427.58604,0.07060
6429.51451,0.07453
6431.44298,0.09169
6433.37145,0.14359
6435.29992,0.17402
6437.22838,0.16259
6439.15685,0.13623
6441.08532,0.11115
6443.01379,0.07354
6444.94226,0.05249
6446.87073,0.06293
6448.79920,0.09142
6450.72766,0.14586
6452.65613,0.18805
6454.58460,0.16854
6456.51307,0.10468
6458.44154,0.05948
6460.37001,0.04129
6462.29848,0.00202
6464.22695,-0.06443
6466.15541,-0.08106
6468.08388,0.00474
6470.01235,0.09440
6471.94082,0.10575
6473.86929,0.11309
6475.79776,0.14077
6477.72623,0.12432
6479.65469,0.08276
6481.58316,0.07573
6483.51163,0.09312
6485.44010,0.08127
6487.36857,0.02211
6489.29704,-0.01465
6491.22551,0.00791
6493.15398,0.01916
6495.08244,0.01580
6497.01091,0.03310
6498.93938,0.01730
6500.86785,-0.03637
6502.79632,-0.04087
6504.72479,0.01981
6506.65326,0.10438
6508.58172,0.17032
6510.51019,0.16041
6512.43866,0.06178
6514.36713,-0.02213
6516.29560,-0.02466
6518.22407,-0.00960
6520.15254,0.00420
6522.08101,0.04384
6524.00947,0.06036
6525.93794,0.02427
6527.86641,-0.00394
6529.79488,0.00965
6531.72335,0.05270
6533.65182,0.07636
6535.58029,0.06519
6537.50875,0.08474
6539.43722,0.12070
6541.36569,0.08437
6543.29416,0.00813
6545.22263,-0.02121
6547.15110,-0.00198
6549.07957,0.02925
6551.00804,0.00065
6552.93650,-0.05571
6554.86497,-0.03608
6556.79344,-0.01357
6558.72191,-0.02783
6560.65038,-0.01141
6562.57885,0.05591
6564.50732,0.17827
6566.43578,0.25190
6568.36425,0.18385
6570.29272,0.08160
6572.22119,0.05098
6574.14966,0.08525
6576.07813,0.15039
6578.00660,0.20672
6579.93507,0.20275
6581.86353,0.14515
6583.79200,0.11717
6585.72047,0.12841
6587.64894,0.11627
6589.57741,0.08928
6591.50588,0.05369
6593.43435,0.01468
6595.36281,0.03029
6597.29128,0.08576
6599.21975,0.10724
6601.14822,0.06088
6603.07669,0.03197
6605.00516,0.08377
6606.93363,0.12004
6608.86210,0.05808
6610.79056,-0.03166
6612.71903,-0.04299
6614.64750,0.01074
6616.57597,0.06200
6618.50444,0.10680
6620.43291,0.11257
6622.36138,0.05891
6624.28984,0.01699
6626.21831,-0.02521
6628.14678,-0.07136
6630.07525,-0.00521
6632.00372,0.10280
6633.93219,0.10887
6635.86066,0.06119
6637.78912,0.06561
6639.71759,0.09912
6641.64606,0.11521
6643.57453,0.13552
6645.50300,0.17530
6647.43147,0.18010
6649.35994,0.11689
6651.28841,0.08059
6653.21687,0.11674
6655.14534,0.11189
6657.07381,-0.02414
6659.00228,-0.16086
6660.93075,-0.11871
6662.85922,0.02132
6664.78769,0.10996
6666.71615,0.16042
6668.64462,0.19741
6670.57309,0.20505
6672.50156,0.17744
6674.43003,0.12271
6676.35850,0.11716
6678.28697,0.18425
6680.21544,0.21914
6682.14390,0.17478
6684.07237,0.13899
6686.00084,0.16962
6687.92931,0.18427
6689.85778,0.12042
6691.78625,0.03671
6693.71472,-0.03005
6695.64318,-0.03852
6697.57165,0.01039
6699.50012,0.00217
6701.42859,-0.02543
6703.35706,0.01682
6705.28553,0.05291
6707.21400,0.03172
6709.14247,-0.01796
6711.07093,-0.02809
6712.99940,0.01147
6714.92787,0.03812
6716.85634,0.05994
6718.78481,0.07682
6720.71328,0.05692
6722.64175,0.05375
6724.57021,0.06052
6726.49868,0.03860
6728.42715,0.06035
6730.35562,0.13524
6732.28409,0.14138
6734.21256,0.11266
6736.14103,0.11857
6738.06950,0.09953
6739.99796,0.09416
6741.92643,0.12793
6743.85490,0.12031
6745.78337,0.07701
6747.71184,0.05893
6749.64031,0.10615
6751.56878,0.16453
6753.49724,0.15685
6755.42571,0.12781
6757.35418,0.11484
6759.28265,0.08683
6761.21112,0.08342
6763.13959,0.09201
6765.06806,0.06983
6766.99653,0.05683
6768.92499,0.03860
6770.85346,-0.00388
6772.78193,-0.04614
6774.71040,-0.04975
6776.63887,0.02192
6778.56734,0.09770
6780.49581,0.11033
6782.42427,0.07796
6784.35274,0.05585
6786.28121,0.08074
6788.20968,0.12675
6790.13815,0.14462
6792.06662,0.13114
6793.99509,0.11450
6795.92355,0.09790
6797.85202,0.05571
6799.78049,-0.00939
6801.70896,0.00203
6803.63743,0.11392
6805.56590,0.14285
6807.49437,0.03454
6809.42284,-0.04971
6811.35130,0.00701
6813.27977,0.10637
6815.20824,0.11192
6817.13671,0.04452
6819.06518,-0.05410
6820.99365,-0.17300
6822.92212,-0.20032
6824.85058,-0.08433
6826.77905,0.04719
6828.70752,0.13549
6830.63599,0.16159
6832.56446,0.13625
6834.49293,0.11267
6836.42140,0.12135
6838.34987,0.16457
6840.27833,0.24199
6842.20680,0.29921
6844.13527,0.26949
6846.06374,0.19636
6847.99221,0.15396
6849.92068,0.14360
6851.84915,0.07899
6853.77761,-0.03300
6855.70608,-0.05926
6857.63455,0.01322
6859.56302,0.07148
6861.49149,0.05316
6863.41996,0.00348
6865.34843,0.05803
6867.27690,0.16726
6869.20536,0.13870
6871.13383,0.02732
6873.06230,0.02302
6874.99077,0.08293
6876.91924,0.09761
6878.84771,0.05973
6880.77618,-0.00940
6882.70464,-0.01958
6884.63311,0.00720
6886.56158,0.02698
6888.49005,0.05965
6890.41852,0.05066
6892.34699,0.00832
6894.27546,0.04272
6896.20393,0.08703
6898.13239,0.03445
6900.06086,-0.01979
6901.98933,0.01777
6903.91780,0.14828
6905.84627,0.24607
6907.77474,0.20990
6909.70321,0.14131
6911.63167,0.10830
6913.56014,0.12039
6915.48861,0.15742
6917.41708,0.13892
6919.34555,0.03798
6921.27402,0.01283
6923.20249,0.08984
6925.13096,0.16287
6927.05942,0.24331
6928.98789,0.24112
6930.91636,0.11051
6932.84483,0.08473
6934.77330,0.12875
6936.70177,0.05995
6938.63024,-0.01649
6940.55870,0.01791
6942.48717,0.09806
6944.41564,0.18767
6946.34411,0.23614
6948.27258,0.17407
6950.20105,0.08401
6952.12952,0.03331
6954.05799,-0.01678
6955.98645,-0.07699
6957.91492,-0.07217
6959.84339,0.00741
6961.77186,0.01632
6963.70033,-0.09609
6965.62880,-0.18158
6967.55727,-0.15208
6969.48573,-0.02172
6971.41420,0.10077
6973.34267,0.09959
6975.27114,0.03855
6977.19961,0.04043
6979.12808,0.10062
6981.05655,0.14695
6982.98501,0.16195
6984.91348,0.18031
6986.84195,0.20038
6988.77042,0.12758
6990.69889,-0.06353
6992.62736,-0.19474
6994.55583,-0.19180
6996.48430,-0.11605
6998.41276,-0.01555
7000.34123,0.01187
7002.26970,-0.06888
7004.19817,-0.10686
7006.12664,-0.00271
7008.05511,0.12993
7009.98358,0.20846
7011.91204,0.27843
7013.84051,0.25442
7015.76898,0.12102
7017.69745,0.02250
7019.62592,-0.00714
7021.55439,0.02629
7023.48286,0.12775
7025.41133,0.21315
7027.33979,0.19351
7029.26826,0.07662
7031.19673,0.01838
7033.12520,0.09953
7035.05367,0.15274
7036.98214,0.10487
7038.91061,0.13240
7040.83907,0.21809
7042.76754,0.21507
7044.69601,0.13413
7046.62448,-0.01557
7048.55295,-0.21368
7050.48142,-0.27199
7052.40989,-0.16506
7054.33836,-0.03308
7056.26682,0.07640
7058.19529,0.14471
7060.12376,0.08403
7062.05223,-0.01457
7063.98070,-0.01415
7065.90917,0.06264
7067.83764,0.12465
7069.76610,0.16104
7071.69457,0.19035
7073.62304,0.17014
7075.55151,0.15124
7077.47998,0.17381
7079.40845,0.15781
7081.33692,0.07337
7083.26539,0.04184
7085.19385,0.10145
7087.12232,0.16784
7089.05079,0.13113
7090.97926,0.01072
7092.90773,-0.03569
7094.83620,-0.01261
7096.76467,-0.05117
7098.69313,-0.04976
7100.62160,0.05789
7102.55007,0.11031
7104.47854,0.07455
7106.40701,0.01250
7108.33548,-0.06782
7110.26395,-0.10558
7112.19242,-0.04944
7114.12088,0.00703
7116.04935,0.02869
7117.97782,0.03129
7119.90629,-0.03331
7121.83476,-0.12310
7123.76323,-0.15148
7125.69170,-0.07531
7127.62016,0.01204
7129.54863,0.02143
7131.47710,0.02960
7133.40557,0.07318
7135.33404,0.13198
7137.26251,0.13820
7139.19098,0.00325
7141.11944,-0.10264
7143.04791,-0.08978
7144.97638,-0.16253
7146.90485,-0.19796
7148.83332,-0.02413
7150.76179,0.13535
7152.69026,0.17646
7154.61873,0.23495
7156.54719,0.27474
7158.47566,0.22540
7160.40413,0.19102
7162.33260,0.19075
7164.26107,0.17971
7166.18954,0.17884
7168.11801,0.21662
7170.04647,0.25773
7171.97494,0.23923
7173.90341,0.22279
7175.83188,0.23489
7177.76035,0.19434
7179.68882,0.14315
7181.61729,0.20822
7183.54576,0.30882
7185.47422,0.21533
7187.40269,0.05971
7189.33116,0.04852
7191.25963,0.13736
7193.18810,0.11169
7195.11657,-0.03697
7197.04504,-0.11589
7198.97350,-0.04711
7200.90197,0.08065
7202.83044,0.16420
7204.75891,0.06286
7206.68738,-0.07989
7208.61585,-0.02140
7210.54432,0.08091
7212.47279,0.11487
7214.40125,0.10657
7216.32972,0.03608
7218.25819,-0.03583
7220.18666,-0.01721
7222.11513,0.03337
7224.04360,0.06233
7225.97207,0.05290
7227.90053,0.08455
7229.82900,0.07060
7231.75747,-0.08678
7233.68594,-0.12965
7235.61441,-0.01545
7237.54288,0.11309
7239.47135,0.14745
7241.39982,0.04754
7243.32828,-0.07640
7245.25675,-0.08607
7247.18522,-0.00103
7249.11369,0.17266
7251.04216,0.33169
7252.97063,0.28424
7254.89910,0.11600
7256.82756,0.01671
7258.75603,-0.00591
7260.68450,0.07254
7262.61297,0.21302
7264.54144,0.35822
7266.46991,0.38578
7268.39838,0.30184
7270.32685,0.27679
7272.25531,0.25742
7274.18378,0.07815
7276.11225,-0.09063
7278.04072,-0.10701
7279.96919,0.07589
7281.89766,0.32193
7283.82613,0.45693
7285.75459,0.42875
7287.68306,0.25997
7289.61153,0.09875
7291.54000,0.07880
7293.46847,0.12879
7295.39694,0.11385
7297.32541,0.01176
7299.25387,-0.01913
7301.18234,0.12252
7303.11081,0.24481
7305.03928,0.29856
7306.96775,0.42886
7308.89622,0.41915
7310.82469,0.24643
7312.75316,0.23228
7314.68162,0.32394
7316.61009,0.24219
7318.53856,-0.06408
7320.46703,-0.27427
7322.39550,-0.26291
7324.32397,-0.03894
7326.25244,0.24391
7328.18090,0.32162
7330.10937,0.08911
7332.03784,-0.04871
7333.96631,0.04121
7335.89478,0.09883
7337.82325,0.05778
7339.75172,0.05029
7341.68019,0.11557
7343.60865,0.11620
7345.53712,0.06931
7347.46559,0.07865
7349.39406,0.19286
7351.32253,0.23999
7353.25100,0.11144
7355.17947,-0.02718
7357.10793,0.02658
7359.03640,0.26604
7360.96487,0.39832
7362.89334,0.35889
7364.82181,0.27250
7366.75028,0.17334
7368.67875,0.06806
7370.60722,-0.02692
7372.53568,-0.09290
7374.46415,-0.12684
7376.39262,-0.19686
7378.32109,-0.24346
7380.24956,-0.08066
7382.17803,0.25745
7384.10650,0.40767
7386.03496,0.26130
7387.96343,0.13583
7389.89190,0.12044
7391.82037,0.05473
7393.74884,0.00977
7395.67731,0.07953
7397.60578,0.12121
7399.53425,0.07942
7401.46271,0.04020
7403.39118,0.01183
7405.31965,-0.08937
7407.24812,-0.20932
7409.17659,-0.16530
7411.10506,-0.05743
7413.03353,-0.06720
7414.96199,-0.07222
7416.89046,0.11806
7418.81893,0.40578
7420.74740,0.40460
7422.67587,0.29556
7424.60434,0.28042
7426.53281,0.28126
7428.46128,0.29985
7430.38974,0.33837
7432.31821,0.33264
7434.24668,0.28552
7436.17515,0.28893
7438.10362,0.34617
7440.03209,0.36348
7441.96056,0.29511
7443.88902,0.14103
7445.81749,0.07816
7447.74596,0.16432
7449.67443,0.17926
7451.60290,0.03231
7453.53137,-0.07541
7455.45984,-0.07803
7457.38831,-0.01862
7459.31677,0.07392
7461.24524,0.11820
7463.17371,0.13332
7465.10218,0.18382
7467.03065,0.27446
7468.95912,0.31927
7470.88759,0.22813
7472.81605,0.11118
7474.74452,0.00541
7476.67299,-0.26199
7478.60146,-0.45013
7480.52993,-0.20800
7482.45840,0.07525
7484.38687,0.09262
7486.31533,0.00680
7488.24380,-0.12084
7490.17227,-0.20098
7492.10074,-0.13722
7494.02921,-0.01809
7495.95768,0.06983
7497.88615,0.16539
