399.19301,1.42541
401.12148,1.51750
403.04995,1.02982
404.97842,0.69402
406.90689,0.80982
408.83536,0.64754
410.76382,0.06775
412.69229,0.55253
414.62076,1.48303
416.54923,0.72956
418.47770,-0.52268
420.40617,0.82257
422.33464,1.93018
424.26311,1.47789
426.19157,0.79211
428.12004,0.48628
430.04851,0.25574
431.97698,-0.01958
433.90545,-0.16240
435.83392,-0.19234
437.76239,-0.13609
439.69085,-0.05085
441.61932,-0.03512
443.54779,-0.06721
445.47626,-0.03382
447.40473,0.05224
449.33320,0.08302
451.26167,0.03636
453.19013,0.00280
455.11860,0.04160
457.04707,0.08575
458.97554,0.07887
460.90401,0.05592
462.83248,0.04916
464.76095,0.08476
466.68942,0.13697
468.61788,0.15796
470.54635,0.16259
472.47482,0.10126
474.40329,-0.01660
476.33176,0.05374
478.26023,0.12996
480.18870,0.10597
482.11716,0.08663
484.04563,0.14915
485.97410,0.20718
487.90257,0.21365
489.83104,0.20431
491.75951,0.14316
493.68798,0.04962
495.61645,0.01668
497.54491,0.05470
499.47338,0.10696
501.40185,0.14231
503.33032,0.13972
505.25879,0.14495
507.18726,0.18691
509.11573,0.19514
511.04419,0.15748
512.97266,0.10452
514.90113,0.08483
516.82960,0.13388
518.75807,0.16683
520.68654,0.13344
522.61501,0.10423
524.54348,0.10534
526.47194,0.11836
528.40041,0.13771
530.32888,0.14266
532.25735,0.12406
534.18582,0.09025
536.11429,0.08123
538.04276,0.12274
539.97122,0.16504
541.89969,0.18013
543.82816,0.16002
545.75663,0.11087
547.68510,0.08562
549.61357,0.07328
551.54204,-0.00139
553.47051,-0.07727
555.39897,-0.05630
557.32744,0.01750
559.25591,0.09452
561.18438,0.16691
563.11285,0.18580
565.04132,0.15185
566.96979,0.12456
568.89825,0.11577
570.82672,0.10973
572.75519,0.11371
574.68366,0.13020
576.61213,0.13513
578.54060,0.10847
580.46907,0.08006
582.39754,0.09078
584.32600,0.10972
586.25447,0.10415
588.18294,0.09675
590.11141,0.10517
592.03988,0.12205
593.96835,0.12923
595.89682,0.11963
597.82528,0.09267
599.75375,0.07088
601.68222,0.08413
603.61069,0.10696
605.53916,0.12144
607.46763,0.14380
609.39610,0.15786
611.32456,0.15168
613.25303,0.14433
615.18150,0.14290
617.10997,0.13730
619.03844,0.12449
620.96691,0.10901
622.89538,0.09786
624.82385,0.09806
626.75231,0.09984
628.68078,0.08594
630.60925,0.05326
632.53772,0.02973
634.46619,0.06384
636.39466,0.12886
638.32313,0.16824
640.25159,0.18381
642.18006,0.18005
644.10853,0.15895
646.03700,0.14167
647.96547,0.13816
649.89394,0.13384
651.82241,0.10975
653.75088,0.09093
655.67934,0.09955
657.60781,0.10071
659.53628,0.09085
661.46475,0.11368
663.39322,0.15281
665.32169,0.16625
667.25016,0.17052
669.17862,0.18396
671.10709,0.16998
673.03556,0.14810
674.96403,0.13836
676.89250,0.14589
678.82097,0.15746
680.74944,0.14867
682.67791,0.13306
684.60637,0.12997
686.53484,0.13779
688.46331,0.16098
690.39178,0.18602
692.32025,0.18384
694.24872,0.15970
696.17719,0.14104
698.10565,0.12766
700.03412,0.11606
701.96259,0.12295
703.89106,0.13891
705.81953,0.13489
707.74800,0.12857
709.67647,0.17011
711.60494,0.23703
713.53340,0.24495
715.46187,0.19490
717.39034,0.15966
719.31881,0.15350
721.24728,0.15360
723.17575,0.15408
725.10422,0.15536
727.03268,0.15721
728.96115,0.16071
730.88962,0.16527
732.81809,0.16581
734.74656,0.16199
736.67503,0.15456
738.60350,0.13885
740.53197,0.12941
742.46043,0.14387
744.38890,0.16858
746.31737,0.18246
748.24584,0.17921
750.17431,0.16325
752.10278,0.14886
754.03125,0.14909
755.95971,0.15989
757.88818,0.16044
759.81665,0.14349
761.74512,0.13046
763.67359,0.13203
765.60206,0.13713
767.53053,0.14015
769.45900,0.14091
771.38746,0.13688
773.31593,0.13148
775.24440,0.13738
777.17287,0.15633
779.10134,0.17102
781.02981,0.16929
782.95828,0.16040
784.88674,0.15287
786.81521,0.14063
788.74368,0.11849
790.67215,0.10200
792.60062,0.11916
794.52909,0.15130
796.45756,0.16182
798.38602,0.16241
800.31449,0.16311
802.24296,0.15742
804.17143,0.15028
806.09990,0.14971
808.02837,0.14868
809.95684,0.14015
811.88531,0.13243
813.81377,0.13241
815.74224,0.13760
817.67071,0.13954
819.59918,0.13765
821.52765,0.14237
823.45612,0.15513
825.38459,0.15874
827.31305,0.14635
829.24152,0.13654
831.16999,0.14034
833.09846,0.14804
835.02693,0.15260
836.95540,0.15370
838.88387,0.14101
840.81234,0.12194
842.74080,0.12562
844.66927,0.14938
846.59774,0.15808
848.52621,0.14726
850.45468,0.14097
852.38315,0.14289
854.31162,0.14339
856.24008,0.14625
858.16855,0.15981
860.09702,0.17292
862.02549,0.17296
863.95396,0.16790
865.88243,0.16593
867.81090,0.16392
869.73937,0.16325
871.66783,0.17423
873.59630,0.18321
875.52477,0.17253
877.45324,0.15625
879.38171,0.14523
881.31018,0.14188
883.23865,0.15167
885.16711,0.16425
887.09558,0.16531
889.02405,0.15856
890.95252,0.14674
892.88099,0.12892
894.80946,0.11906
896.73793,0.12376
898.66640,0.13297
900.59486,0.14331
902.52333,0.15102
904.45180,0.15105
906.38027,0.15289
908.30874,0.16420
910.23721,0.17314
912.16568,0.16606
914.09414,0.15208
916.02261,0.14661
917.95108,0.15382
919.87955,0.16661
921.80802,0.16847
923.73649,0.16094
925.66496,0.15798
927.59343,0.15706
929.52189,0.15115
931.45036,0.14487
933.37883,0.14398
935.30730,0.14507
937.23577,0.14658
939.16424,0.15185
941.09271,0.15889
943.02117,0.15972
944.94964,0.14967
946.87811,0.13237
948.80658,0.12291
950.73505,0.13515
952.66352,0.15526
954.59199,0.16453
956.52045,0.16617
958.44892,0.16341
960.37739,0.15453
962.30586,0.14405
964.23433,0.13894
966.16280,0.14150
968.09127,0.14768
970.01974,0.15415
971.94820,0.16242
973.87667,0.16805
975.80514,0.16665
977.73361,0.16554
979.66208,0.16637
981.59055,0.16463
983.51902,0.15937
985.44748,0.15282
987.37595,0.15084
989.30442,0.15256
991.23289,0.15396
993.16136,0.15630
995.08983,0.16190
997.01830,0.16686
998.94677,0.16375
1000.87523,0.15901
1002.80370,0.15898
1004.73217,0.15720
1006.66064,0.15832
1008.58911,0.17016
1010.51758,0.18085
1012.44605,0.17841
1014.37451,0.17138
1016.30298,0.16940
1018.23145,0.17006
1020.15992,0.16833
1022.08839,0.16082
1024.01686,0.15124
1025.94533,0.14600
1027.87380,0.14852
1029.80226,0.15874
1031.73073,0.17091
1033.65920,0.17845
1035.58767,0.17563
1037.51614,0.16781
1039.44461,0.16807
1041.37308,0.17703
1043.30154,0.18470
1045.23001,0.18207
1047.15848,0.17486
1049.08695,0.17530
1051.01542,0.17912
1052.94389,0.17645
1054.87236,0.17207
1056.80083,0.16926
1058.72929,0.16092
1060.65776,0.15451
1062.58623,0.16058
1064.51470,0.16977
1066.44317,0.17270
1068.37164,0.17075
1070.30011,0.17057
1072.22857,0.17460
1074.15704,0.17145
1076.08551,0.16208
1078.01398,0.16081
1079.94245,0.16768
1081.87092,0.17448
1083.79939,0.17365
1085.72786,0.16671
1087.65632,0.16556
1089.58479,0.17311
1091.51326,0.18108
1093.44173,0.18549
1095.37020,0.19069
1097.29867,0.19726
1099.22714,0.20040
1101.15560,0.19765
1103.08407,0.19202
1105.01254,0.18643
1106.94101,0.18110
1108.86948,0.17841
1110.79795,0.17708
1112.72642,0.17527
1114.65489,0.17142
1116.58335,0.16372
1118.51182,0.15934
1120.44029,0.16159
1122.36876,0.16392
1124.29723,0.16586
1126.22570,0.16997
1128.15417,0.17210
1130.08263,0.16829
1132.01110,0.16177
1133.93957,0.16456
1135.86804,0.17590
1137.79651,0.17789
1139.72498,0.17255
1141.65345,0.16992
1143.58191,0.17016
1145.51038,0.17526
1147.43885,0.17933
1149.36732,0.17778
1151.29579,0.17804
1153.22426,0.18463
1155.15273,0.19263
1157.08120,0.19429
1159.00966,0.18942
1160.93813,0.18492
1162.86660,0.18578
1164.79507,0.18801
1166.72354,0.18114
1168.65201,0.16732
1170.58048,0.16181
1172.50894,0.16655
1174.43741,0.17160
1176.36588,0.17394
1178.29435,0.17620
1180.22282,0.17831
1182.15129,0.17741
1184.07976,0.17507
1186.00823,0.17345
1187.93669,0.17188
1189.86516,0.17336
1191.79363,0.17756
1193.72210,0.17850
1195.65057,0.17659
1197.57904,0.17675
1199.50751,0.17685
1201.43597,0.17360
1203.36444,0.17345
1205.29291,0.17885
1207.22138,0.18125
1209.14985,0.18210
1211.07832,0.18711
1213.00679,0.18784
1214.93526,0.18209
1216.86372,0.17878
1218.79219,0.17952
1220.72066,0.18026
1222.64913,0.17818
1224.57760,0.17699
1226.50607,0.17967
1228.43454,0.18252
1230.36300,0.18378
1232.29147,0.18442
1234.21994,0.18394
1236.14841,0.17987
1238.07688,0.17610
1240.00535,0.17915
1241.93382,0.18438
1243.86229,0.18533
1245.79075,0.18400
1247.71922,0.18435
1249.64769,0.18525
1251.57616,0.18199
1253.50463,0.17567
1255.43310,0.17184
1257.36157,0.17196
1259.29003,0.17551
1261.21850,0.17846
1263.14697,0.17658
1265.07544,0.17572
1267.00391,0.17891
1268.93238,0.18060
1270.86085,0.17977
1272.78932,0.18009
1274.71778,0.18174
1276.64625,0.18198
1278.57472,0.18142
1280.50319,0.18320
1282.43166,0.18728
1284.36013,0.18900
1286.28860,0.18688
1288.21706,0.18460
1290.14553,0.18445
1292.07400,0.18642
1294.00247,0.18924
1295.93094,0.18954
1297.85941,0.18506
1299.78788,0.17962
1301.71634,0.17519
1303.64481,0.17238
1305.57328,0.17617
1307.50175,0.18354
1309.43022,0.18776
1311.35869,0.19052
1313.28716,0.19279
1315.21563,0.19167
1317.14409,0.18891
1319.07256,0.18737
1321.00103,0.18644
1322.92950,0.18690
1324.85797,0.18821
1326.78644,0.18857
1328.71491,0.18724
1330.64337,0.18305
1332.57184,0.17976
1334.50031,0.18140
1336.42878,0.18496
1338.35725,0.18751
1340.28572,0.18392
1342.21419,0.17710
1344.14266,0.17562
1346.07112,0.17271
1347.99959,0.17038
1349.92806,0.17561
1351.85653,0.17876
1353.78500,0.17845
1355.71347,0.17942
1357.64194,0.18138
1359.57040,0.18427
1361.49887,0.18785
1363.42734,0.19270
1365.35581,0.19565
1367.28428,0.19395
1369.21275,0.18835
1371.14122,0.18392
1373.06969,0.18444
1374.99815,0.18684
1376.92662,0.18892
1378.85509,0.19163
1380.78356,0.19314
1382.71203,0.19402
1384.64050,0.19681
1386.56897,0.20083
1388.49743,0.20336
1390.42590,0.20279
1392.35437,0.20219
1394.28284,0.20407
1396.21131,0.20593
1398.13978,0.20336
1400.06825,0.19822
1401.99672,0.19704
1403.92518,0.19962
1405.85365,0.20214
1407.78212,0.20239
1409.71059,0.20152
1411.63906,0.19973
1413.56753,0.19688
1415.49600,0.19923
1417.42446,0.20742
1419.35293,0.20748
1421.28140,0.20206
1423.20987,0.20344
1425.13834,0.20519
1427.06681,0.20639
1428.99528,0.21167
1430.92375,0.21363
1432.85221,0.21005
1434.78068,0.21121
1436.70915,0.21403
1438.63762,0.20742
1440.56609,0.20108
1442.49456,0.20011
1444.42303,0.20195
1446.35149,0.20610
1448.27996,0.21006
1450.20843,0.20908
1452.13690,0.20566
1454.06537,0.20956
1455.99384,0.22807
1457.92231,0.23616
1459.85077,0.21839
1461.77924,0.20914
1463.70771,0.20969
1465.63618,0.20755
1467.56465,0.20294
1469.49312,0.20645
1471.42159,0.21818
1473.35006,0.22596
1475.27852,0.22156
1477.20699,0.21314
1479.13546,0.20747
1481.06393,0.20614
1482.99240,0.20526
1484.92087,0.20765
1486.84934,0.21913
1488.77780,0.22974
1490.70627,0.22301
1492.63474,0.21401
1494.56321,0.21442
1496.49168,0.21833
1498.42015,0.21265
1500.34862,0.19280
1502.27709,0.17523
1504.20555,0.18287
1506.13402,0.23205
1508.06249,0.25655
1509.99096,0.23010
1511.91943,0.21750
1513.84790,0.21991
1515.77637,0.22607
1517.70483,0.22851
1519.63330,0.23546
1521.56177,0.24614
1523.49024,0.24312
1525.41871,0.23516
1527.34718,0.22569
1529.27565,0.21550
1531.20412,0.21144
1533.13258,0.21385
1535.06105,0.21850
1536.98952,0.22750
1538.91799,0.25162
1540.84646,0.27608
1542.77493,0.26398
1544.70340,0.23844
1546.63186,0.21482
1548.56033,0.20386
1550.48880,0.20441
1552.41727,0.20898
1554.34574,0.21606
1556.27421,0.22704
1558.20268,0.24311
1560.13115,0.23771
1562.05961,0.22173
1563.98808,0.21410
1565.91655,0.21205
1567.84502,0.21779
1569.77349,0.22342
1571.70196,0.21679
1573.63043,0.21010
1575.55889,0.20822
1577.48736,0.20434
1579.41583,0.19652
1581.34430,0.18710
1583.27277,0.18227
1585.20124,0.18666
1587.12971,0.19396
1589.05818,0.19869
1590.98664,0.20078
1592.91511,0.19856
1594.84358,0.19154
1596.77205,0.18618
1598.70052,0.18956
1600.62899,0.19767
1602.55746,0.20080
1604.48592,0.19836
1606.41439,0.19532
1608.34286,0.19310
1610.27133,0.19299
1612.19980,0.19653
1614.12827,0.20681
1616.05674,0.22400
1617.98521,0.22741
1619.91367,0.21797
1621.84214,0.21602
1623.77061,0.21781
1625.69908,0.21405
1627.62755,0.21041
1629.55602,0.20990
1631.48449,0.21268
1633.41295,0.22231
1635.34142,0.23633
1637.26989,0.23127
1639.19836,0.21679
1641.12683,0.21207
1643.05530,0.21806
1644.98377,0.23320
1646.91223,0.24700
1648.84070,0.24500
1650.76917,0.24762
1652.69764,0.26119
1654.62611,0.25097
1656.55458,0.23458
1658.48305,0.23196
1660.41152,0.23757
1662.33998,0.23806
1664.26845,0.22362
1666.19692,0.21526
1668.12539,0.22509
1670.05386,0.23719
1671.98233,0.23611
1673.91080,0.23281
1675.83926,0.22905
1677.76773,0.22642
1679.69620,0.22929
1681.62467,0.24010
1683.55314,0.25495
1685.48161,0.24855
1687.41008,0.23072
1689.33855,0.22093
1691.26701,0.22050
1693.19548,0.22897
1695.12395,0.24360
1697.05242,0.25159
1698.98089,0.24527
1700.90936,0.23184
1702.83783,0.22565
1704.76629,0.22764
1706.69476,0.22686
1708.62323,0.22068
1710.55170,0.21649
1712.48017,0.21685
1714.40864,0.22230
1716.33711,0.23334
1718.26558,0.23534
1720.19404,0.22464
1722.12251,0.21588
1724.05098,0.20854
1725.97945,0.20311
1727.90792,0.20540
1729.83639,0.21411
1731.76486,0.22401
1733.69332,0.22956
1735.62179,0.22448
1737.55026,0.22164
1739.47873,0.22305
1741.40720,0.22069
1743.33567,0.21666
1745.26414,0.21690
1747.19261,0.22160
1749.12107,0.22565
1751.04954,0.22181
1752.97801,0.21486
1754.90648,0.21266
1756.83495,0.21257
1758.76342,0.21141
1760.69189,0.21285
1762.62035,0.21399
1764.54882,0.21223
1766.47729,0.21420
1768.40576,0.22136
1770.33423,0.23004
1772.26270,0.23126
1774.19117,0.22000
1776.11964,0.21066
1778.04810,0.20926
1779.97657,0.21106
1781.90504,0.20992
1783.83351,0.20779
1785.76198,0.20814
1787.69045,0.21134
1789.61892,0.21895
1791.54738,0.22703
1793.47585,0.22778
1795.40432,0.22615
1797.33279,0.22386
1799.26126,0.21834
1801.18973,0.21317
1803.11820,0.21062
1805.04666,0.21101
1806.97513,0.21481
1808.90360,0.21830
1810.83207,0.21671
1812.76054,0.21112
1814.68901,0.20865
1816.61748,0.20769
1818.54595,0.20318
1820.47441,0.20313
1822.40288,0.20961
1824.33135,0.21350
1826.25982,0.21416
1828.18829,0.21525
1830.11676,0.21404
1832.04523,0.21005
1833.97369,0.20910
1835.90216,0.21159
1837.83063,0.21146
1839.75910,0.20920
1841.68757,0.21237
1843.61604,0.21862
1845.54451,0.21672
1847.47298,0.21013
1849.40144,0.20605
1851.32991,0.20511
1853.25838,0.20620
1855.18685,0.20685
1857.11532,0.20562
1859.04379,0.20410
1860.97226,0.20540
1862.90072,0.20853
1864.82919,0.21170
1866.75766,0.21604
1868.68613,0.21816
1870.61460,0.21193
1872.54307,0.20417
1874.47154,0.20228
1876.40001,0.20376
1878.32847,0.20393
1880.25694,0.20316
1882.18541,0.20456
1884.11388,0.20939
1886.04235,0.21485
1887.97082,0.21618
1889.89929,0.21138
1891.82775,0.20680
1893.75622,0.20719
1895.68469,0.20896
1897.61316,0.20972
1899.54163,0.21045
1901.47010,0.21002
1903.39857,0.20788
1905.32704,0.20668
1907.25550,0.20758
1909.18397,0.20822
1911.11244,0.20673
1913.04091,0.20490
1914.96938,0.20516
1916.89785,0.20808
1918.82632,0.21077
1920.75478,0.21108
1922.68325,0.21086
1924.61172,0.20936
1926.54019,0.20592
1928.46866,0.20369
1930.39713,0.20460
1932.32560,0.20554
1934.25407,0.20400
1936.18253,0.20201
1938.11100,0.20177
1940.03947,0.20391
1941.96794,0.20710
1943.89641,0.20841
1945.82488,0.20871
1947.75335,0.21042
1949.68181,0.21118
1951.61028,0.20861
1953.53875,0.20500
1955.46722,0.20319
1957.39569,0.20359
1959.32416,0.20595
1961.25263,0.20837
1963.18110,0.20720
1965.10956,0.20501
1967.03803,0.20625
1968.96650,0.20777
1970.89497,0.20713
1972.82344,0.20679
1974.75191,0.20576
1976.68038,0.20274
1978.60884,0.20386
1980.53731,0.20872
1982.46578,0.20913
1984.39425,0.20630
1986.32272,0.20471
1988.25119,0.20504
1990.17966,0.20638
1992.10812,0.20681
1994.03659,0.20596
1995.96506,0.20503
1997.89353,0.20541
1999.82200,0.20663
2001.75047,0.20858
2003.67894,0.21090
2005.60741,0.21057
2007.53587,0.20796
2009.46434,0.20572
2011.39281,0.20369
2013.32128,0.20307
2015.24975,0.20537
2017.17822,0.20663
2019.10669,0.20514
2021.03515,0.20505
2022.96362,0.20604
2024.89209,0.20536
2026.82056,0.20426
2028.74903,0.20479
2030.67750,0.20636
2032.60597,0.20820
2034.53444,0.21001
2036.46290,0.20986
2038.39137,0.20772
2040.31984,0.20539
2042.24831,0.20445
2044.17678,0.20664
2046.10525,0.20910
2048.03372,0.20879
2049.96218,0.20893
2051.89065,0.20964
2053.81912,0.20791
2055.74759,0.20660
2057.67606,0.20731
2059.60453,0.20755
2061.53300,0.20843
2063.46147,0.21069
2065.38993,0.21273
2067.31840,0.21478
2069.24687,0.21440
2071.17534,0.20962
2073.10381,0.20599
2075.03228,0.20633
2076.96075,0.20665
2078.88921,0.20649
2080.81768,0.20639
2082.74615,0.20477
2084.67462,0.20475
2086.60309,0.20746
2088.53156,0.20775
2090.46003,0.20527
2092.38850,0.20539
2094.31696,0.20910
2096.24543,0.21098
2098.17390,0.20841
2100.10237,0.20576
2102.03084,0.20524
2103.95931,0.20588
2105.88778,0.20840
2107.81624,0.21038
2109.74471,0.20917
2111.67318,0.20892
2113.60165,0.21090
2115.53012,0.21180
2117.45859,0.21265
2119.38706,0.21282
2121.31553,0.20982
2123.24399,0.20722
2125.17246,0.20831
2127.10093,0.21021
2129.02940,0.21038
2130.95787,0.20780
2132.88634,0.20108
2134.81481,0.19573
2136.74327,0.19797
2138.67174,0.20362
2140.60021,0.20673
2142.52868,0.20662
2144.45715,0.20481
2146.38562,0.20364
2148.31409,0.20506
2150.24255,0.20695
2152.17102,0.20705
2154.09949,0.20674
2156.02796,0.20694
2157.95643,0.20823
2159.88490,0.20986
2161.81337,0.21134
2163.74184,0.21246
2165.67030,0.21088
2167.59877,0.20790
2169.52724,0.20635
2171.45571,0.20609
2173.38418,0.20711
2175.31265,0.20877
2177.24112,0.21046
2179.16958,0.21264
2181.09805,0.21324
2183.02652,0.21077
2184.95499,0.20859
2186.88346,0.20921
2188.81193,0.21066
2190.74040,0.20956
2192.66887,0.20664
2194.59733,0.20648
2196.52580,0.20915
2198.45427,0.21008
2200.38274,0.20841
2202.31121,0.20796
2204.23968,0.21063
2206.16815,0.21358
2208.09661,0.21403
2210.02508,0.21360
2211.95355,0.21416
2213.88202,0.21395
2215.81049,0.21071
2217.73896,0.20648
2219.66743,0.20633
2221.59590,0.20941
2223.52436,0.21036
2225.45283,0.20962
2227.38130,0.20987
2229.30977,0.21009
2231.23824,0.21071
2233.16671,0.21210
2235.09518,0.21146
2237.02364,0.21030
2238.95211,0.21141
2240.88058,0.21214
2242.80905,0.21079
2244.73752,0.20841
2246.66599,0.20506
2248.59446,0.20173
2250.52293,0.20123
2252.45139,0.20373
2254.37986,0.20691
2256.30833,0.21062
2258.23680,0.21320
2260.16527,0.21153
2262.09374,0.20756
2264.02221,0.20579
2265.95067,0.20692
2267.87914,0.20850
2269.80761,0.20967
2271.73608,0.20985
2273.66455,0.20788
2275.59302,0.20580
2277.52149,0.20724
2279.44996,0.21049
2281.37842,0.21026
2283.30689,0.20732
2285.23536,0.20493
2287.16383,0.20334
2289.09230,0.20302
2291.02077,0.20361
2292.94924,0.20584
2294.87770,0.20968
2296.80617,0.20942
2298.73464,0.20492
2300.66311,0.20274
2302.59158,0.20205
2304.52005,0.19913
2306.44852,0.19643
2308.37699,0.19647
2310.30545,0.19806
2312.23392,0.19890
2314.16239,0.19831
2316.09086,0.19840
2318.01933,0.19819
2319.94780,0.19580
2321.87627,0.19298
2323.80473,0.18965
2325.73320,0.18849
2327.66167,0.19255
2329.59014,0.19510
2331.51861,0.18946
2333.44708,0.18483
2335.37555,0.19027
2337.30401,0.19712
2339.23248,0.19824
2341.16095,0.19700
2343.08942,0.19662
2345.01789,0.19775
2346.94636,0.20004
2348.87483,0.20096
2350.80330,0.19683
2352.73176,0.18772
2354.66023,0.18360
2356.58870,0.18611
2358.51717,0.18072
2360.44564,0.18088
2362.37411,0.19083
2364.30258,0.18654
2366.23104,0.18139
2368.15951,0.18882
2370.08798,0.19665
2372.01645,0.19792
2373.94492,0.19567
2375.87339,0.19659
2377.80186,0.20194
2379.73033,0.20651
2381.65879,0.20591
2383.58726,0.20240
2385.51573,0.20281
2387.44420,0.20879
2389.37267,0.21385
2391.30114,0.21380
2393.22961,0.21122
2395.15807,0.20963
2397.08654,0.21069
2399.01501,0.21270
2400.94348,0.21281
2402.87195,0.21189
2404.80042,0.21070
2406.72889,0.20912
2408.65736,0.20928
2410.58582,0.21047
2412.51429,0.21066
2414.44276,0.21026
2416.37123,0.20900
2418.29970,0.20793
2420.22817,0.20845
2422.15664,0.20839
2424.08510,0.20698
2426.01357,0.20758
2427.94204,0.21026
2429.87051,0.21152
2431.79898,0.21005
2433.72745,0.20731
2435.65592,0.20629
2437.58439,0.20690
2439.51285,0.20593
2441.44132,0.20398
2443.36979,0.20454
2445.29826,0.20637
2447.22673,0.20711
2449.15520,0.20793
2451.08367,0.20776
2453.01213,0.20609
2454.94060,0.20736
2456.86907,0.21205
2458.79754,0.21272
2460.72601,0.20697
2462.65448,0.20201
2464.58295,0.20136
2466.51142,0.20187
2468.43988,0.20273
2470.36835,0.20622
2472.29682,0.21104
2474.22529,0.21292
2476.15376,0.21085
2478.08223,0.20822
2480.01070,0.20871
2481.93916,0.21144
2483.86763,0.21367
2485.79610,0.21427
2487.72457,0.21291
2489.65304,0.21072
2491.58151,0.20869
2493.50998,0.20732
2495.43844,0.20776
2497.36691,0.20899
2499.29538,0.20945
2501.22385,0.21109
2503.15232,0.21412
2505.08079,0.21423
2507.00926,0.21060
2508.93773,0.20805
2510.86619,0.20824
2512.79466,0.20936
2514.72313,0.21138
2516.65160,0.21277
2518.58007,0.21137
2520.50854,0.20801
2522.43701,0.20559
2524.36547,0.20679
2526.29394,0.21008
2528.22241,0.21132
2530.15088,0.21050
2532.07935,0.21133
2534.00782,0.21290
2535.93629,0.21353
2537.86476,0.21503
2539.79322,0.21535
2541.72169,0.21281
2543.65016,0.21146
2545.57863,0.21389
2547.50710,0.21631
2549.43557,0.21528
2551.36404,0.21361
2553.29250,0.21340
2555.22097,0.21376
2557.14944,0.21366
2559.07791,0.21222
2561.00638,0.21170
2562.93485,0.21363
2564.86332,0.21458
2566.79179,0.21275
2568.72025,0.21113
2570.64872,0.21059
2572.57719,0.20973
2574.50566,0.21009
2576.43413,0.21218
2578.36260,0.21353
2580.29107,0.21489
2582.21953,0.21633
2584.14800,0.21409
2586.07647,0.20967
2588.00494,0.20808
2589.93341,0.20851
2591.86188,0.20932
2593.79035,0.21204
2595.71882,0.21419
2597.64728,0.21215
2599.57575,0.20843
2601.50422,0.20707
2603.43269,0.20852
2605.36116,0.21091
2607.28963,0.21532
2609.21810,0.22111
2611.14656,0.22166
2613.07503,0.21627
2615.00350,0.21240
2616.93197,0.21357
2618.86044,0.21604
2620.78891,0.21697
2622.71738,0.21613
2624.64585,0.21420
2626.57431,0.21369
2628.50278,0.21507
2630.43125,0.21640
2632.35972,0.21619
2634.28819,0.21536
2636.21666,0.21522
2638.14513,0.21635
2640.07359,0.21832
2642.00206,0.21792
2643.93053,0.21654
2645.85900,0.21743
2647.78747,0.21828
2649.71594,0.21859
2651.64441,0.21966
2653.57288,0.21868
2655.50134,0.21501
2657.42981,0.21289
2659.35828,0.21328
2661.28675,0.21399
2663.21522,0.21429
2665.14369,0.21387
2667.07216,0.21288
2669.00062,0.21397
2670.92909,0.21763
2672.85756,0.21992
2674.78603,0.22034
2676.71450,0.21978
2678.64297,0.21882
2680.57144,0.22052
2682.49990,0.22274
2684.42837,0.22068
2686.35684,0.21666
2688.28531,0.21509
2690.21378,0.21509
2692.14225,0.21418
2694.07072,0.21360
2695.99919,0.21538
2697.92765,0.21749
2699.85612,0.21848
2701.78459,0.22086
2703.71306,0.22447
2705.64153,0.22620
2707.57000,0.22543
2709.49847,0.22301
2711.42693,0.22092
2713.35540,0.22191
2715.28387,0.22447
2717.21234,0.22502
2719.14081,0.22317
2721.06928,0.22073
2722.99775,0.22019
2724.92622,0.22071
2726.85468,0.21938
2728.78315,0.21805
2730.71162,0.21811
2732.64009,0.21913
2734.56856,0.22224
2736.49703,0.22525
2738.42550,0.22553
2740.35396,0.22379
2742.28243,0.22266
2744.21090,0.22493
2746.13937,0.22817
2748.06784,0.22854
2749.99631,0.22657
2751.92478,0.22410
2753.85325,0.22258
2755.78171,0.22238
2757.71018,0.22269
2759.63865,0.22274
2761.56712,0.22197
2763.49559,0.22108
2765.42406,0.22179
2767.35253,0.22378
2769.28099,0.22639
2771.20946,0.22891
2773.13793,0.22838
2775.06640,0.22557
2776.99487,0.22405
2778.92334,0.22341
2780.85181,0.22349
2782.78028,0.22601
2784.70874,0.22832
2786.63721,0.22651
2788.56568,0.22375
2790.49415,0.22525
2792.42262,0.22867
2794.35109,0.22970
2796.27956,0.22915
2798.20802,0.22759
2800.13649,0.22453
2802.06496,0.22336
2803.99343,0.22645
2805.92190,0.22938
2807.85037,0.22923
2809.77884,0.22936
2811.70731,0.22999
2813.63577,0.22910
2815.56424,0.22877
2817.49271,0.23072
2819.42118,0.23345
2821.34965,0.23604
2823.27812,0.23952
2825.20659,0.24083
2827.13505,0.23783
2829.06352,0.23491
2830.99199,0.23311
2832.92046,0.23144
2834.84893,0.23046
2836.77740,0.22753
2838.70587,0.22272
2840.63433,0.22073
2842.56280,0.22359
2844.49127,0.22931
2846.41974,0.23400
2848.34821,0.23530
2850.27668,0.23402
2852.20515,0.23231
2854.13362,0.23259
2856.06208,0.23545
2857.99055,0.23780
2859.91902,0.23742
2861.84749,0.23660
2863.77596,0.23465
2865.70443,0.22972
2867.63290,0.22638
2869.56136,0.22637
2871.48983,0.22712
2873.41830,0.22823
2875.34677,0.22943
2877.27524,0.23077
2879.20371,0.23103
2881.13218,0.22866
2883.06065,0.22695
2884.98911,0.22865
2886.91758,0.22954
2888.84605,0.22601
2890.77452,0.22283
2892.70299,0.22481
2894.63146,0.22842
2896.55993,0.22859
2898.48839,0.22557
2900.41686,0.22212
2902.34533,0.22033
2904.27380,0.22085
2906.20227,0.22359
2908.13074,0.22752
2910.05921,0.22913
2911.98768,0.22804
2913.91614,0.22919
2915.84461,0.23222
2917.77308,0.23125
2919.70155,0.22667
2921.63002,0.22424
2923.55849,0.22595
2925.48696,0.22763
2927.41542,0.22618
2929.34389,0.22483
2931.27236,0.22749
2933.20083,0.23094
2935.12930,0.22927
2937.05777,0.22508
2938.98624,0.22430
2940.91471,0.22685
2942.84317,0.22862
2944.77164,0.22636
2946.70011,0.22323
2948.62858,0.22532
2950.55705,0.22940
2952.48552,0.22898
2954.41399,0.22659
2956.34245,0.22539
2958.27092,0.22609
2960.19939,0.22949
2962.12786,0.23214
2964.05633,0.23123
2965.98480,0.22589
2967.91327,0.22165
2969.84174,0.22736
2971.77020,0.23575
2973.69867,0.23658
2975.62714,0.23138
2977.55561,0.22461
2979.48408,0.22265
2981.41255,0.22809
2983.34102,0.23464
2985.26948,0.23596
2987.19795,0.23228
2989.12642,0.22984
2991.05489,0.23219
2992.98336,0.23422
2994.91183,0.23280
2996.84030,0.23201
2998.76877,0.23330
3000.69723,0.23575
3002.62570,0.23858
3004.55417,0.23970
3006.48264,0.23889
3008.41111,0.23764
3010.33958,0.23686
3012.26805,0.23340
3014.19651,0.22258
3016.12498,0.21157
3018.05345,0.21458
3019.98192,0.22829
3021.91039,0.23635
3023.83886,0.23605
3025.76733,0.23518
3027.69579,0.23605
3029.62426,0.23605
3031.55273,0.23545
3033.48120,0.23770
3035.40967,0.24017
3037.33814,0.23757
3039.26661,0.23357
3041.19508,0.23368
3043.12354,0.23508
3045.05201,0.23234
3046.98048,0.22575
3048.90895,0.22158
3050.83742,0.22417
3052.76589,0.23058
3054.69436,0.23571
3056.62282,0.23703
3058.55129,0.23640
3060.47976,0.23742
3062.40823,0.23769
3064.33670,0.23278
3066.26517,0.22728
3068.19364,0.22882
3070.12211,0.23466
3072.05057,0.23814
3073.97904,0.23787
3075.90751,0.23549
3077.83598,0.23359
3079.76445,0.23306
3081.69292,0.23299
3083.62139,0.23229
3085.54985,0.23089
3087.47832,0.23279
3089.40679,0.23840
3091.33526,0.24145
3093.26373,0.23916
3095.19220,0.23522
3097.12067,0.23415
3099.04914,0.23653
3100.97760,0.23765
3102.90607,0.23377
3104.83454,0.23105
3106.76301,0.23570
3108.69148,0.24197
3110.61995,0.23981
3112.54842,0.23147
3114.47688,0.23049
3116.40535,0.23718
3118.33382,0.23991
3120.26229,0.23690
3122.19076,0.23471
3124.11923,0.23557
3126.04770,0.23597
3127.97617,0.23591
3129.90463,0.23676
3131.83310,0.23787
3133.76157,0.23933
3135.69004,0.24104
3137.61851,0.24290
3139.54698,0.24266
3141.47545,0.23898
3143.40391,0.23581
3145.33238,0.23605
3147.26085,0.23813
3149.18932,0.24031
3151.11779,0.24285
3153.04626,0.24523
3154.97473,0.24540
3156.90320,0.24323
3158.83166,0.24188
3160.76013,0.24278
3162.68860,0.24186
3164.61707,0.23806
3166.54554,0.23770
3168.47401,0.24211
3170.40248,0.24709
3172.33094,0.24972
3174.25941,0.24794
3176.18788,0.24338
3178.11635,0.23894
3180.04482,0.23746
3181.97329,0.23984
3183.90176,0.24262
3185.83022,0.24517
3187.75869,0.24791
3189.68716,0.24888
3191.61563,0.24735
3193.54410,0.24515
3195.47257,0.24474
3197.40104,0.24609
3199.32951,0.24733
3201.25797,0.24732
3203.18644,0.24482
3205.11491,0.23790
3207.04338,0.23152
3208.97185,0.23283
3210.90032,0.23729
3212.82879,0.23731
3214.75725,0.23313
3216.68572,0.22948
3218.61419,0.23040
3220.54266,0.23393
3222.47113,0.23630
3224.39960,0.23819
3226.32807,0.23856
3228.25654,0.23658
3230.18500,0.23833
3232.11347,0.24384
3234.04194,0.24447
3235.97041,0.24092
3237.89888,0.23826
3239.82735,0.23372
3241.75582,0.22793
3243.68428,0.22841
3245.61275,0.23400
3247.54122,0.23489
3249.46969,0.23239
3251.39816,0.23334
3253.32663,0.23518
3255.25510,0.23496
3257.18357,0.23386
3259.11203,0.23355
3261.04050,0.23640
3262.96897,0.24115
3264.89744,0.24252
3266.82591,0.23973
3268.75438,0.23540
3270.68285,0.23127
3272.61131,0.22957
3274.53978,0.22906
3276.46825,0.22950
3278.39672,0.23390
3280.32519,0.23810
3282.25366,0.23766
3284.18213,0.23909
3286.11060,0.24502
3288.03906,0.24657
3289.96753,0.24101
3291.89600,0.23601
3293.82447,0.23622
3295.75294,0.23770
3297.68141,0.23684
3299.60988,0.23499
3301.53834,0.23529
3303.46681,0.23848
3305.39528,0.24033
3307.32375,0.23910
3309.25222,0.23795
3311.18069,0.23622
3313.10916,0.23102
3315.03763,0.22649
3316.96609,0.22694
3318.89456,0.22991
3320.82303,0.23150
3322.75150,0.23150
3324.67997,0.23173
3326.60844,0.23112
3328.53691,0.23222
3330.46537,0.23819
3332.39384,0.24251
3334.32231,0.23939
3336.25078,0.23530
3338.17925,0.23615
3340.10772,0.23610
3342.03619,0.23506
3343.96466,0.23604
3345.89312,0.23530
3347.82159,0.23498
3349.75006,0.24038
3351.67853,0.24739
3353.60700,0.24756
3355.53547,0.24328
3357.46394,0.23953
3359.39240,0.23429
3361.32087,0.22973
3363.24934,0.23205
3365.17781,0.24046
3367.10628,0.24635
3369.03475,0.24736
3370.96322,0.24771
3372.89168,0.24821
3374.82015,0.24961
3376.74862,0.25166
3378.67709,0.25241
3380.60556,0.24991
3382.53403,0.24423
3384.46250,0.24013
3386.39097,0.23962
3388.31943,0.24224
3390.24790,0.24727
3392.17637,0.25114
3394.10484,0.25395
3396.03331,0.25588
3397.96178,0.25479
3399.89025,0.25225
3401.81871,0.25056
3403.74718,0.25127
3405.67565,0.25079
3407.60412,0.24417
3409.53259,0.23567
3411.46106,0.23121
3413.38953,0.23129
3415.31800,0.23318
3417.24646,0.23719
3419.17493,0.24207
3421.10340,0.24144
3423.03187,0.24024
3424.96034,0.24170
3426.88881,0.23837
3428.81728,0.23205
3430.74574,0.22750
3432.67421,0.22566
3434.60268,0.22724
3436.53115,0.22971
3438.45962,0.23055
3440.38809,0.22987
3442.31656,0.22840
3444.24503,0.22688
3446.17349,0.22560
3448.10196,0.22473
3450.03043,0.22552
3451.95890,0.22808
3453.88737,0.22922
3455.81584,0.22445
3457.74431,0.21745
3459.67277,0.21923
3461.60124,0.22903
3463.52971,0.23374
3465.45818,0.22965
3467.38665,0.22501
3469.31512,0.22537
3471.24359,0.22674
3473.17206,0.22222
3475.10052,0.21552
3477.02899,0.21610
3478.95746,0.22137
3480.88593,0.22301
3482.81440,0.21926
3484.74287,0.21555
3486.67134,0.21486
3488.59980,0.21299
3490.52827,0.20995
3492.45674,0.20847
3494.38521,0.20764
3496.31368,0.20904
3498.24215,0.21156
3500.17062,0.21177
3502.09909,0.21128
3504.02755,0.21050
3505.95602,0.21023
3507.88449,0.21152
3509.81296,0.20956
3511.74143,0.20277
3513.66990,0.19790
3515.59837,0.20082
3517.52683,0.20677
3519.45530,0.20766
3521.38377,0.20695
3523.31224,0.20724
3525.24071,0.20601
3527.16918,0.20434
3529.09765,0.19999
3531.02611,0.19377
3532.95458,0.19203
3534.88305,0.19525
3536.81152,0.19859
3538.73999,0.19749
3540.66846,0.19449
3542.59693,0.19460
3544.52540,0.19475
3546.45386,0.19130
3548.38233,0.19030
3550.31080,0.19429
3552.23927,0.19559
3554.16774,0.19009
3556.09621,0.18562
3558.02468,0.18558
3559.95314,0.18783
3561.88161,0.19121
3563.81008,0.19308
3565.73855,0.19699
3567.66702,0.20342
3569.59549,0.19989
3571.52396,0.18935
3573.45243,0.18061
3575.38089,0.17810
3577.30936,0.17805
3579.23783,0.17279
3581.16630,0.16638
3583.09477,0.16711
3585.02324,0.17509
3586.95171,0.18484
3588.88017,0.18566
3590.80864,0.18049
3592.73711,0.17927
3594.66558,0.18193
3596.59405,0.18445
3598.52252,0.18540
3600.45099,0.18323
3602.37946,0.17999
3604.30792,0.17959
3606.23639,0.17993
3608.16486,0.17992
3610.09333,0.18082
3612.02180,0.18316
3613.95027,0.18819
3615.87874,0.19245
3617.80720,0.19084
3619.73567,0.17871
3621.66414,0.16481
3623.59261,0.15830
3625.52108,0.15831
3627.44955,0.16743
3629.37802,0.17363
3631.30649,0.16368
3633.23495,0.15760
3635.16342,0.15904
3637.09189,0.16171
3639.02036,0.16244
3640.94883,0.16254
3642.87730,0.16431
3644.80577,0.16943
3646.73423,0.18236
3648.66270,0.19696
3650.59117,0.18516
3652.51964,0.16731
3654.44811,0.16335
3656.37658,0.16194
3658.30505,0.15350
3660.23352,0.14748
3662.16198,0.14773
3664.09045,0.14984
3666.01892,0.15426
3667.94739,0.16361
3669.87586,0.17069
3671.80433,0.16922
3673.73280,0.17149
3675.66126,0.17187
3677.58973,0.16140
3679.51820,0.15376
3681.44667,0.14965
3683.37514,0.14910
3685.30361,0.15451
3687.23208,0.16466
3689.16055,0.17118
3691.08901,0.16269
3693.01748,0.14996
3694.94595,0.14200
3696.87442,0.13982
3698.80289,0.14564
3700.73136,0.15347
3702.65983,0.15217
3704.58829,0.14836
3706.51676,0.15112
3708.44523,0.15770
3710.37370,0.16126
3712.30217,0.15442
3714.23064,0.14838
3716.15911,0.15040
3718.08757,0.15299
3720.01604,0.15217
3721.94451,0.15288
3723.87298,0.15670
3725.80145,0.15868
3727.72992,0.15682
3729.65839,0.15328
3731.58686,0.15140
3733.51532,0.15653
3735.44379,0.16381
3737.37226,0.15917
3739.30073,0.15436
3741.22920,0.15670
3743.15767,0.16225
3745.08614,0.17034
3747.01460,0.17541
3748.94307,0.17636
3750.87154,0.17711
3752.80001,0.17552
3754.72848,0.17121
3756.65695,0.16717
3758.58542,0.16296
3760.51389,0.15510
3762.44235,0.14904
3764.37082,0.15042
3766.29929,0.15409
3768.22776,0.15560
3770.15623,0.15433
3772.08470,0.14770
3774.01317,0.14119
3775.94163,0.13986
3777.87010,0.14153
3779.79857,0.13984
3781.72704,0.13706
3783.65551,0.13854
3785.58398,0.13981
3787.51245,0.13844
3789.44092,0.13729
3791.36938,0.13653
3793.29785,0.13636
3795.22632,0.14005
3797.15479,0.14755
3799.08326,0.15287
3801.01173,0.15531
3802.94020,0.15358
3804.86866,0.15130
3806.79713,0.15033
3808.72560,0.14502
3810.65407,0.14073
3812.58254,0.14449
3814.51101,0.15410
3816.43948,0.15786
3818.36795,0.15640
3820.29641,0.16210
3822.22488,0.15856
3824.15335,0.14472
3826.08182,0.13982
3828.01029,0.14217
3829.93876,0.14402
3831.86723,0.14496
3833.79569,0.14712
3835.72416,0.15200
3837.65263,0.16011
3839.58110,0.16269
3841.50957,0.15364
3843.43804,0.14385
3845.36651,0.13985
3847.29498,0.14048
3849.22344,0.14577
3851.15191,0.15290
3853.08038,0.15396
3855.00885,0.14981
3856.93732,0.14630
3858.86579,0.14074
3860.79426,0.13861
3862.72272,0.14418
3864.65119,0.14470
3866.57966,0.13807
3868.50813,0.14118
3870.43660,0.14852
3872.36507,0.14472
3874.29354,0.13875
3876.22200,0.13667
3878.15047,0.13623
3880.07894,0.13520
3882.00741,0.13560
3883.93588,0.14074
3885.86435,0.14198
3887.79282,0.13447
3889.72129,0.12776
3891.64975,0.12809
3893.57822,0.13330
3895.50669,0.13521
3897.43516,0.13712
3899.36363,0.14707
3901.29210,0.15863
3903.22057,0.15726
3905.14903,0.14331
3907.07750,0.13150
3909.00597,0.12692
3910.93444,0.12295
3912.86291,0.12080
3914.79138,0.12594
3916.71985,0.13211
3918.64832,0.13256
3920.57678,0.13041
3922.50525,0.12833
3924.43372,0.12826
3926.36219,0.12671
3928.29066,0.12203
3930.21913,0.12267
3932.14760,0.12736
3934.07606,0.12789
3936.00453,0.12738
3937.93300,0.12750
3939.86147,0.12784
3941.78994,0.13052
3943.71841,0.13373
3945.64688,0.13364
3947.57535,0.13068
3949.50381,0.12534
3951.43228,0.12105
3953.36075,0.12200
3955.28922,0.12456
3957.21769,0.12688
3959.14616,0.12930
3961.07463,0.12771
3963.00309,0.12385
3964.93156,0.12447
3966.86003,0.12997
3968.78850,0.13370
3970.71697,0.13078
3972.64544,0.12462
3974.57391,0.12134
3976.50238,0.12254
3978.43084,0.12297
3980.35931,0.11964
3982.28778,0.11670
3984.21625,0.11840
3986.14472,0.12141
3988.07319,0.11823
3990.00166,0.11210
3991.93012,0.10949
3993.85859,0.10797
3995.78706,0.10630
3997.71553,0.10650
3999.64400,0.10960
4001.57247,0.11299
4003.50094,0.11224
4005.42941,0.11002
4007.35787,0.11261
4009.28634,0.11783
4011.21481,0.11901
4013.14328,0.11742
4015.07175,0.11816
4017.00022,0.11857
4018.92869,0.11455
4020.85715,0.11139
4022.78562,0.11235
4024.71409,0.11528
4026.64256,0.11798
4028.57103,0.11813
4030.49950,0.11868
4032.42797,0.11883
4034.35644,0.11253
4036.28490,0.10461
4038.21337,0.10452
4040.14184,0.10943
4042.07031,0.11048
4043.99878,0.10704
4045.92725,0.10385
4047.85572,0.10391
4049.78418,0.10605
4051.71265,0.10753
4053.64112,0.10743
4055.56959,0.10663
4057.49806,0.10812
4059.42653,0.11060
4061.35500,0.10660
4063.28346,0.09926
4065.21193,0.10008
4067.14040,0.10762
4069.06887,0.11336
4070.99734,0.11493
4072.92581,0.11504
4074.85428,0.11623
4076.78275,0.11674
4078.71121,0.11537
4080.63968,0.11169
4082.56815,0.10721
4084.49662,0.10661
4086.42509,0.10739
4088.35356,0.10407
4090.28203,0.09933
4092.21049,0.09770
4094.13896,0.09849
4096.06743,0.10178
4097.99590,0.10856
4099.92437,0.11373
4101.85284,0.11377
4103.78131,0.11182
4105.70978,0.10972
4107.63824,0.10738
4109.56671,0.10681
4111.49518,0.10717
4113.42365,0.10328
4115.35212,0.09678
4117.28059,0.09429
4119.20906,0.09752
4121.13752,0.10357
4123.06599,0.10609
4124.99446,0.10338
4126.92293,0.09843
4128.85140,0.09182
4130.77987,0.08957
4132.70834,0.09572
4134.63681,0.09897
4136.56527,0.09325
4138.49374,0.08863
4140.42221,0.09139
4142.35068,0.09911
4144.27915,0.10577
4146.20762,0.10674
4148.13609,0.10538
4150.06455,0.10281
4151.99302,0.09443
4153.92149,0.08458
4155.84996,0.08222
4157.77843,0.08753
4159.70690,0.09507
4161.63537,0.10187
4163.56384,0.10721
4165.49230,0.10666
4167.42077,0.09904
4169.34924,0.09189
4171.27771,0.08839
4173.20618,0.08331
4175.13465,0.07580
4177.06312,0.07396
4178.99158,0.08064
4180.92005,0.08872
4182.84852,0.09329
4184.77699,0.09349
4186.70546,0.09104
4188.63393,0.08784
4190.56240,0.08402
4192.49087,0.08237
4194.41933,0.08366
4196.34780,0.08414
4198.27627,0.08161
4200.20474,0.07847
4202.13321,0.07850
4204.06168,0.08223
4205.99015,0.08792
4207.91861,0.09087
4209.84708,0.08793
4211.77555,0.08236
4213.70402,0.07717
4215.63249,0.07324
4217.56096,0.07095
4219.48943,0.07038
4221.41789,0.07042
4223.34636,0.06916
4225.27483,0.06935
4227.20330,0.07100
4229.13177,0.06826
4231.06024,0.06395
4232.98871,0.06565
4234.91718,0.07075
4236.84564,0.07328
4238.77411,0.07384
4240.70258,0.07396
4242.63105,0.07462
4244.55952,0.07514
4246.48799,0.06927
4248.41646,0.06037
4250.34492,0.06181
4252.27339,0.07390
4254.20186,0.08419
4256.13033,0.08473
4258.05880,0.07974
4259.98727,0.07583
4261.91574,0.07199
4263.84421,0.06516
4265.77267,0.05738
4267.70114,0.05435
4269.62961,0.05858
4271.55808,0.06594
4273.48655,0.07157
4275.41502,0.07199
4277.34349,0.06838
4279.27195,0.06769
4281.20042,0.06740
4283.12889,0.06265
4285.05736,0.06077
4286.98583,0.06255
4288.91430,0.06189
4290.84277,0.06226
4292.77124,0.06524
4294.69970,0.06465
4296.62817,0.06029
4298.55664,0.05787
4300.48511,0.05929
4302.41358,0.05985
4304.34205,0.05876
4306.27052,0.06105
4308.19898,0.06274
4310.12745,0.05995
4312.05592,0.05736
4313.98439,0.05669
4315.91286,0.05631
4317.84133,0.05689
4319.76980,0.06102
4321.69827,0.06546
4323.62673,0.06615
4325.55520,0.06589
4327.48367,0.06487
4329.41214,0.06048
4331.34061,0.05553
4333.26908,0.05566
4335.19755,0.05959
4337.12601,0.06012
4339.05448,0.06064
4340.98295,0.06732
4342.91142,0.07116
4344.83989,0.06718
4346.76836,0.06430
4348.69683,0.06514
4350.62530,0.06669
4352.55376,0.06779
4354.48223,0.06135
4356.41070,0.04757
4358.33917,0.04322
4360.26764,0.04926
4362.19611,0.04973
4364.12458,0.04408
4366.05304,0.04366
4367.98151,0.04949
4369.90998,0.05238
4371.83845,0.05059
4373.76692,0.05113
4375.69539,0.05437
4377.62386,0.05347
4379.55232,0.04750
4381.48079,0.04345
4383.40926,0.04383
4385.33773,0.04613
4387.26620,0.04816
4389.19467,0.04894
4391.12314,0.05260
4393.05161,0.05809
4394.98007,0.05642
4396.90854,0.04714
4398.83701,0.03815
4400.76548,0.03585
4402.69395,0.04356
4404.62242,0.05487
4406.55089,0.05730
4408.47935,0.05265
4410.40782,0.04931
4412.33629,0.04537
4414.26476,0.04021
4416.19323,0.03960
4418.12170,0.04245
4420.05017,0.04250
4421.97864,0.04197
4423.90710,0.04458
4425.83557,0.04745
4427.76404,0.04649
4429.69251,0.04278
4431.62098,0.04069
4433.54945,0.03715
4435.47792,0.03143
4437.40638,0.03017
4439.33485,0.03246
4441.26332,0.02946
4443.19179,0.01992
4445.12026,0.01436
4447.04873,0.01601
4448.97720,0.01763
4450.90567,0.01820
4452.83413,0.02305
4454.76260,0.02867
4456.69107,0.02765
4458.61954,0.02296
4460.54801,0.02178
4462.47648,0.02650
4464.40495,0.02905
4466.33341,0.02519
4468.26188,0.02489
4470.19035,0.03155
4472.11882,0.03658
4474.04729,0.03318
4475.97576,0.02628
4477.90423,0.02625
4479.83270,0.03239
4481.76116,0.03345
4483.68963,0.02669
4485.61810,0.02590
4487.54657,0.03448
4489.47504,0.03846
4491.40351,0.03377
4493.33198,0.02745
4495.26044,0.02525
4497.18891,0.02988
4499.11738,0.03798
4501.04585,0.03992
4502.97432,0.03081
4504.90279,0.01983
4506.83126,0.01601
4508.75973,0.01547
4510.68819,0.01220
4512.61666,0.00644
4514.54513,0.00564
4516.47360,0.01371
4518.40207,0.02233
4520.33054,0.02345
4522.25901,0.01937
4524.18747,0.01941
4526.11594,0.02478
4528.04441,0.02251
4529.97288,0.00937
4531.90135,-0.00033
4533.82982,0.00105
4535.75829,0.00666
4537.68676,0.00945
4539.61522,0.01352
4541.54369,0.02395
4543.47216,0.03621
4545.40063,0.04211
4547.32910,0.03877
4549.25757,0.03293
4551.18604,0.02753
4553.11450,0.02356
4555.04297,0.02563
4556.97144,0.02688
4558.89991,0.02069
4560.82838,0.01563
4562.75685,0.01739
4564.68532,0.01803
4566.61378,0.01303
4568.54225,0.01130
4570.47072,0.01569
4572.39919,0.01539
4574.32766,0.00794
4576.25613,0.00109
4578.18460,-0.00271
4580.11307,-0.00134
4582.04153,0.00751
4583.97000,0.01774
4585.89847,0.02115
4587.82694,0.01899
4589.75541,0.01344
4591.68388,0.00504
4593.61235,0.00323
4595.54081,0.00694
4597.46928,0.00549
4599.39775,0.00431
4601.32622,0.00891
4603.25469,0.01229
4605.18316,0.01478
4607.11163,0.01983
4609.04010,0.02185
4610.96856,0.01931
4612.89703,0.01893
4614.82550,0.02804
4616.75397,0.03720
4618.68244,0.03130
4620.61091,0.01854
4622.53938,0.00897
4624.46784,0.00444
4626.39631,0.00828
4628.32478,0.01396
4630.25325,0.01236
4632.18172,0.00601
4634.11019,-0.00041
4636.03866,-0.00281
4637.96713,0.00561
4639.89559,0.01655
4641.82406,0.01151
4643.75253,-0.00388
4645.68100,-0.01241
4647.60947,-0.01235
4649.53794,-0.00322
4651.46641,0.01210
4653.39487,0.01924
4655.32334,0.01472
4657.25181,0.00610
4659.18028,0.00213
4661.10875,0.01129
4663.03722,0.02565
4664.96569,0.02735
4666.89416,0.01614
4668.82262,0.00746
4670.75109,0.01287
4672.67956,0.02363
4674.60803,0.01898
4676.53650,0.00362
4678.46497,0.00042
4680.39344,0.00930
4682.32190,0.01701
4684.25037,0.01763
4686.17884,0.00956
4688.10731,-0.00075
4690.03578,-0.00196
4691.96425,0.00474
4693.89272,0.00942
4695.82119,0.01161
4697.74965,0.01620
4699.67812,0.02213
4701.60659,0.02373
4703.53506,0.01920
4705.46353,0.01307
4707.39200,0.00509
4709.32047,-0.00703
4711.24893,-0.01001
4713.17740,0.00077
4715.10587,0.00317
4717.03434,-0.00458
4718.96281,-0.00573
4720.89128,-0.00116
4722.81975,0.00684
4724.74821,0.01338
4726.67668,0.00628
4728.60515,-0.00758
4730.53362,-0.01046
4732.46209,-0.00102
4734.39056,0.01125
4736.31903,0.02035
4738.24750,0.02904
4740.17596,0.03844
4742.10443,0.03723
4744.03290,0.03234
4745.96137,0.03381
4747.88984,0.02181
4749.81831,-0.00083
4751.74678,-0.00426
4753.67524,0.00865
4755.60371,0.01514
4757.53218,0.01286
4759.46065,0.01352
4761.38912,0.01739
4763.31759,0.01681
4765.24606,0.01324
4767.17453,0.01166
4769.10299,0.01185
4771.03146,0.00951
4772.95993,0.00260
4774.88840,-0.00259
4776.81687,-0.00650
4778.74534,-0.01355
4780.67381,-0.01518
4782.60227,-0.00611
4784.53074,0.00680
4786.45921,0.01556
4788.38768,0.01393
4790.31615,0.00722
4792.24462,0.01428
4794.17309,0.03224
4796.10156,0.03370
4798.03002,0.01883
4799.95849,0.01069
4801.88696,0.00807
4803.81543,0.00053
4805.74390,-0.00440
4807.67237,-0.00535
4809.60084,-0.00188
4811.52930,0.01315
4813.45777,0.02684
4815.38624,0.02848
4817.31471,0.02438
4819.24318,0.01839
4821.17165,0.01181
4823.10012,0.00717
4825.02859,0.00622
4826.95705,0.00414
4828.88552,0.00476
4830.81399,0.01254
4832.74246,0.01396
4834.67093,0.01076
4836.59940,0.00904
4838.52787,-0.00124
4840.45633,-0.01314
4842.38480,-0.01228
4844.31327,-0.00436
4846.24174,-0.00030
4848.17021,0.00009
4850.09868,-0.00337
4852.02715,-0.01066
4853.95562,-0.01403
4855.88408,-0.00898
4857.81255,-0.00109
4859.74102,-0.00283
4861.66949,-0.00688
4863.59796,0.00563
4865.52643,0.02037
4867.45490,0.01604
4869.38336,0.00454
4871.31183,0.00141
4873.24030,0.00163
4875.16877,0.00056
4877.09724,-0.00105
4879.02571,-0.00192
4880.95418,-0.00100
4882.88265,-0.00684
4884.81111,-0.01910
4886.73958,-0.01990
4888.66805,-0.00710
4890.59652,0.00404
4892.52499,0.01308
4894.45346,0.02324
4896.38193,0.02221
4898.31039,0.00952
4900.23886,0.00267
4902.16733,0.01065
4904.09580,0.02481
4906.02427,0.02944
4907.95274,0.02411
4909.88121,0.02048
4911.80967,0.02414
4913.73814,0.02666
4915.66661,0.02163
4917.59508,0.02141
4919.52355,0.02676
4921.45202,0.02374
4923.38049,0.01361
4925.30896,0.00679
4927.23742,0.01066
4929.16589,0.02383
4931.09436,0.03834
4933.02283,0.04156
4934.95130,0.02568
4936.87977,0.00556
4938.80824,0.00427
4940.73670,0.01509
4942.66517,0.01583
4944.59364,0.01284
4946.52211,0.01450
4948.45058,0.01293
4950.37905,0.01331
4952.30752,0.01794
4954.23599,0.01654
4956.16445,0.01253
4958.09292,0.01602
4960.02139,0.01801
4961.94986,0.01022
4963.87833,0.00718
4965.80680,0.01303
4967.73527,0.01264
4969.66373,0.01016
4971.59220,0.02088
4973.52067,0.03049
4975.44914,0.02346
4977.37761,0.01660
4979.30608,0.02239
4981.23455,0.02931
4983.16302,0.02431
4985.09148,0.01581
4987.01995,0.01721
4988.94842,0.02267
4990.87689,0.02517
4992.80536,0.02893
4994.73383,0.03693
4996.66230,0.03826
4998.59076,0.01986
5000.51923,-0.00055
5002.44770,0.00203
5004.37617,0.01708
5006.30464,0.02554
5008.23311,0.02683
5010.16158,0.02497
5012.09005,0.02550
5014.01851,0.02862
5015.94698,0.03223
5017.87545,0.03446
5019.80392,0.03277
5021.73239,0.03156
5023.66086,0.02908
5025.58933,0.01778
5027.51779,0.01003
5029.44626,0.02562
5031.37473,0.05087
5033.30320,0.05829
5035.23167,0.04758
5037.16014,0.03115
5039.08861,0.02034
5041.01708,0.01979
5042.94554,0.02173
5044.87401,0.02406
5046.80248,0.02780
5048.73095,0.02640
5050.65942,0.02056
5052.58789,0.01589
5054.51636,0.01207
5056.44482,0.01433
5058.37329,0.01909
5060.30176,0.00994
5062.23023,-0.00450
5064.15870,-0.00639
5066.08717,-0.00738
5068.01564,-0.01296
5069.94410,-0.00243
5071.87257,0.01917
5073.80104,0.02484
5075.72951,0.01574
5077.65798,0.00849
5079.58645,0.00399
5081.51492,-0.00168
5083.44339,0.00060
5085.37185,0.02010
5087.30032,0.04132
5089.22879,0.04005
5091.15726,0.02642
5093.08573,0.02449
5095.01420,0.03121
5096.94267,0.03293
5098.87113,0.03336
5100.79960,0.03902
5102.72807,0.04013
5104.65654,0.04036
5106.58501,0.04578
5108.51348,0.04277
5110.44195,0.03699
5112.37042,0.03913
5114.29888,0.03886
5116.22735,0.03158
5118.15582,0.02401
5120.08429,0.02315
5122.01276,0.02074
5123.94123,0.00866
5125.86970,0.00791
5127.79816,0.02414
5129.72663,0.02759
5131.65510,0.01242
5133.58357,0.00220
5135.51204,0.00465
5137.44051,-0.00321
5139.36898,-0.02479
5141.29745,-0.02124
5143.22591,0.01800
5145.15438,0.05625
5147.08285,0.06611
5149.01132,0.05187
5150.93979,0.03777
5152.86826,0.04576
5154.79673,0.06549
5156.72519,0.06816
5158.65366,0.05358
5160.58213,0.03342
5162.51060,0.01355
5164.43907,0.01479
5166.36754,0.03305
5168.29601,0.04029
5170.22448,0.03688
5172.15294,0.03754
5174.08141,0.03963
5176.00988,0.04117
5177.93835,0.05091
5179.86682,0.06269
5181.79529,0.06367
5183.72376,0.05672
5185.65222,0.05344
5187.58069,0.05709
5189.50916,0.05736
5191.43763,0.05440
5193.36610,0.05378
5195.29457,0.04780
5197.22304,0.03985
5199.15151,0.04331
5201.07997,0.04332
5203.00844,0.02809
5204.93691,0.01419
5206.86538,0.01029
5208.79385,0.01960
5210.72232,0.04079
5212.65079,0.04866
5214.57925,0.03732
5216.50772,0.03368
5218.43619,0.04677
5220.36466,0.06054
5222.29313,0.06611
5224.22160,0.06628
5226.15007,0.06675
5228.07854,0.06803
5230.00700,0.06537
5231.93547,0.06414
5233.86394,0.06611
5235.79241,0.05818
5237.72088,0.04817
5239.64935,0.04712
5241.57782,0.04403
5243.50628,0.03823
5245.43475,0.03628
5247.36322,0.04959
5249.29169,0.08019
5251.22016,0.09147
5253.14863,0.07287
5255.07710,0.05795
5257.00556,0.05832
5258.93403,0.05314
5260.86250,0.04577
5262.79097,0.05219
5264.71944,0.05836
5266.64791,0.05971
5268.57638,0.06628
5270.50485,0.06732
5272.43331,0.06614
5274.36178,0.07341
5276.29025,0.07941
5278.21872,0.07193
5280.14719,0.05142
5282.07566,0.04604
5284.00413,0.06723
5285.93259,0.07950
5287.86106,0.07245
5289.78953,0.07038
5291.71800,0.07866
5293.64647,0.09589
5295.57494,0.11173
5297.50341,0.09431
5299.43188,0.05382
5301.36034,0.03254
5303.28881,0.03857
5305.21728,0.06271
5307.14575,0.08638
5309.07422,0.09048
5311.00269,0.08315
5312.93116,0.08148
5314.85962,0.08308
5316.78809,0.06976
5318.71656,0.05558
5320.64503,0.06012
5322.57350,0.06587
5324.50197,0.06491
5326.43044,0.06058
5328.35891,0.05073
5330.28737,0.04557
5332.21584,0.05164
5334.14431,0.05200
5336.07278,0.03848
5338.00125,0.03489
5339.92972,0.04494
5341.85819,0.04637
5343.78665,0.03061
5345.71512,0.01006
5347.64359,0.02137
5349.57206,0.05478
5351.50053,0.06521
5353.42900,0.05380
5355.35747,0.05791
5357.28594,0.06616
5359.21440,0.05502
5361.14287,0.03847
5363.07134,0.03449
5364.99981,0.03517
5366.92828,0.02984
5368.85675,0.02900
5370.78522,0.04070
5372.71368,0.05761
5374.64215,0.07771
5376.57062,0.08886
5378.49909,0.07929
5380.42756,0.07897
5382.35603,0.10541
5384.28450,0.13767
5386.21297,0.13549
5388.14143,0.10078
5390.06990,0.07578
5391.99837,0.07159
5393.92684,0.07963
5395.85531,0.07130
5397.78378,0.03315
5399.71225,0.01035
5401.64071,0.02790
5403.56918,0.05076
5405.49765,0.05060
5407.42612,0.03983
5409.35459,0.04055
5411.28306,0.05999
5413.21153,0.07824
5415.13999,0.08257
5417.06846,0.08545
5418.99693,0.08631
5420.92540,0.08376
5422.85387,0.08192
5424.78234,0.08712
5426.71081,0.09805
5428.63928,0.10088
5430.56774,0.09589
5432.49621,0.09183
5434.42468,0.09448
5436.35315,0.09574
5438.28162,0.07064
5440.21009,0.01855
5442.13856,-0.01329
5444.06702,0.00968
5445.99549,0.05004
5447.92396,0.07571
5449.85243,0.09569
5451.78090,0.09889
5453.70937,0.08495
5455.63784,0.07802
5457.56631,0.07947
5459.49477,0.07893
5461.42324,0.07763
5463.35171,0.07485
5465.28018,0.08412
5467.20865,0.11289
5469.13712,0.12193
5471.06559,0.08802
5472.99405,0.04971
5474.92252,0.04477
5476.85099,0.07338
5478.77946,0.09420
5480.70793,0.08870
5482.63640,0.07146
5484.56487,0.05480
5486.49334,0.03959
5488.42180,0.03812
5490.35027,0.07474
5492.27874,0.11525
5494.20721,0.09805
5496.13568,0.05163
5498.06415,0.02360
5499.99262,0.02584
5501.92108,0.05301
5503.84955,0.08534
5505.77802,0.10529
5507.70649,0.10559
5509.63496,0.09617
5511.56343,0.09267
5513.49190,0.09942
5515.42037,0.10641
5517.34883,0.09025
5519.27730,0.05598
5521.20577,0.03533
5523.13424,0.04060
5525.06271,0.06871
5526.99118,0.10118
5528.91965,0.12423
5530.84811,0.14117
5532.77658,0.13447
5534.70505,0.10023
5536.63352,0.08277
5538.56199,0.09442
5540.49046,0.10529
5542.41893,0.10893
5544.34740,0.10446
5546.27586,0.09214
5548.20433,0.07596
5550.13280,0.05427
5552.06127,0.05531
5553.98974,0.09503
5555.91821,0.12889
5557.84668,0.13706
5559.77514,0.14044
5561.70361,0.13394
5563.63208,0.11715
5565.56055,0.09770
5567.48902,0.06086
5569.41749,0.01007
5571.34596,-0.01047
5573.27443,0.02430
5575.20289,0.06833
5577.13136,0.08321
5579.05983,0.08734
5580.98830,0.09049
5582.91677,0.07371
5584.84524,0.04211
5586.77371,0.04048
5588.70217,0.08077
5590.63064,0.11845
5592.55911,0.11919
5594.48758,0.08827
5596.41605,0.05439
5598.34452,0.04894
5600.27299,0.07238
5602.20145,0.09351
5604.12992,0.09912
5606.05839,0.09903
5607.98686,0.09514
5609.91533,0.08464
5611.84380,0.07320
5613.77227,0.08020
5615.70074,0.09459
5617.62920,0.07271
5619.55767,0.03111
5621.48614,0.01754
5623.41461,0.02214
5625.34308,0.01992
5627.27155,0.01920
5629.20002,0.04388
5631.12848,0.09408
5633.05695,0.13467
5634.98542,0.13055
5636.91389,0.11024
5638.84236,0.11421
5640.77083,0.10706
5642.69930,0.07243
5644.62777,0.04902
5646.55623,0.05166
5648.48470,0.06970
5650.41317,0.09152
5652.34164,0.10906
5654.27011,0.11713
5656.19858,0.10183
5658.12705,0.07388
5660.05551,0.06311
5661.98398,0.07091
5663.91245,0.08864
5665.84092,0.10491
5667.76939,0.10150
5669.69786,0.08454
5671.62633,0.07465
5673.55480,0.06714
5675.48326,0.05914
5677.41173,0.07691
5679.34020,0.11487
5681.26867,0.14358
5683.19714,0.15399
5685.12561,0.15643
5687.05408,0.16745
5688.98254,0.16870
5690.91101,0.14798
5692.83948,0.13705
5694.76795,0.14359
5696.69642,0.14912
5698.62489,0.15678
5700.55336,0.16572
5702.48183,0.15297
5704.41029,0.12564
5706.33876,0.10709
5708.26723,0.10790
5710.19570,0.12974
5712.12417,0.14131
5714.05264,0.11113
5715.98111,0.06435
5717.90957,0.06191
5719.83804,0.10575
5721.76651,0.12961
5723.69498,0.12227
5725.62345,0.10253
5727.55192,0.07631
5729.48039,0.07934
5731.40886,0.10416
5733.33732,0.10687
5735.26579,0.10653
5737.19426,0.11784
5739.12273,0.09808
5741.05120,0.06817
5742.97967,0.07805
5744.90814,0.11287
5746.83660,0.14158
5748.76507,0.15612
5750.69354,0.16071
5752.62201,0.14514
5754.55048,0.11116
5756.47895,0.08866
5758.40742,0.09343
5760.33588,0.11073
5762.26435,0.11854
5764.19282,0.10211
5766.12129,0.06333
5768.04976,0.03938
5769.97823,0.05730
5771.90670,0.09706
5773.83517,0.11431
5775.76363,0.10452
5777.69210,0.09681
5779.62057,0.08488
5781.54904,0.07107
5783.47751,0.09188
5785.40598,0.14644
5787.33445,0.17169
5789.26291,0.14177
5791.19138,0.11402
5793.11985,0.10273
5795.04832,0.08207
5796.97679,0.05963
5798.90526,0.06291
5800.83373,0.10049
5802.76220,0.13659
5804.69066,0.13614
5806.61913,0.09249
5808.54760,0.03476
5810.47607,0.01199
5812.40454,0.02451
5814.33301,0.04881
5816.26148,0.07921
5818.18994,0.09303
5820.11841,0.09037
5822.04688,0.09841
5823.97535,0.10429
5825.90382,0.10536
5827.83229,0.12062
5829.76076,0.14012
5831.68923,0.14196
5833.61769,0.11675
5835.54616,0.08231
5837.47463,0.06746
5839.40310,0.07221
5841.33157,0.09177
5843.26004,0.11901
5845.18851,0.11860
5847.11697,0.09193
5849.04544,0.09120
5850.97391,0.12141
5852.90238,0.14259
5854.83085,0.13754
5856.75932,0.11403
5858.68779,0.09864
5860.61626,0.09850
5862.54472,0.10570
5864.47319,0.12602
5866.40166,0.13608
5868.33013,0.10095
5870.25860,0.06848
5872.18707,0.09363
5874.11554,0.13983
5876.04400,0.15114
5877.97247,0.13035
5879.90094,0.10411
5881.82941,0.07825
5883.75788,0.06788
5885.68635,0.07366
5887.61482,0.07143
5889.54329,0.05743
5891.47175,0.04233
5893.40022,0.03647
5895.32869,0.04213
5897.25716,0.07160
5899.18563,0.11211
5901.11410,0.12162
5903.04257,0.11111
5904.97103,0.10173
5906.89950,0.09666
5908.82797,0.11115
5910.75644,0.13106
5912.68491,0.12311
5914.61338,0.09369
5916.54185,0.09147
5918.47032,0.12273
5920.39878,0.12744
5922.32725,0.09379
5924.25572,0.07403
5926.18419,0.07439
5928.11266,0.07948
5930.04113,0.10079
5931.96960,0.11879
5933.89806,0.11865
5935.82653,0.10915
5937.75500,0.08143
5939.68347,0.05149
5941.61194,0.04248
5943.54041,0.05076
5945.46888,0.06950
5947.39734,0.08258
5949.32581,0.08657
5951.25428,0.08769
5953.18275,0.05980
5955.11122,0.01521
5957.03969,0.02366
5958.96816,0.07710
5960.89663,0.08905
5962.82509,0.06439
5964.75356,0.05507
5966.68203,0.05628
5968.61050,0.05265
5970.53897,0.05260
5972.46744,0.06286
5974.39591,0.06810
5976.32437,0.07385
5978.25284,0.08638
5980.18131,0.07741
5982.10978,0.05893
5984.03825,0.06853
5985.96672,0.10150
5987.89519,0.12698
5989.82366,0.11205
5991.75212,0.07869
5993.68059,0.07976
5995.60906,0.10018
5997.53753,0.10496
5999.46600,0.09977
6001.39447,0.09078
6003.32294,0.08363
6005.25140,0.08534
6007.17987,0.09823
6009.10834,0.12876
6011.03681,0.14835
6012.96528,0.12418
6014.89375,0.09684
6016.82222,0.10293
6018.75069,0.11330
6020.67915,0.09819
6022.60762,0.08004
6024.53609,0.09107
6026.46456,0.11619
6028.39303,0.13985
6030.32150,0.16879
6032.24997,0.18679
6034.17843,0.17780
6036.10690,0.13946
6038.03537,0.08919
6039.96384,0.06648
6041.89231,0.06362
6043.82078,0.04620
6045.74925,0.03581
6047.67772,0.06850
6049.60618,0.11143
6051.53465,0.11688
6053.46312,0.10887
6055.39159,0.10193
6057.32006,0.08039
6059.24853,0.07140
6061.17700,0.08502
6063.10546,0.09398
6065.03393,0.11858
6066.96240,0.14282
6068.89087,0.11613
6070.81934,0.09050
6072.74781,0.09852
6074.67628,0.10502
6076.60475,0.12737
6078.53321,0.14187
6080.46168,0.11407
6082.39015,0.09716
6084.31862,0.09443
6086.24709,0.06457
6088.17556,0.02469
6090.10403,0.01454
6092.03249,0.04956
6093.96096,0.08188
6095.88943,0.05744
6097.81790,0.02077
6099.74637,0.02453
6101.67484,0.05424
6103.60331,0.08067
6105.53177,0.07868
6107.46024,0.05183
6109.38871,0.03942
6111.31718,0.05190
6113.24565,0.08082
6115.17412,0.11649
6117.10259,0.14865
6119.03106,0.17169
6120.95952,0.16338
6122.88799,0.13825
6124.81646,0.13139
6126.74493,0.12947
6128.67340,0.09336
6130.60187,0.05360
6132.53034,0.07204
6134.45880,0.11106
6136.38727,0.11815
6138.31574,0.10167
6140.24421,0.07776
6142.17268,0.05652
6144.10115,0.04587
6146.02962,0.05266
6147.95809,0.07262
6149.88655,0.08973
6151.81502,0.08581
6153.74349,0.05501
6155.67196,0.02797
6157.60043,0.02528
6159.52890,0.03404
6161.45737,0.03594
6163.38583,0.03534
6165.31430,0.06533
6167.24277,0.11815
6169.17124,0.14740
6171.09971,0.13087
6173.02818,0.09268
6174.95665,0.07080
6176.88512,0.05851
6178.81358,0.03493
6180.74205,0.02290
6182.67052,0.04372
6184.59899,0.06063
6186.52746,0.04349
6188.45593,0.02849
6190.38440,0.04670
6192.31286,0.05854
6194.24133,0.05560
6196.16980,0.06935
6198.09827,0.07747
6200.02674,0.09196
6201.95521,0.13585
6203.88368,0.13816
6205.81215,0.10596
6207.74061,0.12445
6209.66908,0.15780
6211.59755,0.12377
6213.52602,0.04254
6215.45449,-0.01574
6217.38296,-0.02052
6219.31143,-0.00012
6221.23989,0.03504
6223.16836,0.08071
6225.09683,0.07807
6227.02530,0.04638
6228.95377,0.06877
6230.88224,0.14341
6232.81071,0.19854
6234.73918,0.16355
6236.66764,0.09259
6238.59611,0.08533
6240.52458,0.11610
6242.45305,0.12905
6244.38152,0.15508
6246.30999,0.16892
6248.23846,0.10799
6250.16692,0.03099
6252.09539,0.03917
6254.02386,0.09427
6255.95233,0.09920
6257.88080,0.06046
6259.80927,0.03339
6261.73774,0.01708
6263.66621,0.00985
6265.59467,0.02339
6267.52314,0.03320
6269.45161,0.03591
6271.38008,0.05516
6273.30855,0.07486
6275.23702,0.07279
6277.16549,0.06913
6279.09395,0.05837
6281.02242,0.03725
6282.95089,0.04934
6284.87936,0.06884
6286.80783,0.05576
6288.73630,0.05179
6290.66477,0.06617
6292.59323,0.06650
6294.52170,0.08021
6296.45017,0.12647
6298.37864,0.16893
6300.30711,0.20369
6302.23558,0.19286
6304.16405,0.10808
6306.09252,0.05204
6308.02098,0.06112
6309.94945,0.06461
6311.87792,0.03124
6313.80639,0.00957
6315.73486,0.05443
6317.66333,0.13270
6319.59180,0.16660
6321.52026,0.13773
6323.44873,0.11303
6325.37720,0.14162
6327.30567,0.17576
6329.23414,0.17333
6331.16261,0.16478
6333.09108,0.16292
6335.01955,0.14257
6336.94801,0.12868
6338.87648,0.14249
6340.80495,0.13935
6342.73342,0.11794
6344.66189,0.13788
6346.59036,0.17432
6348.51883,0.16253
6350.44729,0.14998
6352.37576,0.17225
6354.30423,0.16796
6356.23270,0.13377
6358.16117,0.11187
6360.08964,0.09794
6362.01811,0.11052
6363.94658,0.15407
6365.87504,0.14224
6367.80351,0.08944
6369.73198,0.08867
6371.66045,0.11791
6373.58892,0.14099
6375.51739,0.16115
6377.44586,0.15310
6379.37432,0.10804
6381.30279,0.08701
6383.23126,0.09140
6385.15973,0.06011
6387.08820,0.05085
6389.01667,0.08499
6390.94514,0.10271
6392.87361,0.08533
6394.80207,0.06687
6396.73054,0.09824
6398.65901,0.13205
6400.58748,0.10260
6402.51595,0.06525
6404.44442,0.07609
6406.37289,0.10030
6408.30135,0.10884
6410.22982,0.12325
6412.15829,0.13631
6414.08676,0.11613
6416.01523,0.07920
6417.94370,0.05503
6419.87217,0.03526
6421.80064,0.02377
6423.72910,0.07032
6425.65757,0.13034
6427.58604,0.12309
6429.51451,0.10493
6431.44298,0.09881
6433.37145,0.04501
6435.29992,0.00176
6437.22838,0.05340
6439.15685,0.11413
6441.08532,0.10934
6443.01379,0.10216
6444.94226,0.09429
6446.87073,0.06877
6448.79920,0.06711
6450.72766,0.07753
6452.65613,0.09233
6454.58460,0.15465
6456.51307,0.22465
6458.44154,0.21708
6460.37001,0.13995
6462.29848,0.05487
6464.22695,0.01607
6466.15541,0.02011
6468.08388,0.07118
6470.01235,0.18441
6471.94082,0.24630
6473.86929,0.20119
6475.79776,0.15966
6477.72623,0.16067
6479.65469,0.16924
6481.58316,0.18746
6483.51163,0.19421
6485.44010,0.14710
6487.36857,0.04490
6489.29704,-0.02248
6491.22551,0.02230
6493.15398,0.11518
6495.08244,0.16821
6497.01091,0.13549
6498.93938,0.02896
6500.86785,-0.03114
6502.79632,0.01179
6504.72479,0.05991
6506.65326,0.09679
6508.58172,0.16295
6510.51019,0.17139
6512.43866,0.06880
6514.36713,-0.03418
6516.29560,-0.05956
6518.22407,-0.00557
6520.15254,0.07561
6522.08101,0.13750
6524.00947,0.15434
6525.93794,0.11625
6527.86641,0.04142
6529.79488,-0.02731
6531.72335,-0.01367
6533.65182,0.06279
6535.58029,0.09530
6537.50875,0.06862
6539.43722,0.06154
6541.36569,0.08480
6543.29416,0.06304
6545.22263,0.03505
6547.15110,0.07319
6549.07957,0.09705
6551.00804,0.03685
6552.93650,-0.01250
6554.86497,-0.00587
6556.79344,-0.00424
6558.72191,-0.04333
6560.65038,-0.07414
6562.57885,-0.01732
6564.50732,0.06898
6566.43578,0.09824
6568.36425,0.10325
6570.29272,0.09466
6572.22119,0.05338
6574.14966,0.00247
6576.07813,-0.00287
6578.00660,0.04584
6579.93507,0.06795
6581.86353,0.03085
6583.79200,0.00604
6585.72047,0.02443
6587.64894,0.02950
6589.57741,0.00197
6591.50588,0.00093
6593.43435,0.04485
6595.36281,0.07575
6597.29128,0.10964
6599.21975,0.17842
6601.14822,0.18826
6603.07669,0.08394
6605.00516,-0.02529
6606.93363,-0.09181
6608.86210,-0.15016
6610.79056,-0.13848
6612.71903,0.00495
6614.64750,0.13042
6616.57597,0.10480
6618.50444,0.02979
6620.43291,0.03566
6622.36138,0.05564
6624.28984,0.01359
6626.21831,-0.00695
6628.14678,0.05464
6630.07525,0.14675
6632.00372,0.17802
6633.93219,0.12930
6635.86066,0.05868
6637.78912,0.01614
6639.71759,-0.00413
6641.64606,0.00790
6643.57453,0.09477
6645.50300,0.17358
6647.43147,0.14994
6649.35994,0.11798
6651.28841,0.11426
6653.21687,0.10387
6655.14534,0.11506
6657.07381,0.17945
6659.00228,0.23645
6660.93075,0.26007
6662.85922,0.29482
6664.78769,0.30712
6666.71615,0.29472
6668.64462,0.26341
6670.57309,0.16448
6672.50156,0.06962
6674.43003,0.07804
6676.35850,0.12713
6678.28697,0.18011
6680.21544,0.20459
6682.14390,0.10436
6684.07237,-0.06352
6686.00084,-0.09743
6687.92931,-0.00073
6689.85778,0.04092
6691.78625,0.03171
6693.71472,0.04535
6695.64318,0.05950
6697.57165,0.08696
6699.50012,0.12204
6701.42859,0.13563
6703.35706,0.14316
6705.28553,0.13221
6707.21400,0.08770
6709.14247,0.04658
6711.07093,0.06334
6712.99940,0.16019
6714.92787,0.25909
6716.85634,0.23319
6718.78481,0.11449
6720.71328,0.02561
6722.64175,0.00953
6724.57021,0.01898
6726.49868,-0.00259
6728.42715,-0.00152
6730.35562,0.07996
6732.28409,0.16017
6734.21256,0.16188
6736.14103,0.10051
6738.06950,0.03234
6739.99796,0.02216
6741.92643,0.05320
6743.85490,0.06502
6745.78337,0.03949
6747.71184,-0.06218
6749.64031,-0.13072
6751.56878,-0.02385
6753.49724,0.11497
6755.42571,0.15330
6757.35418,0.17266
6759.28265,0.19230
6761.21112,0.15031
6763.13959,0.08945
6765.06806,0.04112
6766.99653,-0.01646
6768.92499,-0.06737
6770.85346,-0.07905
6772.78193,-0.04525
6774.71040,-0.02331
6776.63887,-0.06923
6778.56734,-0.10287
6780.49581,-0.05267
6782.42427,0.00970
6784.35274,0.02457
6786.28121,0.03798
6788.20968,0.05246
6790.13815,0.02492
6792.06662,0.03339
6793.99509,0.11214
6795.92355,0.16319
6797.85202,0.19393
6799.78049,0.21403
6801.70896,0.14774
6803.63743,0.06559
6805.56590,0.09160
6807.49437,0.12345
6809.42284,0.08294
6811.35130,0.02166
6813.27977,-0.01305
6815.20824,-0.00820
6817.13671,-0.00479
6819.06518,-0.04181
6820.99365,-0.09399
6822.92212,-0.14071
6824.85058,-0.13399
6826.77905,-0.03499
6828.70752,0.07960
6830.63599,0.11632
6832.56446,0.09913
6834.49293,0.07964
6836.42140,0.06310
6838.34987,0.02846
6840.27833,0.01095
6842.20680,0.04221
6844.13527,0.08070
6846.06374,0.11136
6847.99221,0.11653
6849.92068,0.04327
6851.84915,-0.02440
6853.77761,0.00603
6855.70608,0.07722
6857.63455,0.06572
6859.56302,-0.00984
6861.49149,-0.00939
6863.41996,0.09719
6865.34843,0.16384
6867.27690,0.14091
6869.20536,0.12644
6871.13383,0.16824
6873.06230,0.16361
6874.99077,0.08633
6876.91924,0.09547
6878.84771,0.19735
6880.77618,0.21469
6882.70464,0.12332
6884.63311,0.03568
6886.56158,0.00006
6888.49005,0.00560
6890.41852,0.03380
6892.34699,0.11471
6894.27546,0.18403
6896.20393,0.18737
6898.13239,0.17384
6900.06086,0.14987
6901.98933,0.11569
6903.91780,0.06356
6905.84627,0.00060
6907.77474,0.00645
6909.70321,0.08957
6911.63167,0.16488
6913.56014,0.17951
6915.48861,0.15464
6917.41708,0.09198
6919.34555,0.00319
6921.27402,-0.02856
6923.20249,0.00061
6925.13096,0.05405
6927.05942,0.10803
6928.98789,0.15779
6930.91636,0.17317
6932.84483,0.14035
6934.77330,0.15338
6936.70177,0.16782
6938.63024,0.07923
6940.55870,-0.01552
6942.48717,0.04839
6944.41564,0.19863
6946.34411,0.27632
6948.27258,0.15689
6950.20105,-0.05520
6952.12952,-0.14888
6954.05799,-0.06348
6955.98645,0.07265
6957.91492,0.10696
6959.84339,0.08243
6961.77186,0.04043
6963.70033,-0.03815
6965.62880,-0.08227
6967.55727,-0.00440
6969.48573,0.14091
6971.41420,0.18636
6973.34267,0.12336
6975.27114,0.06246
6977.19961,-0.00311
6979.12808,0.01033
6981.05655,0.16152
6982.98501,0.26039
6984.91348,0.22353
6986.84195,0.16031
6988.77042,0.11031
6990.69889,0.09349
6992.62736,0.09114
6994.55583,0.04358
6996.48430,-0.01000
6998.41276,0.07242
7000.34123,0.21611
7002.26970,0.21367
7004.19817,0.09572
7006.12664,-0.03449
7008.05511,-0.11293
7009.98358,-0.09297
7011.91204,0.03504
7013.84051,0.18893
7015.76898,0.19853
7017.69745,0.03968
7019.62592,-0.12409
7021.55439,-0.09608
7023.48286,0.07397
7025.41133,0.18709
7027.33979,0.22190
7029.26826,0.16051
7031.19673,-0.02592
7033.12520,-0.16660
7035.05367,-0.19105
7036.98214,-0.16012
7038.91061,-0.05765
7040.83907,0.11576
7042.76754,0.24802
7044.69601,0.24313
7046.62448,0.16994
7048.55295,0.08735
7050.48142,0.03626
7052.40989,0.05801
7054.33836,0.14912
7056.26682,0.21256
7058.19529,0.15275
7060.12376,0.09287
7062.05223,0.08576
7063.98070,0.04304
7065.90917,0.05128
7067.83764,0.18240
7069.76610,0.28002
7071.69457,0.20525
7073.62304,0.10097
7075.55151,0.06960
7077.47998,0.06411
7079.40845,-0.00188
7081.33692,-0.14608
7083.26539,-0.15224
7085.19385,0.02344
7087.12232,0.17961
7089.05079,0.16396
7090.97926,0.02716
7092.90773,-0.11400
7094.83620,-0.14841
7096.76467,-0.11845
7098.69313,-0.10546
7100.62160,-0.03393
7102.55007,0.09803
7104.47854,0.21334
7106.40701,0.22406
7108.33548,0.09664
7110.26395,0.01795
7112.19242,0.11018
7114.12088,0.21935
7116.04935,0.23580
7117.97782,0.21077
7119.90629,0.15547
7121.83476,0.08385
7123.76323,0.02549
7125.69170,-0.02295
7127.62016,-0.01919
7129.54863,0.05646
7131.47710,0.10947
7133.40557,0.08763
7135.33404,0.08867
7137.26251,0.14148
7139.19098,0.19008
7141.11944,0.27919
7143.04791,0.39194
7144.97638,0.36922
7146.90485,0.21379
7148.83332,0.07066
7150.76179,-0.00897
7152.69026,-0.01380
7154.61873,-0.00345
7156.54719,0.01606
7158.47566,0.07615
7160.40413,0.06116
7162.33260,-0.02907
7164.26107,-0.01479
7166.18954,0.07831
7168.11801,0.10290
7170.04647,0.07263
7171.97494,0.08045
7173.90341,0.08946
7175.83188,-0.00490
7177.76035,0.00175
7179.68882,0.24142
7181.61729,0.38412
7183.54576,0.23554
7185.47422,0.11219
7187.40269,0.15016
7189.33116,0.16760
7191.25963,0.13162
7193.18810,0.16798
7195.11657,0.20408
7197.04504,0.12108
7198.97350,0.00714
7200.90197,-0.03907
7202.83044,-0.04315
7204.75891,-0.06025
7206.68738,-0.04181
7208.61585,0.07189
7210.54432,0.16670
7212.47279,0.13963
7214.40125,0.06252
7216.32972,0.02156
7218.25819,-0.03266
7220.18666,-0.05056
7222.11513,0.07447
7224.04360,0.25465
7225.97207,0.31786
7227.90053,0.22039
7229.82900,0.11528
7231.75747,0.10069
7233.68594,0.10341
7235.61441,0.07187
7237.54288,-0.00602
7239.47135,-0.14116
7241.39982,-0.24739
7243.32828,-0.23821
7245.25675,-0.16484
7247.18522,-0.02733
7249.11369,0.16583
7251.04216,0.30788
7252.97063,0.34221
7254.89910,0.24627
7256.82756,0.15390
7258.75603,0.16256
7260.68450,0.23332
7262.61297,0.27818
7264.54144,0.16911
7266.46991,-0.04322
7268.39838,-0.09877
7270.32685,0.04452
7272.25531,0.20036
7274.18378,0.16471
7276.11225,0.07291
7278.04072,0.03857
7279.96919,0.06276
7281.89766,0.15055
7283.82613,0.13193
7285.75459,-0.02022
7287.68306,-0.05152
7289.61153,0.10391
7291.54000,0.21804
7293.46847,0.18487
7295.39694,0.18247
7297.32541,0.22644
7299.25387,0.20811
7301.18234,0.15625
7303.11081,0.10907
7305.03928,0.04118
7306.96775,0.06654
7308.89622,0.28937
7310.82469,0.40227
7312.75316,0.34558
7314.68162,0.28306
7316.61009,0.22157
7318.53856,0.14502
7320.46703,0.06912
7322.39550,0.05985
7324.32397,0.08690
7326.25244,0.12628
7328.18090,0.26363
7330.10937,0.37369
7332.03784,0.33992
7333.96631,0.19320
7335.89478,0.00383
7337.82325,-0.08266
7339.75172,-0.08580
7341.68019,-0.19416
7343.60865,-0.26097
7345.53712,-0.16423
7347.46559,-0.00579
7349.39406,0.09088
7351.32253,0.12534
7353.25100,0.13093
7355.17947,0.15582
7357.10793,0.20213
7359.03640,0.10030
7360.96487,-0.19129
7362.89334,-0.25355
7364.82181,0.04486
7366.75028,0.30453
7368.67875,0.30425
7370.60722,0.17960
7372.53568,0.00004
7374.46415,-0.19880
7376.39262,-0.08494
7378.32109,0.16977
7380.24956,0.21371
7382.17803,0.10831
7384.10650,0.04435
7386.03496,0.09941
7387.96343,0.18151
7389.89190,0.08691
7391.82037,-0.12886
7393.74884,-0.19176
7395.67731,-0.05724
7397.60578,0.06081
7399.53425,0.04432
7401.46271,-0.01040
7403.39118,0.05853
7405.31965,0.16144
7407.24812,0.18577
7409.17659,0.25888
7411.10506,0.32508
7413.03353,0.25084
7414.96199,0.11358
7416.89046,0.05758
7418.81893,0.06883
7420.74740,0.02034
7422.67587,-0.01785
7424.60434,-0.01042
7426.53281,-0.00602
7428.46128,-0.06633
7430.38974,-0.20454
7432.31821,-0.22221
7434.24668,-0.04970
7436.17515,0.14493
7438.10362,0.20660
7440.03209,0.16402
7441.96056,0.20473
7443.88902,0.30429
7445.81749,0.28638
7447.74596,0.22704
7449.67443,0.21148
7451.60290,0.13799
7453.53137,-0.00595
7455.45984,-0.06467
7457.38831,-0.05793
7459.31677,-0.08403
7461.24524,-0.03985
7463.17371,0.12785
7465.10218,0.23608
7467.03065,0.24639
7468.95912,0.23658
7470.88759,0.18278
7472.81605,0.08850
7474.74452,0.06472
7476.67299,0.08220
7478.60146,0.00124
7480.52993,-0.10795
7482.45840,-0.03894
7484.38687,0.13948
7486.31533,0.20447
7488.24380,0.07502
7490.17227,-0.02623
7492.10074,0.08463
7494.02921,0.23316
7495.95768,0.25799
7497.88615,0.19151
