399.19301,4.08280
401.12148,2.88691
403.04995,2.02053
404.97842,1.31169
406.90689,0.69256
408.83536,0.27162
410.76382,0.08273
412.69229,0.26550
414.62076,1.29393
416.54923,3.29821
418.47770,4.70121
420.40617,3.18755
422.33464,1.13983
424.26311,-0.02716
426.19157,-0.18230
428.12004,0.16396
430.04851,0.28910
431.97698,0.15333
433.90545,-0.02479
435.83392,-0.18517
437.76239,-0.21542
439.69085,-0.16928
441.61932,-0.24308
443.54779,-0.28131
445.47626,-0.10802
447.40473,0.05006
449.33320,0.14042
451.26167,0.20200
453.19013,0.19766
455.11860,0.12527
457.04707,0.08254
458.97554,0.12716
460.90401,0.14861
462.83248,0.11500
464.76095,0.09022
466.68942,0.08217
468.61788,0.03999
470.54635,-0.01076
472.47482,0.05466
474.40329,0.27756
476.33176,0.30139
478.26023,0.17428
480.18870,0.13048
482.11716,0.21652
484.04563,0.30786
485.97410,0.28707
487.90257,0.20496
489.83104,0.14598
491.75951,0.14435
493.68798,0.18571
495.61645,0.18086
497.54491,0.11479
499.47338,0.10331
501.40185,0.14478
503.33032,0.12427
505.25879,0.06399
507.18726,0.03859
509.11573,0.04121
511.04419,0.06351
512.97266,0.09860
514.90113,0.10564
516.82960,0.08580
518.75807,0.08543
520.68654,0.11565
522.61501,0.16241
524.54348,0.19751
526.47194,0.19171
528.40041,0.14876
530.32888,0.08922
532.25735,0.04597
534.18582,0.05724
536.11429,0.10655
538.04276,0.12696
539.97122,0.09867
541.89969,0.05870
543.82816,0.05024
545.75663,0.07387
547.68510,0.11173
549.61357,0.10152
551.54204,-0.03192
553.47051,-0.16638
555.39897,-0.12997
557.32744,0.00914
559.25591,0.10086
561.18438,0.12989
563.11285,0.12943
565.04132,0.12472
566.96979,0.13162
568.89825,0.13029
570.82672,0.10732
572.75519,0.08628
574.68366,0.09600
576.61213,0.12474
578.54060,0.13583
580.46907,0.10515
582.39754,0.05830
584.32600,0.05233
586.25447,0.08795
588.18294,0.12130
590.11141,0.13436
592.03988,0.13282
593.96835,0.11616
595.89682,0.09006
597.82528,0.07636
599.75375,0.09224
601.68222,0.11743
603.61069,0.12995
605.53916,0.14778
607.46763,0.17263
609.39610,0.17300
611.32456,0.14309
613.25303,0.11269
615.18150,0.11253
617.10997,0.13513
619.03844,0.14279
620.96691,0.13030
622.89538,0.12152
624.82385,0.12642
626.75231,0.12712
628.68078,0.08532
630.60925,-0.01829
632.53772,-0.09795
634.46619,-0.03401
636.39466,0.08475
638.32313,0.11983
640.25159,0.10126
642.18006,0.10706
644.10853,0.13980
646.03700,0.16543
647.96547,0.17418
649.89394,0.17234
651.82241,0.16142
653.75088,0.14766
655.67934,0.13127
657.60781,0.12226
659.53628,0.13942
661.46475,0.16112
663.39322,0.15753
665.32169,0.13798
667.25016,0.13538
669.17862,0.16240
671.10709,0.16450
673.03556,0.14844
674.96403,0.13729
676.89250,0.13377
678.82097,0.13016
680.74944,0.13421
682.67791,0.14796
684.60637,0.14620
686.53484,0.12919
688.46331,0.12909
690.39178,0.14885
692.32025,0.15955
694.24872,0.15787
696.17719,0.16166
698.10565,0.16647
700.03412,0.16407
701.96259,0.16231
703.89106,0.16419
705.81953,0.16052
707.74800,0.14343
709.67647,0.12575
711.60494,0.12160
713.53340,0.12592
715.46187,0.13935
717.39034,0.15584
719.31881,0.16367
721.24728,0.16837
723.17575,0.16893
725.10422,0.16148
727.03268,0.14880
728.96115,0.13751
730.88962,0.14112
732.81809,0.15642
734.74656,0.16530
736.67503,0.16041
738.60350,0.14807
740.53197,0.14207
742.46043,0.14083
744.38890,0.13480
746.31737,0.13458
748.24584,0.14498
750.17431,0.15285
752.10278,0.15710
754.03125,0.16633
755.95971,0.17186
757.88818,0.16004
759.81665,0.14496
761.74512,0.14548
763.67359,0.14714
765.60206,0.13669
767.53053,0.12711
769.45900,0.12255
771.38746,0.12478
773.31593,0.13983
775.24440,0.15807
777.17287,0.16353
779.10134,0.15221
781.02981,0.13841
782.95828,0.13728
784.88674,0.14726
786.81521,0.15260
788.74368,0.14055
790.67215,0.12633
792.60062,0.12986
794.52909,0.14378
796.45756,0.15697
798.38602,0.16644
800.31449,0.16667
802.24296,0.15999
804.17143,0.15625
806.09990,0.16072
808.02837,0.16583
809.95684,0.16050
811.88531,0.14859
813.81377,0.14210
815.74224,0.14161
817.67071,0.14264
819.59918,0.14623
821.52765,0.14471
823.45612,0.13539
825.38459,0.13488
827.31305,0.14112
829.24152,0.13363
831.16999,0.11852
833.09846,0.11398
835.02693,0.12180
836.95540,0.13071
838.88387,0.13526
840.81234,0.14033
842.74080,0.14429
844.66927,0.14047
846.59774,0.13175
848.52621,0.13139
850.45468,0.13934
852.38315,0.14346
854.31162,0.14713
856.24008,0.15437
858.16855,0.16089
860.09702,0.16642
862.02549,0.16749
863.95396,0.15961
865.88243,0.14935
867.81090,0.14298
869.73937,0.14472
871.66783,0.15663
873.59630,0.16352
875.52477,0.15885
877.45324,0.15468
879.38171,0.15205
881.31018,0.14806
883.23865,0.14714
885.16711,0.15703
887.09558,0.17481
889.02405,0.17730
890.95252,0.16387
892.88099,0.15706
894.80946,0.15404
896.73793,0.14736
898.66640,0.14381
900.59486,0.14533
902.52333,0.15067
904.45180,0.15733
906.38027,0.16370
908.30874,0.16759
910.23721,0.16755
912.16568,0.16664
914.09414,0.16546
916.02261,0.16752
917.95108,0.17144
919.87955,0.16784
921.80802,0.15874
923.73649,0.15325
925.66496,0.15274
927.59343,0.15082
929.52189,0.14864
931.45036,0.15211
933.37883,0.15525
935.30730,0.15304
937.23577,0.14955
939.16424,0.14749
941.09271,0.14649
943.02117,0.14696
944.94964,0.15141
946.87811,0.15813
948.80658,0.16005
950.73505,0.15943
952.66352,0.16188
954.59199,0.16141
956.52045,0.15625
958.44892,0.15500
960.37739,0.15496
962.30586,0.14567
964.23433,0.13444
966.16280,0.13675
968.09127,0.14834
970.01974,0.15905
971.94820,0.16723
973.87667,0.16986
975.80514,0.16786
977.73361,0.16740
979.66208,0.17070
981.59055,0.17328
983.51902,0.16734
985.44748,0.15619
987.37595,0.14950
989.30442,0.14988
991.23289,0.15533
993.16136,0.15957
995.08983,0.15882
997.01830,0.15666
998.94677,0.15933
1000.87523,0.16947
1002.80370,0.17824
1004.73217,0.17576
1006.66064,0.16728
1008.58911,0.16469
1010.51758,0.16963
1012.44605,0.17252
1014.37451,0.17333
1016.30298,0.18282
1018.23145,0.19309
1020.15992,0.18888
1022.08839,0.17601
1024.01686,0.16589
1025.94533,0.16490
1027.87380,0.17295
1029.80226,0.17623
1031.73073,0.17070
1033.65920,0.16961
1035.58767,0.17737
1037.51614,0.18662
1039.44461,0.19232
1041.37308,0.19401
1043.30154,0.18903
1045.23001,0.17800
1047.15848,0.16877
1049.08695,0.16854
1051.01542,0.17271
1052.94389,0.17043
1054.87236,0.16656
1056.80083,0.16523
1058.72929,0.15789
1060.65776,0.15304
1062.58623,0.16013
1064.51470,0.16723
1066.44317,0.17173
1068.37164,0.17547
1070.30011,0.17209
1072.22857,0.16774
1074.15704,0.17292
1076.08551,0.18316
1078.01398,0.18213
1079.94245,0.16974
1081.87092,0.15923
1083.79939,0.15275
1085.72786,0.15293
1087.65632,0.16094
1089.58479,0.16719
1091.51326,0.16542
1093.44173,0.16249
1095.37020,0.16465
1097.29867,0.17044
1099.22714,0.17839
1101.15560,0.18524
1103.08407,0.18515
1105.01254,0.17620
1106.94101,0.16916
1108.86948,0.17358
1110.79795,0.18011
1112.72642,0.18184
1114.65489,0.18424
1116.58335,0.18622
1118.51182,0.18265
1120.44029,0.17669
1122.36876,0.17292
1124.29723,0.16989
1126.22570,0.16586
1128.15417,0.16436
1130.08263,0.16871
1132.01110,0.17304
1133.93957,0.17091
1135.86804,0.16655
1137.79651,0.16239
1139.72498,0.15755
1141.65345,0.15956
1143.58191,0.17232
1145.51038,0.18385
1147.43885,0.18246
1149.36732,0.17658
1151.29579,0.17603
1153.22426,0.17794
1155.15273,0.18149
1157.08120,0.18317
1159.00966,0.17941
1160.93813,0.17649
1162.86660,0.17768
1164.79507,0.17853
1166.72354,0.17517
1168.65201,0.17166
1170.58048,0.17456
1172.50894,0.17950
1174.43741,0.18018
1176.36588,0.17838
1178.29435,0.17606
1180.22282,0.17426
1182.15129,0.17377
1184.07976,0.17681
1186.00823,0.18287
1187.93669,0.18230
1189.86516,0.17558
1191.79363,0.17282
1193.72210,0.17254
1195.65057,0.17099
1197.57904,0.17150
1199.50751,0.17420
1201.43597,0.17363
1203.36444,0.17069
1205.29291,0.17026
1207.22138,0.17146
1209.14985,0.17358
1211.07832,0.17655
1213.00679,0.17872
1214.93526,0.17936
1216.86372,0.17897
1218.79219,0.17906
1220.72066,0.17904
1222.64913,0.17809
1224.57760,0.17796
1226.50607,0.17954
1228.43454,0.18172
1230.36300,0.18285
1232.29147,0.18171
1234.21994,0.17938
1236.14841,0.17903
1238.07688,0.18091
1240.00535,0.18371
1241.93382,0.18881
1243.86229,0.19171
1245.79075,0.18601
1247.71922,0.17848
1249.64769,0.17618
1251.57616,0.17815
1253.50463,0.18308
1255.43310,0.18757
1257.36157,0.18948
1259.29003,0.19015
1261.21850,0.18841
1263.14697,0.18426
1265.07544,0.18314
1267.00391,0.18698
1268.93238,0.19001
1270.86085,0.19006
1272.78932,0.18981
1274.71778,0.18895
1276.64625,0.18844
1278.57472,0.18853
1280.50319,0.18679
1282.43166,0.18616
1284.36013,0.18790
1286.28860,0.18778
1288.21706,0.18490
1290.14553,0.18401
1292.07400,0.18613
1294.00247,0.18587
1295.93094,0.18239
1297.85941,0.17966
1299.78788,0.17925
1301.71634,0.17822
1303.64481,0.17660
1305.57328,0.17977
1307.50175,0.18753
1309.43022,0.19209
1311.35869,0.19111
1313.28716,0.19026
1315.21563,0.18983
1317.14409,0.18890
1319.07256,0.18978
1321.00103,0.19133
1322.92950,0.18969
1324.85797,0.18578
1326.78644,0.18506
1328.71491,0.18627
1330.64337,0.18465
1332.57184,0.18126
1334.50031,0.18088
1336.42878,0.18391
1338.35725,0.18688
1340.28572,0.17394
1342.21419,0.14169
1344.14266,0.12094
1346.07112,0.12430
1347.99959,0.14737
1349.92806,0.17531
1351.85653,0.18520
1353.78500,0.18368
1355.71347,0.18368
1357.64194,0.18504
1359.57040,0.18961
1361.49887,0.19550
1363.42734,0.19571
1365.35581,0.19017
1367.28428,0.18645
1369.21275,0.18926
1371.14122,0.19734
1373.06969,0.20384
1374.99815,0.20278
1376.92662,0.19550
1378.85509,0.19066
1380.78356,0.19359
1382.71203,0.19907
1384.64050,0.20105
1386.56897,0.19983
1388.49743,0.19774
1390.42590,0.19818
1392.35437,0.20410
1394.28284,0.21150
1396.21131,0.21329
1398.13978,0.20928
1400.06825,0.20062
1401.99672,0.19417
1403.92518,0.19397
1405.85365,0.19420
1407.78212,0.19184
1409.71059,0.19297
1411.63906,0.19633
1413.56753,0.19736
1415.49600,0.20237
1417.42446,0.21418
1419.35293,0.21838
1421.28140,0.21076
1423.20987,0.20435
1425.13834,0.19687
1427.06681,0.19111
1428.99528,0.19318
1430.92375,0.19713
1432.85221,0.20031
1434.78068,0.20638
1436.70915,0.20820
1438.63762,0.20060
1440.56609,0.19439
1442.49456,0.19230
1444.42303,0.19381
1446.35149,0.19893
1448.27996,0.20327
1450.20843,0.20393
1452.13690,0.20630
1454.06537,0.21467
1455.99384,0.23051
1457.92231,0.23596
1459.85077,0.21894
1461.77924,0.20757
1463.70771,0.20626
1465.63618,0.20769
1467.56465,0.20752
1469.49312,0.21057
1471.42159,0.21911
1473.35006,0.22466
1475.27852,0.22128
1477.20699,0.21559
1479.13546,0.20973
1481.06393,0.20446
1482.99240,0.20110
1484.92087,0.20345
1486.84934,0.21459
1488.77780,0.22698
1490.70627,0.22392
1492.63474,0.21522
1494.56321,0.21352
1496.49168,0.21525
1498.42015,0.21700
1500.34862,0.22097
1502.27709,0.22728
1504.20555,0.23752
1506.13402,0.24964
1508.06249,0.24117
1509.99096,0.22577
1511.91943,0.22074
1513.84790,0.22466
1515.77637,0.23174
1517.70483,0.23442
1519.63330,0.23824
1521.56177,0.24380
1523.49024,0.23720
1525.41871,0.22874
1527.34718,0.22428
1529.27565,0.21858
1531.20412,0.21655
1533.13258,0.22105
1535.06105,0.22309
1536.98952,0.22643
1538.91799,0.24525
1540.84646,0.26810
1542.77493,0.25622
1544.70340,0.23351
1546.63186,0.21949
1548.56033,0.21500
1550.48880,0.21171
1552.41727,0.21056
1554.34574,0.21835
1556.27421,0.23083
1558.20268,0.23914
1560.13115,0.22906
1562.05961,0.21786
1563.98808,0.21213
1565.91655,0.21031
1567.84502,0.21473
1569.77349,0.21848
1571.70196,0.21404
1573.63043,0.21251
1575.55889,0.21686
1577.48736,0.21333
1579.41583,0.20438
1581.34430,0.20104
1583.27277,0.20004
1585.20124,0.19757
1587.12971,0.19687
1589.05818,0.19864
1590.98664,0.19978
1592.91511,0.20025
1594.84358,0.19994
1596.77205,0.19771
1598.70052,0.19559
1600.62899,0.19514
1602.55746,0.19590
1604.48592,0.19715
1606.41439,0.19941
1608.34286,0.20463
1610.27133,0.20845
1612.19980,0.20648
1614.12827,0.20534
1616.05674,0.20775
1617.98521,0.20527
1619.91367,0.20531
1621.84214,0.21482
1623.77061,0.22032
1625.69908,0.21420
1627.62755,0.20911
1629.55602,0.20812
1631.48449,0.21237
1633.41295,0.22664
1635.34142,0.24490
1637.26989,0.23605
1639.19836,0.21639
1641.12683,0.20981
1643.05530,0.21493
1644.98377,0.22951
1646.91223,0.24701
1648.84070,0.24546
1650.76917,0.23997
1652.69764,0.24766
1654.62611,0.24696
1656.55458,0.23348
1658.48305,0.22458
1660.41152,0.22214
1662.33998,0.22325
1664.26845,0.22167
1666.19692,0.22399
1668.12539,0.23645
1670.05386,0.24560
1671.98233,0.23950
1673.91080,0.23187
1675.83926,0.22523
1677.76773,0.22107
1679.69620,0.22285
1681.62467,0.22993
1683.55314,0.23823
1685.48161,0.23447
1687.41008,0.22670
1689.33855,0.22268
1691.26701,0.22004
1693.19548,0.22233
1695.12395,0.23145
1697.05242,0.24258
1698.98089,0.24930
1700.90936,0.23947
1702.83783,0.22492
1704.76629,0.22197
1706.69476,0.22099
1708.62323,0.21608
1710.55170,0.21434
1712.48017,0.21857
1714.40864,0.22793
1716.33711,0.23643
1718.26558,0.22851
1720.19404,0.21555
1722.12251,0.20964
1724.05098,0.20662
1725.97945,0.20641
1727.90792,0.21075
1729.83639,0.21755
1731.76486,0.22397
1733.69332,0.22357
1735.62179,0.21419
1737.55026,0.21091
1739.47873,0.21412
1741.40720,0.21485
1743.33567,0.21128
1745.26414,0.21115
1747.19261,0.21836
1749.12107,0.22690
1751.04954,0.22479
1752.97801,0.21651
1754.90648,0.21299
1756.83495,0.21243
1758.76342,0.21101
1760.69189,0.21142
1762.62035,0.21328
1764.54882,0.21319
1766.47729,0.21415
1768.40576,0.21850
1770.33423,0.22504
1772.26270,0.22591
1774.19117,0.21766
1776.11964,0.21267
1778.04810,0.21325
1779.97657,0.21496
1781.90504,0.21354
1783.83351,0.21198
1785.76198,0.21222
1787.69045,0.21068
1789.61892,0.21190
1791.54738,0.22030
1793.47585,0.22525
1795.40432,0.22181
1797.33279,0.21879
1799.26126,0.21789
1801.18973,0.21505
1803.11820,0.20921
1805.04666,0.20460
1806.97513,0.20490
1808.90360,0.21009
1810.83207,0.21464
1812.76054,0.21204
1814.68901,0.20647
1816.61748,0.20598
1818.54595,0.20916
1820.47441,0.20997
1822.40288,0.21028
1824.33135,0.21209
1826.25982,0.21432
1828.18829,0.22000
1830.11676,0.22173
1832.04523,0.21299
1833.97369,0.20765
1835.90216,0.20857
1837.83063,0.20861
1839.75910,0.20861
1841.68757,0.21050
1843.61604,0.20993
1845.54451,0.20707
1847.47298,0.20713
1849.40144,0.20778
1851.32991,0.20577
1853.25838,0.20422
1855.18685,0.20709
1857.11532,0.21053
1859.04379,0.20924
1860.97226,0.20652
1862.90072,0.20739
1864.82919,0.21077
1866.75766,0.21546
1868.68613,0.21782
1870.61460,0.21276
1872.54307,0.20801
1874.47154,0.20788
1876.40001,0.20838
1878.32847,0.20729
1880.25694,0.20536
1882.18541,0.20452
1884.11388,0.20545
1886.04235,0.20717
1887.97082,0.20973
1889.89929,0.21067
1891.82775,0.20892
1893.75622,0.20893
1895.68469,0.20960
1897.61316,0.20860
1899.54163,0.20918
1901.47010,0.21052
1903.39857,0.20979
1905.32704,0.20908
1907.25550,0.20915
1909.18397,0.20758
1911.11244,0.20604
1913.04091,0.20735
1914.96938,0.21048
1916.89785,0.21256
1918.82632,0.21135
1920.75478,0.21056
1922.68325,0.21237
1924.61172,0.21197
1926.54019,0.20812
1928.46866,0.20593
1930.39713,0.20840
1932.32560,0.21114
1934.25407,0.20904
1936.18253,0.20434
1938.11100,0.20289
1940.03947,0.20571
1941.96794,0.20859
1943.89641,0.21018
1945.82488,0.21189
1947.75335,0.21200
1949.68181,0.21050
1951.61028,0.20947
1953.53875,0.20795
1955.46722,0.20554
1957.39569,0.20438
1959.32416,0.20669
1961.25263,0.21173
1963.18110,0.21446
1965.10956,0.21262
1967.03803,0.20906
1968.96650,0.20533
1970.89497,0.20235
1972.82344,0.20222
1974.75191,0.20191
1976.68038,0.19873
1978.60884,0.19949
1980.53731,0.20611
1982.46578,0.20978
1984.39425,0.20834
1986.32272,0.20730
1988.25119,0.20918
1990.17966,0.21285
1992.10812,0.21371
1994.03659,0.21094
1995.96506,0.20934
1997.89353,0.20796
1999.82200,0.20527
2001.75047,0.20461
2003.67894,0.20624
2005.60741,0.20769
2007.53587,0.20891
2009.46434,0.20904
2011.39281,0.20665
2013.32128,0.20480
2015.24975,0.20751
2017.17822,0.21235
2019.10669,0.21249
2021.03515,0.20810
2022.96362,0.20569
2024.89209,0.20705
2026.82056,0.20779
2028.74903,0.20654
2030.67750,0.20634
2032.60597,0.20629
2034.53444,0.20411
2036.46290,0.20300
2038.39137,0.20531
2040.31984,0.20706
2042.24831,0.20596
2044.17678,0.20572
2046.10525,0.20777
2048.03372,0.21045
2049.96218,0.21272
2051.89065,0.21264
2053.81912,0.21008
2055.74759,0.20827
2057.67606,0.20842
2059.60453,0.20833
2061.53300,0.20813
2063.46147,0.20950
2065.38993,0.20987
2067.31840,0.20753
2069.24687,0.20755
2071.17534,0.21221
2073.10381,0.21608
2075.03228,0.21583
2076.96075,0.21161
2078.88921,0.20524
2080.81768,0.20210
2082.74615,0.20413
2084.67462,0.20836
2086.60309,0.21178
2088.53156,0.21231
2090.46003,0.21083
2092.38850,0.20933
2094.31696,0.20768
2096.24543,0.20659
2098.17390,0.20758
2100.10237,0.20963
2102.03084,0.21160
2103.95931,0.21272
2105.88778,0.21257
2107.81624,0.21266
2109.74471,0.21222
2111.67318,0.20921
2113.60165,0.20630
2115.53012,0.20620
2117.45859,0.20655
2119.38706,0.20671
2121.31553,0.20836
2123.24399,0.21064
2125.17246,0.21215
2127.10093,0.21175
2129.02940,0.21041
2130.95787,0.20872
2132.88634,0.20584
2134.81481,0.20556
2136.74327,0.20803
2138.67174,0.20852
2140.60021,0.20749
2142.52868,0.20702
2144.45715,0.20698
2146.38562,0.20654
2148.31409,0.20604
2150.24255,0.20564
2152.17102,0.20408
2154.09949,0.20335
2156.02796,0.20546
2157.95643,0.20713
2159.88490,0.20652
2161.81337,0.20582
2163.74184,0.20670
2165.67030,0.20756
2167.59877,0.20717
2169.52724,0.20854
2171.45571,0.21119
2173.38418,0.21088
2175.31265,0.20776
2177.24112,0.20513
2179.16958,0.20564
2181.09805,0.20705
2183.02652,0.20726
2184.95499,0.20851
2186.88346,0.21013
2188.81193,0.21023
2190.74040,0.20932
2192.66887,0.20869
2194.59733,0.20858
2196.52580,0.20790
2198.45427,0.20745
2200.38274,0.20782
2202.31121,0.20783
2204.23968,0.20834
2206.16815,0.20960
2208.09661,0.21089
2210.02508,0.21211
2211.95355,0.21236
2213.88202,0.21179
2215.81049,0.21122
2217.73896,0.21111
2219.66743,0.21004
2221.59590,0.20669
2223.52436,0.20408
2225.45283,0.20424
2227.38130,0.20610
2229.30977,0.20846
2231.23824,0.20898
2233.16671,0.20660
2235.09518,0.20515
2237.02364,0.20611
2238.95211,0.20498
2240.88058,0.20184
2242.80905,0.20300
2244.73752,0.20901
2246.66599,0.21246
2248.59446,0.21090
2250.52293,0.20961
2252.45139,0.20990
2254.37986,0.20982
2256.30833,0.20982
2258.23680,0.20907
2260.16527,0.20628
2262.09374,0.20411
2264.02221,0.20473
2265.95067,0.20673
2267.87914,0.20831
2269.80761,0.20793
2271.73608,0.20664
2273.66455,0.20749
2275.59302,0.20981
2277.52149,0.21078
2279.44996,0.21070
2281.37842,0.21089
2283.30689,0.21165
2285.23536,0.21298
2287.16383,0.21142
2289.09230,0.20580
2291.02077,0.20323
2292.94924,0.20619
2294.87770,0.20724
2296.80617,0.20429
2298.73464,0.20416
2300.66311,0.20739
2302.59158,0.20843
2304.52005,0.20679
2306.44852,0.20394
2308.37699,0.19993
2310.30545,0.19610
2312.23392,0.19624
2314.16239,0.20083
2316.09086,0.20234
2318.01933,0.19669
2319.94780,0.19112
2321.87627,0.19558
2323.80473,0.20650
2325.73320,0.20620
2327.66167,0.19292
2329.59014,0.18600
2331.51861,0.19462
2333.44708,0.21072
2335.37555,0.22945
2337.30401,0.24333
2339.23248,0.23443
2341.16095,0.21097
2343.08942,0.20234
2345.01789,0.20530
2346.94636,0.20343
2348.87483,0.19918
2350.80330,0.19697
2352.73176,0.20274
2354.66023,0.22496
2356.58870,0.24575
2358.51717,0.23470
2360.44564,0.21478
2362.37411,0.21426
2364.30258,0.21505
2366.23104,0.20233
2368.15951,0.18897
2370.08798,0.18900
2372.01645,0.19380
2373.94492,0.19442
2375.87339,0.19681
2377.80186,0.20201
2379.73033,0.20380
2381.65879,0.20241
2383.58726,0.20196
2385.51573,0.20222
2387.44420,0.20246
2389.37267,0.20497
2391.30114,0.20853
2393.22961,0.20911
2395.15807,0.20747
2397.08654,0.20750
2399.01501,0.20938
2400.94348,0.20995
2402.87195,0.20964
2404.80042,0.20898
2406.72889,0.20654
2408.65736,0.20480
2410.58582,0.20593
2412.51429,0.20767
2414.44276,0.20688
2416.37123,0.20476
2418.29970,0.20540
2420.22817,0.20784
2422.15664,0.20975
2424.08510,0.21205
2426.01357,0.21454
2427.94204,0.21564
2429.87051,0.21401
2431.79898,0.21023
2433.72745,0.20724
2435.65592,0.20665
2437.58439,0.20721
2439.51285,0.20729
2441.44132,0.20708
2443.36979,0.20775
2445.29826,0.20845
2447.22673,0.20919
2449.15520,0.21683
2451.08367,0.23088
2453.01213,0.23624
2454.94060,0.22798
2456.86907,0.21710
2458.79754,0.21227
2460.72601,0.21375
2462.65448,0.21643
2464.58295,0.21533
2466.51142,0.21215
2468.43988,0.21119
2470.36835,0.21246
2472.29682,0.21415
2474.22529,0.21584
2476.15376,0.21793
2478.08223,0.21915
2480.01070,0.21863
2481.93916,0.21583
2483.86763,0.21039
2485.79610,0.20745
2487.72457,0.20997
2489.65304,0.21348
2491.58151,0.21333
2493.50998,0.21010
2495.43844,0.20917
2497.36691,0.21178
2499.29538,0.21285
2501.22385,0.21053
2503.15232,0.20894
2505.08079,0.21044
2507.00926,0.21187
2508.93773,0.21098
2510.86619,0.21084
2512.79466,0.21273
2514.72313,0.21375
2516.65160,0.21449
2518.58007,0.21560
2520.50854,0.21519
2522.43701,0.21564
2524.36547,0.21816
2526.29394,0.21865
2528.22241,0.21597
2530.15088,0.21305
2532.07935,0.21128
2534.00782,0.21059
2535.93629,0.21099
2537.86476,0.21167
2539.79322,0.21101
2541.72169,0.20882
2543.65016,0.20787
2545.57863,0.21003
2547.50710,0.21297
2549.43557,0.21453
2551.36404,0.21515
2553.29250,0.21476
2555.22097,0.21417
2557.14944,0.21424
2559.07791,0.21246
2561.00638,0.20882
2562.93485,0.20795
2564.86332,0.21165
2566.79179,0.21577
2568.72025,0.21633
2570.64872,0.21548
2572.57719,0.21626
2574.50566,0.21777
2576.43413,0.21848
2578.36260,0.21790
2580.29107,0.21738
2582.21953,0.21734
2584.14800,0.21633
2586.07647,0.21582
2588.00494,0.21574
2589.93341,0.21421
2591.86188,0.21380
2593.79035,0.21459
2595.71882,0.21464
2597.64728,0.21562
2599.57575,0.21639
2601.50422,0.21492
2603.43269,0.21381
2605.36116,0.21535
2607.28963,0.21750
2609.21810,0.21626
2611.14656,0.21376
2613.07503,0.21472
2615.00350,0.21540
2616.93197,0.21349
2618.86044,0.21347
2620.78891,0.21532
2622.71738,0.21647
2624.64585,0.21691
2626.57431,0.21621
2628.50278,0.21493
2630.43125,0.21504
2632.35972,0.21584
2634.28819,0.21586
2636.21666,0.21598
2638.14513,0.21713
2640.07359,0.21832
2642.00206,0.21831
2643.93053,0.21901
2645.85900,0.22059
2647.78747,0.21759
2649.71594,0.21079
2651.64441,0.20996
2653.57288,0.21599
2655.50134,0.21944
2657.42981,0.21876
2659.35828,0.21907
2661.28675,0.21979
2663.21522,0.21835
2665.14369,0.21691
2667.07216,0.21761
2669.00062,0.21857
2670.92909,0.21848
2672.85756,0.21851
2674.78603,0.21847
2676.71450,0.21828
2678.64297,0.21969
2680.57144,0.22161
2682.49990,0.22144
2684.42837,0.22025
2686.35684,0.21977
2688.28531,0.21849
2690.21378,0.21533
2692.14225,0.21290
2694.07072,0.21372
2695.99919,0.21690
2697.92765,0.21951
2699.85612,0.22050
2701.78459,0.22155
2703.71306,0.22210
2705.64153,0.22172
2707.57000,0.22318
2709.49847,0.22636
2711.42693,0.22783
2713.35540,0.22563
2715.28387,0.22229
2717.21234,0.22099
2719.14081,0.22062
2721.06928,0.22107
2722.99775,0.22304
2724.92622,0.22521
2726.85468,0.22611
2728.78315,0.22471
2730.71162,0.22329
2732.64009,0.22425
2734.56856,0.22505
2736.49703,0.22433
2738.42550,0.22513
2740.35396,0.22695
2742.28243,0.22670
2744.21090,0.22586
2746.13937,0.22519
2748.06784,0.22260
2749.99631,0.22045
2751.92478,0.22328
2753.85325,0.22765
2755.78171,0.22798
2757.71018,0.22576
2759.63865,0.22432
2761.56712,0.22624
2763.49559,0.23002
2765.42406,0.22962
2767.35253,0.22584
2769.28099,0.22508
2771.20946,0.22724
2773.13793,0.22822
2775.06640,0.22766
2776.99487,0.22773
2778.92334,0.22884
2780.85181,0.22936
2782.78028,0.22880
2784.70874,0.22563
2786.63721,0.22101
2788.56568,0.21972
2790.49415,0.22167
2792.42262,0.22494
2794.35109,0.22774
2796.27956,0.22765
2798.20802,0.22541
2800.13649,0.22478
2802.06496,0.22766
2803.99343,0.23059
2805.92190,0.23078
2807.85037,0.23001
2809.77884,0.22987
2811.70731,0.22988
2813.63577,0.23013
2815.56424,0.23149
2817.49271,0.23331
2819.42118,0.23441
2821.34965,0.23410
2823.27812,0.23174
2825.20659,0.22892
2827.13505,0.22905
2829.06352,0.23308
2830.99199,0.23796
2832.92046,0.23793
2834.84893,0.23299
2836.77740,0.23069
2838.70587,0.23170
2840.63433,0.23162
2842.56280,0.23061
2844.49127,0.22947
2846.41974,0.22886
2848.34821,0.23079
2850.27668,0.23430
2852.20515,0.23522
2854.13362,0.23157
2856.06208,0.22621
2857.99055,0.22558
2859.91902,0.23054
2861.84749,0.23477
2863.77596,0.23542
2865.70443,0.23380
2867.63290,0.23136
2869.56136,0.22908
2871.48983,0.22796
2873.41830,0.22786
2875.34677,0.22673
2877.27524,0.22497
2879.20371,0.22580
2881.13218,0.22905
2883.06065,0.22962
2884.98911,0.22790
2886.91758,0.22880
2888.84605,0.23048
2890.77452,0.23045
2892.70299,0.23014
2894.63146,0.23007
2896.55993,0.23072
2898.48839,0.23193
2900.41686,0.23146
2902.34533,0.22850
2904.27380,0.22553
2906.20227,0.22550
2908.13074,0.22528
2910.05921,0.22040
2911.98768,0.21691
2913.91614,0.22068
2915.84461,0.22699
2917.77308,0.22900
2919.70155,0.22650
2921.63002,0.22551
2923.55849,0.22902
2925.48696,0.23391
2927.41542,0.23558
2929.34389,0.23248
2931.27236,0.22859
2933.20083,0.22672
2935.12930,0.22320
2937.05777,0.21955
2938.98624,0.22232
2940.91471,0.22786
2942.84317,0.22923
2944.77164,0.22681
2946.70011,0.22399
2948.62858,0.22320
2950.55705,0.22300
2952.48552,0.22229
2954.41399,0.22247
2956.34245,0.22144
2958.27092,0.22160
2960.19939,0.22862
2962.12786,0.23416
2964.05633,0.23146
2965.98480,0.22830
2967.91327,0.22645
2969.84174,0.22478
2971.77020,0.22827
2973.69867,0.23548
2975.62714,0.23891
2977.55561,0.23686
2979.48408,0.23383
2981.41255,0.23193
2983.34102,0.23123
2985.26948,0.23206
2987.19795,0.23161
2989.12642,0.22836
2991.05489,0.22626
2992.98336,0.22846
2994.91183,0.23205
2996.84030,0.23535
2998.76877,0.23943
3000.69723,0.24096
3002.62570,0.23963
3004.55417,0.23995
3006.48264,0.24047
3008.41111,0.23829
3010.33958,0.23513
3012.26805,0.22888
3014.19651,0.21577
3016.12498,0.20497
3018.05345,0.20920
3019.98192,0.22312
3021.91039,0.23219
3023.83886,0.23296
3025.76733,0.23048
3027.69579,0.23072
3029.62426,0.23644
3031.55273,0.24209
3033.48120,0.24182
3035.40967,0.23819
3037.33814,0.23527
3039.26661,0.23497
3041.19508,0.23707
3043.12354,0.23818
3045.05201,0.23551
3046.98048,0.23186
3048.90895,0.23197
3050.83742,0.23450
3052.76589,0.23650
3054.69436,0.23563
3056.62282,0.23142
3058.55129,0.22938
3060.47976,0.23127
3062.40823,0.23420
3064.33670,0.23538
3066.26517,0.23414
3068.19364,0.23450
3070.12211,0.23582
3072.05057,0.23430
3073.97904,0.23233
3075.90751,0.23369
3077.83598,0.23758
3079.76445,0.23940
3081.69292,0.23502
3083.62139,0.22403
3085.54985,0.21540
3087.47832,0.21900
3089.40679,0.22636
3091.33526,0.22657
3093.26373,0.22410
3095.19220,0.22627
3097.12067,0.23338
3099.04914,0.23896
3100.97760,0.23801
3102.90607,0.23180
3104.83454,0.22722
3106.76301,0.22821
3108.69148,0.22972
3110.61995,0.22934
3112.54842,0.22916
3114.47688,0.23152
3116.40535,0.23662
3118.33382,0.23906
3120.26229,0.23533
3122.19076,0.22969
3124.11923,0.22881
3126.04770,0.23370
3127.97617,0.23838
3129.90463,0.23893
3131.83310,0.23811
3133.76157,0.23672
3135.69004,0.23534
3137.61851,0.23589
3139.54698,0.23565
3141.47545,0.23447
3143.40391,0.23451
3145.33238,0.23396
3147.26085,0.23359
3149.18932,0.23684
3151.11779,0.24011
3153.04626,0.23910
3154.97473,0.23829
3156.90320,0.24142
3158.83166,0.24431
3160.76013,0.24272
3162.68860,0.23859
3164.61707,0.23425
3166.54554,0.23149
3168.47401,0.23308
3170.40248,0.23924
3172.33094,0.24499
3174.25941,0.24483
3176.18788,0.24237
3178.11635,0.24073
3180.04482,0.23929
3181.97329,0.24258
3183.90176,0.24888
3185.83022,0.24909
3187.75869,0.24426
3189.68716,0.24197
3191.61563,0.24075
3193.54410,0.23908
3195.47257,0.24127
3197.40104,0.24401
3199.32951,0.24193
3201.25797,0.23885
3203.18644,0.23677
3205.11491,0.23387
3207.04338,0.23383
3208.97185,0.23766
3210.90032,0.23911
3212.82879,0.23560
3214.75725,0.23341
3216.68572,0.23813
3218.61419,0.24198
3220.54266,0.23897
3222.47113,0.23686
3224.39960,0.23945
3226.32807,0.24076
3228.25654,0.23910
3230.18500,0.24032
3232.11347,0.24405
3234.04194,0.24321
3235.97041,0.23769
3237.89888,0.23438
3239.82735,0.23595
3241.75582,0.23940
3243.68428,0.24175
3245.61275,0.24060
3247.54122,0.23679
3249.46969,0.23564
3251.39816,0.23836
3253.32663,0.24024
3255.25510,0.23796
3257.18357,0.23186
3259.11203,0.22594
3261.04050,0.22605
3262.96897,0.23273
3264.89744,0.23872
3266.82591,0.24001
3268.75438,0.24149
3270.68285,0.24134
3272.61131,0.23653
3274.53978,0.23571
3276.46825,0.23992
3278.39672,0.24071
3280.32519,0.23899
3282.25366,0.23896
3284.18213,0.23773
3286.11060,0.23650
3288.03906,0.24099
3289.96753,0.24628
3291.89600,0.24458
3293.82447,0.23860
3295.75294,0.23520
3297.68141,0.23490
3299.60988,0.23353
3301.53834,0.23146
3303.46681,0.23173
3305.39528,0.23375
3307.32375,0.23492
3309.25222,0.23329
3311.18069,0.23237
3313.10916,0.23690
3315.03763,0.24281
3316.96609,0.24476
3318.89456,0.24438
3320.82303,0.24523
3322.75150,0.24626
3324.67997,0.24285
3326.60844,0.23512
3328.53691,0.23026
3330.46537,0.23247
3332.39384,0.23776
3334.32231,0.24080
3336.25078,0.24046
3338.17925,0.24099
3340.10772,0.24310
3342.03619,0.24203
3343.96466,0.24163
3345.89312,0.24520
3347.82159,0.24465
3349.75006,0.23773
3351.67853,0.23285
3353.60700,0.23187
3355.53547,0.22939
3357.46394,0.22838
3359.39240,0.23259
3361.32087,0.23686
3363.24934,0.24042
3365.17781,0.24493
3367.10628,0.24573
3369.03475,0.24220
3370.96322,0.23860
3372.89168,0.23888
3374.82015,0.24405
3376.74862,0.24556
3378.67709,0.23940
3380.60556,0.23774
3382.53403,0.24595
3384.46250,0.25070
3386.39097,0.24355
3388.31943,0.23615
3390.24790,0.24035
3392.17637,0.24776
3394.10484,0.24693
3396.03331,0.24345
3397.96178,0.24314
3399.89025,0.24317
3401.81871,0.24037
3403.74718,0.23340
3405.67565,0.22691
3407.60412,0.22857
3409.53259,0.23889
3411.46106,0.24775
3413.38953,0.24631
3415.31800,0.24081
3417.24646,0.24175
3419.17493,0.24500
3421.10340,0.24023
3423.03187,0.23072
3424.96034,0.22735
3426.88881,0.23283
3428.81728,0.24093
3430.74574,0.24469
3432.67421,0.24341
3434.60268,0.24092
3436.53115,0.23965
3438.45962,0.23935
3440.38809,0.23947
3442.31656,0.23689
3444.24503,0.23025
3446.17349,0.22806
3448.10196,0.23485
3450.03043,0.23960
3451.95890,0.23416
3453.88737,0.22218
3455.81584,0.21344
3457.74431,0.21495
3459.67277,0.22100
3461.60124,0.22237
3463.52971,0.21923
3465.45818,0.21632
3467.38665,0.21569
3469.31512,0.21786
3471.24359,0.22174
3473.17206,0.22029
3475.10052,0.21194
3477.02899,0.20795
3478.95746,0.21332
3480.88593,0.21956
3482.81440,0.21971
3484.74287,0.21683
3486.67134,0.21353
3488.59980,0.21024
3490.52827,0.21163
3492.45674,0.21731
3494.38521,0.21917
3496.31368,0.21421
3498.24215,0.20899
3500.17062,0.20843
3502.09909,0.21157
3504.02755,0.21517
3505.95602,0.21581
3507.88449,0.21216
3509.81296,0.20470
3511.74143,0.19848
3513.66990,0.19649
3515.59837,0.19423
3517.52683,0.18935
3519.45530,0.18932
3521.38377,0.19989
3523.31224,0.21050
3525.24071,0.21358
3527.16918,0.21551
3529.09765,0.21312
3531.02611,0.20380
3532.95458,0.19669
3534.88305,0.19668
3536.81152,0.19897
3538.73999,0.19530
3540.66846,0.18978
3542.59693,0.19112
3544.52540,0.19579
3546.45386,0.19737
3548.38233,0.19813
3550.31080,0.20172
3552.23927,0.20399
3554.16774,0.19942
3556.09621,0.19173
3558.02468,0.18714
3559.95314,0.18672
3561.88161,0.18947
3563.81008,0.19625
3565.73855,0.20220
3567.66702,0.19667
3569.59549,0.18532
3571.52396,0.17953
3573.45243,0.17917
3575.38089,0.18187
3577.30936,0.18341
3579.23783,0.18023
3581.16630,0.17838
3583.09477,0.18157
3585.02324,0.18537
3586.95171,0.18816
3588.88017,0.18664
3590.80864,0.18128
3592.73711,0.17874
3594.66558,0.18217
3596.59405,0.18523
3598.52252,0.18091
3600.45099,0.17378
3602.37946,0.17024
3604.30792,0.16923
3606.23639,0.17065
3608.16486,0.17681
3610.09333,0.18085
3612.02180,0.17922
3613.95027,0.17786
3615.87874,0.17939
3617.80720,0.18139
3619.73567,0.17597
3621.66414,0.16523
3623.59261,0.16358
3625.52108,0.17255
3627.44955,0.18195
3629.37802,0.17829
3631.30649,0.16817
3633.23495,0.16179
3635.16342,0.15624
3637.09189,0.15324
3639.02036,0.15496
3640.94883,0.15757
3642.87730,0.15873
3644.80577,0.16167
3646.73423,0.16861
3648.66270,0.17678
3650.59117,0.17458
3652.51964,0.16570
3654.44811,0.16190
3656.37658,0.16128
3658.30505,0.15727
3660.23352,0.15235
3662.16198,0.14987
3664.09045,0.14903
3666.01892,0.15033
3667.94739,0.15785
3669.87586,0.16732
3671.80433,0.16724
3673.73280,0.16692
3675.66126,0.16738
3677.58973,0.16002
3679.51820,0.15154
3681.44667,0.14537
3683.37514,0.14396
3685.30361,0.15037
3687.23208,0.16228
3689.16055,0.16950
3691.08901,0.16295
3693.01748,0.15342
3694.94595,0.14986
3696.87442,0.14945
3698.80289,0.14688
3700.73136,0.14188
3702.65983,0.14002
3704.58829,0.14315
3706.51676,0.14625
3708.44523,0.14945
3710.37370,0.15587
3712.30217,0.15845
3714.23064,0.15176
3716.15911,0.14823
3718.08757,0.15061
3720.01604,0.15116
3721.94451,0.15013
3723.87298,0.15276
3725.80145,0.15506
3727.72992,0.15381
3729.65839,0.15333
3731.58686,0.15966
3733.51532,0.17455
3735.44379,0.18466
3737.37226,0.17517
3739.30073,0.16024
3741.22920,0.15534
3743.15767,0.16568
3745.08614,0.17936
3747.01460,0.17738
3748.94307,0.17746
3750.87154,0.18186
3752.80001,0.17001
3754.72848,0.15923
3756.65695,0.15823
3758.58542,0.15721
3760.51389,0.15261
3762.44235,0.14914
3764.37082,0.14743
3766.29929,0.14538
3768.22776,0.14278
3770.15623,0.14076
3772.08470,0.14000
3774.01317,0.14120
3775.94163,0.14326
3777.87010,0.14457
3779.79857,0.14248
3781.72704,0.13938
3783.65551,0.14270
3785.58398,0.14843
3787.51245,0.14743
3789.44092,0.14284
3791.36938,0.13988
3793.29785,0.13803
3795.22632,0.13776
3797.15479,0.14425
3799.08326,0.15684
3801.01173,0.16419
3802.94020,0.15731
3804.86866,0.15084
3806.79713,0.14961
3808.72560,0.14336
3810.65407,0.13494
3812.58254,0.13520
3814.51101,0.14351
3816.43948,0.14700
3818.36795,0.14769
3820.29641,0.15692
3822.22488,0.15786
3824.15335,0.14751
3826.08182,0.14031
3828.01029,0.13600
3829.93876,0.13566
3831.86723,0.14185
3833.79569,0.15063
3835.72416,0.15686
3837.65263,0.15963
3839.58110,0.15705
3841.50957,0.15009
3843.43804,0.14335
3845.36651,0.14144
3847.29498,0.14371
3849.22344,0.14725
3851.15191,0.15377
3853.08038,0.16207
3855.00885,0.15799
3856.93732,0.14837
3858.86579,0.14197
3860.79426,0.14163
3862.72272,0.14701
3864.65119,0.14885
3866.57966,0.14463
3868.50813,0.14136
3870.43660,0.14058
3872.36507,0.14153
3874.29354,0.13965
3876.22200,0.13300
3878.15047,0.12885
3880.07894,0.13299
3882.00741,0.13932
3883.93588,0.13775
3885.86435,0.13145
3887.79282,0.12829
3889.72129,0.13157
3891.64975,0.13759
3893.57822,0.13453
3895.50669,0.12781
3897.43516,0.12891
3899.36363,0.13499
3901.29210,0.13667
3903.22057,0.13415
3905.14903,0.13377
3907.07750,0.13494
3909.00597,0.13301
3910.93444,0.12982
3912.86291,0.12871
3914.79138,0.12876
3916.71985,0.12926
3918.64832,0.12986
3920.57678,0.13029
3922.50525,0.13049
3924.43372,0.12977
3926.36219,0.12831
3928.29066,0.12618
3930.21913,0.12441
3932.14760,0.12560
3934.07606,0.12802
3936.00453,0.12665
3937.93300,0.12310
3939.86147,0.12209
3941.78994,0.12317
3943.71841,0.12361
3945.64688,0.12597
3947.57535,0.13393
3949.50381,0.14212
3951.43228,0.14147
3953.36075,0.13400
3955.28922,0.12878
3957.21769,0.12868
3959.14616,0.12799
3961.07463,0.12473
3963.00309,0.12151
3964.93156,0.11854
3966.86003,0.11863
3968.78850,0.12255
3970.71697,0.12284
3972.64544,0.12016
3974.57391,0.12175
3976.50238,0.12566
3978.43084,0.12772
3980.35931,0.12701
3982.28778,0.12495
3984.21625,0.12326
3986.14472,0.11986
3988.07319,0.11447
3990.00166,0.11275
3991.93012,0.11659
3993.85859,0.11792
3995.78706,0.11228
3997.71553,0.10686
3999.64400,0.10696
4001.57247,0.10934
4003.50094,0.11138
4005.42941,0.11217
4007.35787,0.10860
4009.28634,0.10189
4011.21481,0.10168
4013.14328,0.11082
4015.07175,0.11868
4017.00022,0.12040
4018.92869,0.11952
4020.85715,0.11564
4022.78562,0.11059
4024.71409,0.10900
4026.64256,0.11107
4028.57103,0.11569
4030.49950,0.11829
4032.42797,0.11295
4034.35644,0.10506
4036.28490,0.10406
4038.21337,0.10911
4040.14184,0.11240
4042.07031,0.11323
4043.99878,0.11458
4045.92725,0.11309
4047.85572,0.10897
4049.78418,0.10567
4051.71265,0.10380
4053.64112,0.10452
4055.56959,0.10829
4057.49806,0.11132
4059.42653,0.10899
4061.35500,0.10282
4063.28346,0.09819
4065.21193,0.09930
4067.14040,0.10216
4069.06887,0.10122
4070.99734,0.10077
4072.92581,0.10382
4074.85428,0.10660
4076.78275,0.10624
4078.71121,0.10449
4080.63968,0.10214
4082.56815,0.09874
4084.49662,0.10025
4086.42509,0.10842
4088.35356,0.11375
4090.28203,0.11273
4092.21049,0.11125
4094.13896,0.11144
4096.06743,0.11080
4097.99590,0.10838
4099.92437,0.10706
4101.85284,0.10656
4103.78131,0.10302
4105.70978,0.09835
4107.63824,0.09779
4109.56671,0.09878
4111.49518,0.09408
4113.42365,0.08688
4115.35212,0.08555
4117.28059,0.08905
4119.20906,0.09287
4121.13752,0.09577
4123.06599,0.09825
4124.99446,0.10115
4126.92293,0.10354
4128.85140,0.10394
4130.77987,0.10513
4132.70834,0.10895
4134.63681,0.10839
4136.56527,0.09882
4138.49374,0.08749
4140.42221,0.08430
4142.35068,0.09024
4144.27915,0.09747
4146.20762,0.10135
4148.13609,0.10123
4150.06455,0.09728
4151.99302,0.09465
4153.92149,0.09863
4155.84996,0.10525
4157.77843,0.10516
4159.70690,0.10160
4161.63537,0.10479
4163.56384,0.10992
4165.49230,0.10616
4167.42077,0.09637
4169.34924,0.09037
4171.27771,0.08822
4173.20618,0.08767
4175.13465,0.08868
4177.06312,0.08796
4178.99158,0.08699
4180.92005,0.08796
4182.84852,0.08842
4184.77699,0.09073
4186.70546,0.09557
4188.63393,0.09789
4190.56240,0.10080
4192.49087,0.10664
4194.41933,0.10682
4196.34780,0.09789
4198.27627,0.08962
4200.20474,0.09054
4202.13321,0.09170
4204.06168,0.08588
4205.99015,0.08308
4207.91861,0.08662
4209.84708,0.08636
4211.77555,0.08299
4213.70402,0.08357
4215.63249,0.08117
4217.56096,0.07293
4219.48943,0.07042
4221.41789,0.07666
4223.34636,0.08071
4225.27483,0.07892
4227.20330,0.07643
4229.13177,0.07457
4231.06024,0.07815
4232.98871,0.08892
4234.91718,0.09564
4236.84564,0.09151
4238.77411,0.08546
4240.70258,0.08257
4242.63105,0.07703
4244.55952,0.07139
4246.48799,0.07369
4248.41646,0.08367
4250.34492,0.09001
4252.27339,0.08607
4254.20186,0.08269
4256.13033,0.08458
4258.05880,0.08207
4259.98727,0.07510
4261.91574,0.07256
4263.84421,0.07486
4265.77267,0.07817
4267.70114,0.08026
4269.62961,0.07860
4271.55808,0.07596
4273.48655,0.07530
4275.41502,0.07301
4277.34349,0.06839
4279.27195,0.06625
4281.20042,0.06742
4283.12889,0.06906
4285.05736,0.06863
4286.98583,0.06401
4288.91430,0.06062
4290.84277,0.06549
4292.77124,0.07009
4294.69970,0.06478
4296.62817,0.05923
4298.55664,0.06189
4300.48511,0.06568
4302.41358,0.06612
4304.34205,0.06678
4306.27052,0.07058
4308.19898,0.07539
4310.12745,0.07876
4312.05592,0.08250
4313.98439,0.08152
4315.91286,0.06905
4317.84133,0.05601
4319.76980,0.05592
4321.69827,0.05972
4323.62673,0.05400
4325.55520,0.04665
4327.48367,0.04880
4329.41214,0.05266
4331.34061,0.04988
4333.26908,0.04775
4335.19755,0.05063
4337.12601,0.05374
4339.05448,0.05764
4340.98295,0.06127
4342.91142,0.05908
4344.83989,0.05398
4346.76836,0.05131
4348.69683,0.05235
4350.62530,0.05814
4352.55376,0.06286
4354.48223,0.05900
4356.41070,0.05283
4358.33917,0.05113
4360.26764,0.04865
4362.19611,0.04571
4364.12458,0.04834
4366.05304,0.05422
4367.98151,0.06086
4369.90998,0.06721
4371.83845,0.06867
4373.76692,0.06607
4375.69539,0.06194
4377.62386,0.05526
4379.55232,0.05044
4381.48079,0.05375
4383.40926,0.06008
4385.33773,0.05840
4387.26620,0.05174
4389.19467,0.05112
4391.12314,0.05268
4393.05161,0.04630
4394.98007,0.03728
4396.90854,0.03742
4398.83701,0.04316
4400.76548,0.04159
4402.69395,0.03327
4404.62242,0.03281
4406.55089,0.04363
4408.47935,0.05048
4410.40782,0.04326
4412.33629,0.03122
4414.26476,0.02787
4416.19323,0.03474
4418.12170,0.04629
4420.05017,0.05636
4421.97864,0.06025
4423.90710,0.05918
4425.83557,0.05486
4427.76404,0.04784
4429.69251,0.03906
4431.62098,0.03189
4433.54945,0.03362
4435.47792,0.03958
4437.40638,0.03872
4439.33485,0.03492
4441.26332,0.03659
4443.19179,0.04158
4445.12026,0.04025
4447.04873,0.03300
4448.97720,0.03324
4450.90567,0.03933
4452.83413,0.03649
4454.76260,0.02698
4456.69107,0.02311
4458.61954,0.02354
4460.54801,0.02062
4462.47648,0.01840
4464.40495,0.02122
4466.33341,0.02606
4468.26188,0.03085
4470.19035,0.03453
4472.11882,0.03777
4474.04729,0.03851
4475.97576,0.03540
4477.90423,0.03857
4479.83270,0.05102
4481.76116,0.05520
4483.68963,0.04478
4485.61810,0.03653
4487.54657,0.03452
4489.47504,0.02897
4491.40351,0.02320
4493.33198,0.02470
4495.26044,0.02864
4497.18891,0.02651
4499.11738,0.01920
4501.04585,0.01584
4502.97432,0.01916
4504.90279,0.02181
4506.83126,0.01701
4508.75973,0.00818
4510.68819,0.00313
4512.61666,0.00310
4514.54513,0.01089
4516.47360,0.02206
4518.40207,0.02373
4520.33054,0.02020
4522.25901,0.01979
4524.18747,0.02045
4526.11594,0.02273
4528.04441,0.02930
4529.97288,0.03561
4531.90135,0.03239
4533.82982,0.01862
4535.75829,0.00623
4537.68676,0.00496
4539.61522,0.00685
4541.54369,0.00478
4543.47216,0.00402
4545.40063,0.00753
4547.32910,0.01382
4549.25757,0.01523
4551.18604,0.00903
4553.11450,0.00744
4555.04297,0.01343
4556.97144,0.01921
4558.89991,0.02724
4560.82838,0.03895
4562.75685,0.04503
4564.68532,0.03996
4566.61378,0.02739
4568.54225,0.01290
4570.47072,0.00674
4572.39919,0.01313
4574.32766,0.01571
4576.25613,0.00832
4578.18460,0.00666
4580.11307,0.01276
4582.04153,0.01142
4583.97000,0.00340
4585.89847,0.00360
4587.82694,0.00962
4589.75541,0.01327
4591.68388,0.01912
4593.61235,0.02483
4595.54081,0.02109
4597.46928,0.01309
4599.39775,0.01056
4601.32622,0.01004
4603.25469,0.00697
4605.18316,0.00206
4607.11163,0.00040
4609.04010,0.00843
4610.96856,0.01491
4612.89703,0.00783
4614.82550,-0.00022
4616.75397,-0.00064
4618.68244,-0.00126
4620.61091,-0.00211
4622.53938,-0.00162
4624.46784,-0.00163
4626.39631,0.00791
4628.32478,0.02363
4630.25325,0.02535
4632.18172,0.01661
4634.11019,0.01041
4636.03866,0.00644
4637.96713,0.00458
4639.89559,0.00209
4641.82406,-0.00242
4643.75253,0.00296
4645.68100,0.01992
4647.60947,0.03046
4649.53794,0.02743
4651.46641,0.02118
4653.39487,0.02024
4655.32334,0.02057
4657.25181,0.01554
4659.18028,0.01128
4661.10875,0.01488
4663.03722,0.02037
4664.96569,0.01950
4666.89416,0.01503
4668.82262,0.01034
4670.75109,0.00486
4672.67956,0.00331
4674.60803,0.00440
4676.53650,0.00228
4678.46497,0.00094
4680.39344,0.00463
4682.32190,0.01313
4684.25037,0.02334
4686.17884,0.02691
4688.10731,0.02285
4690.03578,0.01867
4691.96425,0.01599
4693.89272,0.01190
4695.82119,0.00718
4697.74965,0.00361
4699.67812,-0.00121
4701.60659,-0.00421
4703.53506,-0.00046
4705.46353,0.00383
4707.39200,0.00833
4709.32047,0.01720
4711.24893,0.02185
4713.17740,0.01825
4715.10587,0.01171
4717.03434,0.00606
4718.96281,0.00604
4720.89128,0.00956
4722.81975,0.00828
4724.74821,0.00383
4726.67668,0.00416
4728.60515,0.00678
4730.53362,0.00647
4732.46209,0.00150
4734.39056,-0.00811
4736.31903,-0.01123
4738.24750,-0.00356
4740.17596,0.00302
4742.10443,0.00130
4744.03290,-0.00815
4745.96137,-0.01262
4747.88984,-0.00328
4749.81831,0.00543
4751.74678,0.00293
4753.67524,-0.00693
4755.60371,-0.01179
4757.53218,-0.00177
4759.46065,0.01353
4761.38912,0.02022
4763.31759,0.01708
4765.24606,0.01132
4767.17453,0.00866
4769.10299,0.00846
4771.03146,0.00555
4772.95993,0.00069
4774.88840,0.00368
4776.81687,0.01965
4778.74534,0.03760
4780.67381,0.03617
4782.60227,0.01400
4784.53074,-0.00676
4786.45921,-0.01042
4788.38768,-0.00431
4790.31615,-0.00200
4792.24462,0.00335
4794.17309,0.01813
4796.10156,0.02696
4798.03002,0.02242
4799.95849,0.01367
4801.88696,0.00231
4803.81543,-0.00693
4805.74390,-0.00191
4807.67237,0.01072
4809.60084,0.01376
4811.52930,0.01180
4813.45777,0.01965
4815.38624,0.02982
4817.31471,0.03063
4819.24318,0.02327
4821.17165,0.01468
4823.10012,0.01571
4825.02859,0.02505
4826.95705,0.02777
4828.88552,0.01732
4830.81399,0.00823
4832.74246,0.01199
4834.67093,0.01654
4836.59940,0.00911
4838.52787,-0.00446
4840.45633,-0.00493
4842.38480,0.01229
4844.31327,0.02426
4846.24174,0.01578
4848.17021,-0.00039
4850.09868,-0.00161
4852.02715,0.00815
4853.95562,0.00605
4855.88408,-0.00151
4857.81255,0.00238
4859.74102,0.01248
4861.66949,0.01628
4863.59796,0.01344
4865.52643,0.01415
4867.45490,0.02241
4869.38336,0.03188
4871.31183,0.03106
4873.24030,0.02110
4875.16877,0.02048
4877.09724,0.02689
4879.02571,0.02680
4880.95418,0.01934
4882.88265,0.01094
4884.81111,0.00431
4886.73958,-0.00009
4888.66805,0.00229
4890.59652,0.00776
4892.52499,0.00705
4894.45346,0.00464
4896.38193,0.00365
4898.31039,0.00205
4900.23886,0.00486
4902.16733,0.00914
4904.09580,0.00473
4906.02427,-0.00280
4907.95274,-0.00305
4909.88121,-0.00463
4911.80967,-0.00923
4913.73814,-0.00190
4915.66661,0.01085
4917.59508,0.01614
4919.52355,0.01724
4921.45202,0.01404
4923.38049,0.00524
4925.30896,-0.00301
4927.23742,-0.00792
4929.16589,-0.00993
4931.09436,-0.00241
4933.02283,0.01088
4934.95130,0.01706
4936.87977,0.02076
4938.80824,0.02580
4940.73670,0.02384
4942.66517,0.01200
4944.59364,-0.00087
4946.52211,-0.00263
4948.45058,0.00641
4950.37905,0.01641
4952.30752,0.01482
4954.23599,0.00115
4956.16445,-0.00127
4958.09292,0.00896
4960.02139,0.00626
4961.94986,-0.00663
4963.87833,-0.01209
4965.80680,-0.00865
4967.73527,0.00337
4969.66373,0.02092
4971.59220,0.03646
4973.52067,0.04234
4975.44914,0.03133
4977.37761,0.01227
4979.30608,0.00668
4981.23455,0.01818
4983.16302,0.02850
4985.09148,0.03185
4987.01995,0.03946
4988.94842,0.04356
4990.87689,0.03208
4992.80536,0.01099
4994.73383,-0.01040
4996.66230,-0.01472
4998.59076,-0.00248
5000.51923,0.00461
5002.44770,0.00198
5004.37617,-0.00348
5006.30464,0.00032
5008.23311,0.01493
5010.16158,0.02863
5012.09005,0.03216
5014.01851,0.02035
5015.94698,0.00941
5017.87545,0.02238
5019.80392,0.04357
5021.73239,0.04029
5023.66086,0.01929
5025.58933,0.00732
5027.51779,0.00945
5029.44626,0.01698
5031.37473,0.02254
5033.30320,0.02638
5035.23167,0.03065
5037.16014,0.03271
5039.08861,0.02646
5041.01708,0.01475
5042.94554,0.00977
5044.87401,0.00372
5046.80248,-0.01045
5048.73095,-0.01157
5050.65942,0.01064
5052.58789,0.03545
5054.51636,0.04441
5056.44482,0.04632
5058.37329,0.05494
5060.30176,0.05457
5062.23023,0.02648
5064.15870,-0.00484
5066.08717,-0.00703
5068.01564,0.00899
5069.94410,0.01856
5071.87257,0.02270
5073.80104,0.02369
5075.72951,0.01616
5077.65798,0.00883
5079.58645,0.00564
5081.51492,-0.00009
5083.44339,0.00313
5085.37185,0.02109
5087.30032,0.03112
5089.22879,0.02200
5091.15726,0.01651
5093.08573,0.02817
5095.01420,0.03276
5096.94267,0.01592
5098.87113,-0.00433
5100.79960,-0.00788
5102.72807,0.01175
5104.65654,0.03776
5106.58501,0.04940
5108.51348,0.05023
5110.44195,0.05347
5112.37042,0.05563
5114.29888,0.04814
5116.22735,0.03638
5118.15582,0.02888
5120.08429,0.02750
5122.01276,0.02362
5123.94123,0.01648
5125.86970,0.01785
5127.79816,0.02163
5129.72663,0.01712
5131.65510,0.01735
5133.58357,0.02550
5135.51204,0.02210
5137.44051,0.00375
5139.36898,-0.00681
5141.29745,0.00991
5143.22591,0.03593
5145.15438,0.04806
5147.08285,0.04823
5149.01132,0.04179
5150.93979,0.03944
5152.86826,0.04620
5154.79673,0.06355
5156.72519,0.08477
5158.65366,0.08457
5160.58213,0.06228
5162.51060,0.04067
5164.43907,0.03335
5166.36754,0.03259
5168.29601,0.03045
5170.22448,0.03283
5172.15294,0.04102
5174.08141,0.04609
5176.00988,0.04393
5177.93835,0.04132
5179.86682,0.03982
5181.79529,0.04096
5183.72376,0.05343
5185.65222,0.06110
5187.58069,0.04031
5189.50916,0.02190
5191.43763,0.03863
5193.36610,0.06144
5195.29457,0.06523
5197.22304,0.05996
5199.15151,0.05052
5201.07997,0.04342
5203.00844,0.04964
5204.93691,0.06516
5206.86538,0.06217
5208.79385,0.03597
5210.72232,0.02309
5212.65079,0.03207
5214.57925,0.04626
5216.50772,0.05499
5218.43619,0.06081
5220.36466,0.06680
5222.29313,0.06476
5224.22160,0.05140
5226.15007,0.03213
5228.07854,0.02100
5230.00700,0.03787
5231.93547,0.07178
5233.86394,0.08465
5235.79241,0.07680
5237.72088,0.06156
5239.64935,0.03206
5241.57782,0.00426
5243.50628,-0.00257
5245.43475,0.00201
5247.36322,0.00717
5249.29169,0.01817
5251.22016,0.03612
5253.14863,0.04516
5255.07710,0.03327
5257.00556,0.02088
5258.93403,0.02741
5260.86250,0.04040
5262.79097,0.05572
5264.71944,0.07274
5266.64791,0.07324
5268.57638,0.06300
5270.50485,0.05414
5272.43331,0.04063
5274.36178,0.02200
5276.29025,0.01093
5278.21872,0.02319
5280.14719,0.05171
5282.07566,0.06678
5284.00413,0.06093
5285.93259,0.04605
5287.86106,0.03107
5289.78953,0.02287
5291.71800,0.02469
5293.64647,0.04185
5295.57494,0.06764
5297.50341,0.07746
5299.43188,0.06281
5301.36034,0.04305
5303.28881,0.03816
5305.21728,0.03884
5307.14575,0.02858
5309.07422,0.02002
5311.00269,0.02385
5312.93116,0.03105
5314.85962,0.03391
5316.78809,0.03304
5318.71656,0.03476
5320.64503,0.03901
5322.57350,0.04649
5324.50197,0.06133
5326.43044,0.08897
5328.35891,0.11404
5330.28737,0.10267
5332.21584,0.06982
5334.14431,0.05314
5336.07278,0.05486
5338.00125,0.06611
5339.92972,0.07797
5341.85819,0.08109
5343.78665,0.07559
5345.71512,0.06262
5347.64359,0.05817
5349.57206,0.07543
5351.50053,0.09437
5353.42900,0.09514
5355.35747,0.09054
5357.28594,0.09101
5359.21440,0.08616
5361.14287,0.06486
5363.07134,0.04713
5364.99981,0.05528
5366.92828,0.06568
5368.85675,0.06309
5370.78522,0.06102
5372.71368,0.05627
5374.64215,0.04142
5376.57062,0.04134
5378.49909,0.05481
5380.42756,0.05443
5382.35603,0.05359
5384.28450,0.06844
5386.21297,0.09425
5388.14143,0.11029
5390.06990,0.09959
5391.99837,0.07286
5393.92684,0.06148
5395.85531,0.07779
5397.78378,0.09409
5399.71225,0.09262
5401.64071,0.08261
5403.56918,0.07164
5405.49765,0.05721
5407.42612,0.05580
5409.35459,0.08772
5411.28306,0.12630
5413.21153,0.11732
5415.13999,0.07269
5417.06846,0.05174
5418.99693,0.06184
5420.92540,0.08047
5422.85387,0.09740
5424.78234,0.10675
5426.71081,0.09456
5428.63928,0.07061
5430.56774,0.07150
5432.49621,0.09329
5434.42468,0.10076
5436.35315,0.08789
5438.28162,0.07681
5440.21009,0.07213
5442.13856,0.06762
5444.06702,0.06095
5445.99549,0.06547
5447.92396,0.08427
5449.85243,0.09217
5451.78090,0.08543
5453.70937,0.08647
5455.63784,0.10767
5457.56631,0.12465
5459.49477,0.12132
5461.42324,0.11207
5463.35171,0.08897
5465.28018,0.07237
5467.20865,0.09464
5469.13712,0.11624
5471.06559,0.09804
5472.99405,0.07804
5474.92252,0.09174
5476.85099,0.11775
5478.77946,0.11308
5480.70793,0.08609
5482.63640,0.07815
5484.56487,0.09351
5486.49334,0.10049
5488.42180,0.09037
5490.35027,0.09455
5492.27874,0.12281
5494.20721,0.13274
5496.13568,0.11559
5498.06415,0.09515
5499.99262,0.08067
5501.92108,0.07727
5503.84955,0.07842
5505.77802,0.07669
5507.70649,0.07722
5509.63496,0.07510
5511.56343,0.06163
5513.49190,0.05461
5515.42037,0.07430
5517.34883,0.09052
5519.27730,0.07816
5521.20577,0.06364
5523.13424,0.05804
5525.06271,0.07321
5526.99118,0.11044
5528.91965,0.12397
5530.84811,0.10874
5532.77658,0.09305
5534.70505,0.08011
5536.63352,0.08185
5538.56199,0.09888
5540.49046,0.09623
5542.41893,0.07105
5544.34740,0.05814
5546.27586,0.05039
5548.20433,0.04134
5550.13280,0.05092
5552.06127,0.06951
5553.98974,0.08541
5555.91821,0.09554
5557.84668,0.09656
5559.77514,0.09348
5561.70361,0.09423
5563.63208,0.10490
5565.56055,0.10367
5567.48902,0.08639
5569.41749,0.08652
5571.34596,0.09151
5573.27443,0.07505
5575.20289,0.05689
5577.13136,0.04983
5579.05983,0.03856
5580.98830,0.03537
5582.91677,0.06462
5584.84524,0.09503
5586.77371,0.09081
5588.70217,0.07445
5590.63064,0.08277
5592.55911,0.11344
5594.48758,0.14481
5596.41605,0.15580
5598.34452,0.14602
5600.27299,0.13645
5602.20145,0.12017
5604.12992,0.08888
5606.05839,0.07276
5607.98686,0.07822
5609.91533,0.07756
5611.84380,0.08140
5613.77227,0.10867
5615.70074,0.13031
5617.62920,0.12581
5619.55767,0.09627
5621.48614,0.05305
5623.41461,0.03327
5625.34308,0.04954
5627.27155,0.06845
5629.20002,0.08079
5631.12848,0.09850
5633.05695,0.10618
5634.98542,0.09758
5636.91389,0.09468
5638.84236,0.10866
5640.77083,0.12441
5642.69930,0.11724
5644.62777,0.08434
5646.55623,0.06244
5648.48470,0.07430
5650.41317,0.08803
5652.34164,0.07517
5654.27011,0.05018
5656.19858,0.04701
5658.12705,0.07801
5660.05551,0.10591
5661.98398,0.07384
5663.91245,0.01593
5665.84092,0.02064
5667.76939,0.05912
5669.69786,0.05711
5671.62633,0.03623
5673.55480,0.05118
5675.48326,0.09426
5677.41173,0.11973
5679.34020,0.11652
5681.26867,0.10542
5683.19714,0.09135
5685.12561,0.07574
5687.05408,0.08336
5688.98254,0.11263
5690.91101,0.11955
5692.83948,0.10237
5694.76795,0.08807
5696.69642,0.07769
5698.62489,0.06415
5700.55336,0.04001
5702.48183,0.01325
5704.41029,0.02287
5706.33876,0.05890
5708.26723,0.06662
5710.19570,0.07409
5712.12417,0.12403
5714.05264,0.17042
5715.98111,0.18045
5717.90957,0.16525
5719.83804,0.15247
5721.76651,0.15879
5723.69498,0.14117
5725.62345,0.09158
5727.55192,0.06645
5729.48039,0.08591
5731.40886,0.11532
5733.33732,0.11106
5735.26579,0.05754
5737.19426,0.03079
5739.12273,0.08829
5741.05120,0.13410
5742.97967,0.10952
5744.90814,0.08539
5746.83660,0.09253
5748.76507,0.09505
5750.69354,0.07825
5752.62201,0.05806
5754.55048,0.05346
5756.47895,0.07148
5758.40742,0.09208
5760.33588,0.09673
5762.26435,0.09759
5764.19282,0.10354
5766.12129,0.09551
5768.04976,0.08169
5769.97823,0.09477
5771.90670,0.12247
5773.83517,0.13670
5775.76363,0.14197
5777.69210,0.14090
5779.62057,0.12555
5781.54904,0.11156
5783.47751,0.11818
5785.40598,0.12738
5787.33445,0.12055
5789.26291,0.10044
5791.19138,0.07404
5793.11985,0.06051
5795.04832,0.05117
5796.97679,0.02209
5798.90526,0.00871
5800.83373,0.03841
5802.76220,0.08365
5804.69066,0.11924
5806.61913,0.12391
5808.54760,0.09980
5810.47607,0.07915
5812.40454,0.07786
5814.33301,0.09183
5816.26148,0.11234
5818.18994,0.13135
5820.11841,0.13792
5822.04688,0.13797
5823.97535,0.13423
5825.90382,0.11963
5827.83229,0.11575
5829.76076,0.11425
5831.68923,0.08681
5833.61769,0.05125
5835.54616,0.03702
5837.47463,0.04490
5839.40310,0.04218
5841.33157,0.03938
5843.26004,0.07543
5845.18851,0.10943
5847.11697,0.10898
5849.04544,0.09010
5850.97391,0.06936
5852.90238,0.06018
5854.83085,0.05109
5856.75932,0.04510
5858.68779,0.04040
5860.61626,0.01416
5862.54472,0.00636
5864.47319,0.06522
5866.40166,0.13240
5868.33013,0.13828
5870.25860,0.11015
5872.18707,0.08247
5874.11554,0.07216
5876.04400,0.09624
5877.97247,0.13192
5879.90094,0.15802
5881.82941,0.16342
5883.75788,0.14234
5885.68635,0.12990
5887.61482,0.14815
5889.54329,0.15161
5891.47175,0.11552
5893.40022,0.09163
5895.32869,0.09786
5897.25716,0.09271
5899.18563,0.08184
5901.11410,0.11573
5903.04257,0.17204
5904.97103,0.17563
5906.89950,0.12333
5908.82797,0.07091
5910.75644,0.07696
5912.68491,0.13613
5914.61338,0.15919
5916.54185,0.09879
5918.47032,0.03368
5920.39878,0.04558
5922.32725,0.09493
5924.25572,0.10566
5926.18419,0.07812
5928.11266,0.06247
5930.04113,0.08300
5931.96960,0.11073
5933.89806,0.10416
5935.82653,0.07355
5937.75500,0.06971
5939.68347,0.09786
5941.61194,0.10674
5943.54041,0.07708
5945.46888,0.04928
5947.39734,0.04380
5949.32581,0.06574
5951.25428,0.10891
5953.18275,0.12585
5955.11122,0.10132
5957.03969,0.08773
5958.96816,0.10446
5960.89663,0.09074
5962.82509,0.04806
5964.75356,0.06035
5966.68203,0.12699
5968.61050,0.14339
5970.53897,0.08453
5972.46744,0.05372
5974.39591,0.08087
5976.32437,0.11118
5978.25284,0.12544
5980.18131,0.10719
5982.10978,0.06371
5984.03825,0.03116
5985.96672,0.04081
5987.89519,0.10613
5989.82366,0.14827
5991.75212,0.10497
5993.68059,0.07631
5995.60906,0.12255
5997.53753,0.13723
5999.46600,0.08390
6001.39447,0.03090
6003.32294,0.02369
6005.25140,0.06836
6007.17987,0.14247
6009.10834,0.19829
6011.03681,0.19499
6012.96528,0.15023
6014.89375,0.10242
6016.82222,0.05733
6018.75069,0.01449
6020.67915,0.01311
6022.60762,0.06304
6024.53609,0.09943
6026.46456,0.08506
6028.39303,0.04086
6030.32150,0.01680
6032.24997,0.05011
6034.17843,0.11559
6036.10690,0.13993
6038.03537,0.09429
6039.96384,0.04398
6041.89231,0.05871
6043.82078,0.12411
6045.74925,0.16884
6047.67772,0.16359
6049.60618,0.11884
6051.53465,0.07175
6053.46312,0.04448
6055.39159,0.04131
6057.32006,0.06813
6059.24853,0.08789
6061.17700,0.09205
6063.10546,0.09038
6065.03393,0.06279
6066.96240,0.04484
6068.89087,0.06959
6070.81934,0.10746
6072.74781,0.12669
6074.67628,0.12489
6076.60475,0.11508
6078.53321,0.11471
6080.46168,0.12503
6082.39015,0.12692
6084.31862,0.10722
6086.24709,0.06182
6088.17556,-0.00979
6090.10403,-0.06422
6092.03249,-0.03937
6093.96096,0.02148
6095.88943,0.03777
6097.81790,0.04219
6099.74637,0.07476
6101.67484,0.09206
6103.60331,0.07360
6105.53177,0.05455
6107.46024,0.05085
6109.38871,0.07029
6111.31718,0.09435
6113.24565,0.09216
6115.17412,0.10160
6117.10259,0.13169
6119.03106,0.11713
6120.95952,0.07015
6122.88799,0.07629
6124.81646,0.13653
6126.74493,0.18201
6128.67340,0.16831
6130.60187,0.13422
6132.53034,0.11838
6134.45880,0.07801
6136.38727,0.00421
6138.31574,-0.03257
6140.24421,0.01793
6142.17268,0.09840
6144.10115,0.09394
6146.02962,0.03062
6147.95809,0.01531
6149.88655,0.05153
6151.81502,0.07581
6153.74349,0.08796
6155.67196,0.12190
6157.60043,0.13856
6159.52890,0.13037
6161.45737,0.14275
6163.38583,0.16094
6165.31430,0.16191
6167.24277,0.16830
6169.17124,0.17516
6171.09971,0.13535
6173.02818,0.06689
6174.95665,0.05175
6176.88512,0.07615
6178.81358,0.06357
6180.74205,0.02643
6182.67052,0.00999
6184.59899,0.01492
6186.52746,0.03448
6188.45593,0.05826
6190.38440,0.10308
6192.31286,0.17112
6194.24133,0.18999
6196.16980,0.13845
6198.09827,0.09173
6200.02674,0.08561
6201.95521,0.09604
6203.88368,0.10537
6205.81215,0.08986
6207.74061,0.06401
6209.66908,0.08046
6211.59755,0.12636
6213.52602,0.15137
6215.45449,0.15331
6217.38296,0.13212
6219.31143,0.10259
6221.23989,0.09898
6223.16836,0.12104
6225.09683,0.12991
6227.02530,0.08539
6228.95377,0.01936
6230.88224,0.01506
6232.81071,0.05355
6234.73918,0.04770
6236.66764,0.02434
6238.59611,0.03914
6240.52458,0.06864
6242.45305,0.07738
6244.38152,0.07021
6246.30999,0.06801
6248.23846,0.10418
6250.16692,0.18444
6252.09539,0.22678
6254.02386,0.18469
6255.95233,0.13860
6257.88080,0.13229
6259.80927,0.13197
6261.73774,0.15726
6263.66621,0.22396
6265.59467,0.23434
6267.52314,0.15407
6269.45161,0.09026
6271.38008,0.05830
6273.30855,0.04478
6275.23702,0.09004
6277.16549,0.18076
6279.09395,0.23109
6281.02242,0.18469
6282.95089,0.13129
6284.87936,0.16135
6286.80783,0.20075
6288.73630,0.18400
6290.66477,0.11476
6292.59323,0.05437
6294.52170,0.07322
6296.45017,0.11070
6298.37864,0.09728
6300.30711,0.09160
6302.23558,0.13928
6304.16405,0.20362
6306.09252,0.26173
6308.02098,0.28535
6309.94945,0.22939
6311.87792,0.12515
6313.80639,0.06159
6315.73486,0.05185
6317.66333,0.04588
6319.59180,0.04279
6321.52026,0.09031
6323.44873,0.16548
6325.37720,0.18956
6327.30567,0.14648
6329.23414,0.08800
6331.16261,0.06415
6333.09108,0.03084
6335.01955,-0.01854
6336.94801,-0.00897
6338.87648,0.01166
6340.80495,-0.01378
6342.73342,-0.01718
6344.66189,0.00321
6346.59036,-0.00802
6348.51883,0.02083
6350.44729,0.14417
6352.37576,0.19875
6354.30423,0.12741
6356.23270,0.07245
6358.16117,0.07746
6360.08964,0.08278
6362.01811,0.04423
6363.94658,0.01057
6365.87504,0.03385
6367.80351,0.05355
6369.73198,0.04534
6371.66045,0.05223
6373.58892,0.07426
6375.51739,0.05612
6377.44586,-0.01720
6379.37432,-0.06093
6381.30279,-0.04202
6383.23126,-0.04246
6385.15973,-0.10233
6387.08820,-0.13471
6389.01667,-0.07884
6390.94514,0.04239
6392.87361,0.14705
6394.80207,0.17906
6396.73054,0.18622
6398.65901,0.20410
6400.58748,0.22517
6402.51595,0.22364
6404.44442,0.18283
6406.37289,0.15469
6408.30135,0.12828
6410.22982,0.06892
6412.15829,0.07287
6414.08676,0.11194
6416.01523,0.09240
6417.94370,0.09338
6419.87217,0.14532
6421.80064,0.14879
6423.72910,0.11003
6425.65757,0.07518
6427.58604,0.06940
6429.51451,0.10782
6431.44298,0.12430
6433.37145,0.08322
6435.29992,0.03813
6437.22838,0.02250
6439.15685,0.04848
6441.08532,0.09386
6443.01379,0.15740
6444.94226,0.21577
6446.87073,0.20973
6448.79920,0.15538
6450.72766,0.12101
6452.65613,0.12860
6454.58460,0.11129
6456.51307,0.06428
6458.44154,0.07118
6460.37001,0.10324
6462.29848,0.10656
6464.22695,0.10197
6466.15541,0.09242
6468.08388,0.10129
6470.01235,0.15083
6471.94082,0.20228
6473.86929,0.23179
6475.79776,0.21540
6477.72623,0.11978
6479.65469,0.02698
6481.58316,0.04207
6483.51163,0.09090
6485.44010,0.06762
6487.36857,0.03157
6489.29704,0.08890
6491.22551,0.20163
6493.15398,0.21424
6495.08244,0.13568
6497.01091,0.08596
6498.93938,0.07636
6500.86785,0.11528
6502.79632,0.18057
6504.72479,0.18374
6506.65326,0.17496
6508.58172,0.22089
6510.51019,0.22514
6512.43866,0.12300
6514.36713,0.02188
6516.29560,-0.00673
6518.22407,0.00330
6520.15254,0.02313
6522.08101,0.06705
6524.00947,0.15415
6525.93794,0.20608
6527.86641,0.14390
6529.79488,0.09687
6531.72335,0.15734
6533.65182,0.20262
6535.58029,0.16611
6537.50875,0.11767
6539.43722,0.06785
6541.36569,0.01331
6543.29416,-0.01149
6545.22263,-0.01464
6547.15110,0.00923
6549.07957,0.05481
6551.00804,0.05577
6552.93650,0.00993
6554.86497,-0.03263
6556.79344,-0.07108
6558.72191,-0.09564
6560.65038,-0.07896
6562.57885,-0.04131
6564.50732,-0.01562
6566.43578,-0.00718
6568.36425,-0.00250
6570.29272,0.01200
6572.22119,0.02286
6574.14966,0.01068
6576.07813,-0.01682
6578.00660,-0.02625
6579.93507,0.03565
6581.86353,0.14326
6583.79200,0.16028
6585.72047,0.06442
6587.64894,-0.01521
6589.57741,0.00184
6591.50588,0.08213
6593.43435,0.13371
6595.36281,0.11013
6597.29128,0.07434
6599.21975,0.08863
6601.14822,0.11088
6603.07669,0.08672
6605.00516,0.08773
6606.93363,0.14564
6608.86210,0.19691
6610.79056,0.19391
6612.71903,0.15402
6614.64750,0.12660
6616.57597,0.13318
6618.50444,0.16020
6620.43291,0.13359
6622.36138,0.03802
6624.28984,-0.02054
6626.21831,-0.00702
6628.14678,0.01626
6630.07525,0.02499
6632.00372,0.04395
6633.93219,0.04917
6635.86066,0.00636
6637.78912,-0.01394
6639.71759,0.03934
6641.64606,0.11839
6643.57453,0.18145
6645.50300,0.21739
6647.43147,0.21262
6649.35994,0.18312
6651.28841,0.15448
6653.21687,0.16169
6655.14534,0.21064
6657.07381,0.15494
6659.00228,0.00011
6660.93075,-0.05784
6662.85922,-0.04479
6664.78769,-0.03624
6666.71615,-0.02071
6668.64462,0.00612
6670.57309,0.00313
6672.50156,0.02022
6674.43003,0.11656
6676.35850,0.11557
6678.28697,-0.01182
6680.21544,-0.07132
6682.14390,-0.02437
6684.07237,0.03784
6686.00084,0.05408
6687.92931,0.03060
6689.85778,0.02164
6691.78625,0.05396
6693.71472,0.09163
6695.64318,0.07386
6697.57165,-0.01501
6699.50012,-0.08665
6701.42859,-0.07443
6703.35706,0.01447
6705.28553,0.12734
6707.21400,0.18987
6709.14247,0.17475
6711.07093,0.14495
6712.99940,0.15709
6714.92787,0.16555
6716.85634,0.11688
6718.78481,0.06766
6720.71328,0.08315
6722.64175,0.10262
6724.57021,0.02918
6726.49868,-0.05275
6728.42715,-0.00749
6730.35562,0.11285
6732.28409,0.18509
6734.21256,0.20130
6736.14103,0.15974
6738.06950,0.08394
6739.99796,0.04318
6741.92643,0.04470
6743.85490,0.07391
6745.78337,0.10293
6747.71184,0.07660
6749.64031,-0.00028
6751.56878,-0.05581
6753.49724,-0.02188
6755.42571,0.05023
6757.35418,0.05790
6759.28265,0.03647
6761.21112,0.07410
6763.13959,0.15892
6765.06806,0.19723
6766.99653,0.14050
6768.92499,0.06614
6770.85346,0.02132
6772.78193,-0.05094
6774.71040,-0.13645
6776.63887,-0.11451
6778.56734,-0.00332
6780.49581,0.05862
6782.42427,0.03605
6784.35274,-0.01924
6786.28121,-0.05265
6788.20968,-0.01683
6790.13815,0.07226
6792.06662,0.08776
6793.99509,0.03109
6795.92355,0.02888
6797.85202,0.05669
6799.78049,0.08394
6801.70896,0.13455
6803.63743,0.14633
6805.56590,0.07372
6807.49437,-0.00524
6809.42284,-0.02959
6811.35130,0.00041
6813.27977,0.07222
6815.20824,0.13212
6817.13671,0.13410
6819.06518,0.10492
6820.99365,0.07358
6822.92212,0.06856
6824.85058,0.09417
6826.77905,0.11159
6828.70752,0.10289
6830.63599,0.06645
6832.56446,0.03912
6834.49293,0.02564
6836.42140,-0.03018
6838.34987,-0.08285
6840.27833,-0.04716
6842.20680,0.02788
6844.13527,0.08629
6846.06374,0.11496
6847.99221,0.10676
6849.92068,0.06502
6851.84915,0.04030
6853.77761,0.10761
6855.70608,0.22039
6857.63455,0.21456
6859.56302,0.09913
6861.49149,-0.00945
6863.41996,-0.05892
6865.34843,-0.05984
6867.27690,-0.05412
6869.20536,-0.07038
6871.13383,-0.06902
6873.06230,-0.02847
6874.99077,0.00142
6876.91924,-0.01070
6878.84771,0.00636
6880.77618,0.08589
6882.70464,0.09331
6884.63311,0.00426
6886.56158,-0.07345
6888.49005,-0.05812
6890.41852,0.03023
6892.34699,0.09792
6894.27546,0.09960
6896.20393,0.06006
6898.13239,0.00999
6900.06086,0.02125
6901.98933,0.10397
6903.91780,0.15032
6905.84627,0.10789
6907.77474,0.04904
6909.70321,0.00654
6911.63167,0.00474
6913.56014,0.09839
6915.48861,0.20549
6917.41708,0.19088
6919.34555,0.08163
6921.27402,-0.02520
6923.20249,-0.10519
6925.13096,-0.10806
6927.05942,-0.00437
6928.98789,0.13433
6930.91636,0.21715
6932.84483,0.21419
6934.77330,0.18124
6936.70177,0.17330
6938.63024,0.17240
6940.55870,0.14627
6942.48717,0.11072
6944.41564,0.12915
6946.34411,0.18969
6948.27258,0.18927
6950.20105,0.09619
6952.12952,0.00192
6954.05799,0.01266
6955.98645,0.09723
6957.91492,0.15581
6959.84339,0.16394
6961.77186,0.10414
6963.70033,0.05470
6965.62880,0.08574
6967.55727,0.13572
6969.48573,0.13483
6971.41420,0.12434
6973.34267,0.14493
6975.27114,0.15274
6977.19961,0.17262
6979.12808,0.21781
6981.05655,0.17029
6982.98501,0.01628
6984.91348,-0.11281
6986.84195,-0.17081
6988.77042,-0.16956
6990.69889,-0.12477
6992.62736,-0.07034
6994.55583,-0.01654
6996.48430,0.05989
6998.41276,0.15856
7000.34123,0.17930
7002.26970,0.07602
7004.19817,-0.01597
7006.12664,0.01909
7008.05511,0.09326
7009.98358,0.06073
7011.91204,-0.00635
7013.84051,0.04962
7015.76898,0.16246
7017.69745,0.18491
7019.62592,0.13393
7021.55439,0.06625
7023.48286,-0.01509
7025.41133,-0.10089
7027.33979,-0.13025
7029.26826,-0.09905
7031.19673,-0.03454
7033.12520,0.09388
7035.05367,0.22663
7036.98214,0.24810
7038.91061,0.15723
7040.83907,0.03188
7042.76754,0.02350
7044.69601,0.17449
7046.62448,0.27734
7048.55295,0.19054
7050.48142,0.04687
7052.40989,-0.00465
7054.33836,-0.04228
7056.26682,-0.11263
7058.19529,-0.03555
7060.12376,0.11850
7062.05223,0.16617
7063.98070,0.14995
7065.90917,0.11179
7067.83764,0.11503
7069.76610,0.19491
7071.69457,0.25443
7073.62304,0.27614
7075.55151,0.26331
7077.47998,0.20502
7079.40845,0.16293
7081.33692,0.18898
7083.26539,0.22504
7085.19385,0.19223
7087.12232,0.15068
7089.05079,0.21456
7090.97926,0.29631
7092.90773,0.26824
7094.83620,0.20885
7096.76467,0.15474
7098.69313,0.03065
7100.62160,-0.07592
7102.55007,-0.08810
7104.47854,-0.01765
7106.40701,0.03785
7108.33548,-0.01993
7110.26395,-0.09099
7112.19242,-0.06933
7114.12088,0.01339
7116.04935,0.03264
7117.97782,-0.08615
7119.90629,-0.18556
7121.83476,-0.06909
7123.76323,0.12819
7125.69170,0.18471
7127.62016,0.17138
7129.54863,0.21668
7131.47710,0.24958
7133.40557,0.17247
7135.33404,0.03065
7137.26251,-0.01751
7139.19098,0.08824
7141.11944,0.22874
7143.04791,0.25464
7144.97638,0.15748
7146.90485,0.04621
7148.83332,-0.02292
7150.76179,0.02223
7152.69026,0.20388
7154.61873,0.28496
7156.54719,0.18482
7158.47566,0.06767
7160.40413,-0.01529
7162.33260,-0.06811
7164.26107,-0.07454
7166.18954,0.04854
7168.11801,0.28003
7170.04647,0.37637
7171.97494,0.19917
7173.90341,-0.05659
7175.83188,-0.16650
7177.76035,-0.08215
7179.68882,0.00610
7181.61729,0.00888
7183.54576,0.05647
7185.47422,0.14797
7187.40269,0.14879
7189.33116,0.03424
7191.25963,-0.13400
7193.18810,-0.19876
7195.11657,-0.05051
7197.04504,0.23210
7198.97350,0.39142
7200.90197,0.34073
7202.83044,0.18139
7204.75891,0.09027
7206.68738,0.15676
7208.61585,0.14383
7210.54432,0.05034
7212.47279,0.02610
7214.40125,0.06579
7216.32972,0.01944
7218.25819,-0.19551
7220.18666,-0.27204
7222.11513,-0.11351
7224.04360,0.08226
7225.97207,0.13937
7227.90053,0.05413
7229.82900,0.03007
7231.75747,0.11646
7233.68594,0.18968
7235.61441,0.22568
7237.54288,0.17611
7239.47135,0.02781
7241.39982,-0.06668
7243.32828,-0.02134
7245.25675,0.00459
7247.18522,-0.00662
7249.11369,0.09738
7251.04216,0.28056
7252.97063,0.27455
7254.89910,0.09119
7256.82756,-0.01557
7258.75603,-0.08934
7260.68450,-0.09434
7262.61297,0.04618
7264.54144,0.19920
7266.46991,0.27901
7268.39838,0.26994
7270.32685,0.18488
7272.25531,0.04832
7274.18378,-0.13255
7276.11225,-0.22101
7278.04072,-0.12302
7279.96919,0.05324
7281.89766,0.13800
7283.82613,0.19921
7285.75459,0.19238
7287.68306,0.09043
7289.61153,0.04500
7291.54000,0.13159
7293.46847,0.22715
7295.39694,0.25990
7297.32541,0.27333
7299.25387,0.26236
7301.18234,0.17891
7303.11081,0.00941
7305.03928,-0.18925
7306.96775,-0.20613
7308.89622,0.09561
7310.82469,0.27268
7312.75316,0.16861
7314.68162,0.12083
7316.61009,0.14105
7318.53856,0.12076
7320.46703,0.18589
7322.39550,0.31638
7324.32397,0.40112
7326.25244,0.47239
7328.18090,0.47125
7330.10937,0.24093
7332.03784,-0.00999
7333.96631,-0.06775
7335.89478,-0.01990
7337.82325,-0.02633
7339.75172,-0.12631
7341.68019,-0.12778
7343.60865,0.00474
7345.53712,0.10761
7347.46559,0.06166
7349.39406,-0.01966
7351.32253,-0.01191
7353.25100,-0.11888
7355.17947,-0.26146
7357.10793,-0.16713
7359.03640,0.01812
7360.96487,-0.01613
7362.89334,-0.14636
7364.82181,-0.19048
7366.75028,-0.15548
7368.67875,-0.06801
7370.60722,0.10149
7372.53568,0.26975
7374.46415,0.31245
7376.39262,0.22783
7378.32109,0.16245
7380.24956,0.17575
7382.17803,0.32000
7384.10650,0.46451
7386.03496,0.39641
7387.96343,0.15665
7389.89190,0.08055
7391.82037,0.28057
7393.74884,0.49264
7395.67731,0.48478
7397.60578,0.32949
7399.53425,0.23460
7401.46271,0.25667
7403.39118,0.26866
7405.31965,0.19154
7407.24812,0.04431
7409.17659,-0.03173
7411.10506,-0.01035
7413.03353,-0.13341
7414.96199,-0.30601
7416.89046,-0.17751
7418.81893,0.24010
7420.74740,0.40608
7422.67587,0.27277
7424.60434,0.17239
7426.53281,0.14214
7428.46128,0.12277
7430.38974,0.12052
7432.31821,0.09703
7434.24668,0.04409
7436.17515,0.06020
7438.10362,0.20540
7440.03209,0.36471
7441.96056,0.38422
7443.88902,0.33791
7445.81749,0.30514
7447.74596,0.23341
7449.67443,0.08532
7451.60290,0.01720
7453.53137,0.15079
7455.45984,0.27507
7457.38831,0.32062
7459.31677,0.26815
7461.24524,0.11040
7463.17371,0.00713
7465.10218,-0.03899
7467.03065,0.02097
7468.95912,0.19834
7470.88759,0.23831
7472.81605,0.01628
7474.74452,-0.12845
7476.67299,-0.01555
7478.60146,0.08580
7480.52993,0.00584
7482.45840,0.02477
7484.38687,0.14762
7486.31533,0.19177
7488.24380,0.14420
7490.17227,0.04431
7492.10074,0.00652
7494.02921,0.08143
7495.95768,0.12226
7497.88615,-0.00673
