399.19301,0.94267
401.12148,-1.11957
403.04995,-1.51756
404.97842,-1.78218
406.90689,-1.28540
408.83536,0.22485
410.76382,2.17745
412.69229,4.07663
414.62076,6.37590
416.54923,8.76868
418.47770,8.22180
420.40617,3.58824
422.33464,0.98668
424.26311,0.58054
426.19157,0.45633
428.12004,0.35378
430.04851,0.35803
431.97698,0.31679
433.90545,0.27842
435.83392,0.21651
437.76239,0.17109
439.69085,0.21920
441.61932,0.19880
443.54779,-0.02058
445.47626,-0.15675
447.40473,-0.09793
449.33320,-0.02988
451.26167,0.03641
453.19013,0.09471
455.11860,0.07049
457.04707,0.01138
458.97554,-0.00464
460.90401,-0.01300
462.83248,-0.04376
464.76095,-0.04848
466.68942,-0.01488
468.61788,0.03744
470.54635,0.07524
472.47482,0.20631
474.40329,0.50684
476.33176,0.40508
478.26023,0.11169
480.18870,-0.00050
482.11716,-0.00336
484.04563,0.02316
485.97410,0.08482
487.90257,0.10079
489.83104,0.05310
491.75951,0.03007
493.68798,0.06087
495.61645,0.06478
497.54491,0.05285
499.47338,0.04750
501.40185,0.03261
503.33032,0.04308
505.25879,0.12288
507.18726,0.22499
509.11573,0.25245
511.04419,0.20275
512.97266,0.12045
514.90113,0.07196
516.82960,0.11361
518.75807,0.18511
520.68654,0.20276
522.61501,0.17379
524.54348,0.12936
526.47194,0.12887
528.40041,0.17975
530.32888,0.19992
532.25735,0.15131
534.18582,0.10010
536.11429,0.12262
538.04276,0.16646
539.97122,0.13441
541.89969,0.06189
543.82816,0.04653
545.75663,0.07969
547.68510,0.12572
549.61357,0.19422
551.54204,0.28248
553.47051,0.35512
555.39897,0.32063
557.32744,0.19113
559.25591,0.12402
561.18438,0.13962
563.11285,0.15472
565.04132,0.16132
566.96979,0.17086
568.89825,0.16083
570.82672,0.15145
572.75519,0.15863
574.68366,0.15148
576.61213,0.11730
578.54060,0.09056
580.46907,0.09685
582.39754,0.12288
584.32600,0.13192
586.25447,0.11544
588.18294,0.11331
590.11141,0.14367
592.03988,0.16637
593.96835,0.15415
595.89682,0.12807
597.82528,0.10833
599.75375,0.11039
601.68222,0.13029
603.61069,0.13386
605.53916,0.10797
607.46763,0.08186
609.39610,0.08389
611.32456,0.10811
613.25303,0.12736
615.18150,0.13057
617.10997,0.13244
619.03844,0.12768
620.96691,0.11217
622.89538,0.10922
624.82385,0.12690
626.75231,0.14878
628.68078,0.16298
630.60925,0.21100
632.53772,0.27255
634.46619,0.23465
636.39466,0.14704
638.32313,0.11629
640.25159,0.11494
642.18006,0.11256
644.10853,0.11799
646.03700,0.11721
647.96547,0.09881
649.89394,0.08181
651.82241,0.08710
653.75088,0.10211
655.67934,0.11068
657.60781,0.11239
659.53628,0.12216
661.46475,0.14823
663.39322,0.16623
665.32169,0.16438
667.25016,0.15357
669.17862,0.14698
671.10709,0.15365
673.03556,0.14904
674.96403,0.12646
676.89250,0.12051
678.82097,0.13661
680.74944,0.14010
682.67791,0.13307
684.60637,0.14031
686.53484,0.15936
688.46331,0.16483
690.39178,0.15058
692.32025,0.13937
694.24872,0.13389
696.17719,0.12636
698.10565,0.12908
700.03412,0.13159
701.96259,0.11984
703.89106,0.12004
705.81953,0.14294
707.74800,0.17546
709.67647,0.23208
711.60494,0.27961
713.53340,0.24618
715.46187,0.17060
717.39034,0.13275
719.31881,0.13464
721.24728,0.14238
723.17575,0.13998
725.10422,0.13996
727.03268,0.14481
728.96115,0.14521
730.88962,0.14429
732.81809,0.14724
734.74656,0.14713
736.67503,0.14107
738.60350,0.14182
740.53197,0.14974
742.46043,0.15350
744.38890,0.15539
746.31737,0.16103
748.24584,0.17048
750.17431,0.17941
752.10278,0.17682
754.03125,0.16086
755.95971,0.14076
757.88818,0.12617
759.81665,0.12804
761.74512,0.14230
763.67359,0.14741
765.60206,0.14269
767.53053,0.14007
769.45900,0.13939
771.38746,0.14240
773.31593,0.14069
775.24440,0.12519
777.17287,0.11203
779.10134,0.11585
781.02981,0.12834
782.95828,0.14257
784.88674,0.15493
786.81521,0.16335
788.74368,0.18468
790.67215,0.20743
792.60062,0.19930
794.52909,0.17172
796.45756,0.15388
798.38602,0.15167
800.31449,0.15324
802.24296,0.14430
804.17143,0.12975
806.09990,0.12761
808.02837,0.14646
809.95684,0.17322
811.88531,0.18231
813.81377,0.17053
815.74224,0.15498
817.67071,0.14144
819.59918,0.13426
821.52765,0.13807
823.45612,0.14587
825.38459,0.15301
827.31305,0.15677
829.24152,0.15017
831.16999,0.13696
833.09846,0.13287
835.02693,0.14514
836.95540,0.15846
838.88387,0.15746
840.81234,0.15031
842.74080,0.15198
844.66927,0.16381
846.59774,0.17083
848.52621,0.16372
850.45468,0.15643
852.38315,0.15374
854.31162,0.14425
856.24008,0.13779
858.16855,0.14699
860.09702,0.16246
862.02549,0.17005
863.95396,0.16871
865.88243,0.15730
867.81090,0.13238
869.73937,0.11777
871.66783,0.12562
873.59630,0.13485
875.52477,0.14125
877.45324,0.15143
879.38171,0.15965
881.31018,0.16042
883.23865,0.16056
885.16711,0.16287
887.09558,0.16318
889.02405,0.16374
890.95252,0.15926
892.88099,0.14358
894.80946,0.12928
896.73793,0.12890
898.66640,0.13968
900.59486,0.15184
902.52333,0.15545
904.45180,0.15419
906.38027,0.15780
908.30874,0.16457
910.23721,0.17168
912.16568,0.17654
914.09414,0.17225
916.02261,0.16460
917.95108,0.16608
919.87955,0.17034
921.80802,0.16904
923.73649,0.16513
925.66496,0.16033
927.59343,0.15671
929.52189,0.15722
931.45036,0.15809
933.37883,0.15394
935.30730,0.15194
937.23577,0.15822
939.16424,0.16294
941.09271,0.16058
943.02117,0.16041
944.94964,0.16673
946.87811,0.17028
948.80658,0.16628
950.73505,0.16085
952.66352,0.15856
954.59199,0.15890
956.52045,0.16156
958.44892,0.16648
960.37739,0.17173
962.30586,0.17300
964.23433,0.16733
966.16280,0.16269
968.09127,0.16502
970.01974,0.16653
971.94820,0.16254
973.87667,0.15589
975.80514,0.15040
977.73361,0.15001
979.66208,0.15212
981.59055,0.15007
983.51902,0.14589
985.44748,0.14628
987.37595,0.15307
989.30442,0.15991
991.23289,0.15925
993.16136,0.15711
995.08983,0.15807
997.01830,0.15854
998.94677,0.16014
1000.87523,0.15811
1002.80370,0.15047
1004.73217,0.15304
1006.66064,0.16912
1008.58911,0.17990
1010.51758,0.17859
1012.44605,0.17620
1014.37451,0.17649
1016.30298,0.17132
1018.23145,0.16369
1020.15992,0.16504
1022.08839,0.17007
1024.01686,0.17679
1025.94533,0.19684
1027.87380,0.21822
1029.80226,0.20907
1031.73073,0.17978
1033.65920,0.17308
1035.58767,0.18683
1037.51614,0.19117
1039.44461,0.18265
1041.37308,0.17371
1043.30154,0.16860
1045.23001,0.16449
1047.15848,0.16448
1049.08695,0.17021
1051.01542,0.17569
1052.94389,0.18049
1054.87236,0.18409
1056.80083,0.18525
1058.72929,0.18947
1060.65776,0.19137
1062.58623,0.18492
1064.51470,0.17803
1066.44317,0.17312
1068.37164,0.16899
1070.30011,0.16922
1072.22857,0.17188
1074.15704,0.17463
1076.08551,0.17957
1078.01398,0.17993
1079.94245,0.17572
1081.87092,0.17886
1083.79939,0.18250
1085.72786,0.17568
1087.65632,0.16787
1089.58479,0.16923
1091.51326,0.17557
1093.44173,0.17992
1095.37020,0.18303
1097.29867,0.18392
1099.22714,0.17714
1101.15560,0.16542
1103.08407,0.15525
1105.01254,0.15118
1106.94101,0.15783
1108.86948,0.17178
1110.79795,0.18273
1112.72642,0.18113
1114.65489,0.16897
1116.58335,0.16256
1118.51182,0.16608
1120.44029,0.16842
1122.36876,0.16951
1124.29723,0.17313
1126.22570,0.17676
1128.15417,0.17832
1130.08263,0.17238
1132.01110,0.16158
1133.93957,0.15591
1135.86804,0.15653
1137.79651,0.16267
1139.72498,0.16977
1141.65345,0.17109
1143.58191,0.17058
1145.51038,0.17218
1147.43885,0.17412
1149.36732,0.17589
1151.29579,0.17739
1153.22426,0.18118
1155.15273,0.18660
1157.08120,0.18710
1159.00966,0.18476
1160.93813,0.18617
1162.86660,0.18779
1164.79507,0.18511
1166.72354,0.18168
1168.65201,0.17861
1170.58048,0.17587
1172.50894,0.17700
1174.43741,0.17963
1176.36588,0.17970
1178.29435,0.18018
1180.22282,0.18162
1182.15129,0.17776
1184.07976,0.17591
1186.00823,0.18596
1187.93669,0.19199
1189.86516,0.18568
1191.79363,0.17944
1193.72210,0.17720
1195.65057,0.17656
1197.57904,0.17504
1199.50751,0.17358
1201.43597,0.17304
1203.36444,0.17026
1205.29291,0.17036
1207.22138,0.17785
1209.14985,0.18530
1211.07832,0.18779
1213.00679,0.18774
1214.93526,0.18674
1216.86372,0.18478
1218.79219,0.18276
1220.72066,0.18143
1222.64913,0.17959
1224.57760,0.17854
1226.50607,0.18106
1228.43454,0.18287
1230.36300,0.18070
1232.29147,0.17759
1234.21994,0.17499
1236.14841,0.17415
1238.07688,0.17709
1240.00535,0.18066
1241.93382,0.17999
1243.86229,0.17573
1245.79075,0.17196
1247.71922,0.17225
1249.64769,0.17650
1251.57616,0.18001
1253.50463,0.18141
1255.43310,0.18333
1257.36157,0.18656
1259.29003,0.19038
1261.21850,0.19192
1263.14697,0.18967
1265.07544,0.18471
1267.00391,0.18112
1268.93238,0.18460
1270.86085,0.18945
1272.78932,0.18914
1274.71778,0.18959
1276.64625,0.19240
1278.57472,0.19191
1280.50319,0.18976
1282.43166,0.18922
1284.36013,0.18752
1286.28860,0.18603
1288.21706,0.18889
1290.14553,0.19221
1292.07400,0.18977
1294.00247,0.18347
1295.93094,0.17940
1297.85941,0.17991
1299.78788,0.18191
1301.71634,0.18078
1303.64481,0.17709
1305.57328,0.17784
1307.50175,0.18485
1309.43022,0.19042
1311.35869,0.19161
1313.28716,0.19060
1315.21563,0.18929
1317.14409,0.18902
1319.07256,0.18737
1321.00103,0.18428
1322.92950,0.18345
1324.85797,0.18523
1326.78644,0.18563
1328.71491,0.18391
1330.64337,0.18347
1332.57184,0.18506
1334.50031,0.18582
1336.42878,0.18455
1338.35725,0.18500
1340.28572,0.19242
1342.21419,0.20924
1344.14266,0.22344
1346.07112,0.21976
1347.99959,0.20246
1349.92806,0.18698
1351.85653,0.18249
1353.78500,0.18479
1355.71347,0.18358
1357.64194,0.17829
1359.57040,0.17679
1361.49887,0.18346
1363.42734,0.19076
1365.35581,0.19136
1367.28428,0.19057
1369.21275,0.19076
1371.14122,0.19006
1373.06969,0.19130
1374.99815,0.19583
1376.92662,0.19807
1378.85509,0.19530
1380.78356,0.19100
1382.71203,0.19226
1384.64050,0.19817
1386.56897,0.20021
1388.49743,0.19646
1390.42590,0.19470
1392.35437,0.19857
1394.28284,0.20327
1396.21131,0.20060
1398.13978,0.19420
1400.06825,0.19184
1401.99672,0.19176
1403.92518,0.19134
1405.85365,0.19007
1407.78212,0.18845
1409.71059,0.18841
1411.63906,0.18992
1413.56753,0.19269
1415.49600,0.19749
1417.42446,0.20404
1419.35293,0.20537
1421.28140,0.19998
1423.20987,0.19662
1425.13834,0.19462
1427.06681,0.19452
1428.99528,0.19914
1430.92375,0.20390
1432.85221,0.20642
1434.78068,0.21236
1436.70915,0.21687
1438.63762,0.20946
1440.56609,0.20092
1442.49456,0.19825
1444.42303,0.19973
1446.35149,0.20217
1448.27996,0.20358
1450.20843,0.20406
1452.13690,0.20607
1454.06537,0.21267
1455.99384,0.22389
1457.92231,0.22627
1459.85077,0.21667
1461.77924,0.21243
1463.70771,0.21430
1465.63618,0.21258
1467.56465,0.20542
1469.49312,0.20648
1471.42159,0.22059
1473.35006,0.23259
1475.27852,0.22595
1477.20699,0.21604
1479.13546,0.21201
1481.06393,0.20830
1482.99240,0.20094
1484.92087,0.19804
1486.84934,0.20798
1488.77780,0.22429
1490.70627,0.22423
1492.63474,0.21374
1494.56321,0.21311
1496.49168,0.22262
1498.42015,0.22786
1500.34862,0.22434
1502.27709,0.22284
1504.20555,0.23807
1506.13402,0.27242
1508.06249,0.26421
1509.99096,0.23279
1511.91943,0.22119
1513.84790,0.22434
1515.77637,0.23874
1517.70483,0.24865
1519.63330,0.24470
1521.56177,0.23360
1523.49024,0.22173
1525.41871,0.21651
1527.34718,0.21475
1529.27565,0.21275
1531.20412,0.21544
1533.13258,0.22229
1535.06105,0.22304
1536.98952,0.22560
1538.91799,0.24507
1540.84646,0.26763
1542.77493,0.25530
1544.70340,0.23347
1546.63186,0.21702
1548.56033,0.20925
1550.48880,0.21035
1552.41727,0.21706
1554.34574,0.22617
1556.27421,0.24205
1558.20268,0.26217
1560.13115,0.24080
1562.05961,0.21728
1563.98808,0.21245
1565.91655,0.21257
1567.84502,0.21397
1569.77349,0.21413
1571.70196,0.20998
1573.63043,0.20983
1575.55889,0.21670
1577.48736,0.21974
1579.41583,0.21299
1581.34430,0.20342
1583.27277,0.19674
1585.20124,0.19553
1587.12971,0.19682
1589.05818,0.19812
1590.98664,0.19926
1592.91511,0.19943
1594.84358,0.19702
1596.77205,0.19333
1598.70052,0.19211
1600.62899,0.19337
1602.55746,0.19506
1604.48592,0.19742
1606.41439,0.19920
1608.34286,0.19788
1610.27133,0.19454
1612.19980,0.19310
1614.12827,0.19705
1616.05674,0.20724
1617.98521,0.21310
1619.91367,0.21309
1621.84214,0.21698
1623.77061,0.22101
1625.69908,0.22039
1627.62755,0.21800
1629.55602,0.21607
1631.48449,0.22025
1633.41295,0.23286
1635.34142,0.24426
1637.26989,0.23402
1639.19836,0.22169
1641.12683,0.21756
1643.05530,0.21876
1644.98377,0.23107
1646.91223,0.24956
1648.84070,0.24672
1650.76917,0.24034
1652.69764,0.24656
1654.62611,0.23932
1656.55458,0.22575
1658.48305,0.22256
1660.41152,0.22639
1662.33998,0.23085
1664.26845,0.22640
1666.19692,0.22210
1668.12539,0.22889
1670.05386,0.23650
1671.98233,0.23526
1673.91080,0.23550
1675.83926,0.23427
1677.76773,0.22910
1679.69620,0.22621
1681.62467,0.22962
1683.55314,0.24190
1685.48161,0.24716
1687.41008,0.23837
1689.33855,0.22525
1691.26701,0.21371
1693.19548,0.21396
1695.12395,0.22625
1697.05242,0.23994
1698.98089,0.24712
1700.90936,0.24225
1702.83783,0.23104
1704.76629,0.22524
1706.69476,0.22160
1708.62323,0.21799
1710.55170,0.21586
1712.48017,0.21743
1714.40864,0.22543
1716.33711,0.23410
1718.26558,0.22956
1720.19404,0.21918
1722.12251,0.21260
1724.05098,0.20778
1725.97945,0.20457
1727.90792,0.20656
1729.83639,0.21383
1731.76486,0.22472
1733.69332,0.23260
1735.62179,0.22427
1737.55026,0.21587
1739.47873,0.21553
1741.40720,0.21666
1743.33567,0.21657
1745.26414,0.21751
1747.19261,0.22077
1749.12107,0.22484
1751.04954,0.22243
1752.97801,0.21498
1754.90648,0.21127
1756.83495,0.21249
1758.76342,0.21535
1760.69189,0.21871
1762.62035,0.21916
1764.54882,0.21532
1766.47729,0.21552
1768.40576,0.22372
1770.33423,0.23582
1772.26270,0.23792
1774.19117,0.22288
1776.11964,0.21104
1778.04810,0.20969
1779.97657,0.21143
1781.90504,0.20906
1783.83351,0.20592
1785.76198,0.20534
1787.69045,0.20683
1789.61892,0.21296
1791.54738,0.22155
1793.47585,0.22043
1795.40432,0.21228
1797.33279,0.20964
1799.26126,0.21222
1801.18973,0.21284
1803.11820,0.21157
1805.04666,0.21286
1806.97513,0.21541
1808.90360,0.21706
1810.83207,0.21601
1812.76054,0.21079
1814.68901,0.20903
1816.61748,0.21716
1818.54595,0.22487
1820.47441,0.21847
1822.40288,0.20795
1824.33135,0.20764
1826.25982,0.21132
1828.18829,0.21369
1830.11676,0.21458
1832.04523,0.21061
1833.97369,0.20852
1835.90216,0.21037
1837.83063,0.20971
1839.75910,0.20715
1841.68757,0.20980
1843.61604,0.21663
1845.54451,0.21827
1847.47298,0.21438
1849.40144,0.21137
1851.32991,0.21035
1853.25838,0.20806
1855.18685,0.20428
1857.11532,0.20373
1859.04379,0.20778
1860.97226,0.21005
1862.90072,0.20791
1864.82919,0.20942
1866.75766,0.21673
1868.68613,0.22073
1870.61460,0.21645
1872.54307,0.21004
1874.47154,0.20657
1876.40001,0.20546
1878.32847,0.20389
1880.25694,0.20327
1882.18541,0.20512
1884.11388,0.20637
1886.04235,0.20719
1887.97082,0.21066
1889.89929,0.21291
1891.82775,0.21136
1893.75622,0.21060
1895.68469,0.21112
1897.61316,0.21043
1899.54163,0.20825
1901.47010,0.20523
1903.39857,0.20324
1905.32704,0.20510
1907.25550,0.21009
1909.18397,0.21246
1911.11244,0.20955
1913.04091,0.20741
1914.96938,0.20895
1916.89785,0.21076
1918.82632,0.21128
1920.75478,0.21145
1922.68325,0.21008
1924.61172,0.20711
1926.54019,0.20668
1928.46866,0.20760
1930.39713,0.20561
1932.32560,0.20341
1934.25407,0.20489
1936.18253,0.20716
1938.11100,0.20704
1940.03947,0.20718
1941.96794,0.20904
1943.89641,0.21126
1945.82488,0.21267
1947.75335,0.21122
1949.68181,0.20901
1951.61028,0.20962
1953.53875,0.21145
1955.46722,0.21211
1957.39569,0.21195
1959.32416,0.21180
1961.25263,0.21054
1963.18110,0.20855
1965.10956,0.20811
1967.03803,0.20871
1968.96650,0.20848
1970.89497,0.20714
1972.82344,0.20419
1974.75191,0.19973
1976.68038,0.19673
1978.60884,0.19637
1980.53731,0.19876
1982.46578,0.20395
1984.39425,0.20892
1986.32272,0.21277
1988.25119,0.21548
1990.17966,0.21602
1992.10812,0.21454
1994.03659,0.21199
1995.96506,0.21004
1997.89353,0.20779
1999.82200,0.20501
2001.75047,0.20396
2003.67894,0.20462
2005.60741,0.20515
2007.53587,0.20463
2009.46434,0.20376
2011.39281,0.20464
2013.32128,0.20861
2015.24975,0.21268
2017.17822,0.21385
2019.10669,0.21450
2021.03515,0.21637
2022.96362,0.21586
2024.89209,0.21113
2026.82056,0.20662
2028.74903,0.20521
2030.67750,0.20479
2032.60597,0.20503
2034.53444,0.20710
2036.46290,0.20892
2038.39137,0.20966
2040.31984,0.21001
2042.24831,0.20888
2044.17678,0.20772
2046.10525,0.20810
2048.03372,0.20900
2049.96218,0.20915
2051.89065,0.20798
2053.81912,0.20759
2055.74759,0.20840
2057.67606,0.20838
2059.60453,0.20780
2061.53300,0.20756
2063.46147,0.20864
2065.38993,0.21086
2067.31840,0.21139
2069.24687,0.20910
2071.17534,0.20671
2073.10381,0.20649
2075.03228,0.20745
2076.96075,0.20921
2078.88921,0.21198
2080.81768,0.21419
2082.74615,0.21457
2084.67462,0.21394
2086.60309,0.21263
2088.53156,0.20965
2090.46003,0.20634
2092.38850,0.20485
2094.31696,0.20586
2096.24543,0.20966
2098.17390,0.21299
2100.10237,0.21176
2102.03084,0.20858
2103.95931,0.20697
2105.88778,0.20568
2107.81624,0.20539
2109.74471,0.20801
2111.67318,0.20974
2113.60165,0.20863
2115.53012,0.20821
2117.45859,0.20896
2119.38706,0.20942
2121.31553,0.20828
2123.24399,0.20635
2125.17246,0.20740
2127.10093,0.21074
2129.02940,0.21290
2130.95787,0.21394
2132.88634,0.21787
2134.81481,0.22639
2136.74327,0.23089
2138.67174,0.22401
2140.60021,0.21312
2142.52868,0.20736
2144.45715,0.20600
2146.38562,0.20670
2148.31409,0.20824
2150.24255,0.20786
2152.17102,0.20560
2154.09949,0.20464
2156.02796,0.20628
2157.95643,0.20826
2159.88490,0.20807
2161.81337,0.20786
2163.74184,0.21025
2165.67030,0.21208
2167.59877,0.21158
2169.52724,0.21072
2171.45571,0.20883
2173.38418,0.20565
2175.31265,0.20388
2177.24112,0.20576
2179.16958,0.20977
2181.09805,0.21117
2183.02652,0.20903
2184.95499,0.20734
2186.88346,0.20856
2188.81193,0.21163
2190.74040,0.21357
2192.66887,0.21114
2194.59733,0.20563
2196.52580,0.20350
2198.45427,0.20536
2200.38274,0.20583
2202.31121,0.20531
2204.23968,0.20661
2206.16815,0.20913
2208.09661,0.21090
2210.02508,0.21098
2211.95355,0.21088
2213.88202,0.20961
2215.81049,0.20592
2217.73896,0.20423
2219.66743,0.20633
2221.59590,0.20892
2223.52436,0.21182
2225.45283,0.21625
2227.38130,0.21844
2229.30977,0.21573
2231.23824,0.21265
2233.16671,0.21188
2235.09518,0.20991
2237.02364,0.20660
2238.95211,0.20542
2240.88058,0.20662
2242.80905,0.20880
2244.73752,0.20985
2246.66599,0.20851
2248.59446,0.20724
2250.52293,0.20791
2252.45139,0.20919
2254.37986,0.20911
2256.30833,0.20956
2258.23680,0.21241
2260.16527,0.21291
2262.09374,0.20917
2264.02221,0.20613
2265.95067,0.20570
2267.87914,0.20697
2269.80761,0.20912
2271.73608,0.21025
2273.66455,0.21006
2275.59302,0.20972
2277.52149,0.20825
2279.44996,0.20462
2281.37842,0.20216
2283.30689,0.20265
2285.23536,0.20355
2287.16383,0.20366
2289.09230,0.20413
2291.02077,0.20615
2292.94924,0.20635
2294.87770,0.20367
2296.80617,0.20319
2298.73464,0.20324
2300.66311,0.20250
2302.59158,0.20496
2304.52005,0.20731
2306.44852,0.20464
2308.37699,0.20075
2310.30545,0.20021
2312.23392,0.20013
2314.16239,0.20072
2316.09086,0.20490
2318.01933,0.20762
2319.94780,0.20684
2321.87627,0.20583
2323.80473,0.19957
2325.73320,0.18868
2327.66167,0.18937
2329.59014,0.20173
2331.51861,0.20721
2333.44708,0.20532
2335.37555,0.20622
2337.30401,0.21038
2339.23248,0.21154
2341.16095,0.20415
2343.08942,0.20013
2345.01789,0.20484
2346.94636,0.20366
2348.87483,0.19980
2350.80330,0.19743
2352.73176,0.19081
2354.66023,0.18369
2356.58870,0.18910
2358.51717,0.19716
2360.44564,0.18810
2362.37411,0.17387
2364.30258,0.17660
2366.23104,0.18546
2368.15951,0.18476
2370.08798,0.18272
2372.01645,0.18933
2373.94492,0.19831
2375.87339,0.20238
2377.80186,0.20325
2379.73033,0.20438
2381.65879,0.20616
2383.58726,0.20791
2385.51573,0.20995
2387.44420,0.21110
2389.37267,0.20980
2391.30114,0.20796
2393.22961,0.20746
2395.15807,0.20771
2397.08654,0.20807
2399.01501,0.20759
2400.94348,0.20665
2402.87195,0.20722
2404.80042,0.20880
2406.72889,0.20948
2408.65736,0.20956
2410.58582,0.21109
2412.51429,0.21339
2414.44276,0.21343
2416.37123,0.21074
2418.29970,0.20827
2420.22817,0.20893
2422.15664,0.21033
2424.08510,0.21075
2426.01357,0.21264
2427.94204,0.21314
2429.87051,0.21072
2431.79898,0.20985
2433.72745,0.21028
2435.65592,0.20934
2437.58439,0.20764
2439.51285,0.20696
2441.44132,0.20810
2443.36979,0.20919
2445.29826,0.20947
2447.22673,0.20984
2449.15520,0.20854
2451.08367,0.20551
2453.01213,0.20430
2454.94060,0.20647
2456.86907,0.21067
2458.79754,0.21337
2460.72601,0.21224
2462.65448,0.20978
2464.58295,0.20982
2466.51142,0.21199
2468.43988,0.21209
2470.36835,0.20997
2472.29682,0.20997
2474.22529,0.21169
2476.15376,0.21252
2478.08223,0.21284
2480.01070,0.21273
2481.93916,0.21070
2483.86763,0.20753
2485.79610,0.20699
2487.72457,0.20934
2489.65304,0.21190
2491.58151,0.21310
2493.50998,0.21241
2495.43844,0.21317
2497.36691,0.21681
2499.29538,0.21862
2501.22385,0.21599
2503.15232,0.21238
2505.08079,0.21279
2507.00926,0.21529
2508.93773,0.21471
2510.86619,0.21277
2512.79466,0.21282
2514.72313,0.21366
2516.65160,0.21397
2518.58007,0.21485
2520.50854,0.21570
2522.43701,0.21353
2524.36547,0.20885
2526.29394,0.20703
2528.22241,0.20985
2530.15088,0.21315
2532.07935,0.21436
2534.00782,0.21425
2535.93629,0.21540
2537.86476,0.21741
2539.79322,0.21649
2541.72169,0.21442
2543.65016,0.21472
2545.57863,0.21474
2547.50710,0.21324
2549.43557,0.21335
2551.36404,0.21347
2553.29250,0.21105
2555.22097,0.21026
2557.14944,0.21280
2559.07791,0.21435
2561.00638,0.21296
2562.93485,0.21036
2564.86332,0.20956
2566.79179,0.21281
2568.72025,0.21661
2570.64872,0.21543
2572.57719,0.21201
2574.50566,0.21108
2576.43413,0.21138
2578.36260,0.21214
2580.29107,0.21395
2582.21953,0.21533
2584.14800,0.21528
2586.07647,0.21477
2588.00494,0.21482
2589.93341,0.21496
2591.86188,0.21309
2593.79035,0.21035
2595.71882,0.21070
2597.64728,0.21295
2599.57575,0.21367
2601.50422,0.21335
2603.43269,0.21319
2605.36116,0.21268
2607.28963,0.21276
2609.21810,0.21497
2611.14656,0.21638
2613.07503,0.21495
2615.00350,0.21452
2616.93197,0.21579
2618.86044,0.21481
2620.78891,0.21175
2622.71738,0.21004
2624.64585,0.21201
2626.57431,0.21725
2628.50278,0.22209
2630.43125,0.22293
2632.35972,0.21905
2634.28819,0.21290
2636.21666,0.20813
2638.14513,0.20811
2640.07359,0.21236
2642.00206,0.21519
2643.93053,0.21473
2645.85900,0.21384
2647.78747,0.21307
2649.71594,0.21300
2651.64441,0.21555
2653.57288,0.21797
2655.50134,0.21730
2657.42981,0.21703
2659.35828,0.21875
2661.28675,0.21987
2663.21522,0.22034
2665.14369,0.22117
2667.07216,0.22037
2669.00062,0.21746
2670.92909,0.21600
2672.85756,0.21674
2674.78603,0.21793
2676.71450,0.21811
2678.64297,0.21701
2680.57144,0.21710
2682.49990,0.21694
2684.42837,0.21562
2686.35684,0.21730
2688.28531,0.22067
2690.21378,0.22279
2692.14225,0.22370
2694.07072,0.22144
2695.99919,0.21824
2697.92765,0.21872
2699.85612,0.22125
2701.78459,0.22138
2703.71306,0.21900
2705.64153,0.21881
2707.57000,0.22145
2709.49847,0.22183
2711.42693,0.21824
2713.35540,0.21539
2715.28387,0.21583
2717.21234,0.21707
2719.14081,0.21830
2721.06928,0.21932
2722.99775,0.21970
2724.92622,0.22011
2726.85468,0.22041
2728.78315,0.22029
2730.71162,0.22008
2732.64009,0.21990
2734.56856,0.22055
2736.49703,0.22301
2738.42550,0.22459
2740.35396,0.22371
2742.28243,0.22239
2744.21090,0.22244
2746.13937,0.22440
2748.06784,0.22580
2749.99631,0.22471
2751.92478,0.22207
2753.85325,0.22181
2755.78171,0.22572
2757.71018,0.22780
2759.63865,0.22478
2761.56712,0.22189
2763.49559,0.22318
2765.42406,0.22660
2767.35253,0.23019
2769.28099,0.23421
2771.20946,0.23479
2773.13793,0.23033
2775.06640,0.22712
2776.99487,0.22737
2778.92334,0.22914
2780.85181,0.23138
2782.78028,0.23162
2784.70874,0.23090
2786.63721,0.23097
2788.56568,0.23091
2790.49415,0.23144
2792.42262,0.23226
2794.35109,0.23169
2796.27956,0.22921
2798.20802,0.22492
2800.13649,0.22295
2802.06496,0.22643
2803.99343,0.22953
2805.92190,0.22947
2807.85037,0.23108
2809.77884,0.23383
2811.70731,0.23308
2813.63577,0.22920
2815.56424,0.22638
2817.49271,0.22663
2819.42118,0.22845
2821.34965,0.23156
2823.27812,0.23546
2825.20659,0.23642
2827.13505,0.23384
2829.06352,0.23187
2830.99199,0.23321
2832.92046,0.23414
2834.84893,0.23107
2836.77740,0.22832
2838.70587,0.22796
2840.63433,0.22868
2842.56280,0.23125
2844.49127,0.23317
2846.41974,0.23349
2848.34821,0.23433
2850.27668,0.23469
2852.20515,0.23381
2854.13362,0.23216
2856.06208,0.22963
2857.99055,0.22791
2859.91902,0.22789
2861.84749,0.22837
2863.77596,0.22965
2865.70443,0.23031
2867.63290,0.22792
2869.56136,0.22395
2871.48983,0.22101
2873.41830,0.22146
2875.34677,0.22532
2877.27524,0.22974
2879.20371,0.23313
2881.13218,0.23385
2883.06065,0.23179
2884.98911,0.22998
2886.91758,0.22959
2888.84605,0.22990
2890.77452,0.23146
2892.70299,0.23339
2894.63146,0.23242
2896.55993,0.22898
2898.48839,0.22672
2900.41686,0.22522
2902.34533,0.22112
2904.27380,0.21678
2906.20227,0.21878
2908.13074,0.22533
2910.05921,0.22761
2911.98768,0.22432
2913.91614,0.22264
2915.84461,0.22610
2917.77308,0.23099
2919.70155,0.23319
2921.63002,0.23212
2923.55849,0.22913
2925.48696,0.22623
2927.41542,0.22530
2929.34389,0.22602
2931.27236,0.22795
2933.20083,0.22994
2935.12930,0.22816
2937.05777,0.22398
2938.98624,0.22534
2940.91471,0.23222
2942.84317,0.23549
2944.77164,0.23136
2946.70011,0.22547
2948.62858,0.22420
2950.55705,0.22700
2952.48552,0.23078
2954.41399,0.23204
2956.34245,0.22906
2958.27092,0.22806
2960.19939,0.23253
2962.12786,0.23691
2964.05633,0.23688
2965.98480,0.23466
2967.91327,0.23277
2969.84174,0.23149
2971.77020,0.23176
2973.69867,0.23247
2975.62714,0.23048
2977.55561,0.22795
2979.48408,0.23022
2981.41255,0.23409
2983.34102,0.23527
2985.26948,0.23650
2987.19795,0.23760
2989.12642,0.23641
2991.05489,0.23407
2992.98336,0.23214
2994.91183,0.23160
2996.84030,0.23375
2998.76877,0.23739
3000.69723,0.23893
3002.62570,0.23821
3004.55417,0.23577
3006.48264,0.23111
3008.41111,0.22922
3010.33958,0.23065
3012.26805,0.22648
3014.19651,0.21645
3016.12498,0.20882
3018.05345,0.21187
3019.98192,0.22541
3021.91039,0.23658
3023.83886,0.24037
3025.76733,0.24203
3027.69579,0.24216
3029.62426,0.23869
3031.55273,0.23471
3033.48120,0.23309
3035.40967,0.23268
3037.33814,0.23376
3039.26661,0.23528
3041.19508,0.23620
3043.12354,0.23756
3045.05201,0.23783
3046.98048,0.23746
3048.90895,0.24078
3050.83742,0.24285
3052.76589,0.23532
3054.69436,0.22406
3056.62282,0.21753
3058.55129,0.21743
3060.47976,0.22317
3062.40823,0.23058
3064.33670,0.23445
3066.26517,0.23484
3068.19364,0.23513
3070.12211,0.23565
3072.05057,0.23614
3073.97904,0.23684
3075.90751,0.23711
3077.83598,0.23669
3079.76445,0.23635
3081.69292,0.23648
3083.62139,0.23341
3085.54985,0.22826
3087.47832,0.22664
3089.40679,0.22707
3091.33526,0.22725
3093.26373,0.22533
3095.19220,0.22318
3097.12067,0.22779
3099.04914,0.23563
3100.97760,0.23802
3102.90607,0.23481
3104.83454,0.23265
3106.76301,0.23466
3108.69148,0.23729
3110.61995,0.23724
3112.54842,0.23399
3114.47688,0.23172
3116.40535,0.23394
3118.33382,0.23652
3120.26229,0.23528
3122.19076,0.23275
3124.11923,0.23434
3126.04770,0.23908
3127.97617,0.23998
3129.90463,0.23699
3131.83310,0.23499
3133.76157,0.23573
3135.69004,0.24085
3137.61851,0.24616
3139.54698,0.24526
3141.47545,0.24188
3143.40391,0.24093
3145.33238,0.24049
3147.26085,0.23961
3149.18932,0.24170
3151.11779,0.24629
3153.04626,0.24690
3154.97473,0.24238
3156.90320,0.23790
3158.83166,0.23462
3160.76013,0.23334
3162.68860,0.23489
3164.61707,0.23502
3166.54554,0.23563
3168.47401,0.24182
3170.40248,0.24819
3172.33094,0.24819
3174.25941,0.24407
3176.18788,0.24190
3178.11635,0.24550
3180.04482,0.25209
3181.97329,0.25504
3183.90176,0.25447
3185.83022,0.25202
3187.75869,0.24607
3189.68716,0.24130
3191.61563,0.24116
3193.54410,0.24036
3195.47257,0.23563
3197.40104,0.23253
3199.32951,0.23769
3201.25797,0.24639
3203.18644,0.24830
3205.11491,0.24238
3207.04338,0.23605
3208.97185,0.23320
3210.90032,0.23403
3212.82879,0.23983
3214.75725,0.24498
3216.68572,0.24298
3218.61419,0.23831
3220.54266,0.23571
3222.47113,0.23638
3224.39960,0.23916
3226.32807,0.24069
3228.25654,0.24053
3230.18500,0.23866
3232.11347,0.23780
3234.04194,0.24212
3235.97041,0.24499
3237.89888,0.24000
3239.82735,0.23833
3241.75582,0.24744
3243.68428,0.25384
3245.61275,0.24966
3247.54122,0.24214
3249.46969,0.23701
3251.39816,0.23667
3253.32663,0.23815
3255.25510,0.23898
3257.18357,0.23941
3259.11203,0.23670
3261.04050,0.23530
3262.96897,0.24019
3264.89744,0.24453
3266.82591,0.24465
3268.75438,0.24496
3270.68285,0.24457
3272.61131,0.23988
3274.53978,0.23321
3276.46825,0.22933
3278.39672,0.23092
3280.32519,0.23537
3282.25366,0.23625
3284.18213,0.23248
3286.11060,0.22962
3288.03906,0.22972
3289.96753,0.23103
3291.89600,0.23436
3293.82447,0.23895
3295.75294,0.24068
3297.68141,0.23769
3299.60988,0.23255
3301.53834,0.22965
3303.46681,0.23087
3305.39528,0.23661
3307.32375,0.24511
3309.25222,0.24831
3311.18069,0.24265
3313.10916,0.23674
3315.03763,0.23490
3316.96609,0.23370
3318.89456,0.23410
3320.82303,0.23754
3322.75150,0.23995
3324.67997,0.23846
3326.60844,0.23392
3328.53691,0.23079
3330.46537,0.23446
3332.39384,0.24013
3334.32231,0.23973
3336.25078,0.23786
3338.17925,0.23879
3340.10772,0.23699
3342.03619,0.23478
3343.96466,0.23728
3345.89312,0.23803
3347.82159,0.23554
3349.75006,0.23615
3351.67853,0.23831
3353.60700,0.23918
3355.53547,0.24062
3357.46394,0.24171
3359.39240,0.24026
3361.32087,0.23882
3363.24934,0.24206
3365.17781,0.24833
3367.10628,0.25113
3369.03475,0.24718
3370.96322,0.23841
3372.89168,0.23302
3374.82015,0.23560
3376.74862,0.23971
3378.67709,0.23902
3380.60556,0.23498
3382.53403,0.23541
3384.46250,0.24121
3386.39097,0.24210
3388.31943,0.23705
3390.24790,0.23305
3392.17637,0.23109
3394.10484,0.23227
3396.03331,0.23746
3397.96178,0.24068
3399.89025,0.23853
3401.81871,0.23498
3403.74718,0.23258
3405.67565,0.23145
3407.60412,0.23177
3409.53259,0.23325
3411.46106,0.23352
3413.38953,0.23191
3415.31800,0.23321
3417.24646,0.23750
3419.17493,0.24029
3421.10340,0.24175
3423.03187,0.24152
3424.96034,0.23910
3426.88881,0.23686
3428.81728,0.23532
3430.74574,0.23379
3432.67421,0.23215
3434.60268,0.22973
3436.53115,0.22657
3438.45962,0.22653
3440.38809,0.23252
3442.31656,0.23796
3444.24503,0.23615
3446.17349,0.22968
3448.10196,0.22391
3450.03043,0.22356
3451.95890,0.22608
3453.88737,0.22576
3455.81584,0.22477
3457.74431,0.22525
3459.67277,0.22552
3461.60124,0.22389
3463.52971,0.22094
3465.45818,0.22041
3467.38665,0.22213
3469.31512,0.22420
3471.24359,0.22507
3473.17206,0.21999
3475.10052,0.21148
3477.02899,0.21032
3478.95746,0.21557
3480.88593,0.21880
3482.81440,0.21929
3484.74287,0.21776
3486.67134,0.21589
3488.59980,0.21548
3490.52827,0.21223
3492.45674,0.20726
3494.38521,0.20694
3496.31368,0.20799
3498.24215,0.20617
3500.17062,0.20676
3502.09909,0.21225
3504.02755,0.21409
3505.95602,0.20741
3507.88449,0.20188
3509.81296,0.20293
3511.74143,0.20699
3513.66990,0.20931
3515.59837,0.20312
3517.52683,0.19173
3519.45530,0.18949
3521.38377,0.20018
3523.31224,0.21187
3525.24071,0.21230
3527.16918,0.20323
3529.09765,0.19669
3531.02611,0.19728
3532.95458,0.19777
3534.88305,0.19701
3536.81152,0.19791
3538.73999,0.19652
3540.66846,0.19191
3542.59693,0.18994
3544.52540,0.19194
3546.45386,0.19501
3548.38233,0.19815
3550.31080,0.20129
3552.23927,0.20220
3554.16774,0.19650
3556.09621,0.18897
3558.02468,0.18498
3559.95314,0.18297
3561.88161,0.18562
3563.81008,0.19358
3565.73855,0.20352
3567.66702,0.20823
3569.59549,0.19629
3571.52396,0.18004
3573.45243,0.17663
3575.38089,0.18375
3577.30936,0.18717
3579.23783,0.18438
3581.16630,0.18038
3583.09477,0.18008
3585.02324,0.18643
3586.95171,0.19163
3588.88017,0.18468
3590.80864,0.17625
3592.73711,0.17456
3594.66558,0.17591
3596.59405,0.17656
3598.52252,0.17752
3600.45099,0.18038
3602.37946,0.18321
3604.30792,0.18389
3606.23639,0.18414
3608.16486,0.18392
3610.09333,0.18015
3612.02180,0.17617
3613.95027,0.17537
3615.87874,0.17477
3617.80720,0.17340
3619.73567,0.17162
3621.66414,0.16796
3623.59261,0.16530
3625.52108,0.16769
3627.44955,0.17433
3629.37802,0.17438
3631.30649,0.16747
3633.23495,0.16408
3635.16342,0.16157
3637.09189,0.15905
3639.02036,0.15815
3640.94883,0.15869
3642.87730,0.15966
3644.80577,0.16073
3646.73423,0.16560
3648.66270,0.17792
3650.59117,0.17835
3652.51964,0.16443
3654.44811,0.15848
3656.37658,0.16091
3658.30505,0.15953
3660.23352,0.15669
3662.16198,0.15612
3664.09045,0.15404
3666.01892,0.15346
3667.94739,0.15902
3669.87586,0.16639
3671.80433,0.17162
3673.73280,0.18307
3675.66126,0.18769
3677.58973,0.17180
3679.51820,0.16247
3681.44667,0.15891
3683.37514,0.15420
3685.30361,0.15387
3687.23208,0.16010
3689.16055,0.16596
3691.08901,0.16479
3693.01748,0.15851
3694.94595,0.15099
3696.87442,0.14722
3698.80289,0.14929
3700.73136,0.15186
3702.65983,0.14855
3704.58829,0.14405
3706.51676,0.14656
3708.44523,0.15777
3710.37370,0.16893
3712.30217,0.16076
3714.23064,0.14556
3716.15911,0.14140
3718.08757,0.14288
3720.01604,0.14369
3721.94451,0.14810
3723.87298,0.15713
3725.80145,0.15951
3727.72992,0.15529
3729.65839,0.15565
3731.58686,0.16366
3733.51532,0.17226
3735.44379,0.16967
3737.37226,0.16257
3739.30073,0.16153
3741.22920,0.16217
3743.15767,0.16144
3745.08614,0.16027
3747.01460,0.15813
3748.94307,0.15470
3750.87154,0.15490
3752.80001,0.15657
3754.72848,0.15435
3756.65695,0.15357
3758.58542,0.15291
3760.51389,0.14831
3762.44235,0.14466
3764.37082,0.14326
3766.29929,0.14214
3768.22776,0.14102
3770.15623,0.14068
3772.08470,0.13998
3774.01317,0.13777
3775.94163,0.13773
3777.87010,0.14212
3779.79857,0.14672
3781.72704,0.14839
3783.65551,0.14847
3785.58398,0.14523
3787.51245,0.14061
3789.44092,0.13777
3791.36938,0.13502
3793.29785,0.13513
3795.22632,0.14028
3797.15479,0.14677
3799.08326,0.15640
3801.01173,0.16800
3802.94020,0.16203
3804.86866,0.14790
3806.79713,0.14180
3808.72560,0.13829
3810.65407,0.13363
3812.58254,0.13349
3814.51101,0.14093
3816.43948,0.15087
3818.36795,0.15678
3820.29641,0.16210
3822.22488,0.16073
3824.15335,0.15162
3826.08182,0.14428
3828.01029,0.14160
3829.93876,0.14269
3831.86723,0.14542
3833.79569,0.14971
3835.72416,0.15533
3837.65263,0.15914
3839.58110,0.15716
3841.50957,0.15048
3843.43804,0.14409
3845.36651,0.14123
3847.29498,0.14042
3849.22344,0.14140
3851.15191,0.14785
3853.08038,0.15872
3855.00885,0.15590
3856.93732,0.14696
3858.86579,0.14261
3860.79426,0.14369
3862.72272,0.14946
3864.65119,0.15021
3866.57966,0.14146
3868.50813,0.13425
3870.43660,0.13595
3872.36507,0.14224
3874.29354,0.14322
3876.22200,0.13707
3878.15047,0.13420
3880.07894,0.14150
3882.00741,0.14742
3883.93588,0.14403
3885.86435,0.14072
3887.79282,0.14186
3889.72129,0.14313
3891.64975,0.14181
3893.57822,0.13909
3895.50669,0.13759
3897.43516,0.13796
3899.36363,0.13882
3901.29210,0.13726
3903.22057,0.13373
3905.14903,0.12890
3907.07750,0.12585
3909.00597,0.12805
3910.93444,0.13033
3912.86291,0.12880
3914.79138,0.12712
3916.71985,0.12762
3918.64832,0.13158
3920.57678,0.13471
3922.50525,0.13106
3924.43372,0.12500
3926.36219,0.12393
3928.29066,0.12720
3930.21913,0.12913
3932.14760,0.12767
3934.07606,0.12872
3936.00453,0.13227
3937.93300,0.13285
3939.86147,0.13183
3941.78994,0.12965
3943.71841,0.12508
3945.64688,0.12297
3947.57535,0.12438
3949.50381,0.12675
3951.43228,0.12864
3953.36075,0.13047
3955.28922,0.13382
3957.21769,0.13561
3959.14616,0.13332
3961.07463,0.13132
3963.00309,0.13107
3964.93156,0.12882
3966.86003,0.12332
3968.78850,0.11741
3970.71697,0.11320
3972.64544,0.11205
3974.57391,0.11726
3976.50238,0.12349
3978.43084,0.12171
3980.35931,0.11497
3982.28778,0.10957
3984.21625,0.10765
3986.14472,0.10923
3988.07319,0.11244
3990.00166,0.11601
3991.93012,0.11956
3993.85859,0.12199
3995.78706,0.12271
3997.71553,0.12228
3999.64400,0.12136
4001.57247,0.12156
4003.50094,0.12312
4005.42941,0.12178
4007.35787,0.11745
4009.28634,0.11536
4011.21481,0.11530
4013.14328,0.11662
4015.07175,0.11976
4017.00022,0.12150
4018.92869,0.11979
4020.85715,0.11309
4022.78562,0.10476
4024.71409,0.10231
4026.64256,0.10323
4028.57103,0.10144
4030.49950,0.09995
4032.42797,0.10269
4034.35644,0.10765
4036.28490,0.11032
4038.21337,0.11042
4040.14184,0.11057
4042.07031,0.11008
4043.99878,0.10931
4045.92725,0.11031
4047.85572,0.11295
4049.78418,0.11452
4051.71265,0.11134
4053.64112,0.10618
4055.56959,0.10468
4057.49806,0.10511
4059.42653,0.10312
4061.35500,0.10148
4063.28346,0.10558
4065.21193,0.11126
4067.14040,0.11120
4069.06887,0.10842
4070.99734,0.10894
4072.92581,0.10987
4074.85428,0.10711
4076.78275,0.10270
4078.71121,0.09955
4080.63968,0.10153
4082.56815,0.10607
4084.49662,0.10323
4086.42509,0.09606
4088.35356,0.09576
4090.28203,0.10101
4092.21049,0.10456
4094.13896,0.10576
4096.06743,0.10636
4097.99590,0.10657
4099.92437,0.10837
4101.85284,0.11018
4103.78131,0.10712
4105.70978,0.10435
4107.63824,0.10577
4109.56671,0.10452
4111.49518,0.10072
4113.42365,0.09909
4115.35212,0.09862
4117.28059,0.09811
4119.20906,0.09817
4121.13752,0.09923
4123.06599,0.10063
4124.99446,0.10240
4126.92293,0.10469
4128.85140,0.10684
4130.77987,0.10831
4132.70834,0.10716
4134.63681,0.10253
4136.56527,0.09758
4138.49374,0.09690
4140.42221,0.10005
4142.35068,0.09957
4144.27915,0.09217
4146.20762,0.08523
4148.13609,0.08393
4150.06455,0.08552
4151.99302,0.08768
4153.92149,0.08912
4155.84996,0.09072
4157.77843,0.09314
4159.70690,0.09243
4161.63537,0.09069
4163.56384,0.09446
4165.49230,0.09802
4167.42077,0.09596
4169.34924,0.09602
4171.27771,0.09858
4173.20618,0.09735
4175.13465,0.09459
4177.06312,0.09334
4178.99158,0.09358
4180.92005,0.09384
4182.84852,0.09170
4184.77699,0.08820
4186.70546,0.08554
4188.63393,0.08531
4190.56240,0.08781
4192.49087,0.09003
4194.41933,0.09215
4196.34780,0.09601
4198.27627,0.09906
4200.20474,0.09705
4202.13321,0.09180
4204.06168,0.09116
4205.99015,0.09017
4207.91861,0.08418
4209.84708,0.08392
4211.77555,0.08763
4213.70402,0.08903
4215.63249,0.09133
4217.56096,0.08921
4219.48943,0.08118
4221.41789,0.07839
4223.34636,0.08223
4225.27483,0.08212
4227.20330,0.07428
4229.13177,0.06661
4231.06024,0.06959
4232.98871,0.07938
4234.91718,0.08086
4236.84564,0.07317
4238.77411,0.06810
4240.70258,0.07199
4242.63105,0.08013
4244.55952,0.08513
4246.48799,0.08530
4248.41646,0.08125
4250.34492,0.07629
4252.27339,0.07233
4254.20186,0.06923
4256.13033,0.07074
4258.05880,0.07772
4259.98727,0.08484
4261.91574,0.08689
4263.84421,0.08330
4265.77267,0.07607
4267.70114,0.06995
4269.62961,0.06955
4271.55808,0.07421
4273.48655,0.08274
4275.41502,0.08859
4277.34349,0.08388
4279.27195,0.07730
4281.20042,0.07844
4283.12889,0.07803
4285.05736,0.07014
4286.98583,0.06431
4288.91430,0.06329
4290.84277,0.06016
4292.77124,0.05607
4294.69970,0.05672
4296.62817,0.05931
4298.55664,0.06014
4300.48511,0.06088
4302.41358,0.06150
4304.34205,0.06429
4306.27052,0.07216
4308.19898,0.08051
4310.12745,0.08404
4312.05592,0.07919
4313.98439,0.06748
4315.91286,0.05855
4317.84133,0.05783
4319.76980,0.06074
4321.69827,0.06143
4323.62673,0.06397
4325.55520,0.07321
4327.48367,0.07915
4329.41214,0.07342
4331.34061,0.06434
4333.26908,0.05901
4335.19755,0.05530
4337.12601,0.05564
4339.05448,0.06340
4340.98295,0.07286
4342.91142,0.07487
4344.83989,0.06635
4346.76836,0.05635
4348.69683,0.05456
4350.62530,0.05879
4352.55376,0.06332
4354.48223,0.06236
4356.41070,0.05428
4358.33917,0.04669
4360.26764,0.04328
4362.19611,0.04298
4364.12458,0.04672
4366.05304,0.04982
4367.98151,0.04635
4369.90998,0.04298
4371.83845,0.04650
4373.76692,0.04849
4375.69539,0.04217
4377.62386,0.03742
4379.55232,0.04251
4381.48079,0.04952
4383.40926,0.05107
4385.33773,0.04887
4387.26620,0.04732
4389.19467,0.04740
4391.12314,0.04588
4393.05161,0.04383
4394.98007,0.04327
4396.90854,0.04793
4398.83701,0.05583
4400.76548,0.05483
4402.69395,0.04842
4404.62242,0.04725
4406.55089,0.04695
4408.47935,0.04326
4410.40782,0.04078
4412.33629,0.03891
4414.26476,0.03224
4416.19323,0.02717
4418.12170,0.03089
4420.05017,0.03681
4421.97864,0.03903
4423.90710,0.03838
4425.83557,0.03578
4427.76404,0.03567
4429.69251,0.03913
4431.62098,0.03710
4433.54945,0.02964
4435.47792,0.02976
4437.40638,0.03883
4439.33485,0.04343
4441.26332,0.03779
4443.19179,0.03117
4445.12026,0.02936
4447.04873,0.02776
4448.97720,0.02668
4450.90567,0.02659
4452.83413,0.02472
4454.76260,0.02847
4456.69107,0.03868
4458.61954,0.04252
4460.54801,0.03655
4462.47648,0.02856
4464.40495,0.02552
4466.33341,0.02998
4468.26188,0.03843
4470.19035,0.04298
4472.11882,0.04128
4474.04729,0.03803
4475.97576,0.03287
4477.90423,0.02779
4479.83270,0.03070
4481.76116,0.03517
4483.68963,0.03138
4485.61810,0.02665
4487.54657,0.02820
4489.47504,0.03275
4491.40351,0.03734
4493.33198,0.03770
4495.26044,0.03439
4497.18891,0.03531
4499.11738,0.03539
4501.04585,0.02785
4502.97432,0.02014
4504.90279,0.01791
4506.83126,0.02118
4508.75973,0.02720
4510.68819,0.03237
4512.61666,0.03462
4514.54513,0.03054
4516.47360,0.02073
4518.40207,0.01369
4520.33054,0.01241
4522.25901,0.01389
4524.18747,0.02041
4526.11594,0.02612
4528.04441,0.02272
4529.97288,0.01897
4531.90135,0.02071
4533.82982,0.01766
4535.75829,0.00767
4537.68676,0.00238
4539.61522,0.00597
4541.54369,0.01322
4543.47216,0.01725
4545.40063,0.01613
4547.32910,0.01697
4549.25757,0.02267
4551.18604,0.02886
4553.11450,0.03417
4555.04297,0.03582
4556.97144,0.02591
4558.89991,0.01106
4560.82838,0.00590
4562.75685,0.00741
4564.68532,0.00801
4566.61378,0.01108
4568.54225,0.02293
4570.47072,0.03862
4572.39919,0.04208
4574.32766,0.03039
4576.25613,0.02009
4578.18460,0.01779
4580.11307,0.01859
4582.04153,0.02309
4583.97000,0.02320
4585.89847,0.01243
4587.82694,0.00226
4589.75541,0.00064
4591.68388,0.01031
4593.61235,0.02558
4595.54081,0.02441
4597.46928,0.00797
4599.39775,0.00384
4601.32622,0.01161
4603.25469,0.01037
4605.18316,0.00153
4607.11163,0.00036
4609.04010,0.00765
4610.96856,0.01290
4612.89703,0.01191
4614.82550,0.00905
4616.75397,0.00905
4618.68244,0.01064
4620.61091,0.01223
4622.53938,0.01872
4624.46784,0.02749
4626.39631,0.02964
4628.32478,0.02802
4630.25325,0.02841
4632.18172,0.02723
4634.11019,0.01905
4636.03866,0.00553
4637.96713,-0.00400
4639.89559,-0.00413
4641.82406,-0.00246
4643.75253,-0.00222
4645.68100,-0.00121
4647.60947,-0.00421
4649.53794,-0.00578
4651.46641,-0.00010
4653.39487,0.00669
4655.32334,0.01234
4657.25181,0.01511
4659.18028,0.01618
4661.10875,0.02389
4663.03722,0.03978
4664.96569,0.05145
4666.89416,0.04799
4668.82262,0.03167
4670.75109,0.01120
4672.67956,-0.00080
4674.60803,0.00088
4676.53650,0.00746
4678.46497,0.00771
4680.39344,-0.00137
4682.32190,-0.00646
4684.25037,0.00358
4686.17884,0.01740
4688.10731,0.02135
4690.03578,0.01477
4691.96425,0.00447
4693.89272,0.00116
4695.82119,0.00634
4697.74965,0.00813
4699.67812,0.00489
4701.60659,0.01028
4703.53506,0.02103
4705.46353,0.01917
4707.39200,0.00844
4709.32047,0.00441
4711.24893,0.00996
4713.17740,0.01648
4715.10587,0.01400
4717.03434,0.00652
4718.96281,0.00766
4720.89128,0.01760
4722.81975,0.02366
4724.74821,0.02223
4726.67668,0.01871
4728.60515,0.01330
4730.53362,0.00732
4732.46209,0.00413
4734.39056,0.00237
4736.31903,0.00195
4738.24750,0.00291
4740.17596,0.00495
4742.10443,0.01050
4744.03290,0.01477
4745.96137,0.01260
4747.88984,0.00795
4749.81831,0.00273
4751.74678,-0.00250
4753.67524,-0.00347
4755.60371,0.00268
4757.53218,0.00905
4759.46065,0.00486
4761.38912,-0.00467
4763.31759,-0.00758
4765.24606,-0.00391
4767.17453,0.00121
4769.10299,0.00726
4771.03146,0.01424
4772.95993,0.01527
4774.88840,0.01030
4776.81687,0.00766
4778.74534,0.00640
4780.67381,0.00183
4782.60227,-0.00453
4784.53074,-0.00388
4786.45921,0.00807
4788.38768,0.01411
4790.31615,0.00377
4792.24462,-0.00194
4794.17309,0.00761
4796.10156,0.01569
4798.03002,0.01367
4799.95849,0.00820
4801.88696,0.00348
4803.81543,0.00270
4805.74390,0.00644
4807.67237,0.00806
4809.60084,0.00988
4811.52930,0.01029
4813.45777,0.00223
4815.38624,-0.00185
4817.31471,0.00271
4819.24318,0.00690
4821.17165,0.01089
4823.10012,0.01182
4825.02859,0.00668
4826.95705,0.00069
4828.88552,-0.00471
4830.81399,-0.00449
4832.74246,0.00966
4834.67093,0.02689
4836.59940,0.03162
4838.52787,0.02558
4840.45633,0.02118
4842.38480,0.02455
4844.31327,0.03066
4846.24174,0.03713
4848.17021,0.03774
4850.09868,0.03037
4852.02715,0.02738
4853.95562,0.02764
4855.88408,0.02590
4857.81255,0.02482
4859.74102,0.01878
4861.66949,0.01091
4863.59796,0.00879
4865.52643,0.00443
4867.45490,-0.00334
4869.38336,-0.00883
4871.31183,-0.01374
4873.24030,-0.01782
4875.16877,-0.01463
4877.09724,-0.00331
4879.02571,0.00359
4880.95418,-0.00339
4882.88265,-0.01556
4884.81111,-0.01613
4886.73958,-0.00716
4888.66805,-0.00533
4890.59652,-0.00582
4892.52499,0.00677
4894.45346,0.02171
4896.38193,0.02009
4898.31039,0.01174
4900.23886,0.01620
4902.16733,0.02535
4904.09580,0.02598
4906.02427,0.02564
4907.95274,0.02379
4909.88121,0.01251
4911.80967,0.00766
4913.73814,0.01187
4915.66661,0.00387
4917.59508,-0.00845
4919.52355,-0.00463
4921.45202,0.00680
4923.38049,0.01495
4925.30896,0.02025
4927.23742,0.01957
4929.16589,0.01690
4931.09436,0.01611
4933.02283,0.01266
4934.95130,0.00917
4936.87977,0.00992
4938.80824,0.00764
4940.73670,0.00358
4942.66517,0.00774
4944.59364,0.01194
4946.52211,0.00653
4948.45058,0.00047
4950.37905,0.00425
4952.30752,0.01416
4954.23599,0.01516
4956.16445,0.01049
4958.09292,0.01508
4960.02139,0.01416
4961.94986,-0.00095
4963.87833,-0.00452
4965.80680,0.00702
4967.73527,0.01449
4969.66373,0.01867
4971.59220,0.02460
4973.52067,0.02456
4975.44914,0.02097
4977.37761,0.02054
4979.30608,0.01874
4981.23455,0.02202
4983.16302,0.03313
4985.09148,0.03630
4987.01995,0.03092
4988.94842,0.02549
4990.87689,0.01250
4992.80536,-0.00058
4994.73383,0.00116
4996.66230,0.00401
4998.59076,0.00879
5000.51923,0.02420
5002.44770,0.03305
5004.37617,0.02781
5006.30464,0.02317
5008.23311,0.03113
5010.16158,0.04468
5012.09005,0.04731
5014.01851,0.03508
5015.94698,0.01855
5017.87545,0.01442
5019.80392,0.02514
5021.73239,0.03023
5023.66086,0.02789
5025.58933,0.03209
5027.51779,0.02556
5029.44626,0.00159
5031.37473,-0.00954
5033.30320,0.00459
5035.23167,0.03023
5037.16014,0.05450
5039.08861,0.05720
5041.01708,0.02914
5042.94554,0.00246
5044.87401,-0.00286
5046.80248,-0.00192
5048.73095,-0.00168
5050.65942,-0.00182
5052.58789,-0.00586
5054.51636,-0.00683
5056.44482,0.00616
5058.37329,0.02931
5060.30176,0.03998
5062.23023,0.02725
5064.15870,0.01590
5066.08717,0.01986
5068.01564,0.02297
5069.94410,0.02540
5071.87257,0.03645
5073.80104,0.04478
5075.72951,0.03956
5077.65798,0.02651
5079.58645,0.01543
5081.51492,0.01696
5083.44339,0.03072
5085.37185,0.03806
5087.30032,0.03197
5089.22879,0.02284
5091.15726,0.02091
5093.08573,0.03080
5095.01420,0.04335
5096.94267,0.04787
5098.87113,0.04155
5100.79960,0.02748
5102.72807,0.01635
5104.65654,0.01462
5106.58501,0.01190
5108.51348,-0.00277
5110.44195,-0.01068
5112.37042,0.00341
5114.29888,0.01924
5116.22735,0.02681
5118.15582,0.03495
5120.08429,0.04158
5122.01276,0.03713
5123.94123,0.02531
5125.86970,0.02272
5127.79816,0.03197
5129.72663,0.03806
5131.65510,0.03431
5133.58357,0.02898
5135.51204,0.02763
5137.44051,0.02373
5139.36898,0.01476
5141.29745,0.01308
5143.22591,0.02714
5145.15438,0.04354
5147.08285,0.04795
5149.01132,0.04206
5150.93979,0.02964
5152.86826,0.02317
5154.79673,0.04308
5156.72519,0.07357
5158.65366,0.07338
5160.58213,0.05480
5162.51060,0.05649
5164.43907,0.06586
5166.36754,0.04959
5168.29601,0.01474
5170.22448,-0.00635
5172.15294,0.00973
5174.08141,0.04038
5176.00988,0.05038
5177.93835,0.04416
5179.86682,0.03829
5181.79529,0.04158
5183.72376,0.05157
5185.65222,0.04656
5187.58069,0.02005
5189.50916,0.00052
5191.43763,0.00395
5193.36610,0.01674
5195.29457,0.02859
5197.22304,0.03930
5199.15151,0.04983
5201.07997,0.05757
5203.00844,0.06000
5204.93691,0.05729
5206.86538,0.04848
5208.79385,0.03945
5210.72232,0.03210
5212.65079,0.03042
5214.57925,0.03789
5216.50772,0.04496
5218.43619,0.04281
5220.36466,0.03573
5222.29313,0.03873
5224.22160,0.04786
5226.15007,0.04907
5228.07854,0.04637
5230.00700,0.04884
5231.93547,0.05931
5233.86394,0.07233
5235.79241,0.07276
5237.72088,0.05916
5239.64935,0.04910
5241.57782,0.04655
5243.50628,0.04166
5245.43475,0.03328
5247.36322,0.03607
5249.29169,0.05517
5251.22016,0.07533
5253.14863,0.08548
5255.07710,0.07736
5257.00556,0.06704
5258.93403,0.07158
5260.86250,0.07771
5262.79097,0.07429
5264.71944,0.06412
5266.64791,0.05947
5268.57638,0.06640
5270.50485,0.07579
5272.43331,0.07255
5274.36178,0.06191
5276.29025,0.06682
5278.21872,0.08737
5280.14719,0.08778
5282.07566,0.06384
5284.00413,0.06497
5285.93259,0.08803
5287.86106,0.07830
5289.78953,0.04444
5291.71800,0.03867
5293.64647,0.05579
5295.57494,0.06930
5297.50341,0.08371
5299.43188,0.09616
5301.36034,0.09506
5303.28881,0.07927
5305.21728,0.06432
5307.14575,0.05574
5309.07422,0.04677
5311.00269,0.04517
5312.93116,0.05318
5314.85962,0.06146
5316.78809,0.06045
5318.71656,0.05144
5320.64503,0.03898
5322.57350,0.02436
5324.50197,0.01792
5326.43044,0.03008
5328.35891,0.04880
5330.28737,0.05252
5332.21584,0.05724
5334.14431,0.07315
5336.07278,0.07367
5338.00125,0.06518
5339.92972,0.06855
5341.85819,0.06865
5343.78665,0.06214
5345.71512,0.06063
5347.64359,0.05911
5349.57206,0.06030
5351.50053,0.08607
5353.42900,0.11816
5355.35747,0.10189
5357.28594,0.05667
5359.21440,0.03704
5361.14287,0.05558
5363.07134,0.07113
5364.99981,0.05365
5366.92828,0.03620
5368.85675,0.04408
5370.78522,0.05870
5372.71368,0.05628
5374.64215,0.04659
5376.57062,0.05904
5378.49909,0.09042
5380.42756,0.11006
5382.35603,0.10594
5384.28450,0.08988
5386.21297,0.07754
5388.14143,0.07310
5390.06990,0.07628
5391.99837,0.09699
5393.92684,0.12660
5395.85531,0.11546
5397.78378,0.07028
5399.71225,0.05527
5401.64071,0.08277
5403.56918,0.11230
5405.49765,0.11753
5407.42612,0.10655
5409.35459,0.09072
5411.28306,0.06592
5413.21153,0.04635
5415.13999,0.05283
5417.06846,0.06972
5418.99693,0.07843
5420.92540,0.07012
5422.85387,0.05696
5424.78234,0.05163
5426.71081,0.04329
5428.63928,0.03638
5430.56774,0.04277
5432.49621,0.04346
5434.42468,0.03432
5436.35315,0.03280
5438.28162,0.03603
5440.21009,0.04724
5442.13856,0.06703
5444.06702,0.07675
5445.99549,0.08370
5447.92396,0.08885
5449.85243,0.07407
5451.78090,0.05173
5453.70937,0.05070
5455.63784,0.07830
5457.56631,0.08745
5459.49477,0.05255
5461.42324,0.03012
5463.35171,0.03684
5465.28018,0.04342
5467.20865,0.05290
5469.13712,0.06098
5471.06559,0.04978
5472.99405,0.03966
5474.92252,0.04837
5476.85099,0.06208
5478.77946,0.06223
5480.70793,0.05602
5482.63640,0.07420
5484.56487,0.10572
5486.49334,0.11431
5488.42180,0.10710
5490.35027,0.10219
5492.27874,0.10386
5494.20721,0.10968
5496.13568,0.10436
5498.06415,0.07896
5499.99262,0.05339
5501.92108,0.05783
5503.84955,0.08530
5505.77802,0.09944
5507.70649,0.09365
5509.63496,0.09463
5511.56343,0.09881
5513.49190,0.08824
5515.42037,0.06429
5517.34883,0.04600
5519.27730,0.04314
5521.20577,0.04290
5523.13424,0.04771
5525.06271,0.05989
5526.99118,0.06344
5528.91965,0.05995
5530.84811,0.06081
5532.77658,0.06301
5534.70505,0.06928
5536.63352,0.08233
5538.56199,0.08774
5540.49046,0.07927
5542.41893,0.05832
5544.34740,0.04090
5546.27586,0.05127
5548.20433,0.08152
5550.13280,0.11684
5552.06127,0.13500
5553.98974,0.10895
5555.91821,0.07687
5557.84668,0.08458
5559.77514,0.11188
5561.70361,0.13131
5563.63208,0.13735
5565.56055,0.13217
5567.48902,0.10787
5569.41749,0.07064
5571.34596,0.05934
5573.27443,0.08409
5575.20289,0.10695
5577.13136,0.10316
5579.05983,0.09134
5580.98830,0.09296
5582.91677,0.10126
5584.84524,0.10880
5586.77371,0.11882
5588.70217,0.11808
5590.63064,0.09087
5592.55911,0.04830
5594.48758,0.02167
5596.41605,0.03106
5598.34452,0.05494
5600.27299,0.06839
5602.20145,0.08166
5604.12992,0.09334
5606.05839,0.09031
5607.98686,0.08457
5609.91533,0.08351
5611.84380,0.08013
5613.77227,0.07661
5615.70074,0.06930
5617.62920,0.05172
5619.55767,0.03514
5621.48614,0.03506
5623.41461,0.05411
5625.34308,0.07214
5627.27155,0.06852
5629.20002,0.04743
5631.12848,0.02377
5633.05695,0.02015
5634.98542,0.05207
5636.91389,0.09625
5638.84236,0.11324
5640.77083,0.10462
5642.69930,0.09772
5644.62777,0.09710
5646.55623,0.09499
5648.48470,0.08651
5650.41317,0.07578
5652.34164,0.08162
5654.27011,0.09902
5656.19858,0.08714
5658.12705,0.04876
5660.05551,0.04428
5661.98398,0.09169
5663.91245,0.12721
5665.84092,0.10468
5667.76939,0.08274
5669.69786,0.10750
5671.62633,0.12722
5673.55480,0.12593
5675.48326,0.12613
5677.41173,0.10838
5679.34020,0.08321
5681.26867,0.09368
5683.19714,0.13053
5685.12561,0.13621
5687.05408,0.09756
5688.98254,0.06242
5690.91101,0.05208
5692.83948,0.05118
5694.76795,0.04719
5696.69642,0.03935
5698.62489,0.05073
5700.55336,0.08185
5702.48183,0.09729
5704.41029,0.09224
5706.33876,0.07452
5708.26723,0.04083
5710.19570,0.02414
5712.12417,0.03951
5714.05264,0.05446
5715.98111,0.06757
5717.90957,0.07197
5719.83804,0.05990
5721.76651,0.07163
5723.69498,0.10469
5725.62345,0.12008
5727.55192,0.11942
5729.48039,0.11290
5731.40886,0.10474
5733.33732,0.09732
5735.26579,0.07322
5737.19426,0.04338
5739.12273,0.04014
5741.05120,0.06503
5742.97967,0.11237
5744.90814,0.15757
5746.83660,0.16669
5748.76507,0.14726
5750.69354,0.12869
5752.62201,0.11428
5754.55048,0.10111
5756.47895,0.09154
5758.40742,0.07886
5760.33588,0.07087
5762.26435,0.08123
5764.19282,0.09345
5766.12129,0.08896
5768.04976,0.09535
5769.97823,0.12771
5771.90670,0.14375
5773.83517,0.12752
5775.76363,0.10378
5777.69210,0.09253
5779.62057,0.11440
5781.54904,0.13663
5783.47751,0.11930
5785.40598,0.10586
5787.33445,0.12082
5789.26291,0.12984
5791.19138,0.12122
5793.11985,0.10222
5795.04832,0.08951
5796.97679,0.10567
5798.90526,0.13720
5800.83373,0.13926
5802.76220,0.11549
5804.69066,0.10437
5806.61913,0.10962
5808.54760,0.12924
5810.47607,0.13776
5812.40454,0.10585
5814.33301,0.06863
5816.26148,0.04242
5818.18994,0.02492
5820.11841,0.06064
5822.04688,0.13412
5823.97535,0.15613
5825.90382,0.12051
5827.83229,0.08528
5829.76076,0.08360
5831.68923,0.10837
5833.61769,0.10907
5835.54616,0.06045
5837.47463,0.02731
5839.40310,0.05738
5841.33157,0.10417
5843.26004,0.12524
5845.18851,0.13395
5847.11697,0.12314
5849.04544,0.10022
5850.97391,0.10304
5852.90238,0.10992
5854.83085,0.09214
5856.75932,0.07002
5858.68779,0.08097
5860.61626,0.11194
5862.54472,0.11497
5864.47319,0.08933
5866.40166,0.05424
5868.33013,0.03879
5870.25860,0.06372
5872.18707,0.08371
5874.11554,0.07009
5876.04400,0.06530
5877.97247,0.09286
5879.90094,0.11003
5881.82941,0.08764
5883.75788,0.06908
5885.68635,0.08628
5887.61482,0.10013
5889.54329,0.09381
5891.47175,0.08237
5893.40022,0.07180
5895.32869,0.08228
5897.25716,0.10239
5899.18563,0.09823
5901.11410,0.08396
5903.04257,0.07780
5904.97103,0.07347
5906.89950,0.07543
5908.82797,0.06531
5910.75644,0.02613
5912.68491,-0.01340
5914.61338,-0.02851
5916.54185,0.01277
5918.47032,0.09387
5920.39878,0.12848
5922.32725,0.11945
5924.25572,0.10849
5926.18419,0.08519
5928.11266,0.06969
5930.04113,0.08452
5931.96960,0.11377
5933.89806,0.15225
5935.82653,0.18462
5937.75500,0.17387
5939.68347,0.12808
5941.61194,0.09401
5943.54041,0.10224
5945.46888,0.13446
5947.39734,0.13590
5949.32581,0.09555
5951.25428,0.05979
5953.18275,0.04430
5955.11122,0.03761
5957.03969,0.04492
5958.96816,0.07187
5960.89663,0.09196
5962.82509,0.08914
5964.75356,0.08326
5966.68203,0.09045
5968.61050,0.10273
5970.53897,0.07781
5972.46744,0.03084
5974.39591,0.03391
5976.32437,0.07085
5978.25284,0.08790
5980.18131,0.09165
5982.10978,0.10750
5984.03825,0.11000
5985.96672,0.07377
5987.89519,0.06153
5989.82366,0.07955
5991.75212,0.04623
5993.68059,-0.01009
5995.60906,-0.00877
5997.53753,0.02650
5999.46600,0.04296
6001.39447,0.05068
6003.32294,0.08252
6005.25140,0.12003
6007.17987,0.11894
6009.10834,0.10093
6011.03681,0.10280
6012.96528,0.10707
6014.89375,0.08824
6016.82222,0.06165
6018.75069,0.06062
6020.67915,0.08632
6022.60762,0.11339
6024.53609,0.13065
6026.46456,0.13996
6028.39303,0.13261
6030.32150,0.10941
6032.24997,0.09597
6034.17843,0.09025
6036.10690,0.07255
6038.03537,0.07161
6039.96384,0.10385
6041.89231,0.10946
6043.82078,0.07756
6045.74925,0.06402
6047.67772,0.05150
6049.60618,0.01949
6051.53465,0.01007
6053.46312,0.03176
6055.39159,0.06523
6057.32006,0.08446
6059.24853,0.07159
6061.17700,0.06759
6063.10546,0.08652
6065.03393,0.08761
6066.96240,0.08219
6068.89087,0.07713
6070.81934,0.07175
6072.74781,0.08003
6074.67628,0.08783
6076.60475,0.08820
6078.53321,0.08000
6080.46168,0.05906
6082.39015,0.02213
6084.31862,-0.00839
6086.24709,0.00920
6088.17556,0.06044
6090.10403,0.11626
6092.03249,0.16842
6093.96096,0.19654
6095.88943,0.18551
6097.81790,0.15625
6099.74637,0.13314
6101.67484,0.11353
6103.60331,0.10221
6105.53177,0.09118
6107.46024,0.06334
6109.38871,0.04405
6111.31718,0.04935
6113.24565,0.05258
6115.17412,0.04706
6117.10259,0.04195
6119.03106,0.04956
6120.95952,0.07471
6122.88799,0.09600
6124.81646,0.11111
6126.74493,0.14650
6128.67340,0.19132
6130.60187,0.17719
6132.53034,0.11079
6134.45880,0.08771
6136.38727,0.13036
6138.31574,0.15852
6140.24421,0.13539
6142.17268,0.10904
6144.10115,0.10081
6146.02962,0.10846
6147.95809,0.11636
6149.88655,0.09349
6151.81502,0.05353
6153.74349,0.02643
6155.67196,0.02082
6157.60043,0.04448
6159.52890,0.08262
6161.45737,0.11238
6163.38583,0.13132
6165.31430,0.10038
6167.24277,0.04031
6169.17124,0.03955
6171.09971,0.07859
6173.02818,0.09876
6174.95665,0.09959
6176.88512,0.08618
6178.81358,0.08250
6180.74205,0.10135
6182.67052,0.11363
6184.59899,0.10155
6186.52746,0.08459
6188.45593,0.07650
6190.38440,0.08431
6192.31286,0.13467
6194.24133,0.17858
6196.16980,0.14310
6198.09827,0.07336
6200.02674,0.03040
6201.95521,0.01152
6203.88368,0.01458
6205.81215,0.03311
6207.74061,0.03125
6209.66908,0.00664
6211.59755,0.02679
6213.52602,0.09065
6215.45449,0.12865
6217.38296,0.13709
6219.31143,0.12051
6221.23989,0.07591
6223.16836,0.06426
6225.09683,0.09515
6227.02530,0.09759
6228.95377,0.07515
6230.88224,0.03829
6232.81071,0.00011
6234.73918,0.03075
6236.66764,0.11818
6238.59611,0.19794
6240.52458,0.23585
6242.45305,0.20185
6244.38152,0.11060
6246.30999,0.05266
6248.23846,0.07289
6250.16692,0.11087
6252.09539,0.11821
6254.02386,0.11003
6255.95233,0.08392
6257.88080,0.03963
6259.80927,0.01911
6261.73774,0.04837
6263.66621,0.09355
6265.59467,0.09909
6267.52314,0.09981
6269.45161,0.15367
6271.38008,0.19808
6273.30855,0.16727
6275.23702,0.11029
6277.16549,0.10319
6279.09395,0.13487
6281.02242,0.16392
6282.95089,0.14923
6284.87936,0.09349
6286.80783,0.06263
6288.73630,0.07528
6290.66477,0.09842
6292.59323,0.07642
6294.52170,-0.01698
6296.45017,-0.08987
6298.37864,-0.06620
6300.30711,0.01818
6302.23558,0.08668
6304.16405,0.09561
6306.09252,0.09359
6308.02098,0.09814
6309.94945,0.09349
6311.87792,0.10265
6313.80639,0.13113
6315.73486,0.17176
6317.66333,0.19258
6319.59180,0.17594
6321.52026,0.14724
6323.44873,0.10517
6325.37720,0.05443
6327.30567,0.03468
6329.23414,0.06045
6331.16261,0.08992
6333.09108,0.09397
6335.01955,0.06216
6336.94801,0.02229
6338.87648,0.05392
6340.80495,0.12605
6342.73342,0.14811
6344.66189,0.14222
6346.59036,0.11492
6348.51883,0.04919
6350.44729,0.02239
6352.37576,0.03135
6354.30423,0.01389
6356.23270,0.01194
6358.16117,0.04471
6360.08964,0.09590
6362.01811,0.14595
6363.94658,0.15208
6365.87504,0.11731
6367.80351,0.10029
6369.73198,0.13183
6371.66045,0.15545
6373.58892,0.12160
6375.51739,0.12641
6377.44586,0.18147
6379.37432,0.17953
6381.30279,0.15488
6383.23126,0.17321
6385.15973,0.18758
6387.08820,0.15701
6389.01667,0.11252
6390.94514,0.13620
6392.87361,0.20691
6394.80207,0.17437
6396.73054,0.06326
6398.65901,0.02198
6400.58748,0.08474
6402.51595,0.13360
6404.44442,0.10931
6406.37289,0.10302
6408.30135,0.12416
6410.22982,0.10016
6412.15829,0.08447
6414.08676,0.11331
6416.01523,0.13127
6417.94370,0.11784
6419.87217,0.09264
6421.80064,0.07667
6423.72910,0.06536
6425.65757,0.08732
6427.58604,0.13221
6429.51451,0.12643
6431.44298,0.08731
6433.37145,0.08517
6435.29992,0.13551
6437.22838,0.15878
6439.15685,0.08396
6441.08532,0.00960
6443.01379,0.00569
6444.94226,0.03956
6446.87073,0.06140
6448.79920,0.06024
6450.72766,0.06385
6452.65613,0.04929
6454.58460,0.00171
6456.51307,-0.00603
6458.44154,0.05900
6460.37001,0.14848
6462.29848,0.21674
6464.22695,0.22914
6466.15541,0.14897
6468.08388,0.03105
6470.01235,0.01880
6471.94082,0.10618
6473.86929,0.14527
6475.79776,0.07233
6477.72623,-0.02221
6479.65469,-0.05585
6481.58316,-0.02872
6483.51163,0.05621
6485.44010,0.10209
6487.36857,0.05577
6489.29704,0.00404
6491.22551,-0.00357
6493.15398,-0.01322
6495.08244,-0.02574
6497.01091,-0.00058
6498.93938,0.05229
6500.86785,0.10209
6502.79632,0.10622
6504.72479,0.07428
6506.65326,0.09454
6508.58172,0.17847
6510.51019,0.22719
6512.43866,0.18022
6514.36713,0.08837
6516.29560,0.02834
6518.22407,0.01727
6520.15254,0.04010
6522.08101,0.08972
6524.00947,0.13751
6525.93794,0.12442
6527.86641,0.06080
6529.79488,0.05620
6531.72335,0.09873
6533.65182,0.09823
6535.58029,0.08356
6537.50875,0.05574
6539.43722,0.01934
6541.36569,0.02579
6543.29416,0.04850
6545.22263,0.07556
6547.15110,0.10411
6549.07957,0.06703
6551.00804,-0.03340
6552.93650,-0.01992
6554.86497,0.12614
6556.79344,0.18729
6558.72191,0.11147
6560.65038,0.03769
6562.57885,0.02812
6564.50732,0.04009
6566.43578,0.01367
6568.36425,-0.02167
6570.29272,0.01407
6572.22119,0.06647
6574.14966,0.06698
6576.07813,0.05701
6578.00660,0.09331
6579.93507,0.17311
6581.86353,0.16651
6583.79200,0.03331
6585.72047,-0.03565
6587.64894,0.02566
6589.57741,0.08929
6591.50588,0.08728
6593.43435,0.06633
6595.36281,0.06620
6597.29128,0.09614
6599.21975,0.15122
6601.14822,0.18112
6603.07669,0.13458
6605.00516,0.06178
6606.93363,0.05379
6608.86210,0.09062
6610.79056,0.06906
6612.71903,0.01964
6614.64750,0.06337
6616.57597,0.14203
6618.50444,0.11271
6620.43291,0.04541
6622.36138,0.03064
6624.28984,0.05469
6626.21831,0.10825
6628.14678,0.16084
6630.07525,0.17599
6632.00372,0.17079
6633.93219,0.15528
6635.86066,0.12464
6637.78912,0.10825
6639.71759,0.13612
6641.64606,0.16319
6643.57453,0.13638
6645.50300,0.10346
6647.43147,0.09953
6649.35994,0.07037
6651.28841,-0.00277
6653.21687,-0.07966
6655.14534,-0.07864
6657.07381,0.00881
6659.00228,0.03963
6660.93075,0.00763
6662.85922,0.01993
6664.78769,0.02831
6666.71615,-0.02335
6668.64462,-0.04342
6670.57309,-0.00334
6672.50156,-0.00414
6674.43003,-0.00774
6676.35850,0.05341
6678.28697,0.11879
6680.21544,0.12194
6682.14390,0.07791
6684.07237,0.06119
6686.00084,0.04075
6687.92931,-0.03239
6689.85778,-0.05615
6691.78625,0.00631
6693.71472,0.05934
6695.64318,0.05986
6697.57165,0.07075
6699.50012,0.10855
6701.42859,0.12042
6703.35706,0.13791
6705.28553,0.13702
6707.21400,0.07511
6709.14247,0.01457
6711.07093,-0.02586
6712.99940,-0.04481
6714.92787,-0.00775
6716.85634,0.03662
6718.78481,0.01576
6720.71328,-0.00076
6722.64175,0.06882
6724.57021,0.15594
6726.49868,0.20497
6728.42715,0.22849
6730.35562,0.21834
6732.28409,0.18969
6734.21256,0.17828
6736.14103,0.17086
6738.06950,0.12555
6739.99796,0.08725
6741.92643,0.13672
6743.85490,0.17656
6745.78337,0.13449
6747.71184,0.12745
6749.64031,0.17976
6751.56878,0.17349
6753.49724,0.14728
6755.42571,0.15590
6757.35418,0.12843
6759.28265,0.08626
6761.21112,0.09019
6763.13959,0.09252
6765.06806,0.06545
6766.99653,0.06357
6768.92499,0.09779
6770.85346,0.11299
6772.78193,0.10043
6774.71040,0.07748
6776.63887,0.05290
6778.56734,0.03773
6780.49581,0.04100
6782.42427,0.04983
6784.35274,0.02357
6786.28121,-0.02812
6788.20968,-0.04887
6790.13815,-0.03654
6792.06662,-0.05487
6793.99509,-0.10108
6795.92355,-0.12693
6797.85202,-0.16647
6799.78049,-0.20268
6801.70896,-0.10683
6803.63743,0.06493
6805.56590,0.09252
6807.49437,0.03080
6809.42284,0.00342
6811.35130,-0.00430
6813.27977,0.02996
6815.20824,0.10582
6817.13671,0.12657
6819.06518,0.11779
6820.99365,0.13291
6822.92212,0.12028
6824.85058,0.08196
6826.77905,0.04095
6828.70752,0.02245
6830.63599,0.07878
6832.56446,0.12250
6834.49293,0.07486
6836.42140,0.01578
6838.34987,0.02746
6840.27833,0.03407
6842.20680,0.02143
6844.13527,0.04055
6846.06374,0.03741
6847.99221,-0.03286
6849.92068,-0.11177
6851.84915,-0.14245
6853.77761,-0.11846
6855.70608,-0.04851
6857.63455,-0.01477
6859.56302,-0.06114
6861.49149,-0.08000
6863.41996,0.02017
6865.34843,0.08941
6867.27690,0.03879
6869.20536,0.02510
6871.13383,0.04974
6873.06230,0.00135
6874.99077,-0.03169
6876.91924,0.01999
6878.84771,0.06264
6880.77618,-0.01412
6882.70464,-0.12577
6884.63311,-0.11149
6886.56158,0.00545
6888.49005,0.12821
6890.41852,0.19266
6892.34699,0.15942
6894.27546,0.06896
6896.20393,0.04194
6898.13239,0.11053
6900.06086,0.13288
6901.98933,0.06395
6903.91780,-0.03500
6905.84627,-0.11598
6907.77474,-0.11677
6909.70321,-0.02718
6911.63167,0.09003
6913.56014,0.15152
6915.48861,0.15713
6917.41708,0.14895
6919.34555,0.10969
6921.27402,0.08520
6923.20249,0.08430
6925.13096,0.04872
6927.05942,0.01310
6928.98789,0.02193
6930.91636,0.06315
6932.84483,0.07932
6934.77330,0.06464
6936.70177,0.10227
6938.63024,0.13829
6940.55870,0.06609
6942.48717,0.03862
6944.41564,0.10418
6946.34411,0.13212
6948.27258,0.07967
6950.20105,-0.00607
6952.12952,-0.04250
6954.05799,-0.00061
6955.98645,0.07318
6957.91492,0.10291
6959.84339,0.08142
6961.77186,0.06979
6963.70033,0.11310
6965.62880,0.17186
6967.55727,0.16353
6969.48573,0.09337
6971.41420,0.06588
6973.34267,0.13245
6975.27114,0.18902
6977.19961,0.17452
6979.12808,0.16871
6981.05655,0.15268
6982.98501,0.10443
6984.91348,0.07728
6986.84195,0.04289
6988.77042,-0.04320
6990.69889,-0.08866
6992.62736,-0.05106
6994.55583,0.03370
6996.48430,0.15630
6998.41276,0.19573
7000.34123,0.14502
7002.26970,0.13942
7004.19817,0.10550
7006.12664,0.04921
7008.05511,0.06575
7009.98358,0.07674
7011.91204,0.03602
7013.84051,0.01460
7015.76898,0.06501
7017.69745,0.12538
7019.62592,0.11786
7021.55439,0.10497
7023.48286,0.14295
7025.41133,0.13213
7027.33979,0.07887
7029.26826,0.11537
7031.19673,0.17190
7033.12520,0.09336
7035.05367,-0.02477
7036.98214,0.02023
7038.91061,0.14989
7040.83907,0.18658
7042.76754,0.05967
7044.69601,-0.01887
7046.62448,0.13617
7048.55295,0.31799
7050.48142,0.34858
7052.40989,0.27170
7054.33836,0.14132
7056.26682,0.04018
7058.19529,0.07169
7060.12376,0.16520
7062.05223,0.16093
7063.98070,0.11186
7065.90917,0.13036
7067.83764,0.11621
7069.76610,0.04302
7071.69457,0.07271
7073.62304,0.14551
7075.55151,0.10305
7077.47998,0.04773
7079.40845,0.11153
7081.33692,0.18939
7083.26539,0.12210
7085.19385,-0.00234
7087.12232,-0.08053
7089.05079,-0.02830
7090.97926,0.09681
7092.90773,0.17467
7094.83620,0.19416
7096.76467,0.22655
7098.69313,0.24216
7100.62160,0.15041
7102.55007,0.04027
7104.47854,-0.01516
7106.40701,-0.01747
7108.33548,0.07474
7110.26395,0.22080
7112.19242,0.27792
7114.12088,0.18856
7116.04935,0.04781
7117.97782,0.00181
7119.90629,0.07210
7121.83476,0.11906
7123.76323,0.11916
7125.69170,0.13420
7127.62016,0.18787
7129.54863,0.20049
7131.47710,0.12381
7133.40557,0.08089
7135.33404,0.10646
7137.26251,0.05011
7139.19098,-0.05485
7141.11944,-0.06892
7143.04791,-0.04670
7144.97638,0.04495
7146.90485,0.18561
7148.83332,0.17745
7150.76179,0.06032
7152.69026,-0.07085
7154.61873,-0.11083
7156.54719,-0.00073
7158.47566,0.12653
7160.40413,0.17559
7162.33260,0.16723
7164.26107,0.17640
7166.18954,0.17446
7168.11801,0.04443
7170.04647,-0.13238
7171.97494,-0.17102
7173.90341,-0.13217
7175.83188,-0.06502
7177.76035,0.02341
7179.68882,0.03211
7181.61729,0.01713
7183.54576,0.08527
7185.47422,0.17041
7187.40269,0.16031
7189.33116,0.06911
7191.25963,-0.02262
7193.18810,-0.09113
7195.11657,-0.09581
7197.04504,-0.02435
7198.97350,0.02069
7200.90197,-0.00025
7202.83044,-0.11104
7204.75891,-0.26860
7206.68738,-0.24330
7208.61585,-0.09186
7210.54432,0.01237
7212.47279,0.03854
7214.40125,0.02894
7216.32972,-0.02526
7218.25819,-0.11603
7220.18666,-0.07447
7222.11513,0.06869
7224.04360,0.19868
7225.97207,0.29352
7227.90053,0.27584
7229.82900,0.06396
7231.75747,-0.12906
7233.68594,-0.04164
7235.61441,0.12757
7237.54288,0.20483
7239.47135,0.18982
7241.39982,0.18688
7243.32828,0.17944
7245.25675,0.07825
7247.18522,0.01264
7249.11369,0.04893
7251.04216,0.10450
7252.97063,0.08213
7254.89910,0.00051
7256.82756,-0.04019
7258.75603,0.02065
7260.68450,0.13353
7262.61297,0.14909
7264.54144,0.16133
7266.46991,0.20818
7268.39838,0.23779
7270.32685,0.26219
7272.25531,0.26674
7274.18378,0.29673
7276.11225,0.30056
7278.04072,0.13999
7279.96919,-0.09931
7281.89766,-0.08219
7283.82613,0.09691
7285.75459,0.25773
7287.68306,0.36728
7289.61153,0.38641
7291.54000,0.32318
7293.46847,0.25824
7295.39694,0.25191
7297.32541,0.20906
7299.25387,0.00869
7301.18234,-0.22714
7303.11081,-0.27577
7305.03928,-0.12983
7306.96775,0.07514
7308.89622,0.31401
7310.82469,0.44718
7312.75316,0.34430
7314.68162,0.11737
7316.61009,-0.00117
7318.53856,0.18429
7320.46703,0.39420
7322.39550,0.37564
7324.32397,0.21529
7326.25244,0.01041
7328.18090,-0.22314
7330.10937,-0.23286
7332.03784,-0.00869
7333.96631,0.08863
7335.89478,-0.00120
7337.82325,-0.08401
7339.75172,0.05140
7341.68019,0.23664
7343.60865,0.22030
7345.53712,0.20096
7347.46559,0.22126
7349.39406,0.20334
7351.32253,0.15676
7353.25100,0.15347
7355.17947,0.32532
7357.10793,0.54929
7359.03640,0.44907
7360.96487,0.19682
7362.89334,0.09269
7364.82181,-0.02423
7366.75028,-0.13111
7368.67875,-0.12041
7370.60722,-0.07629
7372.53568,-0.05864
7374.46415,-0.09639
7376.39262,-0.12689
7378.32109,-0.06490
7380.24956,-0.01360
7382.17803,0.07164
7384.10650,0.26815
7386.03496,0.40692
7387.96343,0.36162
7389.89190,0.28290
7391.82037,0.25473
7393.74884,0.18943
7395.67731,0.06504
7397.60578,0.03580
7399.53425,0.07015
7401.46271,0.03077
7403.39118,-0.00651
7405.31965,0.04775
7407.24812,0.11574
7409.17659,0.11776
7411.10506,0.05697
7413.03353,0.01696
7414.96199,0.07071
7416.89046,0.24684
7418.81893,0.36005
7420.74740,0.17992
7422.67587,0.00919
7424.60434,-0.04129
7426.53281,-0.05599
7428.46128,0.00499
7430.38974,0.08618
7432.31821,0.08312
7434.24668,0.13445
7436.17515,0.22172
7438.10362,0.21526
7440.03209,0.21658
7441.96056,0.28845
7443.88902,0.22323
7445.81749,-0.02088
7447.74596,-0.11806
7449.67443,0.12139
7451.60290,0.36707
7453.53137,0.28554
7455.45984,0.16577
7457.38831,0.16280
7459.31677,0.18996
7461.24524,0.14746
7463.17371,-0.01697
7465.10218,-0.14120
7467.03065,-0.09038
7468.95912,-0.02200
7470.88759,0.00335
7472.81605,0.05601
7474.74452,0.15793
7476.67299,0.28604
7478.60146,0.35849
7480.52993,0.41010
7482.45840,0.46075
7484.38687,0.36059
7486.31533,0.23432
7488.24380,0.20608
7490.17227,0.14105
7492.10074,0.12313
7494.02921,0.27181
7495.95768,0.41010
7497.88615,0.37964
