399.19301,4.23338
401.12148,-0.43391
403.04995,0.19492
404.97842,0.60702
406.90689,0.38682
408.83536,0.13389
410.76382,0.04813
412.69229,0.42857
414.62076,2.05170
416.54923,4.23138
418.47770,4.72516
420.40617,3.00227
422.33464,1.87144
424.26311,1.21146
426.19157,0.69965
428.12004,0.59149
430.04851,0.52964
431.97698,0.16272
433.90545,-0.07356
435.83392,-0.01350
437.76239,0.11240
439.69085,0.21694
441.61932,0.24726
443.54779,0.17198
445.47626,0.11242
447.40473,0.13907
449.33320,0.16792
451.26167,0.13782
453.19013,0.05441
455.11860,0.02104
457.04707,0.14110
458.97554,0.25993
460.90401,0.20068
462.83248,0.06991
464.76095,0.02392
466.68942,0.10739
468.61788,0.21272
470.54635,0.20515
472.47482,0.02752
474.40329,-0.20354
476.33176,-0.17157
478.26023,-0.01524
480.18870,0.08550
482.11716,0.10852
484.04563,0.10516
485.97410,0.13125
487.90257,0.14905
489.83104,0.11347
491.75951,0.09005
493.68798,0.12651
495.61645,0.18105
497.54491,0.19556
499.47338,0.15492
501.40185,0.09602
503.33032,0.07611
505.25879,0.08258
507.18726,0.04436
509.11573,-0.01174
511.04419,0.01371
512.97266,0.10303
514.90113,0.14012
516.82960,0.11342
518.75807,0.11048
520.68654,0.12401
522.61501,0.13882
524.54348,0.15994
526.47194,0.14352
528.40041,0.11296
530.32888,0.10515
532.25735,0.08330
534.18582,0.06788
536.11429,0.09957
538.04276,0.10523
539.97122,0.07614
541.89969,0.09842
543.82816,0.16889
545.75663,0.23232
547.68510,0.25504
549.61357,0.22060
551.54204,0.16836
553.47051,0.13396
555.39897,0.11935
557.32744,0.15445
559.25591,0.20313
561.18438,0.17837
563.11285,0.11876
565.04132,0.10955
566.96979,0.13769
568.89825,0.15215
570.82672,0.14962
572.75519,0.14670
574.68366,0.14496
576.61213,0.14448
578.54060,0.14221
580.46907,0.13207
582.39754,0.12107
584.32600,0.12818
586.25447,0.16005
588.18294,0.18566
590.11141,0.16838
592.03988,0.13162
593.96835,0.11707
595.89682,0.12153
597.82528,0.13907
599.75375,0.15546
601.68222,0.14573
603.61069,0.11891
605.53916,0.10356
607.46763,0.10284
609.39610,0.10967
611.32456,0.12265
613.25303,0.12696
615.18150,0.11388
617.10997,0.10055
619.03844,0.10839
620.96691,0.13241
622.89538,0.14265
624.82385,0.13524
626.75231,0.12876
628.68078,0.12617
630.60925,0.11822
632.53772,0.10525
634.46619,0.10986
636.39466,0.12190
638.32313,0.11198
640.25159,0.10563
642.18006,0.12047
644.10853,0.13212
646.03700,0.13443
647.96547,0.13576
649.89394,0.14223
651.82241,0.15196
653.75088,0.15254
655.67934,0.14470
657.60781,0.14494
659.53628,0.13801
661.46475,0.11308
663.39322,0.11109
665.32169,0.13162
667.25016,0.13179
669.17862,0.12410
671.10709,0.13862
673.03556,0.14403
674.96403,0.13765
676.89250,0.12510
678.82097,0.11642
680.74944,0.11592
682.67791,0.11437
684.60637,0.11904
686.53484,0.13423
688.46331,0.14397
690.39178,0.14519
692.32025,0.14713
694.24872,0.15162
696.17719,0.15456
698.10565,0.15128
700.03412,0.14547
701.96259,0.14419
703.89106,0.14583
705.81953,0.14824
707.74800,0.14841
709.67647,0.13567
711.60494,0.11732
713.53340,0.11950
715.46187,0.13793
717.39034,0.14378
719.31881,0.13212
721.24728,0.11876
723.17575,0.11955
725.10422,0.13389
727.03268,0.14416
728.96115,0.14492
730.88962,0.14680
732.81809,0.15202
734.74656,0.15189
736.67503,0.14930
738.60350,0.15746
740.53197,0.16780
742.46043,0.16306
744.38890,0.14661
746.31737,0.13253
748.24584,0.13067
750.17431,0.14263
752.10278,0.15422
754.03125,0.14946
755.95971,0.14040
757.88818,0.13488
759.81665,0.12611
761.74512,0.12202
763.67359,0.12167
765.60206,0.12262
767.53053,0.13708
769.45900,0.15244
771.38746,0.14902
773.31593,0.14517
775.24440,0.15342
777.17287,0.15621
779.10134,0.14591
781.02981,0.13499
782.95828,0.13373
784.88674,0.13896
786.81521,0.13815
788.74368,0.12230
790.67215,0.11634
792.60062,0.13768
794.52909,0.15661
796.45756,0.15424
798.38602,0.14611
800.31449,0.14621
802.24296,0.15098
804.17143,0.15344
806.09990,0.15376
808.02837,0.15088
809.95684,0.14287
811.88531,0.13482
813.81377,0.13332
815.74224,0.13455
817.67071,0.13673
819.59918,0.13887
821.52765,0.13805
823.45612,0.13711
825.38459,0.14023
827.31305,0.14589
829.24152,0.14571
831.16999,0.14317
833.09846,0.14956
835.02693,0.15923
836.95540,0.16149
838.88387,0.15884
840.81234,0.15232
842.74080,0.14702
844.66927,0.14759
846.59774,0.14960
848.52621,0.15560
850.45468,0.16427
852.38315,0.16558
854.31162,0.15873
856.24008,0.15602
858.16855,0.15987
860.09702,0.16245
862.02549,0.16126
863.95396,0.15679
865.88243,0.14392
867.81090,0.14988
869.73937,0.20309
871.66783,0.21649
873.59630,0.16008
875.52477,0.13471
877.45324,0.14904
879.38171,0.15972
881.31018,0.16511
883.23865,0.17295
885.16711,0.17362
887.09558,0.15347
889.02405,0.13829
890.95252,0.14227
892.88099,0.14884
894.80946,0.15444
896.73793,0.16318
898.66640,0.17049
900.59486,0.17293
902.52333,0.16764
904.45180,0.15446
906.38027,0.14582
908.30874,0.14867
910.23721,0.15489
912.16568,0.15626
914.09414,0.15931
916.02261,0.16447
917.95108,0.16070
919.87955,0.15380
921.80802,0.15231
923.73649,0.15088
925.66496,0.14625
927.59343,0.14520
929.52189,0.15360
931.45036,0.16571
933.37883,0.17092
935.30730,0.16785
937.23577,0.16197
939.16424,0.15834
941.09271,0.15906
943.02117,0.15979
944.94964,0.15898
946.87811,0.15687
948.80658,0.14980
950.73505,0.14689
952.66352,0.15676
954.59199,0.16368
956.52045,0.15967
958.44892,0.15573
960.37739,0.15245
962.30586,0.14816
964.23433,0.14597
966.16280,0.14639
968.09127,0.14984
970.01974,0.15642
971.94820,0.16154
973.87667,0.16194
975.80514,0.16084
977.73361,0.15858
979.66208,0.15205
981.59055,0.14474
983.51902,0.14295
985.44748,0.14900
987.37595,0.15943
989.30442,0.16212
991.23289,0.15806
993.16136,0.16281
995.08983,0.17123
997.01830,0.17157
998.94677,0.16793
1000.87523,0.16619
1002.80370,0.16389
1004.73217,0.15521
1006.66064,0.14881
1008.58911,0.15332
1010.51758,0.15678
1012.44605,0.15750
1014.37451,0.16213
1016.30298,0.16119
1018.23145,0.15701
1020.15992,0.16177
1022.08839,0.16864
1024.01686,0.16880
1025.94533,0.16554
1027.87380,0.16381
1029.80226,0.16724
1031.73073,0.17152
1033.65920,0.16861
1035.58767,0.16258
1037.51614,0.16086
1039.44461,0.16238
1041.37308,0.16434
1043.30154,0.16905
1045.23001,0.17655
1047.15848,0.18144
1049.08695,0.18439
1051.01542,0.18711
1052.94389,0.18681
1054.87236,0.18567
1056.80083,0.18655
1058.72929,0.18686
1060.65776,0.18408
1062.58623,0.18244
1064.51470,0.18686
1066.44317,0.19363
1068.37164,0.19724
1070.30011,0.19441
1072.22857,0.18639
1074.15704,0.18204
1076.08551,0.18386
1078.01398,0.18347
1079.94245,0.17965
1081.87092,0.18099
1083.79939,0.18262
1085.72786,0.17350
1087.65632,0.16208
1089.58479,0.16068
1091.51326,0.16655
1093.44173,0.17142
1095.37020,0.17369
1097.29867,0.17558
1099.22714,0.17787
1101.15560,0.18082
1103.08407,0.18280
1105.01254,0.18385
1106.94101,0.18193
1108.86948,0.17347
1110.79795,0.16508
1112.72642,0.16359
1114.65489,0.16936
1116.58335,0.17745
1118.51182,0.17845
1120.44029,0.17343
1122.36876,0.16992
1124.29723,0.17150
1126.22570,0.17885
1128.15417,0.18580
1130.08263,0.18580
1132.01110,0.18190
1133.93957,0.18021
1135.86804,0.18144
1137.79651,0.18282
1139.72498,0.18397
1141.65345,0.18519
1143.58191,0.18258
1145.51038,0.17628
1147.43885,0.17418
1149.36732,0.17796
1151.29579,0.18182
1153.22426,0.18177
1155.15273,0.17826
1157.08120,0.17678
1159.00966,0.17865
1160.93813,0.17879
1162.86660,0.17930
1164.79507,0.18221
1166.72354,0.18105
1168.65201,0.17546
1170.58048,0.17197
1172.50894,0.17266
1174.43741,0.17455
1176.36588,0.17629
1178.29435,0.18076
1180.22282,0.18609
1182.15129,0.18554
1184.07976,0.18009
1186.00823,0.17757
1187.93669,0.18048
1189.86516,0.18384
1191.79363,0.18322
1193.72210,0.17887
1195.65057,0.17412
1197.57904,0.17369
1199.50751,0.17696
1201.43597,0.17772
1203.36444,0.17537
1205.29291,0.17260
1207.22138,0.17066
1209.14985,0.17199
1211.07832,0.17676
1213.00679,0.18073
1214.93526,0.18102
1216.86372,0.18032
1218.79219,0.18004
1220.72066,0.17979
1222.64913,0.18176
1224.57760,0.18487
1226.50607,0.18550
1228.43454,0.18210
1230.36300,0.17660
1232.29147,0.17431
1234.21994,0.17476
1236.14841,0.17378
1238.07688,0.17381
1240.00535,0.17609
1241.93382,0.17761
1243.86229,0.17843
1245.79075,0.17953
1247.71922,0.18043
1249.64769,0.17850
1251.57616,0.17356
1253.50463,0.17128
1255.43310,0.17396
1257.36157,0.17751
1259.29003,0.17740
1261.21850,0.17726
1263.14697,0.18065
1265.07544,0.17866
1267.00391,0.17234
1268.93238,0.17462
1270.86085,0.18197
1272.78932,0.18579
1274.71778,0.18919
1276.64625,0.19290
1278.57472,0.19332
1280.50319,0.19315
1282.43166,0.19565
1284.36013,0.19729
1286.28860,0.19419
1288.21706,0.18770
1290.14553,0.18243
1292.07400,0.18249
1294.00247,0.18602
1295.93094,0.18774
1297.85941,0.18773
1299.78788,0.18835
1301.71634,0.18718
1303.64481,0.18187
1305.57328,0.17785
1307.50175,0.17916
1309.43022,0.18008
1311.35869,0.18122
1313.28716,0.18767
1315.21563,0.19200
1317.14409,0.19087
1319.07256,0.18994
1321.00103,0.18930
1322.92950,0.18974
1324.85797,0.19121
1326.78644,0.18971
1328.71491,0.18619
1330.64337,0.18382
1332.57184,0.18378
1334.50031,0.18557
1336.42878,0.18922
1338.35725,0.19478
1340.28572,0.19500
1342.21419,0.18799
1344.14266,0.17976
1346.07112,0.17524
1347.99959,0.17829
1349.92806,0.18162
1351.85653,0.18273
1353.78500,0.18634
1355.71347,0.18816
1357.64194,0.18914
1359.57040,0.19396
1361.49887,0.19929
1363.42734,0.19659
1365.35581,0.18964
1367.28428,0.18879
1369.21275,0.19061
1371.14122,0.19245
1373.06969,0.19768
1374.99815,0.20019
1376.92662,0.19532
1378.85509,0.19131
1380.78356,0.19214
1382.71203,0.19582
1384.64050,0.19992
1386.56897,0.19922
1388.49743,0.19284
1390.42590,0.19127
1392.35437,0.19773
1394.28284,0.20631
1396.21131,0.21135
1398.13978,0.21222
1400.06825,0.20706
1401.99672,0.19969
1403.92518,0.19635
1405.85365,0.19600
1407.78212,0.19663
1409.71059,0.19754
1411.63906,0.19747
1413.56753,0.19861
1415.49600,0.20354
1417.42446,0.20848
1419.35293,0.20154
1421.28140,0.18996
1423.20987,0.18824
1425.13834,0.19069
1427.06681,0.19251
1428.99528,0.19453
1430.92375,0.19551
1432.85221,0.19728
1434.78068,0.20173
1436.70915,0.20385
1438.63762,0.20069
1440.56609,0.19785
1442.49456,0.19745
1444.42303,0.20045
1446.35149,0.20558
1448.27996,0.20843
1450.20843,0.20837
1452.13690,0.20878
1454.06537,0.21284
1455.99384,0.22539
1457.92231,0.23438
1459.85077,0.22496
1461.77924,0.21808
1463.70771,0.21506
1465.63618,0.20856
1467.56465,0.20484
1469.49312,0.21053
1471.42159,0.22102
1473.35006,0.22123
1475.27852,0.20976
1477.20699,0.20350
1479.13546,0.20208
1481.06393,0.19931
1482.99240,0.19683
1484.92087,0.20128
1486.84934,0.21357
1488.77780,0.22439
1490.70627,0.22146
1492.63474,0.21502
1494.56321,0.21633
1496.49168,0.22255
1498.42015,0.22238
1500.34862,0.21460
1502.27709,0.21243
1504.20555,0.22399
1506.13402,0.24673
1508.06249,0.24915
1509.99096,0.23320
1511.91943,0.22200
1513.84790,0.22055
1515.77637,0.22898
1517.70483,0.23362
1519.63330,0.23119
1521.56177,0.23534
1523.49024,0.23839
1525.41871,0.23231
1527.34718,0.22250
1529.27565,0.21422
1531.20412,0.21167
1533.13258,0.21550
1535.06105,0.22120
1536.98952,0.22901
1538.91799,0.24597
1540.84646,0.25990
1542.77493,0.24742
1544.70340,0.22825
1546.63186,0.21607
1548.56033,0.21395
1550.48880,0.21670
1552.41727,0.22141
1554.34574,0.22948
1556.27421,0.24119
1558.20268,0.25326
1560.13115,0.23657
1562.05961,0.21754
1563.98808,0.21147
1565.91655,0.20922
1567.84502,0.21065
1569.77349,0.21494
1571.70196,0.21519
1573.63043,0.21742
1575.55889,0.22265
1577.48736,0.21774
1579.41583,0.20533
1581.34430,0.19578
1583.27277,0.19323
1585.20124,0.19605
1587.12971,0.19780
1589.05818,0.19811
1590.98664,0.20077
1592.91511,0.20387
1594.84358,0.20156
1596.77205,0.19438
1598.70052,0.19039
1600.62899,0.19386
1602.55746,0.19936
1604.48592,0.20037
1606.41439,0.20041
1608.34286,0.20462
1610.27133,0.20856
1612.19980,0.20757
1614.12827,0.20765
1616.05674,0.21247
1617.98521,0.21301
1619.91367,0.21345
1621.84214,0.22162
1623.77061,0.22842
1625.69908,0.22458
1627.62755,0.21527
1629.55602,0.20703
1631.48449,0.20687
1633.41295,0.21796
1635.34142,0.23671
1637.26989,0.23710
1639.19836,0.22182
1641.12683,0.21067
1643.05530,0.20835
1644.98377,0.21693
1646.91223,0.23022
1648.84070,0.23187
1650.76917,0.23582
1652.69764,0.25350
1654.62611,0.25168
1656.55458,0.23472
1658.48305,0.23007
1660.41152,0.23870
1662.33998,0.24898
1664.26845,0.24425
1666.19692,0.23450
1668.12539,0.23541
1670.05386,0.24083
1671.98233,0.23815
1673.91080,0.23619
1675.83926,0.23133
1677.76773,0.22534
1679.69620,0.22885
1681.62467,0.24075
1683.55314,0.25297
1685.48161,0.24707
1687.41008,0.23379
1689.33855,0.22475
1691.26701,0.21932
1693.19548,0.22025
1695.12395,0.22878
1697.05242,0.23935
1698.98089,0.24463
1700.90936,0.23999
1702.83783,0.23200
1704.76629,0.22946
1706.69476,0.22480
1708.62323,0.21628
1710.55170,0.21250
1712.48017,0.21717
1714.40864,0.23154
1716.33711,0.24848
1718.26558,0.24176
1720.19404,0.22187
1722.12251,0.21212
1724.05098,0.20937
1725.97945,0.20773
1727.90792,0.20927
1729.83639,0.21643
1731.76486,0.22417
1733.69332,0.22555
1735.62179,0.22118
1737.55026,0.22080
1739.47873,0.22357
1741.40720,0.22447
1743.33567,0.22405
1745.26414,0.22612
1747.19261,0.23102
1749.12107,0.23393
1751.04954,0.22848
1752.97801,0.21979
1754.90648,0.21551
1756.83495,0.21422
1758.76342,0.21255
1760.69189,0.21227
1762.62035,0.21347
1764.54882,0.21313
1766.47729,0.21384
1768.40576,0.21912
1770.33423,0.22781
1772.26270,0.23191
1774.19117,0.22485
1776.11964,0.21547
1778.04810,0.20989
1779.97657,0.20810
1781.90504,0.20748
1783.83351,0.20708
1785.76198,0.20624
1787.69045,0.20652
1789.61892,0.21314
1791.54738,0.22196
1793.47585,0.22167
1795.40432,0.21742
1797.33279,0.21560
1799.26126,0.21553
1801.18973,0.21560
1803.11820,0.21371
1805.04666,0.21035
1806.97513,0.20762
1808.90360,0.20821
1810.83207,0.21108
1812.76054,0.21192
1814.68901,0.20944
1816.61748,0.20106
1818.54595,0.19151
1820.47441,0.19029
1822.40288,0.19469
1824.33135,0.20257
1826.25982,0.21137
1828.18829,0.21554
1830.11676,0.21648
1832.04523,0.21384
1833.97369,0.21100
1835.90216,0.20983
1837.83063,0.20748
1839.75910,0.20665
1841.68757,0.21188
1843.61604,0.22035
1845.54451,0.22157
1847.47298,0.21575
1849.40144,0.21030
1851.32991,0.20706
1853.25838,0.20562
1855.18685,0.20600
1857.11532,0.20795
1859.04379,0.20973
1860.97226,0.21110
1862.90072,0.21185
1864.82919,0.21306
1866.75766,0.21785
1868.68613,0.22075
1870.61460,0.21427
1872.54307,0.20649
1874.47154,0.20408
1876.40001,0.20606
1878.32847,0.20835
1880.25694,0.20919
1882.18541,0.21086
1884.11388,0.21302
1886.04235,0.21286
1887.97082,0.21220
1889.89929,0.21201
1891.82775,0.20973
1893.75622,0.20760
1895.68469,0.20741
1897.61316,0.20665
1899.54163,0.20548
1901.47010,0.20535
1903.39857,0.20559
1905.32704,0.20583
1907.25550,0.20703
1909.18397,0.20839
1911.11244,0.20837
1913.04091,0.20839
1914.96938,0.21017
1916.89785,0.21312
1918.82632,0.21414
1920.75478,0.21352
1922.68325,0.21284
1924.61172,0.20947
1926.54019,0.20632
1928.46866,0.20688
1930.39713,0.20748
1932.32560,0.20584
1934.25407,0.20339
1936.18253,0.20126
1938.11100,0.20048
1940.03947,0.20218
1941.96794,0.20616
1943.89641,0.20979
1945.82488,0.21071
1947.75335,0.20921
1949.68181,0.20732
1951.61028,0.20709
1953.53875,0.20870
1955.46722,0.21039
1957.39569,0.20957
1959.32416,0.20789
1961.25263,0.20912
1963.18110,0.21121
1965.10956,0.21144
1967.03803,0.20955
1968.96650,0.20644
1970.89497,0.20632
1972.82344,0.20848
1974.75191,0.20885
1976.68038,0.21035
1978.60884,0.21365
1980.53731,0.21326
1982.46578,0.20977
1984.39425,0.20716
1986.32272,0.20558
1988.25119,0.20428
1990.17966,0.20323
1992.10812,0.20307
1994.03659,0.20361
1995.96506,0.20414
1997.89353,0.20565
1999.82200,0.20849
2001.75047,0.21188
2003.67894,0.21367
2005.60741,0.21170
2007.53587,0.20980
2009.46434,0.21103
2011.39281,0.21120
2013.32128,0.20951
2015.24975,0.20943
2017.17822,0.21052
2019.10669,0.21188
2021.03515,0.21439
2022.96362,0.21678
2024.89209,0.21698
2026.82056,0.21507
2028.74903,0.21215
2030.67750,0.20896
2032.60597,0.20640
2034.53444,0.20480
2036.46290,0.20405
2038.39137,0.20465
2040.31984,0.20656
2042.24831,0.20811
2044.17678,0.20745
2046.10525,0.20580
2048.03372,0.20585
2049.96218,0.20650
2051.89065,0.20537
2053.81912,0.20391
2055.74759,0.20452
2057.67606,0.20631
2059.60453,0.20708
2061.53300,0.20651
2063.46147,0.20572
2065.38993,0.20559
2067.31840,0.20647
2069.24687,0.20824
2071.17534,0.21000
2073.10381,0.21107
2075.03228,0.21159
2076.96075,0.21085
2078.88921,0.20781
2080.81768,0.20409
2082.74615,0.20231
2084.67462,0.20386
2086.60309,0.20763
2088.53156,0.21052
2090.46003,0.21156
2092.38850,0.21124
2094.31696,0.21047
2096.24543,0.21082
2098.17390,0.21215
2100.10237,0.21304
2102.03084,0.21246
2103.95931,0.21056
2105.88778,0.20802
2107.81624,0.20743
2109.74471,0.20979
2111.67318,0.21089
2113.60165,0.21049
2115.53012,0.21079
2117.45859,0.20948
2119.38706,0.20697
2121.31553,0.20705
2123.24399,0.20892
2125.17246,0.20890
2127.10093,0.20646
2129.02940,0.20421
2130.95787,0.20509
2132.88634,0.20837
2134.81481,0.20937
2136.74327,0.20693
2138.67174,0.20649
2140.60021,0.20910
2142.52868,0.20945
2144.45715,0.20767
2146.38562,0.20713
2148.31409,0.20823
2150.24255,0.20952
2152.17102,0.21069
2154.09949,0.21103
2156.02796,0.20822
2157.95643,0.20604
2159.88490,0.20761
2161.81337,0.20810
2163.74184,0.20662
2165.67030,0.20662
2167.59877,0.20690
2169.52724,0.20597
2171.45571,0.20616
2173.38418,0.20809
2175.31265,0.20943
2177.24112,0.20850
2179.16958,0.20659
2181.09805,0.20548
2183.02652,0.20552
2184.95499,0.20786
2186.88346,0.21095
2188.81193,0.21024
2190.74040,0.20637
2192.66887,0.20579
2194.59733,0.21061
2196.52580,0.21444
2198.45427,0.21193
2200.38274,0.20817
2202.31121,0.20892
2204.23968,0.20973
2206.16815,0.20869
2208.09661,0.20970
2210.02508,0.21017
2211.95355,0.20772
2213.88202,0.20755
2215.81049,0.21145
2217.73896,0.21334
2219.66743,0.21144
2221.59590,0.21055
2223.52436,0.21063
2225.45283,0.20982
2227.38130,0.21133
2229.30977,0.21450
2231.23824,0.21416
2233.16671,0.21041
2235.09518,0.20779
2237.02364,0.20814
2238.95211,0.20942
2240.88058,0.20987
2242.80905,0.20921
2244.73752,0.20846
2246.66599,0.20958
2248.59446,0.21262
2250.52293,0.21540
2252.45139,0.21512
2254.37986,0.21136
2256.30833,0.20684
2258.23680,0.20451
2260.16527,0.20617
2262.09374,0.20974
2264.02221,0.21070
2265.95067,0.20920
2267.87914,0.20823
2269.80761,0.20823
2271.73608,0.20964
2273.66455,0.21216
2275.59302,0.21373
2277.52149,0.21405
2279.44996,0.21324
2281.37842,0.21079
2283.30689,0.20787
2285.23536,0.20641
2287.16383,0.20691
2289.09230,0.20805
2291.02077,0.20857
2292.94924,0.20887
2294.87770,0.20857
2296.80617,0.20722
2298.73464,0.20604
2300.66311,0.20503
2302.59158,0.20487
2304.52005,0.20562
2306.44852,0.20639
2308.37699,0.20820
2310.30545,0.20927
2312.23392,0.20629
2314.16239,0.19839
2316.09086,0.18990
2318.01933,0.18604
2319.94780,0.18430
2321.87627,0.18259
2323.80473,0.18481
2325.73320,0.19101
2327.66167,0.19555
2329.59014,0.19622
2331.51861,0.19352
2333.44708,0.19138
2335.37555,0.19389
2337.30401,0.19267
2339.23248,0.18849
2341.16095,0.18939
2343.08942,0.18853
2345.01789,0.18493
2346.94636,0.18156
2348.87483,0.17865
2350.80330,0.17931
2352.73176,0.18814
2354.66023,0.20260
2356.58870,0.20400
2358.51717,0.19381
2360.44564,0.18733
2362.37411,0.17239
2364.30258,0.16177
2366.23104,0.17332
2368.15951,0.18560
2370.08798,0.18535
2372.01645,0.18559
2373.94492,0.19218
2375.87339,0.19828
2377.80186,0.20256
2379.73033,0.20797
2381.65879,0.21244
2383.58726,0.21325
2385.51573,0.21252
2387.44420,0.21198
2389.37267,0.21199
2391.30114,0.21327
2393.22961,0.21219
2395.15807,0.20764
2397.08654,0.20518
2399.01501,0.20594
2400.94348,0.20744
2402.87195,0.20940
2404.80042,0.21035
2406.72889,0.21072
2408.65736,0.21314
2410.58582,0.21602
2412.51429,0.21641
2414.44276,0.21475
2416.37123,0.21223
2418.29970,0.21041
2420.22817,0.21145
2422.15664,0.21283
2424.08510,0.21229
2426.01357,0.21242
2427.94204,0.21271
2429.87051,0.21214
2431.79898,0.21241
2433.72745,0.21223
2435.65592,0.20997
2437.58439,0.20835
2439.51285,0.20844
2441.44132,0.20910
2443.36979,0.21035
2445.29826,0.21110
2447.22673,0.21074
2449.15520,0.21053
2451.08367,0.21040
2453.01213,0.20784
2454.94060,0.20533
2456.86907,0.20830
2458.79754,0.21276
2460.72601,0.21380
2462.65448,0.21305
2464.58295,0.21128
2466.51142,0.20955
2468.43988,0.20983
2470.36835,0.21099
2472.29682,0.21127
2474.22529,0.21032
2476.15376,0.20970
2478.08223,0.21127
2480.01070,0.21335
2481.93916,0.21329
2483.86763,0.21156
2485.79610,0.21061
2487.72457,0.20956
2489.65304,0.20837
2491.58151,0.21060
2493.50998,0.21375
2495.43844,0.21353
2497.36691,0.21181
2499.29538,0.21184
2501.22385,0.21342
2503.15232,0.21514
2505.08079,0.21598
2507.00926,0.21450
2508.93773,0.21253
2510.86619,0.21189
2512.79466,0.21127
2514.72313,0.21073
2516.65160,0.21142
2518.58007,0.21469
2520.50854,0.21749
2522.43701,0.21502
2524.36547,0.21078
2526.29394,0.20944
2528.22241,0.21089
2530.15088,0.21313
2532.07935,0.21342
2534.00782,0.21358
2535.93629,0.21547
2537.86476,0.21623
2539.79322,0.21423
2541.72169,0.21060
2543.65016,0.20901
2545.57863,0.21117
2547.50710,0.21375
2549.43557,0.21432
2551.36404,0.21312
2553.29250,0.21217
2555.22097,0.21290
2557.14944,0.21380
2559.07791,0.21370
2561.00638,0.21293
2562.93485,0.21222
2564.86332,0.21095
2566.79179,0.20914
2568.72025,0.20943
2570.64872,0.21090
2572.57719,0.21134
2574.50566,0.21292
2576.43413,0.21657
2578.36260,0.21882
2580.29107,0.21862
2582.21953,0.21888
2584.14800,0.21984
2586.07647,0.21911
2588.00494,0.21673
2589.93341,0.21342
2591.86188,0.20987
2593.79035,0.20867
2595.71882,0.20976
2597.64728,0.21229
2599.57575,0.21620
2601.50422,0.21828
2603.43269,0.21757
2605.36116,0.21578
2607.28963,0.21568
2609.21810,0.21851
2611.14656,0.21828
2613.07503,0.21579
2615.00350,0.21880
2616.93197,0.22187
2618.86044,0.21926
2620.78891,0.21723
2622.71738,0.21712
2624.64585,0.21583
2626.57431,0.21438
2628.50278,0.21412
2630.43125,0.21508
2632.35972,0.21656
2634.28819,0.21908
2636.21666,0.22152
2638.14513,0.22001
2640.07359,0.21554
2642.00206,0.21323
2643.93053,0.21376
2645.85900,0.21392
2647.78747,0.21352
2649.71594,0.21471
2651.64441,0.21713
2653.57288,0.21927
2655.50134,0.22087
2657.42981,0.22128
2659.35828,0.21974
2661.28675,0.21733
2663.21522,0.21557
2665.14369,0.21446
2667.07216,0.21497
2669.00062,0.21792
2670.92909,0.22021
2672.85756,0.22109
2674.78603,0.22277
2676.71450,0.22383
2678.64297,0.22297
2680.57144,0.22204
2682.49990,0.22192
2684.42837,0.22136
2686.35684,0.22079
2688.28531,0.22128
2690.21378,0.22213
2692.14225,0.22286
2694.07072,0.22230
2695.99919,0.22004
2697.92765,0.21878
2699.85612,0.21980
2701.78459,0.21976
2703.71306,0.21675
2705.64153,0.21497
2707.57000,0.21691
2709.49847,0.21995
2711.42693,0.22139
2713.35540,0.22030
2715.28387,0.21942
2717.21234,0.22198
2719.14081,0.22438
2721.06928,0.22305
2722.99775,0.22293
2724.92622,0.22582
2726.85468,0.22681
2728.78315,0.22532
2730.71162,0.22485
2732.64009,0.22762
2734.56856,0.22996
2736.49703,0.22777
2738.42550,0.22450
2740.35396,0.22360
2742.28243,0.22348
2744.21090,0.22164
2746.13937,0.21830
2748.06784,0.21607
2749.99631,0.21796
2751.92478,0.22343
2753.85325,0.22824
2755.78171,0.22983
2757.71018,0.22857
2759.63865,0.22722
2761.56712,0.22715
2763.49559,0.22723
2765.42406,0.22656
2767.35253,0.22513
2769.28099,0.22655
2771.20946,0.23114
2773.13793,0.23177
2775.06640,0.22786
2776.99487,0.22716
2778.92334,0.23056
2780.85181,0.23165
2782.78028,0.22783
2784.70874,0.22483
2786.63721,0.22784
2788.56568,0.23122
2790.49415,0.23041
2792.42262,0.22877
2794.35109,0.22653
2796.27956,0.22344
2798.20802,0.22302
2800.13649,0.22523
2802.06496,0.22786
2803.99343,0.23078
2805.92190,0.23230
2807.85037,0.23082
2809.77884,0.22836
2811.70731,0.22797
2813.63577,0.22771
2815.56424,0.22516
2817.49271,0.22369
2819.42118,0.22425
2821.34965,0.22472
2823.27812,0.22415
2825.20659,0.22226
2827.13505,0.22284
2829.06352,0.22951
2830.99199,0.23635
2832.92046,0.23648
2834.84893,0.23337
2836.77740,0.23174
2838.70587,0.23207
2840.63433,0.23335
2842.56280,0.23408
2844.49127,0.23560
2846.41974,0.23717
2848.34821,0.23599
2850.27668,0.23397
2852.20515,0.23349
2854.13362,0.23314
2856.06208,0.23166
2857.99055,0.23100
2859.91902,0.23315
2861.84749,0.23637
2863.77596,0.23619
2865.70443,0.23164
2867.63290,0.22792
2869.56136,0.22960
2871.48983,0.23414
2873.41830,0.23541
2875.34677,0.23189
2877.27524,0.22819
2879.20371,0.22815
2881.13218,0.22969
2883.06065,0.22958
2884.98911,0.22864
2886.91758,0.22838
2888.84605,0.22810
2890.77452,0.22798
2892.70299,0.22696
2894.63146,0.22388
2896.55993,0.22344
2898.48839,0.22652
2900.41686,0.22913
2902.34533,0.23027
2904.27380,0.22850
2906.20227,0.22509
2908.13074,0.22519
2910.05921,0.22910
2911.98768,0.23328
2913.91614,0.23431
2915.84461,0.23027
2917.77308,0.22699
2919.70155,0.22885
2921.63002,0.23064
2923.55849,0.23061
2925.48696,0.23542
2927.41542,0.24681
2929.34389,0.25465
2931.27236,0.25145
2933.20083,0.24051
2935.12930,0.23243
2937.05777,0.23080
2938.98624,0.22857
2940.91471,0.22712
2942.84317,0.22825
2944.77164,0.22836
2946.70011,0.22868
2948.62858,0.23011
2950.55705,0.23124
2952.48552,0.23048
2954.41399,0.22733
2956.34245,0.22241
2958.27092,0.21974
2960.19939,0.22383
2962.12786,0.23089
2964.05633,0.23508
2965.98480,0.23608
2967.91327,0.23587
2969.84174,0.23550
2971.77020,0.23475
2973.69867,0.23490
2975.62714,0.23624
2977.55561,0.23429
2979.48408,0.22989
2981.41255,0.22930
2983.34102,0.23261
2985.26948,0.23547
2987.19795,0.23590
2989.12642,0.23557
2991.05489,0.23509
2992.98336,0.23475
2994.91183,0.23770
2996.84030,0.24191
2998.76877,0.24203
3000.69723,0.23890
3002.62570,0.23449
3004.55417,0.23092
3006.48264,0.23213
3008.41111,0.23641
3010.33958,0.23763
3012.26805,0.23147
3014.19651,0.21681
3016.12498,0.20103
3018.05345,0.19963
3019.98192,0.21496
3021.91039,0.23095
3023.83886,0.23855
3025.76733,0.24001
3027.69579,0.23727
3029.62426,0.23223
3031.55273,0.22714
3033.48120,0.22506
3035.40967,0.23060
3037.33814,0.24081
3039.26661,0.24750
3041.19508,0.24712
3043.12354,0.24084
3045.05201,0.23508
3046.98048,0.23384
3048.90895,0.23446
3050.83742,0.23602
3052.76589,0.23890
3054.69436,0.23803
3056.62282,0.23233
3058.55129,0.23120
3060.47976,0.23627
3062.40823,0.23832
3064.33670,0.23157
3066.26517,0.22244
3068.19364,0.22349
3070.12211,0.23222
3072.05057,0.23758
3073.97904,0.23749
3075.90751,0.23642
3077.83598,0.23745
3079.76445,0.23681
3081.69292,0.23105
3083.62139,0.22579
3085.54985,0.22692
3087.47832,0.22940
3089.40679,0.22801
3091.33526,0.22691
3093.26373,0.22544
3095.19220,0.22178
3097.12067,0.22202
3099.04914,0.22661
3100.97760,0.22955
3102.90607,0.22896
3104.83454,0.23137
3106.76301,0.24012
3108.69148,0.24596
3110.61995,0.24236
3112.54842,0.23444
3114.47688,0.22908
3116.40535,0.22715
3118.33382,0.22780
3120.26229,0.23046
3122.19076,0.23288
3124.11923,0.23499
3126.04770,0.23572
3127.97617,0.23448
3129.90463,0.23453
3131.83310,0.23779
3133.76157,0.24301
3135.69004,0.24507
3137.61851,0.24223
3139.54698,0.23936
3141.47545,0.23778
3143.40391,0.23601
3145.33238,0.23602
3147.26085,0.23863
3149.18932,0.24080
3151.11779,0.24100
3153.04626,0.24167
3154.97473,0.24237
3156.90320,0.23972
3158.83166,0.23588
3160.76013,0.23291
3162.68860,0.23037
3164.61707,0.23025
3166.54554,0.23242
3168.47401,0.23563
3170.40248,0.23825
3172.33094,0.23819
3174.25941,0.23728
3176.18788,0.23867
3178.11635,0.24258
3180.04482,0.24602
3181.97329,0.24707
3183.90176,0.24655
3185.83022,0.24491
3187.75869,0.24460
3189.68716,0.24627
3191.61563,0.24533
3193.54410,0.24210
3195.47257,0.24112
3197.40104,0.24254
3199.32951,0.24541
3201.25797,0.24789
3203.18644,0.24644
3205.11491,0.24265
3207.04338,0.24189
3208.97185,0.24398
3210.90032,0.24529
3212.82879,0.24419
3214.75725,0.23984
3216.68572,0.23701
3218.61419,0.24054
3220.54266,0.24366
3222.47113,0.24109
3224.39960,0.23698
3226.32807,0.23469
3228.25654,0.23564
3230.18500,0.23946
3232.11347,0.24165
3234.04194,0.23808
3235.97041,0.23250
3237.89888,0.23340
3239.82735,0.23810
3241.75582,0.23899
3243.68428,0.23774
3245.61275,0.23758
3247.54122,0.23877
3249.46969,0.24110
3251.39816,0.24294
3253.32663,0.24196
3255.25510,0.24111
3257.18357,0.24294
3259.11203,0.24227
3261.04050,0.24013
3262.96897,0.24062
3264.89744,0.24081
3266.82591,0.23792
3268.75438,0.23258
3270.68285,0.22902
3272.61131,0.23045
3274.53978,0.23679
3276.46825,0.24284
3278.39672,0.24191
3280.32519,0.23650
3282.25366,0.23257
3284.18213,0.23397
3286.11060,0.23792
3288.03906,0.23737
3289.96753,0.23494
3291.89600,0.23674
3293.82447,0.23995
3295.75294,0.23802
3297.68141,0.23411
3299.60988,0.23690
3301.53834,0.24187
3303.46681,0.23947
3305.39528,0.23436
3307.32375,0.23410
3309.25222,0.23618
3311.18069,0.23619
3313.10916,0.23395
3315.03763,0.23436
3316.96609,0.23797
3318.89456,0.23774
3320.82303,0.23523
3322.75150,0.23523
3324.67997,0.23547
3326.60844,0.23567
3328.53691,0.23794
3330.46537,0.24213
3332.39384,0.24691
3334.32231,0.25167
3336.25078,0.25371
3338.17925,0.24999
3340.10772,0.24386
3342.03619,0.23980
3343.96466,0.23959
3345.89312,0.24387
3347.82159,0.24997
3349.75006,0.25270
3351.67853,0.24951
3353.60700,0.24474
3355.53547,0.24169
3357.46394,0.23905
3359.39240,0.23815
3361.32087,0.23895
3363.24934,0.23983
3365.17781,0.24138
3367.10628,0.24223
3369.03475,0.24387
3370.96322,0.24804
3372.89168,0.24797
3374.82015,0.24320
3376.74862,0.24187
3378.67709,0.24248
3380.60556,0.24084
3382.53403,0.23960
3384.46250,0.23941
3386.39097,0.23999
3388.31943,0.24159
3390.24790,0.24211
3392.17637,0.24395
3394.10484,0.24815
3396.03331,0.24799
3397.96178,0.24526
3399.89025,0.24387
3401.81871,0.24034
3403.74718,0.23849
3405.67565,0.23636
3407.60412,0.22896
3409.53259,0.22647
3411.46106,0.23037
3413.38953,0.23508
3415.31800,0.23985
3417.24646,0.24098
3419.17493,0.24115
3421.10340,0.24222
3423.03187,0.23857
3424.96034,0.23101
3426.88881,0.22757
3428.81728,0.23059
3430.74574,0.23215
3432.67421,0.23052
3434.60268,0.23024
3436.53115,0.23008
3438.45962,0.23027
3440.38809,0.23399
3442.31656,0.23963
3444.24503,0.24074
3446.17349,0.23678
3448.10196,0.23235
3450.03043,0.22618
3451.95890,0.21972
3453.88737,0.21984
3455.81584,0.22472
3457.74431,0.22565
3459.67277,0.22444
3461.60124,0.22745
3463.52971,0.23047
3465.45818,0.23028
3467.38665,0.22915
3469.31512,0.22556
3471.24359,0.21791
3473.17206,0.21283
3475.10052,0.21563
3477.02899,0.21898
3478.95746,0.21917
3480.88593,0.21913
3482.81440,0.21653
3484.74287,0.21371
3486.67134,0.21644
3488.59980,0.21945
3490.52827,0.21554
3492.45674,0.20982
3494.38521,0.21044
3496.31368,0.21544
3498.24215,0.21754
3500.17062,0.21677
3502.09909,0.21573
3504.02755,0.21130
3505.95602,0.20339
3507.88449,0.19967
3509.81296,0.20199
3511.74143,0.20505
3513.66990,0.20611
3515.59837,0.20450
3517.52683,0.20194
3519.45530,0.19914
3521.38377,0.19692
3523.31224,0.19965
3525.24071,0.20437
3527.16918,0.20567
3529.09765,0.20471
3531.02611,0.20203
3532.95458,0.19749
3534.88305,0.19448
3536.81152,0.19530
3538.73999,0.19758
3540.66846,0.19977
3542.59693,0.20213
3544.52540,0.20436
3546.45386,0.20225
3548.38233,0.19411
3550.31080,0.19045
3552.23927,0.19310
3554.16774,0.18964
3556.09621,0.18126
3558.02468,0.17808
3559.95314,0.18029
3561.88161,0.18520
3563.81008,0.19311
3565.73855,0.20264
3567.66702,0.20304
3569.59549,0.19322
3571.52396,0.18720
3573.45243,0.18525
3575.38089,0.18509
3577.30936,0.18783
3579.23783,0.18772
3581.16630,0.18219
3583.09477,0.17907
3585.02324,0.18266
3586.95171,0.18678
3588.88017,0.18405
3590.80864,0.18388
3592.73711,0.18899
3594.66558,0.18990
3596.59405,0.18386
3598.52252,0.17669
3600.45099,0.17173
3602.37946,0.16992
3604.30792,0.17038
3606.23639,0.17426
3608.16486,0.18024
3610.09333,0.18324
3612.02180,0.18589
3613.95027,0.18636
3615.87874,0.18265
3617.80720,0.17983
3619.73567,0.17227
3621.66414,0.16056
3623.59261,0.15529
3625.52108,0.15684
3627.44955,0.16188
3629.37802,0.16560
3631.30649,0.16546
3633.23495,0.16308
3635.16342,0.15755
3637.09189,0.14914
3639.02036,0.14368
3640.94883,0.14613
3642.87730,0.14999
3644.80577,0.15316
3646.73423,0.16709
3648.66270,0.19222
3650.59117,0.19078
3652.51964,0.16895
3654.44811,0.15452
3656.37658,0.15036
3658.30505,0.15272
3660.23352,0.15238
3662.16198,0.14694
3664.09045,0.14243
3666.01892,0.14399
3667.94739,0.15260
3669.87586,0.16238
3671.80433,0.16413
3673.73280,0.17136
3675.66126,0.18462
3677.58973,0.17732
3679.51820,0.16095
3681.44667,0.15009
3683.37514,0.14723
3685.30361,0.15315
3687.23208,0.16336
3689.16055,0.16681
3691.08901,0.16049
3693.01748,0.15420
3694.94595,0.14788
3696.87442,0.14181
3698.80289,0.14147
3700.73136,0.14590
3702.65983,0.14511
3704.58829,0.13897
3706.51676,0.13747
3708.44523,0.14497
3710.37370,0.15646
3712.30217,0.15764
3714.23064,0.15147
3716.15911,0.14997
3718.08757,0.15371
3720.01604,0.15929
3721.94451,0.16412
3723.87298,0.16071
3725.80145,0.14695
3727.72992,0.13951
3729.65839,0.14433
3731.58686,0.15462
3733.51532,0.16556
3735.44379,0.17044
3737.37226,0.16617
3739.30073,0.16173
3741.22920,0.16343
3743.15767,0.16712
3745.08614,0.16607
3747.01460,0.16560
3748.94307,0.16947
3750.87154,0.17208
3752.80001,0.16508
3754.72848,0.15561
3756.65695,0.15251
3758.58542,0.15539
3760.51389,0.15526
3762.44235,0.15090
3764.37082,0.14831
3766.29929,0.14975
3768.22776,0.15455
3770.15623,0.15519
3772.08470,0.14565
3774.01317,0.13685
3775.94163,0.13837
3777.87010,0.14761
3779.79857,0.15063
3781.72704,0.14395
3783.65551,0.14329
3785.58398,0.14965
3787.51245,0.15069
3789.44092,0.14526
3791.36938,0.13851
3793.29785,0.13546
3795.22632,0.13975
3797.15479,0.14607
3799.08326,0.15012
3801.01173,0.15712
3802.94020,0.15815
3804.86866,0.15087
3806.79713,0.14549
3808.72560,0.13966
3810.65407,0.13245
3812.58254,0.13031
3814.51101,0.13525
3816.43948,0.14203
3818.36795,0.14860
3820.29641,0.15507
3822.22488,0.15019
3824.15335,0.14303
3826.08182,0.14394
3828.01029,0.14426
3829.93876,0.13970
3831.86723,0.13659
3833.79569,0.13795
3835.72416,0.14535
3837.65263,0.16214
3839.58110,0.17320
3841.50957,0.16778
3843.43804,0.15780
3845.36651,0.14844
3847.29498,0.14363
3849.22344,0.14802
3851.15191,0.15792
3853.08038,0.15836
3855.00885,0.14624
3856.93732,0.14326
3858.86579,0.14442
3860.79426,0.14358
3862.72272,0.14147
3864.65119,0.14031
3866.57966,0.14172
3868.50813,0.14885
3870.43660,0.15863
3872.36507,0.15916
3874.29354,0.14953
3876.22200,0.13846
3878.15047,0.13640
3880.07894,0.14095
3882.00741,0.14006
3883.93588,0.14013
3885.86435,0.14490
3887.79282,0.14384
3889.72129,0.14121
3891.64975,0.13907
3893.57822,0.13462
3895.50669,0.13416
3897.43516,0.14203
3899.36363,0.15239
3901.29210,0.15114
3903.22057,0.14468
3905.14903,0.14291
3907.07750,0.13530
3909.00597,0.12569
3910.93444,0.12349
3912.86291,0.12540
3914.79138,0.12839
3916.71985,0.13288
3918.64832,0.13219
3920.57678,0.12720
3922.50525,0.12624
3924.43372,0.12790
3926.36219,0.12681
3928.29066,0.12513
3930.21913,0.12689
3932.14760,0.12996
3934.07606,0.12997
3936.00453,0.13011
3937.93300,0.13290
3939.86147,0.13431
3941.78994,0.13238
3943.71841,0.12845
3945.64688,0.12599
3947.57535,0.12652
3949.50381,0.12759
3951.43228,0.12884
3953.36075,0.12905
3955.28922,0.12724
3957.21769,0.12555
3959.14616,0.12565
3961.07463,0.12756
3963.00309,0.12690
3964.93156,0.12204
3966.86003,0.11898
3968.78850,0.12273
3970.71697,0.12862
3972.64544,0.12832
3974.57391,0.12402
3976.50238,0.12013
3978.43084,0.11557
3980.35931,0.11195
3982.28778,0.11312
3984.21625,0.11663
3986.14472,0.11599
3988.07319,0.11385
3990.00166,0.11639
3991.93012,0.12038
3993.85859,0.12112
3995.78706,0.11911
3997.71553,0.11623
3999.64400,0.11551
4001.57247,0.11658
4003.50094,0.11654
4005.42941,0.11545
4007.35787,0.11464
4009.28634,0.11441
4011.21481,0.11372
4013.14328,0.11372
4015.07175,0.11542
4017.00022,0.11626
4018.92869,0.11247
4020.85715,0.10723
4022.78562,0.10856
4024.71409,0.11285
4026.64256,0.11418
4028.57103,0.11405
4030.49950,0.11149
4032.42797,0.10935
4034.35644,0.11664
4036.28490,0.12875
4038.21337,0.12793
4040.14184,0.11389
4042.07031,0.10636
4043.99878,0.11039
4045.92725,0.11209
4047.85572,0.10956
4049.78418,0.11194
4051.71265,0.11571
4053.64112,0.11165
4055.56959,0.10273
4057.49806,0.09793
4059.42653,0.09829
4061.35500,0.10049
4063.28346,0.10138
4065.21193,0.10190
4067.14040,0.10614
4069.06887,0.11054
4070.99734,0.10928
4072.92581,0.10441
4074.85428,0.10058
4076.78275,0.10086
4078.71121,0.10617
4080.63968,0.11054
4082.56815,0.11020
4084.49662,0.10896
4086.42509,0.10683
4088.35356,0.10412
4090.28203,0.10219
4092.21049,0.09879
4094.13896,0.09675
4096.06743,0.09984
4097.99590,0.10484
4099.92437,0.10953
4101.85284,0.11287
4103.78131,0.11146
4105.70978,0.10772
4107.63824,0.10536
4109.56671,0.10141
4111.49518,0.09581
4113.42365,0.09193
4115.35212,0.08896
4117.28059,0.08771
4119.20906,0.09171
4121.13752,0.09742
4123.06599,0.09751
4124.99446,0.09522
4126.92293,0.09837
4128.85140,0.10374
4130.77987,0.10538
4132.70834,0.10416
4134.63681,0.10477
4136.56527,0.10701
4138.49374,0.10301
4140.42221,0.09507
4142.35068,0.09219
4144.27915,0.09359
4146.20762,0.09652
4148.13609,0.09763
4150.06455,0.09463
4151.99302,0.09146
4153.92149,0.08973
4155.84996,0.09045
4157.77843,0.09508
4159.70690,0.09664
4161.63537,0.09235
4163.56384,0.09050
4165.49230,0.09453
4167.42077,0.09823
4169.34924,0.09639
4171.27771,0.09399
4173.20618,0.09281
4175.13465,0.08859
4177.06312,0.08732
4178.99158,0.08880
4180.92005,0.08490
4182.84852,0.08061
4184.77699,0.08271
4186.70546,0.08961
4188.63393,0.09491
4190.56240,0.09330
4192.49087,0.08287
4194.41933,0.06838
4196.34780,0.06336
4198.27627,0.07053
4200.20474,0.07822
4202.13321,0.08126
4204.06168,0.08281
4205.99015,0.08206
4207.91861,0.07793
4209.84708,0.07588
4211.77555,0.07805
4213.70402,0.08275
4215.63249,0.08901
4217.56096,0.09072
4219.48943,0.08547
4221.41789,0.08073
4223.34636,0.08149
4225.27483,0.08652
4227.20330,0.08811
4229.13177,0.08141
4231.06024,0.07542
4232.98871,0.07576
4234.91718,0.07742
4236.84564,0.07705
4238.77411,0.07651
4240.70258,0.07494
4242.63105,0.06969
4244.55952,0.06877
4246.48799,0.07668
4248.41646,0.08480
4250.34492,0.08472
4252.27339,0.07535
4254.20186,0.06596
4256.13033,0.06484
4258.05880,0.06768
4259.98727,0.07030
4261.91574,0.07528
4263.84421,0.07951
4265.77267,0.07741
4267.70114,0.07066
4269.62961,0.06222
4271.55808,0.05824
4273.48655,0.06308
4275.41502,0.06640
4277.34349,0.06399
4279.27195,0.06433
4281.20042,0.06755
4283.12889,0.06992
4285.05736,0.06765
4286.98583,0.06142
4288.91430,0.05885
4290.84277,0.06063
4292.77124,0.06621
4294.69970,0.07416
4296.62817,0.07592
4298.55664,0.07024
4300.48511,0.06657
4302.41358,0.06858
4304.34205,0.07044
4306.27052,0.06848
4308.19898,0.06523
4310.12745,0.06337
4312.05592,0.06218
4313.98439,0.06032
4315.91286,0.05810
4317.84133,0.05783
4319.76980,0.05974
4321.69827,0.05885
4323.62673,0.05427
4325.55520,0.05358
4327.48367,0.05747
4329.41214,0.05809
4331.34061,0.05595
4333.26908,0.05534
4335.19755,0.05619
4337.12601,0.05802
4339.05448,0.06029
4340.98295,0.06061
4342.91142,0.05687
4344.83989,0.05364
4346.76836,0.05503
4348.69683,0.05796
4350.62530,0.06020
4352.55376,0.06142
4354.48223,0.05944
4356.41070,0.05305
4358.33917,0.04790
4360.26764,0.05174
4362.19611,0.05964
4364.12458,0.06110
4366.05304,0.05788
4367.98151,0.05411
4369.90998,0.05061
4371.83845,0.05068
4373.76692,0.05489
4375.69539,0.05687
4377.62386,0.05175
4379.55232,0.04833
4381.48079,0.05099
4383.40926,0.05138
4385.33773,0.05043
4387.26620,0.05136
4389.19467,0.04849
4391.12314,0.04151
4393.05161,0.03720
4394.98007,0.03684
4396.90854,0.03920
4398.83701,0.04411
4400.76548,0.04617
4402.69395,0.04174
4404.62242,0.03433
4406.55089,0.02917
4408.47935,0.02997
4410.40782,0.03715
4412.33629,0.04748
4414.26476,0.05081
4416.19323,0.04198
4418.12170,0.03187
4420.05017,0.03141
4421.97864,0.03654
4423.90710,0.03637
4425.83557,0.03453
4427.76404,0.03746
4429.69251,0.04115
4431.62098,0.04261
4433.54945,0.03883
4435.47792,0.03296
4437.40638,0.02993
4439.33485,0.02857
4441.26332,0.02945
4443.19179,0.03410
4445.12026,0.04126
4447.04873,0.04468
4448.97720,0.04084
4450.90567,0.03187
4452.83413,0.02548
4454.76260,0.02658
4456.69107,0.02605
4458.61954,0.02067
4460.54801,0.02060
4462.47648,0.03076
4464.40495,0.04209
4466.33341,0.04543
4468.26188,0.04269
4470.19035,0.03525
4472.11882,0.02854
4474.04729,0.03254
4475.97576,0.03996
4477.90423,0.03796
4479.83270,0.03066
4481.76116,0.02636
4483.68963,0.02425
4485.61810,0.01976
4487.54657,0.01218
4489.47504,0.01155
4491.40351,0.02476
4493.33198,0.03605
4495.26044,0.03490
4497.18891,0.03170
4499.11738,0.02935
4501.04585,0.02321
4502.97432,0.02054
4504.90279,0.02425
4506.83126,0.02334
4508.75973,0.01981
4510.68819,0.02406
4512.61666,0.03348
4514.54513,0.03858
4516.47360,0.03736
4518.40207,0.03470
4520.33054,0.03141
4522.25901,0.02993
4524.18747,0.03035
4526.11594,0.02934
4528.04441,0.02996
4529.97288,0.02912
4531.90135,0.02126
4533.82982,0.01461
4535.75829,0.01617
4537.68676,0.01871
4539.61522,0.01739
4541.54369,0.01442
4543.47216,0.01446
4545.40063,0.01989
4547.32910,0.02206
4549.25757,0.01986
4551.18604,0.02106
4553.11450,0.02556
4555.04297,0.02909
4556.97144,0.02658
4558.89991,0.02193
4560.82838,0.02119
4562.75685,0.02036
4564.68532,0.01896
4566.61378,0.02068
4568.54225,0.02407
4570.47072,0.02049
4572.39919,0.00761
4574.32766,0.00254
4576.25613,0.01250
4578.18460,0.01868
4580.11307,0.01280
4582.04153,0.00867
4583.97000,0.01049
4585.89847,0.01394
4587.82694,0.01861
4589.75541,0.01858
4591.68388,0.01418
4593.61235,0.01337
4595.54081,0.01464
4597.46928,0.01840
4599.39775,0.02603
4601.32622,0.02879
4603.25469,0.02755
4605.18316,0.03041
4607.11163,0.03132
4609.04010,0.02479
4610.96856,0.01917
4612.89703,0.02085
4614.82550,0.01942
4616.75397,0.00873
4618.68244,0.00623
4620.61091,0.01636
4622.53938,0.02348
4624.46784,0.02523
4626.39631,0.02432
4628.32478,0.02243
4630.25325,0.02557
4632.18172,0.02947
4634.11019,0.02550
4636.03866,0.01842
4637.96713,0.01203
4639.89559,0.00602
4641.82406,0.01076
4643.75253,0.02419
4645.68100,0.02436
4647.60947,0.01155
4649.53794,0.00677
4651.46641,0.01379
4653.39487,0.02118
4655.32334,0.02432
4657.25181,0.02688
4659.18028,0.02615
4661.10875,0.01845
4663.03722,0.01046
4664.96569,0.00609
4666.89416,0.00367
4668.82262,0.00126
4670.75109,0.00007
4672.67956,0.00245
4674.60803,0.00359
4676.53650,0.00159
4678.46497,0.00189
4680.39344,0.00220
4682.32190,-0.00067
4684.25037,-0.00109
4686.17884,-0.00003
4688.10731,-0.00305
4690.03578,-0.00526
4691.96425,-0.00234
4693.89272,0.00166
4695.82119,0.00020
4697.74965,-0.00867
4699.67812,-0.01128
4701.60659,0.00424
4703.53506,0.02326
4705.46353,0.02397
4707.39200,0.01295
4709.32047,0.00901
4711.24893,0.01077
4713.17740,0.01317
4715.10587,0.01556
4717.03434,0.01649
4718.96281,0.01977
4720.89128,0.02268
4722.81975,0.02163
4724.74821,0.02038
4726.67668,0.02235
4728.60515,0.02476
4730.53362,0.01802
4732.46209,0.00782
4734.39056,0.00665
4736.31903,0.00608
4738.24750,0.00039
4740.17596,-0.00080
4742.10443,0.00588
4744.03290,0.01285
4745.96137,0.01389
4747.88984,0.01037
4749.81831,0.00471
4751.74678,0.00077
4753.67524,0.00456
4755.60371,0.01229
4757.53218,0.00996
4759.46065,-0.00422
4761.38912,-0.01174
4763.31759,-0.00072
4765.24606,0.01374
4767.17453,0.01672
4769.10299,0.01986
4771.03146,0.02826
4772.95993,0.02836
4774.88840,0.01981
4776.81687,0.01030
4778.74534,0.00587
4780.67381,0.00799
4782.60227,0.01198
4784.53074,0.01537
4786.45921,0.01723
4788.38768,0.01782
4790.31615,0.01605
4792.24462,0.01206
4794.17309,0.00850
4796.10156,0.01112
4798.03002,0.01711
4799.95849,0.01483
4801.88696,0.00471
4803.81543,0.00006
4805.74390,0.00949
4807.67237,0.01751
4809.60084,0.00916
4811.52930,-0.00176
4813.45777,-0.00070
4815.38624,0.00844
4817.31471,0.01885
4819.24318,0.02369
4821.17165,0.01633
4823.10012,0.00278
4825.02859,-0.00708
4826.95705,-0.01083
4828.88552,-0.00905
4830.81399,-0.00051
4832.74246,0.01148
4834.67093,0.01687
4836.59940,0.01438
4838.52787,0.01215
4840.45633,0.01214
4842.38480,0.00890
4844.31327,0.00796
4846.24174,0.01651
4848.17021,0.02128
4850.09868,0.01570
4852.02715,0.00880
4853.95562,0.00639
4855.88408,0.00713
4857.81255,0.00766
4859.74102,0.01461
4861.66949,0.02678
4863.59796,0.02265
4865.52643,0.00286
4867.45490,-0.01136
4869.38336,-0.01208
4871.31183,-0.00219
4873.24030,0.00837
4875.16877,0.00709
4877.09724,-0.00048
4879.02571,0.00170
4880.95418,0.00441
4882.88265,-0.00545
4884.81111,-0.01348
4886.73958,-0.01236
4888.66805,-0.01011
4890.59652,-0.00715
4892.52499,0.00088
4894.45346,0.01137
4896.38193,0.02027
4898.31039,0.01942
4900.23886,0.00465
4902.16733,-0.00362
4904.09580,0.00426
4906.02427,0.00655
4907.95274,-0.00538
4909.88121,-0.01678
4911.80967,-0.01631
4913.73814,-0.00264
4915.66661,0.01188
4917.59508,0.01643
4919.52355,0.01617
4921.45202,0.01713
4923.38049,0.02021
4925.30896,0.01953
4927.23742,0.01910
4929.16589,0.02243
4931.09436,0.01204
4933.02283,-0.01075
4934.95130,-0.02307
4936.87977,-0.01784
4938.80824,-0.00432
4940.73670,0.00545
4942.66517,0.01011
4944.59364,0.00920
4946.52211,-0.00134
4948.45058,-0.00728
4950.37905,0.00015
4952.30752,0.00961
4954.23599,0.01840
4956.16445,0.02354
4958.09292,0.02133
4960.02139,0.02074
4961.94986,0.02258
4963.87833,0.01705
4965.80680,0.01153
4967.73527,0.01540
4969.66373,0.01598
4971.59220,0.00705
4973.52067,-0.00006
4975.44914,0.00085
4977.37761,0.00583
4979.30608,0.00943
4981.23455,0.00810
4983.16302,0.01016
4985.09148,0.01799
4987.01995,0.02088
4988.94842,0.01985
4990.87689,0.01437
4992.80536,0.00540
4994.73383,0.00184
4996.66230,0.00276
4998.59076,0.00972
5000.51923,0.02215
5002.44770,0.02791
5004.37617,0.02869
5006.30464,0.03901
5008.23311,0.04907
5010.16158,0.03548
5012.09005,0.01102
5014.01851,0.00512
5015.94698,0.00093
5017.87545,-0.01730
5019.80392,-0.02435
5021.73239,-0.01639
5023.66086,-0.00658
5025.58933,0.00227
5027.51779,0.00958
5029.44626,0.01929
5031.37473,0.02531
5033.30320,0.01957
5035.23167,0.00901
5037.16014,0.00029
5039.08861,-0.00440
5041.01708,0.00011
5042.94554,0.01303
5044.87401,0.02099
5046.80248,0.01945
5048.73095,0.02291
5050.65942,0.03150
5052.58789,0.03449
5054.51636,0.03041
5056.44482,0.01696
5058.37329,0.00423
5060.30176,0.00363
5062.23023,0.00896
5064.15870,0.01809
5066.08717,0.03110
5068.01564,0.03839
5069.94410,0.02900
5071.87257,0.00975
5073.80104,0.00787
5075.72951,0.02420
5077.65798,0.03286
5079.58645,0.03735
5081.51492,0.04687
5083.44339,0.04836
5085.37185,0.04011
5087.30032,0.03437
5089.22879,0.03851
5091.15726,0.04211
5093.08573,0.03398
5095.01420,0.02791
5096.94267,0.03373
5098.87113,0.04555
5100.79960,0.05481
5102.72807,0.04714
5104.65654,0.02836
5106.58501,0.01996
5108.51348,0.02598
5110.44195,0.03391
5112.37042,0.03252
5114.29888,0.02912
5116.22735,0.03160
5118.15582,0.03724
5120.08429,0.04088
5122.01276,0.03281
5123.94123,0.01587
5125.86970,0.00675
5127.79816,0.00823
5129.72663,0.00646
5131.65510,0.00611
5133.58357,0.02123
5135.51204,0.03385
5137.44051,0.02606
5139.36898,0.01658
5141.29745,0.01937
5143.22591,0.02440
5145.15438,0.02502
5147.08285,0.02008
5149.01132,0.01361
5150.93979,0.01041
5152.86826,0.01164
5154.79673,0.02142
5156.72519,0.03256
5158.65366,0.03603
5160.58213,0.03227
5162.51060,0.01829
5164.43907,0.00336
5166.36754,0.00380
5168.29601,0.01847
5170.22448,0.03663
5172.15294,0.04766
5174.08141,0.04658
5176.00988,0.04210
5177.93835,0.04544
5179.86682,0.04863
5181.79529,0.04122
5183.72376,0.03324
5185.65222,0.03676
5187.58069,0.04170
5189.50916,0.03396
5191.43763,0.02712
5193.36610,0.04266
5195.29457,0.06964
5197.22304,0.07479
5199.15151,0.05641
5201.07997,0.04420
5203.00844,0.03906
5204.93691,0.03034
5206.86538,0.02655
5208.79385,0.02897
5210.72232,0.03600
5212.65079,0.05172
5214.57925,0.06160
5216.50772,0.05986
5218.43619,0.06367
5220.36466,0.06896
5222.29313,0.05625
5224.22160,0.03277
5226.15007,0.01936
5228.07854,0.01522
5230.00700,0.01743
5231.93547,0.03034
5233.86394,0.03786
5235.79241,0.03703
5237.72088,0.03993
5239.64935,0.04743
5241.57782,0.05785
5243.50628,0.06416
5245.43475,0.06096
5247.36322,0.05259
5249.29169,0.05577
5251.22016,0.07927
5253.14863,0.09652
5255.07710,0.08774
5257.00556,0.07262
5258.93403,0.07041
5260.86250,0.06932
5262.79097,0.05672
5264.71944,0.04894
5266.64791,0.06312
5268.57638,0.08084
5270.50485,0.08018
5272.43331,0.06141
5274.36178,0.04281
5276.29025,0.04694
5278.21872,0.06819
5280.14719,0.07748
5282.07566,0.06897
5284.00413,0.05661
5285.93259,0.04706
5287.86106,0.03824
5289.78953,0.03012
5291.71800,0.03819
5293.64647,0.06349
5295.57494,0.07566
5297.50341,0.06170
5299.43188,0.04061
5301.36034,0.03447
5303.28881,0.04469
5305.21728,0.05848
5307.14575,0.06409
5309.07422,0.05462
5311.00269,0.04860
5312.93116,0.05754
5314.85962,0.05990
5316.78809,0.05030
5318.71656,0.05131
5320.64503,0.06719
5322.57350,0.07471
5324.50197,0.05940
5326.43044,0.04552
5328.35891,0.05365
5330.28737,0.05034
5332.21584,0.02741
5334.14431,0.02800
5336.07278,0.05698
5338.00125,0.08126
5339.92972,0.08858
5341.85819,0.09348
5343.78665,0.09891
5345.71512,0.09612
5347.64359,0.08754
5349.57206,0.07674
5351.50053,0.06906
5353.42900,0.06787
5355.35747,0.05739
5357.28594,0.04411
5359.21440,0.04935
5361.14287,0.05382
5363.07134,0.04890
5364.99981,0.05741
5366.92828,0.06251
5368.85675,0.05016
5370.78522,0.04769
5372.71368,0.07383
5374.64215,0.11051
5376.57062,0.12518
5378.49909,0.11282
5380.42756,0.08586
5382.35603,0.06872
5384.28450,0.08142
5386.21297,0.08910
5388.14143,0.07385
5390.06990,0.06922
5391.99837,0.07433
5393.92684,0.07291
5395.85531,0.07305
5397.78378,0.08199
5399.71225,0.08731
5401.64071,0.08392
5403.56918,0.08103
5405.49765,0.08911
5407.42612,0.11174
5409.35459,0.13402
5411.28306,0.13671
5413.21153,0.12489
5415.13999,0.11473
5417.06846,0.10438
5418.99693,0.08543
5420.92540,0.06249
5422.85387,0.05515
5424.78234,0.06417
5426.71081,0.06436
5428.63928,0.05340
5430.56774,0.05347
5432.49621,0.06807
5434.42468,0.08564
5436.35315,0.08957
5438.28162,0.08233
5440.21009,0.08120
5442.13856,0.08573
5444.06702,0.08903
5445.99549,0.09528
5447.92396,0.10018
5449.85243,0.09528
5451.78090,0.09235
5453.70937,0.10792
5455.63784,0.13295
5457.56631,0.14472
5459.49477,0.13756
5461.42324,0.11404
5463.35171,0.08569
5465.28018,0.08158
5467.20865,0.10092
5469.13712,0.10272
5471.06559,0.08026
5472.99405,0.06293
5474.92252,0.06333
5476.85099,0.07130
5478.77946,0.07248
5480.70793,0.07528
5482.63640,0.07126
5484.56487,0.06878
5486.49334,0.09856
5488.42180,0.12330
5490.35027,0.10777
5492.27874,0.09266
5494.20721,0.10477
5496.13568,0.12277
5498.06415,0.12749
5499.99262,0.11724
5501.92108,0.10419
5503.84955,0.09385
5505.77802,0.08508
5507.70649,0.08232
5509.63496,0.08356
5511.56343,0.07911
5513.49190,0.07267
5515.42037,0.06700
5517.34883,0.04688
5519.27730,0.02563
5521.20577,0.03599
5523.13424,0.06544
5525.06271,0.07333
5526.99118,0.06682
5528.91965,0.08391
5530.84811,0.11849
5532.77658,0.14286
5534.70505,0.15216
5536.63352,0.15302
5538.56199,0.14571
5540.49046,0.12447
5542.41893,0.09257
5544.34740,0.06394
5546.27586,0.05474
5548.20433,0.06252
5550.13280,0.07362
5552.06127,0.08734
5553.98974,0.09787
5555.91821,0.08906
5557.84668,0.06710
5559.77514,0.06314
5561.70361,0.07402
5563.63208,0.07429
5565.56055,0.07052
5567.48902,0.07598
5569.41749,0.09169
5571.34596,0.10585
5573.27443,0.09866
5575.20289,0.08206
5577.13136,0.06784
5579.05983,0.05901
5580.98830,0.07652
5582.91677,0.10506
5584.84524,0.11774
5586.77371,0.10746
5588.70217,0.08580
5590.63064,0.08105
5592.55911,0.07710
5594.48758,0.07076
5596.41605,0.08415
5598.34452,0.09187
5600.27299,0.08151
5602.20145,0.07854
5604.12992,0.08060
5606.05839,0.07619
5607.98686,0.07748
5609.91533,0.08932
5611.84380,0.10069
5613.77227,0.10615
5615.70074,0.10886
5617.62920,0.11444
5619.55767,0.12593
5621.48614,0.13532
5623.41461,0.13284
5625.34308,0.12656
5627.27155,0.12330
5629.20002,0.10848
5631.12848,0.08722
5633.05695,0.08173
5634.98542,0.08786
5636.91389,0.09644
5638.84236,0.10620
5640.77083,0.10531
5642.69930,0.09409
5644.62777,0.08069
5646.55623,0.06854
5648.48470,0.06464
5650.41317,0.05356
5652.34164,0.03642
5654.27011,0.05117
5656.19858,0.07134
5658.12705,0.05733
5660.05551,0.04498
5661.98398,0.05775
5663.91245,0.07290
5665.84092,0.08272
5667.76939,0.08746
5669.69786,0.08567
5671.62633,0.08671
5673.55480,0.08083
5675.48326,0.06920
5677.41173,0.07185
5679.34020,0.06151
5681.26867,0.02964
5683.19714,0.01416
5685.12561,0.04064
5687.05408,0.10061
5688.98254,0.13108
5690.91101,0.09890
5692.83948,0.06551
5694.76795,0.07390
5696.69642,0.09126
5698.62489,0.08496
5700.55336,0.06976
5702.48183,0.06736
5704.41029,0.08263
5706.33876,0.09964
5708.26723,0.09822
5710.19570,0.09008
5712.12417,0.08700
5714.05264,0.07834
5715.98111,0.07051
5717.90957,0.07037
5719.83804,0.07286
5721.76651,0.07861
5723.69498,0.07922
5725.62345,0.07097
5727.55192,0.07178
5729.48039,0.09331
5731.40886,0.11172
5733.33732,0.09492
5735.26579,0.05525
5737.19426,0.04566
5739.12273,0.06775
5741.05120,0.07348
5742.97967,0.06403
5744.90814,0.07110
5746.83660,0.09927
5748.76507,0.12890
5750.69354,0.12880
5752.62201,0.12078
5754.55048,0.13334
5756.47895,0.12547
5758.40742,0.10338
5760.33588,0.10860
5762.26435,0.13563
5764.19282,0.15541
5766.12129,0.14740
5768.04976,0.11591
5769.97823,0.07556
5771.90670,0.03868
5773.83517,0.03157
5775.76363,0.06986
5777.69210,0.09647
5779.62057,0.07216
5781.54904,0.06445
5783.47751,0.09684
5785.40598,0.09728
5787.33445,0.05510
5789.26291,0.03899
5791.19138,0.04834
5793.11985,0.05470
5795.04832,0.05939
5796.97679,0.06184
5798.90526,0.07788
5800.83373,0.09549
5802.76220,0.09585
5804.69066,0.10164
5806.61913,0.12093
5808.54760,0.12336
5810.47607,0.10654
5812.40454,0.10431
5814.33301,0.10711
5816.26148,0.08260
5818.18994,0.05700
5820.11841,0.07598
5822.04688,0.12736
5823.97535,0.17513
5825.90382,0.19322
5827.83229,0.14115
5829.76076,0.03768
5831.68923,-0.02212
5833.61769,-0.00798
5835.54616,0.03601
5837.47463,0.06744
5839.40310,0.06885
5841.33157,0.06642
5843.26004,0.08087
5845.18851,0.08848
5847.11697,0.09219
5849.04544,0.11400
5850.97391,0.14117
5852.90238,0.15098
5854.83085,0.13636
5856.75932,0.10073
5858.68779,0.07771
5860.61626,0.08413
5862.54472,0.06790
5864.47319,0.03634
5866.40166,0.06656
5868.33013,0.10804
5870.25860,0.08490
5872.18707,0.05099
5874.11554,0.06481
5876.04400,0.12388
5877.97247,0.17268
5879.90094,0.16265
5881.82941,0.13002
5883.75788,0.11858
5885.68635,0.12307
5887.61482,0.14900
5889.54329,0.18099
5891.47175,0.15691
5893.40022,0.09496
5895.32869,0.06727
5897.25716,0.07807
5899.18563,0.09058
5901.11410,0.08280
5903.04257,0.07954
5904.97103,0.10455
5906.89950,0.12684
5908.82797,0.11383
5910.75644,0.06326
5912.68491,0.02912
5914.61338,0.05429
5916.54185,0.08171
5918.47032,0.06547
5920.39878,0.03698
5922.32725,0.02858
5924.25572,0.04059
5926.18419,0.05956
5928.11266,0.07813
5930.04113,0.09428
5931.96960,0.09706
5933.89806,0.08646
5935.82653,0.07558
5937.75500,0.06536
5939.68347,0.06973
5941.61194,0.09469
5943.54041,0.10142
5945.46888,0.08283
5947.39734,0.08029
5949.32581,0.08796
5951.25428,0.08433
5953.18275,0.08893
5955.11122,0.09037
5957.03969,0.09691
5958.96816,0.12988
5960.89663,0.13471
5962.82509,0.08825
5964.75356,0.02694
5966.68203,-0.02213
5968.61050,-0.02787
5970.53897,0.00665
5972.46744,0.02730
5974.39591,0.03849
5976.32437,0.07429
5978.25284,0.09691
5980.18131,0.08368
5982.10978,0.06183
5984.03825,0.06528
5985.96672,0.08806
5987.89519,0.10599
5989.82366,0.12997
5991.75212,0.14371
5993.68059,0.13572
5995.60906,0.10994
5997.53753,0.05957
5999.46600,0.04247
6001.39447,0.09069
6003.32294,0.14714
6005.25140,0.16470
6007.17987,0.13339
6009.10834,0.07441
6011.03681,0.05673
6012.96528,0.10199
6014.89375,0.15106
6016.82222,0.16338
6018.75069,0.14153
6020.67915,0.11043
6022.60762,0.10531
6024.53609,0.11705
6026.46456,0.08727
6028.39303,0.02075
6030.32150,0.00616
6032.24997,0.04011
6034.17843,0.05150
6036.10690,0.02889
6038.03537,0.01022
6039.96384,0.04509
6041.89231,0.10521
6043.82078,0.12609
6045.74925,0.12096
6047.67772,0.10028
6049.60618,0.04728
6051.53465,0.00896
6053.46312,0.03747
6055.39159,0.10182
6057.32006,0.13062
6059.24853,0.11832
6061.17700,0.09608
6063.10546,0.08588
6065.03393,0.10973
6066.96240,0.14423
6068.89087,0.15162
6070.81934,0.13448
6072.74781,0.13394
6074.67628,0.16689
6076.60475,0.16957
6078.53321,0.12222
6080.46168,0.08714
6082.39015,0.05964
6084.31862,0.02233
6086.24709,0.02446
6088.17556,0.06324
6090.10403,0.11074
6092.03249,0.17351
6093.96096,0.19714
6095.88943,0.16016
6097.81790,0.13763
6099.74637,0.14539
6101.67484,0.14280
6103.60331,0.14962
6105.53177,0.18761
6107.46024,0.19306
6109.38871,0.12163
6111.31718,0.06407
6113.24565,0.08275
6115.17412,0.10604
6117.10259,0.09751
6119.03106,0.09170
6120.95952,0.08775
6122.88799,0.08081
6124.81646,0.09959
6126.74493,0.12677
6128.67340,0.11353
6130.60187,0.08221
6132.53034,0.05584
6134.45880,0.02147
6136.38727,0.00278
6138.31574,0.02094
6140.24421,0.05555
6142.17268,0.06849
6144.10115,0.05811
6146.02962,0.05995
6147.95809,0.08420
6149.88655,0.12683
6151.81502,0.16840
6153.74349,0.15475
6155.67196,0.10070
6157.60043,0.07452
6159.52890,0.06348
6161.45737,0.04666
6163.38583,0.04162
6165.31430,0.04467
6167.24277,0.07050
6169.17124,0.10758
6171.09971,0.10479
6173.02818,0.06713
6174.95665,0.03637
6176.88512,0.04135
6178.81358,0.08364
6180.74205,0.12960
6182.67052,0.14896
6184.59899,0.11484
6186.52746,0.04349
6188.45593,0.02308
6190.38440,0.07266
6192.31286,0.09896
6194.24133,0.06550
6196.16980,0.00913
6198.09827,-0.02338
6200.02674,0.01076
6201.95521,0.10007
6203.88368,0.16181
6205.81215,0.12858
6207.74061,0.05609
6209.66908,0.03598
6211.59755,0.08555
6213.52602,0.13518
6215.45449,0.11740
6217.38296,0.04718
6219.31143,-0.00960
6221.23989,-0.01322
6223.16836,0.02812
6225.09683,0.03590
6227.02530,0.00068
6228.95377,0.01379
6230.88224,0.06251
6232.81071,0.07627
6234.73918,0.07872
6236.66764,0.08648
6238.59611,0.07595
6240.52458,0.06145
6242.45305,0.08435
6244.38152,0.13424
6246.30999,0.15792
6248.23846,0.17419
6250.16692,0.18278
6252.09539,0.13407
6254.02386,0.07707
6255.95233,0.05065
6257.88080,0.01707
6259.80927,-0.02044
6261.73774,-0.01324
6263.66621,0.03094
6265.59467,0.06399
6267.52314,0.10410
6269.45161,0.16255
6271.38008,0.19383
6273.30855,0.18563
6275.23702,0.14004
6277.16549,0.08393
6279.09395,0.08747
6281.02242,0.13149
6282.95089,0.13578
6284.87936,0.09295
6286.80783,0.05102
6288.73630,0.05634
6290.66477,0.10263
6292.59323,0.11998
6294.52170,0.12689
6296.45017,0.18070
6298.37864,0.22649
6300.30711,0.20038
6302.23558,0.11459
6304.16405,0.03060
6306.09252,0.00141
6308.02098,0.04539
6309.94945,0.12436
6311.87792,0.14365
6313.80639,0.06637
6315.73486,-0.01008
6317.66333,-0.00803
6319.59180,0.02137
6321.52026,0.04369
6323.44873,0.09445
6325.37720,0.16821
6327.30567,0.21658
6329.23414,0.19100
6331.16261,0.11737
6333.09108,0.07460
6335.01955,0.09543
6336.94801,0.17309
6338.87648,0.24956
6340.80495,0.25235
6342.73342,0.20739
6344.66189,0.17105
6346.59036,0.15769
6348.51883,0.16482
6350.44729,0.15583
6352.37576,0.12846
6354.30423,0.12654
6356.23270,0.12350
6358.16117,0.06609
6360.08964,-0.00261
6362.01811,0.00852
6363.94658,0.07720
6365.87504,0.10866
6367.80351,0.09477
6369.73198,0.11179
6371.66045,0.13145
6373.58892,0.09288
6375.51739,0.07958
6377.44586,0.10838
6379.37432,0.09814
6381.30279,0.05531
6383.23126,0.05233
6385.15973,0.11029
6387.08820,0.14746
6389.01667,0.11483
6390.94514,0.06390
6392.87361,0.05739
6394.80207,0.08189
6396.73054,0.11204
6398.65901,0.11902
6400.58748,0.08559
6402.51595,0.06636
6404.44442,0.07537
6406.37289,0.09286
6408.30135,0.10873
6410.22982,0.07446
6412.15829,0.00916
6414.08676,-0.00233
6416.01523,0.05658
6417.94370,0.14096
6419.87217,0.15694
6421.80064,0.09681
6423.72910,0.07220
6425.65757,0.10291
6427.58604,0.10666
6429.51451,0.07556
6431.44298,0.06928
6433.37145,0.12481
6435.29992,0.17040
6437.22838,0.11567
6439.15685,0.03061
6441.08532,0.03605
6443.01379,0.08005
6444.94226,0.08207
6446.87073,0.08883
6448.79920,0.10091
6450.72766,0.08144
6452.65613,0.07661
6454.58460,0.10944
6456.51307,0.13262
6458.44154,0.11522
6460.37001,0.09114
6462.29848,0.10147
6464.22695,0.12172
6466.15541,0.09859
6468.08388,0.07175
6470.01235,0.06652
6471.94082,0.02983
6473.86929,0.01431
6475.79776,0.04160
6477.72623,0.03947
6479.65469,0.03577
6481.58316,0.06403
6483.51163,0.05708
6485.44010,-0.00854
6487.36857,-0.04672
6489.29704,-0.00453
6491.22551,0.02379
6493.15398,-0.01095
6495.08244,-0.02214
6497.01091,0.00349
6498.93938,0.04614
6500.86785,0.08342
6502.79632,0.07671
6504.72479,0.07652
6506.65326,0.12483
6508.58172,0.16038
6510.51019,0.16630
6512.43866,0.22236
6514.36713,0.26827
6516.29560,0.19498
6518.22407,0.08613
6520.15254,0.03035
6522.08101,-0.00393
6524.00947,-0.04989
6525.93794,-0.10287
6527.86641,-0.12087
6529.79488,-0.08130
6531.72335,0.00473
6533.65182,0.10720
6535.58029,0.16126
6537.50875,0.12750
6539.43722,0.05612
6541.36569,0.00227
6543.29416,-0.03131
6545.22263,0.00611
6547.15110,0.10177
6549.07957,0.14821
6551.00804,0.15593
6552.93650,0.18423
6554.86497,0.18072
6556.79344,0.14840
6558.72191,0.11702
6560.65038,0.08264
6562.57885,0.07932
6564.50732,0.08536
6566.43578,0.05354
6568.36425,0.04146
6570.29272,0.03187
6572.22119,-0.06002
6574.14966,-0.14397
6576.07813,-0.10435
6578.00660,0.01605
6579.93507,0.12641
6581.86353,0.15870
6583.79200,0.11316
6585.72047,0.09012
6587.64894,0.10082
6589.57741,0.07513
6591.50588,0.00955
6593.43435,-0.03398
6595.36281,-0.01292
6597.29128,0.03543
6599.21975,0.06983
6601.14822,0.08450
6603.07669,0.08137
6605.00516,0.05070
6606.93363,0.02922
6608.86210,0.02890
6610.79056,0.02109
6612.71903,0.04789
6614.64750,0.09170
6616.57597,0.09791
6618.50444,0.08125
6620.43291,0.04449
6622.36138,-0.00554
6624.28984,-0.01340
6626.21831,0.04896
6628.14678,0.11287
6630.07525,0.09945
6632.00372,0.04887
6633.93219,0.01393
6635.86066,-0.01904
6637.78912,-0.01379
6639.71759,0.05472
6641.64606,0.09910
6643.57453,0.06248
6645.50300,0.01041
6647.43147,0.01338
6649.35994,0.05172
6651.28841,0.07853
6653.21687,0.06090
6655.14534,0.01880
6657.07381,0.00973
6659.00228,0.03460
6660.93075,0.06308
6662.85922,0.05372
6664.78769,0.01792
6666.71615,0.02282
6668.64462,0.06158
6670.57309,0.08809
6672.50156,0.08400
6674.43003,0.07287
6676.35850,0.10367
6678.28697,0.13471
6680.21544,0.11225
6682.14390,0.09674
6684.07237,0.14111
6686.00084,0.21019
6687.92931,0.23404
6689.85778,0.16539
6691.78625,0.07842
6693.71472,0.04023
6695.64318,0.04844
6697.57165,0.08912
6699.50012,0.11497
6701.42859,0.11128
6703.35706,0.10984
6705.28553,0.09104
6707.21400,0.03079
6709.14247,-0.00846
6711.07093,0.02477
6712.99940,0.10782
6714.92787,0.15876
6716.85634,0.10511
6718.78481,0.03590
6720.71328,0.04026
6722.64175,0.03978
6724.57021,0.03426
6726.49868,0.09755
6728.42715,0.17198
6730.35562,0.18417
6732.28409,0.15280
6734.21256,0.10035
6736.14103,0.05786
6738.06950,0.09915
6739.99796,0.19736
6741.92643,0.22654
6743.85490,0.16929
6745.78337,0.09928
6747.71184,0.03385
6749.64031,-0.00162
6751.56878,0.01993
6753.49724,0.05146
6755.42571,0.04180
6757.35418,0.04483
6759.28265,0.09146
6761.21112,0.12006
6763.13959,0.13210
6765.06806,0.16556
6766.99653,0.18972
6768.92499,0.14625
6770.85346,0.05669
6772.78193,0.02493
6774.71040,0.03736
6776.63887,0.03614
6778.56734,0.02286
6780.49581,-0.01666
6782.42427,-0.00694
6784.35274,0.08609
6786.28121,0.10659
6788.20968,0.00631
6790.13815,-0.06804
6792.06662,-0.03388
6793.99509,0.02232
6795.92355,0.02865
6797.85202,-0.02321
6799.78049,-0.06364
6801.70896,-0.01230
6803.63743,0.04684
6805.56590,0.04651
6807.49437,0.08352
6809.42284,0.16324
6811.35130,0.20508
6813.27977,0.20344
6815.20824,0.20475
6817.13671,0.15290
6819.06518,0.00705
6820.99365,-0.14563
6822.92212,-0.13655
6824.85058,0.01276
6826.77905,0.00917
6828.70752,-0.09728
6830.63599,-0.01050
6832.56446,0.17860
6834.49293,0.23995
6836.42140,0.13583
6838.34987,0.01303
6840.27833,0.02954
6842.20680,0.14288
6844.13527,0.22088
6846.06374,0.20433
6847.99221,0.13413
6849.92068,0.09801
6851.84915,0.08595
6853.77761,0.03161
6855.70608,0.01181
6857.63455,0.08686
6859.56302,0.15651
6861.49149,0.20461
6863.41996,0.20507
6865.34843,0.12252
6867.27690,0.05273
6869.20536,0.04932
6871.13383,0.09540
6873.06230,0.16625
6874.99077,0.15527
6876.91924,0.05310
6878.84771,-0.04129
6880.77618,-0.02933
6882.70464,0.05709
6884.63311,0.09056
6886.56158,0.01225
6888.49005,-0.10520
6890.41852,-0.09462
6892.34699,0.04903
6894.27546,0.13128
6896.20393,0.08788
6898.13239,-0.00548
6900.06086,-0.01380
6901.98933,0.08669
6903.91780,0.13413
6905.84627,0.01416
6907.77474,-0.09279
6909.70321,-0.03694
6911.63167,0.09073
6913.56014,0.16459
6915.48861,0.19044
6917.41708,0.18153
6919.34555,0.09764
6921.27402,0.02586
6923.20249,0.03305
6925.13096,0.06416
6927.05942,0.10717
6928.98789,0.15999
6930.91636,0.20058
6932.84483,0.15478
6934.77330,0.08911
6936.70177,0.14664
6938.63024,0.23983
6940.55870,0.23137
6942.48717,0.17624
6944.41564,0.13327
6946.34411,0.09259
6948.27258,0.08060
6950.20105,0.07416
6952.12952,0.02967
6954.05799,0.01359
6955.98645,0.06299
6957.91492,0.07974
6959.84339,0.04821
6961.77186,0.02626
6963.70033,0.03831
6965.62880,0.02627
6967.55727,-0.08457
6969.48573,-0.18549
6971.41420,-0.14852
6973.34267,-0.05838
6975.27114,0.01055
6977.19961,0.08208
6979.12808,0.17504
6981.05655,0.21376
6982.98501,0.14780
6984.91348,0.05429
6986.84195,-0.02706
6988.77042,-0.07422
6990.69889,-0.01891
6992.62736,0.07454
6994.55583,0.10809
6996.48430,0.12183
6998.41276,0.16759
7000.34123,0.16659
7002.26970,0.08809
7004.19817,0.05661
7006.12664,0.09047
7008.05511,0.09200
7009.98358,0.05784
7011.91204,0.08297
7013.84051,0.20308
7015.76898,0.23637
7017.69745,0.14707
7019.62592,0.07162
7021.55439,-0.00704
7023.48286,-0.09210
7025.41133,-0.05797
7027.33979,0.08539
7029.26826,0.19119
7031.19673,0.19262
7033.12520,0.18947
7035.05367,0.25417
7036.98214,0.25696
7038.91061,0.10100
7040.83907,-0.06876
7042.76754,-0.08117
7044.69601,0.06222
7046.62448,0.13511
7048.55295,0.02221
7050.48142,-0.07433
7052.40989,0.00660
7054.33836,0.09198
7056.26682,-0.01030
7058.19529,-0.13072
7060.12376,-0.04668
7062.05223,0.05634
7063.98070,-0.01931
7065.90917,-0.09176
7067.83764,-0.03472
7069.76610,0.04472
7071.69457,0.08080
7073.62304,0.01257
7075.55151,-0.04143
7077.47998,0.07867
7079.40845,0.21457
7081.33692,0.13584
7083.26539,0.00418
7085.19385,0.01563
7087.12232,0.08126
7089.05079,0.08542
7090.97926,0.07385
7092.90773,0.07876
7094.83620,0.08202
7096.76467,0.11296
7098.69313,0.13938
7100.62160,0.12495
7102.55007,0.16072
7104.47854,0.21929
7106.40701,0.18334
7108.33548,0.11662
7110.26395,0.09111
7112.19242,0.06874
7114.12088,0.08264
7116.04935,0.17114
7117.97782,0.30088
7119.90629,0.32019
7121.83476,0.19533
7123.76323,0.13777
7125.69170,0.19348
7127.62016,0.18290
7129.54863,0.11879
7131.47710,0.10128
7133.40557,0.11998
7135.33404,0.15701
7137.26251,0.17742
7139.19098,0.13484
7141.11944,0.01670
7143.04791,-0.11968
7144.97638,-0.16691
7146.90485,-0.09583
7148.83332,-0.02808
7150.76179,-0.05591
7152.69026,-0.11733
7154.61873,-0.05722
7156.54719,0.05534
7158.47566,0.05350
7160.40413,-0.00584
7162.33260,0.03649
7164.26107,0.19886
7166.18954,0.30345
7168.11801,0.27506
7170.04647,0.29439
7171.97494,0.30656
7173.90341,0.12952
7175.83188,-0.05493
7177.76035,-0.06611
7179.68882,0.00470
7181.61729,0.12320
7183.54576,0.23245
7185.47422,0.24043
7187.40269,0.27511
7189.33116,0.39364
7191.25963,0.44561
7193.18810,0.30392
7195.11657,0.11335
7197.04504,0.03708
7198.97350,0.05691
7200.90197,0.06904
7202.83044,0.05836
7204.75891,0.06836
7206.68738,0.03275
7208.61585,-0.05892
7210.54432,-0.09135
7212.47279,-0.05491
7214.40125,0.05860
7216.32972,0.30345
7218.25819,0.43588
7220.18666,0.26370
7222.11513,0.11659
7224.04360,0.14086
7225.97207,0.23595
7227.90053,0.27956
7229.82900,0.29946
7231.75747,0.29520
7233.68594,0.25594
7235.61441,0.26343
7237.54288,0.35689
7239.47135,0.49092
7241.39982,0.56868
7243.32828,0.49202
7245.25675,0.28478
7247.18522,0.00767
7249.11369,-0.28170
7251.04216,-0.43883
7252.97063,-0.38760
7254.89910,-0.23377
7256.82756,-0.15198
7258.75603,-0.15765
7260.68450,-0.17373
7262.61297,-0.05377
7264.54144,0.16592
7266.46991,0.28485
7268.39838,0.30441
7270.32685,0.27659
7272.25531,0.04177
7274.18378,-0.24355
7276.11225,-0.29227
7278.04072,-0.16685
7279.96919,0.05299
7281.89766,0.19443
7283.82613,0.21706
7285.75459,0.18453
7287.68306,0.08543
7289.61153,-0.01928
7291.54000,-0.01125
7293.46847,0.07692
7295.39694,0.11447
7297.32541,0.10820
7299.25387,0.15359
7301.18234,0.21151
7303.11081,0.16021
7305.03928,0.08397
7306.96775,0.14429
7308.89622,0.19998
7310.82469,0.08314
7312.75316,0.00703
7314.68162,0.11919
7316.61009,0.29919
7318.53856,0.21691
7320.46703,-0.08545
7322.39550,-0.28295
7324.32397,-0.21090
7326.25244,0.01108
7328.18090,0.23726
7330.10937,0.28462
7332.03784,0.13335
7333.96631,-0.02525
7335.89478,-0.11172
7337.82325,-0.13588
7339.75172,-0.09711
7341.68019,-0.00722
7343.60865,0.10462
7345.53712,0.19679
7347.46559,0.18537
7349.39406,0.08529
7351.32253,0.07655
7353.25100,0.21859
7355.17947,0.35931
7357.10793,0.47476
7359.03640,0.57549
7360.96487,0.39739
7362.89334,-0.02560
7364.82181,-0.21409
7366.75028,-0.07680
7368.67875,0.03949
7370.60722,-0.05031
7372.53568,-0.25052
7374.46415,-0.38094
7376.39262,-0.18849
7378.32109,0.09397
7380.24956,0.19920
7382.17803,0.11341
7384.10650,-0.02766
7386.03496,-0.06106
7387.96343,0.04293
7389.89190,0.05875
7391.82037,-0.07495
7393.74884,-0.16088
7395.67731,-0.09507
7397.60578,0.02208
7399.53425,0.13412
7401.46271,0.23930
7403.39118,0.23828
7405.31965,0.10713
7407.24812,-0.04860
7409.17659,-0.23297
7411.10506,-0.35050
7413.03353,-0.28761
7414.96199,-0.14501
7416.89046,-0.07223
7418.81893,-0.06898
7420.74740,-0.01011
7422.67587,0.04574
7424.60434,0.11077
7426.53281,0.21579
7428.46128,0.24744
7430.38974,0.16671
7432.31821,0.10887
7434.24668,0.03930
7436.17515,-0.01078
7438.10362,0.07506
7440.03209,0.15756
7441.96056,0.12469
7443.88902,-0.01229
7445.81749,-0.16117
7447.74596,-0.15583
7449.67443,0.00628
7451.60290,0.20438
7453.53137,0.34706
7455.45984,0.34258
7457.38831,0.23584
7459.31677,0.16737
7461.24524,0.21469
7463.17371,0.29010
7465.10218,0.30037
7467.03065,0.19351
7468.95912,0.01859
7470.88759,-0.13342
7472.81605,-0.19864
7474.74452,-0.14825
7476.67299,0.03703
7478.60146,0.24782
7480.52993,0.33924
7482.45840,0.28433
7484.38687,0.11829
7486.31533,-0.01686
7488.24380,-0.00278
7490.17227,0.07402
7492.10074,0.11931
7494.02921,0.16062
7495.95768,0.11520
7497.88615,-0.11371
