399.19301,0.73223
401.12148,0.56963
403.04995,0.79365
404.97842,1.20676
406.90689,1.23533
408.83536,0.81314
410.76382,0.17024
412.69229,-0.20429
414.62076,0.07447
416.54923,0.64544
418.47770,0.87391
420.40617,1.07392
422.33464,1.23058
424.26311,0.57320
426.19157,-0.18072
428.12004,-0.28178
430.04851,-0.20558
431.97698,-0.31558
433.90545,-0.39622
435.83392,-0.24955
437.76239,0.02278
439.69085,0.25522
441.61932,0.33396
443.54779,0.32751
445.47626,0.29016
447.40473,0.16079
449.33320,0.05831
451.26167,0.08448
453.19013,0.09526
455.11860,0.01471
457.04707,-0.01339
458.97554,0.05299
460.90401,0.12525
462.83248,0.20641
464.76095,0.24963
466.68942,0.18642
468.61788,0.11549
470.54635,0.14597
472.47482,0.31385
474.40329,0.44514
476.33176,0.27109
478.26023,0.10191
480.18870,0.05041
482.11716,0.06962
484.04563,0.12734
485.97410,0.14764
487.90257,0.10215
489.83104,0.06764
491.75951,0.10429
493.68798,0.16762
495.61645,0.19527
497.54491,0.17299
499.47338,0.10064
501.40185,0.03287
503.33032,0.05264
505.25879,0.11741
507.18726,0.13340
509.11573,0.10216
511.04419,0.08126
512.97266,0.08392
514.90113,0.08641
516.82960,0.06588
518.75807,0.03832
520.68654,0.04587
522.61501,0.09106
524.54348,0.11834
526.47194,0.11409
528.40041,0.13692
530.32888,0.18162
532.25735,0.21231
534.18582,0.22240
536.11429,0.21238
538.04276,0.18588
539.97122,0.16604
541.89969,0.14800
543.82816,0.11258
545.75663,0.08797
547.68510,0.09089
549.61357,0.07931
551.54204,-0.00304
553.47051,-0.08481
555.39897,-0.05798
557.32744,0.03186
559.25591,0.11496
561.18438,0.18094
563.11285,0.20568
565.04132,0.17969
566.96979,0.13614
568.89825,0.11650
570.82672,0.12241
572.75519,0.14230
574.68366,0.16190
576.61213,0.16561
578.54060,0.16290
580.46907,0.14921
582.39754,0.12375
584.32600,0.11760
586.25447,0.12327
588.18294,0.12309
590.11141,0.13792
592.03988,0.16127
593.96835,0.16387
595.89682,0.15415
597.82528,0.15081
599.75375,0.14924
601.68222,0.13793
603.61069,0.12416
605.53916,0.12339
607.46763,0.12594
609.39610,0.11411
611.32456,0.10520
613.25303,0.11491
615.18150,0.11794
617.10997,0.11210
619.03844,0.12202
620.96691,0.13995
622.89538,0.15282
624.82385,0.15253
626.75231,0.13464
628.68078,0.12210
630.60925,0.14977
632.53772,0.19518
634.46619,0.19133
636.39466,0.15816
638.32313,0.14508
640.25159,0.14706
642.18006,0.15226
644.10853,0.14651
646.03700,0.13607
647.96547,0.14571
649.89394,0.16250
651.82241,0.15704
653.75088,0.13129
655.67934,0.11008
657.60781,0.11051
659.53628,0.11868
661.46475,0.11766
663.39322,0.11538
665.32169,0.11635
667.25016,0.11760
669.17862,0.13957
671.10709,0.16577
673.03556,0.16731
674.96403,0.15859
676.89250,0.14934
678.82097,0.13961
680.74944,0.13764
682.67791,0.13957
684.60637,0.14183
686.53484,0.14491
688.46331,0.14989
690.39178,0.16094
692.32025,0.16004
694.24872,0.14230
696.17719,0.13175
698.10565,0.13104
700.03412,0.13256
701.96259,0.13781
703.89106,0.13973
705.81953,0.13628
707.74800,0.14044
709.67647,0.16013
711.60494,0.17711
713.53340,0.17042
715.46187,0.15691
717.39034,0.15604
719.31881,0.16010
721.24728,0.16238
723.17575,0.16134
725.10422,0.15468
727.03268,0.14517
728.96115,0.14180
730.88962,0.14267
732.81809,0.13414
734.74656,0.12445
736.67503,0.13380
738.60350,0.15456
740.53197,0.16118
742.46043,0.15242
744.38890,0.14557
746.31737,0.14155
748.24584,0.13582
750.17431,0.13556
752.10278,0.14556
754.03125,0.15320
755.95971,0.15042
757.88818,0.14694
759.81665,0.14334
761.74512,0.13512
763.67359,0.12866
765.60206,0.12663
767.53053,0.12690
769.45900,0.12958
771.38746,0.13351
773.31593,0.14150
775.24440,0.14977
777.17287,0.15299
779.10134,0.15745
781.02981,0.15908
782.95828,0.15044
784.88674,0.14152
786.81521,0.13412
788.74368,0.09521
790.67215,0.04345
792.60062,0.05855
794.52909,0.12563
796.45756,0.16066
798.38602,0.15719
800.31449,0.15495
802.24296,0.16293
804.17143,0.15968
806.09990,0.14855
808.02837,0.14770
809.95684,0.15390
811.88531,0.15959
813.81377,0.15851
815.74224,0.14324
817.67071,0.12674
819.59918,0.13439
821.52765,0.15360
823.45612,0.16193
825.38459,0.16502
827.31305,0.16337
829.24152,0.15796
831.16999,0.15461
833.09846,0.15232
835.02693,0.15666
836.95540,0.16145
838.88387,0.15377
840.81234,0.14873
842.74080,0.15557
844.66927,0.15335
846.59774,0.13804
848.52621,0.13178
850.45468,0.13997
852.38315,0.15055
854.31162,0.15672
856.24008,0.15747
858.16855,0.16097
860.09702,0.16857
862.02549,0.16584
863.95396,0.15298
865.88243,0.13525
867.81090,0.10567
869.73937,0.08253
871.66783,0.09788
873.59630,0.13207
875.52477,0.14807
877.45324,0.15194
879.38171,0.15536
881.31018,0.15457
883.23865,0.15255
885.16711,0.15347
887.09558,0.15637
889.02405,0.15775
890.95252,0.15547
892.88099,0.15450
894.80946,0.15370
896.73793,0.14883
898.66640,0.14972
900.59486,0.15759
902.52333,0.15938
904.45180,0.15209
906.38027,0.13994
908.30874,0.12924
910.23721,0.12994
912.16568,0.14548
914.09414,0.16717
916.02261,0.18014
917.95108,0.18036
919.87955,0.17871
921.80802,0.18029
923.73649,0.17604
925.66496,0.16140
927.59343,0.15072
929.52189,0.15289
931.45036,0.15348
933.37883,0.14858
935.30730,0.14976
937.23577,0.14956
939.16424,0.13974
941.09271,0.13383
943.02117,0.13850
944.94964,0.14753
946.87811,0.15032
948.80658,0.14377
950.73505,0.14166
952.66352,0.14969
954.59199,0.16181
956.52045,0.16883
958.44892,0.16629
960.37739,0.16191
962.30586,0.15962
964.23433,0.15542
966.16280,0.14899
968.09127,0.14960
970.01974,0.16015
971.94820,0.16768
973.87667,0.16762
975.80514,0.16771
977.73361,0.16943
979.66208,0.16875
981.59055,0.16915
983.51902,0.17405
985.44748,0.17604
987.37595,0.17405
989.30442,0.17439
991.23289,0.17395
993.16136,0.16706
995.08983,0.15908
997.01830,0.15653
998.94677,0.15808
1000.87523,0.16215
1002.80370,0.16301
1004.73217,0.15566
1006.66064,0.14644
1008.58911,0.14376
1010.51758,0.15005
1012.44605,0.16064
1014.37451,0.16925
1016.30298,0.16943
1018.23145,0.16126
1020.15992,0.15523
1022.08839,0.15208
1024.01686,0.14665
1025.94533,0.14617
1027.87380,0.15455
1029.80226,0.16099
1031.73073,0.16005
1033.65920,0.16101
1035.58767,0.16934
1037.51614,0.17771
1039.44461,0.17980
1041.37308,0.17666
1043.30154,0.17092
1045.23001,0.16609
1047.15848,0.16148
1049.08695,0.15942
1051.01542,0.16683
1052.94389,0.17531
1054.87236,0.17062
1056.80083,0.15779
1058.72929,0.15363
1060.65776,0.16461
1062.58623,0.18002
1064.51470,0.18357
1066.44317,0.17818
1068.37164,0.17859
1070.30011,0.18175
1072.22857,0.18150
1074.15704,0.18128
1076.08551,0.18240
1078.01398,0.17876
1079.94245,0.16892
1081.87092,0.16390
1083.79939,0.16638
1085.72786,0.16923
1087.65632,0.16933
1089.58479,0.16703
1091.51326,0.16694
1093.44173,0.17428
1095.37020,0.18236
1097.29867,0.18043
1099.22714,0.17280
1101.15560,0.16581
1103.08407,0.15904
1105.01254,0.15557
1106.94101,0.15911
1108.86948,0.16589
1110.79795,0.16875
1112.72642,0.17025
1114.65489,0.17844
1116.58335,0.18861
1118.51182,0.18398
1120.44029,0.16704
1122.36876,0.16165
1124.29723,0.17225
1126.22570,0.18188
1128.15417,0.17985
1130.08263,0.17183
1132.01110,0.16947
1133.93957,0.17237
1135.86804,0.17409
1137.79651,0.17663
1139.72498,0.17899
1141.65345,0.17610
1143.58191,0.17316
1145.51038,0.17538
1147.43885,0.17815
1149.36732,0.17751
1151.29579,0.17700
1153.22426,0.17994
1155.15273,0.18382
1157.08120,0.18487
1159.00966,0.18272
1160.93813,0.18100
1162.86660,0.17857
1164.79507,0.17400
1166.72354,0.17203
1168.65201,0.17266
1170.58048,0.17222
1172.50894,0.16804
1174.43741,0.16431
1176.36588,0.16911
1178.29435,0.17761
1180.22282,0.18051
1182.15129,0.17984
1184.07976,0.18169
1186.00823,0.18297
1187.93669,0.18037
1189.86516,0.17807
1191.79363,0.17682
1193.72210,0.17605
1195.65057,0.17696
1197.57904,0.17652
1199.50751,0.17330
1201.43597,0.17169
1203.36444,0.17076
1205.29291,0.16836
1207.22138,0.16956
1209.14985,0.17319
1211.07832,0.17446
1213.00679,0.17572
1214.93526,0.17698
1216.86372,0.17476
1218.79219,0.17198
1220.72066,0.17309
1222.64913,0.17503
1224.57760,0.17399
1226.50607,0.17386
1228.43454,0.17802
1230.36300,0.18232
1232.29147,0.18315
1234.21994,0.18185
1236.14841,0.18026
1238.07688,0.17825
1240.00535,0.17637
1241.93382,0.17584
1243.86229,0.17626
1245.79075,0.17709
1247.71922,0.17776
1249.64769,0.17789
1251.57616,0.17899
1253.50463,0.18182
1255.43310,0.18353
1257.36157,0.18127
1259.29003,0.17791
1261.21850,0.17842
1263.14697,0.18075
1265.07544,0.17901
1267.00391,0.17508
1268.93238,0.17553
1270.86085,0.18168
1272.78932,0.18924
1274.71778,0.19136
1276.64625,0.18764
1278.57472,0.18485
1280.50319,0.18372
1282.43166,0.18341
1284.36013,0.18748
1286.28860,0.19104
1288.21706,0.18842
1290.14553,0.18602
1292.07400,0.18763
1294.00247,0.18969
1295.93094,0.18953
1297.85941,0.18656
1299.78788,0.18301
1301.71634,0.18097
1303.64481,0.17882
1305.57328,0.17767
1307.50175,0.18125
1309.43022,0.18563
1311.35869,0.18667
1313.28716,0.18646
1315.21563,0.18578
1317.14409,0.18680
1319.07256,0.18955
1321.00103,0.18931
1322.92950,0.18682
1324.85797,0.18524
1326.78644,0.18442
1328.71491,0.18413
1330.64337,0.18408
1332.57184,0.18412
1334.50031,0.18551
1336.42878,0.18816
1338.35725,0.19155
1340.28572,0.18884
1342.21419,0.17419
1344.14266,0.15881
1346.07112,0.15702
1347.99959,0.17136
1349.92806,0.18365
1351.85653,0.18244
1353.78500,0.18100
1355.71347,0.18468
1357.64194,0.18704
1359.57040,0.18871
1361.49887,0.19392
1363.42734,0.19686
1365.35581,0.19254
1367.28428,0.19020
1369.21275,0.19170
1371.14122,0.19302
1373.06969,0.19674
1374.99815,0.19946
1376.92662,0.19537
1378.85509,0.19302
1380.78356,0.19451
1382.71203,0.19465
1384.64050,0.19611
1386.56897,0.20039
1388.49743,0.20315
1390.42590,0.20470
1392.35437,0.20733
1394.28284,0.20847
1396.21131,0.20756
1398.13978,0.20686
1400.06825,0.20117
1401.99672,0.19254
1403.92518,0.18918
1405.85365,0.19060
1407.78212,0.19179
1409.71059,0.19176
1411.63906,0.19156
1413.56753,0.19201
1415.49600,0.19489
1417.42446,0.20216
1419.35293,0.20614
1421.28140,0.20246
1423.20987,0.20087
1425.13834,0.20074
1427.06681,0.19895
1428.99528,0.19534
1430.92375,0.19144
1432.85221,0.19141
1434.78068,0.19636
1436.70915,0.20105
1438.63762,0.19807
1440.56609,0.19389
1442.49456,0.19258
1444.42303,0.19378
1446.35149,0.19799
1448.27996,0.20197
1450.20843,0.20456
1452.13690,0.21082
1454.06537,0.22303
1455.99384,0.24156
1457.92231,0.24359
1459.85077,0.22094
1461.77924,0.20801
1463.70771,0.20743
1465.63618,0.20834
1467.56465,0.20403
1469.49312,0.20450
1471.42159,0.21843
1473.35006,0.23352
1475.27852,0.23050
1477.20699,0.22363
1479.13546,0.22004
1481.06393,0.21535
1482.99240,0.20828
1484.92087,0.20740
1486.84934,0.21678
1488.77780,0.22247
1490.70627,0.21304
1492.63474,0.20597
1494.56321,0.20881
1496.49168,0.21509
1498.42015,0.21746
1500.34862,0.21119
1502.27709,0.20010
1504.20555,0.20423
1506.13402,0.23929
1508.06249,0.25280
1509.99096,0.23083
1511.91943,0.21645
1513.84790,0.21415
1515.77637,0.22281
1517.70483,0.23003
1519.63330,0.23436
1521.56177,0.23802
1523.49024,0.23139
1525.41871,0.22666
1527.34718,0.22699
1529.27565,0.22590
1531.20412,0.22712
1533.13258,0.22815
1535.06105,0.22210
1536.98952,0.22111
1538.91799,0.23719
1540.84646,0.26081
1542.77493,0.25188
1544.70340,0.23035
1546.63186,0.21857
1548.56033,0.21576
1550.48880,0.21276
1552.41727,0.21148
1554.34574,0.21964
1556.27421,0.23925
1558.20268,0.26373
1560.13115,0.24366
1562.05961,0.21832
1563.98808,0.21293
1565.91655,0.21378
1567.84502,0.21706
1569.77349,0.21708
1571.70196,0.20853
1573.63043,0.20606
1575.55889,0.21234
1577.48736,0.20845
1579.41583,0.19724
1581.34430,0.19409
1583.27277,0.19840
1585.20124,0.20374
1587.12971,0.20453
1589.05818,0.20002
1590.98664,0.19568
1592.91511,0.19503
1594.84358,0.19549
1596.77205,0.19467
1598.70052,0.19174
1600.62899,0.18940
1602.55746,0.19125
1604.48592,0.19428
1606.41439,0.19579
1608.34286,0.19711
1610.27133,0.19727
1612.19980,0.19674
1614.12827,0.19964
1616.05674,0.20711
1617.98521,0.20987
1619.91367,0.20830
1621.84214,0.21248
1623.77061,0.21859
1625.69908,0.21744
1627.62755,0.21098
1629.55602,0.20472
1631.48449,0.20616
1633.41295,0.21911
1635.34142,0.23893
1637.26989,0.23819
1639.19836,0.22450
1641.12683,0.21828
1643.05530,0.22238
1644.98377,0.23885
1646.91223,0.25553
1648.84070,0.25035
1650.76917,0.24695
1652.69764,0.25607
1654.62611,0.24586
1656.55458,0.22257
1658.48305,0.20773
1660.41152,0.20333
1662.33998,0.20750
1664.26845,0.21501
1666.19692,0.22420
1668.12539,0.23718
1670.05386,0.24379
1671.98233,0.23614
1673.91080,0.23113
1675.83926,0.22902
1677.76773,0.22506
1679.69620,0.22547
1681.62467,0.23527
1683.55314,0.24886
1685.48161,0.23933
1687.41008,0.22518
1689.33855,0.22127
1691.26701,0.21962
1693.19548,0.22348
1695.12395,0.23881
1697.05242,0.25587
1698.98089,0.25988
1700.90936,0.24585
1702.83783,0.23018
1704.76629,0.22634
1706.69476,0.22382
1708.62323,0.21771
1710.55170,0.21507
1712.48017,0.21829
1714.40864,0.22726
1716.33711,0.23716
1718.26558,0.23010
1720.19404,0.21460
1722.12251,0.20934
1724.05098,0.20912
1725.97945,0.20531
1727.90792,0.20350
1729.83639,0.20982
1731.76486,0.21866
1733.69332,0.22113
1735.62179,0.21563
1737.55026,0.21284
1739.47873,0.21443
1741.40720,0.21662
1743.33567,0.21804
1745.26414,0.22149
1747.19261,0.22721
1749.12107,0.22885
1751.04954,0.22097
1752.97801,0.21412
1754.90648,0.21377
1756.83495,0.21219
1758.76342,0.20830
1760.69189,0.20949
1762.62035,0.21251
1764.54882,0.21157
1766.47729,0.21117
1768.40576,0.21621
1770.33423,0.22745
1772.26270,0.23262
1774.19117,0.22132
1776.11964,0.21141
1778.04810,0.20985
1779.97657,0.20946
1781.90504,0.20824
1783.83351,0.21036
1785.76198,0.21191
1787.69045,0.21179
1789.61892,0.21598
1791.54738,0.22059
1793.47585,0.21536
1795.40432,0.20830
1797.33279,0.20729
1799.26126,0.21005
1801.18973,0.21275
1803.11820,0.21182
1805.04666,0.20845
1806.97513,0.20585
1808.90360,0.20491
1810.83207,0.20405
1812.76054,0.20303
1814.68901,0.19992
1816.61748,0.18584
1818.54595,0.16869
1820.47441,0.17348
1822.40288,0.19615
1824.33135,0.21144
1826.25982,0.21489
1828.18829,0.21934
1830.11676,0.22125
1832.04523,0.21505
1833.97369,0.21049
1835.90216,0.20987
1837.83063,0.20993
1839.75910,0.21237
1841.68757,0.21892
1843.61604,0.22324
1845.54451,0.21639
1847.47298,0.20758
1849.40144,0.20574
1851.32991,0.20616
1853.25838,0.20387
1855.18685,0.20220
1857.11532,0.20497
1859.04379,0.20946
1860.97226,0.21059
1862.90072,0.20856
1864.82919,0.21015
1866.75766,0.21877
1868.68613,0.22517
1870.61460,0.21848
1872.54307,0.20857
1874.47154,0.20409
1876.40001,0.20381
1878.32847,0.20612
1880.25694,0.20875
1882.18541,0.20920
1884.11388,0.20765
1886.04235,0.20717
1887.97082,0.21051
1889.89929,0.21318
1891.82775,0.21285
1893.75622,0.21370
1895.68469,0.21386
1897.61316,0.21137
1899.54163,0.20982
1901.47010,0.20962
1903.39857,0.20822
1905.32704,0.20763
1907.25550,0.21055
1909.18397,0.21293
1911.11244,0.21083
1913.04091,0.20836
1914.96938,0.20923
1916.89785,0.21203
1918.82632,0.21312
1920.75478,0.21128
1922.68325,0.20904
1924.61172,0.20623
1926.54019,0.20295
1928.46866,0.20271
1930.39713,0.20560
1932.32560,0.20715
1934.25407,0.20584
1936.18253,0.20439
1938.11100,0.20441
1940.03947,0.20706
1941.96794,0.21157
1943.89641,0.21265
1945.82488,0.21078
1947.75335,0.21007
1949.68181,0.20874
1951.61028,0.20599
1953.53875,0.20553
1955.46722,0.20811
1957.39569,0.20926
1959.32416,0.20767
1961.25263,0.20798
1963.18110,0.21107
1965.10956,0.21213
1967.03803,0.20992
1968.96650,0.20834
1970.89497,0.20874
1972.82344,0.21099
1974.75191,0.21491
1976.68038,0.21495
1978.60884,0.20888
1980.53731,0.20315
1982.46578,0.20111
1984.39425,0.20159
1986.32272,0.20419
1988.25119,0.20642
1990.17966,0.20573
1992.10812,0.20433
1994.03659,0.20384
1995.96506,0.20362
1997.89353,0.20536
1999.82200,0.20891
2001.75047,0.21062
2003.67894,0.21041
2005.60741,0.21029
2007.53587,0.20946
2009.46434,0.20865
2011.39281,0.20829
2013.32128,0.20663
2015.24975,0.20655
2017.17822,0.20982
2019.10669,0.21198
2021.03515,0.21143
2022.96362,0.21043
2024.89209,0.20972
2026.82056,0.20828
2028.74903,0.20684
2030.67750,0.20819
2032.60597,0.21057
2034.53444,0.21105
2036.46290,0.21110
2038.39137,0.20948
2040.31984,0.20445
2042.24831,0.20072
2044.17678,0.20152
2046.10525,0.20394
2048.03372,0.20620
2049.96218,0.20837
2051.89065,0.20806
2053.81912,0.20646
2055.74759,0.20714
2057.67606,0.20722
2059.60453,0.20464
2061.53300,0.20394
2063.46147,0.20714
2065.38993,0.20998
2067.31840,0.20952
2069.24687,0.20793
2071.17534,0.20703
2073.10381,0.20683
2075.03228,0.20835
2076.96075,0.21154
2078.88921,0.21263
2080.81768,0.20966
2082.74615,0.20677
2084.67462,0.20756
2086.60309,0.20986
2088.53156,0.21093
2090.46003,0.21045
2092.38850,0.20885
2094.31696,0.20735
2096.24543,0.20734
2098.17390,0.20968
2100.10237,0.21272
2102.03084,0.21287
2103.95931,0.20976
2105.88778,0.20676
2107.81624,0.20647
2109.74471,0.20817
2111.67318,0.20920
2113.60165,0.20809
2115.53012,0.20715
2117.45859,0.20801
2119.38706,0.20828
2121.31553,0.20762
2123.24399,0.20802
2125.17246,0.20985
2127.10093,0.21222
2129.02940,0.21195
2130.95787,0.21084
2132.88634,0.21593
2134.81481,0.22227
2136.74327,0.21967
2138.67174,0.21196
2140.60021,0.20844
2142.52868,0.20902
2144.45715,0.20970
2146.38562,0.21052
2148.31409,0.21171
2150.24255,0.21188
2152.17102,0.21015
2154.09949,0.20799
2156.02796,0.20787
2157.95643,0.20905
2159.88490,0.21010
2161.81337,0.21216
2163.74184,0.21365
2165.67030,0.21133
2167.59877,0.20872
2169.52724,0.20960
2171.45571,0.21210
2173.38418,0.21296
2175.31265,0.21153
2177.24112,0.21069
2179.16958,0.21054
2181.09805,0.20881
2183.02652,0.20723
2184.95499,0.20785
2186.88346,0.20908
2188.81193,0.20918
2190.74040,0.20896
2192.66887,0.20993
2194.59733,0.21078
2196.52580,0.21000
2198.45427,0.20927
2200.38274,0.20880
2202.31121,0.20804
2204.23968,0.20721
2206.16815,0.20680
2208.09661,0.20810
2210.02508,0.20987
2211.95355,0.21094
2213.88202,0.21209
2215.81049,0.21187
2217.73896,0.20898
2219.66743,0.20600
2221.59590,0.20573
2223.52436,0.20796
2225.45283,0.21031
2227.38130,0.21092
2229.30977,0.20943
2231.23824,0.20648
2233.16671,0.20450
2235.09518,0.20440
2237.02364,0.20547
2238.95211,0.20812
2240.88058,0.21107
2242.80905,0.21268
2244.73752,0.21301
2246.66599,0.21219
2248.59446,0.21176
2250.52293,0.21141
2252.45139,0.20818
2254.37986,0.20380
2256.30833,0.20233
2258.23680,0.20408
2260.16527,0.20661
2262.09374,0.20822
2264.02221,0.20926
2265.95067,0.20939
2267.87914,0.20737
2269.80761,0.20360
2271.73608,0.20144
2273.66455,0.20272
2275.59302,0.20584
2277.52149,0.20937
2279.44996,0.21199
2281.37842,0.21311
2283.30689,0.21211
2285.23536,0.20890
2287.16383,0.20651
2289.09230,0.20600
2291.02077,0.20448
2292.94924,0.20140
2294.87770,0.19860
2296.80617,0.19710
2298.73464,0.19683
2300.66311,0.19779
2302.59158,0.20089
2304.52005,0.20507
2306.44852,0.20896
2308.37699,0.21112
2310.30545,0.20852
2312.23392,0.20345
2314.16239,0.20022
2316.09086,0.19643
2318.01933,0.19107
2319.94780,0.18822
2321.87627,0.18831
2323.80473,0.19183
2325.73320,0.19741
2327.66167,0.19864
2329.59014,0.19833
2331.51861,0.20144
2333.44708,0.20545
2335.37555,0.20400
2337.30401,0.19565
2339.23248,0.19295
2341.16095,0.20138
2343.08942,0.20417
2345.01789,0.19180
2346.94636,0.18168
2348.87483,0.18193
2350.80330,0.18516
2352.73176,0.18516
2354.66023,0.18234
2356.58870,0.17856
2358.51717,0.17575
2360.44564,0.18238
2362.37411,0.19507
2364.30258,0.21253
2366.23104,0.22375
2368.15951,0.20890
2370.08798,0.19110
2372.01645,0.18962
2373.94492,0.19087
2375.87339,0.19316
2377.80186,0.19965
2379.73033,0.20166
2381.65879,0.19872
2383.58726,0.19941
2385.51573,0.20379
2387.44420,0.20672
2389.37267,0.20823
2391.30114,0.20995
2393.22961,0.21185
2395.15807,0.21279
2397.08654,0.20996
2399.01501,0.20512
2400.94348,0.20379
2402.87195,0.20544
2404.80042,0.20606
2406.72889,0.20627
2408.65736,0.20804
2410.58582,0.21088
2412.51429,0.21346
2414.44276,0.21375
2416.37123,0.21093
2418.29970,0.20770
2420.22817,0.20697
2422.15664,0.20725
2424.08510,0.20713
2426.01357,0.20889
2427.94204,0.21276
2429.87051,0.21528
2431.79898,0.21490
2433.72745,0.21336
2435.65592,0.21144
2437.58439,0.21068
2439.51285,0.21223
2441.44132,0.21306
2443.36979,0.21260
2445.29826,0.21376
2447.22673,0.21613
2449.15520,0.21546
2451.08367,0.21071
2453.01213,0.20684
2454.94060,0.20627
2456.86907,0.20697
2458.79754,0.20824
2460.72601,0.21055
2462.65448,0.21333
2464.58295,0.21503
2466.51142,0.21428
2468.43988,0.21221
2470.36835,0.21135
2472.29682,0.21148
2474.22529,0.21140
2476.15376,0.21191
2478.08223,0.21228
2480.01070,0.21184
2481.93916,0.21260
2483.86763,0.21397
2485.79610,0.21317
2487.72457,0.21104
2489.65304,0.20891
2491.58151,0.20605
2493.50998,0.20470
2495.43844,0.20585
2497.36691,0.20861
2499.29538,0.21358
2501.22385,0.21593
2503.15232,0.21234
2505.08079,0.20897
2507.00926,0.20921
2508.93773,0.21046
2510.86619,0.21186
2512.79466,0.21245
2514.72313,0.21047
2516.65160,0.20723
2518.58007,0.20599
2520.50854,0.20943
2522.43701,0.21468
2524.36547,0.21525
2526.29394,0.21226
2528.22241,0.21283
2530.15088,0.21707
2532.07935,0.21930
2534.00782,0.21850
2535.93629,0.21623
2537.86476,0.21309
2539.79322,0.20985
2541.72169,0.20720
2543.65016,0.20666
2545.57863,0.20919
2547.50710,0.21218
2549.43557,0.21308
2551.36404,0.21384
2553.29250,0.21520
2555.22097,0.21436
2557.14944,0.21185
2559.07791,0.21194
2561.00638,0.21450
2562.93485,0.21489
2564.86332,0.21303
2566.79179,0.21181
2568.72025,0.21154
2570.64872,0.21286
2572.57719,0.21506
2574.50566,0.21434
2576.43413,0.21177
2578.36260,0.21114
2580.29107,0.21023
2582.21953,0.20804
2584.14800,0.20848
2586.07647,0.21045
2588.00494,0.21027
2589.93341,0.21039
2591.86188,0.21294
2593.79035,0.21442
2595.71882,0.21367
2597.64728,0.21350
2599.57575,0.21394
2601.50422,0.21212
2603.43269,0.20993
2605.36116,0.21020
2607.28963,0.20967
2609.21810,0.20721
2611.14656,0.20741
2613.07503,0.21199
2615.00350,0.21575
2616.93197,0.21563
2618.86044,0.21621
2620.78891,0.21867
2622.71738,0.21859
2624.64585,0.21674
2626.57431,0.21640
2628.50278,0.21593
2630.43125,0.21481
2632.35972,0.21553
2634.28819,0.21760
2636.21666,0.21862
2638.14513,0.21774
2640.07359,0.21661
2642.00206,0.21684
2643.93053,0.21687
2645.85900,0.21533
2647.78747,0.21446
2649.71594,0.21664
2651.64441,0.22000
2653.57288,0.22148
2655.50134,0.22148
2657.42981,0.22143
2659.35828,0.22088
2661.28675,0.21943
2663.21522,0.21852
2665.14369,0.21877
2667.07216,0.21894
2669.00062,0.21916
2670.92909,0.21912
2672.85756,0.21807
2674.78603,0.21735
2676.71450,0.21658
2678.64297,0.21470
2680.57144,0.21341
2682.49990,0.21338
2684.42837,0.21490
2686.35684,0.21759
2688.28531,0.21796
2690.21378,0.21572
2692.14225,0.21460
2694.07072,0.21551
2695.99919,0.21757
2697.92765,0.22002
2699.85612,0.22081
2701.78459,0.21921
2703.71306,0.21688
2705.64153,0.21629
2707.57000,0.21843
2709.49847,0.22102
2711.42693,0.22147
2713.35540,0.21880
2715.28387,0.21640
2717.21234,0.21850
2719.14081,0.22140
2721.06928,0.22126
2722.99775,0.22064
2724.92622,0.22172
2726.85468,0.22406
2728.78315,0.22521
2730.71162,0.22423
2732.64009,0.22346
2734.56856,0.22403
2736.49703,0.22596
2738.42550,0.22761
2740.35396,0.22669
2742.28243,0.22390
2744.21090,0.22132
2746.13937,0.22105
2748.06784,0.22166
2749.99631,0.22143
2751.92478,0.22214
2753.85325,0.22219
2755.78171,0.22129
2757.71018,0.22301
2759.63865,0.22671
2761.56712,0.22997
2763.49559,0.23175
2765.42406,0.23160
2767.35253,0.22998
2769.28099,0.22852
2771.20946,0.22955
2773.13793,0.23064
2775.06640,0.22799
2776.99487,0.22587
2778.92334,0.22857
2780.85181,0.23175
2782.78028,0.23100
2784.70874,0.22901
2786.63721,0.22798
2788.56568,0.22735
2790.49415,0.22928
2792.42262,0.23385
2794.35109,0.23711
2796.27956,0.23697
2798.20802,0.23587
2800.13649,0.23567
2802.06496,0.23382
2803.99343,0.22970
2805.92190,0.22636
2807.85037,0.22650
2809.77884,0.23040
2811.70731,0.23407
2813.63577,0.23351
2815.56424,0.23038
2817.49271,0.22726
2819.42118,0.22578
2821.34965,0.22718
2823.27812,0.23045
2825.20659,0.23361
2827.13505,0.23267
2829.06352,0.22813
2830.99199,0.22601
2832.92046,0.22682
2834.84893,0.22837
2836.77740,0.23079
2838.70587,0.23414
2840.63433,0.23693
2842.56280,0.23673
2844.49127,0.23423
2846.41974,0.23224
2848.34821,0.23053
2850.27668,0.22862
2852.20515,0.22739
2854.13362,0.22561
2856.06208,0.22409
2857.99055,0.22593
2859.91902,0.22930
2861.84749,0.23032
2863.77596,0.22868
2865.70443,0.22555
2867.63290,0.22386
2869.56136,0.22504
2871.48983,0.22610
2873.41830,0.22627
2875.34677,0.22564
2877.27524,0.22364
2879.20371,0.22285
2881.13218,0.22516
2883.06065,0.22892
2884.98911,0.23044
2886.91758,0.22941
2888.84605,0.22893
2890.77452,0.22914
2892.70299,0.22954
2894.63146,0.23047
2896.55993,0.23020
2898.48839,0.22896
2900.41686,0.23026
2902.34533,0.23413
2904.27380,0.23660
2906.20227,0.23494
2908.13074,0.23071
2910.05921,0.22779
2911.98768,0.22721
2913.91614,0.22743
2915.84461,0.22797
2917.77308,0.22967
2919.70155,0.23155
2921.63002,0.23011
2923.55849,0.21786
2925.48696,0.19792
2927.41542,0.19326
2929.34389,0.20800
2931.27236,0.22161
2933.20083,0.22686
2935.12930,0.22620
2937.05777,0.22120
2938.98624,0.21955
2940.91471,0.22403
2942.84317,0.22897
2944.77164,0.22958
2946.70011,0.22619
2948.62858,0.22493
2950.55705,0.22724
2952.48552,0.22799
2954.41399,0.22452
2956.34245,0.21897
2958.27092,0.21900
2960.19939,0.22608
2962.12786,0.23281
2964.05633,0.23488
2965.98480,0.23154
2967.91327,0.22795
2969.84174,0.22964
2971.77020,0.23182
2973.69867,0.23179
2975.62714,0.23268
2977.55561,0.23356
2979.48408,0.23300
2981.41255,0.23025
2983.34102,0.22690
2985.26948,0.22848
2987.19795,0.23352
2989.12642,0.23736
2991.05489,0.23978
2992.98336,0.23909
2994.91183,0.23524
2996.84030,0.23057
2998.76877,0.22672
3000.69723,0.22736
3002.62570,0.23257
3004.55417,0.23763
3006.48264,0.23939
3008.41111,0.23906
3010.33958,0.23669
3012.26805,0.22707
3014.19651,0.21241
3016.12498,0.20461
3018.05345,0.21025
3019.98192,0.22159
3021.91039,0.22853
3023.83886,0.23398
3025.76733,0.24074
3027.69579,0.24322
3029.62426,0.24178
3031.55273,0.24151
3033.48120,0.24033
3035.40967,0.23595
3037.33814,0.23324
3039.26661,0.23483
3041.19508,0.23710
3043.12354,0.23723
3045.05201,0.23739
3046.98048,0.23950
3048.90895,0.23909
3050.83742,0.23389
3052.76589,0.23155
3054.69436,0.23538
3056.62282,0.24029
3058.55129,0.24345
3060.47976,0.24257
3062.40823,0.23746
3064.33670,0.23217
3066.26517,0.22974
3068.19364,0.23204
3070.12211,0.23612
3072.05057,0.23811
3073.97904,0.23774
3075.90751,0.23503
3077.83598,0.23417
3079.76445,0.23605
3081.69292,0.23692
3083.62139,0.23529
3085.54985,0.23027
3087.47832,0.22626
3089.40679,0.22587
3091.33526,0.22623
3093.26373,0.22418
3095.19220,0.22025
3097.12067,0.22225
3099.04914,0.23004
3100.97760,0.23537
3102.90607,0.23527
3104.83454,0.23311
3106.76301,0.23337
3108.69148,0.23508
3110.61995,0.23434
3112.54842,0.23282
3114.47688,0.23624
3116.40535,0.24145
3118.33382,0.24145
3120.26229,0.23765
3122.19076,0.23715
3124.11923,0.24243
3126.04770,0.24665
3127.97617,0.24507
3129.90463,0.23916
3131.83310,0.23509
3133.76157,0.23713
3135.69004,0.23988
3137.61851,0.24066
3139.54698,0.24240
3141.47545,0.24254
3143.40391,0.24095
3145.33238,0.24312
3147.26085,0.24524
3149.18932,0.24432
3151.11779,0.24274
3153.04626,0.23763
3154.97473,0.23404
3156.90320,0.23839
3158.83166,0.24451
3160.76013,0.24570
3162.68860,0.24159
3164.61707,0.23766
3166.54554,0.23799
3168.47401,0.23960
3170.40248,0.24190
3172.33094,0.24522
3174.25941,0.24584
3176.18788,0.24436
3178.11635,0.24584
3180.04482,0.25150
3181.97329,0.25443
3183.90176,0.24948
3185.83022,0.24313
3187.75869,0.24107
3189.68716,0.23913
3191.61563,0.23692
3193.54410,0.24049
3195.47257,0.24617
3197.40104,0.24530
3199.32951,0.23996
3201.25797,0.23722
3203.18644,0.23942
3205.11491,0.24416
3207.04338,0.24621
3208.97185,0.24122
3210.90032,0.23673
3212.82879,0.24145
3214.75725,0.24560
3216.68572,0.24256
3218.61419,0.24264
3220.54266,0.24696
3222.47113,0.24520
3224.39960,0.23905
3226.32807,0.23803
3228.25654,0.24086
3230.18500,0.24138
3232.11347,0.23885
3234.04194,0.23530
3235.97041,0.23297
3237.89888,0.23164
3239.82735,0.22927
3241.75582,0.22766
3243.68428,0.23207
3245.61275,0.24022
3247.54122,0.24378
3249.46969,0.24073
3251.39816,0.23515
3253.32663,0.23292
3255.25510,0.23347
3257.18357,0.23248
3259.11203,0.23154
3261.04050,0.23246
3262.96897,0.23418
3264.89744,0.23525
3266.82591,0.23522
3268.75438,0.23666
3270.68285,0.24039
3272.61131,0.24262
3274.53978,0.24287
3276.46825,0.24210
3278.39672,0.23875
3280.32519,0.23508
3282.25366,0.23341
3284.18213,0.23351
3286.11060,0.23441
3288.03906,0.23632
3289.96753,0.23963
3291.89600,0.23912
3293.82447,0.23384
3295.75294,0.23118
3297.68141,0.23434
3299.60988,0.24062
3301.53834,0.24486
3303.46681,0.24234
3305.39528,0.23648
3307.32375,0.23263
3309.25222,0.22930
3311.18069,0.22720
3313.10916,0.22698
3315.03763,0.22740
3316.96609,0.23139
3318.89456,0.23799
3320.82303,0.24184
3322.75150,0.24052
3324.67997,0.23674
3326.60844,0.23690
3328.53691,0.23965
3330.46537,0.23759
3332.39384,0.23166
3334.32231,0.22869
3336.25078,0.23252
3338.17925,0.23857
3340.10772,0.24232
3342.03619,0.24635
3343.96466,0.24901
3345.89312,0.24712
3347.82159,0.24413
3349.75006,0.24351
3351.67853,0.24416
3353.60700,0.24536
3355.53547,0.24602
3357.46394,0.24284
3359.39240,0.23819
3361.32087,0.23781
3363.24934,0.24208
3365.17781,0.24371
3367.10628,0.23848
3369.03475,0.23387
3370.96322,0.23587
3372.89168,0.24130
3374.82015,0.24375
3376.74862,0.24249
3378.67709,0.24106
3380.60556,0.23833
3382.53403,0.23452
3384.46250,0.23277
3386.39097,0.23304
3388.31943,0.23498
3390.24790,0.23639
3392.17637,0.23583
3394.10484,0.23769
3396.03331,0.24117
3397.96178,0.24030
3399.89025,0.23686
3401.81871,0.23601
3403.74718,0.23727
3405.67565,0.23768
3407.60412,0.23741
3409.53259,0.23696
3411.46106,0.23596
3413.38953,0.23534
3415.31800,0.23554
3417.24646,0.23768
3419.17493,0.24073
3421.10340,0.24001
3423.03187,0.23643
3424.96034,0.23387
3426.88881,0.22968
3428.81728,0.22240
3430.74574,0.21810
3432.67421,0.22000
3434.60268,0.22532
3436.53115,0.23001
3438.45962,0.23197
3440.38809,0.23372
3442.31656,0.23455
3444.24503,0.23235
3446.17349,0.23193
3448.10196,0.23550
3450.03043,0.23556
3451.95890,0.22881
3453.88737,0.22359
3455.81584,0.22324
3457.74431,0.22118
3459.67277,0.21749
3461.60124,0.21593
3463.52971,0.21541
3465.45818,0.21715
3467.38665,0.22213
3469.31512,0.22471
3471.24359,0.22249
3473.17206,0.22207
3475.10052,0.22499
3477.02899,0.22378
3478.95746,0.22047
3480.88593,0.21910
3482.81440,0.21448
3484.74287,0.21128
3486.67134,0.21367
3488.59980,0.21426
3490.52827,0.21226
3492.45674,0.21166
3494.38521,0.21146
3496.31368,0.20967
3498.24215,0.20797
3500.17062,0.20703
3502.09909,0.20443
3504.02755,0.20217
3505.95602,0.20417
3507.88449,0.20840
3509.81296,0.20914
3511.74143,0.20260
3513.66990,0.19408
3515.59837,0.19064
3517.52683,0.19038
3519.45530,0.19006
3521.38377,0.19117
3523.31224,0.19470
3525.24071,0.20009
3527.16918,0.20424
3529.09765,0.20300
3531.02611,0.19815
3532.95458,0.19561
3534.88305,0.19687
3536.81152,0.19682
3538.73999,0.19325
3540.66846,0.19275
3542.59693,0.19577
3544.52540,0.19787
3546.45386,0.20000
3548.38233,0.19999
3550.31080,0.19783
3552.23927,0.19634
3554.16774,0.19150
3556.09621,0.18454
3558.02468,0.18136
3559.95314,0.18209
3561.88161,0.18669
3563.81008,0.19593
3565.73855,0.20269
3567.66702,0.19482
3569.59549,0.18205
3571.52396,0.18031
3573.45243,0.18458
3575.38089,0.18470
3577.30936,0.18062
3579.23783,0.17860
3581.16630,0.18156
3583.09477,0.18678
3585.02324,0.19215
3586.95171,0.19504
3588.88017,0.19016
3590.80864,0.18559
3592.73711,0.18460
3594.66558,0.18167
3596.59405,0.17587
3598.52252,0.16989
3600.45099,0.16539
3602.37946,0.16381
3604.30792,0.16795
3606.23639,0.17909
3608.16486,0.18887
3610.09333,0.18822
3612.02180,0.18503
3613.95027,0.18041
3615.87874,0.17479
3617.80720,0.17823
3619.73567,0.18303
3621.66414,0.17569
3623.59261,0.16686
3625.52108,0.16652
3627.44955,0.17715
3629.37802,0.18581
3631.30649,0.18003
3633.23495,0.17352
3635.16342,0.16653
3637.09189,0.15802
3639.02036,0.15481
3640.94883,0.15764
3642.87730,0.16012
3644.80577,0.16432
3646.73423,0.17778
3648.66270,0.19695
3650.59117,0.19580
3652.51964,0.17923
3654.44811,0.16733
3656.37658,0.15920
3658.30505,0.15255
3660.23352,0.14938
3662.16198,0.14778
3664.09045,0.14768
3666.01892,0.14877
3667.94739,0.14933
3669.87586,0.15048
3671.80433,0.15552
3673.73280,0.16932
3675.66126,0.17953
3677.58973,0.16637
3679.51820,0.15442
3681.44667,0.15083
3683.37514,0.14989
3685.30361,0.15192
3687.23208,0.15879
3689.16055,0.16382
3691.08901,0.15665
3693.01748,0.15065
3694.94595,0.15137
3696.87442,0.15203
3698.80289,0.15255
3700.73136,0.15574
3702.65983,0.15786
3704.58829,0.15606
3706.51676,0.15521
3708.44523,0.16203
3710.37370,0.17396
3712.30217,0.17002
3714.23064,0.15495
3716.15911,0.14961
3718.08757,0.15318
3720.01604,0.15693
3721.94451,0.15298
3723.87298,0.14337
3725.80145,0.13999
3727.72992,0.14588
3729.65839,0.15681
3731.58686,0.16994
3733.51532,0.17654
3735.44379,0.17417
3737.37226,0.16780
3739.30073,0.15910
3741.22920,0.15637
3743.15767,0.16532
3745.08614,0.17520
3747.01460,0.17126
3748.94307,0.17115
3750.87154,0.18033
3752.80001,0.17374
3754.72848,0.15952
3756.65695,0.15312
3758.58542,0.15048
3760.51389,0.14824
3762.44235,0.14868
3764.37082,0.15006
3766.29929,0.15162
3768.22776,0.15453
3770.15623,0.15376
3772.08470,0.14655
3774.01317,0.14144
3775.94163,0.14302
3777.87010,0.14754
3779.79857,0.14581
3781.72704,0.13947
3783.65551,0.13762
3785.58398,0.13823
3787.51245,0.13754
3789.44092,0.13660
3791.36938,0.13724
3793.29785,0.13986
3795.22632,0.14492
3797.15479,0.15419
3799.08326,0.16590
3801.01173,0.17490
3802.94020,0.17036
3804.86866,0.15883
3806.79713,0.15157
3808.72560,0.14925
3810.65407,0.14711
3812.58254,0.14558
3814.51101,0.14701
3816.43948,0.14893
3818.36795,0.15441
3820.29641,0.16519
3822.22488,0.16455
3824.15335,0.15617
3826.08182,0.15355
3828.01029,0.15397
3829.93876,0.15647
3831.86723,0.15888
3833.79569,0.15360
3835.72416,0.14617
3837.65263,0.14885
3839.58110,0.15499
3841.50957,0.15240
3843.43804,0.14379
3845.36651,0.13694
3847.29498,0.13883
3849.22344,0.14908
3851.15191,0.16503
3853.08038,0.17712
3855.00885,0.16470
3856.93732,0.15326
3858.86579,0.15045
3860.79426,0.14933
3862.72272,0.15071
3864.65119,0.15039
3866.57966,0.14168
3868.50813,0.13047
3870.43660,0.12264
3872.36507,0.12095
3874.29354,0.12455
3876.22200,0.12986
3878.15047,0.13327
3880.07894,0.13530
3882.00741,0.13790
3883.93588,0.14324
3885.86435,0.14721
3887.79282,0.14899
3889.72129,0.15446
3891.64975,0.15696
3893.57822,0.14878
3895.50669,0.13936
3897.43516,0.13637
3899.36363,0.14232
3901.29210,0.15062
3903.22057,0.14826
3905.14903,0.14001
3907.07750,0.13837
3909.00597,0.13714
3910.93444,0.13143
3912.86291,0.12770
3914.79138,0.13163
3916.71985,0.13921
3918.64832,0.13968
3920.57678,0.13068
3922.50525,0.12066
3924.43372,0.11920
3926.36219,0.12487
3928.29066,0.12789
3930.21913,0.12994
3932.14760,0.13545
3934.07606,0.13696
3936.00453,0.13108
3937.93300,0.12543
3939.86147,0.12443
3941.78994,0.12632
3943.71841,0.12896
3945.64688,0.13069
3947.57535,0.13038
3949.50381,0.12894
3951.43228,0.12734
3953.36075,0.12488
3955.28922,0.12178
3957.21769,0.11953
3959.14616,0.11829
3961.07463,0.11515
3963.00309,0.11059
3964.93156,0.11171
3966.86003,0.11945
3968.78850,0.12315
3970.71697,0.11789
3972.64544,0.11394
3974.57391,0.11631
3976.50238,0.11687
3978.43084,0.11479
3980.35931,0.11631
3982.28778,0.11984
3984.21625,0.12314
3986.14472,0.12577
3988.07319,0.12448
3990.00166,0.12056
3991.93012,0.11566
3993.85859,0.11007
3995.78706,0.10851
3997.71553,0.11236
3999.64400,0.11761
4001.57247,0.12061
4003.50094,0.12065
4005.42941,0.11906
4007.35787,0.11706
4009.28634,0.11561
4011.21481,0.11511
4013.14328,0.11622
4015.07175,0.11544
4017.00022,0.10837
4018.92869,0.10147
4020.85715,0.10190
4022.78562,0.10666
4024.71409,0.11006
4026.64256,0.10870
4028.57103,0.10584
4030.49950,0.10794
4032.42797,0.11388
4034.35644,0.11652
4036.28490,0.11498
4038.21337,0.11507
4040.14184,0.11645
4042.07031,0.11425
4043.99878,0.11035
4045.92725,0.11017
4047.85572,0.11352
4049.78418,0.11492
4051.71265,0.11257
4053.64112,0.11194
4055.56959,0.11486
4057.49806,0.11487
4059.42653,0.11049
4061.35500,0.10727
4063.28346,0.10745
4065.21193,0.10872
4067.14040,0.10866
4069.06887,0.10851
4070.99734,0.10972
4072.92581,0.11021
4074.85428,0.10892
4076.78275,0.10711
4078.71121,0.10601
4080.63968,0.10567
4082.56815,0.10438
4084.49662,0.10086
4086.42509,0.09757
4088.35356,0.09752
4090.28203,0.09908
4092.21049,0.09871
4094.13896,0.09726
4096.06743,0.09942
4097.99590,0.10391
4099.92437,0.10677
4101.85284,0.10833
4103.78131,0.10619
4105.70978,0.10205
4107.63824,0.10195
4109.56671,0.10341
4111.49518,0.10240
4113.42365,0.10059
4115.35212,0.10242
4117.28059,0.10639
4119.20906,0.10548
4121.13752,0.10118
4123.06599,0.10075
4124.99446,0.10595
4126.92293,0.11113
4128.85140,0.10918
4130.77987,0.10238
4132.70834,0.09618
4134.63681,0.09201
4136.56527,0.09118
4138.49374,0.09306
4140.42221,0.09759
4142.35068,0.10151
4144.27915,0.09780
4146.20762,0.08815
4148.13609,0.08272
4150.06455,0.08752
4151.99302,0.09548
4153.92149,0.09654
4155.84996,0.09415
4157.77843,0.09854
4159.70690,0.10577
4161.63537,0.10375
4163.56384,0.09421
4165.49230,0.08556
4167.42077,0.08433
4169.34924,0.09153
4171.27771,0.09697
4173.20618,0.09403
4175.13465,0.08968
4177.06312,0.08923
4178.99158,0.08792
4180.92005,0.08623
4182.84852,0.09003
4184.77699,0.09563
4186.70546,0.09482
4188.63393,0.08917
4190.56240,0.08907
4192.49087,0.09650
4194.41933,0.10073
4196.34780,0.09692
4198.27627,0.09027
4200.20474,0.08603
4202.13321,0.08783
4204.06168,0.09219
4205.99015,0.09327
4207.91861,0.09283
4209.84708,0.09311
4211.77555,0.09375
4213.70402,0.09349
4215.63249,0.09233
4217.56096,0.08838
4219.48943,0.07879
4221.41789,0.07148
4223.34636,0.07561
4225.27483,0.08412
4227.20330,0.08507
4229.13177,0.08209
4231.06024,0.08382
4232.98871,0.08862
4234.91718,0.09180
4236.84564,0.08958
4238.77411,0.08307
4240.70258,0.07821
4242.63105,0.07631
4244.55952,0.07582
4246.48799,0.07613
4248.41646,0.07535
4250.34492,0.07453
4252.27339,0.07867
4254.20186,0.08379
4256.13033,0.08041
4258.05880,0.07043
4259.98727,0.06268
4261.91574,0.06187
4263.84421,0.06289
4265.77267,0.06142
4267.70114,0.06505
4269.62961,0.07339
4271.55808,0.07634
4273.48655,0.07481
4275.41502,0.07246
4277.34349,0.06804
4279.27195,0.06491
4281.20042,0.06733
4283.12889,0.07041
4285.05736,0.07113
4286.98583,0.07522
4288.91430,0.08119
4290.84277,0.08278
4292.77124,0.07972
4294.69970,0.07352
4296.62817,0.06826
4298.55664,0.06763
4300.48511,0.06664
4302.41358,0.06151
4304.34205,0.05752
4306.27052,0.05900
4308.19898,0.06523
4310.12745,0.06765
4312.05592,0.06159
4313.98439,0.05654
4315.91286,0.05639
4317.84133,0.05780
4319.76980,0.05919
4321.69827,0.06055
4323.62673,0.06197
4325.55520,0.06056
4327.48367,0.05691
4329.41214,0.05516
4331.34061,0.05757
4333.26908,0.06137
4335.19755,0.06091
4337.12601,0.05699
4339.05448,0.05689
4340.98295,0.06002
4342.91142,0.05783
4344.83989,0.04969
4346.76836,0.04245
4348.69683,0.04280
4350.62530,0.04690
4352.55376,0.04928
4354.48223,0.05447
4356.41070,0.05705
4358.33917,0.05267
4360.26764,0.05016
4362.19611,0.04677
4364.12458,0.03766
4366.05304,0.03399
4367.98151,0.04014
4369.90998,0.04518
4371.83845,0.04557
4373.76692,0.04498
4375.69539,0.04423
4377.62386,0.04534
4379.55232,0.04638
4381.48079,0.04590
4383.40926,0.04876
4385.33773,0.04871
4387.26620,0.04096
4389.19467,0.03851
4391.12314,0.04492
4393.05161,0.04636
4394.98007,0.03864
4396.90854,0.03203
4398.83701,0.03030
4400.76548,0.03089
4402.69395,0.03087
4404.62242,0.02893
4406.55089,0.03221
4408.47935,0.03996
4410.40782,0.04289
4412.33629,0.04135
4414.26476,0.04081
4416.19323,0.04333
4418.12170,0.04550
4420.05017,0.04424
4421.97864,0.04377
4423.90710,0.04520
4425.83557,0.04334
4427.76404,0.04172
4429.69251,0.04564
4431.62098,0.04863
4433.54945,0.04629
4435.47792,0.04057
4437.40638,0.03022
4439.33485,0.01957
4441.26332,0.02032
4443.19179,0.03169
4445.12026,0.03701
4447.04873,0.03127
4448.97720,0.02776
4450.90567,0.02971
4452.83413,0.03196
4454.76260,0.03253
4456.69107,0.03031
4458.61954,0.03117
4460.54801,0.03538
4462.47648,0.03524
4464.40495,0.03234
4466.33341,0.02918
4468.26188,0.02405
4470.19035,0.01901
4472.11882,0.01869
4474.04729,0.02488
4475.97576,0.03420
4477.90423,0.04038
4479.83270,0.04045
4481.76116,0.03888
4483.68963,0.03883
4485.61810,0.03630
4487.54657,0.03153
4489.47504,0.02688
4491.40351,0.02444
4493.33198,0.02730
4495.26044,0.02894
4497.18891,0.02386
4499.11738,0.01943
4501.04585,0.02182
4502.97432,0.02495
4504.90279,0.02619
4506.83126,0.02667
4508.75973,0.01940
4510.68819,0.01096
4512.61666,0.01532
4514.54513,0.02354
4516.47360,0.02291
4518.40207,0.01850
4520.33054,0.01553
4522.25901,0.01590
4524.18747,0.02162
4526.11594,0.02541
4528.04441,0.02355
4529.97288,0.01820
4531.90135,0.00960
4533.82982,0.00324
4535.75829,0.00404
4537.68676,0.00958
4539.61522,0.01469
4541.54369,0.01350
4543.47216,0.00395
4545.40063,0.00014
4547.32910,0.00951
4549.25757,0.01387
4551.18604,0.00896
4553.11450,0.00612
4555.04297,0.00902
4556.97144,0.01731
4558.89991,0.02026
4560.82838,0.01479
4562.75685,0.01081
4564.68532,0.00927
4566.61378,0.00865
4568.54225,0.00627
4570.47072,0.00155
4572.39919,-0.00220
4574.32766,-0.00492
4576.25613,-0.00183
4578.18460,0.00504
4580.11307,0.01031
4582.04153,0.01906
4583.97000,0.02350
4585.89847,0.01441
4587.82694,0.00889
4589.75541,0.01871
4591.68388,0.02526
4593.61235,0.01898
4595.54081,0.01878
4597.46928,0.02624
4599.39775,0.02466
4601.32622,0.02112
4603.25469,0.02387
4605.18316,0.02155
4607.11163,0.01357
4609.04010,0.00956
4610.96856,0.00948
4612.89703,0.01180
4614.82550,0.01340
4616.75397,0.00782
4618.68244,0.00182
4620.61091,0.00101
4622.53938,0.00304
4624.46784,0.00996
4626.39631,0.01442
4628.32478,0.01392
4630.25325,0.01858
4632.18172,0.02805
4634.11019,0.03173
4636.03866,0.02451
4637.96713,0.01723
4639.89559,0.01976
4641.82406,0.02375
4643.75253,0.02059
4645.68100,0.01568
4647.60947,0.01094
4649.53794,0.00580
4651.46641,0.00917
4653.39487,0.01776
4655.32334,0.01840
4657.25181,0.01111
4659.18028,0.00760
4661.10875,0.01383
4663.03722,0.01438
4664.96569,0.00067
4666.89416,-0.00825
4668.82262,-0.00249
4670.75109,0.00756
4672.67956,0.01447
4674.60803,0.01652
4676.53650,0.01292
4678.46497,0.00606
4680.39344,0.00347
4682.32190,0.01063
4684.25037,0.02241
4686.17884,0.02584
4688.10731,0.01782
4690.03578,0.01134
4691.96425,0.01103
4693.89272,0.01112
4695.82119,0.01411
4697.74965,0.01932
4699.67812,0.01740
4701.60659,0.01326
4703.53506,0.01784
4705.46353,0.02307
4707.39200,0.01705
4709.32047,0.00528
4711.24893,0.00516
4713.17740,0.01351
4715.10587,0.01316
4717.03434,0.01175
4718.96281,0.01542
4720.89128,0.01424
4722.81975,0.01275
4724.74821,0.01889
4726.67668,0.02289
4728.60515,0.01588
4730.53362,0.00603
4732.46209,0.00397
4734.39056,0.00432
4736.31903,-0.00251
4738.24750,-0.00727
4740.17596,-0.00083
4742.10443,0.01118
4744.03290,0.01880
4745.96137,0.01486
4747.88984,0.00642
4749.81831,0.00401
4751.74678,0.00651
4753.67524,0.00825
4755.60371,0.00869
4757.53218,0.01207
4759.46065,0.01610
4761.38912,0.01310
4763.31759,0.00426
4765.24606,-0.00011
4767.17453,0.00056
4769.10299,0.00188
4771.03146,0.00753
4772.95993,0.01406
4774.88840,0.01550
4776.81687,0.01705
4778.74534,0.02168
4780.67381,0.02197
4782.60227,0.01535
4784.53074,0.00799
4786.45921,-0.00000
4788.38768,-0.00593
4790.31615,-0.00175
4792.24462,0.00932
4794.17309,0.02105
4796.10156,0.02965
4798.03002,0.02598
4799.95849,0.01074
4801.88696,0.00332
4803.81543,0.01346
4805.74390,0.02257
4807.67237,0.00993
4809.60084,-0.01410
4811.52930,-0.02289
4813.45777,-0.01209
4815.38624,0.00274
4817.31471,0.00572
4819.24318,-0.00202
4821.17165,-0.00292
4823.10012,0.00625
4825.02859,0.01398
4826.95705,0.01583
4828.88552,0.01255
4830.81399,0.00607
4832.74246,0.00004
4834.67093,0.00134
4836.59940,0.01242
4838.52787,0.02452
4840.45633,0.03021
4842.38480,0.02723
4844.31327,0.01343
4846.24174,-0.00512
4848.17021,-0.01094
4850.09868,0.00170
4852.02715,0.01452
4853.95562,0.01617
4855.88408,0.01247
4857.81255,0.00679
4859.74102,0.00306
4861.66949,0.00149
4863.59796,0.00018
4865.52643,0.00742
4867.45490,0.01848
4869.38336,0.02414
4871.31183,0.02981
4873.24030,0.03002
4875.16877,0.02169
4877.09724,0.01747
4879.02571,0.01836
4880.95418,0.01832
4882.88265,0.01263
4884.81111,-0.00561
4886.73958,-0.02335
4888.66805,-0.02272
4890.59652,-0.01365
4892.52499,-0.00263
4894.45346,0.01167
4896.38193,0.01555
4898.31039,0.00839
4900.23886,0.00238
4902.16733,-0.00173
4904.09580,0.00037
4906.02427,0.00718
4907.95274,0.01007
4909.88121,0.01710
4911.80967,0.01811
4913.73814,0.00013
4915.66661,-0.01607
4917.59508,-0.01725
4919.52355,-0.00911
4921.45202,-0.00218
4923.38049,-0.00190
4925.30896,0.00406
4927.23742,0.01279
4929.16589,0.00743
4931.09436,0.00068
4933.02283,0.00826
4934.95130,0.01324
4936.87977,0.00378
4938.80824,-0.00468
4940.73670,-0.00139
4942.66517,0.00908
4944.59364,0.02278
4946.52211,0.02983
4948.45058,0.01625
4950.37905,-0.01060
4952.30752,-0.02706
4954.23599,-0.02397
4956.16445,-0.01410
4958.09292,-0.01236
4960.02139,-0.01838
4961.94986,-0.01705
4963.87833,-0.00374
4965.80680,0.01274
4967.73527,0.02928
4969.66373,0.04113
4971.59220,0.04092
4973.52067,0.02848
4975.44914,0.01534
4977.37761,0.01386
4979.30608,0.01387
4981.23455,0.01322
4983.16302,0.02270
4985.09148,0.02346
4987.01995,0.01082
4988.94842,0.00902
4990.87689,0.01744
4992.80536,0.02508
4994.73383,0.02942
4996.66230,0.02701
4998.59076,0.02763
5000.51923,0.03256
5002.44770,0.02314
5004.37617,0.00805
5006.30464,0.01188
5008.23311,0.02000
5010.16158,0.01277
5012.09005,0.00631
5014.01851,0.01030
5015.94698,0.00981
5017.87545,0.00583
5019.80392,0.00497
5021.73239,0.00172
5023.66086,0.00490
5025.58933,0.01799
5027.51779,0.02715
5029.44626,0.03305
5031.37473,0.04196
5033.30320,0.04751
5035.23167,0.03793
5037.16014,0.02039
5039.08861,0.01462
5041.01708,0.02007
5042.94554,0.02754
5044.87401,0.03369
5046.80248,0.03437
5048.73095,0.03167
5050.65942,0.02820
5052.58789,0.01613
5054.51636,-0.00204
5056.44482,-0.00548
5058.37329,0.00885
5060.30176,0.02060
5062.23023,0.02568
5064.15870,0.03460
5066.08717,0.03899
5068.01564,0.02769
5069.94410,0.00934
5071.87257,-0.00426
5073.80104,-0.00580
5075.72951,0.00408
5077.65798,0.01716
5079.58645,0.03012
5081.51492,0.03801
5083.44339,0.03557
5085.37185,0.03592
5087.30032,0.04561
5089.22879,0.04458
5091.15726,0.02587
5093.08573,0.00575
5095.01420,0.00320
5096.94267,0.02109
5098.87113,0.02611
5100.79960,0.01020
5102.72807,0.00889
5104.65654,0.01785
5106.58501,0.02236
5108.51348,0.03294
5110.44195,0.04040
5112.37042,0.03380
5114.29888,0.02632
5116.22735,0.02855
5118.15582,0.03298
5120.08429,0.03868
5122.01276,0.04706
5123.94123,0.04035
5125.86970,0.02397
5127.79816,0.03180
5129.72663,0.05486
5131.65510,0.05777
5133.58357,0.05207
5135.51204,0.05199
5137.44051,0.04023
5139.36898,0.02105
5141.29745,0.01156
5143.22591,0.01882
5145.15438,0.03456
5147.08285,0.03535
5149.01132,0.02571
5150.93979,0.02153
5152.86826,0.01628
5154.79673,0.01133
5156.72519,0.01260
5158.65366,0.02074
5160.58213,0.03571
5162.51060,0.04095
5164.43907,0.02952
5166.36754,0.02018
5168.29601,0.02263
5170.22448,0.03056
5172.15294,0.03314
5174.08141,0.02606
5176.00988,0.01694
5177.93835,0.01466
5179.86682,0.02072
5181.79529,0.03023
5183.72376,0.03572
5185.65222,0.04004
5187.58069,0.04717
5189.50916,0.05109
5191.43763,0.05483
5193.36610,0.05532
5195.29457,0.03606
5197.22304,0.01178
5199.15151,0.01220
5201.07997,0.02351
5203.00844,0.03164
5204.93691,0.04923
5206.86538,0.06313
5208.79385,0.04347
5210.72232,0.01169
5212.65079,0.00219
5214.57925,0.01481
5216.50772,0.03193
5218.43619,0.03937
5220.36466,0.03892
5222.29313,0.04066
5224.22160,0.03893
5226.15007,0.03248
5228.07854,0.03458
5230.00700,0.04008
5231.93547,0.04339
5233.86394,0.05410
5235.79241,0.06393
5237.72088,0.06373
5239.64935,0.06016
5241.57782,0.05790
5243.50628,0.06565
5245.43475,0.07866
5247.36322,0.06986
5249.29169,0.03812
5251.22016,0.02475
5253.14863,0.04498
5255.07710,0.06149
5257.00556,0.04742
5258.93403,0.03271
5260.86250,0.04249
5262.79097,0.05247
5264.71944,0.04737
5266.64791,0.04655
5268.57638,0.05262
5270.50485,0.04983
5272.43331,0.03807
5274.36178,0.03995
5276.29025,0.05472
5278.21872,0.05860
5280.14719,0.04547
5282.07566,0.02944
5284.00413,0.03041
5285.93259,0.05092
5287.86106,0.06795
5289.78953,0.05705
5291.71800,0.02776
5293.64647,0.01682
5295.57494,0.02012
5297.50341,0.02512
5299.43188,0.03704
5301.36034,0.04360
5303.28881,0.04440
5305.21728,0.05310
5307.14575,0.06748
5309.07422,0.07969
5311.00269,0.06895
5312.93116,0.04245
5314.85962,0.03454
5316.78809,0.04448
5318.71656,0.05444
5320.64503,0.05614
5322.57350,0.05001
5324.50197,0.04957
5326.43044,0.05435
5328.35891,0.05134
5330.28737,0.04927
5332.21584,0.05939
5334.14431,0.06985
5336.07278,0.07070
5338.00125,0.06111
5339.92972,0.03889
5341.85819,0.02711
5343.78665,0.04829
5345.71512,0.07685
5347.64359,0.08582
5349.57206,0.09846
5351.50053,0.11522
5353.42900,0.09732
5355.35747,0.06018
5357.28594,0.06985
5359.21440,0.10006
5361.14287,0.08819
5363.07134,0.04900
5364.99981,0.02576
5366.92828,0.02718
5368.85675,0.05153
5370.78522,0.08816
5372.71368,0.10890
5374.64215,0.09532
5376.57062,0.07030
5378.49909,0.06976
5380.42756,0.08913
5382.35603,0.10779
5384.28450,0.10656
5386.21297,0.08655
5388.14143,0.08273
5390.06990,0.09435
5391.99837,0.07842
5393.92684,0.04178
5395.85531,0.04279
5397.78378,0.07582
5399.71225,0.09704
5401.64071,0.08776
5403.56918,0.07434
5405.49765,0.08302
5407.42612,0.09289
5409.35459,0.10142
5411.28306,0.11487
5413.21153,0.11263
5415.13999,0.09803
5417.06846,0.09138
5418.99693,0.09142
5420.92540,0.07976
5422.85387,0.05289
5424.78234,0.03265
5426.71081,0.03707
5428.63928,0.06441
5430.56774,0.08267
5432.49621,0.07771
5434.42468,0.06834
5436.35315,0.05993
5438.28162,0.05868
5440.21009,0.08049
5442.13856,0.10358
5444.06702,0.09699
5445.99549,0.07944
5447.92396,0.06453
5449.85243,0.04575
5451.78090,0.03828
5453.70937,0.04334
5455.63784,0.04580
5457.56631,0.04937
5459.49477,0.06156
5461.42324,0.07198
5463.35171,0.06194
5465.28018,0.03404
5467.20865,0.02192
5469.13712,0.04540
5471.06559,0.07994
5472.99405,0.09659
5474.92252,0.09659
5476.85099,0.09173
5478.77946,0.08432
5480.70793,0.08191
5482.63640,0.08603
5484.56487,0.08233
5486.49334,0.07464
5488.42180,0.07557
5490.35027,0.08707
5492.27874,0.10216
5494.20721,0.10812
5496.13568,0.09748
5498.06415,0.06528
5499.99262,0.02663
5501.92108,0.00738
5503.84955,0.01014
5505.77802,0.03618
5507.70649,0.08571
5509.63496,0.12165
5511.56343,0.11750
5513.49190,0.10545
5515.42037,0.10220
5517.34883,0.09145
5519.27730,0.06925
5521.20577,0.03798
5523.13424,0.02678
5525.06271,0.04821
5526.99118,0.07132
5528.91965,0.07950
5530.84811,0.07337
5532.77658,0.07386
5534.70505,0.08444
5536.63352,0.07751
5538.56199,0.06105
5540.49046,0.06309
5542.41893,0.08156
5544.34740,0.08999
5546.27586,0.07804
5548.20433,0.07334
5550.13280,0.08446
5552.06127,0.08365
5553.98974,0.06409
5555.91821,0.04950
5557.84668,0.05368
5559.77514,0.07025
5561.70361,0.09006
5563.63208,0.10139
5565.56055,0.10560
5567.48902,0.10410
5569.41749,0.08705
5571.34596,0.06109
5573.27443,0.04234
5575.20289,0.04863
5577.13136,0.07467
5579.05983,0.08870
5580.98830,0.07391
5582.91677,0.05791
5584.84524,0.07183
5586.77371,0.09082
5588.70217,0.09457
5590.63064,0.10204
5592.55911,0.10644
5594.48758,0.09455
5596.41605,0.09132
5598.34452,0.11386
5600.27299,0.13856
5602.20145,0.14325
5604.12992,0.13671
5606.05839,0.11825
5607.98686,0.08225
5609.91533,0.06131
5611.84380,0.07092
5613.77227,0.07327
5615.70074,0.05446
5617.62920,0.04679
5619.55767,0.05989
5621.48614,0.06801
5623.41461,0.06530
5625.34308,0.06185
5627.27155,0.05778
5629.20002,0.04522
5631.12848,0.03115
5633.05695,0.04390
5634.98542,0.07884
5636.91389,0.10225
5638.84236,0.10428
5640.77083,0.08941
5642.69930,0.06753
5644.62777,0.05974
5646.55623,0.08273
5648.48470,0.12208
5650.41317,0.14615
5652.34164,0.13659
5654.27011,0.10411
5656.19858,0.08775
5658.12705,0.10610
5660.05551,0.13786
5661.98398,0.14165
5663.91245,0.10684
5665.84092,0.08411
5667.76939,0.09042
5669.69786,0.08906
5671.62633,0.08132
5673.55480,0.08924
5675.48326,0.09774
5677.41173,0.10020
5679.34020,0.10554
5681.26867,0.09518
5683.19714,0.08342
5685.12561,0.10176
5687.05408,0.11989
5688.98254,0.10488
5690.91101,0.09004
5692.83948,0.09605
5694.76795,0.09429
5696.69642,0.10183
5698.62489,0.13200
5700.55336,0.12941
5702.48183,0.08044
5704.41029,0.03145
5706.33876,0.01325
5708.26723,0.01866
5710.19570,0.03381
5712.12417,0.05675
5714.05264,0.06862
5715.98111,0.05733
5717.90957,0.06862
5719.83804,0.11369
5721.76651,0.13135
5723.69498,0.11371
5725.62345,0.09564
5727.55192,0.07946
5729.48039,0.05987
5731.40886,0.05866
5733.33732,0.08071
5735.26579,0.09435
5737.19426,0.09848
5739.12273,0.10330
5741.05120,0.08218
5742.97967,0.04949
5744.90814,0.05192
5746.83660,0.07629
5748.76507,0.06824
5750.69354,0.03834
5752.62201,0.05008
5754.55048,0.07992
5756.47895,0.06171
5758.40742,0.02655
5760.33588,0.04706
5762.26435,0.10615
5764.19282,0.12323
5766.12129,0.10405
5768.04976,0.10048
5769.97823,0.09497
5771.90670,0.07404
5773.83517,0.06834
5775.76363,0.08387
5777.69210,0.11147
5779.62057,0.13858
5781.54904,0.14316
5783.47751,0.12593
5785.40598,0.10156
5787.33445,0.09083
5789.26291,0.08986
5791.19138,0.07255
5793.11985,0.04209
5795.04832,0.01303
5796.97679,0.01789
5798.90526,0.06291
5800.83373,0.09719
5802.76220,0.08760
5804.69066,0.05026
5806.61913,0.04151
5808.54760,0.08971
5810.47607,0.15585
5812.40454,0.17992
5814.33301,0.14791
5816.26148,0.10980
5818.18994,0.10220
5820.11841,0.10818
5822.04688,0.10729
5823.97535,0.10860
5825.90382,0.12876
5827.83229,0.15420
5829.76076,0.14820
5831.68923,0.12011
5833.61769,0.09575
5835.54616,0.08105
5837.47463,0.09715
5839.40310,0.13799
5841.33157,0.14607
5843.26004,0.09757
5845.18851,0.04671
5847.11697,0.04218
5849.04544,0.06902
5850.97391,0.08994
5852.90238,0.10238
5854.83085,0.10469
5856.75932,0.10500
5858.68779,0.12630
5860.61626,0.13061
5862.54472,0.10962
5864.47319,0.11017
5866.40166,0.10909
5868.33013,0.07454
5870.25860,0.04918
5872.18707,0.06338
5874.11554,0.08231
5876.04400,0.08445
5877.97247,0.07058
5879.90094,0.03643
5881.82941,0.02010
5883.75788,0.04799
5885.68635,0.09094
5887.61482,0.10957
5889.54329,0.10054
5891.47175,0.10444
5893.40022,0.12584
5895.32869,0.12586
5897.25716,0.10101
5899.18563,0.08053
5901.11410,0.08479
5903.04257,0.10024
5904.97103,0.08122
5906.89950,0.03907
5908.82797,0.04406
5910.75644,0.09707
5912.68491,0.12463
5914.61338,0.11052
5916.54185,0.09796
5918.47032,0.10251
5920.39878,0.10012
5922.32725,0.07967
5924.25572,0.07844
5926.18419,0.09654
5928.11266,0.09958
5930.04113,0.12149
5931.96960,0.17199
5933.89806,0.17921
5935.82653,0.11301
5937.75500,0.05663
5939.68347,0.06399
5941.61194,0.07046
5943.54041,0.03046
5945.46888,-0.00411
5947.39734,0.01858
5949.32581,0.08160
5951.25428,0.11187
5953.18275,0.10268
5955.11122,0.11533
5957.03969,0.15207
5958.96816,0.16554
5960.89663,0.14025
5962.82509,0.11303
5964.75356,0.11007
5966.68203,0.12999
5968.61050,0.15269
5970.53897,0.13508
5972.46744,0.08921
5974.39591,0.06929
5976.32437,0.07111
5978.25284,0.10102
5980.18131,0.13966
5982.10978,0.12538
5984.03825,0.09281
5985.96672,0.07964
5987.89519,0.06278
5989.82366,0.03533
5991.75212,0.00667
5993.68059,0.02571
5995.60906,0.08650
5997.53753,0.12368
5999.46600,0.13440
6001.39447,0.12194
6003.32294,0.10692
6005.25140,0.13062
6007.17987,0.15502
6009.10834,0.12463
6011.03681,0.07358
6012.96528,0.06233
6014.89375,0.08702
6016.82222,0.11251
6018.75069,0.12425
6020.67915,0.10915
6022.60762,0.07728
6024.53609,0.07022
6026.46456,0.07685
6028.39303,0.07768
6030.32150,0.10976
6032.24997,0.15785
6034.17843,0.15959
6036.10690,0.13436
6038.03537,0.13345
6039.96384,0.14878
6041.89231,0.15385
6043.82078,0.12729
6045.74925,0.07612
6047.67772,0.06100
6049.60618,0.12678
6051.53465,0.19147
6053.46312,0.18934
6055.39159,0.17378
6057.32006,0.16641
6059.24853,0.14660
6061.17700,0.13192
6063.10546,0.11567
6065.03393,0.07788
6066.96240,0.04258
6068.89087,0.03613
6070.81934,0.07253
6072.74781,0.12071
6074.67628,0.12728
6076.60475,0.11947
6078.53321,0.13392
6080.46168,0.15280
6082.39015,0.15373
6084.31862,0.12457
6086.24709,0.08512
6088.17556,0.05631
6090.10403,0.04450
6092.03249,0.05259
6093.96096,0.05708
6095.88943,0.05694
6097.81790,0.08108
6099.74637,0.12068
6101.67484,0.13652
6103.60331,0.11599
6105.53177,0.08326
6107.46024,0.04176
6109.38871,-0.01354
6111.31718,-0.02562
6113.24565,0.02152
6115.17412,0.07253
6117.10259,0.11122
6119.03106,0.12908
6120.95952,0.11155
6122.88799,0.09636
6124.81646,0.10796
6126.74493,0.12758
6128.67340,0.14696
6130.60187,0.14413
6132.53034,0.10592
6134.45880,0.06901
6136.38727,0.05180
6138.31574,0.04637
6140.24421,0.04661
6142.17268,0.06510
6144.10115,0.12002
6146.02962,0.17964
6147.95809,0.19891
6149.88655,0.18068
6151.81502,0.11981
6153.74349,0.02524
6155.67196,-0.00686
6157.60043,0.02970
6159.52890,0.03828
6161.45737,0.01933
6163.38583,0.03824
6165.31430,0.08966
6167.24277,0.13754
6169.17124,0.16118
6171.09971,0.14457
6173.02818,0.09455
6174.95665,0.03366
6176.88512,0.01827
6178.81358,0.07851
6180.74205,0.12838
6182.67052,0.11485
6184.59899,0.11013
6186.52746,0.12946
6188.45593,0.09193
6190.38440,0.02304
6192.31286,-0.00087
6194.24133,0.01744
6196.16980,0.03153
6198.09827,0.01275
6200.02674,-0.00369
6201.95521,-0.01431
6203.88368,-0.02807
6205.81215,-0.01243
6207.74061,0.01499
6209.66908,0.02181
6211.59755,0.00963
6213.52602,-0.02851
6215.45449,-0.04368
6217.38296,0.00965
6219.31143,0.05542
6221.23989,0.05862
6223.16836,0.04978
6225.09683,0.03762
6227.02530,0.04152
6228.95377,0.06787
6230.88224,0.08094
6232.81071,0.06058
6234.73918,0.04180
6236.66764,0.03751
6238.59611,0.03400
6240.52458,0.05063
6242.45305,0.09099
6244.38152,0.10409
6246.30999,0.09008
6248.23846,0.08227
6250.16692,0.04872
6252.09539,0.01456
6254.02386,0.05112
6255.95233,0.12410
6257.88080,0.15854
6259.80927,0.14033
6261.73774,0.12017
6263.66621,0.12804
6265.59467,0.12324
6267.52314,0.10805
6269.45161,0.12969
6271.38008,0.13976
6273.30855,0.10731
6275.23702,0.08306
6277.16549,0.07532
6279.09395,0.06535
6281.02242,0.07034
6282.95089,0.09162
6284.87936,0.09857
6286.80783,0.07651
6288.73630,0.02491
6290.66477,-0.04612
6292.59323,-0.06625
6294.52170,0.00893
6296.45017,0.10672
6298.37864,0.15280
6300.30711,0.17619
6302.23558,0.20477
6304.16405,0.19794
6306.09252,0.15485
6308.02098,0.12526
6309.94945,0.15785
6311.87792,0.21682
6313.80639,0.17671
6315.73486,0.04193
6317.66333,-0.03117
6319.59180,0.04339
6321.52026,0.18177
6323.44873,0.21416
6325.37720,0.11138
6327.30567,0.01069
6329.23414,-0.01654
6331.16261,-0.01078
6333.09108,0.00385
6335.01955,0.04185
6336.94801,0.10855
6338.87648,0.13959
6340.80495,0.09128
6342.73342,0.04497
6344.66189,0.05337
6346.59036,0.08329
6348.51883,0.11607
6350.44729,0.13826
6352.37576,0.13706
6354.30423,0.13723
6356.23270,0.10959
6358.16117,0.05464
6360.08964,0.04023
6362.01811,0.04719
6363.94658,0.05880
6365.87504,0.10511
6367.80351,0.14518
6369.73198,0.14183
6371.66045,0.10066
6373.58892,0.04947
6375.51739,0.03893
6377.44586,0.07544
6379.37432,0.13566
6381.30279,0.17652
6383.23126,0.15492
6385.15973,0.12562
6387.08820,0.14132
6389.01667,0.16095
6390.94514,0.15973
6392.87361,0.13783
6394.80207,0.11207
6396.73054,0.09498
6398.65901,0.05977
6400.58748,0.01618
6402.51595,0.02018
6404.44442,0.04467
6406.37289,0.03885
6408.30135,0.04776
6410.22982,0.09029
6412.15829,0.12879
6414.08676,0.16061
6416.01523,0.16607
6417.94370,0.12410
6419.87217,0.10158
6421.80064,0.14420
6423.72910,0.17290
6425.65757,0.11599
6427.58604,0.03680
6429.51451,0.01254
6431.44298,0.03926
6433.37145,0.08279
6435.29992,0.11634
6437.22838,0.12847
6439.15685,0.10961
6441.08532,0.09287
6443.01379,0.10206
6444.94226,0.12847
6446.87073,0.15181
6448.79920,0.14936
6450.72766,0.14040
6452.65613,0.12030
6454.58460,0.10137
6456.51307,0.12640
6458.44154,0.13804
6460.37001,0.11861
6462.29848,0.13658
6464.22695,0.16736
6466.15541,0.15367
6468.08388,0.11964
6470.01235,0.12055
6471.94082,0.16583
6473.86929,0.15816
6475.79776,0.06166
6477.72623,0.00501
6479.65469,0.04049
6481.58316,0.10245
6483.51163,0.13731
6485.44010,0.13248
6487.36857,0.09332
6489.29704,0.06033
6491.22551,0.08774
6493.15398,0.10763
6495.08244,0.04295
6497.01091,-0.01426
6498.93938,0.02165
6500.86785,0.09651
6502.79632,0.10015
6504.72479,0.03712
6506.65326,0.00146
6508.58172,0.01015
6510.51019,0.00335
6512.43866,0.01705
6514.36713,0.07266
6516.29560,0.11010
6518.22407,0.14927
6520.15254,0.19174
6522.08101,0.19378
6524.00947,0.15547
6525.93794,0.11145
6527.86641,0.10013
6529.79488,0.13718
6531.72335,0.19733
6533.65182,0.21699
6535.58029,0.17487
6537.50875,0.13155
6539.43722,0.12788
6541.36569,0.12573
6543.29416,0.10520
6545.22263,0.09684
6547.15110,0.09932
6549.07957,0.08918
6551.00804,0.03934
6552.93650,-0.04156
6554.86497,-0.09474
6556.79344,-0.06349
6558.72191,0.05199
6560.65038,0.15131
6562.57885,0.17615
6564.50732,0.14443
6566.43578,0.05643
6568.36425,-0.01422
6570.29272,-0.02390
6572.22119,-0.01148
6574.14966,0.01008
6576.07813,0.03378
6578.00660,0.05173
6579.93507,0.05024
6581.86353,0.04156
6583.79200,0.06060
6585.72047,0.07319
6587.64894,0.03549
6589.57741,0.00168
6591.50588,0.04420
6593.43435,0.08905
6595.36281,0.03074
6597.29128,-0.00735
6599.21975,0.06419
6601.14822,0.12435
6603.07669,0.11061
6605.00516,0.08404
6606.93363,0.04941
6608.86210,0.03002
6610.79056,0.05729
6612.71903,0.10500
6614.64750,0.13946
6616.57597,0.16674
6618.50444,0.20825
6620.43291,0.23097
6622.36138,0.18520
6624.28984,0.11938
6626.21831,0.12393
6628.14678,0.18433
6630.07525,0.22992
6632.00372,0.23814
6633.93219,0.22764
6635.86066,0.17466
6637.78912,0.08517
6639.71759,0.05272
6641.64606,0.07182
6643.57453,0.06425
6645.50300,0.01579
6647.43147,-0.01748
6649.35994,0.00109
6651.28841,0.02642
6653.21687,0.00258
6655.14534,-0.06609
6657.07381,-0.08472
6659.00228,-0.01563
6660.93075,0.02510
6662.85922,0.02776
6664.78769,0.04562
6666.71615,0.07574
6668.64462,0.11674
6670.57309,0.10732
6672.50156,0.00917
6674.43003,-0.06608
6676.35850,-0.03392
6678.28697,0.05580
6680.21544,0.09921
6682.14390,0.10566
6684.07237,0.13846
6686.00084,0.15532
6687.92931,0.11748
6689.85778,0.05417
6691.78625,0.01219
6693.71472,-0.00740
6695.64318,-0.04408
6697.57165,-0.06008
6699.50012,0.00800
6701.42859,0.07407
6703.35706,0.07414
6705.28553,0.06156
6707.21400,0.02769
6709.14247,-0.02420
6711.07093,-0.02195
6712.99940,0.02942
6714.92787,0.06668
6716.85634,0.07571
6718.78481,0.07737
6720.71328,0.04324
6722.64175,-0.00797
6724.57021,-0.04026
6726.49868,-0.06814
6728.42715,-0.06626
6730.35562,-0.00855
6732.28409,0.08586
6734.21256,0.16703
6736.14103,0.17654
6738.06950,0.12038
6739.99796,0.05934
6741.92643,0.04136
6743.85490,0.04408
6745.78337,0.04914
6747.71184,0.05384
6749.64031,0.02615
6751.56878,-0.00200
6753.49724,-0.00094
6755.42571,-0.01896
6757.35418,-0.05285
6759.28265,-0.00668
6761.21112,0.10733
6763.13959,0.14393
6765.06806,0.15435
6766.99653,0.21519
6768.92499,0.24222
6770.85346,0.21056
6772.78193,0.17156
6774.71040,0.10751
6776.63887,0.06560
6778.56734,0.09559
6780.49581,0.11039
6782.42427,0.08460
6784.35274,0.05387
6786.28121,0.03709
6788.20968,0.05918
6790.13815,0.10291
6792.06662,0.11519
6793.99509,0.12915
6795.92355,0.19179
6797.85202,0.22474
6799.78049,0.17463
6801.70896,0.08645
6803.63743,0.01669
6805.56590,0.01977
6807.49437,0.08198
6809.42284,0.12358
6811.35130,0.13628
6813.27977,0.14552
6815.20824,0.12994
6817.13671,0.06142
6819.06518,0.00902
6820.99365,0.07348
6822.92212,0.17387
6824.85058,0.13484
6826.77905,0.03229
6828.70752,-0.00186
6830.63599,0.06764
6832.56446,0.13023
6834.49293,0.09468
6836.42140,0.01230
6838.34987,-0.03378
6840.27833,-0.02472
6842.20680,0.00202
6844.13527,0.00989
6846.06374,0.07079
6847.99221,0.20459
6849.92068,0.24789
6851.84915,0.16278
6853.77761,0.09780
6855.70608,0.14499
6857.63455,0.22091
6859.56302,0.20517
6861.49149,0.12945
6863.41996,0.08860
6865.34843,0.10550
6867.27690,0.11132
6869.20536,0.08616
6871.13383,0.08649
6873.06230,0.07874
6874.99077,0.05498
6876.91924,0.09678
6878.84771,0.16081
6880.77618,0.16103
6882.70464,0.08884
6884.63311,-0.02319
6886.56158,-0.08709
6888.49005,-0.02635
6890.41852,0.09481
6892.34699,0.15336
6894.27546,0.10607
6896.20393,-0.02539
6898.13239,-0.09057
6900.06086,-0.00831
6901.98933,0.02910
6903.91780,-0.04418
6905.84627,-0.10911
6907.77474,-0.06987
6909.70321,0.04902
6911.63167,0.16788
6913.56014,0.23950
6915.48861,0.24825
6917.41708,0.23115
6919.34555,0.24986
6921.27402,0.25397
6923.20249,0.14827
6925.13096,0.02647
6927.05942,0.01352
6928.98789,0.08048
6930.91636,0.16662
6932.84483,0.18708
6934.77330,0.05930
6936.70177,-0.10528
6938.63024,-0.16992
6940.55870,-0.06004
6942.48717,0.12088
6944.41564,0.18869
6946.34411,0.09968
6948.27258,-0.01396
6950.20105,-0.02428
6952.12952,0.03348
6954.05799,0.09882
6955.98645,0.12550
6957.91492,0.07173
6959.84339,0.02203
6961.77186,0.08670
6963.70033,0.19182
6965.62880,0.23428
6967.55727,0.24819
6969.48573,0.22187
6971.41420,0.06610
6973.34267,-0.09330
6975.27114,-0.08634
6977.19961,-0.03793
6979.12808,-0.04335
6981.05655,-0.00353
6982.98501,0.10127
6984.91348,0.13128
6986.84195,0.04550
6988.77042,-0.01918
6990.69889,-0.03203
6992.62736,-0.04504
6994.55583,-0.01899
6996.48430,0.02309
6998.41276,-0.02810
7000.34123,-0.13441
7002.26970,-0.13792
7004.19817,-0.02830
7006.12664,0.09086
7008.05511,0.15532
7009.98358,0.17069
7011.91204,0.17693
7013.84051,0.17164
7015.76898,0.16611
7017.69745,0.17724
7019.62592,0.17336
7021.55439,0.16603
7023.48286,0.18005
7025.41133,0.15951
7027.33979,0.06895
7029.26826,-0.00805
7031.19673,0.00977
7033.12520,0.09673
7035.05367,0.18159
7036.98214,0.15138
7038.91061,0.07090
7040.83907,0.06266
7042.76754,0.11018
7044.69601,0.11804
7046.62448,0.08160
7048.55295,0.07322
7050.48142,0.09767
7052.40989,0.11782
7054.33836,0.15268
7056.26682,0.13654
7058.19529,0.00654
7060.12376,-0.05837
7062.05223,0.01400
7063.98070,0.12996
7065.90917,0.20843
7067.83764,0.23575
7069.76610,0.18798
7071.69457,0.05852
7073.62304,0.01817
7075.55151,0.10642
7077.47998,0.16697
7079.40845,0.16612
7081.33692,0.13676
7083.26539,0.07666
7085.19385,0.09118
7087.12232,0.21564
7089.05079,0.27889
7090.97926,0.18233
7092.90773,0.01322
7094.83620,-0.06890
7096.76467,-0.04483
7098.69313,-0.04763
7100.62160,-0.05207
7102.55007,0.01388
7104.47854,0.11293
7106.40701,0.13166
7108.33548,0.03941
7110.26395,-0.04680
7112.19242,-0.07756
7114.12088,-0.05645
7116.04935,-0.03917
7117.97782,-0.12162
7119.90629,-0.23198
7121.83476,-0.20267
7123.76323,-0.04524
7125.69170,0.11367
7127.62016,0.14835
7129.54863,0.03811
7131.47710,-0.09833
7133.40557,-0.15206
7135.33404,-0.14031
7137.26251,-0.11751
7139.19098,-0.04237
7141.11944,0.10484
7143.04791,0.18424
7144.97638,0.12761
7146.90485,0.01753
7148.83332,-0.07998
7150.76179,-0.11956
7152.69026,-0.06891
7154.61873,-0.01951
7156.54719,-0.04678
7158.47566,-0.06336
7160.40413,-0.01341
7162.33260,0.08290
7164.26107,0.19139
7166.18954,0.22941
7168.11801,0.13740
7170.04647,0.00817
7171.97494,-0.03922
7173.90341,0.05423
7175.83188,0.20159
7177.76035,0.16876
7179.68882,0.03900
7181.61729,0.02579
7183.54576,0.08677
7185.47422,0.07307
7187.40269,-0.05086
7189.33116,-0.08912
7191.25963,0.06050
7193.18810,0.07644
7195.11657,-0.03943
7197.04504,-0.02742
7198.97350,0.01416
7200.90197,0.00333
7202.83044,0.06318
7204.75891,0.16159
7206.68738,0.13842
7208.61585,0.14036
7210.54432,0.19166
7212.47279,0.17063
7214.40125,0.09882
7216.32972,-0.00365
7218.25819,-0.10153
7220.18666,0.01746
7222.11513,0.24247
7224.04360,0.32640
7225.97207,0.18747
7227.90053,0.03337
7229.82900,0.08706
7231.75747,0.24635
7233.68594,0.25415
7235.61441,0.15034
7237.54288,0.04224
7239.47135,-0.02812
7241.39982,-0.05082
7243.32828,-0.01454
7245.25675,0.06627
7247.18522,0.13375
7249.11369,0.13459
7251.04216,0.04761
7252.97063,-0.03362
7254.89910,0.02125
7256.82756,0.08900
7258.75603,0.09474
7260.68450,0.05423
7262.61297,-0.04427
7264.54144,-0.08917
7266.46991,0.03291
7268.39838,0.13649
7270.32685,0.01102
7272.25531,-0.23177
7274.18378,-0.14451
7276.11225,0.10344
7278.04072,0.20665
7279.96919,0.23962
7281.89766,0.24904
7283.82613,0.12313
7285.75459,0.02794
7287.68306,0.06581
7289.61153,0.11612
7291.54000,0.09432
7293.46847,0.01803
7295.39694,-0.02414
7297.32541,0.00335
7299.25387,0.01056
7301.18234,-0.00576
7303.11081,0.05911
7305.03928,0.22015
7306.96775,0.31130
7308.89622,0.18223
7310.82469,0.12518
7312.75316,0.21419
7314.68162,0.15672
7316.61009,0.07445
7318.53856,0.13510
7320.46703,0.11801
7322.39550,0.08776
7324.32397,0.10898
7326.25244,0.03514
7328.18090,-0.07376
7330.10937,-0.06100
7332.03784,-0.00095
7333.96631,-0.00441
7335.89478,-0.09187
7337.82325,-0.27274
7339.75172,-0.40869
7341.68019,-0.21538
7343.60865,0.05575
7345.53712,0.12713
7347.46559,0.04798
7349.39406,0.10545
7351.32253,0.22349
7353.25100,0.15473
7355.17947,0.06801
7357.10793,0.11112
7359.03640,0.16859
7360.96487,0.19873
7362.89334,0.22441
7364.82181,0.15848
7366.75028,0.06662
7368.67875,0.06349
7370.60722,0.11804
7372.53568,0.12989
7374.46415,0.00984
7376.39262,-0.17101
7378.32109,-0.12354
7380.24956,0.10639
7382.17803,0.32204
7384.10650,0.43207
7386.03496,0.52122
7387.96343,0.54332
7389.89190,0.43433
7391.82037,0.28723
7393.74884,0.17166
7395.67731,0.05119
7397.60578,0.02447
7399.53425,0.11298
7401.46271,0.10610
7403.39118,-0.02376
7405.31965,-0.06623
7407.24812,0.03775
7409.17659,0.11227
7411.10506,0.03736
7413.03353,-0.08499
7414.96199,-0.12284
7416.89046,-0.05336
7418.81893,0.04136
7420.74740,0.08137
7422.67587,0.11313
7424.60434,0.12903
7426.53281,0.08058
7428.46128,-0.02662
7430.38974,-0.08646
7432.31821,-0.08114
7434.24668,-0.11101
7436.17515,-0.06651
7438.10362,0.10744
7440.03209,0.29452
7441.96056,0.45563
7443.88902,0.46085
7445.81749,0.25487
7447.74596,0.09563
7449.67443,0.05659
7451.60290,0.02080
7453.53137,0.02611
7455.45984,0.03780
7457.38831,-0.01092
7459.31677,-0.06124
7461.24524,-0.08388
7463.17371,-0.16354
7465.10218,-0.24650
7467.03065,-0.21806
7468.95912,-0.15960
7470.88759,-0.17359
7472.81605,-0.19684
7474.74452,-0.07892
7476.67299,0.19427
7478.60146,0.40649
7480.52993,0.31211
7482.45840,0.07407
7484.38687,-0.00686
7486.31533,-0.01147
7488.24380,-0.07314
7490.17227,-0.15763
7492.10074,-0.16373
7494.02921,-0.06743
7495.95768,0.10074
7497.88615,0.27235
