399.19301,-1.56993
401.12148,0.61939
403.04995,0.97560
404.97842,0.17123
406.90689,-0.06980
408.83536,0.06308
410.76382,0.09005
412.69229,1.68242
414.62076,5.11078
416.54923,7.67526
418.47770,5.85020
420.40617,1.33064
422.33464,0.08228
424.26311,0.06068
426.19157,-0.26158
428.12004,-0.27641
430.04851,-0.06874
431.97698,-0.07665
433.90545,-0.14220
435.83392,-0.13673
437.76239,-0.22460
439.69085,-0.35382
441.61932,-0.35871
443.54779,-0.20915
445.47626,-0.00392
447.40473,0.04784
449.33320,-0.11306
451.26167,-0.22595
453.19013,-0.20508
455.11860,-0.15945
457.04707,-0.05939
458.97554,0.12518
460.90401,0.22244
462.83248,0.13157
464.76095,-0.03493
466.68942,-0.12517
468.61788,-0.15537
470.54635,0.03160
472.47482,1.50339
474.40329,3.50172
476.33176,2.31772
478.26023,0.60603
480.18870,0.02268
482.11716,-0.04657
484.04563,-0.03698
485.97410,0.02147
487.90257,0.12665
489.83104,0.21879
491.75951,0.19160
493.68798,0.11022
495.61645,0.06338
497.54491,0.03996
499.47338,0.02607
501.40185,0.06586
503.33032,0.14884
505.25879,0.18703
507.18726,0.15923
509.11573,0.10032
511.04419,0.03734
512.97266,0.00120
514.90113,0.03451
516.82960,0.12818
518.75807,0.18043
520.68654,0.13647
522.61501,0.06919
524.54348,0.04460
526.47194,0.07005
528.40041,0.11396
530.32888,0.15629
532.25735,0.20213
534.18582,0.21161
536.11429,0.15629
538.04276,0.09112
539.97122,0.04231
541.89969,0.01606
543.82816,0.04677
545.75663,0.09109
547.68510,0.09512
549.61357,0.10141
551.54204,0.13587
553.47051,0.14146
555.39897,0.11045
557.32744,0.09549
559.25591,0.11739
561.18438,0.14682
563.11285,0.16188
565.04132,0.16003
566.96979,0.14077
568.89825,0.11613
570.82672,0.09852
572.75519,0.10625
574.68366,0.15117
576.61213,0.19718
578.54060,0.20616
580.46907,0.17086
582.39754,0.11071
584.32600,0.06362
586.25447,0.05706
588.18294,0.09710
590.11141,0.15402
592.03988,0.18747
593.96835,0.19208
595.89682,0.17596
597.82528,0.13525
599.75375,0.09584
601.68222,0.10067
603.61069,0.14161
605.53916,0.17422
607.46763,0.18440
609.39610,0.17284
611.32456,0.13557
613.25303,0.09336
615.18150,0.07817
617.10997,0.08799
619.03844,0.10813
620.96691,0.12703
622.89538,0.13414
624.82385,0.13075
626.75231,0.11219
628.68078,0.07772
630.60925,0.03567
632.53772,0.01495
634.46619,0.05425
636.39466,0.12129
638.32313,0.16234
640.25159,0.16562
642.18006,0.13730
644.10853,0.10096
646.03700,0.09788
647.96547,0.12501
649.89394,0.14168
651.82241,0.14232
653.75088,0.13283
655.67934,0.12412
657.60781,0.13295
659.53628,0.13459
661.46475,0.10783
663.39322,0.09750
665.32169,0.13280
667.25016,0.17276
669.17862,0.15443
671.10709,0.11972
673.03556,0.10508
674.96403,0.09761
676.89250,0.09918
678.82097,0.11964
680.74944,0.14308
682.67791,0.14749
684.60637,0.13840
686.53484,0.12582
688.46331,0.11055
690.39178,0.10323
692.32025,0.11588
694.24872,0.13776
696.17719,0.15685
698.10565,0.16823
700.03412,0.16242
701.96259,0.13728
703.89106,0.11375
705.81953,0.11580
707.74800,0.13459
709.67647,0.15628
711.60494,0.17990
713.53340,0.19045
715.46187,0.17693
717.39034,0.15097
719.31881,0.12713
721.24728,0.11900
723.17575,0.13530
725.10422,0.15842
727.03268,0.16189
728.96115,0.14680
730.88962,0.13053
732.81809,0.11850
734.74656,0.10956
736.67503,0.11279
738.60350,0.13465
740.53197,0.16198
742.46043,0.17387
744.38890,0.16751
746.31737,0.15624
748.24584,0.14092
750.17431,0.12534
752.10278,0.12702
754.03125,0.14919
755.95971,0.17216
757.88818,0.17195
759.81665,0.15976
761.74512,0.15321
763.67359,0.14174
765.60206,0.12557
767.53053,0.12283
769.45900,0.14345
771.38746,0.17397
773.31593,0.17910
775.24440,0.14751
777.17287,0.11799
779.10134,0.11708
781.02981,0.12777
782.95828,0.13567
784.88674,0.14067
786.81521,0.14234
788.74368,0.13993
790.67215,0.13872
792.60062,0.13956
794.52909,0.13901
796.45756,0.14177
798.38602,0.15327
800.31449,0.16636
802.24296,0.15520
804.17143,0.11937
806.09990,0.09950
808.02837,0.11028
809.95684,0.12804
811.88531,0.14077
813.81377,0.15693
815.74224,0.17540
817.67071,0.18464
819.59918,0.17928
821.52765,0.15820
823.45612,0.13609
825.38459,0.13096
827.31305,0.14141
829.24152,0.16043
831.16999,0.17974
833.09846,0.18578
835.02693,0.16817
836.95540,0.14359
838.88387,0.13739
840.81234,0.14647
842.74080,0.15778
844.66927,0.16326
846.59774,0.16260
848.52621,0.15745
850.45468,0.14592
852.38315,0.13447
854.31162,0.13702
856.24008,0.15271
858.16855,0.16473
860.09702,0.16888
862.02549,0.16696
863.95396,0.16132
865.88243,0.16295
867.81090,0.18133
869.73937,0.20436
871.66783,0.19944
873.59630,0.17221
875.52477,0.15481
877.45324,0.14999
879.38171,0.14764
881.31018,0.14150
883.23865,0.13809
885.16711,0.14893
887.09558,0.16254
889.02405,0.16350
890.95252,0.15536
892.88099,0.14588
894.80946,0.13841
896.73793,0.13211
898.66640,0.12952
900.59486,0.14009
902.52333,0.16294
904.45180,0.18390
906.38027,0.19028
908.30874,0.18011
910.23721,0.15743
912.16568,0.13303
914.09414,0.12856
916.02261,0.14620
917.95108,0.16514
919.87955,0.17507
921.80802,0.17588
923.73649,0.16830
925.66496,0.15670
927.59343,0.15214
929.52189,0.15981
931.45036,0.16833
933.37883,0.17347
935.30730,0.18004
937.23577,0.18310
939.16424,0.17648
941.09271,0.16209
943.02117,0.14804
944.94964,0.14201
946.87811,0.14437
948.80658,0.15171
950.73505,0.15934
952.66352,0.15987
954.59199,0.15353
956.52045,0.15011
958.44892,0.15456
960.37739,0.16494
962.30586,0.17113
964.23433,0.16648
966.16280,0.15864
968.09127,0.15311
970.01974,0.14887
971.94820,0.14610
973.87667,0.14652
975.80514,0.15037
977.73361,0.15844
979.66208,0.16761
981.59055,0.16947
983.51902,0.16573
985.44748,0.16221
987.37595,0.15803
989.30442,0.15243
991.23289,0.15263
993.16136,0.16249
995.08983,0.17167
997.01830,0.17180
998.94677,0.16373
1000.87523,0.15311
1002.80370,0.14704
1004.73217,0.15054
1006.66064,0.16159
1008.58911,0.16950
1010.51758,0.17234
1012.44605,0.17509
1014.37451,0.17462
1016.30298,0.16964
1018.23145,0.16336
1020.15992,0.16127
1022.08839,0.16672
1024.01686,0.17899
1025.94533,0.19582
1027.87380,0.20051
1029.80226,0.18527
1031.73073,0.16952
1033.65920,0.16655
1035.58767,0.16944
1037.51614,0.16749
1039.44461,0.16679
1041.37308,0.17492
1043.30154,0.18122
1045.23001,0.17646
1047.15848,0.16609
1049.08695,0.16003
1051.01542,0.16448
1052.94389,0.17868
1054.87236,0.19090
1056.80083,0.19025
1058.72929,0.18141
1060.65776,0.17895
1062.58623,0.18020
1064.51470,0.17309
1066.44317,0.17240
1068.37164,0.18914
1070.30011,0.19938
1072.22857,0.18858
1074.15704,0.17405
1076.08551,0.16637
1078.01398,0.16262
1079.94245,0.16603
1081.87092,0.17589
1083.79939,0.18274
1085.72786,0.18492
1087.65632,0.18631
1089.58479,0.18114
1091.51326,0.17157
1093.44173,0.17299
1095.37020,0.18437
1097.29867,0.18999
1099.22714,0.19152
1101.15560,0.19903
1103.08407,0.19853
1105.01254,0.18060
1106.94101,0.16273
1108.86948,0.15903
1110.79795,0.17247
1112.72642,0.19443
1114.65489,0.20728
1116.58335,0.20432
1118.51182,0.19026
1120.44029,0.17431
1122.36876,0.16756
1124.29723,0.17019
1126.22570,0.17263
1128.15417,0.17321
1130.08263,0.17460
1132.01110,0.17219
1133.93957,0.16316
1135.86804,0.15119
1137.79651,0.14556
1139.72498,0.15528
1141.65345,0.17447
1143.58191,0.18743
1145.51038,0.18890
1147.43885,0.18827
1149.36732,0.19016
1151.29579,0.18703
1153.22426,0.17944
1155.15273,0.17785
1157.08120,0.18162
1159.00966,0.18426
1160.93813,0.18748
1162.86660,0.18874
1164.79507,0.18392
1166.72354,0.17907
1168.65201,0.17893
1170.58048,0.18297
1172.50894,0.18819
1174.43741,0.18889
1176.36588,0.18329
1178.29435,0.17523
1180.22282,0.16871
1182.15129,0.16562
1184.07976,0.16906
1186.00823,0.17750
1187.93669,0.18233
1189.86516,0.18200
1191.79363,0.17936
1193.72210,0.17423
1195.65057,0.17014
1197.57904,0.17093
1199.50751,0.17510
1201.43597,0.18128
1203.36444,0.18777
1205.29291,0.18891
1207.22138,0.18349
1209.14985,0.17722
1211.07832,0.17219
1213.00679,0.16810
1214.93526,0.16808
1216.86372,0.17300
1218.79219,0.18023
1220.72066,0.18525
1222.64913,0.18307
1224.57760,0.17691
1226.50607,0.17445
1228.43454,0.17519
1230.36300,0.17639
1232.29147,0.17996
1234.21994,0.18318
1236.14841,0.18200
1238.07688,0.17859
1240.00535,0.17525
1241.93382,0.17218
1243.86229,0.17113
1245.79075,0.17514
1247.71922,0.18127
1249.64769,0.18407
1251.57616,0.18350
1253.50463,0.18063
1255.43310,0.17696
1257.36157,0.17411
1259.29003,0.17366
1261.21850,0.17888
1263.14697,0.18772
1265.07544,0.19407
1267.00391,0.19446
1268.93238,0.18991
1270.86085,0.18448
1272.78932,0.18189
1274.71778,0.18409
1276.64625,0.18768
1278.57472,0.18996
1280.50319,0.18929
1282.43166,0.18449
1284.36013,0.18156
1286.28860,0.18141
1288.21706,0.18111
1290.14553,0.18300
1292.07400,0.18730
1294.00247,0.19058
1295.93094,0.18965
1297.85941,0.18681
1299.78788,0.18531
1301.71634,0.18300
1303.64481,0.17879
1305.57328,0.17836
1307.50175,0.18354
1309.43022,0.18685
1311.35869,0.18557
1313.28716,0.18410
1315.21563,0.18488
1317.14409,0.18664
1319.07256,0.18970
1321.00103,0.19296
1322.92950,0.19170
1324.85797,0.18727
1326.78644,0.18480
1328.71491,0.18444
1330.64337,0.18301
1332.57184,0.18151
1334.50031,0.18327
1336.42878,0.18871
1338.35725,0.19604
1340.28572,0.19793
1342.21419,0.19325
1344.14266,0.19160
1346.07112,0.19203
1347.99959,0.18832
1349.92806,0.18433
1351.85653,0.18393
1353.78500,0.18278
1355.71347,0.17931
1357.64194,0.17898
1359.57040,0.18534
1361.49887,0.19472
1363.42734,0.19796
1365.35581,0.19542
1367.28428,0.19616
1369.21275,0.19926
1371.14122,0.20036
1373.06969,0.19998
1374.99815,0.19481
1376.92662,0.18602
1378.85509,0.18461
1380.78356,0.19108
1382.71203,0.19490
1384.64050,0.19386
1386.56897,0.19208
1388.49743,0.18833
1390.42590,0.18495
1392.35437,0.18928
1394.28284,0.20017
1396.21131,0.20734
1398.13978,0.20798
1400.06825,0.20316
1401.99672,0.19681
1403.92518,0.19376
1405.85365,0.19161
1407.78212,0.19144
1409.71059,0.19567
1411.63906,0.19975
1413.56753,0.20069
1415.49600,0.20158
1417.42446,0.20212
1419.35293,0.19773
1421.28140,0.19465
1423.20987,0.19442
1425.13834,0.19385
1427.06681,0.19900
1428.99528,0.20775
1430.92375,0.20728
1432.85221,0.20184
1434.78068,0.20442
1436.70915,0.20935
1438.63762,0.20499
1440.56609,0.20129
1442.49456,0.20388
1444.42303,0.20723
1446.35149,0.20613
1448.27996,0.20087
1450.20843,0.19770
1452.13690,0.20185
1454.06537,0.21420
1455.99384,0.23762
1457.92231,0.24892
1459.85077,0.22699
1461.77924,0.21036
1463.70771,0.20559
1465.63618,0.20214
1467.56465,0.19921
1469.49312,0.20684
1471.42159,0.22411
1473.35006,0.23154
1475.27852,0.22205
1477.20699,0.21072
1479.13546,0.20259
1481.06393,0.19972
1482.99240,0.20074
1484.92087,0.20701
1486.84934,0.22106
1488.77780,0.23235
1490.70627,0.22394
1492.63474,0.21190
1494.56321,0.21264
1496.49168,0.22212
1498.42015,0.22338
1500.34862,0.21449
1502.27709,0.21210
1504.20555,0.22275
1506.13402,0.24090
1508.06249,0.23803
1509.99096,0.22297
1511.91943,0.21501
1513.84790,0.21591
1515.77637,0.22768
1517.70483,0.24184
1519.63330,0.24956
1521.56177,0.24956
1523.49024,0.23814
1525.41871,0.22561
1527.34718,0.21631
1529.27565,0.21503
1531.20412,0.22261
1533.13258,0.23001
1535.06105,0.22973
1536.98952,0.23161
1538.91799,0.24430
1540.84646,0.25563
1542.77493,0.24549
1544.70340,0.23126
1546.63186,0.22208
1548.56033,0.21762
1550.48880,0.21205
1552.41727,0.20809
1554.34574,0.21236
1556.27421,0.22798
1558.20268,0.25306
1560.13115,0.24238
1562.05961,0.22342
1563.98808,0.21710
1565.91655,0.20878
1567.84502,0.20152
1569.77349,0.20164
1571.70196,0.20407
1573.63043,0.20969
1575.55889,0.21807
1577.48736,0.21458
1579.41583,0.20444
1581.34430,0.19859
1583.27277,0.19470
1585.20124,0.19126
1587.12971,0.18951
1589.05818,0.18997
1590.98664,0.19103
1592.91511,0.19407
1594.84358,0.19872
1596.77205,0.19731
1598.70052,0.19092
1600.62899,0.18779
1602.55746,0.18917
1604.48592,0.19146
1606.41439,0.19465
1608.34286,0.19761
1610.27133,0.19527
1612.19980,0.19018
1614.12827,0.19048
1616.05674,0.20106
1617.98521,0.21111
1619.91367,0.21271
1621.84214,0.21590
1623.77061,0.21718
1625.69908,0.21180
1627.62755,0.20696
1629.55602,0.20510
1631.48449,0.20846
1633.41295,0.22207
1635.34142,0.24204
1637.26989,0.23895
1639.19836,0.22344
1641.12683,0.21582
1643.05530,0.21593
1644.98377,0.22514
1646.91223,0.23956
1648.84070,0.24152
1650.76917,0.24473
1652.69764,0.26142
1654.62611,0.25090
1656.55458,0.22468
1658.48305,0.21322
1660.41152,0.21453
1662.33998,0.22031
1664.26845,0.22312
1666.19692,0.22996
1668.12539,0.24462
1670.05386,0.24968
1671.98233,0.23621
1673.91080,0.22215
1675.83926,0.21430
1677.76773,0.21677
1679.69620,0.22714
1681.62467,0.24354
1683.55314,0.25884
1685.48161,0.24513
1687.41008,0.22299
1689.33855,0.21304
1691.26701,0.21109
1693.19548,0.21611
1695.12395,0.23092
1697.05242,0.24736
1698.98089,0.24781
1700.90936,0.22886
1702.83783,0.21446
1704.76629,0.21394
1706.69476,0.21637
1708.62323,0.21486
1710.55170,0.21352
1712.48017,0.21745
1714.40864,0.22847
1716.33711,0.24189
1718.26558,0.23779
1720.19404,0.22296
1722.12251,0.21607
1724.05098,0.21365
1725.97945,0.21194
1727.90792,0.21268
1729.83639,0.21590
1731.76486,0.22277
1733.69332,0.22953
1735.62179,0.22213
1737.55026,0.21391
1739.47873,0.21575
1741.40720,0.22169
1743.33567,0.22320
1745.26414,0.22240
1747.19261,0.22584
1749.12107,0.23137
1751.04954,0.22661
1752.97801,0.21617
1754.90648,0.21308
1756.83495,0.21511
1758.76342,0.21335
1760.69189,0.20837
1762.62035,0.20415
1764.54882,0.20330
1766.47729,0.20880
1768.40576,0.21861
1770.33423,0.22883
1772.26270,0.23462
1774.19117,0.22758
1776.11964,0.21551
1778.04810,0.20917
1779.97657,0.21198
1781.90504,0.21652
1783.83351,0.21475
1785.76198,0.20937
1787.69045,0.20871
1789.61892,0.21702
1791.54738,0.22603
1793.47585,0.22345
1795.40432,0.21796
1797.33279,0.21861
1799.26126,0.22280
1801.18973,0.22353
1803.11820,0.21810
1805.04666,0.21195
1806.97513,0.20961
1808.90360,0.21097
1810.83207,0.21233
1812.76054,0.21071
1814.68901,0.20823
1816.61748,0.20756
1818.54595,0.20182
1820.47441,0.19234
1822.40288,0.19763
1824.33135,0.21331
1826.25982,0.21924
1828.18829,0.22079
1830.11676,0.22127
1832.04523,0.21500
1833.97369,0.20884
1835.90216,0.20593
1837.83063,0.20405
1839.75910,0.20320
1841.68757,0.20689
1843.61604,0.21685
1845.54451,0.22304
1847.47298,0.21933
1849.40144,0.21307
1851.32991,0.20709
1853.25838,0.20312
1855.18685,0.20348
1857.11532,0.20514
1859.04379,0.20551
1860.97226,0.20715
1862.90072,0.21015
1864.82919,0.21195
1866.75766,0.21242
1868.68613,0.21051
1870.61460,0.20771
1872.54307,0.20757
1874.47154,0.20855
1876.40001,0.20797
1878.32847,0.20596
1880.25694,0.20623
1882.18541,0.20890
1884.11388,0.21048
1886.04235,0.21299
1887.97082,0.21882
1889.89929,0.22245
1891.82775,0.21992
1893.75622,0.21502
1895.68469,0.21032
1897.61316,0.20792
1899.54163,0.20901
1901.47010,0.21022
1903.39857,0.20880
1905.32704,0.20923
1907.25550,0.21490
1909.18397,0.21838
1911.11244,0.21433
1913.04091,0.20963
1914.96938,0.20922
1916.89785,0.21129
1918.82632,0.21174
1920.75478,0.20996
1922.68325,0.20832
1924.61172,0.20565
1926.54019,0.20290
1928.46866,0.20311
1930.39713,0.20515
1932.32560,0.20652
1934.25407,0.20833
1936.18253,0.21059
1938.11100,0.20964
1940.03947,0.20724
1941.96794,0.20697
1943.89641,0.20633
1945.82488,0.20458
1947.75335,0.20475
1949.68181,0.20620
1951.61028,0.20709
1953.53875,0.20738
1955.46722,0.20667
1957.39569,0.20660
1959.32416,0.20862
1961.25263,0.21030
1963.18110,0.21107
1965.10956,0.21303
1967.03803,0.21380
1968.96650,0.21054
1970.89497,0.20687
1972.82344,0.20484
1974.75191,0.20434
1976.68038,0.20713
1978.60884,0.21060
1980.53731,0.21164
1982.46578,0.21208
1984.39425,0.21044
1986.32272,0.20680
1988.25119,0.20655
1990.17966,0.20882
1992.10812,0.20963
1994.03659,0.20940
1995.96506,0.20841
1997.89353,0.20575
1999.82200,0.20340
2001.75047,0.20363
2003.67894,0.20473
2005.60741,0.20637
2007.53587,0.20965
2009.46434,0.21226
2011.39281,0.21312
2013.32128,0.21366
2015.24975,0.21303
2017.17822,0.21022
2019.10669,0.20810
2021.03515,0.20935
2022.96362,0.21098
2024.89209,0.20968
2026.82056,0.20801
2028.74903,0.20730
2030.67750,0.20647
2032.60597,0.20668
2034.53444,0.20798
2036.46290,0.21032
2038.39137,0.21321
2040.31984,0.21308
2042.24831,0.20942
2044.17678,0.20499
2046.10525,0.20240
2048.03372,0.20331
2049.96218,0.20586
2051.89065,0.20724
2053.81912,0.20695
2055.74759,0.20771
2057.67606,0.21036
2059.60453,0.21111
2061.53300,0.21046
2063.46147,0.21060
2065.38993,0.21078
2067.31840,0.21225
2069.24687,0.21457
2071.17534,0.21500
2073.10381,0.21366
2075.03228,0.21186
2076.96075,0.21032
2078.88921,0.20871
2080.81768,0.20657
2082.74615,0.20566
2084.67462,0.20667
2086.60309,0.20774
2088.53156,0.20816
2090.46003,0.20792
2092.38850,0.20804
2094.31696,0.20940
2096.24543,0.21070
2098.17390,0.21174
2100.10237,0.21261
2102.03084,0.21205
2103.95931,0.21021
2105.88778,0.20758
2107.81624,0.20519
2109.74471,0.20522
2111.67318,0.20686
2113.60165,0.20832
2115.53012,0.20984
2117.45859,0.21008
2119.38706,0.20864
2121.31553,0.20809
2123.24399,0.20873
2125.17246,0.20919
2127.10093,0.20956
2129.02940,0.21122
2130.95787,0.21313
2132.88634,0.21325
2134.81481,0.21515
2136.74327,0.21788
2138.67174,0.21502
2140.60021,0.21080
2142.52868,0.21052
2144.45715,0.21076
2146.38562,0.21045
2148.31409,0.21081
2150.24255,0.20885
2152.17102,0.20563
2154.09949,0.20820
2156.02796,0.21396
2157.95643,0.21501
2159.88490,0.21281
2161.81337,0.21174
2163.74184,0.21226
2165.67030,0.21179
2167.59877,0.20912
2169.52724,0.20897
2171.45571,0.21309
2173.38418,0.21489
2175.31265,0.21210
2177.24112,0.20936
2179.16958,0.20877
2181.09805,0.20868
2183.02652,0.20737
2184.95499,0.20511
2186.88346,0.20469
2188.81193,0.20804
2190.74040,0.21143
2192.66887,0.21008
2194.59733,0.20504
2196.52580,0.20202
2198.45427,0.20526
2200.38274,0.21138
2202.31121,0.21449
2204.23968,0.21323
2206.16815,0.20872
2208.09661,0.20440
2210.02508,0.20375
2211.95355,0.20518
2213.88202,0.20613
2215.81049,0.20673
2217.73896,0.20738
2219.66743,0.20813
2221.59590,0.20791
2223.52436,0.20602
2225.45283,0.20455
2227.38130,0.20523
2229.30977,0.20765
2231.23824,0.21072
2233.16671,0.21360
2235.09518,0.21378
2237.02364,0.20914
2238.95211,0.20506
2240.88058,0.20542
2242.80905,0.20729
2244.73752,0.21022
2246.66599,0.21283
2248.59446,0.21243
2250.52293,0.20975
2252.45139,0.20683
2254.37986,0.20592
2256.30833,0.20741
2258.23680,0.20992
2260.16527,0.21209
2262.09374,0.21271
2264.02221,0.21099
2265.95067,0.20775
2267.87914,0.20500
2269.80761,0.20358
2271.73608,0.20294
2273.66455,0.20360
2275.59302,0.20636
2277.52149,0.20846
2279.44996,0.20823
2281.37842,0.20899
2283.30689,0.21106
2285.23536,0.21058
2287.16383,0.20857
2289.09230,0.20804
2291.02077,0.20678
2292.94924,0.20457
2294.87770,0.20492
2296.80617,0.20688
2298.73464,0.20477
2300.66311,0.19885
2302.59158,0.19652
2304.52005,0.19860
2306.44852,0.20121
2308.37699,0.20280
2310.30545,0.20024
2312.23392,0.19353
2314.16239,0.19006
2316.09086,0.19343
2318.01933,0.19834
2319.94780,0.20036
2321.87627,0.20003
2323.80473,0.19597
2325.73320,0.18636
2327.66167,0.17606
2329.59014,0.17288
2331.51861,0.17800
2333.44708,0.18797
2335.37555,0.20044
2337.30401,0.20567
2339.23248,0.19948
2341.16095,0.19395
2343.08942,0.19204
2345.01789,0.19059
2346.94636,0.19277
2348.87483,0.19715
2350.80330,0.20173
2352.73176,0.20690
2354.66023,0.20812
2356.58870,0.19411
2358.51717,0.16684
2360.44564,0.14086
2362.37411,0.13131
2364.30258,0.15792
2366.23104,0.20532
2368.15951,0.22312
2370.08798,0.20682
2372.01645,0.19258
2373.94492,0.19198
2375.87339,0.19430
2377.80186,0.19627
2379.73033,0.20116
2381.65879,0.20610
2383.58726,0.20719
2385.51573,0.20501
2387.44420,0.20245
2389.37267,0.20207
2391.30114,0.20320
2393.22961,0.20519
2395.15807,0.20778
2397.08654,0.20926
2399.01501,0.20803
2400.94348,0.20306
2402.87195,0.19822
2404.80042,0.19907
2406.72889,0.20397
2408.65736,0.20827
2410.58582,0.21170
2412.51429,0.21536
2414.44276,0.21674
2416.37123,0.21285
2418.29970,0.20579
2420.22817,0.20196
2422.15664,0.20472
2424.08510,0.21052
2426.01357,0.21495
2427.94204,0.21645
2429.87051,0.21491
2431.79898,0.21285
2433.72745,0.21096
2435.65592,0.20797
2437.58439,0.20655
2439.51285,0.20786
2441.44132,0.20954
2443.36979,0.20980
2445.29826,0.20775
2447.22673,0.20545
2449.15520,0.20631
2451.08367,0.20981
2453.01213,0.21297
2454.94060,0.21386
2456.86907,0.21320
2458.79754,0.21359
2460.72601,0.21313
2462.65448,0.20910
2464.58295,0.20502
2466.51142,0.20363
2468.43988,0.20466
2470.36835,0.20716
2472.29682,0.20865
2474.22529,0.20837
2476.15376,0.20732
2478.08223,0.20561
2480.01070,0.20539
2481.93916,0.20999
2483.86763,0.21514
2485.79610,0.21469
2487.72457,0.21249
2489.65304,0.21259
2491.58151,0.21165
2493.50998,0.20962
2495.43844,0.21052
2497.36691,0.21417
2499.29538,0.21699
2501.22385,0.21663
2503.15232,0.21435
2505.08079,0.21315
2507.00926,0.21336
2508.93773,0.21313
2510.86619,0.21200
2512.79466,0.21176
2514.72313,0.21366
2516.65160,0.21654
2518.58007,0.21771
2520.50854,0.21481
2522.43701,0.21095
2524.36547,0.21051
2526.29394,0.21112
2528.22241,0.21136
2530.15088,0.21284
2532.07935,0.21436
2534.00782,0.21417
2535.93629,0.21259
2537.86476,0.21034
2539.79322,0.20757
2541.72169,0.20631
2543.65016,0.20924
2545.57863,0.21412
2547.50710,0.21515
2549.43557,0.21143
2551.36404,0.20815
2553.29250,0.20876
2555.22097,0.21063
2557.14944,0.21064
2559.07791,0.21087
2561.00638,0.21405
2562.93485,0.21837
2564.86332,0.22011
2566.79179,0.21905
2568.72025,0.21666
2570.64872,0.21320
2572.57719,0.21167
2574.50566,0.21501
2576.43413,0.22036
2578.36260,0.22243
2580.29107,0.21871
2582.21953,0.21198
2584.14800,0.20768
2586.07647,0.20756
2588.00494,0.20985
2589.93341,0.21210
2591.86188,0.21302
2593.79035,0.21427
2595.71882,0.21518
2597.64728,0.21464
2599.57575,0.21591
2601.50422,0.21866
2603.43269,0.21948
2605.36116,0.21895
2607.28963,0.21989
2609.21810,0.22226
2611.14656,0.22230
2613.07503,0.21862
2615.00350,0.21442
2616.93197,0.21323
2618.86044,0.21587
2620.78891,0.21856
2622.71738,0.21756
2624.64585,0.21400
2626.57431,0.21099
2628.50278,0.21076
2630.43125,0.21335
2632.35972,0.21765
2634.28819,0.22242
2636.21666,0.22424
2638.14513,0.22113
2640.07359,0.21655
2642.00206,0.21400
2643.93053,0.21338
2645.85900,0.21500
2647.78747,0.21948
2649.71594,0.22414
2651.64441,0.22548
2653.57288,0.22209
2655.50134,0.21686
2657.42981,0.21464
2659.35828,0.21499
2661.28675,0.21552
2663.21522,0.21644
2665.14369,0.21887
2667.07216,0.22192
2669.00062,0.22103
2670.92909,0.21724
2672.85756,0.21662
2674.78603,0.21814
2676.71450,0.21974
2678.64297,0.22274
2680.57144,0.22560
2682.49990,0.22622
2684.42837,0.22449
2686.35684,0.22071
2688.28531,0.21595
2690.21378,0.21417
2692.14225,0.21725
2694.07072,0.22082
2695.99919,0.22286
2697.92765,0.22486
2699.85612,0.22555
2701.78459,0.22327
2703.71306,0.22011
2705.64153,0.21943
2707.57000,0.22185
2709.49847,0.22469
2711.42693,0.22470
2713.35540,0.22239
2715.28387,0.21878
2717.21234,0.21485
2719.14081,0.21506
2721.06928,0.21904
2722.99775,0.22053
2724.92622,0.21935
2726.85468,0.22094
2728.78315,0.22434
2730.71162,0.22241
2732.64009,0.21476
2734.56856,0.21041
2736.49703,0.21457
2738.42550,0.22278
2740.35396,0.22819
2742.28243,0.22753
2744.21090,0.22559
2746.13937,0.22521
2748.06784,0.22227
2749.99631,0.21993
2751.92478,0.22230
2753.85325,0.22546
2755.78171,0.22680
2757.71018,0.22720
2759.63865,0.22569
2761.56712,0.22195
2763.49559,0.22015
2765.42406,0.22205
2767.35253,0.22616
2769.28099,0.23090
2771.20946,0.23375
2773.13793,0.23259
2775.06640,0.22779
2776.99487,0.22443
2778.92334,0.22558
2780.85181,0.22825
2782.78028,0.22971
2784.70874,0.23219
2786.63721,0.23654
2788.56568,0.23618
2790.49415,0.22951
2792.42262,0.22373
2794.35109,0.22269
2796.27956,0.22516
2798.20802,0.22741
2800.13649,0.22643
2802.06496,0.22437
2803.99343,0.22338
2805.92190,0.22184
2807.85037,0.22022
2809.77884,0.22124
2811.70731,0.22512
2813.63577,0.22914
2815.56424,0.23150
2817.49271,0.23303
2819.42118,0.23240
2821.34965,0.22860
2823.27812,0.22605
2825.20659,0.22637
2827.13505,0.22675
2829.06352,0.22799
2830.99199,0.23046
2832.92046,0.22977
2834.84893,0.22675
2836.77740,0.22690
2838.70587,0.22997
2840.63433,0.23456
2842.56280,0.23855
2844.49127,0.23840
2846.41974,0.23639
2848.34821,0.23462
2850.27668,0.23158
2852.20515,0.22709
2854.13362,0.22365
2856.06208,0.22386
2857.99055,0.22730
2859.91902,0.23084
2861.84749,0.23094
2863.77596,0.22809
2865.70443,0.22655
2867.63290,0.22836
2869.56136,0.22867
2871.48983,0.22368
2873.41830,0.22099
2875.34677,0.22515
2877.27524,0.22884
2879.20371,0.23025
2881.13218,0.23177
2883.06065,0.22905
2884.98911,0.22402
2886.91758,0.22424
2888.84605,0.22937
2890.77452,0.23429
2892.70299,0.23445
2894.63146,0.22957
2896.55993,0.22486
2898.48839,0.22359
2900.41686,0.22444
2902.34533,0.22696
2904.27380,0.23145
2906.20227,0.23370
2908.13074,0.22848
2910.05921,0.22077
2911.98768,0.22185
2913.91614,0.23001
2915.84461,0.23384
2917.77308,0.23243
2919.70155,0.23137
2921.63002,0.22983
2923.55849,0.22582
2925.48696,0.22300
2927.41542,0.22750
2929.34389,0.23571
2931.27236,0.23730
2933.20083,0.23459
2935.12930,0.23315
2937.05777,0.23098
2938.98624,0.22935
2940.91471,0.22906
2942.84317,0.22851
2944.77164,0.22983
2946.70011,0.23317
2948.62858,0.23423
2950.55705,0.23296
2952.48552,0.23269
2954.41399,0.23079
2956.34245,0.22254
2958.27092,0.21549
2960.19939,0.22096
2962.12786,0.23143
2964.05633,0.23493
2965.98480,0.23399
2967.91327,0.23219
2969.84174,0.22906
2971.77020,0.22486
2973.69867,0.22316
2975.62714,0.22792
2977.55561,0.23527
2979.48408,0.23952
2981.41255,0.24028
2983.34102,0.23938
2985.26948,0.23750
2987.19795,0.23338
2989.12642,0.23034
2991.05489,0.23408
2992.98336,0.23999
2994.91183,0.23968
2996.84030,0.23502
2998.76877,0.23217
3000.69723,0.23042
3002.62570,0.22857
3004.55417,0.23154
3006.48264,0.23769
3008.41111,0.23853
3010.33958,0.23444
3012.26805,0.22852
3014.19651,0.21766
3016.12498,0.20519
3018.05345,0.20425
3019.98192,0.21799
3021.91039,0.23221
3023.83886,0.23668
3025.76733,0.23670
3027.69579,0.23780
3029.62426,0.23877
3031.55273,0.23839
3033.48120,0.23769
3035.40967,0.23852
3037.33814,0.24009
3039.26661,0.24125
3041.19508,0.24121
3043.12354,0.23795
3045.05201,0.23332
3046.98048,0.23304
3048.90895,0.23780
3050.83742,0.24248
3052.76589,0.24467
3054.69436,0.24230
3056.62282,0.23442
3058.55129,0.22810
3060.47976,0.22720
3062.40823,0.22887
3064.33670,0.23199
3066.26517,0.23457
3068.19364,0.23528
3070.12211,0.23550
3072.05057,0.23588
3073.97904,0.23392
3075.90751,0.22850
3077.83598,0.22476
3079.76445,0.22417
3081.69292,0.22730
3083.62139,0.23390
3085.54985,0.23709
3087.47832,0.23434
3089.40679,0.22778
3091.33526,0.22363
3093.26373,0.22684
3095.19220,0.23354
3097.12067,0.23739
3099.04914,0.23565
3100.97760,0.23080
3102.90607,0.22458
3104.83454,0.22024
3106.76301,0.22156
3108.69148,0.22667
3110.61995,0.23204
3112.54842,0.23711
3114.47688,0.24145
3116.40535,0.24269
3118.33382,0.24367
3120.26229,0.24539
3122.19076,0.24301
3124.11923,0.23787
3126.04770,0.23674
3127.97617,0.24123
3129.90463,0.24322
3131.83310,0.23822
3133.76157,0.23217
3135.69004,0.23138
3137.61851,0.23484
3139.54698,0.23582
3141.47545,0.23494
3143.40391,0.23856
3145.33238,0.24297
3147.26085,0.24167
3149.18932,0.23814
3151.11779,0.23677
3153.04626,0.23766
3154.97473,0.24069
3156.90320,0.24191
3158.83166,0.23858
3160.76013,0.23627
3162.68860,0.23794
3164.61707,0.23900
3166.54554,0.23915
3168.47401,0.24176
3170.40248,0.24509
3172.33094,0.24643
3174.25941,0.24470
3176.18788,0.24075
3178.11635,0.23807
3180.04482,0.23774
3181.97329,0.23887
3183.90176,0.24005
3185.83022,0.24130
3187.75869,0.24351
3189.68716,0.24398
3191.61563,0.24171
3193.54410,0.23717
3195.47257,0.23278
3197.40104,0.23315
3199.32951,0.23761
3201.25797,0.24243
3203.18644,0.24434
3205.11491,0.24268
3207.04338,0.23861
3208.97185,0.23447
3210.90032,0.23490
3212.82879,0.24151
3214.75725,0.24779
3216.68572,0.24861
3218.61419,0.24806
3220.54266,0.24399
3222.47113,0.23614
3224.39960,0.23392
3226.32807,0.23736
3228.25654,0.24248
3230.18500,0.24694
3232.11347,0.24710
3234.04194,0.24527
3235.97041,0.24386
3237.89888,0.24024
3239.82735,0.23544
3241.75582,0.23379
3243.68428,0.23651
3245.61275,0.23905
3247.54122,0.23880
3249.46969,0.23956
3251.39816,0.23742
3253.32663,0.23047
3255.25510,0.22973
3257.18357,0.23468
3259.11203,0.23478
3261.04050,0.23350
3262.96897,0.23749
3264.89744,0.24114
3266.82591,0.24041
3268.75438,0.23902
3270.68285,0.23766
3272.61131,0.23480
3274.53978,0.23354
3276.46825,0.23574
3278.39672,0.23607
3280.32519,0.23280
3282.25366,0.23107
3284.18213,0.23179
3286.11060,0.23350
3288.03906,0.23709
3289.96753,0.24243
3291.89600,0.24715
3293.82447,0.24751
3295.75294,0.24378
3297.68141,0.23774
3299.60988,0.23055
3301.53834,0.22716
3303.46681,0.22963
3305.39528,0.23587
3307.32375,0.24104
3309.25222,0.24048
3311.18069,0.23644
3313.10916,0.23431
3315.03763,0.23654
3316.96609,0.23975
3318.89456,0.24197
3320.82303,0.24426
3322.75150,0.24371
3324.67997,0.24208
3326.60844,0.24303
3328.53691,0.24288
3330.46537,0.24295
3332.39384,0.24642
3334.32231,0.24756
3336.25078,0.24475
3338.17925,0.24344
3340.10772,0.24441
3342.03619,0.24269
3343.96466,0.23700
3345.89312,0.23321
3347.82159,0.23485
3349.75006,0.23956
3351.67853,0.24333
3353.60700,0.24350
3355.53547,0.23826
3357.46394,0.23075
3359.39240,0.23078
3361.32087,0.23687
3363.24934,0.23932
3365.17781,0.24178
3367.10628,0.24707
3369.03475,0.24730
3370.96322,0.24287
3372.89168,0.24007
3374.82015,0.23789
3376.74862,0.23505
3378.67709,0.23677
3380.60556,0.24550
3382.53403,0.25390
3384.46250,0.25191
3386.39097,0.24268
3388.31943,0.23678
3390.24790,0.23400
3392.17637,0.23427
3394.10484,0.23788
3396.03331,0.23959
3397.96178,0.24127
3399.89025,0.24454
3401.81871,0.24490
3403.74718,0.24192
3405.67565,0.23846
3407.60412,0.23636
3409.53259,0.23570
3411.46106,0.23654
3413.38953,0.23939
3415.31800,0.23762
3417.24646,0.22932
3419.17493,0.22552
3421.10340,0.22827
3423.03187,0.23001
3424.96034,0.22794
3426.88881,0.22626
3428.81728,0.22738
3430.74574,0.22604
3432.67421,0.22133
3434.60268,0.21878
3436.53115,0.22209
3438.45962,0.23034
3440.38809,0.23987
3442.31656,0.24507
3444.24503,0.24480
3446.17349,0.24090
3448.10196,0.22998
3450.03043,0.21826
3451.95890,0.21386
3453.88737,0.21413
3455.81584,0.21671
3457.74431,0.22110
3459.67277,0.22648
3461.60124,0.22866
3463.52971,0.22284
3465.45818,0.21565
3467.38665,0.21824
3469.31512,0.22568
3471.24359,0.22684
3473.17206,0.22426
3475.10052,0.22217
3477.02899,0.21868
3478.95746,0.21573
3480.88593,0.21621
3482.81440,0.21722
3484.74287,0.21929
3486.67134,0.22410
3488.59980,0.22464
3490.52827,0.21774
3492.45674,0.21015
3494.38521,0.20792
3496.31368,0.20901
3498.24215,0.20755
3500.17062,0.20451
3502.09909,0.20318
3504.02755,0.20418
3505.95602,0.20748
3507.88449,0.20995
3509.81296,0.20800
3511.74143,0.20434
3513.66990,0.20264
3515.59837,0.20039
3517.52683,0.19728
3519.45530,0.19770
3521.38377,0.19869
3523.31224,0.19558
3525.24071,0.19577
3527.16918,0.20012
3529.09765,0.19711
3531.02611,0.19069
3532.95458,0.19145
3534.88305,0.19541
3536.81152,0.19319
3538.73999,0.18574
3540.66846,0.18385
3542.59693,0.19159
3544.52540,0.20168
3546.45386,0.20232
3548.38233,0.19393
3550.31080,0.18850
3552.23927,0.18936
3554.16774,0.19309
3556.09621,0.19443
3558.02468,0.19113
3559.95314,0.18994
3561.88161,0.19480
3563.81008,0.20207
3565.73855,0.21105
3567.66702,0.20994
3569.59549,0.19304
3571.52396,0.18314
3573.45243,0.18402
3575.38089,0.18431
3577.30936,0.18300
3579.23783,0.18295
3581.16630,0.18238
3583.09477,0.18192
3585.02324,0.17991
3586.95171,0.17446
3588.88017,0.17276
3590.80864,0.17957
3592.73711,0.18664
3594.66558,0.18062
3596.59405,0.16596
3598.52252,0.15966
3600.45099,0.16286
3602.37946,0.16989
3604.30792,0.17576
3606.23639,0.17959
3608.16486,0.17956
3610.09333,0.17571
3612.02180,0.17474
3613.95027,0.17668
3615.87874,0.17712
3617.80720,0.17501
3619.73567,0.16928
3621.66414,0.16174
3623.59261,0.15894
3625.52108,0.16303
3627.44955,0.17431
3629.37802,0.18158
3631.30649,0.17029
3633.23495,0.15720
3635.16342,0.15080
3637.09189,0.15191
3639.02036,0.15662
3640.94883,0.15811
3642.87730,0.15572
3644.80577,0.15525
3646.73423,0.16169
3648.66270,0.17348
3650.59117,0.17612
3652.51964,0.17000
3654.44811,0.16728
3656.37658,0.16599
3658.30505,0.15916
3660.23352,0.15232
3662.16198,0.15143
3664.09045,0.15497
3666.01892,0.15987
3667.94739,0.16672
3669.87586,0.17035
3671.80433,0.16513
3673.73280,0.16150
3675.66126,0.15868
3677.58973,0.15618
3679.51820,0.15685
3681.44667,0.15600
3683.37514,0.15497
3685.30361,0.15932
3687.23208,0.16914
3689.16055,0.17622
3691.08901,0.17137
3693.01748,0.16125
3694.94595,0.15327
3696.87442,0.14998
3698.80289,0.15119
3700.73136,0.14999
3702.65983,0.14357
3704.58829,0.14284
3706.51676,0.14951
3708.44523,0.16028
3710.37370,0.17239
3712.30217,0.17036
3714.23064,0.15707
3716.15911,0.14826
3718.08757,0.14447
3720.01604,0.14356
3721.94451,0.14478
3723.87298,0.14789
3725.80145,0.14802
3727.72992,0.14301
3729.65839,0.14015
3731.58686,0.14557
3733.51532,0.16040
3735.44379,0.17030
3737.37226,0.16270
3739.30073,0.15715
3741.22920,0.16249
3743.15767,0.17102
3745.08614,0.16989
3747.01460,0.16299
3748.94307,0.16865
3750.87154,0.18263
3752.80001,0.17872
3754.72848,0.16814
3756.65695,0.16274
3758.58542,0.15815
3760.51389,0.15129
3762.44235,0.14540
3764.37082,0.14591
3766.29929,0.15337
3768.22776,0.15867
3770.15623,0.15665
3772.08470,0.15111
3774.01317,0.14335
3775.94163,0.13648
3777.87010,0.13786
3779.79857,0.14210
3781.72704,0.14249
3783.65551,0.14744
3785.58398,0.15156
3787.51245,0.14519
3789.44092,0.13841
3791.36938,0.13934
3793.29785,0.14333
3795.22632,0.14676
3797.15479,0.15062
3799.08326,0.15431
3801.01173,0.15688
3802.94020,0.15506
3804.86866,0.15336
3806.79713,0.15199
3808.72560,0.14362
3810.65407,0.13750
3812.58254,0.14132
3814.51101,0.15288
3816.43948,0.16459
3818.36795,0.16808
3820.29641,0.16394
3822.22488,0.14988
3824.15335,0.13833
3826.08182,0.13596
3828.01029,0.13889
3829.93876,0.14289
3831.86723,0.14672
3833.79569,0.14853
3835.72416,0.14672
3837.65263,0.14853
3839.58110,0.15757
3841.50957,0.16322
3843.43804,0.16049
3845.36651,0.14975
3847.29498,0.13895
3849.22344,0.13651
3851.15191,0.14319
3853.08038,0.14741
3855.00885,0.13696
3856.93732,0.13111
3858.86579,0.13088
3860.79426,0.13239
3862.72272,0.13594
3864.65119,0.14032
3866.57966,0.14368
3868.50813,0.14967
3870.43660,0.15347
3872.36507,0.14227
3874.29354,0.12916
3876.22200,0.12922
3878.15047,0.13718
3880.07894,0.14621
3882.00741,0.15001
3883.93588,0.14660
3885.86435,0.14088
3887.79282,0.13839
3889.72129,0.13959
3891.64975,0.13886
3893.57822,0.13172
3895.50669,0.12648
3897.43516,0.12949
3899.36363,0.14004
3901.29210,0.15007
3903.22057,0.15018
3905.14903,0.14366
3907.07750,0.13450
3909.00597,0.12305
3910.93444,0.11517
3912.86291,0.11364
3914.79138,0.11612
3916.71985,0.12333
3918.64832,0.13534
3920.57678,0.14317
3922.50525,0.13879
3924.43372,0.12782
3926.36219,0.12355
3928.29066,0.12790
3930.21913,0.13156
3932.14760,0.12985
3934.07606,0.12475
3936.00453,0.11941
3937.93300,0.11856
3939.86147,0.12242
3941.78994,0.12846
3943.71841,0.13286
3945.64688,0.13231
3947.57535,0.13120
3949.50381,0.13250
3951.43228,0.13362
3953.36075,0.12921
3955.28922,0.12218
3957.21769,0.11978
3959.14616,0.11921
3961.07463,0.11761
3963.00309,0.11497
3964.93156,0.11261
3966.86003,0.11300
3968.78850,0.11429
3970.71697,0.11439
3972.64544,0.11333
3974.57391,0.11407
3976.50238,0.11994
3978.43084,0.12804
3980.35931,0.12999
3982.28778,0.12517
3984.21625,0.12266
3986.14472,0.12155
3988.07319,0.11788
3990.00166,0.11777
3991.93012,0.11981
3993.85859,0.11787
3995.78706,0.11816
3997.71553,0.12402
3999.64400,0.12957
4001.57247,0.12987
4003.50094,0.12257
4005.42941,0.11479
4007.35787,0.11567
4009.28634,0.12115
4011.21481,0.12385
4013.14328,0.12261
4015.07175,0.11756
4017.00022,0.11199
4018.92869,0.11020
4020.85715,0.11163
4022.78562,0.11546
4024.71409,0.11936
4026.64256,0.11843
4028.57103,0.11245
4030.49950,0.10553
4032.42797,0.10332
4034.35644,0.10856
4036.28490,0.11753
4038.21337,0.12396
4040.14184,0.12072
4042.07031,0.11024
4043.99878,0.10564
4045.92725,0.10998
4047.85572,0.11193
4049.78418,0.10692
4051.71265,0.10587
4053.64112,0.11201
4055.56959,0.11386
4057.49806,0.10959
4059.42653,0.10648
4061.35500,0.10485
4063.28346,0.10437
4065.21193,0.10765
4067.14040,0.11279
4069.06887,0.11461
4070.99734,0.10927
4072.92581,0.10111
4074.85428,0.09904
4076.78275,0.10375
4078.71121,0.10802
4080.63968,0.10457
4082.56815,0.09865
4084.49662,0.10089
4086.42509,0.10579
4088.35356,0.10486
4090.28203,0.10480
4092.21049,0.10993
4094.13896,0.11418
4096.06743,0.11634
4097.99590,0.11865
4099.92437,0.11806
4101.85284,0.11315
4103.78131,0.10763
4105.70978,0.10180
4107.63824,0.09777
4109.56671,0.10188
4111.49518,0.10938
4113.42365,0.11115
4115.35212,0.10752
4117.28059,0.10188
4119.20906,0.09653
4121.13752,0.09349
4123.06599,0.09313
4124.99446,0.09614
4126.92293,0.10277
4128.85140,0.10867
4130.77987,0.10768
4132.70834,0.09992
4134.63681,0.09289
4136.56527,0.09435
4138.49374,0.10291
4140.42221,0.10743
4142.35068,0.10420
4144.27915,0.10243
4146.20762,0.10512
4148.13609,0.10614
4150.06455,0.10314
4151.99302,0.09604
4153.92149,0.08690
4155.84996,0.08406
4157.77843,0.08748
4159.70690,0.08839
4161.63537,0.08699
4163.56384,0.08760
4165.49230,0.08813
4167.42077,0.08537
4169.34924,0.08521
4171.27771,0.09326
4173.20618,0.10182
4175.13465,0.10523
4177.06312,0.10420
4178.99158,0.09761
4180.92005,0.09007
4182.84852,0.08874
4184.77699,0.09107
4186.70546,0.09225
4188.63393,0.09085
4190.56240,0.08587
4192.49087,0.08234
4194.41933,0.08346
4196.34780,0.08500
4198.27627,0.08667
4200.20474,0.08858
4202.13321,0.08787
4204.06168,0.08604
4205.99015,0.08594
4207.91861,0.08406
4209.84708,0.07917
4211.77555,0.08071
4213.70402,0.08972
4215.63249,0.09518
4217.56096,0.09696
4219.48943,0.09877
4221.41789,0.09431
4223.34636,0.08353
4225.27483,0.07282
4227.20330,0.06529
4229.13177,0.06609
4231.06024,0.07574
4232.98871,0.08737
4234.91718,0.09204
4236.84564,0.08635
4238.77411,0.07900
4240.70258,0.07666
4242.63105,0.07833
4244.55952,0.08265
4246.48799,0.08726
4248.41646,0.08913
4250.34492,0.08694
4252.27339,0.08147
4254.20186,0.07601
4256.13033,0.07285
4258.05880,0.07126
4259.98727,0.07161
4261.91574,0.07138
4263.84421,0.06802
4265.77267,0.06604
4267.70114,0.06757
4269.62961,0.07207
4271.55808,0.07680
4273.48655,0.07586
4275.41502,0.07343
4277.34349,0.07698
4279.27195,0.08163
4281.20042,0.08084
4283.12889,0.07604
4285.05736,0.07083
4286.98583,0.07059
4288.91430,0.07703
4290.84277,0.08280
4292.77124,0.08423
4294.69970,0.08109
4296.62817,0.06929
4298.55664,0.05384
4300.48511,0.04551
4302.41358,0.04472
4304.34205,0.04793
4306.27052,0.05247
4308.19898,0.05813
4310.12745,0.06239
4312.05592,0.05768
4313.98439,0.04828
4315.91286,0.04463
4317.84133,0.04911
4319.76980,0.05748
4321.69827,0.06266
4323.62673,0.06267
4325.55520,0.05889
4327.48367,0.05486
4329.41214,0.05362
4331.34061,0.05373
4333.26908,0.05577
4335.19755,0.06075
4337.12601,0.06368
4339.05448,0.05891
4340.98295,0.04735
4342.91142,0.03781
4344.83989,0.03888
4346.76836,0.04603
4348.69683,0.05164
4350.62530,0.05579
4352.55376,0.05855
4354.48223,0.05901
4356.41070,0.05673
4358.33917,0.05116
4360.26764,0.04451
4362.19611,0.04336
4364.12458,0.04876
4366.05304,0.05383
4367.98151,0.05451
4369.90998,0.04817
4371.83845,0.03789
4373.76692,0.03205
4375.69539,0.03263
4377.62386,0.03809
4379.55232,0.04483
4381.48079,0.04955
4383.40926,0.05282
4385.33773,0.05160
4387.26620,0.04453
4389.19467,0.03655
4391.12314,0.03207
4393.05161,0.03370
4394.98007,0.03747
4396.90854,0.03981
4398.83701,0.04222
4400.76548,0.04116
4402.69395,0.03548
4404.62242,0.02921
4406.55089,0.02618
4408.47935,0.03064
4410.40782,0.04035
4412.33629,0.04889
4414.26476,0.05179
4416.19323,0.04737
4418.12170,0.04203
4420.05017,0.03786
4421.97864,0.03187
4423.90710,0.03409
4425.83557,0.04657
4427.76404,0.05085
4429.69251,0.04000
4431.62098,0.02786
4433.54945,0.02512
4435.47792,0.02803
4437.40638,0.03228
4439.33485,0.03603
4441.26332,0.03631
4443.19179,0.03516
4445.12026,0.03340
4447.04873,0.03314
4448.97720,0.03570
4450.90567,0.03475
4452.83413,0.03309
4454.76260,0.03409
4456.69107,0.03106
4458.61954,0.02721
4460.54801,0.02848
4462.47648,0.02550
4464.40495,0.01690
4466.33341,0.01773
4468.26188,0.02985
4470.19035,0.04046
4472.11882,0.04087
4474.04729,0.03424
4475.97576,0.02665
4477.90423,0.01749
4479.83270,0.01079
4481.76116,0.01439
4483.68963,0.02398
4485.61810,0.03024
4487.54657,0.03028
4489.47504,0.02255
4491.40351,0.01234
4493.33198,0.00830
4495.26044,0.00928
4497.18891,0.01578
4499.11738,0.03028
4501.04585,0.04281
4502.97432,0.03915
4504.90279,0.02469
4506.83126,0.01765
4508.75973,0.02270
4510.68819,0.02860
4512.61666,0.02771
4514.54513,0.03018
4516.47360,0.03861
4518.40207,0.03716
4520.33054,0.02563
4522.25901,0.01784
4524.18747,0.01888
4526.11594,0.02729
4528.04441,0.03514
4529.97288,0.03538
4531.90135,0.03165
4533.82982,0.02648
4535.75829,0.02122
4537.68676,0.01452
4539.61522,0.00415
4541.54369,0.00129
4543.47216,0.01180
4545.40063,0.02351
4547.32910,0.02766
4549.25757,0.02855
4551.18604,0.02895
4553.11450,0.02629
4555.04297,0.02581
4556.97144,0.03326
4558.89991,0.04165
4560.82838,0.04366
4562.75685,0.04107
4564.68532,0.03594
4566.61378,0.02629
4568.54225,0.01323
4570.47072,0.00682
4572.39919,0.01374
4574.32766,0.02272
4576.25613,0.02205
4578.18460,0.01702
4580.11307,0.01028
4582.04153,-0.00184
4583.97000,-0.01120
4585.89847,-0.00889
4587.82694,0.00265
4589.75541,0.01349
4591.68388,0.01962
4593.61235,0.02574
4595.54081,0.02809
4597.46928,0.02362
4599.39775,0.01914
4601.32622,0.01842
4603.25469,0.02009
4605.18316,0.02209
4607.11163,0.02490
4609.04010,0.02733
4610.96856,0.02845
4612.89703,0.03086
4614.82550,0.03199
4616.75397,0.02964
4618.68244,0.02598
4620.61091,0.02138
4622.53938,0.01681
4624.46784,0.01493
4626.39631,0.01445
4628.32478,0.01072
4630.25325,0.00904
4632.18172,0.01675
4634.11019,0.02523
4636.03866,0.02791
4637.96713,0.03128
4639.89559,0.03136
4641.82406,0.01806
4643.75253,-0.00159
4645.68100,-0.01327
4647.60947,-0.01029
4649.53794,0.00112
4651.46641,0.00788
4653.39487,0.00482
4655.32334,-0.00380
4657.25181,-0.00756
4659.18028,-0.00004
4661.10875,0.01137
4663.03722,0.01596
4664.96569,0.01491
4666.89416,0.01256
4668.82262,0.01010
4670.75109,0.00675
4672.67956,0.00037
4674.60803,-0.00314
4676.53650,-0.00320
4678.46497,-0.00078
4680.39344,0.01184
4682.32190,0.02835
4684.25037,0.03134
4686.17884,0.01490
4688.10731,0.00023
4690.03578,0.00658
4691.96425,0.01847
4693.89272,0.02405
4695.82119,0.02826
4697.74965,0.02555
4699.67812,0.01451
4701.60659,0.00959
4703.53506,0.01403
4705.46353,0.01646
4707.39200,0.01751
4709.32047,0.02697
4711.24893,0.03824
4713.17740,0.03666
4715.10587,0.02241
4717.03434,0.00614
4718.96281,-0.00235
4720.89128,0.00099
4722.81975,0.01315
4724.74821,0.02130
4726.67668,0.01952
4728.60515,0.01298
4730.53362,0.00115
4732.46209,-0.00969
4734.39056,-0.01251
4736.31903,-0.00722
4738.24750,0.01286
4740.17596,0.03563
4742.10443,0.03837
4744.03290,0.02569
4745.96137,0.01142
4747.88984,0.00186
4749.81831,-0.00088
4751.74678,-0.00146
4753.67524,0.00190
4755.60371,0.01528
4757.53218,0.02805
4759.46065,0.02612
4761.38912,0.01366
4763.31759,0.00038
4765.24606,-0.00325
4767.17453,0.00794
4769.10299,0.01845
4771.03146,0.01893
4772.95993,0.01335
4774.88840,0.00233
4776.81687,-0.00632
4778.74534,-0.00103
4780.67381,0.01674
4782.60227,0.02585
4784.53074,0.01894
4786.45921,0.01596
4788.38768,0.01558
4790.31615,0.00790
4792.24462,0.00768
4794.17309,0.01478
4796.10156,0.01636
4798.03002,0.02056
4799.95849,0.02492
4801.88696,0.01992
4803.81543,0.00863
4805.74390,-0.01105
4807.67237,-0.02371
4809.60084,-0.01417
4811.52930,-0.00210
4813.45777,0.00419
4815.38624,0.01361
4817.31471,0.01724
4819.24318,0.00420
4821.17165,-0.00957
4823.10012,-0.00891
4825.02859,-0.00210
4826.95705,0.00374
4828.88552,0.01117
4830.81399,0.02122
4832.74246,0.02722
4834.67093,0.02089
4836.59940,0.00596
4838.52787,-0.00385
4840.45633,-0.00001
4842.38480,0.00977
4844.31327,0.01587
4846.24174,0.01852
4848.17021,0.01730
4850.09868,0.01020
4852.02715,0.00281
4853.95562,-0.00063
4855.88408,-0.00851
4857.81255,-0.02025
4859.74102,-0.02001
4861.66949,-0.00960
4863.59796,-0.00624
4865.52643,-0.00909
4867.45490,-0.00984
4869.38336,-0.00999
4871.31183,-0.00423
4873.24030,0.01426
4875.16877,0.03150
4877.09724,0.03340
4879.02571,0.02609
4880.95418,0.01579
4882.88265,0.00765
4884.81111,0.00891
4886.73958,0.01529
4888.66805,0.02100
4890.59652,0.02501
4892.52499,0.01825
4894.45346,0.00197
4896.38193,-0.01286
4898.31039,-0.02658
4900.23886,-0.03319
4902.16733,-0.01810
4904.09580,0.01240
4906.02427,0.02830
4907.95274,0.01865
4909.88121,0.00300
4911.80967,-0.00751
4913.73814,-0.00970
4915.66661,0.00412
4917.59508,0.02464
4919.52355,0.03080
4921.45202,0.02297
4923.38049,0.01124
4925.30896,0.00024
4927.23742,0.00025
4929.16589,0.01304
4931.09436,0.02663
4933.02283,0.03130
4934.95130,0.02800
4936.87977,0.01987
4938.80824,0.01060
4940.73670,0.00782
4942.66517,0.01181
4944.59364,0.01689
4946.52211,0.01884
4948.45058,0.02011
4950.37905,0.02526
4952.30752,0.02668
4954.23599,0.01852
4956.16445,0.01143
4958.09292,0.00912
4960.02139,0.00173
4961.94986,-0.00427
4963.87833,0.00443
4965.80680,0.01138
4967.73527,0.00398
4969.66373,0.00055
4971.59220,0.00225
4973.52067,-0.00057
4975.44914,0.00459
4977.37761,0.01946
4979.30608,0.02885
4981.23455,0.02246
4983.16302,0.01098
4985.09148,0.01433
4987.01995,0.02248
4988.94842,0.01935
4990.87689,0.01298
4992.80536,0.01772
4994.73383,0.03440
4996.66230,0.04297
4998.59076,0.03544
5000.51923,0.02607
5002.44770,0.01830
5004.37617,0.01211
5006.30464,0.01256
5008.23311,0.01169
5010.16158,-0.00110
5012.09005,-0.01302
5014.01851,-0.00918
5015.94698,0.00323
5017.87545,0.01716
5019.80392,0.03340
5021.73239,0.04528
5023.66086,0.04506
5025.58933,0.03272
5027.51779,0.01309
5029.44626,-0.00132
5031.37473,-0.00049
5033.30320,0.00920
5035.23167,0.01802
5037.16014,0.02531
5039.08861,0.02639
5041.01708,0.01833
5042.94554,0.01261
5044.87401,0.01300
5046.80248,0.01522
5048.73095,0.01920
5050.65942,0.02236
5052.58789,0.02618
5054.51636,0.02802
5056.44482,0.01338
5058.37329,-0.01010
5060.30176,-0.01264
5062.23023,0.01234
5064.15870,0.04357
5066.08717,0.05714
5068.01564,0.04393
5069.94410,0.02054
5071.87257,0.00794
5073.80104,0.00831
5075.72951,0.01415
5077.65798,0.02200
5079.58645,0.02899
5081.51492,0.03209
5083.44339,0.03258
5085.37185,0.02736
5087.30032,0.01481
5089.22879,0.00650
5091.15726,0.01107
5093.08573,0.02247
5095.01420,0.03306
5096.94267,0.04682
5098.87113,0.05458
5100.79960,0.03818
5102.72807,0.01765
5104.65654,0.01677
5106.58501,0.02447
5108.51348,0.03032
5110.44195,0.04002
5112.37042,0.04621
5114.29888,0.03319
5116.22735,0.01638
5118.15582,0.01922
5120.08429,0.03493
5122.01276,0.05080
5123.94123,0.06438
5125.86970,0.06576
5127.79816,0.05570
5129.72663,0.05561
5131.65510,0.06016
5133.58357,0.04614
5135.51204,0.02838
5137.44051,0.02506
5139.36898,0.01972
5141.29745,0.01514
5143.22591,0.02331
5145.15438,0.02501
5147.08285,0.01211
5149.01132,-0.00123
5150.93979,-0.00396
5152.86826,0.00484
5154.79673,0.01471
5156.72519,0.01976
5158.65366,0.02123
5160.58213,0.01553
5162.51060,0.00903
5164.43907,0.01166
5166.36754,0.01857
5168.29601,0.02997
5170.22448,0.05017
5172.15294,0.07071
5174.08141,0.07505
5176.00988,0.05939
5177.93835,0.04375
5179.86682,0.03844
5181.79529,0.03150
5183.72376,0.02739
5185.65222,0.03697
5187.58069,0.04386
5189.50916,0.04087
5191.43763,0.03826
5193.36610,0.03176
5195.29457,0.02289
5197.22304,0.02419
5199.15151,0.02692
5201.07997,0.01841
5203.00844,0.01398
5204.93691,0.02839
5206.86538,0.04193
5208.79385,0.03920
5210.72232,0.04076
5212.65079,0.04920
5214.57925,0.04987
5216.50772,0.03939
5218.43619,0.03587
5220.36466,0.04774
5222.29313,0.05121
5224.22160,0.03881
5226.15007,0.02120
5228.07854,0.01404
5230.00700,0.02807
5231.93547,0.04928
5233.86394,0.05562
5235.79241,0.04541
5237.72088,0.04136
5239.64935,0.04951
5241.57782,0.05160
5243.50628,0.04942
5245.43475,0.05332
5247.36322,0.05453
5249.29169,0.04020
5251.22016,0.01991
5253.14863,0.01196
5255.07710,0.01213
5257.00556,0.01886
5258.93403,0.04547
5260.86250,0.07886
5262.79097,0.08195
5264.71944,0.05496
5266.64791,0.03373
5268.57638,0.01526
5270.50485,-0.00034
5272.43331,0.01214
5274.36178,0.03506
5276.29025,0.04410
5278.21872,0.04764
5280.14719,0.04758
5282.07566,0.03545
5284.00413,0.01929
5285.93259,0.01312
5287.86106,0.01702
5289.78953,0.02327
5291.71800,0.02034
5293.64647,0.01159
5295.57494,0.01139
5297.50341,0.01805
5299.43188,0.02023
5301.36034,0.01816
5303.28881,0.02949
5305.21728,0.05477
5307.14575,0.07210
5309.07422,0.07355
5311.00269,0.06984
5312.93116,0.06422
5314.85962,0.05506
5316.78809,0.05224
5318.71656,0.05393
5320.64503,0.04936
5322.57350,0.04526
5324.50197,0.04828
5326.43044,0.06033
5328.35891,0.07420
5330.28737,0.07526
5332.21584,0.07589
5334.14431,0.09281
5336.07278,0.11352
5338.00125,0.12501
5339.92972,0.12577
5341.85819,0.11390
5343.78665,0.09309
5345.71512,0.07774
5347.64359,0.07708
5349.57206,0.08458
5351.50053,0.08750
5353.42900,0.08871
5355.35747,0.09348
5357.28594,0.08290
5359.21440,0.06636
5361.14287,0.06627
5363.07134,0.06814
5364.99981,0.05927
5366.92828,0.05706
5368.85675,0.06705
5370.78522,0.06767
5372.71368,0.05410
5374.64215,0.05559
5376.57062,0.06978
5378.49909,0.07286
5380.42756,0.08597
5382.35603,0.10489
5384.28450,0.09707
5386.21297,0.06862
5388.14143,0.06345
5390.06990,0.08170
5391.99837,0.08552
5393.92684,0.07103
5395.85531,0.05485
5397.78378,0.03338
5399.71225,0.02196
5401.64071,0.03283
5403.56918,0.04609
5405.49765,0.04282
5407.42612,0.03314
5409.35459,0.02866
5411.28306,0.03404
5413.21153,0.06234
5415.13999,0.08959
5417.06846,0.09182
5418.99693,0.08559
5420.92540,0.08086
5422.85387,0.07414
5424.78234,0.06630
5426.71081,0.06310
5428.63928,0.05532
5430.56774,0.03474
5432.49621,0.02500
5434.42468,0.04379
5436.35315,0.07298
5438.28162,0.08088
5440.21009,0.06437
5442.13856,0.05197
5444.06702,0.05184
5445.99549,0.04660
5447.92396,0.04381
5449.85243,0.04708
5451.78090,0.05787
5453.70937,0.08055
5455.63784,0.09665
5457.56631,0.09772
5459.49477,0.08790
5461.42324,0.07190
5463.35171,0.07033
5465.28018,0.08379
5467.20865,0.09400
5469.13712,0.09617
5471.06559,0.09443
5472.99405,0.08048
5474.92252,0.05789
5476.85099,0.05773
5478.77946,0.07108
5480.70793,0.07546
5482.63640,0.07536
5484.56487,0.08152
5486.49334,0.10787
5488.42180,0.13422
5490.35027,0.11756
5492.27874,0.07897
5494.20721,0.06823
5496.13568,0.07689
5498.06415,0.08299
5499.99262,0.07770
5501.92108,0.06644
5503.84955,0.07517
5505.77802,0.10337
5507.70649,0.10750
5509.63496,0.07122
5511.56343,0.04535
5513.49190,0.06204
5515.42037,0.08391
5517.34883,0.08486
5519.27730,0.08576
5521.20577,0.08323
5523.13424,0.06469
5525.06271,0.05913
5526.99118,0.07460
5528.91965,0.08593
5530.84811,0.08924
5532.77658,0.08179
5534.70505,0.06099
5536.63352,0.05067
5538.56199,0.07082
5540.49046,0.10456
5542.41893,0.12005
5544.34740,0.12102
5546.27586,0.12487
5548.20433,0.10724
5550.13280,0.06450
5552.06127,0.03953
5553.98974,0.04563
5555.91821,0.06132
5557.84668,0.06680
5559.77514,0.06657
5561.70361,0.09036
5563.63208,0.11231
5565.56055,0.10269
5567.48902,0.10147
5569.41749,0.10401
5571.34596,0.09231
5573.27443,0.07940
5575.20289,0.06152
5577.13136,0.04911
5579.05983,0.05638
5580.98830,0.08281
5582.91677,0.09793
5584.84524,0.08045
5586.77371,0.06389
5588.70217,0.07239
5590.63064,0.08779
5592.55911,0.08904
5594.48758,0.08152
5596.41605,0.07846
5598.34452,0.08442
5600.27299,0.09562
5602.20145,0.10440
5604.12992,0.11111
5606.05839,0.11292
5607.98686,0.09161
5609.91533,0.04430
5611.84380,0.00625
5613.77227,0.01838
5615.70074,0.07904
5617.62920,0.13024
5619.55767,0.12334
5621.48614,0.09492
5623.41461,0.09709
5625.34308,0.11304
5627.27155,0.11161
5629.20002,0.10447
5631.12848,0.10988
5633.05695,0.11716
5634.98542,0.11184
5636.91389,0.11119
5638.84236,0.11444
5640.77083,0.09389
5642.69930,0.06191
5644.62777,0.04839
5646.55623,0.07061
5648.48470,0.11349
5650.41317,0.13712
5652.34164,0.13140
5654.27011,0.11408
5656.19858,0.09553
5658.12705,0.08043
5660.05551,0.07022
5661.98398,0.05954
5663.91245,0.05665
5665.84092,0.05759
5667.76939,0.04660
5669.69786,0.04384
5671.62633,0.06704
5673.55480,0.09601
5675.48326,0.10993
5677.41173,0.11047
5679.34020,0.11467
5681.26867,0.12055
5683.19714,0.10434
5685.12561,0.07216
5687.05408,0.05073
5688.98254,0.06411
5690.91101,0.11128
5692.83948,0.14190
5694.76795,0.13597
5696.69642,0.11247
5698.62489,0.08333
5700.55336,0.07243
5702.48183,0.07720
5704.41029,0.08001
5706.33876,0.09428
5708.26723,0.11015
5710.19570,0.09661
5712.12417,0.06873
5714.05264,0.06397
5715.98111,0.07849
5717.90957,0.07519
5719.83804,0.05467
5721.76651,0.06597
5723.69498,0.10513
5725.62345,0.11401
5727.55192,0.08869
5729.48039,0.06868
5731.40886,0.05275
5733.33732,0.03971
5735.26579,0.05859
5737.19426,0.09240
5739.12273,0.10980
5741.05120,0.12537
5742.97967,0.13057
5744.90814,0.10444
5746.83660,0.07589
5748.76507,0.07434
5750.69354,0.08456
5752.62201,0.09931
5754.55048,0.11152
5756.47895,0.09864
5758.40742,0.07273
5760.33588,0.04753
5762.26435,0.02149
5764.19282,0.00327
5766.12129,0.00415
5768.04976,0.02371
5769.97823,0.03487
5771.90670,0.02761
5773.83517,0.01681
5775.76363,-0.00692
5777.69210,-0.01872
5779.62057,0.01911
5781.54904,0.07092
5783.47751,0.09973
5785.40598,0.11111
5787.33445,0.10927
5789.26291,0.08851
5791.19138,0.05722
5793.11985,0.04751
5795.04832,0.05358
5796.97679,0.03221
5798.90526,0.02026
5800.83373,0.06842
5802.76220,0.12305
5804.69066,0.12183
5806.61913,0.08143
5808.54760,0.05350
5810.47607,0.05794
5812.40454,0.07695
5814.33301,0.07236
5816.26148,0.03297
5818.18994,0.01540
5820.11841,0.03236
5822.04688,0.02528
5823.97535,0.01853
5825.90382,0.05328
5827.83229,0.09907
5829.76076,0.12434
5831.68923,0.11435
5833.61769,0.08720
5835.54616,0.08872
5837.47463,0.10619
5839.40310,0.09998
5841.33157,0.08606
5843.26004,0.09404
5845.18851,0.10302
5847.11697,0.09250
5849.04544,0.08407
5850.97391,0.08073
5852.90238,0.06720
5854.83085,0.05791
5856.75932,0.07519
5858.68779,0.10384
5860.61626,0.09866
5862.54472,0.06159
5864.47319,0.01799
5866.40166,-0.01975
5868.33013,-0.01481
5870.25860,0.02629
5872.18707,0.06199
5874.11554,0.09126
5876.04400,0.11663
5877.97247,0.13328
5879.90094,0.14256
5881.82941,0.15032
5883.75788,0.16038
5885.68635,0.15682
5887.61482,0.13297
5889.54329,0.11143
5891.47175,0.09714
5893.40022,0.07497
5895.32869,0.05820
5897.25716,0.06390
5899.18563,0.09268
5901.11410,0.14219
5903.04257,0.18050
5904.97103,0.16831
5906.89950,0.12388
5908.82797,0.08736
5910.75644,0.06805
5912.68491,0.05936
5914.61338,0.06180
5916.54185,0.07176
5918.47032,0.07299
5920.39878,0.07266
5922.32725,0.08501
5924.25572,0.09021
5926.18419,0.08560
5928.11266,0.09193
5930.04113,0.11266
5931.96960,0.13186
5933.89806,0.15399
5935.82653,0.16825
5937.75500,0.13757
5939.68347,0.09044
5941.61194,0.06471
5943.54041,0.06026
5945.46888,0.07172
5947.39734,0.09315
5949.32581,0.11730
5951.25428,0.14636
5953.18275,0.17481
5955.11122,0.16920
5957.03969,0.15241
5958.96816,0.16939
5960.89663,0.19754
5962.82509,0.21129
5964.75356,0.19884
5966.68203,0.15724
5968.61050,0.12452
5970.53897,0.10809
5972.46744,0.08135
5974.39591,0.08094
5976.32437,0.11884
5978.25284,0.14079
5980.18131,0.14359
5982.10978,0.14189
5984.03825,0.11652
5985.96672,0.07063
5987.89519,0.04456
5989.82366,0.06327
5991.75212,0.08712
5993.68059,0.09703
5995.60906,0.13304
5997.53753,0.15741
5999.46600,0.12522
6001.39447,0.06832
6003.32294,0.04641
6005.25140,0.09421
6007.17987,0.14116
6009.10834,0.13543
6011.03681,0.11150
6012.96528,0.08891
6014.89375,0.05720
6016.82222,0.01259
6018.75069,-0.00694
6020.67915,0.03881
6022.60762,0.10608
6024.53609,0.14338
6026.46456,0.16774
6028.39303,0.15175
6030.32150,0.06952
6032.24997,0.01334
6034.17843,0.03617
6036.10690,0.09349
6038.03537,0.13935
6039.96384,0.16826
6041.89231,0.17483
6043.82078,0.15769
6045.74925,0.14895
6047.67772,0.15633
6049.60618,0.15303
6051.53465,0.12325
6053.46312,0.08875
6055.39159,0.06408
6057.32006,0.03594
6059.24853,0.02562
6061.17700,0.04796
6063.10546,0.08083
6065.03393,0.09413
6066.96240,0.07757
6068.89087,0.08060
6070.81934,0.12826
6072.74781,0.18053
6074.67628,0.20092
6076.60475,0.18696
6078.53321,0.16224
6080.46168,0.11870
6082.39015,0.05411
6084.31862,0.03337
6086.24709,0.09930
6088.17556,0.16995
6090.10403,0.15112
6092.03249,0.06392
6093.96096,-0.00443
6095.88943,-0.00205
6097.81790,0.03670
6099.74637,0.07112
6101.67484,0.08171
6103.60331,0.05640
6105.53177,0.03475
6107.46024,0.05976
6109.38871,0.10843
6111.31718,0.15060
6113.24565,0.18698
6115.17412,0.17302
6117.10259,0.09017
6119.03106,0.02128
6120.95952,0.00037
6122.88799,-0.03153
6124.81646,-0.07541
6126.74493,-0.08392
6128.67340,-0.02859
6130.60187,0.06010
6132.53034,0.10979
6134.45880,0.09495
6136.38727,0.05095
6138.31574,0.03361
6140.24421,0.05221
6142.17268,0.06604
6144.10115,0.08445
6146.02962,0.09833
6147.95809,0.07812
6149.88655,0.05678
6151.81502,0.04649
6153.74349,0.03642
6155.67196,0.02703
6157.60043,0.02248
6159.52890,0.06239
6161.45737,0.13791
6163.38583,0.17286
6165.31430,0.16518
6167.24277,0.14553
6169.17124,0.10054
6171.09971,0.07770
6173.02818,0.11884
6174.95665,0.16765
6176.88512,0.19256
6178.81358,0.17833
6180.74205,0.13163
6182.67052,0.08154
6184.59899,0.02950
6186.52746,0.02425
6188.45593,0.07711
6190.38440,0.09999
6192.31286,0.07757
6194.24133,0.06141
6196.16980,0.10724
6198.09827,0.19629
6200.02674,0.22262
6201.95521,0.17394
6203.88368,0.14326
6205.81215,0.14764
6207.74061,0.13171
6209.66908,0.09255
6211.59755,0.03459
6213.52602,-0.01340
6215.45449,-0.00229
6217.38296,0.04942
6219.31143,0.07227
6221.23989,0.04222
6223.16836,0.02148
6225.09683,0.05806
6227.02530,0.10394
6228.95377,0.11070
6230.88224,0.06036
6232.81071,0.01083
6234.73918,0.05356
6236.66764,0.13606
6238.59611,0.16180
6240.52458,0.10459
6242.45305,0.02435
6244.38152,0.04128
6246.30999,0.13460
6248.23846,0.16657
6250.16692,0.11763
6252.09539,0.05984
6254.02386,0.04415
6255.95233,0.05884
6257.88080,0.06968
6259.80927,0.08832
6261.73774,0.10605
6263.66621,0.07854
6265.59467,0.03441
6267.52314,0.02870
6269.45161,0.03485
6271.38008,0.03199
6273.30855,0.02995
6275.23702,0.00807
6277.16549,-0.01824
6279.09395,0.02379
6281.02242,0.09264
6282.95089,0.08691
6284.87936,0.05222
6286.80783,0.07936
6288.73630,0.14397
6290.66477,0.20245
6292.59323,0.21720
6294.52170,0.16328
6296.45017,0.10831
6298.37864,0.06872
6300.30711,-0.00597
6302.23558,-0.03634
6304.16405,0.03773
6306.09252,0.11266
6308.02098,0.11208
6309.94945,0.06463
6311.87792,0.01392
6313.80639,-0.02191
6315.73486,-0.01458
6317.66333,0.04131
6319.59180,0.11145
6321.52026,0.14105
6323.44873,0.11798
6325.37720,0.10043
6327.30567,0.11985
6329.23414,0.15167
6331.16261,0.14424
6333.09108,0.09619
6335.01955,0.08697
6336.94801,0.13415
6338.87648,0.15397
6340.80495,0.13151
6342.73342,0.13382
6344.66189,0.15610
6346.59036,0.13689
6348.51883,0.09853
6350.44729,0.10279
6352.37576,0.13006
6354.30423,0.15066
6356.23270,0.16413
6358.16117,0.17107
6360.08964,0.18027
6362.01811,0.16560
6363.94658,0.10709
6365.87504,0.05725
6367.80351,0.04741
6369.73198,0.05940
6371.66045,0.07197
6373.58892,0.05321
6375.51739,0.03351
6377.44586,0.04236
6379.37432,0.05986
6381.30279,0.08404
6383.23126,0.11140
6385.15973,0.09799
6387.08820,0.02889
6389.01667,-0.04164
6390.94514,-0.05490
6392.87361,0.01221
6394.80207,0.10132
6396.73054,0.13600
6398.65901,0.11661
6400.58748,0.08207
6402.51595,0.09187
6404.44442,0.10542
6406.37289,0.06869
6408.30135,0.05952
6410.22982,0.09524
6412.15829,0.11485
6414.08676,0.14309
6416.01523,0.17815
6417.94370,0.14749
6419.87217,0.06601
6421.80064,0.00480
6423.72910,-0.02994
6425.65757,-0.02975
6427.58604,-0.01013
6429.51451,-0.00836
6431.44298,-0.00595
6433.37145,0.02631
6435.29992,0.08299
6437.22838,0.13392
6439.15685,0.14866
6441.08532,0.16105
6443.01379,0.19925
6444.94226,0.20735
6446.87073,0.13087
6448.79920,0.04822
6450.72766,0.03928
6452.65613,0.01522
6454.58460,-0.06963
6456.51307,-0.11370
6458.44154,-0.05136
6460.37001,0.04183
6462.29848,0.07724
6464.22695,0.04623
6466.15541,-0.01216
6468.08388,-0.03176
6470.01235,0.01659
6471.94082,0.09612
6473.86929,0.18315
6475.79776,0.24086
6477.72623,0.20327
6479.65469,0.11527
6481.58316,0.08080
6483.51163,0.07781
6485.44010,0.07033
6487.36857,0.09588
6489.29704,0.13683
6491.22551,0.14236
6493.15398,0.10201
6495.08244,0.02437
6497.01091,-0.03320
6498.93938,-0.00533
6500.86785,0.05395
6502.79632,0.06207
6504.72479,0.07588
6506.65326,0.14310
6508.58172,0.20246
6510.51019,0.19221
6512.43866,0.15396
6514.36713,0.14307
6516.29560,0.12193
6518.22407,0.08759
6520.15254,0.08635
6522.08101,0.10475
6524.00947,0.12620
6525.93794,0.16231
6527.86641,0.19579
6529.79488,0.20594
6531.72335,0.16465
6533.65182,0.07325
6535.58029,-0.00166
6537.50875,-0.04724
6539.43722,-0.06200
6541.36569,-0.00391
6543.29416,0.06105
6545.22263,0.03867
6547.15110,-0.01437
6549.07957,-0.01084
6551.00804,0.05791
6552.93650,0.08362
6554.86497,0.00830
6556.79344,-0.04748
6558.72191,-0.00637
6560.65038,0.07940
6562.57885,0.14864
6564.50732,0.18135
6566.43578,0.19874
6568.36425,0.18571
6570.29272,0.13750
6572.22119,0.10567
6574.14966,0.11262
6576.07813,0.15041
6578.00660,0.17846
6579.93507,0.16777
6581.86353,0.14715
6583.79200,0.13773
6585.72047,0.12081
6587.64894,0.08810
6589.57741,0.07861
6591.50588,0.07208
6593.43435,0.01220
6595.36281,-0.02582
6597.29128,0.01799
6599.21975,0.07412
6601.14822,0.07185
6603.07669,0.01430
6605.00516,-0.02156
6606.93363,0.00602
6608.86210,0.08168
6610.79056,0.14118
6612.71903,0.12924
6614.64750,0.06850
6616.57597,0.00719
6618.50444,0.00443
6620.43291,0.04245
6622.36138,0.03206
6624.28984,-0.01721
6626.21831,-0.00990
6628.14678,0.07326
6630.07525,0.11107
6632.00372,0.03991
6633.93219,-0.01238
6635.86066,0.00699
6637.78912,0.01474
6639.71759,0.01686
6641.64606,0.02314
6643.57453,-0.01663
6645.50300,-0.04840
6647.43147,-0.00178
6649.35994,0.08724
6651.28841,0.13180
6653.21687,0.08403
6655.14534,-0.01642
6657.07381,-0.09982
6659.00228,-0.10404
6660.93075,-0.05510
6662.85922,-0.00460
6664.78769,0.06619
6666.71615,0.13383
6668.64462,0.12944
6670.57309,0.09063
6672.50156,0.10161
6674.43003,0.11505
6676.35850,0.07561
6678.28697,0.01611
6680.21544,0.00261
6682.14390,0.06469
6684.07237,0.13906
6686.00084,0.15185
6687.92931,0.08174
6689.85778,0.00576
6691.78625,0.01524
6693.71472,0.06127
6695.64318,0.10985
6697.57165,0.17316
6699.50012,0.21678
6701.42859,0.17159
6703.35706,0.04952
6705.28553,-0.04339
6707.21400,-0.08122
6709.14247,-0.08304
6711.07093,-0.00957
6712.99940,0.12688
6714.92787,0.24833
6716.85634,0.27705
6718.78481,0.20040
6720.71328,0.11363
6722.64175,0.10078
6724.57021,0.13334
6726.49868,0.20093
6728.42715,0.24036
6730.35562,0.15458
6732.28409,0.06115
6734.21256,0.06412
6736.14103,0.07892
6738.06950,0.06415
6739.99796,0.05673
6741.92643,0.06930
6743.85490,0.06761
6745.78337,0.05829
6747.71184,0.05359
6749.64031,0.06524
6751.56878,0.12838
6753.49724,0.17797
6755.42571,0.17311
6757.35418,0.17293
6759.28265,0.17207
6761.21112,0.10886
6763.13959,0.01233
6765.06806,-0.02347
6766.99653,0.01345
6768.92499,0.05407
6770.85346,0.05305
6772.78193,0.01574
6774.71040,-0.06811
6776.63887,-0.18090
6778.56734,-0.21615
6780.49581,-0.11249
6782.42427,0.07832
6784.35274,0.20655
6786.28121,0.22431
6788.20968,0.21748
6790.13815,0.19491
6792.06662,0.10699
6793.99509,-0.03023
6795.92355,-0.16449
6797.85202,-0.20061
6799.78049,-0.08884
6801.70896,0.08735
6803.63743,0.16475
6805.56590,0.10850
6807.49437,0.06146
6809.42284,0.11477
6811.35130,0.20491
6813.27977,0.20488
6815.20824,0.11457
6817.13671,0.05113
6819.06518,0.04887
6820.99365,0.00512
6822.92212,-0.11193
6824.85058,-0.14260
6826.77905,-0.03510
6828.70752,0.11096
6830.63599,0.19633
6832.56446,0.18742
6834.49293,0.10425
6836.42140,-0.00926
6838.34987,-0.04071
6840.27833,0.00944
6842.20680,0.03945
6844.13527,0.05150
6846.06374,0.09382
6847.99221,0.09426
6849.92068,-0.02912
6851.84915,-0.12370
6853.77761,-0.09952
6855.70608,0.00307
6857.63455,0.13510
6859.56302,0.22771
6861.49149,0.21982
6863.41996,0.09601
6865.34843,-0.02779
6867.27690,-0.00602
6869.20536,0.04920
6871.13383,-0.01350
6873.06230,-0.04526
6874.99077,0.05337
6876.91924,0.09199
6878.84771,0.01379
6880.77618,-0.02727
6882.70464,-0.01987
6884.63311,-0.03475
6886.56158,-0.01278
6888.49005,0.04443
6890.41852,0.08591
6892.34699,0.10226
6894.27546,0.07326
6896.20393,0.01467
6898.13239,0.03115
6900.06086,0.13816
6901.98933,0.20749
6903.91780,0.18627
6905.84627,0.09397
6907.77474,0.01235
6909.70321,-0.00211
6911.63167,0.04151
6913.56014,0.13928
6915.48861,0.22782
6917.41708,0.23984
6919.34555,0.18625
6921.27402,0.12208
6923.20249,0.07406
6925.13096,0.05732
6927.05942,0.08267
6928.98789,0.03646
6930.91636,-0.11372
6932.84483,-0.09654
6934.77330,0.08209
6936.70177,0.17730
6938.63024,0.23344
6940.55870,0.28284
6942.48717,0.20725
6944.41564,0.09514
6946.34411,0.02863
6948.27258,0.01364
6950.20105,0.09746
6952.12952,0.22599
6954.05799,0.24672
6955.98645,0.13403
6957.91492,0.02860
6959.84339,-0.00983
6961.77186,0.05162
6963.70033,0.17828
6965.62880,0.24453
6967.55727,0.25199
6969.48573,0.25997
6971.41420,0.22233
6973.34267,0.14465
6975.27114,0.07095
6977.19961,-0.02732
6979.12808,-0.10449
6981.05655,-0.08963
6982.98501,-0.00376
6984.91348,0.06230
6986.84195,0.06907
6988.77042,0.04620
6990.69889,-0.03026
6992.62736,-0.09094
6994.55583,0.02759
6996.48430,0.24332
6998.41276,0.26890
7000.34123,0.13856
7002.26970,0.08585
7004.19817,0.13162
7006.12664,0.16512
7008.05511,0.10882
7009.98358,0.08876
7011.91204,0.18266
7013.84051,0.26112
7015.76898,0.26563
7017.69745,0.26880
7019.62592,0.22288
7021.55439,0.05092
7023.48286,-0.12682
7025.41133,-0.12366
7027.33979,0.03314
7029.26826,0.19267
7031.19673,0.22805
7033.12520,0.14207
7035.05367,0.02956
7036.98214,0.00500
7038.91061,-0.01787
7040.83907,-0.05587
7042.76754,0.00995
7044.69601,0.06153
7046.62448,0.01650
7048.55295,0.05087
7050.48142,0.16257
7052.40989,0.18809
7054.33836,0.07862
7056.26682,-0.01763
7058.19529,0.02964
7060.12376,0.08981
7062.05223,0.07819
7063.98070,0.06774
7065.90917,0.05428
7067.83764,0.03806
7069.76610,0.04312
7071.69457,0.06187
7073.62304,0.13347
7075.55151,0.20357
7077.47998,0.17983
7079.40845,0.04436
7081.33692,-0.15982
7083.26539,-0.24095
7085.19385,-0.15750
7087.12232,-0.08316
7089.05079,-0.08020
7090.97926,-0.04731
7092.90773,0.02188
7094.83620,0.09623
7096.76467,0.17294
7098.69313,0.22379
7100.62160,0.22085
7102.55007,0.19022
7104.47854,0.20221
7106.40701,0.24197
7108.33548,0.20175
7110.26395,0.13636
7112.19242,0.18951
7114.12088,0.35404
7116.04935,0.36703
7117.97782,0.09811
7119.90629,0.01044
7121.83476,0.20715
7123.76323,0.34238
7125.69170,0.28560
7127.62016,0.13605
7129.54863,0.12839
7131.47710,0.21520
7133.40557,0.15256
7135.33404,-0.02622
7137.26251,-0.16583
7139.19098,-0.19476
7141.11944,-0.12297
7143.04791,-0.04129
7144.97638,0.01527
7146.90485,0.02112
7148.83332,-0.02067
7150.76179,-0.06652
7152.69026,-0.11274
7154.61873,-0.13114
7156.54719,-0.07032
7158.47566,0.04405
7160.40413,0.19931
7162.33260,0.29179
7164.26107,0.20319
7166.18954,0.10890
7168.11801,0.11100
7170.04647,0.07710
7171.97494,0.05064
7173.90341,0.09912
7175.83188,0.16869
7177.76035,0.18326
7179.68882,0.17151
7181.61729,0.14351
7183.54576,0.04669
7185.47422,-0.00262
7187.40269,0.02617
7189.33116,0.05544
7191.25963,0.01831
7193.18810,-0.06835
7195.11657,-0.01295
7197.04504,0.14505
7198.97350,0.17918
7200.90197,0.12308
7202.83044,0.13191
7204.75891,0.18589
7206.68738,0.16319
7208.61585,0.14243
7210.54432,0.11207
7212.47279,0.05293
7214.40125,0.11560
7216.32972,0.32325
7218.25819,0.37411
7220.18666,0.15254
7222.11513,-0.04549
7224.04360,-0.14459
7225.97207,-0.17819
7227.90053,-0.19801
7229.82900,-0.19565
7231.75747,-0.06093
7233.68594,0.06225
7235.61441,0.08002
7237.54288,0.10526
7239.47135,0.18133
7241.39982,0.31102
7243.32828,0.33508
7245.25675,0.14599
7247.18522,-0.03922
7249.11369,-0.12452
7251.04216,-0.15743
7252.97063,-0.15537
7254.89910,-0.08483
7256.82756,0.01799
7258.75603,0.20846
7260.68450,0.42481
7262.61297,0.43985
7264.54144,0.34506
7266.46991,0.29220
7268.39838,0.19975
7270.32685,0.00938
7272.25531,-0.09223
7274.18378,-0.04139
7276.11225,-0.04802
7278.04072,-0.07916
7279.96919,-0.02948
7281.89766,0.06211
7283.82613,0.07271
7285.75459,0.00276
7287.68306,-0.09147
7289.61153,-0.11631
7291.54000,-0.02157
7293.46847,0.08031
7295.39694,0.12478
7297.32541,0.08893
7299.25387,-0.00650
7301.18234,-0.02559
7303.11081,0.11725
7305.03928,0.32074
7306.96775,0.36257
7308.89622,0.18085
7310.82469,0.09623
7312.75316,0.19525
7314.68162,0.23720
7316.61009,0.11248
7318.53856,0.02303
7320.46703,0.07212
7322.39550,0.11815
7324.32397,0.02339
7326.25244,-0.14782
7328.18090,-0.05235
7330.10937,0.33683
7332.03784,0.45258
7333.96631,0.30998
7335.89478,0.14440
7337.82325,0.02299
7339.75172,0.02616
7341.68019,0.13853
7343.60865,0.20688
7345.53712,0.15439
7347.46559,-0.04770
7349.39406,-0.24780
7351.32253,-0.25687
7353.25100,-0.09368
7355.17947,0.02864
7357.10793,-0.04467
7359.03640,-0.22080
7360.96487,-0.29965
7362.89334,-0.30359
7364.82181,-0.18575
7366.75028,0.02978
7368.67875,0.13140
7370.60722,0.03269
7372.53568,-0.09558
7374.46415,-0.06536
7376.39262,0.07874
7378.32109,0.13928
7380.24956,0.16834
7382.17803,0.19878
7384.10650,0.23818
7386.03496,0.16788
7387.96343,-0.06966
7389.89190,-0.20457
7391.82037,-0.18240
7393.74884,-0.05131
7395.67731,0.21256
7397.60578,0.36771
7399.53425,0.31577
7401.46271,0.21851
7403.39118,0.11740
7405.31965,0.02354
7407.24812,-0.04464
7409.17659,-0.05644
7411.10506,0.07418
7413.03353,0.26239
7414.96199,0.32793
7416.89046,0.24489
7418.81893,-0.00182
7420.74740,-0.37375
7422.67587,-0.50926
7424.60434,-0.35845
7426.53281,-0.07948
7428.46128,0.24491
7430.38974,0.39494
7432.31821,0.17366
7434.24668,-0.14794
7436.17515,-0.22083
7438.10362,-0.01531
7440.03209,0.16740
7441.96056,0.24556
7443.88902,0.31375
7445.81749,0.27398
7447.74596,0.14155
7449.67443,0.07511
7451.60290,0.07962
7453.53137,0.09530
7455.45984,0.11335
7457.38831,0.10284
7459.31677,0.15681
7461.24524,0.34534
7463.17371,0.37558
7465.10218,0.12892
7467.03065,-0.08123
7468.95912,-0.03371
7470.88759,0.10616
7472.81605,0.16118
7474.74452,0.19675
7476.67299,0.20786
7478.60146,0.11898
7480.52993,0.10753
7482.45840,0.23804
7484.38687,0.30339
7486.31533,0.24375
7488.24380,0.19226
7490.17227,0.31926
7492.10074,0.42945
7494.02921,0.27021
7495.95768,0.02094
7497.88615,-0.00911
