399.19301,-0.61992
401.12148,-0.03845
403.04995,0.60190
404.97842,0.56743
406.90689,0.67574
408.83536,1.49711
410.76382,1.91470
412.69229,0.91869
414.62076,0.63904
416.54923,1.92371
418.47770,2.41666
420.40617,1.04439
422.33464,0.45266
424.26311,0.51607
426.19157,0.26262
428.12004,-0.19760
430.04851,-0.27190
431.97698,0.01595
433.90545,0.13966
435.83392,0.18094
437.76239,0.28857
439.69085,0.36495
441.61932,0.24215
443.54779,-0.01485
445.47626,-0.10592
447.40473,0.01217
449.33320,0.15405
451.26167,0.14485
453.19013,0.08612
455.11860,0.15580
457.04707,0.25094
458.97554,0.21637
460.90401,0.10577
462.83248,0.01245
464.76095,0.04400
466.68942,0.17916
468.61788,0.29363
470.54635,0.43479
472.47482,0.68019
474.40329,0.67419
476.33176,0.31417
478.26023,0.09877
480.18870,0.08094
482.11716,0.18596
484.04563,0.24027
485.97410,0.16411
487.90257,0.09116
489.83104,0.06014
491.75951,0.03423
493.68798,0.02201
495.61645,0.02565
497.54491,0.06652
499.47338,0.13659
501.40185,0.16282
503.33032,0.12521
505.25879,0.07916
507.18726,0.03315
509.11573,0.00630
511.04419,0.04491
512.97266,0.10722
514.90113,0.13911
516.82960,0.16608
518.75807,0.17582
520.68654,0.11738
522.61501,0.03996
524.54348,0.03703
526.47194,0.09044
528.40041,0.11783
530.32888,0.14185
532.25735,0.18074
534.18582,0.17264
536.11429,0.10100
538.04276,0.05242
539.97122,0.07248
541.89969,0.11494
543.82816,0.14162
545.75663,0.15507
547.68510,0.14453
549.61357,0.11788
551.54204,0.14786
553.47051,0.20777
555.39897,0.19580
557.32744,0.14700
559.25591,0.14948
561.18438,0.19334
563.11285,0.21510
565.04132,0.16787
566.96979,0.09269
568.89825,0.07006
570.82672,0.09787
572.75519,0.13008
574.68366,0.15407
576.61213,0.18506
578.54060,0.21062
580.46907,0.18792
582.39754,0.12800
584.32600,0.09184
586.25447,0.09580
588.18294,0.12375
590.11141,0.16147
592.03988,0.18740
593.96835,0.16354
595.89682,0.09201
597.82528,0.04537
599.75375,0.06482
601.68222,0.11143
603.61069,0.15178
605.53916,0.17590
607.46763,0.16371
609.39610,0.12893
611.32456,0.11236
613.25303,0.11935
615.18150,0.12486
617.10997,0.12423
619.03844,0.12415
620.96691,0.12504
622.89538,0.13766
624.82385,0.16019
626.75231,0.17650
628.68078,0.17334
630.60925,0.16992
632.53772,0.18299
634.46619,0.18825
636.39466,0.19503
638.32313,0.20461
640.25159,0.19901
642.18006,0.18942
644.10853,0.16908
646.03700,0.14436
647.96547,0.13966
649.89394,0.15194
651.82241,0.17018
653.75088,0.17675
655.67934,0.15826
657.60781,0.14059
659.53628,0.14302
661.46475,0.14360
663.39322,0.13170
665.32169,0.12748
667.25016,0.15659
669.17862,0.19610
671.10709,0.18862
673.03556,0.16362
674.96403,0.13577
676.89250,0.11248
678.82097,0.10065
680.74944,0.10631
682.67791,0.12795
684.60637,0.14996
686.53484,0.15932
688.46331,0.15642
690.39178,0.14414
692.32025,0.12845
694.24872,0.12646
696.17719,0.14036
698.10565,0.15471
700.03412,0.15950
701.96259,0.15055
703.89106,0.13272
705.81953,0.11908
707.74800,0.11703
709.67647,0.12823
711.60494,0.14905
713.53340,0.16955
715.46187,0.17592
717.39034,0.15962
719.31881,0.13905
721.24728,0.14138
723.17575,0.15186
725.10422,0.14720
727.03268,0.14116
728.96115,0.14777
730.88962,0.16034
732.81809,0.16601
734.74656,0.15279
736.67503,0.12755
738.60350,0.11988
740.53197,0.14518
742.46043,0.18089
744.38890,0.19959
746.31737,0.19561
748.24584,0.17700
750.17431,0.15775
752.10278,0.14603
754.03125,0.13798
755.95971,0.13523
757.88818,0.13921
759.81665,0.14207
761.74512,0.14284
763.67359,0.13687
765.60206,0.12292
767.53053,0.11643
769.45900,0.12269
771.38746,0.13416
773.31593,0.14020
775.24440,0.14066
777.17287,0.14327
779.10134,0.14147
781.02981,0.12746
782.95828,0.11048
784.88674,0.11153
786.81521,0.15168
788.74368,0.24613
790.67215,0.33112
792.60062,0.30525
794.52909,0.21209
796.45756,0.16042
798.38602,0.14324
800.31449,0.13252
802.24296,0.13905
804.17143,0.15603
806.09990,0.16255
808.02837,0.15372
809.95684,0.13834
811.88531,0.12983
813.81377,0.13353
815.74224,0.14304
817.67071,0.15571
819.59918,0.16867
821.52765,0.17495
823.45612,0.17132
825.38459,0.15971
827.31305,0.14402
829.24152,0.13382
831.16999,0.13918
833.09846,0.15668
835.02693,0.17574
836.95540,0.18496
838.88387,0.17438
840.81234,0.15262
842.74080,0.13406
844.66927,0.12363
846.59774,0.13162
848.52621,0.15345
850.45468,0.16780
852.38315,0.17155
854.31162,0.16845
856.24008,0.15597
858.16855,0.14146
860.09702,0.13787
862.02549,0.14275
863.95396,0.14900
865.88243,0.15524
867.81090,0.15517
869.73937,0.14955
871.66783,0.14556
873.59630,0.13977
875.52477,0.12829
877.45324,0.12271
879.38171,0.13382
881.31018,0.15146
883.23865,0.16031
885.16711,0.15805
887.09558,0.14662
889.02405,0.13240
890.95252,0.12867
892.88099,0.13667
894.80946,0.15015
896.73793,0.16641
898.66640,0.17307
900.59486,0.16285
902.52333,0.14999
904.45180,0.14603
906.38027,0.15427
908.30874,0.17330
910.23721,0.18565
912.16568,0.18071
914.09414,0.16988
916.02261,0.16324
917.95108,0.16192
919.87955,0.16528
921.80802,0.16532
923.73649,0.15799
925.66496,0.15629
927.59343,0.16063
929.52189,0.15938
931.45036,0.15525
933.37883,0.15067
935.30730,0.14717
937.23577,0.14907
939.16424,0.15550
941.09271,0.16522
943.02117,0.17130
944.94964,0.16627
946.87811,0.15086
948.80658,0.13273
950.73505,0.12365
952.66352,0.12753
954.59199,0.14070
956.52045,0.15471
958.44892,0.16238
960.37739,0.16504
962.30586,0.16185
964.23433,0.15194
966.16280,0.14575
968.09127,0.15002
970.01974,0.15592
971.94820,0.15850
973.87667,0.16200
975.80514,0.16682
977.73361,0.17316
979.66208,0.17832
981.59055,0.17612
983.51902,0.17170
985.44748,0.17135
987.37595,0.17136
989.30442,0.17299
991.23289,0.17644
993.16136,0.17142
995.08983,0.15775
997.01830,0.14935
998.94677,0.15274
1000.87523,0.16002
1002.80370,0.16695
1004.73217,0.17618
1006.66064,0.18039
1008.58911,0.17466
1010.51758,0.16803
1012.44605,0.16476
1014.37451,0.16294
1016.30298,0.16669
1018.23145,0.17670
1020.15992,0.18137
1022.08839,0.17221
1024.01686,0.15756
1025.94533,0.14959
1027.87380,0.14825
1029.80226,0.14947
1031.73073,0.15628
1033.65920,0.16806
1035.58767,0.17536
1037.51614,0.17556
1039.44461,0.17407
1041.37308,0.17157
1043.30154,0.16772
1045.23001,0.16659
1047.15848,0.17125
1049.08695,0.18097
1051.01542,0.18676
1052.94389,0.18210
1054.87236,0.17238
1056.80083,0.16257
1058.72929,0.16378
1060.65776,0.18078
1062.58623,0.19508
1064.51470,0.19712
1066.44317,0.19657
1068.37164,0.19356
1070.30011,0.17989
1072.22857,0.16443
1074.15704,0.15860
1076.08551,0.15819
1078.01398,0.16180
1079.94245,0.17440
1081.87092,0.18921
1083.79939,0.18965
1085.72786,0.17404
1087.65632,0.15880
1089.58479,0.16030
1091.51326,0.17682
1093.44173,0.19039
1095.37020,0.19451
1097.29867,0.19380
1099.22714,0.19062
1101.15560,0.18703
1103.08407,0.18484
1105.01254,0.18321
1106.94101,0.18098
1108.86948,0.18061
1110.79795,0.18406
1112.72642,0.18787
1114.65489,0.18390
1116.58335,0.17125
1118.51182,0.16285
1120.44029,0.16485
1122.36876,0.16729
1124.29723,0.16689
1126.22570,0.16982
1128.15417,0.17381
1130.08263,0.17418
1132.01110,0.16948
1133.93957,0.16059
1135.86804,0.15512
1137.79651,0.15864
1139.72498,0.16591
1141.65345,0.16932
1143.58191,0.17416
1145.51038,0.18744
1147.43885,0.19728
1149.36732,0.19185
1151.29579,0.17924
1153.22426,0.17223
1155.15273,0.17615
1157.08120,0.18820
1159.00966,0.19461
1160.93813,0.18821
1162.86660,0.17923
1164.79507,0.17407
1166.72354,0.17371
1168.65201,0.18010
1170.58048,0.18803
1172.50894,0.19164
1174.43741,0.18859
1176.36588,0.18094
1178.29435,0.17547
1180.22282,0.17191
1182.15129,0.16734
1184.07976,0.16630
1186.00823,0.17072
1187.93669,0.17546
1189.86516,0.17569
1191.79363,0.17078
1193.72210,0.16487
1195.65057,0.16530
1197.57904,0.17313
1199.50751,0.17949
1201.43597,0.18107
1203.36444,0.18104
1205.29291,0.17715
1207.22138,0.17154
1209.14985,0.17135
1211.07832,0.17499
1213.00679,0.17918
1214.93526,0.18257
1216.86372,0.18260
1218.79219,0.18314
1220.72066,0.18564
1222.64913,0.18412
1224.57760,0.17985
1226.50607,0.17965
1228.43454,0.18451
1230.36300,0.19019
1232.29147,0.19251
1234.21994,0.18964
1236.14841,0.18389
1238.07688,0.17835
1240.00535,0.17592
1241.93382,0.17722
1243.86229,0.17912
1245.79075,0.18156
1247.71922,0.18494
1249.64769,0.18858
1251.57616,0.19144
1253.50463,0.18975
1255.43310,0.18367
1257.36157,0.17889
1259.29003,0.17937
1261.21850,0.18283
1263.14697,0.18593
1265.07544,0.18796
1267.00391,0.18557
1268.93238,0.17742
1270.86085,0.17178
1272.78932,0.17360
1274.71778,0.17873
1276.64625,0.18492
1278.57472,0.19007
1280.50319,0.19105
1282.43166,0.18887
1284.36013,0.18601
1286.28860,0.18396
1288.21706,0.18388
1290.14553,0.18498
1292.07400,0.18538
1294.00247,0.18551
1295.93094,0.18445
1297.85941,0.18223
1299.78788,0.18076
1301.71634,0.17767
1303.64481,0.17392
1305.57328,0.17531
1307.50175,0.18021
1309.43022,0.18454
1311.35869,0.18826
1313.28716,0.18762
1315.21563,0.18250
1317.14409,0.18100
1319.07256,0.18444
1321.00103,0.18755
1322.92950,0.18913
1324.85797,0.19078
1326.78644,0.19233
1328.71491,0.19064
1330.64337,0.18609
1332.57184,0.18414
1334.50031,0.18442
1336.42878,0.18410
1338.35725,0.18579
1340.28572,0.18499
1342.21419,0.16170
1344.14266,0.12739
1346.07112,0.12875
1347.99959,0.16305
1349.92806,0.18316
1351.85653,0.18699
1353.78500,0.19173
1355.71347,0.19523
1357.64194,0.19650
1359.57040,0.19804
1361.49887,0.19736
1363.42734,0.19137
1365.35581,0.18852
1367.28428,0.19237
1369.21275,0.19662
1371.14122,0.20191
1373.06969,0.20805
1374.99815,0.20261
1376.92662,0.18825
1378.85509,0.18242
1380.78356,0.18731
1382.71203,0.19515
1384.64050,0.20309
1386.56897,0.20800
1388.49743,0.20206
1390.42590,0.19366
1392.35437,0.19161
1394.28284,0.19184
1396.21131,0.19433
1398.13978,0.20088
1400.06825,0.20486
1401.99672,0.20469
1403.92518,0.20272
1405.85365,0.19586
1407.78212,0.18776
1409.71059,0.18597
1411.63906,0.18941
1413.56753,0.19437
1415.49600,0.20259
1417.42446,0.21497
1419.35293,0.21796
1421.28140,0.20692
1423.20987,0.19727
1425.13834,0.19304
1427.06681,0.19373
1428.99528,0.19768
1430.92375,0.20168
1432.85221,0.20354
1434.78068,0.20536
1436.70915,0.20668
1438.63762,0.20273
1440.56609,0.19784
1442.49456,0.19701
1444.42303,0.19946
1446.35149,0.20375
1448.27996,0.20856
1450.20843,0.20757
1452.13690,0.20245
1454.06537,0.20248
1455.99384,0.21329
1457.92231,0.22576
1459.85077,0.22005
1461.77924,0.21183
1463.70771,0.21058
1465.63618,0.20898
1467.56465,0.20349
1469.49312,0.20432
1471.42159,0.21454
1473.35006,0.22434
1475.27852,0.22296
1477.20699,0.21948
1479.13546,0.21571
1481.06393,0.20828
1482.99240,0.20096
1484.92087,0.20014
1486.84934,0.20848
1488.77780,0.22258
1490.70627,0.22649
1492.63474,0.21945
1494.56321,0.21483
1496.49168,0.21661
1498.42015,0.21993
1500.34862,0.20434
1502.27709,0.17566
1504.20555,0.17275
1506.13402,0.22600
1508.06249,0.26213
1509.99096,0.23954
1511.91943,0.22195
1513.84790,0.21549
1515.77637,0.21954
1517.70483,0.22484
1519.63330,0.23084
1521.56177,0.24409
1523.49024,0.24683
1525.41871,0.23587
1527.34718,0.22233
1529.27565,0.21234
1531.20412,0.20763
1533.13258,0.20722
1535.06105,0.21153
1536.98952,0.22393
1538.91799,0.25060
1540.84646,0.27570
1542.77493,0.26358
1544.70340,0.23908
1546.63186,0.22194
1548.56033,0.21654
1550.48880,0.21603
1552.41727,0.21842
1554.34574,0.22966
1556.27421,0.25106
1558.20268,0.27060
1560.13115,0.24420
1562.05961,0.21739
1563.98808,0.21153
1565.91655,0.21528
1567.84502,0.22101
1569.77349,0.21969
1571.70196,0.21142
1573.63043,0.21208
1575.55889,0.22091
1577.48736,0.21857
1579.41583,0.20843
1581.34430,0.20151
1583.27277,0.19856
1585.20124,0.19979
1587.12971,0.20107
1589.05818,0.19953
1590.98664,0.19731
1592.91511,0.19746
1594.84358,0.19923
1596.77205,0.19941
1598.70052,0.19984
1600.62899,0.20355
1602.55746,0.20689
1604.48592,0.20462
1606.41439,0.19946
1608.34286,0.19755
1610.27133,0.19938
1612.19980,0.20351
1614.12827,0.21091
1616.05674,0.21884
1617.98521,0.21584
1619.91367,0.20649
1621.84214,0.20330
1623.77061,0.20890
1625.69908,0.21635
1627.62755,0.21905
1629.55602,0.21774
1631.48449,0.21897
1633.41295,0.22528
1635.34142,0.23017
1637.26989,0.22206
1639.19836,0.21354
1641.12683,0.21222
1643.05530,0.21881
1644.98377,0.23726
1646.91223,0.25770
1648.84070,0.25558
1650.76917,0.25020
1652.69764,0.24962
1654.62611,0.23533
1656.55458,0.22261
1658.48305,0.21781
1660.41152,0.21831
1662.33998,0.22172
1664.26845,0.21941
1666.19692,0.21672
1668.12539,0.22340
1670.05386,0.23016
1671.98233,0.22827
1673.91080,0.22894
1675.83926,0.22770
1677.76773,0.22192
1679.69620,0.22205
1681.62467,0.23035
1683.55314,0.24146
1685.48161,0.23817
1687.41008,0.22742
1689.33855,0.22198
1691.26701,0.21987
1693.19548,0.22353
1695.12395,0.23737
1697.05242,0.25018
1698.98089,0.24754
1700.90936,0.23838
1702.83783,0.23432
1704.76629,0.23223
1706.69476,0.22638
1708.62323,0.21921
1710.55170,0.21538
1712.48017,0.21711
1714.40864,0.22871
1716.33711,0.24649
1718.26558,0.24166
1720.19404,0.22231
1722.12251,0.21328
1724.05098,0.20906
1725.97945,0.20303
1727.90792,0.20125
1729.83639,0.21031
1731.76486,0.22780
1733.69332,0.23982
1735.62179,0.23158
1737.55026,0.22446
1739.47873,0.22448
1741.40720,0.22230
1743.33567,0.21954
1745.26414,0.22361
1747.19261,0.23121
1749.12107,0.23215
1751.04954,0.22374
1752.97801,0.21453
1754.90648,0.21039
1756.83495,0.20930
1758.76342,0.20862
1760.69189,0.21129
1762.62035,0.21356
1764.54882,0.21060
1766.47729,0.21129
1768.40576,0.21927
1770.33423,0.22650
1772.26270,0.22655
1774.19117,0.22050
1776.11964,0.21342
1778.04810,0.20827
1779.97657,0.20721
1781.90504,0.21071
1783.83351,0.21462
1785.76198,0.21392
1787.69045,0.21122
1789.61892,0.21434
1791.54738,0.22295
1793.47585,0.22247
1795.40432,0.21391
1797.33279,0.21103
1799.26126,0.21307
1801.18973,0.21287
1803.11820,0.20876
1805.04666,0.20461
1806.97513,0.20454
1808.90360,0.20898
1810.83207,0.21246
1812.76054,0.21067
1814.68901,0.20848
1816.61748,0.21531
1818.54595,0.22726
1820.47441,0.22474
1822.40288,0.21249
1824.33135,0.20975
1826.25982,0.21362
1828.18829,0.22019
1830.11676,0.22649
1832.04523,0.22076
1833.97369,0.21146
1835.90216,0.20736
1837.83063,0.20700
1839.75910,0.20958
1841.68757,0.21632
1843.61604,0.22368
1845.54451,0.22293
1847.47298,0.21602
1849.40144,0.20851
1851.32991,0.20342
1853.25838,0.20464
1855.18685,0.20933
1857.11532,0.21061
1859.04379,0.20873
1860.97226,0.20752
1862.90072,0.20715
1864.82919,0.20873
1866.75766,0.21567
1868.68613,0.22249
1870.61460,0.21897
1872.54307,0.21158
1874.47154,0.20787
1876.40001,0.20667
1878.32847,0.20464
1880.25694,0.20284
1882.18541,0.20499
1884.11388,0.20967
1886.04235,0.21173
1887.97082,0.21161
1889.89929,0.21191
1891.82775,0.21154
1893.75622,0.21070
1895.68469,0.20897
1897.61316,0.20548
1899.54163,0.20249
1901.47010,0.20311
1903.39857,0.20705
1905.32704,0.21067
1907.25550,0.21183
1909.18397,0.20962
1911.11244,0.20562
1913.04091,0.20401
1914.96938,0.20527
1916.89785,0.20748
1918.82632,0.20999
1920.75478,0.21228
1922.68325,0.21188
1924.61172,0.20876
1926.54019,0.20696
1928.46866,0.20652
1930.39713,0.20556
1932.32560,0.20492
1934.25407,0.20550
1936.18253,0.20714
1938.11100,0.20816
1940.03947,0.20848
1941.96794,0.20955
1943.89641,0.20823
1945.82488,0.20428
1947.75335,0.20311
1949.68181,0.20564
1951.61028,0.20949
1953.53875,0.21318
1955.46722,0.21426
1957.39569,0.21094
1959.32416,0.20634
1961.25263,0.20437
1963.18110,0.20514
1965.10956,0.20627
1967.03803,0.20549
1968.96650,0.20337
1970.89497,0.20344
1972.82344,0.20599
1974.75191,0.20551
1976.68038,0.20066
1978.60884,0.19957
1980.53731,0.20567
1982.46578,0.21068
1984.39425,0.20997
1986.32272,0.20844
1988.25119,0.20766
1990.17966,0.20512
1992.10812,0.20330
1994.03659,0.20524
1995.96506,0.20885
1997.89353,0.21148
1999.82200,0.21139
2001.75047,0.20946
2003.67894,0.20685
2005.60741,0.20257
2007.53587,0.19966
2009.46434,0.20192
2011.39281,0.20612
2013.32128,0.20846
2015.24975,0.21021
2017.17822,0.21021
2019.10669,0.20646
2021.03515,0.20441
2022.96362,0.20546
2024.89209,0.20457
2026.82056,0.20325
2028.74903,0.20552
2030.67750,0.20825
2032.60597,0.20722
2034.53444,0.20411
2036.46290,0.20253
2038.39137,0.20372
2040.31984,0.20610
2042.24831,0.20768
2044.17678,0.20963
2046.10525,0.21167
2048.03372,0.21116
2049.96218,0.21026
2051.89065,0.21059
2053.81912,0.20854
2055.74759,0.20523
2057.67606,0.20529
2059.60453,0.20791
2061.53300,0.20893
2063.46147,0.20666
2065.38993,0.20400
2067.31840,0.20427
2069.24687,0.20626
2071.17534,0.20768
2073.10381,0.20876
2075.03228,0.21048
2076.96075,0.21181
2078.88921,0.21111
2080.81768,0.20973
2082.74615,0.20919
2084.67462,0.20882
2086.60309,0.20904
2088.53156,0.21090
2090.46003,0.21280
2092.38850,0.21196
2094.31696,0.20941
2096.24543,0.20784
2098.17390,0.20830
2100.10237,0.21049
2102.03084,0.21049
2103.95931,0.20776
2105.88778,0.20690
2107.81624,0.20735
2109.74471,0.20788
2111.67318,0.20910
2113.60165,0.20934
2115.53012,0.20916
2117.45859,0.21042
2119.38706,0.21249
2121.31553,0.21395
2123.24399,0.21312
2125.17246,0.20977
2127.10093,0.20754
2129.02940,0.20736
2130.95787,0.20692
2132.88634,0.20855
2134.81481,0.21269
2136.74327,0.21408
2138.67174,0.21102
2140.60021,0.20732
2142.52868,0.20547
2144.45715,0.20588
2146.38562,0.20790
2148.31409,0.20846
2150.24255,0.20870
2152.17102,0.21131
2154.09949,0.21265
2156.02796,0.21055
2157.95643,0.20769
2159.88490,0.20734
2161.81337,0.21081
2163.74184,0.21441
2165.67030,0.21496
2167.59877,0.21371
2169.52724,0.21079
2171.45571,0.20754
2173.38418,0.20708
2175.31265,0.20866
2177.24112,0.21046
2179.16958,0.21222
2181.09805,0.21244
2183.02652,0.21033
2184.95499,0.20684
2186.88346,0.20346
2188.81193,0.20358
2190.74040,0.20643
2192.66887,0.20682
2194.59733,0.20522
2196.52580,0.20477
2198.45427,0.20512
2200.38274,0.20492
2202.31121,0.20354
2204.23968,0.20114
2206.16815,0.19967
2208.09661,0.20200
2210.02508,0.20744
2211.95355,0.21101
2213.88202,0.20962
2215.81049,0.20497
2217.73896,0.20160
2219.66743,0.20233
2221.59590,0.20486
2223.52436,0.20671
2225.45283,0.20836
2227.38130,0.21025
2229.30977,0.21082
2231.23824,0.20812
2233.16671,0.20433
2235.09518,0.20399
2237.02364,0.20742
2238.95211,0.21183
2240.88058,0.21463
2242.80905,0.21354
2244.73752,0.20933
2246.66599,0.20547
2248.59446,0.20395
2250.52293,0.20510
2252.45139,0.20809
2254.37986,0.21107
2256.30833,0.21330
2258.23680,0.21441
2260.16527,0.21201
2262.09374,0.20641
2264.02221,0.20333
2265.95067,0.20493
2267.87914,0.20637
2269.80761,0.20557
2271.73608,0.20560
2273.66455,0.20653
2275.59302,0.20605
2277.52149,0.20459
2279.44996,0.20262
2281.37842,0.19976
2283.30689,0.19863
2285.23536,0.20273
2287.16383,0.20926
2289.09230,0.21246
2291.02077,0.21102
2292.94924,0.20641
2294.87770,0.20354
2296.80617,0.20499
2298.73464,0.20449
2300.66311,0.20217
2302.59158,0.20563
2304.52005,0.21150
2306.44852,0.21185
2308.37699,0.20733
2310.30545,0.20119
2312.23392,0.19491
2314.16239,0.19142
2316.09086,0.19148
2318.01933,0.19229
2319.94780,0.19561
2321.87627,0.20396
2323.80473,0.20840
2325.73320,0.19906
2327.66167,0.18148
2329.59014,0.17182
2331.51861,0.18089
2333.44708,0.19695
2335.37555,0.20263
2337.30401,0.19919
2339.23248,0.19194
2341.16095,0.18338
2343.08942,0.18105
2345.01789,0.18905
2346.94636,0.19982
2348.87483,0.20614
2350.80330,0.20709
2352.73176,0.19633
2354.66023,0.17488
2356.58870,0.16412
2358.51717,0.16227
2360.44564,0.16828
2362.37411,0.19332
2364.30258,0.21985
2366.23104,0.22717
2368.15951,0.21281
2370.08798,0.19361
2372.01645,0.18227
2373.94492,0.17861
2375.87339,0.18427
2377.80186,0.19830
2379.73033,0.21025
2381.65879,0.21393
2383.58726,0.21261
2385.51573,0.21004
2387.44420,0.20795
2389.37267,0.20664
2391.30114,0.20657
2393.22961,0.20848
2395.15807,0.21107
2397.08654,0.21231
2399.01501,0.21153
2400.94348,0.20966
2402.87195,0.20836
2404.80042,0.20848
2406.72889,0.20915
2408.65736,0.20955
2410.58582,0.21030
2412.51429,0.21152
2414.44276,0.21213
2416.37123,0.21117
2418.29970,0.20908
2420.22817,0.20718
2422.15664,0.20622
2424.08510,0.20685
2426.01357,0.20830
2427.94204,0.20844
2429.87051,0.20741
2431.79898,0.20685
2433.72745,0.20707
2435.65592,0.20806
2437.58439,0.21080
2439.51285,0.21536
2441.44132,0.21855
2443.36979,0.21714
2445.29826,0.21300
2447.22673,0.20958
2449.15520,0.20931
2451.08367,0.21248
2453.01213,0.21381
2454.94060,0.21204
2456.86907,0.21194
2458.79754,0.21208
2460.72601,0.21082
2462.65448,0.21112
2464.58295,0.21302
2466.51142,0.21406
2468.43988,0.21251
2470.36835,0.21111
2472.29682,0.21361
2474.22529,0.21588
2476.15376,0.21312
2478.08223,0.20870
2480.01070,0.20677
2481.93916,0.20790
2483.86763,0.21085
2485.79610,0.21262
2487.72457,0.21280
2489.65304,0.21262
2491.58151,0.21133
2493.50998,0.21020
2495.43844,0.21120
2497.36691,0.21291
2499.29538,0.21325
2501.22385,0.21348
2503.15232,0.21371
2505.08079,0.21107
2507.00926,0.20829
2508.93773,0.20906
2510.86619,0.21054
2512.79466,0.21202
2514.72313,0.21493
2516.65160,0.21655
2518.58007,0.21649
2520.50854,0.21702
2522.43701,0.21667
2524.36547,0.21407
2526.29394,0.21069
2528.22241,0.20929
2530.15088,0.21096
2532.07935,0.21338
2534.00782,0.21375
2535.93629,0.21050
2537.86476,0.20648
2539.79322,0.20710
2541.72169,0.21171
2543.65016,0.21593
2545.57863,0.21792
2547.50710,0.21779
2549.43557,0.21663
2551.36404,0.21452
2553.29250,0.21223
2555.22097,0.21268
2557.14944,0.21360
2559.07791,0.21241
2561.00638,0.21350
2562.93485,0.21786
2564.86332,0.21941
2566.79179,0.21533
2568.72025,0.21079
2570.64872,0.20862
2572.57719,0.20651
2574.50566,0.20656
2576.43413,0.21099
2578.36260,0.21748
2580.29107,0.22232
2582.21953,0.22184
2584.14800,0.21756
2586.07647,0.21374
2588.00494,0.21124
2589.93341,0.21076
2591.86188,0.21251
2593.79035,0.21336
2595.71882,0.21234
2597.64728,0.21167
2599.57575,0.21176
2601.50422,0.21187
2603.43269,0.21244
2605.36116,0.21341
2607.28963,0.21271
2609.21810,0.21123
2611.14656,0.21199
2613.07503,0.21469
2615.00350,0.21694
2616.93197,0.21547
2618.86044,0.21198
2620.78891,0.21278
2622.71738,0.21639
2624.64585,0.21773
2626.57431,0.21803
2628.50278,0.21724
2630.43125,0.21472
2632.35972,0.21537
2634.28819,0.21857
2636.21666,0.21920
2638.14513,0.21948
2640.07359,0.22177
2642.00206,0.22298
2643.93053,0.22132
2645.85900,0.21813
2647.78747,0.21623
2649.71594,0.21667
2651.64441,0.21780
2653.57288,0.21882
2655.50134,0.21960
2657.42981,0.21954
2659.35828,0.21854
2661.28675,0.21727
2663.21522,0.21686
2665.14369,0.21735
2667.07216,0.21785
2669.00062,0.21936
2670.92909,0.22193
2672.85756,0.22210
2674.78603,0.21847
2676.71450,0.21383
2678.64297,0.21201
2680.57144,0.21452
2682.49990,0.21913
2684.42837,0.22164
2686.35684,0.22054
2688.28531,0.21844
2690.21378,0.21611
2692.14225,0.21382
2694.07072,0.21371
2695.99919,0.21468
2697.92765,0.21468
2699.85612,0.21530
2701.78459,0.21847
2703.71306,0.22238
2705.64153,0.22315
2707.57000,0.21938
2709.49847,0.21515
2711.42693,0.21487
2713.35540,0.21779
2715.28387,0.22128
2717.21234,0.22336
2719.14081,0.22425
2721.06928,0.22403
2722.99775,0.22132
2724.92622,0.21860
2726.85468,0.21972
2728.78315,0.22241
2730.71162,0.22095
2732.64009,0.21792
2734.56856,0.21928
2736.49703,0.22321
2738.42550,0.22605
2740.35396,0.22565
2742.28243,0.22259
2744.21090,0.22151
2746.13937,0.22414
2748.06784,0.22784
2749.99631,0.22882
2751.92478,0.22515
2753.85325,0.22019
2755.78171,0.21894
2757.71018,0.22187
2759.63865,0.22576
2761.56712,0.22769
2763.49559,0.22671
2765.42406,0.22425
2767.35253,0.22292
2769.28099,0.22321
2771.20946,0.22470
2773.13793,0.22759
2775.06640,0.22990
2776.99487,0.23076
2778.92334,0.23202
2780.85181,0.23143
2782.78028,0.22775
2784.70874,0.22645
2786.63721,0.22869
2788.56568,0.23051
2790.49415,0.23127
2792.42262,0.23111
2794.35109,0.22945
2796.27956,0.22839
2798.20802,0.22812
2800.13649,0.22625
2802.06496,0.22474
2803.99343,0.22559
2805.92190,0.22858
2807.85037,0.23187
2809.77884,0.23245
2811.70731,0.23247
2813.63577,0.23280
2815.56424,0.22947
2817.49271,0.22309
2819.42118,0.21943
2821.34965,0.22085
2823.27812,0.22364
2825.20659,0.22550
2827.13505,0.22783
2829.06352,0.23052
2830.99199,0.23140
2832.92046,0.23138
2834.84893,0.23300
2836.77740,0.23516
2838.70587,0.23476
2840.63433,0.23117
2842.56280,0.22780
2844.49127,0.22771
2846.41974,0.23087
2848.34821,0.23358
2850.27668,0.23251
2852.20515,0.23023
2854.13362,0.22961
2856.06208,0.22877
2857.99055,0.22568
2859.91902,0.22418
2861.84749,0.22547
2863.77596,0.22459
2865.70443,0.22399
2867.63290,0.22785
2869.56136,0.23065
2871.48983,0.22945
2873.41830,0.22877
2875.34677,0.22841
2877.27524,0.22673
2879.20371,0.22790
2881.13218,0.23303
2883.06065,0.23585
2884.98911,0.23369
2886.91758,0.23166
2888.84605,0.23210
2890.77452,0.23289
2892.70299,0.23228
2894.63146,0.23080
2896.55993,0.23108
2898.48839,0.23209
2900.41686,0.23129
2902.34533,0.22909
2904.27380,0.22671
2906.20227,0.22585
2908.13074,0.22636
2910.05921,0.22708
2911.98768,0.22991
2913.91614,0.23462
2915.84461,0.23505
2917.77308,0.22900
2919.70155,0.22088
2921.63002,0.21696
2923.55849,0.22111
2925.48696,0.22652
2927.41542,0.23059
2929.34389,0.23728
2931.27236,0.23800
2933.20083,0.23138
2935.12930,0.22668
2937.05777,0.22353
2938.98624,0.22069
2940.91471,0.22091
2942.84317,0.22420
2944.77164,0.22576
2946.70011,0.22279
2948.62858,0.22063
2950.55705,0.22194
2952.48552,0.22424
2954.41399,0.22610
2956.34245,0.22443
2958.27092,0.22183
2960.19939,0.22669
2962.12786,0.23635
2964.05633,0.24079
2965.98480,0.23673
2967.91327,0.22968
2969.84174,0.22743
2971.77020,0.23020
2973.69867,0.23366
2975.62714,0.23604
2977.55561,0.23846
2979.48408,0.23972
2981.41255,0.23598
2983.34102,0.23104
2985.26948,0.23005
2987.19795,0.23190
2989.12642,0.23498
2991.05489,0.23682
2992.98336,0.23755
2994.91183,0.24021
2996.84030,0.24374
2998.76877,0.24417
3000.69723,0.24050
3002.62570,0.23675
3004.55417,0.23509
3006.48264,0.23388
3008.41111,0.23447
3010.33958,0.23722
3012.26805,0.23589
3014.19651,0.22583
3016.12498,0.21444
3018.05345,0.21502
3019.98192,0.22603
3021.91039,0.23455
3023.83886,0.23783
3025.76733,0.23968
3027.69579,0.24066
3029.62426,0.23957
3031.55273,0.23678
3033.48120,0.23571
3035.40967,0.23635
3037.33814,0.23520
3039.26661,0.23466
3041.19508,0.23649
3043.12354,0.23619
3045.05201,0.23236
3046.98048,0.22710
3048.90895,0.22672
3050.83742,0.23395
3052.76589,0.23976
3054.69436,0.23800
3056.62282,0.23137
3058.55129,0.22805
3060.47976,0.23119
3062.40823,0.23454
3064.33670,0.23545
3066.26517,0.23602
3068.19364,0.23676
3070.12211,0.23566
3072.05057,0.23281
3073.97904,0.22959
3075.90751,0.22547
3077.83598,0.22549
3079.76445,0.23391
3081.69292,0.23963
3083.62139,0.23341
3085.54985,0.22757
3087.47832,0.23006
3089.40679,0.23284
3091.33526,0.23466
3093.26373,0.23719
3095.19220,0.23911
3097.12067,0.24125
3099.04914,0.24332
3100.97760,0.24244
3102.90607,0.23494
3104.83454,0.22621
3106.76301,0.22479
3108.69148,0.22839
3110.61995,0.23054
3112.54842,0.23250
3114.47688,0.23862
3116.40535,0.24313
3118.33382,0.23918
3120.26229,0.23056
3122.19076,0.22509
3124.11923,0.22843
3126.04770,0.23597
3127.97617,0.23864
3129.90463,0.23765
3131.83310,0.23615
3133.76157,0.23178
3135.69004,0.22703
3137.61851,0.22744
3139.54698,0.23292
3141.47545,0.24044
3143.40391,0.24844
3145.33238,0.25404
3147.26085,0.25172
3149.18932,0.24365
3151.11779,0.23911
3153.04626,0.23905
3154.97473,0.23895
3156.90320,0.23829
3158.83166,0.24033
3160.76013,0.24633
3162.68860,0.24913
3164.61707,0.24361
3166.54554,0.23618
3168.47401,0.23532
3170.40248,0.24092
3172.33094,0.24667
3174.25941,0.24928
3176.18788,0.25007
3178.11635,0.25168
3180.04482,0.25264
3181.97329,0.24958
3183.90176,0.24473
3185.83022,0.24145
3187.75869,0.24072
3189.68716,0.24118
3191.61563,0.24346
3193.54410,0.24738
3195.47257,0.24711
3197.40104,0.24321
3199.32951,0.24129
3201.25797,0.24119
3203.18644,0.23955
3205.11491,0.23730
3207.04338,0.24000
3208.97185,0.24490
3210.90032,0.24456
3212.82879,0.23974
3214.75725,0.23616
3216.68572,0.23698
3218.61419,0.23996
3220.54266,0.24422
3222.47113,0.24954
3224.39960,0.25062
3226.32807,0.24422
3228.25654,0.23618
3230.18500,0.23489
3232.11347,0.23998
3234.04194,0.24506
3235.97041,0.24612
3237.89888,0.24362
3239.82735,0.24289
3241.75582,0.24520
3243.68428,0.24330
3245.61275,0.23747
3247.54122,0.23716
3249.46969,0.24092
3251.39816,0.24214
3253.32663,0.24271
3255.25510,0.24415
3257.18357,0.24329
3259.11203,0.24121
3261.04050,0.24068
3262.96897,0.23945
3264.89744,0.23976
3266.82591,0.24327
3268.75438,0.24507
3270.68285,0.24625
3272.61131,0.24654
3274.53978,0.24121
3276.46825,0.23328
3278.39672,0.22990
3280.32519,0.23376
3282.25366,0.24090
3284.18213,0.24572
3286.11060,0.24442
3288.03906,0.23795
3289.96753,0.23162
3291.89600,0.22873
3293.82447,0.23272
3295.75294,0.24175
3297.68141,0.24482
3299.60988,0.24062
3301.53834,0.23964
3303.46681,0.24330
3305.39528,0.24351
3307.32375,0.23851
3309.25222,0.23527
3311.18069,0.23719
3313.10916,0.23847
3315.03763,0.23693
3316.96609,0.23745
3318.89456,0.23992
3320.82303,0.24053
3322.75150,0.23910
3324.67997,0.23834
3326.60844,0.24262
3328.53691,0.24998
3330.46537,0.24979
3332.39384,0.24208
3334.32231,0.23743
3336.25078,0.23723
3338.17925,0.23872
3340.10772,0.24236
3342.03619,0.24501
3343.96466,0.24361
3345.89312,0.24180
3347.82159,0.24305
3349.75006,0.24674
3351.67853,0.24882
3353.60700,0.24515
3355.53547,0.24141
3357.46394,0.24423
3359.39240,0.24921
3361.32087,0.24916
3363.24934,0.24318
3365.17781,0.23824
3367.10628,0.23966
3369.03475,0.24223
3370.96322,0.24261
3372.89168,0.24509
3374.82015,0.24938
3376.74862,0.25101
3378.67709,0.24680
3380.60556,0.23907
3382.53403,0.23422
3384.46250,0.23360
3386.39097,0.23478
3388.31943,0.23552
3390.24790,0.23577
3392.17637,0.23578
3394.10484,0.23487
3396.03331,0.23472
3397.96178,0.23599
3399.89025,0.23697
3401.81871,0.23811
3403.74718,0.24175
3405.67565,0.24752
3407.60412,0.25294
3409.53259,0.25478
3411.46106,0.25015
3413.38953,0.24297
3415.31800,0.24042
3417.24646,0.24199
3419.17493,0.24273
3421.10340,0.24314
3423.03187,0.24320
3424.96034,0.23696
3426.88881,0.22832
3428.81728,0.22926
3430.74574,0.23539
3432.67421,0.23468
3434.60268,0.23117
3436.53115,0.23267
3438.45962,0.23609
3440.38809,0.23648
3442.31656,0.23226
3444.24503,0.22556
3446.17349,0.22381
3448.10196,0.23067
3450.03043,0.23755
3451.95890,0.23520
3453.88737,0.22741
3455.81584,0.22290
3457.74431,0.22383
3459.67277,0.22615
3461.60124,0.22352
3463.52971,0.21763
3465.45818,0.21625
3467.38665,0.22165
3469.31512,0.22618
3471.24359,0.22051
3473.17206,0.21140
3475.10052,0.21196
3477.02899,0.22046
3478.95746,0.22765
3480.88593,0.22980
3482.81440,0.22576
3484.74287,0.22038
3486.67134,0.21808
3488.59980,0.21344
3490.52827,0.20811
3492.45674,0.20701
3494.38521,0.20635
3496.31368,0.20581
3498.24215,0.20788
3500.17062,0.21188
3502.09909,0.21682
3504.02755,0.21850
3505.95602,0.21362
3507.88449,0.20787
3509.81296,0.20623
3511.74143,0.20472
3513.66990,0.20230
3515.59837,0.20315
3517.52683,0.20409
3519.45530,0.20260
3521.38377,0.20063
3523.31224,0.19754
3525.24071,0.19760
3527.16918,0.20006
3529.09765,0.19569
3531.02611,0.18847
3532.95458,0.18636
3534.88305,0.18860
3536.81152,0.19102
3538.73999,0.18988
3540.66846,0.19087
3542.59693,0.19782
3544.52540,0.20301
3546.45386,0.20340
3548.38233,0.20211
3550.31080,0.19909
3552.23927,0.19330
3554.16774,0.18755
3556.09621,0.18650
3558.02468,0.18682
3559.95314,0.18527
3561.88161,0.18616
3563.81008,0.19465
3565.73855,0.20837
3567.66702,0.20927
3569.59549,0.19398
3571.52396,0.18229
3573.45243,0.17800
3575.38089,0.17733
3577.30936,0.17730
3579.23783,0.17707
3581.16630,0.17782
3583.09477,0.18089
3585.02324,0.18863
3586.95171,0.19490
3588.88017,0.18664
3590.80864,0.17543
3592.73711,0.17121
3594.66558,0.17049
3596.59405,0.17136
3598.52252,0.17528
3600.45099,0.17939
3602.37946,0.17961
3604.30792,0.18012
3606.23639,0.18156
3608.16486,0.17644
3610.09333,0.16877
3612.02180,0.16908
3613.95027,0.17504
3615.87874,0.18057
3617.80720,0.18218
3619.73567,0.17559
3621.66414,0.16530
3623.59261,0.16137
3625.52108,0.16670
3627.44955,0.17736
3629.37802,0.17971
3631.30649,0.17319
3633.23495,0.16911
3635.16342,0.16612
3637.09189,0.16317
3639.02036,0.15993
3640.94883,0.15851
3642.87730,0.15973
3644.80577,0.16283
3646.73423,0.17101
3648.66270,0.18104
3650.59117,0.17717
3652.51964,0.16668
3654.44811,0.16176
3656.37658,0.16115
3658.30505,0.15819
3660.23352,0.15253
3662.16198,0.14945
3664.09045,0.15243
3666.01892,0.16006
3667.94739,0.17068
3669.87586,0.17526
3671.80433,0.16520
3673.73280,0.15733
3675.66126,0.15434
3677.58973,0.15130
3679.51820,0.15173
3681.44667,0.15302
3683.37514,0.15136
3685.30361,0.15042
3687.23208,0.15476
3689.16055,0.15867
3691.08901,0.15434
3693.01748,0.15248
3694.94595,0.15498
3696.87442,0.15325
3698.80289,0.14908
3700.73136,0.14950
3702.65983,0.14930
3704.58829,0.14544
3706.51676,0.14573
3708.44523,0.15305
3710.37370,0.16381
3712.30217,0.16518
3714.23064,0.15220
3716.15911,0.14002
3718.08757,0.13545
3720.01604,0.13821
3721.94451,0.14520
3723.87298,0.14860
3725.80145,0.14793
3727.72992,0.14697
3729.65839,0.14573
3731.58686,0.14702
3733.51532,0.15041
3735.44379,0.15202
3737.37226,0.15335
3739.30073,0.15554
3741.22920,0.15985
3743.15767,0.16764
3745.08614,0.17326
3747.01460,0.17375
3748.94307,0.17694
3750.87154,0.18160
3752.80001,0.18163
3754.72848,0.17905
3756.65695,0.17571
3758.58542,0.16620
3760.51389,0.15093
3762.44235,0.14327
3764.37082,0.14397
3766.29929,0.14760
3768.22776,0.15142
3770.15623,0.15421
3772.08470,0.15388
3774.01317,0.14981
3775.94163,0.14616
3777.87010,0.14727
3779.79857,0.14930
3781.72704,0.14737
3783.65551,0.14661
3785.58398,0.14884
3787.51245,0.15024
3789.44092,0.14757
3791.36938,0.14051
3793.29785,0.13770
3795.22632,0.14524
3797.15479,0.15373
3799.08326,0.15807
3801.01173,0.16396
3802.94020,0.16472
3804.86866,0.16141
3806.79713,0.15683
3808.72560,0.14606
3810.65407,0.13663
3812.58254,0.13475
3814.51101,0.14195
3816.43948,0.15404
3818.36795,0.15865
3820.29641,0.15412
3822.22488,0.14512
3824.15335,0.14359
3826.08182,0.14887
3828.01029,0.15135
3829.93876,0.14779
3831.86723,0.14366
3833.79569,0.14408
3835.72416,0.14820
3837.65263,0.15317
3839.58110,0.15744
3841.50957,0.15368
3843.43804,0.14325
3845.36651,0.14016
3847.29498,0.14623
3849.22344,0.15314
3851.15191,0.15735
3853.08038,0.15994
3855.00885,0.15640
3856.93732,0.14573
3858.86579,0.13687
3860.79426,0.13326
3862.72272,0.13544
3864.65119,0.14080
3866.57966,0.14298
3868.50813,0.14561
3870.43660,0.14944
3872.36507,0.14697
3874.29354,0.13927
3876.22200,0.13449
3878.15047,0.14058
3880.07894,0.15195
3882.00741,0.15206
3883.93588,0.14401
3885.86435,0.13709
3887.79282,0.13439
3889.72129,0.13769
3891.64975,0.14176
3893.57822,0.13996
3895.50669,0.13840
3897.43516,0.13930
3899.36363,0.13783
3901.29210,0.13620
3903.22057,0.13647
3905.14903,0.13164
3907.07750,0.12634
3909.00597,0.12532
3910.93444,0.12732
3912.86291,0.13144
3914.79138,0.13175
3916.71985,0.12476
3918.64832,0.11737
3920.57678,0.11481
3922.50525,0.11743
3924.43372,0.12334
3926.36219,0.12836
3928.29066,0.13114
3930.21913,0.12996
3932.14760,0.12574
3934.07606,0.12424
3936.00453,0.12390
3937.93300,0.12135
3939.86147,0.11904
3941.78994,0.11987
3943.71841,0.12239
3945.64688,0.12374
3947.57535,0.12450
3949.50381,0.12381
3951.43228,0.12179
3953.36075,0.12380
3955.28922,0.12880
3957.21769,0.13136
3959.14616,0.13028
3961.07463,0.12555
3963.00309,0.12061
3964.93156,0.11790
3966.86003,0.11661
3968.78850,0.12112
3970.71697,0.12967
3972.64544,0.13229
3974.57391,0.12788
3976.50238,0.12272
3978.43084,0.11941
3980.35931,0.11708
3982.28778,0.11845
3984.21625,0.12540
3986.14472,0.13091
3988.07319,0.12944
3990.00166,0.12432
3991.93012,0.11970
3993.85859,0.11591
3995.78706,0.11243
3997.71553,0.11127
3999.64400,0.11360
4001.57247,0.11598
4003.50094,0.11496
4005.42941,0.11211
4007.35787,0.10971
4009.28634,0.10650
4011.21481,0.10686
4013.14328,0.11339
4015.07175,0.11831
4017.00022,0.12101
4018.92869,0.12092
4020.85715,0.11190
4022.78562,0.10244
4024.71409,0.10282
4026.64256,0.10785
4028.57103,0.11026
4030.49950,0.11012
4032.42797,0.10852
4034.35644,0.10743
4036.28490,0.10985
4038.21337,0.11273
4040.14184,0.11103
4042.07031,0.10711
4043.99878,0.10716
4045.92725,0.11151
4047.85572,0.11251
4049.78418,0.10846
4051.71265,0.10631
4053.64112,0.10731
4055.56959,0.10959
4057.49806,0.11287
4059.42653,0.11581
4061.35500,0.11897
4063.28346,0.12092
4065.21193,0.11669
4067.14040,0.10759
4069.06887,0.10332
4070.99734,0.10790
4072.92581,0.11380
4074.85428,0.11559
4076.78275,0.11431
4078.71121,0.10920
4080.63968,0.10080
4082.56815,0.09685
4084.49662,0.10216
4086.42509,0.10910
4088.35356,0.10915
4090.28203,0.10637
4092.21049,0.10775
4094.13896,0.11103
4096.06743,0.11131
4097.99590,0.10808
4099.92437,0.10361
4101.85284,0.09895
4103.78131,0.09469
4105.70978,0.09502
4107.63824,0.10010
4109.56671,0.10257
4111.49518,0.09896
4113.42365,0.09558
4115.35212,0.09960
4117.28059,0.10332
4119.20906,0.09859
4121.13752,0.09729
4123.06599,0.10477
4124.99446,0.10972
4126.92293,0.10777
4128.85140,0.10275
4130.77987,0.09872
4132.70834,0.09442
4134.63681,0.08821
4136.56527,0.08632
4138.49374,0.09266
4140.42221,0.10202
4142.35068,0.10475
4144.27915,0.09782
4146.20762,0.08847
4148.13609,0.08275
4150.06455,0.08169
4151.99302,0.08785
4153.92149,0.10135
4155.84996,0.11155
4157.77843,0.10998
4159.70690,0.10117
4161.63537,0.08957
4163.56384,0.07703
4165.49230,0.07182
4167.42077,0.07665
4169.34924,0.08072
4171.27771,0.07912
4173.20618,0.07956
4175.13465,0.08410
4177.06312,0.08587
4178.99158,0.08615
4180.92005,0.09036
4182.84852,0.09375
4184.77699,0.09425
4186.70546,0.09595
4188.63393,0.10048
4190.56240,0.10689
4192.49087,0.10782
4194.41933,0.09808
4196.34780,0.08576
4198.27627,0.08318
4200.20474,0.08668
4202.13321,0.08340
4204.06168,0.07890
4205.99015,0.08057
4207.91861,0.08068
4209.84708,0.07594
4211.77555,0.07169
4213.70402,0.07260
4215.63249,0.08019
4217.56096,0.08875
4219.48943,0.08884
4221.41789,0.08274
4223.34636,0.07897
4225.27483,0.07751
4227.20330,0.07838
4229.13177,0.08360
4231.06024,0.08979
4232.98871,0.09101
4234.91718,0.08478
4236.84564,0.07458
4238.77411,0.06651
4240.70258,0.06646
4242.63105,0.07437
4244.55952,0.08092
4246.48799,0.08126
4248.41646,0.08149
4250.34492,0.08227
4252.27339,0.07820
4254.20186,0.07103
4256.13033,0.06415
4258.05880,0.05883
4259.98727,0.05783
4261.91574,0.06251
4263.84421,0.06936
4265.77267,0.07347
4267.70114,0.07196
4269.62961,0.06520
4271.55808,0.05954
4273.48655,0.06120
4275.41502,0.06589
4277.34349,0.06767
4279.27195,0.07092
4281.20042,0.07637
4283.12889,0.07666
4285.05736,0.07074
4286.98583,0.06322
4288.91430,0.06034
4290.84277,0.06385
4292.77124,0.07019
4294.69970,0.07578
4296.62817,0.07431
4298.55664,0.06402
4300.48511,0.05418
4302.41358,0.05320
4304.34205,0.05938
4306.27052,0.06661
4308.19898,0.06895
4310.12745,0.06706
4312.05592,0.06674
4313.98439,0.06470
4315.91286,0.06155
4317.84133,0.06433
4319.76980,0.06867
4321.69827,0.06990
4323.62673,0.06918
4325.55520,0.06353
4327.48367,0.05504
4329.41214,0.05260
4331.34061,0.05479
4333.26908,0.05430
4335.19755,0.05152
4337.12601,0.04896
4339.05448,0.04556
4340.98295,0.04429
4342.91142,0.05100
4344.83989,0.05785
4346.76836,0.05824
4348.69683,0.06137
4350.62530,0.06623
4352.55376,0.06446
4354.48223,0.06132
4356.41070,0.06006
4358.33917,0.05256
4360.26764,0.04206
4362.19611,0.03976
4364.12458,0.04428
4366.05304,0.04948
4367.98151,0.04889
4369.90998,0.04289
4371.83845,0.04170
4373.76692,0.04289
4375.69539,0.03788
4377.62386,0.03227
4379.55232,0.03584
4381.48079,0.04463
4383.40926,0.04687
4385.33773,0.04329
4387.26620,0.04160
4389.19467,0.04129
4391.12314,0.04064
4393.05161,0.04381
4394.98007,0.04841
4396.90854,0.04693
4398.83701,0.04265
4400.76548,0.03981
4402.69395,0.03734
4404.62242,0.03741
4406.55089,0.03893
4408.47935,0.03649
4410.40782,0.03280
4412.33629,0.03337
4414.26476,0.03827
4416.19323,0.04575
4418.12170,0.04792
4420.05017,0.04185
4421.97864,0.03732
4423.90710,0.03692
4425.83557,0.03712
4427.76404,0.04016
4429.69251,0.04979
4431.62098,0.06127
4433.54945,0.06012
4435.47792,0.04550
4437.40638,0.03489
4439.33485,0.03469
4441.26332,0.03826
4443.19179,0.04442
4445.12026,0.05393
4447.04873,0.05953
4448.97720,0.05534
4450.90567,0.04783
4452.83413,0.04222
4454.76260,0.03444
4456.69107,0.02924
4458.61954,0.03358
4460.54801,0.03773
4462.47648,0.03470
4464.40495,0.02860
4466.33341,0.01827
4468.26188,0.00842
4470.19035,0.01117
4472.11882,0.02412
4474.04729,0.03393
4475.97576,0.03556
4477.90423,0.03426
4479.83270,0.03225
4481.76116,0.02877
4483.68963,0.02612
4485.61810,0.02307
4487.54657,0.02133
4489.47504,0.02510
4491.40351,0.02659
4493.33198,0.02105
4495.26044,0.01489
4497.18891,0.00947
4499.11738,0.00831
4501.04585,0.01752
4502.97432,0.02922
4504.90279,0.03036
4506.83126,0.02187
4508.75973,0.01553
4510.68819,0.01510
4512.61666,0.01741
4514.54513,0.02028
4516.47360,0.01982
4518.40207,0.01854
4520.33054,0.02144
4522.25901,0.02454
4524.18747,0.01832
4526.11594,0.00320
4528.04441,-0.00512
4529.97288,0.00085
4531.90135,0.01271
4533.82982,0.02122
4535.75829,0.02417
4537.68676,0.02271
4539.61522,0.01723
4541.54369,0.01501
4543.47216,0.02262
4545.40063,0.02905
4547.32910,0.02572
4549.25757,0.02936
4551.18604,0.04418
4553.11450,0.04876
4555.04297,0.03987
4556.97144,0.02327
4558.89991,0.00098
4560.82838,-0.00807
4562.75685,0.00492
4564.68532,0.02197
4566.61378,0.02952
4568.54225,0.02741
4570.47072,0.02173
4572.39919,0.01803
4574.32766,0.01139
4576.25613,0.00081
4578.18460,-0.00291
4580.11307,0.00733
4582.04153,0.02091
4583.97000,0.02716
4585.89847,0.02843
4587.82694,0.02640
4589.75541,0.02415
4591.68388,0.01995
4593.61235,0.01194
4595.54081,0.00689
4597.46928,0.00534
4599.39775,0.00529
4601.32622,0.00778
4603.25469,0.01518
4605.18316,0.02403
4607.11163,0.02327
4609.04010,0.01443
4610.96856,0.01266
4612.89703,0.01996
4614.82550,0.02124
4616.75397,0.01501
4618.68244,0.01194
4620.61091,0.01117
4622.53938,0.00801
4624.46784,0.00333
4626.39631,0.00289
4628.32478,0.01238
4630.25325,0.02576
4632.18172,0.02907
4634.11019,0.01860
4636.03866,0.00466
4637.96713,0.00047
4639.89559,0.00803
4641.82406,0.01907
4643.75253,0.02839
4645.68100,0.02777
4647.60947,0.01496
4649.53794,0.00744
4651.46641,0.01038
4653.39487,0.00938
4655.32334,0.00667
4657.25181,0.01070
4659.18028,0.01475
4661.10875,0.01654
4663.03722,0.01561
4664.96569,0.01004
4666.89416,0.00667
4668.82262,0.01001
4670.75109,0.01897
4672.67956,0.02579
4674.60803,0.02410
4676.53650,0.01915
4678.46497,0.01590
4680.39344,0.01550
4682.32190,0.01843
4684.25037,0.01796
4686.17884,0.01235
4688.10731,0.01062
4690.03578,0.00993
4691.96425,0.00694
4693.89272,0.01111
4695.82119,0.01588
4697.74965,0.00617
4699.67812,-0.00551
4701.60659,-0.00082
4703.53506,0.01031
4705.46353,0.01342
4707.39200,0.01127
4709.32047,0.00927
4711.24893,0.00586
4713.17740,0.00188
4715.10587,-0.00145
4717.03434,-0.00547
4718.96281,-0.00790
4720.89128,-0.01040
4722.81975,-0.01237
4724.74821,-0.00747
4726.67668,0.00685
4728.60515,0.02164
4730.53362,0.02448
4732.46209,0.02346
4734.39056,0.02748
4736.31903,0.03220
4738.24750,0.03442
4740.17596,0.03172
4742.10443,0.02881
4744.03290,0.02627
4745.96137,0.01927
4747.88984,0.01505
4749.81831,0.01647
4751.74678,0.01999
4753.67524,0.02694
4755.60371,0.02945
4757.53218,0.02525
4759.46065,0.02198
4761.38912,0.01296
4763.31759,-0.00243
4765.24606,-0.01292
4767.17453,-0.01563
4769.10299,-0.00956
4771.03146,-0.00032
4772.95993,0.00264
4774.88840,0.00530
4776.81687,0.01155
4778.74534,0.01388
4780.67381,0.01409
4782.60227,0.01610
4784.53074,0.01527
4786.45921,0.00889
4788.38768,0.00023
4790.31615,-0.00458
4792.24462,-0.00442
4794.17309,-0.00191
4796.10156,0.00629
4798.03002,0.02130
4799.95849,0.02870
4801.88696,0.02068
4803.81543,0.01321
4805.74390,0.01632
4807.67237,0.01816
4809.60084,0.01388
4811.52930,0.01409
4813.45777,0.01494
4815.38624,0.00486
4817.31471,-0.00598
4819.24318,-0.00890
4821.17165,-0.00991
4823.10012,-0.01098
4825.02859,-0.01130
4826.95705,-0.00948
4828.88552,-0.00096
4830.81399,0.01407
4832.74246,0.01839
4834.67093,0.00058
4836.59940,-0.01298
4838.52787,-0.00392
4840.45633,0.00487
4842.38480,-0.00008
4844.31327,-0.00603
4846.24174,-0.00515
4848.17021,-0.00620
4850.09868,-0.01356
4852.02715,-0.01527
4853.95562,-0.00663
4855.88408,0.00816
4857.81255,0.02589
4859.74102,0.03657
4861.66949,0.03564
4863.59796,0.02677
4865.52643,0.01126
4867.45490,0.00095
4869.38336,0.00344
4871.31183,0.00638
4873.24030,0.00895
4875.16877,0.01523
4877.09724,0.01435
4879.02571,0.00662
4880.95418,0.00544
4882.88265,0.00799
4884.81111,0.00397
4886.73958,0.00049
4888.66805,0.00559
4890.59652,0.01482
4892.52499,0.02145
4894.45346,0.02297
4896.38193,0.02146
4898.31039,0.01681
4900.23886,0.01151
4902.16733,0.01567
4904.09580,0.02462
4906.02427,0.02213
4907.95274,0.01242
4909.88121,0.00545
4911.80967,0.00212
4913.73814,0.00092
4915.66661,0.00164
4917.59508,0.01088
4919.52355,0.02202
4921.45202,0.02408
4923.38049,0.01892
4925.30896,0.00639
4927.23742,-0.00359
4929.16589,0.00102
4931.09436,0.01199
4933.02283,0.01919
4934.95130,0.02407
4936.87977,0.02090
4938.80824,0.00478
4940.73670,-0.00385
4942.66517,0.00307
4944.59364,0.00478
4946.52211,0.00228
4948.45058,0.01468
4950.37905,0.03288
4952.30752,0.03418
4954.23599,0.01955
4956.16445,0.00198
4958.09292,-0.01461
4960.02139,-0.02519
4961.94986,-0.02521
4963.87833,-0.01702
4965.80680,-0.00374
4967.73527,0.00597
4969.66373,0.00710
4971.59220,0.00682
4973.52067,0.00535
4975.44914,0.00401
4977.37761,0.01392
4979.30608,0.02464
4981.23455,0.02300
4983.16302,0.02284
4985.09148,0.02873
4987.01995,0.02425
4988.94842,0.00978
4990.87689,0.00683
4992.80536,0.01730
4994.73383,0.02464
4996.66230,0.02327
4998.59076,0.01922
5000.51923,0.01846
5002.44770,0.01415
5004.37617,0.00176
5006.30464,-0.00831
5008.23311,-0.00969
5010.16158,-0.00197
5012.09005,0.01378
5014.01851,0.03026
5015.94698,0.03956
5017.87545,0.03617
5019.80392,0.01802
5021.73239,0.00276
5023.66086,0.00707
5025.58933,0.01686
5027.51779,0.01582
5029.44626,0.00619
5031.37473,0.00016
5033.30320,0.00429
5035.23167,0.01109
5037.16014,0.01837
5039.08861,0.02916
5041.01708,0.04016
5042.94554,0.04773
5044.87401,0.04478
5046.80248,0.03087
5048.73095,0.02053
5050.65942,0.01293
5052.58789,0.00196
5054.51636,0.00096
5056.44482,0.01081
5058.37329,0.02361
5060.30176,0.04106
5062.23023,0.05147
5064.15870,0.04806
5066.08717,0.04201
5068.01564,0.03674
5069.94410,0.03450
5071.87257,0.04290
5073.80104,0.05915
5075.72951,0.06941
5077.65798,0.06275
5079.58645,0.04369
5081.51492,0.03425
5083.44339,0.03818
5085.37185,0.03559
5087.30032,0.03114
5089.22879,0.03911
5091.15726,0.05058
5093.08573,0.05205
5095.01420,0.03933
5096.94267,0.02450
5098.87113,0.01979
5100.79960,0.02169
5102.72807,0.03157
5104.65654,0.04340
5106.58501,0.04147
5108.51348,0.03274
5110.44195,0.02483
5112.37042,0.02002
5114.29888,0.03097
5116.22735,0.05046
5118.15582,0.05754
5120.08429,0.05086
5122.01276,0.04533
5123.94123,0.04499
5125.86970,0.03614
5127.79816,0.01400
5129.72663,0.00118
5131.65510,0.00601
5133.58357,0.00414
5135.51204,-0.00084
5137.44051,0.00955
5139.36898,0.01795
5141.29745,0.00913
5143.22591,0.00103
5145.15438,0.01124
5147.08285,0.03094
5149.01132,0.05472
5150.93979,0.07543
5152.86826,0.07358
5154.79673,0.05868
5156.72519,0.04547
5158.65366,0.02533
5160.58213,0.00793
5162.51060,0.01289
5164.43907,0.02696
5166.36754,0.02921
5168.29601,0.02619
5170.22448,0.02565
5172.15294,0.01974
5174.08141,0.01137
5176.00988,0.01092
5177.93835,0.01970
5179.86682,0.03634
5181.79529,0.04830
5183.72376,0.04895
5185.65222,0.04475
5187.58069,0.03537
5189.50916,0.02127
5191.43763,0.01343
5193.36610,0.02457
5195.29457,0.03951
5197.22304,0.03399
5199.15151,0.01862
5201.07997,0.01721
5203.00844,0.02764
5204.93691,0.03561
5206.86538,0.03298
5208.79385,0.02176
5210.72232,0.02139
5212.65079,0.03404
5214.57925,0.04551
5216.50772,0.05828
5218.43619,0.06309
5220.36466,0.04325
5222.29313,0.02596
5224.22160,0.04117
5226.15007,0.06568
5228.07854,0.07000
5230.00700,0.06498
5231.93547,0.06423
5233.86394,0.06975
5235.79241,0.06567
5237.72088,0.04901
5239.64935,0.03905
5241.57782,0.03685
5243.50628,0.03601
5245.43475,0.03618
5247.36322,0.03379
5249.29169,0.03529
5251.22016,0.04405
5253.14863,0.04642
5255.07710,0.03627
5257.00556,0.02126
5258.93403,0.01939
5260.86250,0.03694
5262.79097,0.05749
5264.71944,0.06010
5266.64791,0.04804
5268.57638,0.05376
5270.50485,0.07772
5272.43331,0.09398
5274.36178,0.09548
5276.29025,0.08603
5278.21872,0.07647
5280.14719,0.06770
5282.07566,0.06130
5284.00413,0.06726
5285.93259,0.07966
5287.86106,0.08485
5289.78953,0.08114
5291.71800,0.06773
5293.64647,0.04304
5295.57494,0.02420
5297.50341,0.01784
5299.43188,0.01976
5301.36034,0.03653
5303.28881,0.05907
5305.21728,0.06968
5307.14575,0.06793
5309.07422,0.07708
5311.00269,0.09414
5312.93116,0.07918
5314.85962,0.04753
5316.78809,0.04187
5318.71656,0.05127
5320.64503,0.06650
5322.57350,0.08512
5324.50197,0.07491
5326.43044,0.03941
5328.35891,0.01976
5330.28737,0.02553
5332.21584,0.04397
5334.14431,0.05998
5336.07278,0.07077
5338.00125,0.07761
5339.92972,0.06342
5341.85819,0.04244
5343.78665,0.04650
5345.71512,0.06745
5347.64359,0.07609
5349.57206,0.07588
5351.50053,0.07582
5353.42900,0.07551
5355.35747,0.07106
5357.28594,0.06444
5359.21440,0.06448
5361.14287,0.06963
5363.07134,0.07374
5364.99981,0.08020
5366.92828,0.08261
5368.85675,0.06322
5370.78522,0.03104
5372.71368,0.02132
5374.64215,0.03649
5376.57062,0.04071
5378.49909,0.03751
5380.42756,0.06225
5382.35603,0.10128
5384.28450,0.10461
5386.21297,0.06684
5388.14143,0.04482
5390.06990,0.05432
5391.99837,0.07536
5393.92684,0.09796
5395.85531,0.10415
5397.78378,0.09007
5399.71225,0.08226
5401.64071,0.07556
5403.56918,0.05859
5405.49765,0.05863
5407.42612,0.08005
5409.35459,0.09650
5411.28306,0.09424
5413.21153,0.08145
5415.13999,0.07060
5417.06846,0.05980
5418.99693,0.05714
5420.92540,0.07087
5422.85387,0.08687
5424.78234,0.09634
5426.71081,0.10131
5428.63928,0.09865
5430.56774,0.09383
5432.49621,0.08328
5434.42468,0.05966
5436.35315,0.05155
5438.28162,0.06644
5440.21009,0.08137
5442.13856,0.09230
5444.06702,0.09628
5445.99549,0.08682
5447.92396,0.06942
5449.85243,0.06235
5451.78090,0.07860
5453.70937,0.09885
5455.63784,0.10738
5457.56631,0.11315
5459.49477,0.11087
5461.42324,0.09913
5463.35171,0.09089
5465.28018,0.07565
5467.20865,0.05900
5469.13712,0.06528
5471.06559,0.09042
5472.99405,0.11198
5474.92252,0.10307
5476.85099,0.07144
5478.77946,0.04862
5480.70793,0.02209
5482.63640,0.00513
5484.56487,0.02636
5486.49334,0.05891
5488.42180,0.07605
5490.35027,0.08275
5492.27874,0.07122
5494.20721,0.04527
5496.13568,0.04056
5498.06415,0.06320
5499.99262,0.08543
5501.92108,0.08454
5503.84955,0.06508
5505.77802,0.04005
5507.70649,0.03194
5509.63496,0.06489
5511.56343,0.11159
5513.49190,0.11593
5515.42037,0.07589
5517.34883,0.04763
5519.27730,0.05855
5521.20577,0.07697
5523.13424,0.07186
5525.06271,0.05059
5526.99118,0.03936
5528.91965,0.04066
5530.84811,0.04790
5532.77658,0.07300
5534.70505,0.10674
5536.63352,0.11930
5538.56199,0.10711
5540.49046,0.09338
5542.41893,0.09331
5544.34740,0.10338
5546.27586,0.11912
5548.20433,0.13201
5550.13280,0.13061
5552.06127,0.10707
5553.98974,0.07688
5555.91821,0.07637
5557.84668,0.08879
5559.77514,0.08019
5561.70361,0.08546
5563.63208,0.12600
5565.56055,0.14120
5567.48902,0.09778
5569.41749,0.06066
5571.34596,0.07418
5573.27443,0.10559
5575.20289,0.11637
5577.13136,0.11465
5579.05983,0.12407
5580.98830,0.13123
5582.91677,0.11467
5584.84524,0.09043
5586.77371,0.06785
5588.70217,0.04611
5590.63064,0.03963
5592.55911,0.04820
5594.48758,0.06572
5596.41605,0.07328
5598.34452,0.05033
5600.27299,0.03087
5602.20145,0.04343
5604.12992,0.07970
5606.05839,0.11430
5607.98686,0.11738
5609.91533,0.11057
5611.84380,0.12214
5613.77227,0.13118
5615.70074,0.12067
5617.62920,0.10402
5619.55767,0.08606
5621.48614,0.07707
5623.41461,0.09933
5625.34308,0.11773
5627.27155,0.10368
5629.20002,0.08900
5631.12848,0.06644
5633.05695,0.03151
5634.98542,0.02669
5636.91389,0.06951
5638.84236,0.12920
5640.77083,0.16079
5642.69930,0.15423
5644.62777,0.12243
5646.55623,0.07787
5648.48470,0.07015
5650.41317,0.12143
5652.34164,0.15830
5654.27011,0.12855
5656.19858,0.07573
5658.12705,0.04442
5660.05551,0.03550
5661.98398,0.04084
5663.91245,0.04930
5665.84092,0.05492
5667.76939,0.06767
5669.69786,0.09482
5671.62633,0.11332
5673.55480,0.10381
5675.48326,0.10097
5677.41173,0.12599
5679.34020,0.13597
5681.26867,0.12177
5683.19714,0.12043
5685.12561,0.12886
5687.05408,0.12430
5688.98254,0.11236
5690.91101,0.10368
5692.83948,0.09849
5694.76795,0.10570
5696.69642,0.11238
5698.62489,0.09574
5700.55336,0.09661
5702.48183,0.12040
5704.41029,0.11317
5706.33876,0.08421
5708.26723,0.06175
5710.19570,0.05182
5712.12417,0.05719
5714.05264,0.06014
5715.98111,0.04702
5717.90957,0.03883
5719.83804,0.05305
5721.76651,0.06049
5723.69498,0.03957
5725.62345,0.01617
5727.55192,0.01412
5729.48039,0.03928
5731.40886,0.08825
5733.33732,0.14375
5735.26579,0.17626
5737.19426,0.15546
5739.12273,0.09168
5741.05120,0.04145
5742.97967,0.03407
5744.90814,0.05046
5746.83660,0.07290
5748.76507,0.09106
5750.69354,0.08701
5752.62201,0.06067
5754.55048,0.05731
5756.47895,0.09583
5758.40742,0.12877
5760.33588,0.13018
5762.26435,0.12758
5764.19282,0.12930
5766.12129,0.11198
5768.04976,0.08172
5769.97823,0.07226
5771.90670,0.10003
5773.83517,0.12353
5775.76363,0.10654
5777.69210,0.08743
5779.62057,0.08982
5781.54904,0.09176
5783.47751,0.09596
5785.40598,0.09777
5787.33445,0.08223
5789.26291,0.08514
5791.19138,0.12954
5793.11985,0.16210
5795.04832,0.13739
5796.97679,0.08521
5798.90526,0.05080
5800.83373,0.02977
5802.76220,0.01851
5804.69066,0.03163
5806.61913,0.05348
5808.54760,0.07073
5810.47607,0.09715
5812.40454,0.11447
5814.33301,0.08379
5816.26148,0.04219
5818.18994,0.05947
5820.11841,0.10758
5822.04688,0.11525
5823.97535,0.09046
5825.90382,0.07113
5827.83229,0.06438
5829.76076,0.08243
5831.68923,0.11311
5833.61769,0.11913
5835.54616,0.13252
5837.47463,0.15828
5839.40310,0.14858
5841.33157,0.12897
5843.26004,0.12476
5845.18851,0.11125
5847.11697,0.08371
5849.04544,0.07123
5850.97391,0.08553
5852.90238,0.10511
5854.83085,0.12523
5856.75932,0.14087
5858.68779,0.14426
5860.61626,0.11940
5862.54472,0.07646
5864.47319,0.06790
5866.40166,0.09972
5868.33013,0.14289
5870.25860,0.17823
5872.18707,0.18451
5874.11554,0.14994
5876.04400,0.09474
5877.97247,0.04346
5879.90094,0.02103
5881.82941,0.06428
5883.75788,0.14034
5885.68635,0.18432
5887.61482,0.16326
5889.54329,0.08752
5891.47175,0.03257
5893.40022,0.04531
5895.32869,0.09119
5897.25716,0.10840
5899.18563,0.08873
5901.11410,0.08741
5903.04257,0.10487
5904.97103,0.10106
5906.89950,0.08651
5908.82797,0.06675
5910.75644,0.05277
5912.68491,0.07003
5914.61338,0.08717
5916.54185,0.08036
5918.47032,0.09326
5920.39878,0.13390
5922.32725,0.15138
5924.25572,0.12627
5926.18419,0.07381
5928.11266,0.02521
5930.04113,0.01744
5931.96960,0.06570
5933.89806,0.13147
5935.82653,0.14492
5937.75500,0.12848
5939.68347,0.13067
5941.61194,0.13197
5943.54041,0.13255
5945.46888,0.13701
5947.39734,0.12772
5949.32581,0.12609
5951.25428,0.13639
5953.18275,0.10766
5955.11122,0.05663
5957.03969,0.05781
5958.96816,0.09844
5960.89663,0.11204
5962.82509,0.10521
5964.75356,0.10298
5966.68203,0.09386
5968.61050,0.07672
5970.53897,0.07333
5972.46744,0.08720
5974.39591,0.10827
5976.32437,0.12317
5978.25284,0.11820
5980.18131,0.11027
5982.10978,0.10465
5984.03825,0.07997
5985.96672,0.05499
5987.89519,0.06871
5989.82366,0.11600
5991.75212,0.16238
5993.68059,0.18735
5995.60906,0.17530
5997.53753,0.10874
5999.46600,0.03707
6001.39447,0.02767
6003.32294,0.05976
6005.25140,0.07602
6007.17987,0.06945
6009.10834,0.06039
6011.03681,0.05043
6012.96528,0.04533
6014.89375,0.06373
6016.82222,0.07325
6018.75069,0.04811
6020.67915,0.03302
6022.60762,0.03784
6024.53609,0.03232
6026.46456,0.02387
6028.39303,0.04023
6030.32150,0.05432
6032.24997,0.05575
6034.17843,0.09887
6036.10690,0.13857
6038.03537,0.11675
6039.96384,0.11009
6041.89231,0.12294
6043.82078,0.09257
6045.74925,0.05493
6047.67772,0.06663
6049.60618,0.11413
6051.53465,0.15500
6053.46312,0.18302
6055.39159,0.18491
6057.32006,0.15214
6059.24853,0.11704
6061.17700,0.08725
6063.10546,0.08199
6065.03393,0.13273
6066.96240,0.18547
6068.89087,0.18067
6070.81934,0.17172
6072.74781,0.18070
6074.67628,0.13468
6076.60475,0.08038
6078.53321,0.09905
6080.46168,0.12604
6082.39015,0.10173
6084.31862,0.06466
6086.24709,0.06226
6088.17556,0.09553
6090.10403,0.12504
6092.03249,0.12634
6093.96096,0.10333
6095.88943,0.06216
6097.81790,0.03972
6099.74637,0.06450
6101.67484,0.08624
6103.60331,0.08199
6105.53177,0.09722
6107.46024,0.12043
6109.38871,0.13174
6111.31718,0.14365
6113.24565,0.14124
6115.17412,0.15868
6117.10259,0.19716
6119.03106,0.17827
6120.95952,0.09967
6122.88799,0.03111
6124.81646,0.01989
6126.74493,0.04658
6128.67340,0.07150
6130.60187,0.10346
6132.53034,0.13440
6134.45880,0.13906
6136.38727,0.10811
6138.31574,0.07619
6140.24421,0.09703
6142.17268,0.14563
6144.10115,0.17388
6146.02962,0.17318
6147.95809,0.13419
6149.88655,0.07790
6151.81502,0.04641
6153.74349,0.03428
6155.67196,0.02157
6157.60043,0.02265
6159.52890,0.02342
6161.45737,0.00324
6163.38583,0.00284
6165.31430,0.04296
6167.24277,0.08287
6169.17124,0.08379
6171.09971,0.04791
6173.02818,0.04232
6174.95665,0.10586
6176.88512,0.15150
6178.81358,0.10687
6180.74205,0.03466
6182.67052,0.01303
6184.59899,0.05550
6186.52746,0.12010
6188.45593,0.15489
6190.38440,0.15289
6192.31286,0.13002
6194.24133,0.09081
6196.16980,0.04044
6198.09827,0.01624
6200.02674,0.02674
6201.95521,0.03737
6203.88368,0.06083
6205.81215,0.11917
6207.74061,0.20837
6209.66908,0.28016
6211.59755,0.24198
6213.52602,0.14892
6215.45449,0.08306
6217.38296,0.02849
6219.31143,0.00492
6221.23989,0.03457
6223.16836,0.07505
6225.09683,0.08023
6227.02530,0.06816
6228.95377,0.06687
6230.88224,0.07329
6232.81071,0.07002
6234.73918,0.03897
6236.66764,0.00755
6238.59611,0.00230
6240.52458,0.03083
6242.45305,0.08356
6244.38152,0.11392
6246.30999,0.11843
6248.23846,0.13790
6250.16692,0.18359
6252.09539,0.20336
6254.02386,0.16280
6255.95233,0.10598
6257.88080,0.06812
6259.80927,0.05509
6261.73774,0.06236
6263.66621,0.08388
6265.59467,0.10950
6267.52314,0.13444
6269.45161,0.15773
6271.38008,0.12818
6273.30855,0.04269
6275.23702,0.02040
6277.16549,0.08312
6279.09395,0.11001
6281.02242,0.08271
6282.95089,0.08451
6284.87936,0.14428
6286.80783,0.18665
6288.73630,0.14164
6290.66477,0.04725
6292.59323,0.00683
6294.52170,0.04573
6296.45017,0.11252
6298.37864,0.16175
6300.30711,0.17716
6302.23558,0.14097
6304.16405,0.06683
6306.09252,0.00278
6308.02098,-0.02298
6309.94945,0.02507
6311.87792,0.11782
6313.80639,0.14032
6315.73486,0.08001
6317.66333,0.01626
6319.59180,-0.01110
6321.52026,-0.02260
6323.44873,-0.01277
6325.37720,0.05090
6327.30567,0.10607
6329.23414,0.08296
6331.16261,0.03278
6333.09108,0.03970
6335.01955,0.09345
6336.94801,0.11150
6338.87648,0.09120
6340.80495,0.09283
6342.73342,0.09715
6344.66189,0.07892
6346.59036,0.07436
6348.51883,0.08258
6350.44729,0.06893
6352.37576,0.03358
6354.30423,0.01514
6356.23270,0.05483
6358.16117,0.11502
6360.08964,0.12013
6362.01811,0.09374
6363.94658,0.08824
6365.87504,0.07818
6367.80351,0.02890
6369.73198,-0.03032
6371.66045,-0.02473
6373.58892,0.06611
6375.51739,0.12842
6377.44586,0.12212
6379.37432,0.12482
6381.30279,0.15187
6383.23126,0.16515
6385.15973,0.16522
6387.08820,0.17914
6389.01667,0.21108
6390.94514,0.25174
6392.87361,0.24770
6394.80207,0.15022
6396.73054,0.05035
6398.65901,0.01443
6400.58748,0.03466
6402.51595,0.10396
6404.44442,0.15252
6406.37289,0.12908
6408.30135,0.10223
6410.22982,0.11064
6412.15829,0.11786
6414.08676,0.08793
6416.01523,0.04731
6417.94370,0.06302
6419.87217,0.10836
6421.80064,0.13142
6423.72910,0.13478
6425.65757,0.11730
6427.58604,0.10173
6429.51451,0.09650
6431.44298,0.07816
6433.37145,0.05648
6435.29992,0.06119
6437.22838,0.11225
6439.15685,0.17833
6441.08532,0.17631
6443.01379,0.10480
6444.94226,0.06963
6446.87073,0.10993
6448.79920,0.13979
6450.72766,0.10427
6452.65613,0.04922
6454.58460,0.01771
6456.51307,0.03536
6458.44154,0.12638
6460.37001,0.23044
6462.29848,0.22791
6464.22695,0.11273
6466.15541,0.03674
6468.08388,0.06054
6470.01235,0.09896
6471.94082,0.08141
6473.86929,0.00393
6475.79776,-0.05707
6477.72623,-0.03828
6479.65469,0.02539
6481.58316,0.09615
6483.51163,0.13975
6485.44010,0.14750
6487.36857,0.13654
6489.29704,0.11587
6491.22551,0.10401
6493.15398,0.08737
6495.08244,0.05119
6497.01091,0.04495
6498.93938,0.08307
6500.86785,0.09330
6502.79632,0.03203
6504.72479,-0.03671
6506.65326,-0.06840
6508.58172,-0.08912
6510.51019,-0.10259
6512.43866,-0.05837
6514.36713,0.01117
6516.29560,0.03359
6518.22407,0.00584
6520.15254,-0.00026
6522.08101,0.07278
6524.00947,0.12614
6525.93794,0.07771
6527.86641,0.02984
6529.79488,0.06170
6531.72335,0.16095
6533.65182,0.21713
6535.58029,0.17605
6537.50875,0.10917
6539.43722,0.04370
6541.36569,0.01080
6543.29416,0.04595
6545.22263,0.07608
6547.15110,0.07163
6549.07957,0.06498
6551.00804,0.03189
6552.93650,-0.00581
6554.86497,-0.00652
6556.79344,0.00236
6558.72191,0.03407
6560.65038,0.09278
6562.57885,0.10793
6564.50732,0.07691
6566.43578,0.04582
6568.36425,0.00697
6570.29272,-0.02897
6572.22119,-0.03381
6574.14966,0.00600
6576.07813,0.06596
6578.00660,0.10419
6579.93507,0.12198
6581.86353,0.11175
6583.79200,0.05271
6585.72047,0.00151
6587.64894,0.01649
6589.57741,0.03828
6591.50588,0.01103
6593.43435,-0.01039
6595.36281,0.01702
6597.29128,0.05777
6599.21975,0.08239
6601.14822,0.08918
6603.07669,0.09027
6605.00516,0.10122
6606.93363,0.11203
6608.86210,0.09888
6610.79056,0.07461
6612.71903,0.03925
6614.64750,-0.02292
6616.57597,-0.04695
6618.50444,0.01678
6620.43291,0.10037
6622.36138,0.17797
6624.28984,0.23363
6626.21831,0.19398
6628.14678,0.06659
6630.07525,-0.03824
6632.00372,-0.08515
6633.93219,-0.11783
6635.86066,-0.12616
6637.78912,-0.07809
6639.71759,0.00101
6641.64606,0.04922
6643.57453,0.06182
6645.50300,0.07985
6647.43147,0.07109
6649.35994,0.01973
6651.28841,-0.00818
6653.21687,0.01711
6655.14534,0.06341
6657.07381,0.07532
6659.00228,0.04141
6660.93075,0.03576
6662.85922,0.07207
6664.78769,0.07607
6666.71615,0.04717
6668.64462,0.03626
6670.57309,0.03282
6672.50156,0.01334
6674.43003,-0.05645
6676.35850,-0.15522
6678.28697,-0.12109
6680.21544,0.06933
6682.14390,0.20934
6684.07237,0.19672
6686.00084,0.09815
6687.92931,-0.01790
6689.85778,-0.06232
6691.78625,-0.01771
6693.71472,0.02834
6695.64318,0.06215
6697.57165,0.12582
6699.50012,0.14801
6701.42859,0.07242
6703.35706,0.04402
6705.28553,0.08710
6707.21400,0.04997
6709.14247,-0.04061
6711.07093,-0.02348
6712.99940,0.10316
6714.92787,0.16162
6716.85634,0.08317
6718.78481,0.05199
6720.71328,0.13198
6722.64175,0.16571
6724.57021,0.10379
6726.49868,0.05008
6728.42715,0.05615
6730.35562,0.05394
6732.28409,0.00518
6734.21256,-0.03006
6736.14103,-0.03176
6738.06950,-0.02377
6739.99796,0.01322
6741.92643,0.07498
6743.85490,0.10250
6745.78337,0.08805
6747.71184,0.05018
6749.64031,0.03394
6751.56878,0.10649
6753.49724,0.21346
6755.42571,0.24376
6757.35418,0.22620
6759.28265,0.19737
6761.21112,0.08462
6763.13959,-0.11356
6765.06806,-0.26971
6766.99653,-0.25372
6768.92499,-0.07315
6770.85346,0.08931
6772.78193,0.10737
6774.71040,0.06439
6776.63887,0.01599
6778.56734,-0.05091
6780.49581,-0.07287
6782.42427,-0.03742
6784.35274,-0.02790
6786.28121,-0.00923
6788.20968,0.11783
6790.13815,0.23434
6792.06662,0.14648
6793.99509,-0.02851
6795.92355,-0.11334
6797.85202,-0.12774
6799.78049,-0.09724
6801.70896,0.03120
6803.63743,0.15461
6805.56590,0.12336
6807.49437,0.04136
6809.42284,0.01561
6811.35130,0.03707
6813.27977,0.09608
6815.20824,0.12589
6817.13671,0.05582
6819.06518,0.01518
6820.99365,0.05834
6822.92212,0.05986
6824.85058,-0.02681
6826.77905,-0.09649
6828.70752,-0.08712
6830.63599,-0.00917
6832.56446,0.12848
6834.49293,0.25315
6836.42140,0.23986
6838.34987,0.18099
6840.27833,0.19633
6842.20680,0.19847
6844.13527,0.13425
6846.06374,0.06849
6847.99221,0.04403
6849.92068,0.06301
6851.84915,0.09617
6853.77761,0.10892
6855.70608,0.04822
6857.63455,-0.07911
6859.56302,-0.11484
6861.49149,-0.00010
6863.41996,0.12389
6865.34843,0.15727
6867.27690,0.11166
6869.20536,0.05312
6871.13383,0.02456
6873.06230,-0.01553
6874.99077,-0.06040
6876.91924,-0.06499
6878.84771,0.00577
6880.77618,0.17681
6882.70464,0.31821
6884.63311,0.33186
6886.56158,0.25350
6888.49005,0.13585
6890.41852,0.02937
6892.34699,-0.04687
6894.27546,-0.12363
6896.20393,-0.14100
6898.13239,0.03110
6900.06086,0.21349
6901.98933,0.20972
6903.91780,0.10629
6905.84627,0.01235
6907.77474,0.01697
6909.70321,0.10721
6911.63167,0.15613
6913.56014,0.14334
6915.48861,0.14969
6917.41708,0.18558
6919.34555,0.18157
6921.27402,0.14476
6923.20249,0.13207
6925.13096,0.11039
6927.05942,0.06292
6928.98789,0.03536
6930.91636,0.01347
6932.84483,-0.04291
6934.77330,-0.05132
6936.70177,-0.02936
6938.63024,-0.05693
6940.55870,-0.08143
6942.48717,-0.01443
6944.41564,0.12110
6946.34411,0.18399
6948.27258,0.07972
6950.20105,-0.03957
6952.12952,-0.06507
6954.05799,-0.00366
6955.98645,0.08532
6957.91492,0.12409
6959.84339,0.15845
6961.77186,0.21972
6963.70033,0.23941
6965.62880,0.15409
6967.55727,0.04344
6969.48573,0.10424
6971.41420,0.32948
6973.34267,0.46806
6975.27114,0.37576
6977.19961,0.22653
6979.12808,0.16763
6981.05655,0.12252
6982.98501,0.05940
6984.91348,0.05776
6986.84195,0.11799
6988.77042,0.16045
6990.69889,0.10447
6992.62736,-0.01527
6994.55583,-0.02862
6996.48430,0.13588
6998.41276,0.25693
7000.34123,0.16435
7002.26970,0.03612
7004.19817,-0.00212
7006.12664,0.05583
7008.05511,0.14660
7009.98358,0.15100
7011.91204,0.07909
7013.84051,-0.01473
7015.76898,-0.04585
7017.69745,0.00700
7019.62592,0.04547
7021.55439,0.05073
7023.48286,0.07820
7025.41133,0.08668
7027.33979,0.09342
7029.26826,0.11518
7031.19673,0.03359
7033.12520,-0.02298
7035.05367,0.13787
7036.98214,0.26877
7038.91061,0.19321
7040.83907,0.06016
7042.76754,-0.07744
7044.69601,-0.08486
7046.62448,0.19756
7048.55295,0.45755
7050.48142,0.48961
7052.40989,0.43133
7054.33836,0.35254
7056.26682,0.33978
7058.19529,0.31845
7060.12376,0.16287
7062.05223,0.08402
7063.98070,0.15792
7065.90917,0.19899
7067.83764,0.15841
7069.76610,0.05861
7071.69457,-0.09593
7073.62304,-0.18775
7075.55151,-0.12545
7077.47998,0.00625
7079.40845,0.11372
7081.33692,0.17497
7083.26539,0.19905
7085.19385,0.16300
7087.12232,0.03332
7089.05079,-0.08967
7090.97926,-0.10587
7092.90773,-0.04719
7094.83620,0.03715
7096.76467,0.12514
7098.69313,0.14448
7100.62160,0.09836
7102.55007,0.11624
7104.47854,0.20554
7106.40701,0.27116
7108.33548,0.19936
7110.26395,0.05181
7112.19242,-0.00749
7114.12088,-0.00283
7116.04935,-0.00343
7117.97782,0.08422
7119.90629,0.19286
7121.83476,0.18428
7123.76323,0.13726
7125.69170,0.13299
7127.62016,0.13572
7129.54863,0.05732
7131.47710,-0.06448
7133.40557,-0.09434
7135.33404,-0.00902
7137.26251,0.06208
7139.19098,0.03821
7141.11944,-0.00638
7143.04791,0.02137
7144.97638,0.12700
7146.90485,0.23049
7148.83332,0.23804
7150.76179,0.13912
7152.69026,-0.00882
7154.61873,-0.06833
7156.54719,0.08162
7158.47566,0.32238
7160.40413,0.39100
7162.33260,0.22744
7164.26107,0.03576
7166.18954,0.03862
7168.11801,0.19310
7170.04647,0.19521
7171.97494,0.02168
7173.90341,-0.07768
7175.83188,-0.02365
7177.76035,0.12514
7179.68882,0.20506
7181.61729,0.16846
7183.54576,0.12448
7185.47422,0.10450
7187.40269,0.04479
7189.33116,-0.06842
7191.25963,-0.10623
7193.18810,0.00613
7195.11657,0.06346
7197.04504,0.03965
7198.97350,0.07585
7200.90197,0.13491
7202.83044,0.18863
7204.75891,0.22389
7206.68738,0.16237
7208.61585,0.08238
7210.54432,0.01780
7212.47279,-0.03978
7214.40125,-0.05601
7216.32972,-0.02482
7218.25819,0.06720
7220.18666,0.16960
7222.11513,0.18217
7224.04360,0.07604
7225.97207,-0.10406
7227.90053,-0.10407
7229.82900,0.16891
7231.75747,0.30892
7233.68594,0.09922
7235.61441,-0.07263
7237.54288,-0.02747
7239.47135,0.02362
7241.39982,-0.02848
7243.32828,0.02389
7245.25675,0.18419
7247.18522,0.23694
7249.11369,0.12236
7251.04216,-0.02032
7252.97063,0.02774
7254.89910,0.15735
7256.82756,0.20139
7258.75603,0.18623
7260.68450,0.08294
7262.61297,0.00439
7264.54144,0.02294
7266.46991,-0.00974
7268.39838,-0.06259
7270.32685,0.04003
7272.25531,0.25942
7274.18378,0.20262
7276.11225,0.02157
7278.04072,-0.03149
7279.96919,-0.04855
7281.89766,-0.12998
7283.82613,-0.19658
7285.75459,-0.15488
7287.68306,0.00928
7289.61153,0.21382
7291.54000,0.32072
7293.46847,0.28328
7295.39694,0.17792
7297.32541,0.11036
7299.25387,0.08731
7301.18234,0.05952
7303.11081,0.09292
7305.03928,0.11359
7306.96775,0.01269
7308.89622,-0.00893
7310.82469,0.07805
7312.75316,0.08835
7314.68162,0.10979
7316.61009,0.17973
7318.53856,0.11776
7320.46703,0.02006
7322.39550,0.08747
7324.32397,0.21973
7326.25244,0.19624
7328.18090,0.01384
7330.10937,-0.15346
7332.03784,-0.12115
7333.96631,0.13711
7335.89478,0.43455
7337.82325,0.59710
7339.75172,0.55824
7341.68019,0.33735
7343.60865,0.04091
7345.53712,-0.21422
7347.46559,-0.29469
7349.39406,-0.26265
7351.32253,-0.10166
7353.25100,0.11442
7355.17947,0.22840
7357.10793,0.30154
7359.03640,0.40053
7360.96487,0.27200
7362.89334,-0.08364
7364.82181,-0.25264
7366.75028,-0.17135
7368.67875,-0.06713
7370.60722,-0.06973
7372.53568,-0.10283
7374.46415,0.08968
7376.39262,0.42798
7378.32109,0.37367
7380.24956,0.11605
7382.17803,0.01302
7384.10650,0.06575
7386.03496,0.07393
7387.96343,0.00098
7389.89190,-0.02676
7391.82037,0.06760
7393.74884,0.19795
7395.67731,0.22701
7397.60578,0.18799
7399.53425,0.14197
7401.46271,0.09382
7403.39118,0.09362
7405.31965,0.09991
7407.24812,0.01057
7409.17659,-0.09856
7411.10506,-0.14025
7413.03353,-0.10535
7414.96199,0.03996
7416.89046,0.25673
7418.81893,0.35127
7420.74740,0.21151
7422.67587,0.07586
7424.60434,0.05610
7426.53281,0.05277
7428.46128,-0.03736
7430.38974,-0.10744
7432.31821,0.08067
7434.24668,0.31824
7436.17515,0.35490
7438.10362,0.25442
7440.03209,0.07127
7441.96056,-0.10435
7443.88902,-0.05665
7445.81749,0.14023
7447.74596,0.20106
7449.67443,0.16456
7451.60290,0.14925
7453.53137,0.02937
7455.45984,-0.06686
7457.38831,-0.08723
7459.31677,-0.14890
7461.24524,-0.14722
7463.17371,0.07796
7465.10218,0.38661
7467.03065,0.45268
7468.95912,0.32033
7470.88759,0.25382
7472.81605,0.25288
7474.74452,0.22802
7476.67299,0.14881
7478.60146,0.01512
7480.52993,-0.06700
7482.45840,-0.02267
7484.38687,0.09745
7486.31533,0.16124
7488.24380,0.14780
7490.17227,0.10780
7492.10074,-0.00400
7494.02921,-0.07692
7495.95768,-0.05581
7497.88615,-0.02643
