399.19301,-0.34255
401.12148,-0.42990
403.04995,0.69614
404.97842,1.33011
406.90689,1.01043
408.83536,0.23035
410.76382,-0.37426
412.69229,0.62396
414.62076,3.49756
416.54923,5.51451
418.47770,3.69821
420.40617,0.47797
422.33464,-0.28391
424.26311,-0.11722
426.19157,0.00061
428.12004,-0.25164
430.04851,-0.49444
431.97698,-0.41182
433.90545,-0.23405
435.83392,-0.06017
437.76239,-0.01779
439.69085,-0.09892
441.61932,-0.14280
443.54779,-0.14125
445.47626,-0.16161
447.40473,-0.15367
449.33320,-0.17542
451.26167,-0.21295
453.19013,-0.21290
455.11860,-0.22627
457.04707,-0.23103
458.97554,-0.17230
460.90401,-0.10919
462.83248,-0.05558
464.76095,0.03057
466.68942,0.08668
468.61788,0.06995
470.54635,0.24515
472.47482,1.76549
474.40329,3.72869
476.33176,2.37568
478.26023,0.60253
480.18870,0.01623
482.11716,-0.09204
484.04563,-0.13157
485.97410,-0.06335
487.90257,0.00361
489.83104,0.03171
491.75951,0.06869
493.68798,0.10038
495.61645,0.10566
497.54491,0.09010
499.47338,0.06856
501.40185,0.04396
503.33032,0.01672
505.25879,-0.00522
507.18726,-0.01083
509.11573,0.02593
511.04419,0.08674
512.97266,0.11382
514.90113,0.10739
516.82960,0.09908
518.75807,0.07152
520.68654,0.04574
522.61501,0.06733
524.54348,0.12825
526.47194,0.17573
528.40041,0.18408
530.32888,0.17384
532.25735,0.14849
534.18582,0.09646
536.11429,0.04409
538.04276,0.04272
539.97122,0.07486
541.89969,0.09678
543.82816,0.09612
545.75663,0.07765
547.68510,0.04957
549.61357,0.04507
551.54204,0.10330
553.47051,0.17233
555.39897,0.19309
557.32744,0.19119
559.25591,0.18158
561.18438,0.16235
563.11285,0.14262
565.04132,0.10782
566.96979,0.07329
568.89825,0.07884
570.82672,0.11550
572.75519,0.14670
574.68366,0.13987
576.61213,0.14107
578.54060,0.18001
580.46907,0.19621
582.39754,0.16732
584.32600,0.13011
586.25447,0.10981
588.18294,0.10661
590.11141,0.11757
592.03988,0.13547
593.96835,0.14091
595.89682,0.12681
597.82528,0.11074
599.75375,0.11417
601.68222,0.13894
603.61069,0.16529
605.53916,0.16994
607.46763,0.15623
609.39610,0.14080
611.32456,0.12291
613.25303,0.10379
615.18150,0.10370
617.10997,0.11629
619.03844,0.11057
620.96691,0.09715
622.89538,0.10346
624.82385,0.12612
626.75231,0.14231
628.68078,0.13367
630.60925,0.11789
632.53772,0.12345
634.46619,0.13674
636.39466,0.14221
638.32313,0.14841
640.25159,0.14675
642.18006,0.13633
644.10853,0.14162
646.03700,0.15731
647.96547,0.15522
649.89394,0.13932
651.82241,0.12807
653.75088,0.12129
655.67934,0.12395
657.60781,0.14361
659.53628,0.16503
661.46475,0.16376
663.39322,0.14275
665.32169,0.12277
667.25016,0.10765
669.17862,0.09679
671.10709,0.11006
673.03556,0.13816
674.96403,0.14949
676.89250,0.13784
678.82097,0.13643
680.74944,0.14643
682.67791,0.15017
684.60637,0.15055
686.53484,0.15191
688.46331,0.14972
690.39178,0.14532
692.32025,0.15450
694.24872,0.16913
696.17719,0.16294
698.10565,0.14197
700.03412,0.13331
701.96259,0.13353
703.89106,0.12578
705.81953,0.12319
707.74800,0.13263
709.67647,0.14991
711.60494,0.17273
713.53340,0.17594
715.46187,0.15766
717.39034,0.14885
719.31881,0.15241
721.24728,0.15092
723.17575,0.14740
725.10422,0.14813
727.03268,0.14692
728.96115,0.14678
730.88962,0.14773
732.81809,0.14574
734.74656,0.14965
736.67503,0.16072
738.60350,0.16808
740.53197,0.16796
742.46043,0.16524
744.38890,0.16170
746.31737,0.15403
748.24584,0.14088
750.17431,0.12921
752.10278,0.13145
754.03125,0.14740
755.95971,0.16057
757.88818,0.16175
759.81665,0.15589
761.74512,0.14686
763.67359,0.13754
765.60206,0.13195
767.53053,0.13151
769.45900,0.13452
771.38746,0.14039
773.31593,0.14852
775.24440,0.15117
777.17287,0.14722
779.10134,0.14572
781.02981,0.14957
782.95828,0.15174
784.88674,0.14573
786.81521,0.14030
788.74368,0.13750
790.67215,0.12876
792.60062,0.12971
794.52909,0.14576
796.45756,0.15057
798.38602,0.14258
800.31449,0.13892
802.24296,0.14746
804.17143,0.16915
806.09990,0.18621
808.02837,0.17892
809.95684,0.15751
811.88531,0.14630
813.81377,0.14992
815.74224,0.15612
817.67071,0.15445
819.59918,0.14648
821.52765,0.14612
823.45612,0.15862
825.38459,0.17012
827.31305,0.16839
829.24152,0.16189
831.16999,0.16512
833.09846,0.17298
835.02693,0.17226
836.95540,0.16207
838.88387,0.15138
840.81234,0.15147
842.74080,0.15689
844.66927,0.15531
846.59774,0.14762
848.52621,0.13853
850.45468,0.13672
852.38315,0.14737
854.31162,0.15980
856.24008,0.16112
858.16855,0.15623
860.09702,0.15373
862.02549,0.15221
863.95396,0.15009
865.88243,0.15984
867.81090,0.18210
869.73937,0.18289
871.66783,0.17165
873.59630,0.17170
875.52477,0.16152
877.45324,0.15496
879.38171,0.16502
881.31018,0.16685
883.23865,0.15755
885.16711,0.15160
887.09558,0.15316
889.02405,0.15372
890.95252,0.15320
892.88099,0.15686
894.80946,0.15535
896.73793,0.14812
898.66640,0.14782
900.59486,0.14995
902.52333,0.15075
904.45180,0.15502
906.38027,0.15500
908.30874,0.15076
910.23721,0.15282
912.16568,0.16216
914.09414,0.16925
916.02261,0.16598
917.95108,0.16185
919.87955,0.16546
921.80802,0.17012
923.73649,0.17360
925.66496,0.17359
927.59343,0.16562
929.52189,0.15546
931.45036,0.15015
933.37883,0.15264
935.30730,0.15930
937.23577,0.16096
939.16424,0.15865
941.09271,0.15797
943.02117,0.15587
944.94964,0.15260
946.87811,0.15457
948.80658,0.15999
950.73505,0.16202
952.66352,0.16090
954.59199,0.16126
956.52045,0.16220
958.44892,0.15774
960.37739,0.14772
962.30586,0.14035
964.23433,0.14246
966.16280,0.15068
968.09127,0.15631
970.01974,0.15773
971.94820,0.15839
973.87667,0.15809
975.80514,0.15696
977.73361,0.15780
979.66208,0.16072
981.59055,0.16112
983.51902,0.15788
985.44748,0.15585
987.37595,0.15659
989.30442,0.16142
991.23289,0.17115
993.16136,0.17883
995.08983,0.17879
997.01830,0.17415
998.94677,0.16803
1000.87523,0.16164
1002.80370,0.16230
1004.73217,0.17380
1006.66064,0.18337
1008.58911,0.18070
1010.51758,0.17272
1012.44605,0.16632
1014.37451,0.16061
1016.30298,0.15613
1018.23145,0.15668
1020.15992,0.16282
1022.08839,0.17154
1024.01686,0.17747
1025.94533,0.17523
1027.87380,0.17157
1029.80226,0.17138
1031.73073,0.17089
1033.65920,0.17381
1035.58767,0.17620
1037.51614,0.17286
1039.44461,0.17192
1041.37308,0.17461
1043.30154,0.17650
1045.23001,0.17494
1047.15848,0.16823
1049.08695,0.16398
1051.01542,0.17035
1052.94389,0.17871
1054.87236,0.17959
1056.80083,0.17808
1058.72929,0.17647
1060.65776,0.17630
1062.58623,0.18122
1064.51470,0.18617
1066.44317,0.18865
1068.37164,0.19040
1070.30011,0.19308
1072.22857,0.19631
1074.15704,0.19049
1076.08551,0.17713
1078.01398,0.17213
1079.94245,0.17728
1081.87092,0.18144
1083.79939,0.18004
1085.72786,0.17718
1087.65632,0.17527
1089.58479,0.17170
1091.51326,0.16882
1093.44173,0.17317
1095.37020,0.17954
1097.29867,0.17858
1099.22714,0.17436
1101.15560,0.17653
1103.08407,0.18541
1105.01254,0.19042
1106.94101,0.19024
1108.86948,0.18982
1110.79795,0.18551
1112.72642,0.17752
1114.65489,0.17020
1116.58335,0.16777
1118.51182,0.17321
1120.44029,0.18256
1122.36876,0.18575
1124.29723,0.17914
1126.22570,0.17327
1128.15417,0.17256
1130.08263,0.16888
1132.01110,0.16180
1133.93957,0.15830
1135.86804,0.15881
1137.79651,0.15894
1139.72498,0.15891
1141.65345,0.16309
1143.58191,0.17107
1145.51038,0.17849
1147.43885,0.18337
1149.36732,0.18149
1151.29579,0.17242
1153.22426,0.16749
1155.15273,0.17213
1157.08120,0.17688
1159.00966,0.17701
1160.93813,0.17726
1162.86660,0.17847
1164.79507,0.18170
1166.72354,0.18778
1168.65201,0.19033
1170.58048,0.18611
1172.50894,0.17917
1174.43741,0.17447
1176.36588,0.17591
1178.29435,0.18116
1180.22282,0.18308
1182.15129,0.18086
1184.07976,0.17712
1186.00823,0.17050
1187.93669,0.16458
1189.86516,0.16474
1191.79363,0.16664
1193.72210,0.16758
1195.65057,0.17291
1197.57904,0.18126
1199.50751,0.18302
1201.43597,0.17922
1203.36444,0.17788
1205.29291,0.17599
1207.22138,0.17053
1209.14985,0.16825
1211.07832,0.17358
1213.00679,0.18169
1214.93526,0.18603
1216.86372,0.18570
1218.79219,0.18330
1220.72066,0.18139
1222.64913,0.18075
1224.57760,0.18009
1226.50607,0.17830
1228.43454,0.17741
1230.36300,0.17881
1232.29147,0.18169
1234.21994,0.18528
1236.14841,0.18643
1238.07688,0.18299
1240.00535,0.17996
1241.93382,0.18258
1243.86229,0.18546
1245.79075,0.18310
1247.71922,0.17802
1249.64769,0.17036
1251.57616,0.16247
1253.50463,0.16244
1255.43310,0.17115
1257.36157,0.18085
1259.29003,0.18437
1261.21850,0.18362
1263.14697,0.18351
1265.07544,0.18004
1267.00391,0.17384
1268.93238,0.17350
1270.86085,0.17723
1272.78932,0.17984
1274.71778,0.18136
1276.64625,0.18259
1278.57472,0.18478
1280.50319,0.18627
1282.43166,0.18489
1284.36013,0.18280
1286.28860,0.18202
1288.21706,0.18218
1290.14553,0.18211
1292.07400,0.18178
1294.00247,0.18233
1295.93094,0.18374
1297.85941,0.18334
1299.78788,0.17957
1301.71634,0.17338
1303.64481,0.16812
1305.57328,0.17074
1307.50175,0.17992
1309.43022,0.18607
1311.35869,0.18694
1313.28716,0.18604
1315.21563,0.18607
1317.14409,0.18888
1319.07256,0.19428
1321.00103,0.19695
1322.92950,0.19258
1324.85797,0.18478
1326.78644,0.17946
1328.71491,0.17805
1330.64337,0.17829
1332.57184,0.17984
1334.50031,0.18277
1336.42878,0.18446
1338.35725,0.18576
1340.28572,0.18547
1342.21419,0.17816
1344.14266,0.16984
1346.07112,0.16911
1347.99959,0.17579
1349.92806,0.18292
1351.85653,0.18457
1353.78500,0.18519
1355.71347,0.18865
1357.64194,0.18984
1359.57040,0.19001
1361.49887,0.19275
1363.42734,0.19161
1365.35581,0.18654
1367.28428,0.18332
1369.21275,0.18212
1371.14122,0.18430
1373.06969,0.18974
1374.99815,0.19464
1376.92662,0.19606
1378.85509,0.19461
1380.78356,0.19111
1382.71203,0.18833
1384.64050,0.19166
1386.56897,0.19870
1388.49743,0.20038
1390.42590,0.20004
1392.35437,0.20445
1394.28284,0.21074
1396.21131,0.21206
1398.13978,0.20700
1400.06825,0.19956
1401.99672,0.19318
1403.92518,0.18836
1405.85365,0.18506
1407.78212,0.18289
1409.71059,0.18237
1411.63906,0.18395
1413.56753,0.18684
1415.49600,0.19326
1417.42446,0.20530
1419.35293,0.21489
1421.28140,0.21378
1423.20987,0.21061
1425.13834,0.20694
1427.06681,0.20088
1428.99528,0.19670
1430.92375,0.19694
1432.85221,0.19788
1434.78068,0.19940
1436.70915,0.20277
1438.63762,0.20270
1440.56609,0.20029
1442.49456,0.19973
1444.42303,0.20180
1446.35149,0.20526
1448.27996,0.20692
1450.20843,0.20660
1452.13690,0.20810
1454.06537,0.21233
1455.99384,0.21740
1457.92231,0.21551
1459.85077,0.20669
1461.77924,0.20213
1463.70771,0.20456
1465.63618,0.20872
1467.56465,0.20843
1469.49312,0.21051
1471.42159,0.22000
1473.35006,0.22822
1475.27852,0.22323
1477.20699,0.21306
1479.13546,0.20613
1481.06393,0.20568
1482.99240,0.20888
1484.92087,0.21233
1486.84934,0.21791
1488.77780,0.22176
1490.70627,0.21398
1492.63474,0.20797
1494.56321,0.21425
1496.49168,0.22554
1498.42015,0.22794
1500.34862,0.22407
1502.27709,0.22648
1504.20555,0.24072
1506.13402,0.26150
1508.06249,0.25035
1509.99096,0.22393
1511.91943,0.21147
1513.84790,0.21221
1515.77637,0.22285
1517.70483,0.23611
1519.63330,0.24746
1521.56177,0.25104
1523.49024,0.23876
1525.41871,0.22704
1527.34718,0.21990
1529.27565,0.21419
1531.20412,0.21515
1533.13258,0.22137
1535.06105,0.22273
1536.98952,0.22493
1538.91799,0.24156
1540.84646,0.26820
1542.77493,0.26121
1544.70340,0.23204
1546.63186,0.21002
1548.56033,0.20455
1550.48880,0.20814
1552.41727,0.21376
1554.34574,0.22209
1556.27421,0.23588
1558.20268,0.25507
1560.13115,0.24611
1562.05961,0.22596
1563.98808,0.21609
1565.91655,0.21207
1567.84502,0.21356
1569.77349,0.21503
1571.70196,0.21126
1573.63043,0.21130
1575.55889,0.21710
1577.48736,0.21567
1579.41583,0.20803
1581.34430,0.20327
1583.27277,0.20053
1585.20124,0.19885
1587.12971,0.19908
1589.05818,0.19959
1590.98664,0.19759
1592.91511,0.19604
1594.84358,0.19776
1596.77205,0.19973
1598.70052,0.20032
1600.62899,0.19941
1602.55746,0.19770
1604.48592,0.19788
1606.41439,0.19881
1608.34286,0.19569
1610.27133,0.18999
1612.19980,0.18990
1614.12827,0.19964
1616.05674,0.21533
1617.98521,0.21910
1619.91367,0.21497
1621.84214,0.21902
1623.77061,0.22596
1625.69908,0.22341
1627.62755,0.21462
1629.55602,0.20799
1631.48449,0.20791
1633.41295,0.21543
1635.34142,0.22930
1637.26989,0.22794
1639.19836,0.21579
1641.12683,0.21130
1643.05530,0.21480
1644.98377,0.22528
1646.91223,0.23825
1648.84070,0.23857
1650.76917,0.23776
1652.69764,0.24438
1654.62611,0.23456
1656.55458,0.21897
1658.48305,0.21190
1660.41152,0.20866
1662.33998,0.20648
1664.26845,0.20867
1666.19692,0.21795
1668.12539,0.23014
1670.05386,0.23258
1671.98233,0.22698
1673.91080,0.22704
1675.83926,0.22712
1677.76773,0.22472
1679.69620,0.22665
1681.62467,0.23425
1683.55314,0.24472
1685.48161,0.24207
1687.41008,0.23010
1689.33855,0.22235
1691.26701,0.21880
1693.19548,0.22004
1695.12395,0.22729
1697.05242,0.23695
1698.98089,0.24279
1700.90936,0.23601
1702.83783,0.22563
1704.76629,0.22427
1706.69476,0.22310
1708.62323,0.21769
1710.55170,0.21529
1712.48017,0.21895
1714.40864,0.23159
1716.33711,0.24810
1718.26558,0.24074
1720.19404,0.22041
1722.12251,0.21036
1724.05098,0.20726
1725.97945,0.20584
1727.90792,0.20628
1729.83639,0.21163
1731.76486,0.22211
1733.69332,0.22960
1735.62179,0.22288
1737.55026,0.21553
1739.47873,0.21473
1741.40720,0.21597
1743.33567,0.21617
1745.26414,0.21731
1747.19261,0.21971
1749.12107,0.22230
1751.04954,0.22035
1752.97801,0.21401
1754.90648,0.21220
1756.83495,0.21446
1758.76342,0.21514
1760.69189,0.21514
1762.62035,0.21266
1764.54882,0.20890
1766.47729,0.21214
1768.40576,0.22220
1770.33423,0.23081
1772.26270,0.22890
1774.19117,0.21785
1776.11964,0.21148
1778.04810,0.21173
1779.97657,0.21329
1781.90504,0.21276
1783.83351,0.21197
1785.76198,0.21061
1787.69045,0.20870
1789.61892,0.20895
1791.54738,0.21173
1793.47585,0.21468
1795.40432,0.21516
1797.33279,0.21578
1799.26126,0.21758
1801.18973,0.21608
1803.11820,0.21151
1805.04666,0.20866
1806.97513,0.20775
1808.90360,0.20860
1810.83207,0.21140
1812.76054,0.21309
1814.68901,0.21030
1816.61748,0.20842
1818.54595,0.23020
1820.47441,0.26319
1822.40288,0.25653
1824.33135,0.22151
1826.25982,0.20938
1828.18829,0.21376
1830.11676,0.21375
1832.04523,0.21050
1833.97369,0.20873
1835.90216,0.21012
1837.83063,0.21057
1839.75910,0.20933
1841.68757,0.21257
1843.61604,0.22033
1845.54451,0.22188
1847.47298,0.21745
1849.40144,0.21335
1851.32991,0.20903
1853.25838,0.20521
1855.18685,0.20384
1857.11532,0.20391
1859.04379,0.20351
1860.97226,0.20408
1862.90072,0.20727
1864.82919,0.21344
1866.75766,0.22095
1868.68613,0.22169
1870.61460,0.21177
1872.54307,0.20236
1874.47154,0.20061
1876.40001,0.20358
1878.32847,0.20482
1880.25694,0.20318
1882.18541,0.20155
1884.11388,0.20259
1886.04235,0.20652
1887.97082,0.21044
1889.89929,0.21034
1891.82775,0.20717
1893.75622,0.20636
1895.68469,0.20756
1897.61316,0.20660
1899.54163,0.20444
1901.47010,0.20428
1903.39857,0.20613
1905.32704,0.20800
1907.25550,0.20872
1909.18397,0.20824
1911.11244,0.20654
1913.04091,0.20529
1914.96938,0.20743
1916.89785,0.21174
1918.82632,0.21245
1920.75478,0.21153
1922.68325,0.21425
1924.61172,0.21511
1926.54019,0.20974
1928.46866,0.20334
1930.39713,0.20205
1932.32560,0.20607
1934.25407,0.20981
1936.18253,0.21045
1938.11100,0.20950
1940.03947,0.20929
1941.96794,0.21082
1943.89641,0.21114
1945.82488,0.20816
1947.75335,0.20447
1949.68181,0.20435
1951.61028,0.20768
1953.53875,0.20905
1955.46722,0.20718
1957.39569,0.20612
1959.32416,0.20678
1961.25263,0.20683
1963.18110,0.20769
1965.10956,0.21104
1967.03803,0.21179
1968.96650,0.20794
1970.89497,0.20532
1972.82344,0.20555
1974.75191,0.20545
1976.68038,0.20476
1978.60884,0.20645
1980.53731,0.20920
1982.46578,0.20900
1984.39425,0.20806
1986.32272,0.20867
1988.25119,0.20813
1990.17966,0.20702
1992.10812,0.20672
1994.03659,0.20524
1995.96506,0.20400
1997.89353,0.20560
1999.82200,0.20712
2001.75047,0.20571
2003.67894,0.20426
2005.60741,0.20489
2007.53587,0.20621
2009.46434,0.20752
2011.39281,0.20913
2013.32128,0.21037
2015.24975,0.21112
2017.17822,0.21094
2019.10669,0.20823
2021.03515,0.20498
2022.96362,0.20397
2024.89209,0.20410
2026.82056,0.20332
2028.74903,0.20212
2030.67750,0.20257
2032.60597,0.20460
2034.53444,0.20657
2036.46290,0.20829
2038.39137,0.21131
2040.31984,0.21386
2042.24831,0.21153
2044.17678,0.20704
2046.10525,0.20507
2048.03372,0.20538
2049.96218,0.20784
2051.89065,0.21032
2053.81912,0.21010
2055.74759,0.20951
2057.67606,0.20881
2059.60453,0.20592
2061.53300,0.20481
2063.46147,0.20861
2065.38993,0.21195
2067.31840,0.21052
2069.24687,0.20801
2071.17534,0.20804
2073.10381,0.20916
2075.03228,0.20902
2076.96075,0.20774
2078.88921,0.20774
2080.81768,0.20980
2082.74615,0.21149
2084.67462,0.21117
2086.60309,0.20899
2088.53156,0.20582
2090.46003,0.20418
2092.38850,0.20552
2094.31696,0.20765
2096.24543,0.20879
2098.17390,0.20968
2100.10237,0.21069
2102.03084,0.21132
2103.95931,0.21057
2105.88778,0.20800
2107.81624,0.20562
2109.74471,0.20514
2111.67318,0.20548
2113.60165,0.20591
2115.53012,0.20743
2117.45859,0.20965
2119.38706,0.21049
2121.31553,0.20950
2123.24399,0.20927
2125.17246,0.21046
2127.10093,0.21010
2129.02940,0.20818
2130.95787,0.20716
2132.88634,0.20632
2134.81481,0.20289
2136.74327,0.19872
2138.67174,0.20014
2140.60021,0.20669
2142.52868,0.21047
2144.45715,0.20970
2146.38562,0.20998
2148.31409,0.21185
2150.24255,0.21141
2152.17102,0.20971
2154.09949,0.21006
2156.02796,0.21172
2157.95643,0.21218
2159.88490,0.21005
2161.81337,0.20623
2163.74184,0.20558
2165.67030,0.20879
2167.59877,0.20962
2169.52724,0.20739
2171.45571,0.20675
2173.38418,0.20854
2175.31265,0.21069
2177.24112,0.21254
2179.16958,0.21314
2181.09805,0.21001
2183.02652,0.20654
2184.95499,0.20786
2186.88346,0.21034
2188.81193,0.21007
2190.74040,0.20879
2192.66887,0.20840
2194.59733,0.20863
2196.52580,0.20768
2198.45427,0.20608
2200.38274,0.20617
2202.31121,0.20740
2204.23968,0.20907
2206.16815,0.21036
2208.09661,0.20886
2210.02508,0.20588
2211.95355,0.20500
2213.88202,0.20656
2215.81049,0.20791
2217.73896,0.20686
2219.66743,0.20598
2221.59590,0.20842
2223.52436,0.21148
2225.45283,0.21183
2227.38130,0.21072
2229.30977,0.20992
2231.23824,0.20865
2233.16671,0.20713
2235.09518,0.20744
2237.02364,0.20897
2238.95211,0.20815
2240.88058,0.20481
2242.80905,0.20323
2244.73752,0.20491
2246.66599,0.20709
2248.59446,0.20837
2250.52293,0.20930
2252.45139,0.20890
2254.37986,0.20661
2256.30833,0.20485
2258.23680,0.20533
2260.16527,0.20590
2262.09374,0.20534
2264.02221,0.20554
2265.95067,0.20661
2267.87914,0.20758
2269.80761,0.20799
2271.73608,0.20763
2273.66455,0.20764
2275.59302,0.20812
2277.52149,0.20715
2279.44996,0.20470
2281.37842,0.20408
2283.30689,0.20440
2285.23536,0.20260
2287.16383,0.20208
2289.09230,0.20540
2291.02077,0.20919
2292.94924,0.20587
2294.87770,0.19547
2296.80617,0.19334
2298.73464,0.20350
2300.66311,0.21184
2302.59158,0.21355
2304.52005,0.21325
2306.44852,0.21170
2308.37699,0.20914
2310.30545,0.20589
2312.23392,0.20186
2314.16239,0.20145
2316.09086,0.20731
2318.01933,0.21286
2319.94780,0.21452
2321.87627,0.21834
2323.80473,0.22128
2325.73320,0.21676
2327.66167,0.21076
2329.59014,0.20683
2331.51861,0.20208
2333.44708,0.19746
2335.37555,0.20010
2337.30401,0.20967
2339.23248,0.21346
2341.16095,0.21051
2343.08942,0.21090
2345.01789,0.21140
2346.94636,0.20907
2348.87483,0.20729
2350.80330,0.20546
2352.73176,0.20889
2354.66023,0.22292
2356.58870,0.22345
2358.51717,0.20031
2360.44564,0.19114
2362.37411,0.20185
2364.30258,0.20557
2366.23104,0.20223
2368.15951,0.20631
2370.08798,0.21345
2372.01645,0.21110
2373.94492,0.20534
2375.87339,0.20462
2377.80186,0.20468
2379.73033,0.20553
2381.65879,0.20906
2383.58726,0.21159
2385.51573,0.21100
2387.44420,0.20813
2389.37267,0.20601
2391.30114,0.20588
2393.22961,0.20607
2395.15807,0.20738
2397.08654,0.20997
2399.01501,0.21133
2400.94348,0.21103
2402.87195,0.21149
2404.80042,0.21276
2406.72889,0.21271
2408.65736,0.21181
2410.58582,0.20997
2412.51429,0.20771
2414.44276,0.20699
2416.37123,0.20653
2418.29970,0.20656
2420.22817,0.20880
2422.15664,0.21015
2424.08510,0.20849
2426.01357,0.20659
2427.94204,0.20628
2429.87051,0.20807
2431.79898,0.21231
2433.72745,0.21570
2435.65592,0.21576
2437.58439,0.21537
2439.51285,0.21505
2441.44132,0.21247
2443.36979,0.20907
2445.29826,0.20859
2447.22673,0.21152
2449.15520,0.21421
2451.08367,0.21378
2453.01213,0.21005
2454.94060,0.20755
2456.86907,0.20908
2458.79754,0.20852
2460.72601,0.20559
2462.65448,0.20665
2464.58295,0.21054
2466.51142,0.21381
2468.43988,0.21596
2470.36835,0.21558
2472.29682,0.21277
2474.22529,0.20994
2476.15376,0.20871
2478.08223,0.20920
2480.01070,0.20986
2481.93916,0.21067
2483.86763,0.21310
2485.79610,0.21546
2487.72457,0.21529
2489.65304,0.21369
2491.58151,0.21285
2493.50998,0.21135
2495.43844,0.20894
2497.36691,0.20773
2499.29538,0.20713
2501.22385,0.20686
2503.15232,0.20715
2505.08079,0.20835
2507.00926,0.21179
2508.93773,0.21492
2510.86619,0.21484
2512.79466,0.21386
2514.72313,0.21393
2516.65160,0.21380
2518.58007,0.21263
2520.50854,0.21143
2522.43701,0.21074
2524.36547,0.20976
2526.29394,0.20968
2528.22241,0.21193
2530.15088,0.21446
2532.07935,0.21458
2534.00782,0.21277
2535.93629,0.21201
2537.86476,0.21229
2539.79322,0.21155
2541.72169,0.21112
2543.65016,0.21215
2545.57863,0.21260
2547.50710,0.21226
2549.43557,0.21374
2551.36404,0.21545
2553.29250,0.21373
2555.22097,0.21155
2557.14944,0.21311
2559.07791,0.21487
2561.00638,0.21418
2562.93485,0.21393
2564.86332,0.21309
2566.79179,0.21013
2568.72025,0.20832
2570.64872,0.20857
2572.57719,0.20899
2574.50566,0.20988
2576.43413,0.21217
2578.36260,0.21503
2580.29107,0.21681
2582.21953,0.21536
2584.14800,0.21156
2586.07647,0.20943
2588.00494,0.21042
2589.93341,0.21360
2591.86188,0.21590
2593.79035,0.21491
2595.71882,0.21405
2597.64728,0.21458
2599.57575,0.21407
2601.50422,0.21372
2603.43269,0.21342
2605.36116,0.21218
2607.28963,0.21407
2609.21810,0.22022
2611.14656,0.22414
2613.07503,0.22217
2615.00350,0.21857
2616.93197,0.21642
2618.86044,0.21476
2620.78891,0.21431
2622.71738,0.21537
2624.64585,0.21636
2626.57431,0.21624
2628.50278,0.21558
2630.43125,0.21548
2632.35972,0.21466
2634.28819,0.21356
2636.21666,0.21319
2638.14513,0.21170
2640.07359,0.21121
2642.00206,0.21401
2643.93053,0.21557
2645.85900,0.21303
2647.78747,0.21065
2649.71594,0.21187
2651.64441,0.21548
2653.57288,0.21809
2655.50134,0.21759
2657.42981,0.21524
2659.35828,0.21180
2661.28675,0.20907
2663.21522,0.21010
2665.14369,0.21368
2667.07216,0.21746
2669.00062,0.22072
2670.92909,0.22221
2672.85756,0.22215
2674.78603,0.22237
2676.71450,0.22213
2678.64297,0.22079
2680.57144,0.21919
2682.49990,0.21779
2684.42837,0.21931
2686.35684,0.22336
2688.28531,0.22324
2690.21378,0.21860
2692.14225,0.21755
2694.07072,0.21961
2695.99919,0.21845
2697.92765,0.21583
2699.85612,0.21573
2701.78459,0.21864
2703.71306,0.22088
2705.64153,0.21873
2707.57000,0.21643
2709.49847,0.21826
2711.42693,0.22038
2713.35540,0.21895
2715.28387,0.21662
2717.21234,0.21649
2719.14081,0.21697
2721.06928,0.21716
2722.99775,0.21851
2724.92622,0.21982
2726.85468,0.22010
2728.78315,0.22205
2730.71162,0.22506
2732.64009,0.22467
2734.56856,0.22145
2736.49703,0.22102
2738.42550,0.22520
2740.35396,0.22919
2742.28243,0.22949
2744.21090,0.22847
2746.13937,0.22878
2748.06784,0.22866
2749.99631,0.22653
2751.92478,0.22607
2753.85325,0.22912
2755.78171,0.23192
2757.71018,0.23107
2759.63865,0.22664
2761.56712,0.22313
2763.49559,0.22401
2765.42406,0.22674
2767.35253,0.22776
2769.28099,0.22763
2771.20946,0.22753
2773.13793,0.22667
2775.06640,0.22642
2776.99487,0.22741
2778.92334,0.22809
2780.85181,0.22961
2782.78028,0.23193
2784.70874,0.23183
2786.63721,0.23051
2788.56568,0.23183
2790.49415,0.23317
2792.42262,0.23209
2794.35109,0.23209
2796.27956,0.23270
2798.20802,0.23020
2800.13649,0.22696
2802.06496,0.22821
2803.99343,0.23228
2805.92190,0.23244
2807.85037,0.22835
2809.77884,0.22657
2811.70731,0.22861
2813.63577,0.22973
2815.56424,0.22924
2817.49271,0.23051
2819.42118,0.23240
2821.34965,0.23059
2823.27812,0.22632
2825.20659,0.22518
2827.13505,0.22726
2829.06352,0.22856
2830.99199,0.22955
2832.92046,0.23187
2834.84893,0.23297
2836.77740,0.22986
2838.70587,0.22499
2840.63433,0.22477
2842.56280,0.22964
2844.49127,0.23271
2846.41974,0.23045
2848.34821,0.22621
2850.27668,0.22477
2852.20515,0.22838
2854.13362,0.23480
2856.06208,0.23882
2857.99055,0.23726
2859.91902,0.23191
2861.84749,0.22867
2863.77596,0.22911
2865.70443,0.22937
2867.63290,0.22920
2869.56136,0.22918
2871.48983,0.22915
2873.41830,0.23037
2875.34677,0.23100
2877.27524,0.22992
2879.20371,0.22942
2881.13218,0.23059
2883.06065,0.23118
2884.98911,0.22892
2886.91758,0.22640
2888.84605,0.22581
2890.77452,0.22616
2892.70299,0.22677
2894.63146,0.22690
2896.55993,0.22682
2898.48839,0.22832
2900.41686,0.23087
2902.34533,0.23129
2904.27380,0.22906
2906.20227,0.22648
2908.13074,0.22394
2910.05921,0.22243
2911.98768,0.22501
2913.91614,0.22798
2915.84461,0.22552
2917.77308,0.22315
2919.70155,0.22574
2921.63002,0.22895
2923.55849,0.23004
2925.48696,0.22927
2927.41542,0.22627
2929.34389,0.22377
2931.27236,0.22634
2933.20083,0.22837
2935.12930,0.22276
2937.05777,0.21612
2938.98624,0.21548
2940.91471,0.22008
2942.84317,0.22609
2944.77164,0.22846
2946.70011,0.22809
2948.62858,0.23022
2950.55705,0.23395
2952.48552,0.23496
2954.41399,0.23182
2956.34245,0.22528
2958.27092,0.22134
2960.19939,0.22439
2962.12786,0.22738
2964.05633,0.22654
2965.98480,0.22560
2967.91327,0.22616
2969.84174,0.22941
2971.77020,0.23249
2973.69867,0.23280
2975.62714,0.23248
2977.55561,0.23267
2979.48408,0.23373
2981.41255,0.23525
2983.34102,0.23772
2985.26948,0.23940
2987.19795,0.23579
2989.12642,0.23157
2991.05489,0.23370
2992.98336,0.23797
2994.91183,0.23800
2996.84030,0.23483
2998.76877,0.23230
3000.69723,0.23066
3002.62570,0.22947
3004.55417,0.23013
3006.48264,0.23145
3008.41111,0.23123
3010.33958,0.22820
3012.26805,0.22048
3014.19651,0.20558
3016.12498,0.19141
3018.05345,0.19671
3019.98192,0.21871
3021.91039,0.23541
3023.83886,0.24012
3025.76733,0.23803
3027.69579,0.23290
3029.62426,0.22974
3031.55273,0.23197
3033.48120,0.23663
3035.40967,0.24123
3037.33814,0.24496
3039.26661,0.24520
3041.19508,0.24185
3043.12354,0.23734
3045.05201,0.23353
3046.98048,0.23262
3048.90895,0.23451
3050.83742,0.23608
3052.76589,0.23598
3054.69436,0.23105
3056.62282,0.22202
3058.55129,0.21913
3060.47976,0.22434
3062.40823,0.22981
3064.33670,0.23148
3066.26517,0.23013
3068.19364,0.23006
3070.12211,0.23266
3072.05057,0.23304
3073.97904,0.23017
3075.90751,0.22920
3077.83598,0.23029
3079.76445,0.22882
3081.69292,0.22792
3083.62139,0.22805
3085.54985,0.22390
3087.47832,0.22266
3089.40679,0.22874
3091.33526,0.23336
3093.26373,0.23146
3095.19220,0.22803
3097.12067,0.22950
3099.04914,0.23342
3100.97760,0.23389
3102.90607,0.22848
3104.83454,0.22596
3106.76301,0.23425
3108.69148,0.24025
3110.61995,0.23393
3112.54842,0.22590
3114.47688,0.22698
3116.40535,0.23246
3118.33382,0.23338
3120.26229,0.23264
3122.19076,0.23619
3124.11923,0.24035
3126.04770,0.23945
3127.97617,0.23587
3129.90463,0.23303
3131.83310,0.23319
3133.76157,0.23696
3135.69004,0.23787
3137.61851,0.23383
3139.54698,0.23216
3141.47545,0.23640
3143.40391,0.24118
3145.33238,0.24224
3147.26085,0.24060
3149.18932,0.23936
3151.11779,0.23911
3153.04626,0.23779
3154.97473,0.23780
3156.90320,0.24047
3158.83166,0.24372
3160.76013,0.24512
3162.68860,0.24250
3164.61707,0.23980
3166.54554,0.23988
3168.47401,0.24075
3170.40248,0.24168
3172.33094,0.24278
3174.25941,0.24245
3176.18788,0.23848
3178.11635,0.23492
3180.04482,0.23694
3181.97329,0.24321
3183.90176,0.24926
3185.83022,0.24870
3187.75869,0.24203
3189.68716,0.23820
3191.61563,0.24008
3193.54410,0.24257
3195.47257,0.24384
3197.40104,0.24754
3199.32951,0.24960
3201.25797,0.24480
3203.18644,0.24074
3205.11491,0.23966
3207.04338,0.23649
3208.97185,0.23411
3210.90032,0.23593
3212.82879,0.24242
3214.75725,0.24857
3216.68572,0.24618
3218.61419,0.23998
3220.54266,0.23836
3222.47113,0.24122
3224.39960,0.24372
3226.32807,0.24172
3228.25654,0.23761
3230.18500,0.23465
3232.11347,0.23388
3234.04194,0.23846
3235.97041,0.24562
3237.89888,0.24701
3239.82735,0.24566
3241.75582,0.24818
3243.68428,0.25019
3245.61275,0.24678
3247.54122,0.24143
3249.46969,0.24374
3251.39816,0.25153
3253.32663,0.24902
3255.25510,0.23850
3257.18357,0.23435
3259.11203,0.23563
3261.04050,0.23723
3262.96897,0.23947
3264.89744,0.24019
3266.82591,0.23883
3268.75438,0.24016
3270.68285,0.24445
3272.61131,0.24647
3274.53978,0.24697
3276.46825,0.24787
3278.39672,0.24702
3280.32519,0.24572
3282.25366,0.24319
3284.18213,0.23893
3286.11060,0.23752
3288.03906,0.23820
3289.96753,0.23913
3291.89600,0.24041
3293.82447,0.23885
3295.75294,0.23693
3297.68141,0.23817
3299.60988,0.23925
3301.53834,0.24030
3303.46681,0.23980
3305.39528,0.23593
3307.32375,0.23413
3309.25222,0.23360
3311.18069,0.23168
3313.10916,0.23189
3315.03763,0.23388
3316.96609,0.23404
3318.89456,0.23412
3320.82303,0.23496
3322.75150,0.23135
3324.67997,0.22904
3326.60844,0.23691
3328.53691,0.24612
3330.46537,0.24700
3332.39384,0.24327
3334.32231,0.24276
3336.25078,0.24678
3338.17925,0.24847
3340.10772,0.24449
3342.03619,0.23945
3343.96466,0.23748
3345.89312,0.23798
3347.82159,0.23928
3349.75006,0.24223
3351.67853,0.24542
3353.60700,0.24530
3355.53547,0.24267
3357.46394,0.24070
3359.39240,0.24161
3361.32087,0.24373
3363.24934,0.24293
3365.17781,0.24090
3367.10628,0.23960
3369.03475,0.23937
3370.96322,0.24411
3372.89168,0.25169
3374.82015,0.25441
3376.74862,0.25012
3378.67709,0.24449
3380.60556,0.24231
3382.53403,0.24193
3384.46250,0.24274
3386.39097,0.24311
3388.31943,0.23953
3390.24790,0.23372
3392.17637,0.23189
3394.10484,0.23430
3396.03331,0.23529
3397.96178,0.23748
3399.89025,0.24492
3401.81871,0.25730
3403.74718,0.26741
3405.67565,0.26401
3407.60412,0.25055
3409.53259,0.23888
3411.46106,0.23418
3413.38953,0.23292
3415.31800,0.23097
3417.24646,0.23092
3419.17493,0.23644
3421.10340,0.24329
3423.03187,0.24339
3424.96034,0.24020
3426.88881,0.23922
3428.81728,0.23812
3430.74574,0.23637
3432.67421,0.23402
3434.60268,0.23050
3436.53115,0.23029
3438.45962,0.23190
3440.38809,0.22868
3442.31656,0.22661
3444.24503,0.22947
3446.17349,0.22992
3448.10196,0.22634
3450.03043,0.22317
3451.95890,0.22116
3453.88737,0.21724
3455.81584,0.21226
3457.74431,0.21099
3459.67277,0.21582
3461.60124,0.22276
3463.52971,0.22604
3465.45818,0.22628
3467.38665,0.22720
3469.31512,0.22812
3471.24359,0.22376
3473.17206,0.21531
3475.10052,0.20928
3477.02899,0.20653
3478.95746,0.20522
3480.88593,0.20680
3482.81440,0.21115
3484.74287,0.21367
3486.67134,0.21379
3488.59980,0.21353
3490.52827,0.21216
3492.45674,0.21049
3494.38521,0.21035
3496.31368,0.20824
3498.24215,0.20432
3500.17062,0.20608
3502.09909,0.20991
3504.02755,0.20731
3505.95602,0.20446
3507.88449,0.20571
3509.81296,0.20417
3511.74143,0.20052
3513.66990,0.20065
3515.59837,0.20270
3517.52683,0.20412
3519.45530,0.20392
3521.38377,0.20121
3523.31224,0.19798
3525.24071,0.19740
3527.16918,0.19914
3529.09765,0.20090
3531.02611,0.20144
3532.95458,0.20039
3534.88305,0.19837
3536.81152,0.19717
3538.73999,0.19814
3540.66846,0.19909
3542.59693,0.19764
3544.52540,0.19311
3546.45386,0.18564
3548.38233,0.18047
3550.31080,0.18486
3552.23927,0.19437
3554.16774,0.19514
3556.09621,0.18865
3558.02468,0.18418
3559.95314,0.18047
3561.88161,0.17652
3563.81008,0.17976
3565.73855,0.19117
3567.66702,0.19538
3569.59549,0.18874
3571.52396,0.18235
3573.45243,0.17772
3575.38089,0.17540
3577.30936,0.17620
3579.23783,0.17933
3581.16630,0.18159
3583.09477,0.18197
3585.02324,0.18364
3586.95171,0.18478
3588.88017,0.18129
3590.80864,0.17977
3592.73711,0.18108
3594.66558,0.17790
3596.59405,0.17283
3598.52252,0.17540
3600.45099,0.18086
3602.37946,0.18182
3604.30792,0.18198
3606.23639,0.18470
3608.16486,0.18585
3610.09333,0.18286
3612.02180,0.17954
3613.95027,0.17307
3615.87874,0.16386
3617.80720,0.15893
3619.73567,0.15915
3621.66414,0.16133
3623.59261,0.16286
3625.52108,0.16273
3627.44955,0.16016
3629.37802,0.15665
3631.30649,0.15905
3633.23495,0.16311
3635.16342,0.16331
3637.09189,0.16064
3639.02036,0.15731
3640.94883,0.15482
3642.87730,0.15662
3644.80577,0.16564
3646.73423,0.18209
3648.66270,0.19566
3650.59117,0.18717
3652.51964,0.17472
3654.44811,0.17085
3656.37658,0.16899
3658.30505,0.16283
3660.23352,0.15575
3662.16198,0.15127
3664.09045,0.14938
3666.01892,0.15079
3667.94739,0.15731
3669.87586,0.16395
3671.80433,0.16257
3673.73280,0.16041
3675.66126,0.16071
3677.58973,0.15808
3679.51820,0.15313
3681.44667,0.14786
3683.37514,0.14408
3685.30361,0.14772
3687.23208,0.15998
3689.16055,0.16763
3691.08901,0.16114
3693.01748,0.15336
3694.94595,0.14856
3696.87442,0.14600
3698.80289,0.14644
3700.73136,0.14891
3702.65983,0.15154
3704.58829,0.15334
3706.51676,0.15397
3708.44523,0.15489
3710.37370,0.15815
3712.30217,0.15855
3714.23064,0.15036
3716.15911,0.14222
3718.08757,0.14596
3720.01604,0.16171
3721.94451,0.17088
3723.87298,0.16481
3725.80145,0.15605
3727.72992,0.15255
3729.65839,0.15204
3731.58686,0.15611
3733.51532,0.16831
3735.44379,0.17329
3737.37226,0.16468
3739.30073,0.16187
3741.22920,0.16408
3743.15767,0.16410
3745.08614,0.16065
3747.01460,0.16174
3748.94307,0.17162
3750.87154,0.17539
3752.80001,0.15714
3754.72848,0.14165
3756.65695,0.13646
3758.58542,0.13783
3760.51389,0.14251
3762.44235,0.14649
3764.37082,0.14979
3766.29929,0.14937
3768.22776,0.14399
3770.15623,0.13976
3772.08470,0.13808
3774.01317,0.13717
3775.94163,0.13858
3777.87010,0.14196
3779.79857,0.14322
3781.72704,0.14034
3783.65551,0.13821
3785.58398,0.14032
3787.51245,0.14285
3789.44092,0.14360
3791.36938,0.14397
3793.29785,0.14399
3795.22632,0.14501
3797.15479,0.14751
3799.08326,0.15043
3801.01173,0.15281
3802.94020,0.15134
3804.86866,0.15043
3806.79713,0.14998
3808.72560,0.14606
3810.65407,0.14506
3812.58254,0.14818
3814.51101,0.15178
3816.43948,0.15329
3818.36795,0.15387
3820.29641,0.15446
3822.22488,0.14625
3824.15335,0.13851
3826.08182,0.13963
3828.01029,0.14209
3829.93876,0.14280
3831.86723,0.14134
3833.79569,0.13855
3835.72416,0.14713
3837.65263,0.16592
3839.58110,0.16838
3841.50957,0.15595
3843.43804,0.14338
3845.36651,0.13542
3847.29498,0.13764
3849.22344,0.14571
3851.15191,0.15216
3853.08038,0.15548
3855.00885,0.15109
3856.93732,0.14205
3858.86579,0.13703
3860.79426,0.13906
3862.72272,0.14265
3864.65119,0.13961
3866.57966,0.13646
3868.50813,0.13991
3870.43660,0.14435
3872.36507,0.14369
3874.29354,0.14143
3876.22200,0.14106
3878.15047,0.14451
3880.07894,0.14777
3882.00741,0.14444
3883.93588,0.14239
3885.86435,0.14148
3887.79282,0.13278
3889.72129,0.12551
3891.64975,0.12795
3893.57822,0.13178
3895.50669,0.13499
3897.43516,0.14264
3899.36363,0.14570
3901.29210,0.13984
3903.22057,0.14037
3905.14903,0.14393
3907.07750,0.13891
3909.00597,0.13248
3910.93444,0.13023
3912.86291,0.13071
3914.79138,0.13271
3916.71985,0.13419
3918.64832,0.13133
3920.57678,0.12881
3922.50525,0.13290
3924.43372,0.13518
3926.36219,0.12706
3928.29066,0.12017
3930.21913,0.12402
3932.14760,0.13018
3934.07606,0.12899
3936.00453,0.12595
3937.93300,0.12818
3939.86147,0.13391
3941.78994,0.13354
3943.71841,0.12482
3945.64688,0.12068
3947.57535,0.12376
3949.50381,0.12414
3951.43228,0.11988
3953.36075,0.11773
3955.28922,0.11870
3957.21769,0.12062
3959.14616,0.12309
3961.07463,0.12349
3963.00309,0.12252
3964.93156,0.12556
3966.86003,0.13156
3968.78850,0.13517
3970.71697,0.13394
3972.64544,0.13073
3974.57391,0.12854
3976.50238,0.12381
3978.43084,0.11735
3980.35931,0.11514
3982.28778,0.11651
3984.21625,0.11826
3986.14472,0.11953
3988.07319,0.11968
3990.00166,0.12060
3991.93012,0.12306
3993.85859,0.12193
3995.78706,0.11749
3997.71553,0.11562
3999.64400,0.11684
4001.57247,0.11829
4003.50094,0.11853
4005.42941,0.11815
4007.35787,0.11733
4009.28634,0.11817
4011.21481,0.12193
4013.14328,0.12439
4015.07175,0.12469
4017.00022,0.12482
4018.92869,0.12201
4020.85715,0.11477
4022.78562,0.10769
4024.71409,0.10447
4026.64256,0.10673
4028.57103,0.11359
4030.49950,0.11860
4032.42797,0.11738
4034.35644,0.11338
4036.28490,0.11147
4038.21337,0.11203
4040.14184,0.11281
4042.07031,0.11345
4043.99878,0.11524
4045.92725,0.11738
4047.85572,0.11755
4049.78418,0.11451
4051.71265,0.10914
4053.64112,0.10393
4055.56959,0.10303
4057.49806,0.10848
4059.42653,0.11134
4061.35500,0.10732
4063.28346,0.10529
4065.21193,0.10388
4067.14040,0.10014
4069.06887,0.09983
4070.99734,0.10305
4072.92581,0.10949
4074.85428,0.11692
4076.78275,0.11746
4078.71121,0.11241
4080.63968,0.10654
4082.56815,0.10065
4084.49662,0.09874
4086.42509,0.09905
4088.35356,0.09672
4090.28203,0.09592
4092.21049,0.09779
4094.13896,0.09728
4096.06743,0.09528
4097.99590,0.09531
4099.92437,0.09849
4101.85284,0.10544
4103.78131,0.11118
4105.70978,0.11054
4107.63824,0.10825
4109.56671,0.10676
4111.49518,0.10182
4113.42365,0.09715
4115.35212,0.09859
4117.28059,0.10259
4119.20906,0.10331
4121.13752,0.09921
4123.06599,0.09712
4124.99446,0.10011
4126.92293,0.10120
4128.85140,0.09867
4130.77987,0.09725
4132.70834,0.10034
4134.63681,0.10281
4136.56527,0.09962
4138.49374,0.09484
4140.42221,0.09160
4142.35068,0.09168
4144.27915,0.09619
4146.20762,0.10270
4148.13609,0.10482
4150.06455,0.10007
4151.99302,0.09421
4153.92149,0.09164
4155.84996,0.09065
4157.77843,0.08807
4159.70690,0.08839
4161.63537,0.09527
4163.56384,0.10348
4165.49230,0.10821
4167.42077,0.10529
4169.34924,0.09673
4171.27771,0.09107
4173.20618,0.08979
4175.13465,0.09021
4177.06312,0.09115
4178.99158,0.09064
4180.92005,0.08810
4182.84852,0.08367
4184.77699,0.07992
4186.70546,0.08420
4188.63393,0.09333
4190.56240,0.09467
4192.49087,0.08602
4194.41933,0.07401
4196.34780,0.06678
4198.27627,0.07213
4200.20474,0.08845
4202.13321,0.09869
4204.06168,0.09344
4205.99015,0.08475
4207.91861,0.08205
4209.84708,0.08468
4211.77555,0.08642
4213.70402,0.08289
4215.63249,0.08116
4217.56096,0.08134
4219.48943,0.07686
4221.41789,0.07341
4223.34636,0.07669
4225.27483,0.08150
4227.20330,0.08204
4229.13177,0.07845
4231.06024,0.07595
4232.98871,0.07845
4234.91718,0.08246
4236.84564,0.08293
4238.77411,0.08167
4240.70258,0.08513
4242.63105,0.08986
4244.55952,0.08632
4246.48799,0.08150
4248.41646,0.08247
4250.34492,0.07786
4252.27339,0.07016
4254.20186,0.07269
4256.13033,0.07776
4258.05880,0.07673
4259.98727,0.07494
4261.91574,0.07485
4263.84421,0.07508
4265.77267,0.07553
4267.70114,0.07611
4269.62961,0.07772
4271.55808,0.07837
4273.48655,0.07505
4275.41502,0.07101
4277.34349,0.06868
4279.27195,0.06678
4281.20042,0.06546
4283.12889,0.06567
4285.05736,0.06577
4286.98583,0.06129
4288.91430,0.05828
4290.84277,0.06543
4292.77124,0.07236
4294.69970,0.07000
4296.62817,0.06631
4298.55664,0.06665
4300.48511,0.06774
4302.41358,0.06655
4304.34205,0.06329
4306.27052,0.06045
4308.19898,0.05892
4310.12745,0.05767
4312.05592,0.05850
4313.98439,0.06144
4315.91286,0.06150
4317.84133,0.05856
4319.76980,0.05800
4321.69827,0.06073
4323.62673,0.06302
4325.55520,0.06388
4327.48367,0.06534
4329.41214,0.06937
4331.34061,0.07425
4333.26908,0.07135
4335.19755,0.05986
4337.12601,0.05187
4339.05448,0.05075
4340.98295,0.05102
4342.91142,0.05452
4344.83989,0.06295
4346.76836,0.06915
4348.69683,0.06920
4350.62530,0.06536
4352.55376,0.06025
4354.48223,0.05962
4356.41070,0.06247
4358.33917,0.05808
4360.26764,0.04763
4362.19611,0.04392
4364.12458,0.05106
4366.05304,0.05921
4367.98151,0.05617
4369.90998,0.04483
4371.83845,0.04014
4373.76692,0.04614
4375.69539,0.05261
4377.62386,0.04939
4379.55232,0.04102
4381.48079,0.04031
4383.40926,0.04346
4385.33773,0.04413
4387.26620,0.05204
4389.19467,0.06427
4391.12314,0.06399
4393.05161,0.05375
4394.98007,0.04540
4396.90854,0.04099
4398.83701,0.04106
4400.76548,0.04142
4402.69395,0.03949
4404.62242,0.04174
4406.55089,0.04694
4408.47935,0.04809
4410.40782,0.04504
4412.33629,0.04351
4414.26476,0.04418
4416.19323,0.04372
4418.12170,0.04278
4420.05017,0.04199
4421.97864,0.04189
4423.90710,0.04216
4425.83557,0.04125
4427.76404,0.03748
4429.69251,0.03131
4431.62098,0.02792
4433.54945,0.03051
4435.47792,0.03545
4437.40638,0.03522
4439.33485,0.03110
4441.26332,0.03311
4443.19179,0.04150
4445.12026,0.04697
4447.04873,0.04628
4448.97720,0.04395
4450.90567,0.03879
4452.83413,0.02888
4454.76260,0.02703
4456.69107,0.03842
4458.61954,0.04520
4460.54801,0.04000
4462.47648,0.03317
4464.40495,0.02698
4466.33341,0.02541
4468.26188,0.03422
4470.19035,0.03998
4472.11882,0.03055
4474.04729,0.01775
4475.97576,0.01529
4477.90423,0.02168
4479.83270,0.02840
4481.76116,0.03236
4483.68963,0.03605
4485.61810,0.03718
4487.54657,0.03242
4489.47504,0.02519
4491.40351,0.01926
4493.33198,0.01461
4495.26044,0.01636
4497.18891,0.02580
4499.11738,0.03050
4501.04585,0.03235
4502.97432,0.04075
4504.90279,0.04461
4506.83126,0.03444
4508.75973,0.01989
4510.68819,0.01151
4512.61666,0.00571
4514.54513,0.00014
4516.47360,0.00178
4518.40207,0.00645
4520.33054,0.00655
4522.25901,0.00835
4524.18747,0.01359
4526.11594,0.01614
4528.04441,0.01670
4529.97288,0.01557
4531.90135,0.01269
4533.82982,0.01552
4535.75829,0.02617
4537.68676,0.03297
4539.61522,0.02849
4541.54369,0.01832
4543.47216,0.00879
4545.40063,0.00323
4547.32910,0.00103
4549.25757,-0.00008
4551.18604,0.00319
4553.11450,0.00813
4555.04297,0.00746
4556.97144,0.00696
4558.89991,0.01141
4560.82838,0.01882
4562.75685,0.02788
4564.68532,0.02901
4566.61378,0.02267
4568.54225,0.02045
4570.47072,0.01736
4572.39919,0.00909
4574.32766,0.00524
4576.25613,0.00846
4578.18460,0.01254
4580.11307,0.01277
4582.04153,0.01012
4583.97000,0.01145
4585.89847,0.01998
4587.82694,0.02824
4589.75541,0.02999
4591.68388,0.02866
4593.61235,0.02519
4595.54081,0.02104
4597.46928,0.02587
4599.39775,0.03746
4601.32622,0.03760
4603.25469,0.02211
4605.18316,0.01084
4607.11163,0.01354
4609.04010,0.01588
4610.96856,0.01269
4612.89703,0.01252
4614.82550,0.01424
4616.75397,0.01077
4618.68244,0.00443
4620.61091,0.00321
4622.53938,0.00619
4624.46784,0.00426
4626.39631,-0.00122
4628.32478,0.00071
4630.25325,0.00659
4632.18172,0.00714
4634.11019,0.01023
4636.03866,0.01885
4637.96713,0.01856
4639.89559,0.00776
4641.82406,0.00373
4643.75253,0.01329
4645.68100,0.02304
4647.60947,0.02623
4649.53794,0.02458
4651.46641,0.01913
4653.39487,0.01682
4655.32334,0.01673
4657.25181,0.01249
4659.18028,0.00580
4661.10875,0.00381
4663.03722,0.00660
4664.96569,0.00937
4666.89416,0.01938
4668.82262,0.03397
4670.75109,0.03530
4672.67956,0.02401
4674.60803,0.01505
4676.53650,0.01089
4678.46497,0.00843
4680.39344,0.00675
4682.32190,-0.00547
4684.25037,-0.01783
4686.17884,-0.00728
4688.10731,0.00768
4690.03578,0.00753
4691.96425,0.00417
4693.89272,0.00342
4695.82119,0.00307
4697.74965,0.00616
4699.67812,0.01096
4701.60659,0.01208
4703.53506,0.00904
4705.46353,0.00545
4707.39200,0.00635
4709.32047,0.01257
4711.24893,0.01779
4713.17740,0.01292
4715.10587,0.00050
4717.03434,-0.00687
4718.96281,-0.00706
4720.89128,-0.00469
4722.81975,-0.00417
4724.74821,-0.00715
4726.67668,-0.00767
4728.60515,0.00130
4730.53362,0.01524
4732.46209,0.01414
4734.39056,-0.00188
4736.31903,-0.00286
4738.24750,0.01055
4740.17596,0.01372
4742.10443,0.01272
4744.03290,0.01685
4745.96137,0.01995
4747.88984,0.02453
4749.81831,0.02759
4751.74678,0.02037
4753.67524,0.01184
4755.60371,0.01443
4757.53218,0.01787
4759.46065,0.01160
4761.38912,0.00571
4763.31759,0.00102
4765.24606,-0.00784
4767.17453,-0.01076
4769.10299,-0.00212
4771.03146,0.00414
4772.95993,-0.00053
4774.88840,0.00061
4776.81687,0.01019
4778.74534,0.00879
4780.67381,0.00107
4782.60227,0.00378
4784.53074,0.01407
4786.45921,0.02123
4788.38768,0.01992
4790.31615,0.01367
4792.24462,0.00690
4794.17309,-0.00307
4796.10156,-0.01132
4798.03002,-0.00426
4799.95849,0.01146
4801.88696,0.01597
4803.81543,0.00923
4805.74390,0.00037
4807.67237,-0.00893
4809.60084,-0.01259
4811.52930,-0.00467
4813.45777,0.01055
4815.38624,0.02006
4817.31471,0.01595
4819.24318,0.01037
4821.17165,0.01413
4823.10012,0.01784
4825.02859,0.01160
4826.95705,-0.00227
4828.88552,-0.01351
4830.81399,-0.01191
4832.74246,0.00363
4834.67093,0.02097
4836.59940,0.02752
4838.52787,0.02572
4840.45633,0.01741
4842.38480,0.00668
4844.31327,0.00865
4846.24174,0.01952
4848.17021,0.02088
4850.09868,0.00739
4852.02715,-0.01019
4853.95562,-0.01495
4855.88408,-0.00960
4857.81255,-0.00836
4859.74102,-0.00879
4861.66949,-0.00349
4863.59796,0.00090
4865.52643,-0.00299
4867.45490,-0.01106
4869.38336,-0.01243
4871.31183,-0.00253
4873.24030,0.01024
4875.16877,0.01772
4877.09724,0.02192
4879.02571,0.02410
4880.95418,0.01920
4882.88265,0.00722
4884.81111,-0.00458
4886.73958,-0.00825
4888.66805,-0.00312
4890.59652,0.00221
4892.52499,0.00414
4894.45346,0.00802
4896.38193,0.01544
4898.31039,0.01728
4900.23886,0.00647
4902.16733,-0.00961
4904.09580,-0.01313
4906.02427,0.00316
4907.95274,0.02073
4909.88121,0.02553
4911.80967,0.02062
4913.73814,0.01265
4915.66661,0.00440
4917.59508,-0.00281
4919.52355,-0.00582
4921.45202,-0.00502
4923.38049,0.00016
4925.30896,0.00900
4927.23742,0.01034
4929.16589,0.00937
4931.09436,0.01514
4933.02283,0.00982
4934.95130,-0.01087
4936.87977,-0.02346
4938.80824,-0.02025
4940.73670,-0.01389
4942.66517,-0.00531
4944.59364,0.00730
4946.52211,0.01567
4948.45058,0.01704
4950.37905,0.01293
4952.30752,0.00814
4954.23599,0.00447
4956.16445,0.00264
4958.09292,0.01083
4960.02139,0.02611
4961.94986,0.03178
4963.87833,0.01988
4965.80680,0.00685
4967.73527,0.00849
4969.66373,0.01644
4971.59220,0.01488
4973.52067,-0.00002
4975.44914,-0.00659
4977.37761,0.01007
4979.30608,0.02519
4981.23455,0.02425
4983.16302,0.02812
4985.09148,0.03348
4987.01995,0.01667
4988.94842,-0.00330
4990.87689,0.00066
4992.80536,0.00567
4994.73383,0.00449
4996.66230,0.02207
4998.59076,0.04142
5000.51923,0.04266
5002.44770,0.03784
5004.37617,0.03815
5006.30464,0.04200
5008.23311,0.04105
5010.16158,0.04066
5012.09005,0.04250
5014.01851,0.03215
5015.94698,0.01927
5017.87545,0.02456
5019.80392,0.02877
5021.73239,0.01553
5023.66086,0.00612
5025.58933,0.00804
5027.51779,0.00882
5029.44626,0.00211
5031.37473,-0.00488
5033.30320,-0.00102
5035.23167,0.00713
5037.16014,0.00752
5039.08861,0.00341
5041.01708,0.00553
5042.94554,0.01562
5044.87401,0.02048
5046.80248,0.01511
5048.73095,0.01526
5050.65942,0.02654
5052.58789,0.04301
5054.51636,0.05466
5056.44482,0.05504
5058.37329,0.05196
5060.30176,0.04610
5062.23023,0.03758
5064.15870,0.02757
5066.08717,0.01199
5068.01564,0.00303
5069.94410,0.00950
5071.87257,0.01631
5073.80104,0.01785
5075.72951,0.02347
5077.65798,0.02843
5079.58645,0.02449
5081.51492,0.01776
5083.44339,0.02011
5085.37185,0.02853
5087.30032,0.02840
5089.22879,0.01635
5091.15726,0.00725
5093.08573,0.01554
5095.01420,0.02940
5096.94267,0.03376
5098.87113,0.03566
5100.79960,0.04027
5102.72807,0.03894
5104.65654,0.03304
5106.58501,0.03235
5108.51348,0.03504
5110.44195,0.03102
5112.37042,0.01764
5114.29888,0.01083
5116.22735,0.01372
5118.15582,0.01557
5120.08429,0.02119
5122.01276,0.02429
5123.94123,0.01670
5125.86970,0.01182
5127.79816,0.01014
5129.72663,0.00299
5131.65510,0.00396
5133.58357,0.01783
5135.51204,0.02432
5137.44051,0.02433
5139.36898,0.03621
5141.29745,0.04026
5143.22591,0.01763
5145.15438,-0.00528
5147.08285,-0.00475
5149.01132,0.02416
5150.93979,0.05537
5152.86826,0.06168
5154.79673,0.06360
5156.72519,0.06715
5158.65366,0.05820
5160.58213,0.04781
5162.51060,0.04077
5164.43907,0.03498
5166.36754,0.03545
5168.29601,0.04038
5170.22448,0.04460
5172.15294,0.03848
5174.08141,0.02179
5176.00988,0.01430
5177.93835,0.02132
5179.86682,0.02936
5181.79529,0.03521
5183.72376,0.04575
5185.65222,0.04932
5187.58069,0.03262
5189.50916,0.02099
5191.43763,0.02936
5193.36610,0.04171
5195.29457,0.04840
5197.22304,0.04087
5199.15151,0.02480
5201.07997,0.02628
5203.00844,0.04450
5204.93691,0.05806
5206.86538,0.05819
5208.79385,0.04919
5210.72232,0.03386
5212.65079,0.02430
5214.57925,0.03361
5216.50772,0.05464
5218.43619,0.06816
5220.36466,0.05457
5222.29313,0.02581
5224.22160,0.01665
5226.15007,0.03464
5228.07854,0.05297
5230.00700,0.05911
5231.93547,0.06613
5233.86394,0.07602
5235.79241,0.07696
5237.72088,0.07143
5239.64935,0.06756
5241.57782,0.05671
5243.50628,0.04278
5245.43475,0.05080
5247.36322,0.07230
5249.29169,0.08311
5251.22016,0.08049
5253.14863,0.06236
5255.07710,0.03903
5257.00556,0.03304
5258.93403,0.04472
5260.86250,0.06403
5262.79097,0.07647
5264.71944,0.06952
5266.64791,0.05647
5268.57638,0.05613
5270.50485,0.06654
5272.43331,0.07726
5274.36178,0.08173
5276.29025,0.06899
5278.21872,0.04073
5280.14719,0.02603
5282.07566,0.04132
5284.00413,0.05913
5285.93259,0.05542
5287.86106,0.04527
5289.78953,0.04494
5291.71800,0.05163
5293.64647,0.05233
5295.57494,0.05512
5297.50341,0.07127
5299.43188,0.07964
5301.36034,0.06403
5303.28881,0.04693
5305.21728,0.05599
5307.14575,0.07361
5309.07422,0.07021
5311.00269,0.04728
5312.93116,0.01991
5314.85962,0.01701
5316.78809,0.03757
5318.71656,0.04679
5320.64503,0.04363
5322.57350,0.04660
5324.50197,0.06478
5326.43044,0.08238
5328.35891,0.07334
5330.28737,0.05949
5332.21584,0.06319
5334.14431,0.06752
5336.07278,0.06760
5338.00125,0.07237
5339.92972,0.08265
5341.85819,0.09528
5343.78665,0.09595
5345.71512,0.07451
5347.64359,0.06044
5349.57206,0.06137
5351.50053,0.06098
5353.42900,0.06957
5355.35747,0.08269
5357.28594,0.08678
5359.21440,0.09199
5361.14287,0.09503
5363.07134,0.08991
5364.99981,0.08300
5366.92828,0.08410
5368.85675,0.08446
5370.78522,0.07204
5372.71368,0.07058
5374.64215,0.09430
5376.57062,0.10203
5378.49909,0.07757
5380.42756,0.06283
5382.35603,0.06875
5384.28450,0.08043
5386.21297,0.09225
5388.14143,0.09461
5390.06990,0.07773
5391.99837,0.06200
5393.92684,0.07043
5395.85531,0.08106
5397.78378,0.07447
5399.71225,0.07010
5401.64071,0.07386
5403.56918,0.07802
5405.49765,0.08395
5407.42612,0.08611
5409.35459,0.08785
5411.28306,0.09804
5413.21153,0.10114
5415.13999,0.09212
5417.06846,0.08810
5418.99693,0.09009
5420.92540,0.08543
5422.85387,0.07081
5424.78234,0.06073
5426.71081,0.06892
5428.63928,0.07874
5430.56774,0.06783
5432.49621,0.05510
5434.42468,0.05290
5436.35315,0.05590
5438.28162,0.05981
5440.21009,0.06084
5442.13856,0.04872
5444.06702,0.02459
5445.99549,0.02306
5447.92396,0.04584
5449.85243,0.05361
5451.78090,0.04955
5453.70937,0.04710
5455.63784,0.04574
5457.56631,0.04783
5459.49477,0.04588
5461.42324,0.05080
5463.35171,0.07342
5465.28018,0.09211
5467.20865,0.09572
5469.13712,0.08614
5471.06559,0.08075
5472.99405,0.08685
5474.92252,0.08032
5476.85099,0.06815
5478.77946,0.07370
5480.70793,0.08281
5482.63640,0.08272
5484.56487,0.08078
5486.49334,0.07793
5488.42180,0.06628
5490.35027,0.06323
5492.27874,0.09629
5494.20721,0.13503
5496.13568,0.13058
5498.06415,0.11037
5499.99262,0.10802
5501.92108,0.09999
5503.84955,0.08206
5505.77802,0.07528
5507.70649,0.06806
5509.63496,0.05408
5511.56343,0.05777
5513.49190,0.08994
5515.42037,0.12790
5517.34883,0.14092
5519.27730,0.12697
5521.20577,0.10893
5523.13424,0.08806
5525.06271,0.06238
5526.99118,0.04973
5528.91965,0.05464
5530.84811,0.06646
5532.77658,0.06770
5534.70505,0.06262
5536.63352,0.06578
5538.56199,0.06831
5540.49046,0.06910
5542.41893,0.06991
5544.34740,0.07781
5546.27586,0.09929
5548.20433,0.10395
5550.13280,0.09096
5552.06127,0.09070
5553.98974,0.10126
5555.91821,0.10992
5557.84668,0.11658
5559.77514,0.11859
5561.70361,0.09972
5563.63208,0.06697
5565.56055,0.05996
5567.48902,0.07982
5569.41749,0.09239
5571.34596,0.08866
5573.27443,0.06917
5575.20289,0.03375
5577.13136,0.00671
5579.05983,0.01096
5580.98830,0.03644
5582.91677,0.05595
5584.84524,0.05636
5586.77371,0.04594
5588.70217,0.04758
5590.63064,0.07119
5592.55911,0.09849
5594.48758,0.10959
5596.41605,0.09966
5598.34452,0.08368
5600.27299,0.08474
5602.20145,0.10133
5604.12992,0.11193
5606.05839,0.10016
5607.98686,0.06858
5609.91533,0.04010
5611.84380,0.02937
5613.77227,0.03445
5615.70074,0.04261
5617.62920,0.04222
5619.55767,0.04326
5621.48614,0.05859
5623.41461,0.08549
5625.34308,0.11116
5627.27155,0.11583
5629.20002,0.09825
5631.12848,0.08549
5633.05695,0.08495
5634.98542,0.07965
5636.91389,0.07597
5638.84236,0.09107
5640.77083,0.10511
5642.69930,0.09397
5644.62777,0.08575
5646.55623,0.11479
5648.48470,0.14016
5650.41317,0.11417
5652.34164,0.07429
5654.27011,0.07161
5656.19858,0.08524
5658.12705,0.07741
5660.05551,0.06432
5661.98398,0.06829
5663.91245,0.07243
5665.84092,0.06675
5667.76939,0.06527
5669.69786,0.08200
5671.62633,0.11041
5673.55480,0.12657
5675.48326,0.12199
5677.41173,0.10525
5679.34020,0.09576
5681.26867,0.10821
5683.19714,0.11669
5685.12561,0.09894
5687.05408,0.07818
5688.98254,0.07589
5690.91101,0.09867
5692.83948,0.13646
5694.76795,0.15666
5696.69642,0.15276
5698.62489,0.14478
5700.55336,0.12902
5702.48183,0.09207
5704.41029,0.04973
5706.33876,0.03505
5708.26723,0.04970
5710.19570,0.06568
5712.12417,0.07777
5714.05264,0.08422
5715.98111,0.08308
5717.90957,0.10681
5719.83804,0.14792
5721.76651,0.15761
5723.69498,0.13198
5725.62345,0.09417
5727.55192,0.06571
5729.48039,0.06114
5731.40886,0.06315
5733.33732,0.06615
5735.26579,0.07310
5737.19426,0.06052
5739.12273,0.06252
5741.05120,0.10071
5742.97967,0.11088
5744.90814,0.08124
5746.83660,0.05481
5748.76507,0.06486
5750.69354,0.09127
5752.62201,0.08039
5754.55048,0.06009
5756.47895,0.07595
5758.40742,0.10271
5760.33588,0.11686
5762.26435,0.12101
5764.19282,0.12082
5766.12129,0.12969
5768.04976,0.12565
5769.97823,0.07971
5771.90670,0.03566
5773.83517,0.03803
5775.76363,0.05285
5777.69210,0.04334
5779.62057,0.02221
5781.54904,0.00326
5783.47751,0.00162
5785.40598,0.04047
5787.33445,0.09811
5789.26291,0.12782
5791.19138,0.11413
5793.11985,0.09382
5795.04832,0.08248
5796.97679,0.05867
5798.90526,0.05160
5800.83373,0.07116
5802.76220,0.09192
5804.69066,0.11117
5806.61913,0.10405
5808.54760,0.06320
5810.47607,0.03861
5812.40454,0.06096
5814.33301,0.09773
5816.26148,0.11284
5818.18994,0.11400
5820.11841,0.12390
5822.04688,0.13005
5823.97535,0.10459
5825.90382,0.08320
5827.83229,0.08872
5829.76076,0.08453
5831.68923,0.07729
5833.61769,0.08439
5835.54616,0.08538
5837.47463,0.07064
5839.40310,0.05979
5841.33157,0.08043
5843.26004,0.10248
5845.18851,0.09852
5847.11697,0.10652
5849.04544,0.12443
5850.97391,0.10634
5852.90238,0.06831
5854.83085,0.05150
5856.75932,0.06120
5858.68779,0.08763
5860.61626,0.10887
5862.54472,0.11555
5864.47319,0.12152
5866.40166,0.09984
5868.33013,0.05556
5870.25860,0.04557
5872.18707,0.06756
5874.11554,0.08923
5876.04400,0.11555
5877.97247,0.16422
5879.90094,0.19059
5881.82941,0.15600
5883.75788,0.12209
5885.68635,0.12984
5887.61482,0.13951
5889.54329,0.14087
5891.47175,0.14671
5893.40022,0.12823
5895.32869,0.09623
5897.25716,0.07916
5899.18563,0.05878
5901.11410,0.04547
5903.04257,0.06053
5904.97103,0.09856
5906.89950,0.14372
5908.82797,0.14537
5910.75644,0.10137
5912.68491,0.06527
5914.61338,0.03554
5916.54185,0.00907
5918.47032,0.01318
5920.39878,0.05174
5922.32725,0.10618
5924.25572,0.13278
5926.18419,0.09331
5928.11266,0.04684
5930.04113,0.07344
5931.96960,0.12881
5933.89806,0.14976
5935.82653,0.15560
5937.75500,0.15948
5939.68347,0.14499
5941.61194,0.11351
5943.54041,0.06549
5945.46888,0.02080
5947.39734,0.02472
5949.32581,0.04933
5951.25428,0.05065
5953.18275,0.07449
5955.11122,0.12162
5957.03969,0.14266
5958.96816,0.12886
5960.89663,0.10534
5962.82509,0.10251
5964.75356,0.11354
5966.68203,0.12083
5968.61050,0.11211
5970.53897,0.09920
5972.46744,0.11889
5974.39591,0.13798
5976.32437,0.10836
5978.25284,0.08581
5980.18131,0.10498
5982.10978,0.11121
5984.03825,0.09250
5985.96672,0.08585
5987.89519,0.09681
5989.82366,0.10827
5991.75212,0.08990
5993.68059,0.06725
5995.60906,0.10386
5997.53753,0.15745
5999.46600,0.15336
6001.39447,0.11449
6003.32294,0.08376
6005.25140,0.06269
6007.17987,0.07148
6009.10834,0.10003
6011.03681,0.09171
6012.96528,0.07467
6014.89375,0.09296
6016.82222,0.12364
6018.75069,0.14860
6020.67915,0.16435
6022.60762,0.16173
6024.53609,0.14894
6026.46456,0.13318
6028.39303,0.11716
6030.32150,0.11007
6032.24997,0.10351
6034.17843,0.10661
6036.10690,0.11207
6038.03537,0.08791
6039.96384,0.06978
6041.89231,0.08216
6043.82078,0.10675
6045.74925,0.11478
6047.67772,0.08976
6049.60618,0.05062
6051.53465,0.00834
6053.46312,-0.00310
6055.39159,0.04681
6057.32006,0.08824
6059.24853,0.08159
6061.17700,0.08758
6063.10546,0.11660
6065.03393,0.13292
6066.96240,0.14525
6068.89087,0.13429
6070.81934,0.11056
6072.74781,0.11400
6074.67628,0.10342
6076.60475,0.07158
6078.53321,0.05509
6080.46168,0.05230
6082.39015,0.05372
6084.31862,0.05062
6086.24709,0.03326
6088.17556,0.01078
6090.10403,0.02838
6092.03249,0.09061
6093.96096,0.12844
6095.88943,0.11034
6097.81790,0.06898
6099.74637,0.03598
6101.67484,0.04787
6103.60331,0.08590
6105.53177,0.09360
6107.46024,0.07450
6109.38871,0.05039
6111.31718,0.05985
6113.24565,0.09579
6115.17412,0.10496
6117.10259,0.11866
6119.03106,0.13197
6120.95952,0.08532
6122.88799,0.03573
6124.81646,0.02236
6126.74493,0.01047
6128.67340,0.01965
6130.60187,0.05512
6132.53034,0.05999
6134.45880,0.04575
6136.38727,0.06150
6138.31574,0.11611
6140.24421,0.17167
6142.17268,0.17025
6144.10115,0.12275
6146.02962,0.10708
6147.95809,0.13693
6149.88655,0.15687
6151.81502,0.12160
6153.74349,0.05084
6155.67196,0.02307
6157.60043,0.08392
6159.52890,0.16681
6161.45737,0.17551
6163.38583,0.16699
6165.31430,0.20189
6167.24277,0.19286
6169.17124,0.14119
6171.09971,0.12383
6173.02818,0.11915
6174.95665,0.10298
6176.88512,0.08138
6178.81358,0.03267
6180.74205,-0.01457
6182.67052,-0.01854
6184.59899,-0.00600
6186.52746,-0.00289
6188.45593,0.03907
6190.38440,0.14088
6192.31286,0.21218
6194.24133,0.20769
6196.16980,0.17189
6198.09827,0.15191
6200.02674,0.15217
6201.95521,0.12225
6203.88368,0.05520
6205.81215,0.02773
6207.74061,0.03470
6209.66908,0.02852
6211.59755,0.02803
6213.52602,0.04056
6215.45449,0.04879
6217.38296,0.03673
6219.31143,0.02102
6221.23989,0.05500
6223.16836,0.12969
6225.09683,0.15817
6227.02530,0.12171
6228.95377,0.08228
6230.88224,0.04557
6232.81071,0.00437
6234.73918,-0.00464
6236.66764,0.01210
6238.59611,0.04644
6240.52458,0.11881
6242.45305,0.17389
6244.38152,0.14881
6246.30999,0.11975
6248.23846,0.15823
6250.16692,0.20218
6252.09539,0.17301
6254.02386,0.07851
6255.95233,-0.01011
6257.88080,-0.01048
6259.80927,0.05057
6261.73774,0.09633
6263.66621,0.11106
6265.59467,0.07292
6267.52314,0.02167
6269.45161,0.04257
6271.38008,0.09199
6273.30855,0.10850
6275.23702,0.10118
6277.16549,0.06685
6279.09395,0.03054
6281.02242,0.05918
6282.95089,0.12121
6284.87936,0.13655
6286.80783,0.10635
6288.73630,0.09634
6290.66477,0.13701
6292.59323,0.17040
6294.52170,0.15018
6296.45017,0.11157
6298.37864,0.11840
6300.30711,0.15955
6302.23558,0.14438
6304.16405,0.05762
6306.09252,0.02341
6308.02098,0.10529
6309.94945,0.16768
6311.87792,0.11490
6313.80639,0.06845
6315.73486,0.09590
6317.66333,0.10347
6319.59180,0.08744
6321.52026,0.11736
6323.44873,0.13443
6325.37720,0.08138
6327.30567,0.02446
6329.23414,0.04003
6331.16261,0.11562
6333.09108,0.20391
6335.01955,0.24901
6336.94801,0.20550
6338.87648,0.13390
6340.80495,0.09449
6342.73342,0.06773
6344.66189,0.04544
6346.59036,0.05928
6348.51883,0.12184
6350.44729,0.18834
6352.37576,0.19280
6354.30423,0.14416
6356.23270,0.12989
6358.16117,0.16291
6360.08964,0.16619
6362.01811,0.12348
6363.94658,0.08005
6365.87504,0.10299
6367.80351,0.18696
6369.73198,0.19110
6371.66045,0.09937
6373.58892,0.04594
6375.51739,0.05070
6377.44586,0.04304
6379.37432,0.03313
6381.30279,0.04307
6383.23126,0.07389
6385.15973,0.13714
6387.08820,0.19418
6389.01667,0.19519
6390.94514,0.12518
6392.87361,-0.00723
6394.80207,-0.09438
6396.73054,-0.06193
6398.65901,0.00912
6400.58748,0.06229
6402.51595,0.07524
6404.44442,0.05655
6406.37289,0.05334
6408.30135,0.05118
6410.22982,0.05914
6412.15829,0.11197
6414.08676,0.13906
6416.01523,0.11169
6417.94370,0.08323
6419.87217,0.09651
6421.80064,0.13481
6423.72910,0.14225
6425.65757,0.09541
6427.58604,0.05307
6429.51451,0.04776
6431.44298,0.04085
6433.37145,0.03219
6435.29992,0.03103
6437.22838,0.04266
6439.15685,0.07696
6441.08532,0.09576
6443.01379,0.09960
6444.94226,0.12327
6446.87073,0.14985
6448.79920,0.13893
6450.72766,0.10770
6452.65613,0.12256
6454.58460,0.13544
6456.51307,0.07979
6458.44154,0.05295
6460.37001,0.11954
6462.29848,0.21882
6464.22695,0.29754
6466.15541,0.30768
6468.08388,0.24273
6470.01235,0.15148
6471.94082,0.05735
6473.86929,-0.01525
6475.79776,-0.03181
6477.72623,0.00761
6479.65469,0.05420
6481.58316,0.06474
6483.51163,0.04422
6485.44010,0.02116
6487.36857,0.01765
6489.29704,0.02967
6491.22551,0.03434
6493.15398,0.06196
6495.08244,0.11897
6497.01091,0.14409
6498.93938,0.13765
6500.86785,0.12175
6502.79632,0.08885
6504.72479,0.05911
6506.65326,0.07396
6508.58172,0.12273
6510.51019,0.14244
6512.43866,0.11222
6514.36713,0.05879
6516.29560,0.03502
6518.22407,0.07948
6520.15254,0.10783
6522.08101,0.04110
6524.00947,-0.03682
6525.93794,-0.04709
6527.86641,-0.07306
6529.79488,-0.11944
6531.72335,-0.10471
6533.65182,-0.00736
6535.58029,0.10262
6537.50875,0.08980
6539.43722,-0.01765
6541.36569,-0.05139
6543.29416,0.01357
6545.22263,0.09201
6547.15110,0.12342
6549.07957,0.12387
6551.00804,0.12993
6552.93650,0.11060
6554.86497,0.06593
6556.79344,0.06913
6558.72191,0.07988
6560.65038,0.03156
6562.57885,0.00772
6564.50732,0.05419
6566.43578,0.11237
6568.36425,0.12355
6570.29272,0.08082
6572.22119,0.06565
6574.14966,0.09219
6576.07813,0.11740
6578.00660,0.13912
6579.93507,0.12108
6581.86353,0.06462
6583.79200,0.00299
6585.72047,-0.05257
6587.64894,-0.03737
6589.57741,0.03579
6591.50588,0.06410
6593.43435,0.08762
6595.36281,0.15390
6597.29128,0.16309
6599.21975,0.08929
6601.14822,0.01344
6603.07669,0.00656
6605.00516,0.05301
6606.93363,0.12315
6608.86210,0.15827
6610.79056,0.11219
6612.71903,0.04286
6614.64750,0.01467
6616.57597,0.01884
6618.50444,0.00802
6620.43291,-0.00711
6622.36138,0.02354
6624.28984,0.06309
6626.21831,0.09360
6628.14678,0.14660
6630.07525,0.18529
6632.00372,0.20888
6633.93219,0.23103
6635.86066,0.17066
6637.78912,0.05970
6639.71759,0.06080
6641.64606,0.14965
6643.57453,0.20666
6645.50300,0.22001
6647.43147,0.20074
6649.35994,0.14284
6651.28841,0.09568
6653.21687,0.08030
6655.14534,0.04898
6657.07381,0.03271
6659.00228,0.13050
6660.93075,0.19905
6662.85922,0.15036
6664.78769,0.14870
6666.71615,0.16055
6668.64462,0.04533
6670.57309,-0.11525
6672.50156,-0.20326
6674.43003,-0.19252
6676.35850,-0.11624
6678.28697,-0.02082
6680.21544,0.06303
6682.14390,0.09171
6684.07237,0.07685
6686.00084,0.09716
6687.92931,0.17441
6689.85778,0.23176
6691.78625,0.19021
6693.71472,0.10852
6695.64318,0.07095
6697.57165,0.06744
6699.50012,0.06319
6701.42859,0.04858
6703.35706,-0.00850
6705.28553,-0.06941
6707.21400,-0.05780
6709.14247,-0.00176
6711.07093,-0.00269
6712.99940,-0.06418
6714.92787,-0.07832
6716.85634,-0.00527
6718.78481,0.06581
6720.71328,0.09438
6722.64175,0.10861
6724.57021,0.10561
6726.49868,0.07748
6728.42715,0.03635
6730.35562,0.01252
6732.28409,0.01284
6734.21256,0.00993
6736.14103,0.01006
6738.06950,0.02744
6739.99796,0.06842
6741.92643,0.09991
6743.85490,0.05657
6745.78337,-0.02668
6747.71184,-0.03831
6749.64031,0.05239
6751.56878,0.11459
6753.49724,0.09120
6755.42571,0.06511
6757.35418,0.05164
6759.28265,-0.01578
6761.21112,-0.09296
6763.13959,-0.07008
6765.06806,-0.00538
6766.99653,0.03564
6768.92499,0.08077
6770.85346,0.10078
6772.78193,0.07743
6774.71040,0.06493
6776.63887,0.07952
6778.56734,0.09975
6780.49581,0.10767
6782.42427,0.10886
6784.35274,0.10387
6786.28121,0.06028
6788.20968,0.01168
6790.13815,0.03183
6792.06662,0.08642
6793.99509,0.11462
6795.92355,0.12476
6797.85202,0.10241
6799.78049,0.07187
6801.70896,0.08524
6803.63743,0.05697
6805.56590,-0.04591
6807.49437,-0.09484
6809.42284,-0.06789
6811.35130,0.00324
6813.27977,0.08545
6815.20824,0.13439
6817.13671,0.11672
6819.06518,0.06714
6820.99365,0.04472
6822.92212,0.05318
6824.85058,0.08329
6826.77905,0.11501
6828.70752,0.16660
6830.63599,0.20009
6832.56446,0.11680
6834.49293,0.01468
6836.42140,0.04990
6838.34987,0.15218
6840.27833,0.15068
6842.20680,0.06033
6844.13527,0.02937
6846.06374,0.09304
6847.99221,0.13680
6849.92068,0.11872
6851.84915,0.10266
6853.77761,0.05945
6855.70608,-0.05209
6857.63455,-0.14995
6859.56302,-0.13140
6861.49149,-0.02652
6863.41996,0.03630
6865.34843,0.05825
6867.27690,0.14660
6869.20536,0.25259
6871.13383,0.25061
6873.06230,0.16833
6874.99077,0.12511
6876.91924,0.07750
6878.84771,-0.04432
6880.77618,-0.10440
6882.70464,-0.02729
6884.63311,-0.00217
6886.56158,-0.04520
6888.49005,0.02248
6890.41852,0.17956
6892.34699,0.21858
6894.27546,0.11516
6896.20393,0.00751
6898.13239,-0.06401
6900.06086,-0.10557
6901.98933,-0.07273
6903.91780,0.01566
6905.84627,0.05837
6907.77474,0.07549
6909.70321,0.14121
6911.63167,0.18385
6913.56014,0.09898
6915.48861,-0.02205
6917.41708,0.00831
6919.34555,0.15045
6921.27402,0.14088
6923.20249,-0.01539
6925.13096,-0.07855
6927.05942,0.03180
6928.98789,0.19807
6930.91636,0.29419
6932.84483,0.28220
6934.77330,0.16821
6936.70177,0.04584
6938.63024,0.04745
6940.55870,0.14120
6942.48717,0.15173
6944.41564,0.10945
6946.34411,0.06043
6948.27258,-0.00886
6950.20105,-0.09296
6952.12952,-0.14113
6954.05799,-0.04140
6955.98645,0.14292
6957.91492,0.18169
6959.84339,0.12650
6961.77186,0.18462
6963.70033,0.28603
6965.62880,0.22416
6967.55727,0.06875
6969.48573,0.00096
6971.41420,0.01674
6973.34267,0.08895
6975.27114,0.20527
6977.19961,0.23209
6979.12808,0.09168
6981.05655,-0.11523
6982.98501,-0.21817
6984.91348,-0.13054
6986.84195,0.07976
6988.77042,0.22293
6990.69889,0.19740
6992.62736,0.12153
6994.55583,0.05911
6996.48430,-0.00339
6998.41276,-0.02215
7000.34123,-0.02689
7002.26970,-0.10641
7004.19817,-0.17427
7006.12664,-0.10992
7008.05511,-0.01894
7009.98358,-0.04726
7011.91204,-0.12856
7013.84051,-0.11773
7015.76898,0.00639
7017.69745,0.11512
7019.62592,0.18170
7021.55439,0.23238
7023.48286,0.22708
7025.41133,0.17691
7027.33979,0.17565
7029.26826,0.20411
7031.19673,0.21448
7033.12520,0.21195
7035.05367,0.12691
7036.98214,0.02900
7038.91061,0.05203
7040.83907,0.11628
7042.76754,0.09969
7044.69601,0.05317
7046.62448,0.07029
7048.55295,0.14053
7050.48142,0.17644
7052.40989,0.10281
7054.33836,0.02588
7056.26682,0.09302
7058.19529,0.21070
7060.12376,0.23207
7062.05223,0.22688
7063.98070,0.22417
7065.90917,0.22674
7067.83764,0.25689
7069.76610,0.23570
7071.69457,0.17656
7073.62304,0.15911
7075.55151,0.11358
7077.47998,0.10203
7079.40845,0.22598
7081.33692,0.29321
7083.26539,0.17824
7085.19385,0.08503
7087.12232,0.02399
7089.05079,-0.04827
7090.97926,-0.06683
7092.90773,-0.00478
7094.83620,0.04477
7096.76467,-0.00900
7098.69313,-0.09065
7100.62160,-0.04756
7102.55007,0.04534
7104.47854,0.03488
7106.40701,-0.04824
7108.33548,-0.03658
7110.26395,0.02936
7112.19242,-0.01694
7114.12088,-0.10290
7116.04935,-0.06847
7117.97782,0.05985
7119.90629,0.15084
7121.83476,0.11368
7123.76323,0.03976
7125.69170,0.02335
7127.62016,0.00815
7129.54863,-0.02592
7131.47710,-0.02553
7133.40557,0.02474
7135.33404,0.11746
7137.26251,0.23579
7139.19098,0.29106
7141.11944,0.26675
7143.04791,0.24854
7144.97638,0.18109
7146.90485,0.07164
7148.83332,0.02592
7150.76179,0.00678
7152.69026,-0.04712
7154.61873,-0.12211
7156.54719,-0.16112
7158.47566,-0.13326
7160.40413,-0.04404
7162.33260,0.03695
7164.26107,0.05616
7166.18954,0.07268
7168.11801,0.05563
7170.04647,-0.04208
7171.97494,-0.07317
7173.90341,-0.03544
7175.83188,-0.03929
7177.76035,-0.02965
7179.68882,0.04701
7181.61729,0.16713
7183.54576,0.25032
7185.47422,0.17695
7187.40269,0.02472
7189.33116,-0.13672
7191.25963,-0.29272
7193.18810,-0.27857
7195.11657,-0.10865
7197.04504,0.04233
7198.97350,0.13761
7200.90197,0.19895
7202.83044,0.17071
7204.75891,-0.00993
7206.68738,-0.12409
7208.61585,-0.05048
7210.54432,0.07179
7212.47279,0.15921
7214.40125,0.20561
7216.32972,0.26190
7218.25819,0.31499
7220.18666,0.32633
7222.11513,0.33471
7224.04360,0.31283
7225.97207,0.19580
7227.90053,0.05489
7229.82900,0.03450
7231.75747,0.05137
7233.68594,0.00323
7235.61441,0.01878
7237.54288,0.11715
7239.47135,0.18728
7241.39982,0.13100
7243.32828,-0.03688
7245.25675,-0.09448
7247.18522,-0.00562
7249.11369,0.11277
7251.04216,0.22245
7252.97063,0.25721
7254.89910,0.13565
7256.82756,0.02605
7258.75603,-0.00420
7260.68450,0.03503
7262.61297,0.16415
7264.54144,0.27232
7266.46991,0.26500
7268.39838,0.25278
7270.32685,0.26974
7272.25531,0.18114
7274.18378,-0.00564
7276.11225,-0.03477
7278.04072,0.15583
7279.96919,0.32643
7281.89766,0.21641
7283.82613,0.08265
7285.75459,0.06417
7287.68306,0.06959
7289.61153,0.08420
7291.54000,0.12924
7293.46847,0.13596
7295.39694,0.14912
7297.32541,0.21281
7299.25387,0.26206
7301.18234,0.31523
7303.11081,0.39488
7305.03928,0.48500
7306.96775,0.49425
7308.89622,0.27307
7310.82469,0.03421
7312.75316,0.01435
7314.68162,0.03139
7316.61009,-0.10235
7318.53856,-0.19633
7320.46703,-0.08118
7322.39550,0.04177
7324.32397,0.03354
7326.25244,-0.06169
7328.18090,-0.19487
7330.10937,-0.17760
7332.03784,-0.00551
7333.96631,0.08632
7335.89478,0.14383
7337.82325,0.25555
7339.75172,0.28504
7341.68019,0.14199
7343.60865,0.07460
7345.53712,0.07935
7347.46559,0.06205
7349.39406,0.01704
7351.32253,-0.00855
7353.25100,0.00680
7355.17947,0.05035
7357.10793,0.10863
7359.03640,0.07852
7360.96487,-0.10533
7362.89334,-0.24412
7364.82181,-0.16022
7366.75028,0.03911
7368.67875,0.10571
7370.60722,0.02426
7372.53568,-0.00671
7374.46415,0.05100
7376.39262,0.07985
7378.32109,0.13602
7380.24956,0.27319
7382.17803,0.37347
7384.10650,0.33700
7386.03496,0.29565
7387.96343,0.45416
7389.89190,0.53376
7391.82037,0.27340
7393.74884,-0.03513
7395.67731,-0.06512
7397.60578,0.06400
7399.53425,0.06724
7401.46271,-0.06380
7403.39118,-0.09382
7405.31965,0.03971
7407.24812,0.11579
7409.17659,0.09502
7411.10506,0.04848
7413.03353,0.04113
7414.96199,0.09900
7416.89046,0.06814
7418.81893,-0.21822
7420.74740,-0.37786
7422.67587,-0.17895
7424.60434,0.08842
7426.53281,0.20280
7428.46128,0.11588
7430.38974,0.01627
7432.31821,0.10715
7434.24668,0.14873
7436.17515,0.04277
7438.10362,0.09072
7440.03209,0.27604
7441.96056,0.31310
7443.88902,0.19163
7445.81749,0.11708
7447.74596,0.16891
7449.67443,0.24661
7451.60290,0.27496
7453.53137,0.19679
7455.45984,0.04206
7457.38831,-0.05557
7459.31677,0.01303
7461.24524,0.15162
7463.17371,0.20367
7465.10218,0.25769
7467.03065,0.28624
7468.95912,0.31056
7470.88759,0.43386
7472.81605,0.44541
7474.74452,0.27102
7476.67299,0.13782
7478.60146,0.00773
7480.52993,-0.18226
7482.45840,-0.23305
7484.38687,-0.09348
7486.31533,0.07007
7488.24380,0.05914
7490.17227,-0.03481
7492.10074,-0.10304
7494.02921,-0.24462
7495.95768,-0.34282
7497.88615,-0.19568
