399.19301,0.89531
401.12148,0.11200
403.04995,-0.25029
404.97842,-0.50914
406.90689,-0.18650
408.83536,0.63116
410.76382,1.14851
412.69229,1.25303
414.62076,2.33918
416.54923,4.54359
418.47770,5.10899
420.40617,2.47999
422.33464,0.62525
424.26311,0.08206
426.19157,0.11980
428.12004,0.24621
430.04851,0.19647
431.97698,0.04080
433.90545,-0.02655
435.83392,0.03065
437.76239,0.07839
439.69085,-0.04388
441.61932,-0.33765
443.54779,-0.46567
445.47626,-0.29671
447.40473,-0.08380
449.33320,-0.00187
451.26167,-0.04927
453.19013,-0.11365
455.11860,-0.10071
457.04707,-0.05310
458.97554,-0.06874
460.90401,-0.09378
462.83248,-0.05675
464.76095,0.00422
466.68942,0.06152
468.61788,0.14312
470.54635,0.24981
472.47482,0.56429
474.40329,0.92477
476.33176,0.61212
478.26023,0.22465
480.18870,0.09038
482.11716,0.10531
484.04563,0.14658
485.97410,0.13440
487.90257,0.10451
489.83104,0.06683
491.75951,0.02395
493.68798,0.04640
495.61645,0.09133
497.54491,0.09015
499.47338,0.08484
501.40185,0.10393
503.33032,0.09347
505.25879,0.03836
507.18726,0.00747
509.11573,0.03189
511.04419,0.05525
512.97266,0.04571
514.90113,0.02763
516.82960,0.05225
518.75807,0.11606
520.68654,0.13738
522.61501,0.11554
524.54348,0.11306
526.47194,0.12111
528.40041,0.11471
530.32888,0.12795
532.25735,0.14504
534.18582,0.11898
536.11429,0.08164
538.04276,0.08493
539.97122,0.10938
541.89969,0.14068
543.82816,0.15852
545.75663,0.12682
547.68510,0.08220
549.61357,0.11868
551.54204,0.30066
553.47051,0.44270
555.39897,0.33522
557.32744,0.17059
559.25591,0.14141
561.18438,0.14453
563.11285,0.12374
565.04132,0.10108
566.96979,0.09911
568.89825,0.11998
570.82672,0.12550
572.75519,0.11033
574.68366,0.09231
576.61213,0.07760
578.54060,0.08858
580.46907,0.12382
582.39754,0.13069
584.32600,0.11153
586.25447,0.11578
588.18294,0.13998
590.11141,0.15278
592.03988,0.14598
593.96835,0.13505
595.89682,0.13140
597.82528,0.12964
599.75375,0.13001
601.68222,0.12571
603.61069,0.11535
605.53916,0.12715
607.46763,0.15310
609.39610,0.16155
611.32456,0.16084
613.25303,0.16425
615.18150,0.16424
617.10997,0.15402
619.03844,0.13832
620.96691,0.13543
622.89538,0.15114
624.82385,0.15535
626.75231,0.12842
628.68078,0.09301
630.60925,0.06909
632.53772,0.06210
634.46619,0.09199
636.39466,0.14050
638.32313,0.15279
640.25159,0.13094
642.18006,0.11868
644.10853,0.11652
646.03700,0.11254
647.96547,0.11688
649.89394,0.13223
651.82241,0.15066
653.75088,0.15987
655.67934,0.15226
657.60781,0.14062
659.53628,0.13315
661.46475,0.13272
663.39322,0.14196
665.32169,0.14374
667.25016,0.11325
669.17862,0.06646
671.10709,0.06879
673.03556,0.09653
674.96403,0.12155
676.89250,0.13957
678.82097,0.16177
680.74944,0.17699
682.67791,0.16994
684.60637,0.15938
686.53484,0.15919
688.46331,0.15709
690.39178,0.14569
692.32025,0.13508
694.24872,0.13674
696.17719,0.14794
698.10565,0.15537
700.03412,0.15124
701.96259,0.14275
703.89106,0.14187
705.81953,0.14397
707.74800,0.14817
709.67647,0.19105
711.60494,0.24033
713.53340,0.20815
715.46187,0.14410
717.39034,0.12417
719.31881,0.12643
721.24728,0.13593
723.17575,0.14513
725.10422,0.13988
727.03268,0.12483
728.96115,0.11713
730.88962,0.12603
732.81809,0.14226
734.74656,0.14890
736.67503,0.14215
738.60350,0.14051
740.53197,0.15275
742.46043,0.15915
744.38890,0.14721
746.31737,0.14057
748.24584,0.14650
750.17431,0.14146
752.10278,0.12823
754.03125,0.12589
755.95971,0.13447
757.88818,0.14063
759.81665,0.13641
761.74512,0.12592
763.67359,0.12208
765.60206,0.12952
767.53053,0.14087
769.45900,0.14680
771.38746,0.14367
773.31593,0.14062
775.24440,0.14625
777.17287,0.15489
779.10134,0.15155
781.02981,0.14054
782.95828,0.14222
784.88674,0.15308
786.81521,0.15777
788.74368,0.18861
790.67215,0.23948
792.60062,0.22791
794.52909,0.17680
796.45756,0.16084
798.38602,0.16044
800.31449,0.16026
802.24296,0.16599
804.17143,0.16425
806.09990,0.15172
808.02837,0.14732
809.95684,0.15073
811.88531,0.14595
813.81377,0.14032
815.74224,0.14066
817.67071,0.13966
819.59918,0.13639
821.52765,0.14084
823.45612,0.15389
825.38459,0.16480
827.31305,0.15991
829.24152,0.14220
831.16999,0.13176
833.09846,0.13315
835.02693,0.13760
836.95540,0.13964
838.88387,0.13904
840.81234,0.13705
842.74080,0.13861
844.66927,0.14474
846.59774,0.14757
848.52621,0.14818
850.45468,0.15089
852.38315,0.15072
854.31162,0.14966
856.24008,0.15862
858.16855,0.16914
860.09702,0.16619
862.02549,0.15947
863.95396,0.15902
865.88243,0.15799
867.81090,0.14812
869.73937,0.13302
871.66783,0.12830
873.59630,0.13560
875.52477,0.14593
877.45324,0.15891
879.38171,0.16819
881.31018,0.16663
883.23865,0.16105
885.16711,0.15879
887.09558,0.15924
889.02405,0.15988
890.95252,0.15912
892.88099,0.15945
894.80946,0.16159
896.73793,0.15996
898.66640,0.15816
900.59486,0.16081
902.52333,0.16392
904.45180,0.16701
906.38027,0.16783
908.30874,0.16308
910.23721,0.15632
912.16568,0.15363
914.09414,0.15769
916.02261,0.16149
917.95108,0.16024
919.87955,0.15882
921.80802,0.15826
923.73649,0.15698
925.66496,0.15574
927.59343,0.15501
929.52189,0.15329
931.45036,0.15137
933.37883,0.15562
935.30730,0.16229
937.23577,0.15995
939.16424,0.14894
941.09271,0.14078
943.02117,0.14278
944.94964,0.14996
946.87811,0.15682
948.80658,0.16042
950.73505,0.16013
952.66352,0.15969
954.59199,0.16043
956.52045,0.16035
958.44892,0.15588
960.37739,0.15030
962.30586,0.15194
964.23433,0.15827
966.16280,0.16276
968.09127,0.16559
970.01974,0.16995
971.94820,0.17336
973.87667,0.16928
975.80514,0.16377
977.73361,0.16298
979.66208,0.15751
981.59055,0.14966
983.51902,0.15289
985.44748,0.16095
987.37595,0.16319
989.30442,0.16217
991.23289,0.16010
993.16136,0.15528
995.08983,0.15215
997.01830,0.15921
998.94677,0.17036
1000.87523,0.17245
1002.80370,0.17024
1004.73217,0.17697
1006.66064,0.18737
1008.58911,0.18721
1010.51758,0.18086
1012.44605,0.17623
1014.37451,0.16972
1016.30298,0.16588
1018.23145,0.17022
1020.15992,0.17269
1022.08839,0.16871
1024.01686,0.16525
1025.94533,0.15836
1027.87380,0.14646
1029.80226,0.14367
1031.73073,0.15344
1033.65920,0.16324
1035.58767,0.16533
1037.51614,0.16759
1039.44461,0.17556
1041.37308,0.17425
1043.30154,0.15902
1045.23001,0.14823
1047.15848,0.15094
1049.08695,0.15941
1051.01542,0.16675
1052.94389,0.17152
1054.87236,0.17217
1056.80083,0.16995
1058.72929,0.16515
1060.65776,0.16120
1062.58623,0.16469
1064.51470,0.16910
1066.44317,0.16739
1068.37164,0.16300
1070.30011,0.15909
1072.22857,0.15691
1074.15704,0.15981
1076.08551,0.16924
1078.01398,0.17669
1079.94245,0.17452
1081.87092,0.16971
1083.79939,0.16870
1085.72786,0.16537
1087.65632,0.16051
1089.58479,0.16407
1091.51326,0.17030
1093.44173,0.16547
1095.37020,0.15441
1097.29867,0.15445
1099.22714,0.16874
1101.15560,0.18247
1103.08407,0.19074
1105.01254,0.20347
1106.94101,0.21281
1108.86948,0.20363
1110.79795,0.18536
1112.72642,0.17651
1114.65489,0.17797
1116.58335,0.17961
1118.51182,0.18034
1120.44029,0.18189
1122.36876,0.18132
1124.29723,0.18045
1126.22570,0.18204
1128.15417,0.18058
1130.08263,0.17463
1132.01110,0.17055
1133.93957,0.16812
1135.86804,0.16670
1137.79651,0.16762
1139.72498,0.16764
1141.65345,0.16669
1143.58191,0.16783
1145.51038,0.17343
1147.43885,0.18267
1149.36732,0.18598
1151.29579,0.17894
1153.22426,0.17246
1155.15273,0.17497
1157.08120,0.18323
1159.00966,0.18861
1160.93813,0.18804
1162.86660,0.18602
1164.79507,0.18449
1166.72354,0.18160
1168.65201,0.17754
1170.58048,0.17552
1172.50894,0.17628
1174.43741,0.17865
1176.36588,0.17911
1178.29435,0.17416
1180.22282,0.16980
1182.15129,0.17236
1184.07976,0.17715
1186.00823,0.17742
1187.93669,0.17569
1189.86516,0.17468
1191.79363,0.17299
1193.72210,0.17396
1195.65057,0.17769
1197.57904,0.18013
1199.50751,0.18049
1201.43597,0.17991
1203.36444,0.18012
1205.29291,0.18093
1207.22138,0.18082
1209.14985,0.18038
1211.07832,0.18045
1213.00679,0.18028
1214.93526,0.17877
1216.86372,0.17445
1218.79219,0.17141
1220.72066,0.17424
1222.64913,0.17928
1224.57760,0.18296
1226.50607,0.18475
1228.43454,0.18473
1230.36300,0.18363
1232.29147,0.18239
1234.21994,0.18171
1236.14841,0.18134
1238.07688,0.18221
1240.00535,0.18475
1241.93382,0.18605
1243.86229,0.18375
1245.79075,0.18111
1247.71922,0.18139
1249.64769,0.18321
1251.57616,0.18549
1253.50463,0.18700
1255.43310,0.18513
1257.36157,0.18175
1259.29003,0.17995
1261.21850,0.18101
1263.14697,0.18598
1265.07544,0.18954
1267.00391,0.18701
1268.93238,0.18306
1270.86085,0.18272
1272.78932,0.18362
1274.71778,0.18338
1276.64625,0.18569
1278.57472,0.18930
1280.50319,0.18835
1282.43166,0.18483
1284.36013,0.18406
1286.28860,0.18447
1288.21706,0.18369
1290.14553,0.18396
1292.07400,0.18779
1294.00247,0.19267
1295.93094,0.19151
1297.85941,0.18439
1299.78788,0.17797
1301.71634,0.17362
1303.64481,0.17084
1305.57328,0.17375
1307.50175,0.17887
1309.43022,0.17846
1311.35869,0.17842
1313.28716,0.18286
1315.21563,0.18581
1317.14409,0.18457
1319.07256,0.18270
1321.00103,0.18614
1322.92950,0.19303
1324.85797,0.19304
1326.78644,0.18531
1328.71491,0.17936
1330.64337,0.17763
1332.57184,0.17646
1334.50031,0.17460
1336.42878,0.17871
1338.35725,0.19149
1340.28572,0.19461
1342.21419,0.16135
1344.14266,0.11420
1346.07112,0.11731
1347.99959,0.16256
1349.92806,0.18550
1351.85653,0.18515
1353.78500,0.18199
1355.71347,0.18004
1357.64194,0.18223
1359.57040,0.18577
1361.49887,0.18950
1363.42734,0.18985
1365.35581,0.18817
1367.28428,0.19027
1369.21275,0.19278
1371.14122,0.19361
1373.06969,0.19730
1374.99815,0.20005
1376.92662,0.19556
1378.85509,0.18958
1380.78356,0.18754
1382.71203,0.19032
1384.64050,0.19688
1386.56897,0.20370
1388.49743,0.20377
1390.42590,0.19954
1392.35437,0.19801
1394.28284,0.19855
1396.21131,0.19978
1398.13978,0.20144
1400.06825,0.19937
1401.99672,0.19544
1403.92518,0.19512
1405.85365,0.19518
1407.78212,0.19305
1409.71059,0.19325
1411.63906,0.19480
1413.56753,0.19274
1415.49600,0.19012
1417.42446,0.19370
1419.35293,0.19997
1421.28140,0.20133
1423.20987,0.20139
1425.13834,0.20098
1427.06681,0.20278
1428.99528,0.20792
1430.92375,0.20675
1432.85221,0.20025
1434.78068,0.20048
1436.70915,0.20386
1438.63762,0.19917
1440.56609,0.19391
1442.49456,0.19249
1444.42303,0.19352
1446.35149,0.19782
1448.27996,0.20193
1450.20843,0.20160
1452.13690,0.20295
1454.06537,0.21133
1455.99384,0.22516
1457.92231,0.22722
1459.85077,0.21379
1461.77924,0.20592
1463.70771,0.20361
1465.63618,0.20072
1467.56465,0.19864
1469.49312,0.20325
1471.42159,0.21605
1473.35006,0.22844
1475.27852,0.22708
1477.20699,0.21845
1479.13546,0.21070
1481.06393,0.20679
1482.99240,0.20617
1484.92087,0.20878
1486.84934,0.21662
1488.77780,0.22503
1490.70627,0.22054
1492.63474,0.21380
1494.56321,0.21521
1496.49168,0.21373
1498.42015,0.21051
1500.34862,0.23618
1502.27709,0.27814
1504.20555,0.29873
1506.13402,0.27735
1508.06249,0.23864
1509.99096,0.22045
1511.91943,0.21124
1513.84790,0.21331
1515.77637,0.22222
1517.70483,0.22764
1519.63330,0.23044
1521.56177,0.23300
1523.49024,0.22703
1525.41871,0.22170
1527.34718,0.21929
1529.27565,0.21642
1531.20412,0.21977
1533.13258,0.22874
1535.06105,0.22767
1536.98952,0.22502
1538.91799,0.24174
1540.84646,0.26720
1542.77493,0.25856
1544.70340,0.23622
1546.63186,0.21884
1548.56033,0.21257
1550.48880,0.21261
1552.41727,0.21329
1554.34574,0.21543
1556.27421,0.22586
1558.20268,0.25143
1560.13115,0.24424
1562.05961,0.21729
1563.98808,0.20619
1565.91655,0.20344
1567.84502,0.20475
1569.77349,0.20827
1571.70196,0.20800
1573.63043,0.20575
1575.55889,0.20452
1577.48736,0.20300
1579.41583,0.19946
1581.34430,0.19484
1583.27277,0.19018
1585.20124,0.18639
1587.12971,0.18460
1589.05818,0.18549
1590.98664,0.18870
1592.91511,0.19266
1594.84358,0.19481
1596.77205,0.19379
1598.70052,0.19259
1600.62899,0.19412
1602.55746,0.19701
1604.48592,0.19935
1606.41439,0.20199
1608.34286,0.20474
1610.27133,0.20420
1612.19980,0.20194
1614.12827,0.20550
1616.05674,0.21523
1617.98521,0.21530
1619.91367,0.21079
1621.84214,0.21523
1623.77061,0.22125
1625.69908,0.21944
1627.62755,0.21427
1629.55602,0.21182
1631.48449,0.21475
1633.41295,0.22058
1635.34142,0.22549
1637.26989,0.22228
1639.19836,0.21559
1641.12683,0.21199
1643.05530,0.21367
1644.98377,0.22336
1646.91223,0.23660
1648.84070,0.23778
1650.76917,0.23990
1652.69764,0.25122
1654.62611,0.23945
1656.55458,0.22096
1658.48305,0.21708
1660.41152,0.22361
1662.33998,0.22926
1664.26845,0.22393
1666.19692,0.21991
1668.12539,0.22641
1670.05386,0.23461
1671.98233,0.23634
1673.91080,0.23755
1675.83926,0.23312
1677.76773,0.22520
1679.69620,0.22543
1681.62467,0.23820
1683.55314,0.25480
1685.48161,0.24356
1687.41008,0.22442
1689.33855,0.21685
1691.26701,0.21496
1693.19548,0.21739
1695.12395,0.22732
1697.05242,0.24117
1698.98089,0.24819
1700.90936,0.24216
1702.83783,0.23344
1704.76629,0.23142
1706.69476,0.22831
1708.62323,0.22043
1710.55170,0.21455
1712.48017,0.21551
1714.40864,0.22171
1716.33711,0.22704
1718.26558,0.22515
1720.19404,0.21722
1722.12251,0.21007
1724.05098,0.20633
1725.97945,0.20715
1727.90792,0.21214
1729.83639,0.21894
1731.76486,0.22730
1733.69332,0.22906
1735.62179,0.21439
1737.55026,0.20578
1739.47873,0.20889
1741.40720,0.21422
1743.33567,0.21707
1745.26414,0.22030
1747.19261,0.22338
1749.12107,0.22298
1751.04954,0.21723
1752.97801,0.21222
1754.90648,0.21219
1756.83495,0.21258
1758.76342,0.21060
1760.69189,0.21020
1762.62035,0.21062
1764.54882,0.20999
1766.47729,0.21084
1768.40576,0.21351
1770.33423,0.21970
1772.26270,0.22785
1774.19117,0.22644
1776.11964,0.21842
1778.04810,0.21279
1779.97657,0.21196
1781.90504,0.21269
1783.83351,0.21184
1785.76198,0.20899
1787.69045,0.20670
1789.61892,0.21053
1791.54738,0.21777
1793.47585,0.21687
1795.40432,0.21144
1797.33279,0.21005
1799.26126,0.21199
1801.18973,0.21148
1803.11820,0.20684
1805.04666,0.20430
1806.97513,0.20531
1808.90360,0.20652
1810.83207,0.20590
1812.76054,0.20314
1814.68901,0.20216
1816.61748,0.20545
1818.54595,0.20854
1820.47441,0.20842
1822.40288,0.20856
1824.33135,0.21012
1826.25982,0.21130
1828.18829,0.21421
1830.11676,0.21579
1832.04523,0.21084
1833.97369,0.20683
1835.90216,0.20709
1837.83063,0.20689
1839.75910,0.20749
1841.68757,0.21455
1843.61604,0.22264
1845.54451,0.21942
1847.47298,0.21197
1849.40144,0.20953
1851.32991,0.20917
1853.25838,0.20849
1855.18685,0.21020
1857.11532,0.21344
1859.04379,0.21310
1860.97226,0.20980
1862.90072,0.20759
1864.82919,0.20864
1866.75766,0.21408
1868.68613,0.21899
1870.61460,0.21702
1872.54307,0.21280
1874.47154,0.20934
1876.40001,0.20620
1878.32847,0.20432
1880.25694,0.20460
1882.18541,0.20650
1884.11388,0.20886
1886.04235,0.21139
1887.97082,0.21297
1889.89929,0.21025
1891.82775,0.20686
1893.75622,0.20915
1895.68469,0.21245
1897.61316,0.21160
1899.54163,0.20916
1901.47010,0.20729
1903.39857,0.20694
1905.32704,0.20770
1907.25550,0.20838
1909.18397,0.21006
1911.11244,0.21252
1913.04091,0.21254
1914.96938,0.21029
1916.89785,0.21010
1918.82632,0.21239
1920.75478,0.21386
1922.68325,0.21314
1924.61172,0.20885
1926.54019,0.20472
1928.46866,0.20464
1930.39713,0.20517
1932.32560,0.20454
1934.25407,0.20432
1936.18253,0.20481
1938.11100,0.20562
1940.03947,0.20585
1941.96794,0.20626
1943.89641,0.20752
1945.82488,0.20910
1947.75335,0.21038
1949.68181,0.20947
1951.61028,0.20729
1953.53875,0.20695
1955.46722,0.20780
1957.39569,0.20764
1959.32416,0.20764
1961.25263,0.20813
1963.18110,0.20740
1965.10956,0.20661
1967.03803,0.20579
1968.96650,0.20313
1970.89497,0.20174
1972.82344,0.20355
1974.75191,0.20479
1976.68038,0.20524
1978.60884,0.20644
1980.53731,0.20511
1982.46578,0.20150
1984.39425,0.19954
1986.32272,0.20054
1988.25119,0.20419
1990.17966,0.20774
1992.10812,0.20930
1994.03659,0.21006
1995.96506,0.20941
1997.89353,0.20668
1999.82200,0.20400
2001.75047,0.20347
2003.67894,0.20442
2005.60741,0.20534
2007.53587,0.20716
2009.46434,0.20987
2011.39281,0.21063
2013.32128,0.20917
2015.24975,0.20883
2017.17822,0.21005
2019.10669,0.20969
2021.03515,0.20857
2022.96362,0.20915
2024.89209,0.20873
2026.82056,0.20576
2028.74903,0.20489
2030.67750,0.20653
2032.60597,0.20636
2034.53444,0.20519
2036.46290,0.20637
2038.39137,0.20949
2040.31984,0.21025
2042.24831,0.20716
2044.17678,0.20559
2046.10525,0.20764
2048.03372,0.20974
2049.96218,0.21072
2051.89065,0.21000
2053.81912,0.20672
2055.74759,0.20326
2057.67606,0.20250
2059.60453,0.20439
2061.53300,0.20599
2063.46147,0.20608
2065.38993,0.20644
2067.31840,0.20859
2069.24687,0.21152
2071.17534,0.21180
2073.10381,0.20906
2075.03228,0.20633
2076.96075,0.20561
2078.88921,0.20619
2080.81768,0.20622
2082.74615,0.20690
2084.67462,0.20766
2086.60309,0.20576
2088.53156,0.20435
2090.46003,0.20601
2092.38850,0.20795
2094.31696,0.20938
2096.24543,0.21150
2098.17390,0.21292
2100.10237,0.21243
2102.03084,0.21178
2103.95931,0.21048
2105.88778,0.20690
2107.81624,0.20413
2109.74471,0.20406
2111.67318,0.20475
2113.60165,0.20645
2115.53012,0.20957
2117.45859,0.21290
2119.38706,0.21475
2121.31553,0.21275
2123.24399,0.20884
2125.17246,0.20851
2127.10093,0.21106
2129.02940,0.21068
2130.95787,0.20876
2132.88634,0.21012
2134.81481,0.21056
2136.74327,0.20685
2138.67174,0.20346
2140.60021,0.20383
2142.52868,0.20766
2144.45715,0.21119
2146.38562,0.21010
2148.31409,0.20605
2150.24255,0.20483
2152.17102,0.20686
2154.09949,0.20706
2156.02796,0.20473
2157.95643,0.20278
2159.88490,0.20225
2161.81337,0.20426
2163.74184,0.20807
2165.67030,0.21052
2167.59877,0.21136
2169.52724,0.21080
2171.45571,0.20827
2173.38418,0.20630
2175.31265,0.20568
2177.24112,0.20447
2179.16958,0.20423
2181.09805,0.20620
2183.02652,0.20795
2184.95499,0.20802
2186.88346,0.20763
2188.81193,0.20862
2190.74040,0.21004
2192.66887,0.20981
2194.59733,0.20759
2196.52580,0.20465
2198.45427,0.20355
2200.38274,0.20585
2202.31121,0.21023
2204.23968,0.21302
2206.16815,0.21173
2208.09661,0.20871
2210.02508,0.20819
2211.95355,0.20922
2213.88202,0.20911
2215.81049,0.20797
2217.73896,0.20602
2219.66743,0.20534
2221.59590,0.20635
2223.52436,0.20643
2225.45283,0.20611
2227.38130,0.20601
2229.30977,0.20581
2231.23824,0.20768
2233.16671,0.21055
2235.09518,0.21001
2237.02364,0.20684
2238.95211,0.20527
2240.88058,0.20688
2242.80905,0.20904
2244.73752,0.20740
2246.66599,0.20422
2248.59446,0.20455
2250.52293,0.20689
2252.45139,0.20865
2254.37986,0.20881
2256.30833,0.20722
2258.23680,0.20620
2260.16527,0.20605
2262.09374,0.20478
2264.02221,0.20254
2265.95067,0.20235
2267.87914,0.20577
2269.80761,0.21023
2271.73608,0.21226
2273.66455,0.21103
2275.59302,0.20913
2277.52149,0.20792
2279.44996,0.20661
2281.37842,0.20576
2283.30689,0.20624
2285.23536,0.20692
2287.16383,0.20483
2289.09230,0.20299
2291.02077,0.21013
2292.94924,0.22308
2294.87770,0.22597
2296.80617,0.21776
2298.73464,0.21395
2300.66311,0.21491
2302.59158,0.21244
2304.52005,0.20982
2306.44852,0.20871
2308.37699,0.20750
2310.30545,0.20700
2312.23392,0.20494
2314.16239,0.20122
2316.09086,0.20128
2318.01933,0.20634
2319.94780,0.21062
2321.87627,0.21226
2323.80473,0.21534
2325.73320,0.21839
2327.66167,0.21880
2329.59014,0.22019
2331.51861,0.22484
2333.44708,0.22433
2335.37555,0.21201
2337.30401,0.20244
2339.23248,0.20871
2341.16095,0.21396
2343.08942,0.20640
2345.01789,0.20279
2346.94636,0.20524
2348.87483,0.20422
2350.80330,0.20386
2352.73176,0.21108
2354.66023,0.22257
2356.58870,0.22564
2358.51717,0.21363
2360.44564,0.19618
2362.37411,0.19396
2364.30258,0.20396
2366.23104,0.20834
2368.15951,0.20816
2370.08798,0.20618
2372.01645,0.20456
2373.94492,0.20551
2375.87339,0.20674
2377.80186,0.20955
2379.73033,0.21334
2381.65879,0.21371
2383.58726,0.21070
2385.51573,0.20831
2387.44420,0.20802
2389.37267,0.20726
2391.30114,0.20572
2393.22961,0.20639
2395.15807,0.20965
2397.08654,0.21328
2399.01501,0.21332
2400.94348,0.20937
2402.87195,0.20828
2404.80042,0.21065
2406.72889,0.20945
2408.65736,0.20488
2410.58582,0.20321
2412.51429,0.20601
2414.44276,0.21007
2416.37123,0.21240
2418.29970,0.21163
2420.22817,0.20942
2422.15664,0.20820
2424.08510,0.20840
2426.01357,0.20911
2427.94204,0.20850
2429.87051,0.20727
2431.79898,0.20743
2433.72745,0.20762
2435.65592,0.20647
2437.58439,0.20546
2439.51285,0.20642
2441.44132,0.20877
2443.36979,0.21026
2445.29826,0.21093
2447.22673,0.21261
2449.15520,0.21663
2451.08367,0.22094
2453.01213,0.21931
2454.94060,0.21155
2456.86907,0.20633
2458.79754,0.20796
2460.72601,0.21124
2462.65448,0.21233
2464.58295,0.21218
2466.51142,0.21105
2468.43988,0.20879
2470.36835,0.20604
2472.29682,0.20540
2474.22529,0.20772
2476.15376,0.21031
2478.08223,0.21132
2480.01070,0.21041
2481.93916,0.20897
2483.86763,0.20867
2485.79610,0.20954
2487.72457,0.21102
2489.65304,0.21315
2491.58151,0.21436
2493.50998,0.21219
2495.43844,0.20876
2497.36691,0.20862
2499.29538,0.21107
2501.22385,0.21103
2503.15232,0.20995
2505.08079,0.21072
2507.00926,0.20951
2508.93773,0.20798
2510.86619,0.20997
2512.79466,0.21241
2514.72313,0.21353
2516.65160,0.21337
2518.58007,0.21225
2520.50854,0.21127
2522.43701,0.21019
2524.36547,0.20933
2526.29394,0.20857
2528.22241,0.20795
2530.15088,0.20893
2532.07935,0.21025
2534.00782,0.20880
2535.93629,0.20561
2537.86476,0.20516
2539.79322,0.20706
2541.72169,0.20860
2543.65016,0.21192
2545.57863,0.21621
2547.50710,0.21563
2549.43557,0.21079
2551.36404,0.20879
2553.29250,0.20942
2555.22097,0.20780
2557.14944,0.20718
2559.07791,0.21115
2561.00638,0.21576
2562.93485,0.21688
2564.86332,0.21434
2566.79179,0.20970
2568.72025,0.20600
2570.64872,0.20679
2572.57719,0.21057
2574.50566,0.21310
2576.43413,0.21425
2578.36260,0.21592
2580.29107,0.21720
2582.21953,0.21544
2584.14800,0.21267
2586.07647,0.21343
2588.00494,0.21566
2589.93341,0.21547
2591.86188,0.21496
2593.79035,0.21669
2595.71882,0.21830
2597.64728,0.21668
2599.57575,0.21307
2601.50422,0.21161
2603.43269,0.21242
2605.36116,0.21303
2607.28963,0.21384
2609.21810,0.21514
2611.14656,0.21650
2613.07503,0.21763
2615.00350,0.21671
2616.93197,0.21410
2618.86044,0.21230
2620.78891,0.21344
2622.71738,0.21727
2624.64585,0.21957
2626.57431,0.21745
2628.50278,0.21306
2630.43125,0.21110
2632.35972,0.21236
2634.28819,0.21380
2636.21666,0.21481
2638.14513,0.21504
2640.07359,0.21351
2642.00206,0.21264
2643.93053,0.21414
2645.85900,0.21623
2647.78747,0.21786
2649.71594,0.21822
2651.64441,0.21701
2653.57288,0.21561
2655.50134,0.21429
2657.42981,0.21430
2659.35828,0.21535
2661.28675,0.21480
2663.21522,0.21466
2665.14369,0.21671
2667.07216,0.21813
2669.00062,0.21803
2670.92909,0.21853
2672.85756,0.21934
2674.78603,0.21914
2676.71450,0.21824
2678.64297,0.21681
2680.57144,0.21778
2682.49990,0.22263
2684.42837,0.22547
2686.35684,0.22303
2688.28531,0.21968
2690.21378,0.21910
2692.14225,0.22025
2694.07072,0.22116
2695.99919,0.22104
2697.92765,0.22046
2699.85612,0.22018
2701.78459,0.22013
2703.71306,0.22052
2705.64153,0.22011
2707.57000,0.21951
2709.49847,0.22147
2711.42693,0.22389
2713.35540,0.22468
2715.28387,0.22441
2717.21234,0.22270
2719.14081,0.22051
2721.06928,0.21968
2722.99775,0.21976
2724.92622,0.21849
2726.85468,0.21656
2728.78315,0.21729
2730.71162,0.21997
2732.64009,0.22192
2734.56856,0.22258
2736.49703,0.22012
2738.42550,0.21518
2740.35396,0.21463
2742.28243,0.22064
2744.21090,0.22544
2746.13937,0.22439
2748.06784,0.22194
2749.99631,0.22146
2751.92478,0.22065
2753.85325,0.21889
2755.78171,0.21975
2757.71018,0.22351
2759.63865,0.22603
2761.56712,0.22515
2763.49559,0.22195
2765.42406,0.21820
2767.35253,0.21563
2769.28099,0.21689
2771.20946,0.22161
2773.13793,0.22414
2775.06640,0.22191
2776.99487,0.21964
2778.92334,0.22119
2780.85181,0.22457
2782.78028,0.22686
2784.70874,0.22849
2786.63721,0.23000
2788.56568,0.22886
2790.49415,0.22467
2792.42262,0.22242
2794.35109,0.22528
2796.27956,0.23033
2798.20802,0.23311
2800.13649,0.23290
2802.06496,0.23117
2803.99343,0.22798
2805.92190,0.22533
2807.85037,0.22568
2809.77884,0.22704
2811.70731,0.22796
2813.63577,0.22872
2815.56424,0.22928
2817.49271,0.23140
2819.42118,0.23498
2821.34965,0.23572
2823.27812,0.23248
2825.20659,0.22853
2827.13505,0.22558
2829.06352,0.22457
2830.99199,0.22634
2832.92046,0.22883
2834.84893,0.23008
2836.77740,0.23197
2838.70587,0.23517
2840.63433,0.23546
2842.56280,0.23136
2844.49127,0.22685
2846.41974,0.22528
2848.34821,0.22657
2850.27668,0.22753
2852.20515,0.22697
2854.13362,0.22702
2856.06208,0.22739
2857.99055,0.22756
2859.91902,0.22739
2861.84749,0.22528
2863.77596,0.22327
2865.70443,0.22402
2867.63290,0.22621
2869.56136,0.22890
2871.48983,0.23205
2873.41830,0.23241
2875.34677,0.22772
2877.27524,0.22410
2879.20371,0.22634
2881.13218,0.22813
2883.06065,0.22572
2884.98911,0.22459
2886.91758,0.22566
2888.84605,0.22489
2890.77452,0.22332
2892.70299,0.22411
2894.63146,0.22618
2896.55993,0.22790
2898.48839,0.23040
2900.41686,0.23220
2902.34533,0.23167
2904.27380,0.23084
2906.20227,0.23022
2908.13074,0.22993
2910.05921,0.22972
2911.98768,0.22825
2913.91614,0.22666
2915.84461,0.22431
2917.77308,0.22043
2919.70155,0.21881
2921.63002,0.22262
2923.55849,0.23351
2925.48696,0.24577
2927.41542,0.24773
2929.34389,0.23841
2931.27236,0.22668
2933.20083,0.22062
2935.12930,0.21905
2937.05777,0.21828
2938.98624,0.22247
2940.91471,0.23132
2942.84317,0.23714
2944.77164,0.23419
2946.70011,0.22556
2948.62858,0.22254
2950.55705,0.22752
2952.48552,0.23175
2954.41399,0.23048
2956.34245,0.22596
2958.27092,0.22422
2960.19939,0.22866
2962.12786,0.23339
2964.05633,0.23250
2965.98480,0.23031
2967.91327,0.23043
2969.84174,0.22982
2971.77020,0.22764
2973.69867,0.22698
2975.62714,0.22873
2977.55561,0.22897
2979.48408,0.22755
2981.41255,0.22922
2983.34102,0.23382
2985.26948,0.23749
2987.19795,0.23809
2989.12642,0.23784
2991.05489,0.23919
2992.98336,0.23874
2994.91183,0.23634
2996.84030,0.23811
2998.76877,0.24233
3000.69723,0.24101
3002.62570,0.23724
3004.55417,0.23835
3006.48264,0.23993
3008.41111,0.23691
3010.33958,0.23169
3012.26805,0.22270
3014.19651,0.20716
3016.12498,0.19581
3018.05345,0.20256
3019.98192,0.21968
3021.91039,0.22973
3023.83886,0.23366
3025.76733,0.23797
3027.69579,0.23950
3029.62426,0.23951
3031.55273,0.24198
3033.48120,0.24190
3035.40967,0.23619
3037.33814,0.23115
3039.26661,0.23145
3041.19508,0.23440
3043.12354,0.23557
3045.05201,0.23299
3046.98048,0.22923
3048.90895,0.23102
3050.83742,0.23738
3052.76589,0.23926
3054.69436,0.23337
3056.62282,0.22663
3058.55129,0.22976
3060.47976,0.23829
3062.40823,0.23843
3064.33670,0.22956
3066.26517,0.22027
3068.19364,0.21903
3070.12211,0.22664
3072.05057,0.23571
3073.97904,0.23830
3075.90751,0.23403
3077.83598,0.23156
3079.76445,0.22828
3081.69292,0.21427
3083.62139,0.19800
3085.54985,0.19422
3087.47832,0.20563
3089.40679,0.22262
3091.33526,0.23016
3093.26373,0.22875
3095.19220,0.23052
3097.12067,0.23384
3099.04914,0.23389
3100.97760,0.23355
3102.90607,0.22994
3104.83454,0.22379
3106.76301,0.22359
3108.69148,0.22810
3110.61995,0.22744
3112.54842,0.22215
3114.47688,0.22497
3116.40535,0.23427
3118.33382,0.23602
3120.26229,0.23026
3122.19076,0.22652
3124.11923,0.22929
3126.04770,0.23303
3127.97617,0.23278
3129.90463,0.23256
3131.83310,0.23512
3133.76157,0.23687
3135.69004,0.23491
3137.61851,0.23049
3139.54698,0.22633
3141.47545,0.22809
3143.40391,0.23579
3145.33238,0.24029
3147.26085,0.23857
3149.18932,0.23572
3151.11779,0.23644
3153.04626,0.24028
3154.97473,0.24281
3156.90320,0.24312
3158.83166,0.24262
3160.76013,0.23890
3162.68860,0.23246
3164.61707,0.22889
3166.54554,0.23014
3168.47401,0.23500
3170.40248,0.24140
3172.33094,0.24673
3174.25941,0.24879
3176.18788,0.24535
3178.11635,0.23977
3180.04482,0.23921
3181.97329,0.24284
3183.90176,0.24421
3185.83022,0.24068
3187.75869,0.23629
3189.68716,0.23652
3191.61563,0.24006
3193.54410,0.24143
3195.47257,0.24008
3197.40104,0.23862
3199.32951,0.23672
3201.25797,0.23481
3203.18644,0.23636
3205.11491,0.24044
3207.04338,0.23951
3208.97185,0.23173
3210.90032,0.22612
3212.82879,0.22947
3214.75725,0.23610
3216.68572,0.23764
3218.61419,0.23747
3220.54266,0.23847
3222.47113,0.23745
3224.39960,0.23510
3226.32807,0.23097
3228.25654,0.22691
3230.18500,0.22956
3232.11347,0.23660
3234.04194,0.23961
3235.97041,0.23759
3237.89888,0.23379
3239.82735,0.23265
3241.75582,0.23555
3243.68428,0.23622
3245.61275,0.23555
3247.54122,0.23915
3249.46969,0.24319
3251.39816,0.24436
3253.32663,0.24337
3255.25510,0.24023
3257.18357,0.23808
3259.11203,0.23879
3261.04050,0.23841
3262.96897,0.23740
3264.89744,0.24167
3266.82591,0.24842
3268.75438,0.24837
3270.68285,0.24158
3272.61131,0.23688
3274.53978,0.23719
3276.46825,0.23591
3278.39672,0.23202
3280.32519,0.23201
3282.25366,0.23487
3284.18213,0.23563
3286.11060,0.23621
3288.03906,0.24067
3289.96753,0.24259
3291.89600,0.23565
3293.82447,0.23103
3295.75294,0.23416
3297.68141,0.23377
3299.60988,0.23051
3301.53834,0.23379
3303.46681,0.23865
3305.39528,0.23740
3307.32375,0.23348
3309.25222,0.23204
3311.18069,0.23294
3313.10916,0.23646
3315.03763,0.24155
3316.96609,0.24309
3318.89456,0.24108
3320.82303,0.23615
3322.75150,0.22892
3324.67997,0.22754
3326.60844,0.23168
3328.53691,0.23187
3330.46537,0.22910
3332.39384,0.23089
3334.32231,0.23868
3336.25078,0.24712
3338.17925,0.24961
3340.10772,0.24550
3342.03619,0.23878
3343.96466,0.23347
3345.89312,0.23195
3347.82159,0.23210
3349.75006,0.23041
3351.67853,0.22737
3353.60700,0.22733
3355.53547,0.23284
3357.46394,0.23989
3359.39240,0.24251
3361.32087,0.23855
3363.24934,0.23204
3365.17781,0.23027
3367.10628,0.23296
3369.03475,0.23757
3370.96322,0.24448
3372.89168,0.24607
3374.82015,0.23947
3376.74862,0.23417
3378.67709,0.23383
3380.60556,0.23657
3382.53403,0.24036
3384.46250,0.24116
3386.39097,0.23680
3388.31943,0.22909
3390.24790,0.22517
3392.17637,0.23049
3394.10484,0.23807
3396.03331,0.24021
3397.96178,0.24006
3399.89025,0.24330
3401.81871,0.24738
3403.74718,0.24431
3405.67565,0.23727
3407.60412,0.23385
3409.53259,0.23278
3411.46106,0.23511
3413.38953,0.23863
3415.31800,0.23597
3417.24646,0.23329
3419.17493,0.23727
3421.10340,0.23992
3423.03187,0.23643
3424.96034,0.23219
3426.88881,0.23078
3428.81728,0.23159
3430.74574,0.23350
3432.67421,0.23391
3434.60268,0.23114
3436.53115,0.23064
3438.45962,0.23545
3440.38809,0.23718
3442.31656,0.23205
3444.24503,0.22716
3446.17349,0.22632
3448.10196,0.22818
3450.03043,0.22813
3451.95890,0.22557
3453.88737,0.22668
3455.81584,0.23036
3457.74431,0.23107
3459.67277,0.22994
3461.60124,0.22820
3463.52971,0.22401
3465.45818,0.21955
3467.38665,0.21900
3469.31512,0.22091
3471.24359,0.22073
3473.17206,0.21770
3475.10052,0.21472
3477.02899,0.21385
3478.95746,0.21698
3480.88593,0.22393
3482.81440,0.22779
3484.74287,0.22532
3486.67134,0.22005
3488.59980,0.21288
3490.52827,0.20423
3492.45674,0.19900
3494.38521,0.20052
3496.31368,0.20185
3498.24215,0.20117
3500.17062,0.20705
3502.09909,0.21556
3504.02755,0.21634
3505.95602,0.21209
3507.88449,0.20795
3509.81296,0.20440
3511.74143,0.20319
3513.66990,0.20262
3515.59837,0.20035
3517.52683,0.19966
3519.45530,0.20222
3521.38377,0.20539
3523.31224,0.20752
3525.24071,0.20942
3527.16918,0.21091
3529.09765,0.20704
3531.02611,0.19478
3532.95458,0.18176
3534.88305,0.17750
3536.81152,0.18197
3538.73999,0.18742
3540.66846,0.18945
3542.59693,0.18996
3544.52540,0.19086
3546.45386,0.19401
3548.38233,0.19696
3550.31080,0.19527
3552.23927,0.19167
3554.16774,0.18814
3556.09621,0.18525
3558.02468,0.18442
3559.95314,0.18345
3561.88161,0.18292
3563.81008,0.18718
3565.73855,0.19338
3567.66702,0.19252
3569.59549,0.18639
3571.52396,0.18270
3573.45243,0.18203
3575.38089,0.18172
3577.30936,0.18149
3579.23783,0.18077
3581.16630,0.17646
3583.09477,0.17205
3585.02324,0.17487
3586.95171,0.18568
3588.88017,0.18895
3590.80864,0.18100
3592.73711,0.17614
3594.66558,0.17859
3596.59405,0.18206
3598.52252,0.18149
3600.45099,0.17631
3602.37946,0.16806
3604.30792,0.16421
3606.23639,0.16877
3608.16486,0.17507
3610.09333,0.17474
3612.02180,0.17573
3613.95027,0.18453
3615.87874,0.18764
3617.80720,0.17852
3619.73567,0.16459
3621.66414,0.15669
3623.59261,0.15923
3625.52108,0.16950
3627.44955,0.18347
3629.37802,0.18780
3631.30649,0.17708
3633.23495,0.16763
3635.16342,0.16206
3637.09189,0.15994
3639.02036,0.15766
3640.94883,0.15148
3642.87730,0.14990
3644.80577,0.15989
3646.73423,0.17185
3648.66270,0.17326
3650.59117,0.16580
3652.51964,0.15786
3654.44811,0.15363
3656.37658,0.15451
3658.30505,0.15660
3660.23352,0.15654
3662.16198,0.15381
3664.09045,0.14913
3666.01892,0.14664
3667.94739,0.14956
3669.87586,0.15538
3671.80433,0.15972
3673.73280,0.16539
3675.66126,0.17051
3677.58973,0.16917
3679.51820,0.16530
3681.44667,0.15960
3683.37514,0.15397
3685.30361,0.15219
3687.23208,0.15629
3689.16055,0.16425
3691.08901,0.16278
3693.01748,0.15190
3694.94595,0.14308
3696.87442,0.14054
3698.80289,0.14385
3700.73136,0.14864
3702.65983,0.14957
3704.58829,0.14684
3706.51676,0.14568
3708.44523,0.15147
3710.37370,0.16576
3712.30217,0.17072
3714.23064,0.15651
3716.15911,0.14339
3718.08757,0.14178
3720.01604,0.15014
3721.94451,0.15743
3723.87298,0.15786
3725.80145,0.15873
3727.72992,0.15938
3729.65839,0.15718
3731.58686,0.15818
3733.51532,0.16581
3735.44379,0.17066
3737.37226,0.16680
3739.30073,0.16261
3741.22920,0.15964
3743.15767,0.15921
3745.08614,0.15882
3747.01460,0.15391
3748.94307,0.15524
3750.87154,0.16423
3752.80001,0.16226
3754.72848,0.15454
3756.65695,0.15232
3758.58542,0.15183
3760.51389,0.14835
3762.44235,0.14659
3764.37082,0.14909
3766.29929,0.15249
3768.22776,0.15384
3770.15623,0.15274
3772.08470,0.14572
3774.01317,0.13612
3775.94163,0.13286
3777.87010,0.13936
3779.79857,0.14705
3781.72704,0.14676
3783.65551,0.14287
3785.58398,0.13875
3787.51245,0.13583
3789.44092,0.13526
3791.36938,0.13816
3793.29785,0.14471
3795.22632,0.15146
3797.15479,0.15592
3799.08326,0.16032
3801.01173,0.16337
3802.94020,0.15395
3804.86866,0.14245
3806.79713,0.13918
3808.72560,0.13826
3810.65407,0.13819
3812.58254,0.14322
3814.51101,0.15125
3816.43948,0.15393
3818.36795,0.15375
3820.29641,0.15704
3822.22488,0.15072
3824.15335,0.14069
3826.08182,0.13901
3828.01029,0.14097
3829.93876,0.14295
3831.86723,0.14300
3833.79569,0.14024
3835.72416,0.14463
3837.65263,0.16123
3839.58110,0.17187
3841.50957,0.16482
3843.43804,0.15094
3845.36651,0.13796
3847.29498,0.12991
3849.22344,0.13418
3851.15191,0.15332
3853.08038,0.16907
3855.00885,0.15758
3856.93732,0.14578
3858.86579,0.14110
3860.79426,0.14248
3862.72272,0.14607
3864.65119,0.14185
3866.57966,0.13907
3868.50813,0.14747
3870.43660,0.15041
3872.36507,0.13681
3874.29354,0.12358
3876.22200,0.11964
3878.15047,0.12372
3880.07894,0.13283
3882.00741,0.13780
3883.93588,0.13469
3885.86435,0.12939
3887.79282,0.12642
3889.72129,0.12615
3891.64975,0.12702
3893.57822,0.12631
3895.50669,0.12353
3897.43516,0.12261
3899.36363,0.12947
3901.29210,0.14109
3903.22057,0.14646
3905.14903,0.14150
3907.07750,0.13168
3909.00597,0.12567
3910.93444,0.12393
3912.86291,0.12360
3914.79138,0.12599
3916.71985,0.12966
3918.64832,0.12916
3920.57678,0.12574
3922.50525,0.12552
3924.43372,0.12917
3926.36219,0.13165
3928.29066,0.13315
3930.21913,0.13601
3932.14760,0.13769
3934.07606,0.13792
3936.00453,0.13821
3937.93300,0.13627
3939.86147,0.12978
3941.78994,0.12298
3943.71841,0.12468
3945.64688,0.13109
3947.57535,0.13210
3949.50381,0.12860
3951.43228,0.12553
3953.36075,0.12180
3955.28922,0.11838
3957.21769,0.12165
3959.14616,0.12986
3961.07463,0.13262
3963.00309,0.12736
3964.93156,0.12088
3966.86003,0.11911
3968.78850,0.12077
3970.71697,0.11996
3972.64544,0.11700
3974.57391,0.11602
3976.50238,0.11498
3978.43084,0.11303
3980.35931,0.11529
3982.28778,0.12096
3984.21625,0.12062
3986.14472,0.11531
3988.07319,0.11655
3990.00166,0.11992
3991.93012,0.11350
3993.85859,0.10468
3995.78706,0.10477
3997.71553,0.10890
3999.64400,0.11011
4001.57247,0.11241
4003.50094,0.11698
4005.42941,0.11684
4007.35787,0.11213
4009.28634,0.10792
4011.21481,0.10811
4013.14328,0.11350
4015.07175,0.11537
4017.00022,0.11001
4018.92869,0.10709
4020.85715,0.11064
4022.78562,0.11361
4024.71409,0.11288
4026.64256,0.11141
4028.57103,0.10840
4030.49950,0.10374
4032.42797,0.10265
4034.35644,0.10651
4036.28490,0.11167
4038.21337,0.11281
4040.14184,0.10774
4042.07031,0.10363
4043.99878,0.10624
4045.92725,0.11140
4047.85572,0.11271
4049.78418,0.11147
4051.71265,0.11209
4053.64112,0.11027
4055.56959,0.10440
4057.49806,0.10122
4059.42653,0.10279
4061.35500,0.10715
4063.28346,0.11198
4065.21193,0.11389
4067.14040,0.11032
4069.06887,0.10620
4070.99734,0.10786
4072.92581,0.11092
4074.85428,0.11083
4076.78275,0.11052
4078.71121,0.11086
4080.63968,0.10887
4082.56815,0.10506
4084.49662,0.10157
4086.42509,0.09970
4088.35356,0.09872
4090.28203,0.09596
4092.21049,0.09408
4094.13896,0.09693
4096.06743,0.10366
4097.99590,0.10720
4099.92437,0.10140
4101.85284,0.09540
4103.78131,0.09973
4105.70978,0.10856
4107.63824,0.11054
4109.56671,0.10441
4111.49518,0.09875
4113.42365,0.09868
4115.35212,0.10167
4117.28059,0.10461
4119.20906,0.10620
4121.13752,0.10594
4123.06599,0.10496
4124.99446,0.10479
4126.92293,0.10434
4128.85140,0.10299
4130.77987,0.10285
4132.70834,0.10410
4134.63681,0.10517
4136.56527,0.10629
4138.49374,0.10741
4140.42221,0.10540
4142.35068,0.09880
4144.27915,0.09300
4146.20762,0.09217
4148.13609,0.09437
4150.06455,0.09870
4151.99302,0.10221
4153.92149,0.10081
4155.84996,0.09664
4157.77843,0.09164
4159.70690,0.08776
4161.63537,0.09030
4163.56384,0.09805
4165.49230,0.10310
4167.42077,0.10140
4169.34924,0.09650
4171.27771,0.09385
4173.20618,0.09578
4175.13465,0.10003
4177.06312,0.09914
4178.99158,0.09345
4180.92005,0.08955
4182.84852,0.08409
4184.77699,0.07599
4186.70546,0.07331
4188.63393,0.07872
4190.56240,0.08529
4192.49087,0.08905
4194.41933,0.08905
4196.34780,0.08395
4198.27627,0.08305
4200.20474,0.08851
4202.13321,0.08999
4204.06168,0.08893
4205.99015,0.08869
4207.91861,0.08625
4209.84708,0.08439
4211.77555,0.08756
4213.70402,0.08980
4215.63249,0.08709
4217.56096,0.08519
4219.48943,0.08261
4221.41789,0.07650
4223.34636,0.07329
4225.27483,0.07445
4227.20330,0.07502
4229.13177,0.07740
4231.06024,0.08467
4232.98871,0.08816
4234.91718,0.08295
4236.84564,0.07613
4238.77411,0.07102
4240.70258,0.06772
4242.63105,0.06797
4244.55952,0.07212
4246.48799,0.07989
4248.41646,0.08555
4250.34492,0.08388
4252.27339,0.08121
4254.20186,0.08236
4256.13033,0.08084
4258.05880,0.07417
4259.98727,0.06925
4261.91574,0.07030
4263.84421,0.07415
4265.77267,0.07565
4267.70114,0.07491
4269.62961,0.07277
4271.55808,0.06717
4273.48655,0.06412
4275.41502,0.07005
4277.34349,0.07430
4279.27195,0.06905
4281.20042,0.06765
4283.12889,0.07721
4285.05736,0.08412
4286.98583,0.07894
4288.91430,0.07006
4290.84277,0.06594
4292.77124,0.06537
4294.69970,0.06645
4296.62817,0.06643
4298.55664,0.06234
4300.48511,0.05579
4302.41358,0.05018
4304.34205,0.04778
4306.27052,0.05018
4308.19898,0.05417
4310.12745,0.05511
4312.05592,0.05641
4313.98439,0.06161
4315.91286,0.06838
4317.84133,0.06746
4319.76980,0.05817
4321.69827,0.05861
4323.62673,0.06820
4325.55520,0.06964
4327.48367,0.06601
4329.41214,0.06776
4331.34061,0.06895
4333.26908,0.06165
4335.19755,0.05403
4337.12601,0.05355
4339.05448,0.05636
4340.98295,0.05799
4342.91142,0.05565
4344.83989,0.05005
4346.76836,0.04489
4348.69683,0.04340
4350.62530,0.04816
4352.55376,0.05941
4354.48223,0.06852
4356.41070,0.06421
4358.33917,0.05065
4360.26764,0.04151
4362.19611,0.04203
4364.12458,0.04277
4366.05304,0.03585
4367.98151,0.03081
4369.90998,0.03372
4371.83845,0.03826
4373.76692,0.04128
4375.69539,0.04024
4377.62386,0.03295
4379.55232,0.02675
4381.48079,0.02930
4383.40926,0.04005
4385.33773,0.04982
4387.26620,0.04942
4389.19467,0.04517
4391.12314,0.04283
4393.05161,0.03809
4394.98007,0.03316
4396.90854,0.03154
4398.83701,0.03160
4400.76548,0.03488
4402.69395,0.04231
4404.62242,0.04742
4406.55089,0.04741
4408.47935,0.04711
4410.40782,0.04709
4412.33629,0.04518
4414.26476,0.04200
4416.19323,0.03757
4418.12170,0.03365
4420.05017,0.03179
4421.97864,0.02842
4423.90710,0.02628
4425.83557,0.02995
4427.76404,0.03467
4429.69251,0.03756
4431.62098,0.04046
4433.54945,0.04492
4435.47792,0.04650
4437.40638,0.04054
4439.33485,0.03502
4441.26332,0.03695
4443.19179,0.04088
4445.12026,0.03865
4447.04873,0.03147
4448.97720,0.02858
4450.90567,0.03344
4452.83413,0.03920
4454.76260,0.03897
4456.69107,0.03513
4458.61954,0.03247
4460.54801,0.03243
4462.47648,0.03166
4464.40495,0.02739
4466.33341,0.02908
4468.26188,0.03862
4470.19035,0.04205
4472.11882,0.03901
4474.04729,0.04045
4475.97576,0.04491
4477.90423,0.04199
4479.83270,0.03112
4481.76116,0.02208
4483.68963,0.02018
4485.61810,0.02281
4487.54657,0.02729
4489.47504,0.03237
4491.40351,0.03499
4493.33198,0.03337
4495.26044,0.03017
4497.18891,0.03021
4499.11738,0.03269
4501.04585,0.03057
4502.97432,0.02299
4504.90279,0.01372
4506.83126,0.00794
4508.75973,0.00811
4510.68819,0.00843
4512.61666,0.00943
4514.54513,0.01723
4516.47360,0.02998
4518.40207,0.04170
4520.33054,0.04565
4522.25901,0.04057
4524.18747,0.03381
4526.11594,0.02892
4528.04441,0.02291
4529.97288,0.01529
4531.90135,0.00971
4533.82982,0.00938
4535.75829,0.01314
4537.68676,0.01737
4539.61522,0.02236
4541.54369,0.02913
4543.47216,0.02923
4545.40063,0.01442
4547.32910,-0.00097
4549.25757,0.00044
4551.18604,0.01224
4553.11450,0.02145
4555.04297,0.02004
4556.97144,0.01338
4558.89991,0.01639
4560.82838,0.02126
4562.75685,0.01539
4564.68532,0.01160
4566.61378,0.01854
4568.54225,0.02446
4570.47072,0.02425
4572.39919,0.02132
4574.32766,0.01165
4576.25613,-0.00240
4578.18460,-0.00731
4580.11307,-0.00043
4582.04153,0.01059
4583.97000,0.01401
4585.89847,0.00438
4587.82694,-0.00367
4589.75541,-0.00109
4591.68388,0.00218
4593.61235,-0.00032
4595.54081,-0.00310
4597.46928,-0.00328
4599.39775,-0.00380
4601.32622,-0.00222
4603.25469,0.00157
4605.18316,0.00473
4607.11163,0.00963
4609.04010,0.01280
4610.96856,0.00565
4612.89703,-0.00204
4614.82550,0.00629
4616.75397,0.01886
4618.68244,0.02023
4620.61091,0.01863
4622.53938,0.01883
4624.46784,0.01384
4626.39631,0.00467
4628.32478,0.00345
4630.25325,0.01179
4632.18172,0.01511
4634.11019,0.00787
4636.03866,0.00021
4637.96713,-0.00078
4639.89559,0.00470
4641.82406,0.01203
4643.75253,0.01284
4645.68100,0.00628
4647.60947,0.00248
4649.53794,0.00034
4651.46641,-0.00249
4653.39487,0.00568
4655.32334,0.01976
4657.25181,0.02429
4659.18028,0.02067
4661.10875,0.02080
4663.03722,0.02700
4664.96569,0.02687
4666.89416,0.02370
4668.82262,0.03143
4670.75109,0.03459
4672.67956,0.01440
4674.60803,-0.01093
4676.53650,-0.01807
4678.46497,-0.00592
4680.39344,0.01189
4682.32190,0.01770
4684.25037,0.01161
4686.17884,0.00880
4688.10731,0.01931
4690.03578,0.03571
4691.96425,0.03579
4693.89272,0.01755
4695.82119,0.00032
4697.74965,-0.00703
4699.67812,-0.00615
4701.60659,-0.00469
4703.53506,-0.00376
4705.46353,0.00456
4707.39200,0.01328
4709.32047,0.01510
4711.24893,0.01562
4713.17740,0.01475
4715.10587,0.00562
4717.03434,-0.00617
4718.96281,-0.00178
4720.89128,0.01750
4722.81975,0.02909
4724.74821,0.02785
4726.67668,0.02636
4728.60515,0.02272
4730.53362,0.00918
4732.46209,-0.00013
4734.39056,0.00483
4736.31903,0.00690
4738.24750,0.00080
4740.17596,0.00142
4742.10443,0.01116
4744.03290,0.02107
4745.96137,0.01998
4747.88984,0.00809
4749.81831,-0.00175
4751.74678,-0.00679
4753.67524,-0.00548
4755.60371,0.00426
4757.53218,0.01074
4759.46065,0.00371
4761.38912,-0.00734
4763.31759,-0.00848
4765.24606,-0.00555
4767.17453,-0.00704
4769.10299,-0.00858
4771.03146,-0.00184
4772.95993,0.00925
4774.88840,0.00737
4776.81687,-0.00159
4778.74534,0.00265
4780.67381,0.01297
4782.60227,0.01597
4784.53074,0.01783
4786.45921,0.02217
4788.38768,0.02192
4790.31615,0.01703
4792.24462,0.01100
4794.17309,0.00063
4796.10156,-0.01180
4798.03002,-0.01462
4799.95849,-0.00508
4801.88696,0.00533
4803.81543,0.00752
4805.74390,0.00768
4807.67237,0.00846
4809.60084,0.00084
4811.52930,-0.00802
4813.45777,-0.00615
4815.38624,0.00390
4817.31471,0.01743
4819.24318,0.02814
4821.17165,0.02988
4823.10012,0.02066
4825.02859,0.00597
4826.95705,-0.00014
4828.88552,0.00245
4830.81399,0.00055
4832.74246,-0.00145
4834.67093,0.00281
4836.59940,0.00114
4838.52787,-0.00614
4840.45633,-0.00469
4842.38480,0.00276
4844.31327,0.00293
4846.24174,-0.00842
4848.17021,-0.02276
4850.09868,-0.02108
4852.02715,-0.00203
4853.95562,0.01312
4855.88408,0.02284
4857.81255,0.03009
4859.74102,0.02659
4861.66949,0.01860
4863.59796,0.01389
4865.52643,0.01117
4867.45490,0.00840
4869.38336,0.00565
4871.31183,0.00828
4873.24030,0.01483
4875.16877,0.01658
4877.09724,0.01243
4879.02571,0.00919
4880.95418,0.01040
4882.88265,0.00873
4884.81111,0.00412
4886.73958,0.00444
4888.66805,0.00607
4890.59652,0.00280
4892.52499,0.00033
4894.45346,0.00419
4896.38193,0.01122
4898.31039,0.01590
4900.23886,0.01047
4902.16733,0.00159
4904.09580,0.00072
4906.02427,0.00045
4907.95274,-0.00079
4909.88121,0.00158
4911.80967,0.00541
4913.73814,0.00680
4915.66661,-0.00213
4917.59508,-0.01364
4919.52355,-0.00284
4921.45202,0.02000
4923.38049,0.02016
4925.30896,0.00478
4927.23742,-0.00547
4929.16589,-0.00822
4931.09436,-0.00090
4933.02283,0.00610
4934.95130,-0.00350
4936.87977,-0.02056
4938.80824,-0.01865
4940.73670,0.00306
4942.66517,0.01716
4944.59364,0.01103
4946.52211,-0.00232
4948.45058,-0.00753
4950.37905,-0.00576
4952.30752,-0.00558
4954.23599,-0.00454
4956.16445,-0.00126
4958.09292,0.00450
4960.02139,0.01932
4961.94986,0.03283
4963.87833,0.03364
4965.80680,0.02624
4967.73527,0.01343
4969.66373,-0.00142
4971.59220,-0.00680
4973.52067,0.00614
4975.44914,0.02847
4977.37761,0.04786
4979.30608,0.05013
4981.23455,0.02597
4983.16302,-0.00063
4985.09148,-0.00562
4987.01995,-0.00022
4988.94842,0.00246
4990.87689,0.01053
4992.80536,0.02484
4994.73383,0.03852
4996.66230,0.04897
4998.59076,0.04499
5000.51923,0.02504
5002.44770,0.00736
5004.37617,0.00491
5006.30464,0.00382
5008.23311,-0.00742
5010.16158,-0.01002
5012.09005,0.00399
5014.01851,0.01367
5015.94698,0.01344
5017.87545,0.01398
5019.80392,0.01482
5021.73239,0.01868
5023.66086,0.02741
5025.58933,0.03348
5027.51779,0.03835
5029.44626,0.04141
5031.37473,0.03291
5033.30320,0.01522
5035.23167,0.00937
5037.16014,0.02400
5039.08861,0.04021
5041.01708,0.04302
5042.94554,0.03417
5044.87401,0.02116
5046.80248,0.00907
5048.73095,0.00183
5050.65942,0.00951
5052.58789,0.02140
5054.51636,0.01868
5056.44482,0.01896
5058.37329,0.03127
5060.30176,0.03843
5062.23023,0.04325
5064.15870,0.04574
5066.08717,0.03301
5068.01564,0.01057
5069.94410,-0.00464
5071.87257,-0.00176
5073.80104,0.00957
5075.72951,0.01620
5077.65798,0.02397
5079.58645,0.03464
5081.51492,0.03511
5083.44339,0.02431
5085.37185,0.01490
5087.30032,0.00422
5089.22879,-0.00922
5091.15726,-0.00994
5093.08573,0.00081
5095.01420,0.00681
5096.94267,0.00358
5098.87113,-0.00246
5100.79960,-0.00656
5102.72807,-0.00424
5104.65654,0.00699
5106.58501,0.01275
5108.51348,0.00900
5110.44195,0.01432
5112.37042,0.02726
5114.29888,0.03374
5116.22735,0.03078
5118.15582,0.01998
5120.08429,0.01458
5122.01276,0.02206
5123.94123,0.03001
5125.86970,0.03451
5127.79816,0.04238
5129.72663,0.04767
5131.65510,0.04699
5133.58357,0.05351
5135.51204,0.06571
5137.44051,0.06398
5139.36898,0.04981
5141.29745,0.04227
5143.22591,0.04568
5145.15438,0.04568
5147.08285,0.03601
5149.01132,0.03645
5150.93979,0.05122
5152.86826,0.05557
5154.79673,0.04591
5156.72519,0.03841
5158.65366,0.03867
5160.58213,0.04296
5162.51060,0.04354
5164.43907,0.04063
5166.36754,0.04092
5168.29601,0.03992
5170.22448,0.03979
5172.15294,0.04729
5174.08141,0.05380
5176.00988,0.05305
5177.93835,0.05230
5179.86682,0.05922
5181.79529,0.06428
5183.72376,0.05423
5185.65222,0.03527
5187.58069,0.02218
5189.50916,0.01637
5191.43763,0.01416
5193.36610,0.01843
5195.29457,0.02725
5197.22304,0.03844
5199.15151,0.04977
5201.07997,0.05329
5203.00844,0.05405
5204.93691,0.06103
5206.86538,0.06845
5208.79385,0.07151
5210.72232,0.07125
5212.65079,0.06772
5214.57925,0.06574
5216.50772,0.06304
5218.43619,0.05932
5220.36466,0.05922
5222.29313,0.05920
5224.22160,0.06051
5226.15007,0.05801
5228.07854,0.04756
5230.00700,0.03959
5231.93547,0.03533
5233.86394,0.03494
5235.79241,0.03998
5237.72088,0.04950
5239.64935,0.05791
5241.57782,0.05444
5243.50628,0.04100
5245.43475,0.02648
5247.36322,0.02074
5249.29169,0.02862
5251.22016,0.03869
5253.14863,0.04420
5255.07710,0.04805
5257.00556,0.05757
5258.93403,0.05973
5260.86250,0.03712
5262.79097,0.01975
5264.71944,0.02966
5266.64791,0.04128
5268.57638,0.04052
5270.50485,0.03033
5272.43331,0.02045
5274.36178,0.01977
5276.29025,0.02412
5278.21872,0.02780
5280.14719,0.04065
5282.07566,0.06295
5284.00413,0.07352
5285.93259,0.06660
5287.86106,0.05369
5289.78953,0.04223
5291.71800,0.03656
5293.64647,0.03808
5295.57494,0.04230
5297.50341,0.03780
5299.43188,0.02372
5301.36034,0.00881
5303.28881,0.00132
5305.21728,0.00841
5307.14575,0.01035
5309.07422,0.00103
5311.00269,0.01306
5312.93116,0.03904
5314.85962,0.04772
5316.78809,0.04240
5318.71656,0.04264
5320.64503,0.04529
5322.57350,0.04033
5324.50197,0.03509
5326.43044,0.03544
5328.35891,0.03500
5330.28737,0.03301
5332.21584,0.03728
5334.14431,0.04604
5336.07278,0.06234
5338.00125,0.09059
5339.92972,0.09999
5341.85819,0.08311
5343.78665,0.06872
5345.71512,0.06980
5347.64359,0.07430
5349.57206,0.07799
5351.50053,0.08783
5353.42900,0.09289
5355.35747,0.08709
5357.28594,0.09144
5359.21440,0.10152
5361.14287,0.09073
5363.07134,0.06655
5364.99981,0.05759
5366.92828,0.06676
5368.85675,0.07977
5370.78522,0.08010
5372.71368,0.06703
5374.64215,0.04696
5376.57062,0.02928
5378.49909,0.03212
5380.42756,0.03907
5382.35603,0.03997
5384.28450,0.05165
5386.21297,0.06670
5388.14143,0.07205
5390.06990,0.08592
5391.99837,0.09953
5393.92684,0.08534
5395.85531,0.06838
5397.78378,0.08184
5399.71225,0.11002
5401.64071,0.13148
5403.56918,0.13541
5405.49765,0.12426
5407.42612,0.10852
5409.35459,0.07688
5411.28306,0.03154
5413.21153,0.02047
5415.13999,0.04819
5417.06846,0.06514
5418.99693,0.06117
5420.92540,0.06174
5422.85387,0.07812
5424.78234,0.09490
5426.71081,0.10354
5428.63928,0.11058
5430.56774,0.12462
5432.49621,0.13159
5434.42468,0.11699
5436.35315,0.09884
5438.28162,0.08959
5440.21009,0.08037
5442.13856,0.07944
5444.06702,0.09719
5445.99549,0.11121
5447.92396,0.10192
5449.85243,0.08338
5451.78090,0.08528
5453.70937,0.11441
5455.63784,0.13205
5457.56631,0.11835
5459.49477,0.10686
5461.42324,0.09671
5463.35171,0.07142
5465.28018,0.05565
5467.20865,0.05607
5469.13712,0.05281
5471.06559,0.06370
5472.99405,0.10130
5474.92252,0.12435
5476.85099,0.10386
5478.77946,0.08174
5480.70793,0.08542
5482.63640,0.09527
5484.56487,0.09618
5486.49334,0.09151
5488.42180,0.08901
5490.35027,0.08702
5492.27874,0.08301
5494.20721,0.08748
5496.13568,0.09279
5498.06415,0.08965
5499.99262,0.08461
5501.92108,0.08774
5503.84955,0.09693
5505.77802,0.09312
5507.70649,0.07049
5509.63496,0.05368
5511.56343,0.06669
5513.49190,0.07695
5515.42037,0.04943
5517.34883,0.03707
5519.27730,0.06346
5521.20577,0.07590
5523.13424,0.06764
5525.06271,0.07870
5526.99118,0.10784
5528.91965,0.12341
5530.84811,0.11092
5532.77658,0.06805
5534.70505,0.02908
5536.63352,0.03221
5538.56199,0.05377
5540.49046,0.07647
5542.41893,0.10699
5544.34740,0.11677
5546.27586,0.09605
5548.20433,0.08403
5550.13280,0.08648
5552.06127,0.08424
5553.98974,0.08899
5555.91821,0.09961
5557.84668,0.09109
5559.77514,0.06635
5561.70361,0.05439
5563.63208,0.05446
5565.56055,0.04493
5567.48902,0.03272
5569.41749,0.03507
5571.34596,0.06052
5573.27443,0.09416
5575.20289,0.10083
5577.13136,0.08596
5579.05983,0.08965
5580.98830,0.10912
5582.91677,0.10608
5584.84524,0.08578
5586.77371,0.07001
5588.70217,0.06875
5590.63064,0.07963
5592.55911,0.08128
5594.48758,0.07972
5596.41605,0.09577
5598.34452,0.11247
5600.27299,0.12078
5602.20145,0.13438
5604.12992,0.13515
5606.05839,0.12147
5607.98686,0.12280
5609.91533,0.14175
5611.84380,0.13986
5613.77227,0.09761
5615.70074,0.06630
5617.62920,0.06448
5619.55767,0.06383
5621.48614,0.07542
5623.41461,0.09374
5625.34308,0.07881
5627.27155,0.06546
5629.20002,0.09549
5631.12848,0.10878
5633.05695,0.08523
5634.98542,0.06765
5636.91389,0.06193
5638.84236,0.06019
5640.77083,0.06289
5642.69930,0.06980
5644.62777,0.09333
5646.55623,0.11654
5648.48470,0.10672
5650.41317,0.08764
5652.34164,0.08958
5654.27011,0.09464
5656.19858,0.07533
5658.12705,0.05197
5660.05551,0.06099
5661.98398,0.09088
5663.91245,0.10445
5665.84092,0.08676
5667.76939,0.05667
5669.69786,0.03857
5671.62633,0.04333
5673.55480,0.06685
5675.48326,0.10038
5677.41173,0.12377
5679.34020,0.10978
5681.26867,0.07369
5683.19714,0.04744
5685.12561,0.04079
5687.05408,0.05385
5688.98254,0.07902
5690.91101,0.10333
5692.83948,0.11216
5694.76795,0.08729
5696.69642,0.04851
5698.62489,0.04100
5700.55336,0.05391
5702.48183,0.06322
5704.41029,0.07166
5706.33876,0.07184
5708.26723,0.06611
5710.19570,0.08215
5712.12417,0.11033
5714.05264,0.10803
5715.98111,0.09810
5717.90957,0.10834
5719.83804,0.11005
5721.76651,0.09601
5723.69498,0.09176
5725.62345,0.10426
5727.55192,0.10911
5729.48039,0.08679
5731.40886,0.05275
5733.33732,0.03783
5735.26579,0.04945
5737.19426,0.05123
5739.12273,0.03146
5741.05120,0.04029
5742.97967,0.07829
5744.90814,0.10063
5746.83660,0.10657
5748.76507,0.10554
5750.69354,0.10360
5752.62201,0.09967
5754.55048,0.07691
5756.47895,0.05337
5758.40742,0.05247
5760.33588,0.06161
5762.26435,0.07110
5764.19282,0.08378
5766.12129,0.09387
5768.04976,0.10325
5769.97823,0.10552
5771.90670,0.09320
5773.83517,0.09701
5775.76363,0.12738
5777.69210,0.15522
5779.62057,0.17696
5781.54904,0.19362
5783.47751,0.18415
5785.40598,0.15252
5787.33445,0.11696
5789.26291,0.08519
5791.19138,0.05139
5793.11985,0.01673
5795.04832,0.02276
5796.97679,0.07423
5798.90526,0.10847
5800.83373,0.10566
5802.76220,0.09991
5804.69066,0.11248
5806.61913,0.13670
5808.54760,0.15353
5810.47607,0.15637
5812.40454,0.14871
5814.33301,0.13045
5816.26148,0.10743
5818.18994,0.08941
5820.11841,0.10316
5822.04688,0.14702
5823.97535,0.13670
5825.90382,0.05599
5827.83229,0.00089
5829.76076,0.01871
5831.68923,0.06270
5833.61769,0.08185
5835.54616,0.06480
5837.47463,0.03994
5839.40310,0.04388
5841.33157,0.07853
5843.26004,0.09189
5845.18851,0.07623
5847.11697,0.07766
5849.04544,0.08736
5850.97391,0.08627
5852.90238,0.07300
5854.83085,0.04138
5856.75932,0.01230
5858.68779,0.02252
5860.61626,0.07056
5862.54472,0.10360
5864.47319,0.10549
5866.40166,0.09065
5868.33013,0.07860
5870.25860,0.10484
5872.18707,0.14710
5874.11554,0.15491
5876.04400,0.12703
5877.97247,0.09839
5879.90094,0.08020
5881.82941,0.07899
5883.75788,0.10326
5885.68635,0.11673
5887.61482,0.10779
5889.54329,0.11553
5891.47175,0.12943
5893.40022,0.12183
5895.32869,0.10865
5897.25716,0.09150
5899.18563,0.07771
5901.11410,0.09832
5903.04257,0.13142
5904.97103,0.13452
5906.89950,0.12279
5908.82797,0.11822
5910.75644,0.10858
5912.68491,0.08924
5914.61338,0.08026
5916.54185,0.09684
5918.47032,0.12024
5920.39878,0.12311
5922.32725,0.10772
5924.25572,0.08197
5926.18419,0.07843
5928.11266,0.12482
5930.04113,0.17195
5931.96960,0.17381
5933.89806,0.13636
5935.82653,0.09149
5937.75500,0.06761
5939.68347,0.06451
5941.61194,0.07805
5943.54041,0.08074
5945.46888,0.05869
5947.39734,0.06283
5949.32581,0.10216
5951.25428,0.12489
5953.18275,0.12631
5955.11122,0.11486
5957.03969,0.08746
5958.96816,0.07653
5960.89663,0.08734
5962.82509,0.08495
5964.75356,0.06938
5966.68203,0.06805
5968.61050,0.10527
5970.53897,0.13769
5972.46744,0.12645
5974.39591,0.11825
5976.32437,0.11594
5978.25284,0.10906
5980.18131,0.11575
5982.10978,0.11687
5984.03825,0.10493
5985.96672,0.08459
5987.89519,0.06803
5989.82366,0.06536
5991.75212,0.05566
5993.68059,0.05223
5995.60906,0.07244
5997.53753,0.09508
5999.46600,0.10554
6001.39447,0.10671
6003.32294,0.09258
6005.25140,0.06432
6007.17987,0.07394
6009.10834,0.11452
6011.03681,0.09930
6012.96528,0.03596
6014.89375,0.01603
6016.82222,0.04907
6018.75069,0.06925
6020.67915,0.06549
6022.60762,0.05955
6024.53609,0.06105
6026.46456,0.06602
6028.39303,0.05405
6030.32150,0.04929
6032.24997,0.06871
6034.17843,0.07066
6036.10690,0.07403
6038.03537,0.12612
6039.96384,0.16182
6041.89231,0.13379
6043.82078,0.09406
6045.74925,0.07602
6047.67772,0.05313
6049.60618,0.03028
6051.53465,0.04798
6053.46312,0.07874
6055.39159,0.07740
6057.32006,0.06566
6059.24853,0.06412
6061.17700,0.05281
6063.10546,0.03662
6065.03393,0.03782
6066.96240,0.05734
6068.89087,0.09927
6070.81934,0.13020
6072.74781,0.10783
6074.67628,0.06791
6076.60475,0.05566
6078.53321,0.05015
6080.46168,0.03916
6082.39015,0.05213
6084.31862,0.06286
6086.24709,0.05557
6088.17556,0.10594
6090.10403,0.17540
6092.03249,0.14031
6093.96096,0.03646
6095.88943,0.01625
6097.81790,0.07447
6099.74637,0.06593
6101.67484,0.02847
6103.60331,0.07057
6105.53177,0.12511
6107.46024,0.14063
6109.38871,0.12878
6111.31718,0.08448
6113.24565,0.04998
6115.17412,0.05245
6117.10259,0.05734
6119.03106,0.08148
6120.95952,0.12873
6122.88799,0.11817
6124.81646,0.08448
6126.74493,0.11275
6128.67340,0.15398
6130.60187,0.14506
6132.53034,0.11809
6134.45880,0.10998
6136.38727,0.12071
6138.31574,0.11604
6140.24421,0.09274
6142.17268,0.10889
6144.10115,0.12990
6146.02962,0.11330
6147.95809,0.11333
6149.88655,0.10908
6151.81502,0.07138
6153.74349,0.04602
6155.67196,0.04551
6157.60043,0.04775
6159.52890,0.03521
6161.45737,-0.00576
6163.38583,-0.03853
6165.31430,-0.00014
6167.24277,0.05748
6169.17124,0.07230
6171.09971,0.09353
6173.02818,0.13263
6174.95665,0.13208
6176.88512,0.12250
6178.81358,0.15862
6180.74205,0.17540
6182.67052,0.13056
6184.59899,0.09810
6186.52746,0.09456
6188.45593,0.06155
6190.38440,0.02662
6192.31286,0.04467
6194.24133,0.07410
6196.16980,0.07123
6198.09827,0.05399
6200.02674,0.04213
6201.95521,0.04135
6203.88368,0.06856
6205.81215,0.10309
6207.74061,0.10533
6209.66908,0.11763
6211.59755,0.13924
6213.52602,0.09192
6215.45449,0.03754
6217.38296,0.05303
6219.31143,0.08548
6221.23989,0.10503
6223.16836,0.12635
6225.09683,0.13604
6227.02530,0.12975
6228.95377,0.10797
6230.88224,0.07422
6232.81071,0.05895
6234.73918,0.05971
6236.66764,0.06100
6238.59611,0.05539
6240.52458,0.04674
6242.45305,0.08016
6244.38152,0.14230
6246.30999,0.18124
6248.23846,0.18288
6250.16692,0.14814
6252.09539,0.12136
6254.02386,0.10677
6255.95233,0.08103
6257.88080,0.06116
6259.80927,0.03360
6261.73774,0.00559
6263.66621,0.01801
6265.59467,0.05144
6267.52314,0.06807
6269.45161,0.06964
6271.38008,0.05562
6273.30855,0.05146
6275.23702,0.08637
6277.16549,0.11415
6279.09395,0.10530
6281.02242,0.07339
6282.95089,0.03514
6284.87936,0.02368
6286.80783,0.03373
6288.73630,0.04232
6290.66477,0.06906
6292.59323,0.11029
6294.52170,0.10501
6296.45017,0.06307
6298.37864,0.03190
6300.30711,0.01058
6302.23558,0.03564
6304.16405,0.09891
6306.09252,0.11872
6308.02098,0.10938
6309.94945,0.11541
6311.87792,0.11087
6313.80639,0.10552
6315.73486,0.13700
6317.66333,0.14454
6319.59180,0.08366
6321.52026,0.03292
6323.44873,0.05898
6325.37720,0.10802
6327.30567,0.10222
6329.23414,0.06261
6331.16261,0.05483
6333.09108,0.07704
6335.01955,0.10686
6336.94801,0.12629
6338.87648,0.12654
6340.80495,0.13019
6342.73342,0.16147
6344.66189,0.20862
6346.59036,0.22523
6348.51883,0.19992
6350.44729,0.12915
6352.37576,0.01688
6354.30423,-0.05909
6356.23270,-0.06862
6358.16117,-0.02373
6360.08964,0.06229
6362.01811,0.14579
6363.94658,0.19596
6365.87504,0.20245
6367.80351,0.16133
6369.73198,0.11506
6371.66045,0.07874
6373.58892,0.04898
6375.51739,0.03692
6377.44586,0.01640
6379.37432,0.02676
6381.30279,0.09630
6383.23126,0.14777
6385.15973,0.14945
6387.08820,0.13241
6389.01667,0.11696
6390.94514,0.13726
6392.87361,0.17032
6394.80207,0.14399
6396.73054,0.07194
6398.65901,0.01012
6400.58748,0.00022
6402.51595,0.05931
6404.44442,0.11292
6406.37289,0.09347
6408.30135,0.06372
6410.22982,0.09247
6412.15829,0.13515
6414.08676,0.14851
6416.01523,0.14671
6417.94370,0.12361
6419.87217,0.08185
6421.80064,0.05397
6423.72910,0.05258
6425.65757,0.07981
6427.58604,0.11151
6429.51451,0.15070
6431.44298,0.19510
6433.37145,0.17089
6435.29992,0.10184
6437.22838,0.03985
6439.15685,-0.02509
6441.08532,-0.06811
6443.01379,-0.06074
6444.94226,-0.00318
6446.87073,0.04739
6448.79920,0.04390
6450.72766,0.02617
6452.65613,0.04202
6454.58460,0.08097
6456.51307,0.12178
6458.44154,0.15803
6460.37001,0.18047
6462.29848,0.17197
6464.22695,0.12375
6466.15541,0.03645
6468.08388,-0.03224
6470.01235,-0.01764
6471.94082,0.04395
6473.86929,0.10045
6475.79776,0.11973
6477.72623,0.05622
6479.65469,-0.01331
6481.58316,-0.00650
6483.51163,0.01942
6485.44010,0.05461
6487.36857,0.13785
6489.29704,0.20895
6491.22551,0.18865
6493.15398,0.12224
6495.08244,0.09687
6497.01091,0.11391
6498.93938,0.11875
6500.86785,0.06571
6502.79632,0.03782
6504.72479,0.10009
6506.65326,0.15040
6508.58172,0.11983
6510.51019,0.08529
6512.43866,0.13953
6514.36713,0.19115
6516.29560,0.11289
6518.22407,-0.01007
6520.15254,-0.05207
6522.08101,-0.02707
6524.00947,0.00112
6525.93794,-0.00673
6527.86641,-0.00799
6529.79488,0.03766
6531.72335,0.12059
6533.65182,0.17596
6535.58029,0.12398
6537.50875,0.04044
6539.43722,0.04826
6541.36569,0.13467
6543.29416,0.20104
6545.22263,0.16938
6547.15110,0.11546
6549.07957,0.12058
6551.00804,0.11571
6552.93650,0.02752
6554.86497,-0.06678
6556.79344,-0.08315
6558.72191,-0.05010
6560.65038,-0.02997
6562.57885,-0.02716
6564.50732,-0.00652
6566.43578,0.04399
6568.36425,0.11052
6570.29272,0.16008
6572.22119,0.15000
6574.14966,0.08805
6576.07813,0.03954
6578.00660,0.03023
6579.93507,0.00528
6581.86353,-0.05058
6583.79200,-0.07450
6585.72047,-0.04713
6587.64894,-0.00667
6589.57741,0.02329
6591.50588,0.03536
6593.43435,0.03695
6595.36281,0.04884
6597.29128,0.07234
6599.21975,0.10589
6601.14822,0.14427
6603.07669,0.16267
6605.00516,0.16741
6606.93363,0.18288
6608.86210,0.19920
6610.79056,0.17649
6612.71903,0.12332
6614.64750,0.13218
6616.57597,0.22115
6618.50444,0.25919
6620.43291,0.22156
6622.36138,0.17406
6624.28984,0.09297
6626.21831,-0.00150
6628.14678,-0.01655
6630.07525,0.04397
6632.00372,0.06953
6633.93219,0.06874
6635.86066,0.11506
6637.78912,0.16716
6639.71759,0.19374
6641.64606,0.22190
6643.57453,0.24033
6645.50300,0.20282
6647.43147,0.08988
6649.35994,0.01539
6651.28841,0.04173
6653.21687,0.07419
6655.14534,0.07349
6657.07381,0.08961
6659.00228,0.08707
6660.93075,0.09293
6662.85922,0.20305
6664.78769,0.30162
6666.71615,0.29747
6668.64462,0.27664
6670.57309,0.25858
6672.50156,0.19843
6674.43003,0.12941
6676.35850,0.07437
6678.28697,0.02632
6680.21544,0.00137
6682.14390,0.01089
6684.07237,0.06004
6686.00084,0.12708
6687.92931,0.13857
6689.85778,0.06884
6691.78625,-0.00415
6693.71472,-0.03164
6695.64318,-0.00565
6697.57165,0.03621
6699.50012,0.04883
6701.42859,0.04614
6703.35706,0.04937
6705.28553,0.07425
6707.21400,0.07201
6709.14247,0.00645
6711.07093,-0.01985
6712.99940,0.02407
6714.92787,0.03969
6716.85634,0.02948
6718.78481,0.08712
6720.71328,0.17172
6722.64175,0.21873
6724.57021,0.23060
6726.49868,0.20220
6728.42715,0.15746
6730.35562,0.09608
6732.28409,-0.00036
6734.21256,-0.06506
6736.14103,-0.03532
6738.06950,0.03667
6739.99796,0.09301
6741.92643,0.09013
6743.85490,0.03162
6745.78337,0.00335
6747.71184,0.01169
6749.64031,0.01633
6751.56878,0.04307
6753.49724,0.07662
6755.42571,0.03074
6757.35418,-0.06358
6759.28265,-0.08723
6761.21112,-0.03985
6763.13959,0.00023
6765.06806,0.05645
6766.99653,0.09458
6768.92499,0.08173
6770.85346,0.11869
6772.78193,0.16390
6774.71040,0.11217
6776.63887,0.09122
6778.56734,0.15411
6780.49581,0.12490
6782.42427,-0.05112
6784.35274,-0.20230
6786.28121,-0.16780
6788.20968,-0.02424
6790.13815,0.08468
6792.06662,0.11001
6793.99509,0.06853
6795.92355,0.02485
6797.85202,0.03154
6799.78049,0.01971
6801.70896,-0.07468
6803.63743,-0.07495
6805.56590,0.09048
6807.49437,0.18343
6809.42284,0.18102
6811.35130,0.20187
6813.27977,0.22770
6815.20824,0.22070
6817.13671,0.14609
6819.06518,0.00568
6820.99365,-0.06724
6822.92212,0.00819
6824.85058,0.08958
6826.77905,0.08308
6828.70752,0.06163
6830.63599,0.06342
6832.56446,0.01959
6834.49293,-0.05333
6836.42140,0.00941
6838.34987,0.16039
6840.27833,0.20078
6842.20680,0.14782
6844.13527,0.09374
6846.06374,0.09628
6847.99221,0.14351
6849.92068,0.14897
6851.84915,0.10993
6853.77761,0.08715
6855.70608,0.07472
6857.63455,0.02740
6859.56302,-0.01965
6861.49149,0.00788
6863.41996,0.09202
6865.34843,0.13949
6867.27690,0.13954
6869.20536,0.12445
6871.13383,0.10860
6873.06230,0.13017
6874.99077,0.12898
6876.91924,0.06019
6878.84771,0.00794
6880.77618,0.02858
6882.70464,0.11973
6884.63311,0.21275
6886.56158,0.23059
6888.49005,0.20385
6890.41852,0.17406
6892.34699,0.14164
6894.27546,0.12297
6896.20393,0.10001
6898.13239,0.07365
6900.06086,0.08117
6901.98933,0.11673
6903.91780,0.14318
6905.84627,0.13609
6907.77474,0.16268
6909.70321,0.19816
6911.63167,0.13026
6913.56014,0.03592
6915.48861,0.03459
6917.41708,0.04461
6919.34555,-0.00886
6921.27402,-0.04825
6923.20249,0.01134
6925.13096,0.12236
6927.05942,0.20266
6928.98789,0.26845
6930.91636,0.30729
6932.84483,0.24206
6934.77330,0.15229
6936.70177,0.12407
6938.63024,0.13217
6940.55870,0.14329
6942.48717,0.17973
6944.41564,0.19066
6946.34411,0.12678
6948.27258,0.06351
6950.20105,0.03964
6952.12952,0.06602
6954.05799,0.12380
6955.98645,0.15496
6957.91492,0.17229
6959.84339,0.14263
6961.77186,0.01958
6963.70033,-0.10868
6965.62880,-0.13869
6967.55727,-0.08176
6969.48573,-0.03663
6971.41420,-0.01394
6973.34267,0.03109
6975.27114,0.02854
6977.19961,0.02220
6979.12808,0.10002
6981.05655,0.12921
6982.98501,0.02231
6984.91348,-0.14035
6986.84195,-0.27831
6988.77042,-0.29026
6990.69889,-0.14398
6992.62736,0.01086
6994.55583,0.06169
6996.48430,0.06541
6998.41276,0.11212
7000.34123,0.13953
7002.26970,0.08516
7004.19817,0.01611
7006.12664,0.04288
7008.05511,0.17149
7009.98358,0.22825
7011.91204,0.16880
7013.84051,0.09471
7015.76898,0.07974
7017.69745,0.12468
7019.62592,0.15204
7021.55439,0.11928
7023.48286,0.09216
7025.41133,0.03565
7027.33979,-0.04778
7029.26826,-0.03473
7031.19673,-0.03015
7033.12520,-0.10394
7035.05367,-0.05268
7036.98214,0.11861
7038.91061,0.15254
7040.83907,0.05216
7042.76754,0.05124
7044.69601,0.20274
7046.62448,0.28437
7048.55295,0.21959
7050.48142,0.13566
7052.40989,0.12540
7054.33836,0.15639
7056.26682,0.17271
7058.19529,0.18356
7060.12376,0.24484
7062.05223,0.32168
7063.98070,0.28383
7065.90917,0.15192
7067.83764,0.06967
7069.76610,0.10983
7071.69457,0.22771
7073.62304,0.28347
7075.55151,0.25240
7077.47998,0.20723
7079.40845,0.18542
7081.33692,0.15799
7083.26539,0.14977
7085.19385,0.15120
7087.12232,0.09584
7089.05079,0.06692
7090.97926,0.09773
7092.90773,0.09803
7094.83620,0.06901
7096.76467,0.04468
7098.69313,0.01296
7100.62160,-0.01353
7102.55007,0.04844
7104.47854,0.15451
7106.40701,0.09753
7108.33548,-0.06039
7110.26395,-0.09076
7112.19242,-0.07841
7114.12088,-0.14654
7116.04935,-0.13148
7117.97782,0.08921
7119.90629,0.21775
7121.83476,0.14383
7123.76323,0.07439
7125.69170,0.06709
7127.62016,0.02635
7129.54863,-0.01631
7131.47710,0.07053
7133.40557,0.20409
7135.33404,0.20027
7137.26251,0.09847
7139.19098,0.07499
7141.11944,0.18729
7143.04791,0.29763
7144.97638,0.33836
7146.90485,0.37189
7148.83332,0.32885
7150.76179,0.13505
7152.69026,-0.04344
7154.61873,0.02149
7156.54719,0.16349
7158.47566,0.12417
7160.40413,-0.00406
7162.33260,-0.01540
7164.26107,0.07866
7166.18954,0.07555
7168.11801,-0.06483
7170.04647,-0.03441
7171.97494,0.16947
7173.90341,0.16136
7175.83188,0.01619
7177.76035,0.01198
7179.68882,0.12524
7181.61729,0.21808
7183.54576,0.14763
7185.47422,0.00642
7187.40269,0.06414
7189.33116,0.26418
7191.25963,0.37647
7193.18810,0.39129
7195.11657,0.37343
7197.04504,0.27213
7198.97350,0.15895
7200.90197,0.14391
7202.83044,0.22536
7204.75891,0.22638
7206.68738,-0.01104
7208.61585,-0.19313
7210.54432,-0.17810
7212.47279,-0.09182
7214.40125,-0.04285
7216.32972,-0.04643
7218.25819,-0.12454
7220.18666,-0.22497
7222.11513,-0.18954
7224.04360,0.02592
7225.97207,0.21557
7227.90053,0.20769
7229.82900,0.14847
7231.75747,0.10775
7233.68594,0.10175
7235.61441,0.20940
7237.54288,0.34091
7239.47135,0.33416
7241.39982,0.22587
7243.32828,0.01368
7245.25675,-0.15992
7247.18522,-0.14329
7249.11369,-0.10672
7251.04216,-0.14447
7252.97063,-0.12051
7254.89910,-0.02738
7256.82756,0.01012
7258.75603,0.01821
7260.68450,0.05760
7262.61297,0.18428
7264.54144,0.28120
7266.46991,0.11327
7268.39838,-0.15441
7270.32685,-0.12406
7272.25531,0.24414
7274.18378,0.37545
7276.11225,0.28862
7278.04072,0.29831
7279.96919,0.34564
7281.89766,0.29649
7283.82613,0.24155
7285.75459,0.14047
7287.68306,0.04693
7289.61153,-0.00846
7291.54000,-0.05224
7293.46847,0.00200
7295.39694,0.16364
7297.32541,0.21221
7299.25387,0.06012
7301.18234,-0.06643
7303.11081,-0.02197
7305.03928,-0.03390
7306.96775,-0.18958
7308.89622,-0.22392
7310.82469,-0.09825
7312.75316,-0.01051
7314.68162,0.02125
7316.61009,0.18311
7318.53856,0.35857
7320.46703,0.29366
7322.39550,0.04371
7324.32397,-0.10238
7326.25244,-0.03447
7328.18090,0.06491
7330.10937,0.07103
7332.03784,0.12252
7333.96631,0.24796
7335.89478,0.33373
7337.82325,0.39679
7339.75172,0.38169
7341.68019,0.22392
7343.60865,0.09661
7345.53712,-0.06726
7347.46559,-0.22042
7349.39406,-0.14834
7351.32253,0.00371
7353.25100,-0.05617
7355.17947,-0.23935
7357.10793,-0.31145
7359.03640,-0.19173
7360.96487,-0.07236
7362.89334,-0.00402
7364.82181,0.09493
7366.75028,0.12788
7368.67875,0.07617
7370.60722,0.03807
7372.53568,-0.00466
7374.46415,-0.07434
7376.39262,-0.07721
7378.32109,-0.12113
7380.24956,-0.22784
7382.17803,-0.25202
7384.10650,-0.06836
7386.03496,0.21406
7387.96343,0.25330
7389.89190,0.09636
7391.82037,0.04260
7393.74884,0.09463
7395.67731,0.12170
7397.60578,0.05588
7399.53425,0.03977
7401.46271,0.09351
7403.39118,0.01447
7405.31965,-0.04798
7407.24812,0.07123
7409.17659,0.16938
7411.10506,0.22398
7413.03353,0.25235
7414.96199,0.28770
7416.89046,0.44730
7418.81893,0.57742
7420.74740,0.29257
7422.67587,-0.04228
7424.60434,-0.10561
7426.53281,-0.04926
7428.46128,0.00940
7430.38974,0.04973
7432.31821,0.02777
7434.24668,-0.04272
7436.17515,-0.08933
7438.10362,-0.05875
7440.03209,-0.01619
7441.96056,0.01139
7443.88902,0.04826
7445.81749,0.03672
7447.74596,0.05432
7449.67443,0.25693
7451.60290,0.45005
7453.53137,0.32937
7455.45984,0.09355
7457.38831,-0.07583
7459.31677,-0.19277
7461.24524,-0.21789
7463.17371,-0.04909
7465.10218,0.18738
7467.03065,0.24274
7468.95912,0.08364
7470.88759,-0.18752
7472.81605,-0.24874
7474.74452,0.04223
7476.67299,0.39660
7478.60146,0.50990
7480.52993,0.27088
7482.45840,-0.01148
7484.38687,-0.11173
7486.31533,-0.12967
7488.24380,-0.01627
7490.17227,0.16685
7492.10074,0.21018
7494.02921,0.16749
7495.95768,0.14241
7497.88615,0.14204
