399.19301,10.66275
401.12148,2.85273
403.04995,1.25813
404.97842,0.19501
406.90689,-0.07283
408.83536,0.21123
410.76382,0.48761
412.69229,0.37002
414.62076,1.34127
416.54923,4.01630
418.47770,4.86224
420.40617,1.66770
422.33464,-0.12693
424.26311,-0.36611
426.19157,-0.23136
428.12004,0.01878
430.04851,-0.07309
431.97698,-0.27675
433.90545,-0.15021
435.83392,-0.07550
437.76239,-0.17363
439.69085,-0.17618
441.61932,-0.03789
443.54779,0.08548
445.47626,0.11618
447.40473,0.12522
449.33320,0.15219
451.26167,0.13532
453.19013,0.03039
455.11860,-0.07531
457.04707,-0.02950
458.97554,0.09442
460.90401,0.15421
462.83248,0.17797
464.76095,0.17985
466.68942,0.13680
468.61788,0.07841
470.54635,0.06875
472.47482,0.46312
474.40329,1.28774
476.33176,1.07908
478.26023,0.42699
480.18870,0.11412
482.11716,0.04797
484.04563,0.05890
485.97410,0.07410
487.90257,0.05436
489.83104,0.06436
491.75951,0.09503
493.68798,0.08790
495.61645,0.08109
497.54491,0.10326
499.47338,0.14699
501.40185,0.15648
503.33032,0.05592
505.25879,-0.07282
507.18726,-0.10639
509.11573,-0.05232
511.04419,0.01335
512.97266,0.07586
514.90113,0.13042
516.82960,0.18085
518.75807,0.20551
520.68654,0.17387
522.61501,0.13019
524.54348,0.10797
526.47194,0.12578
528.40041,0.17893
530.32888,0.20887
532.25735,0.18652
534.18582,0.14385
536.11429,0.11012
538.04276,0.08876
539.97122,0.09552
541.89969,0.13017
543.82816,0.14624
545.75663,0.13749
547.68510,0.13796
549.61357,0.13051
551.54204,0.10767
553.47051,0.08159
555.39897,0.06727
557.32744,0.10309
559.25591,0.14420
561.18438,0.12796
563.11285,0.10524
565.04132,0.12311
566.96979,0.13348
568.89825,0.12040
570.82672,0.12514
572.75519,0.14253
574.68366,0.14391
576.61213,0.13139
578.54060,0.12892
580.46907,0.13118
582.39754,0.12636
584.32600,0.12464
586.25447,0.12549
588.18294,0.12865
590.11141,0.13948
592.03988,0.14657
593.96835,0.13494
595.89682,0.11283
597.82528,0.10294
599.75375,0.11934
601.68222,0.14265
603.61069,0.15268
605.53916,0.16105
607.46763,0.16232
609.39610,0.15059
611.32456,0.14042
613.25303,0.13082
615.18150,0.12721
617.10997,0.15118
619.03844,0.18439
620.96691,0.18321
622.89538,0.15113
624.82385,0.12289
626.75231,0.11245
628.68078,0.11843
630.60925,0.13378
632.53772,0.14043
634.46619,0.13766
636.39466,0.13929
638.32313,0.13741
640.25159,0.13004
642.18006,0.13116
644.10853,0.13312
646.03700,0.12578
647.96547,0.11930
649.89394,0.11447
651.82241,0.11164
653.75088,0.11316
655.67934,0.11025
657.60781,0.11394
659.53628,0.12048
661.46475,0.11313
663.39322,0.11217
665.32169,0.12408
667.25016,0.13543
669.17862,0.14426
671.10709,0.15028
673.03556,0.15340
674.96403,0.15701
676.89250,0.15977
678.82097,0.15102
680.74944,0.13371
682.67791,0.12561
684.60637,0.12711
686.53484,0.12771
688.46331,0.12547
690.39178,0.12610
692.32025,0.14095
694.24872,0.16762
696.17719,0.17660
698.10565,0.15667
700.03412,0.14237
701.96259,0.15391
703.89106,0.16747
705.81953,0.16160
707.74800,0.15452
709.67647,0.17633
711.60494,0.20955
713.53340,0.20924
715.46187,0.17879
717.39034,0.15818
719.31881,0.16002
721.24728,0.16653
723.17575,0.16506
725.10422,0.16147
727.03268,0.15999
728.96115,0.15568
730.88962,0.15080
732.81809,0.15330
734.74656,0.15755
736.67503,0.15719
738.60350,0.15533
740.53197,0.14904
742.46043,0.13833
744.38890,0.13087
746.31737,0.12938
748.24584,0.13503
750.17431,0.14479
752.10278,0.14930
754.03125,0.14838
755.95971,0.14867
757.88818,0.14728
759.81665,0.14087
761.74512,0.13909
763.67359,0.14678
765.60206,0.14889
767.53053,0.13866
769.45900,0.13389
771.38746,0.14123
773.31593,0.14988
775.24440,0.15469
777.17287,0.15088
779.10134,0.13856
781.02981,0.13086
782.95828,0.13612
784.88674,0.14478
786.81521,0.14519
788.74368,0.14173
790.67215,0.14698
792.60062,0.15568
794.52909,0.15135
796.45756,0.14028
798.38602,0.13573
800.31449,0.13671
802.24296,0.13626
804.17143,0.13311
806.09990,0.13764
808.02837,0.14745
809.95684,0.15349
811.88531,0.15970
813.81377,0.16147
815.74224,0.15294
817.67071,0.14113
819.59918,0.13093
821.52765,0.12735
823.45612,0.12906
825.38459,0.13187
827.31305,0.13869
829.24152,0.14621
831.16999,0.15057
833.09846,0.15283
835.02693,0.15395
836.95540,0.15570
838.88387,0.16150
840.81234,0.16636
842.74080,0.16370
844.66927,0.16127
846.59774,0.16054
848.52621,0.15442
850.45468,0.14860
852.38315,0.14807
854.31162,0.14863
856.24008,0.14964
858.16855,0.14800
860.09702,0.14341
862.02549,0.14245
863.95396,0.14501
865.88243,0.15424
867.81090,0.20795
869.73937,0.31008
871.66783,0.33273
873.59630,0.22964
875.52477,0.14316
877.45324,0.13130
879.38171,0.14408
881.31018,0.15715
883.23865,0.15793
885.16711,0.14859
887.09558,0.13877
889.02405,0.13544
890.95252,0.14200
892.88099,0.14805
894.80946,0.14905
896.73793,0.15296
898.66640,0.15891
900.59486,0.15957
902.52333,0.15519
904.45180,0.15208
906.38027,0.15524
908.30874,0.16189
910.23721,0.16287
912.16568,0.15699
914.09414,0.15385
916.02261,0.15406
917.95108,0.15597
919.87955,0.16412
921.80802,0.16853
923.73649,0.15977
925.66496,0.15136
927.59343,0.15373
929.52189,0.15740
931.45036,0.15537
933.37883,0.15123
935.30730,0.14719
937.23577,0.14669
939.16424,0.15194
941.09271,0.15600
943.02117,0.15502
944.94964,0.15258
946.87811,0.14953
948.80658,0.14844
950.73505,0.15316
952.66352,0.15868
954.59199,0.15546
956.52045,0.14666
958.44892,0.14640
960.37739,0.15397
962.30586,0.15879
964.23433,0.15954
966.16280,0.15705
968.09127,0.15215
970.01974,0.14966
971.94820,0.15430
973.87667,0.16060
975.80514,0.16094
977.73361,0.16067
979.66208,0.16061
981.59055,0.15863
983.51902,0.15937
985.44748,0.15838
987.37595,0.15422
989.30442,0.15256
991.23289,0.14905
993.16136,0.14237
995.08983,0.13931
997.01830,0.14090
998.94677,0.14514
1000.87523,0.15217
1002.80370,0.16087
1004.73217,0.16314
1006.66064,0.15594
1008.58911,0.15332
1010.51758,0.16107
1012.44605,0.16823
1014.37451,0.17024
1016.30298,0.16836
1018.23145,0.16771
1020.15992,0.17761
1022.08839,0.18811
1024.01686,0.18184
1025.94533,0.17026
1027.87380,0.17046
1029.80226,0.17603
1031.73073,0.17475
1033.65920,0.16928
1035.58767,0.16463
1037.51614,0.15843
1039.44461,0.15546
1041.37308,0.16110
1043.30154,0.17012
1045.23001,0.17812
1047.15848,0.18226
1049.08695,0.17850
1051.01542,0.17015
1052.94389,0.16685
1054.87236,0.17252
1056.80083,0.18094
1058.72929,0.18119
1060.65776,0.17472
1062.58623,0.17796
1064.51470,0.18818
1066.44317,0.18502
1068.37164,0.17292
1070.30011,0.17068
1072.22857,0.17793
1074.15704,0.18301
1076.08551,0.18124
1078.01398,0.17856
1079.94245,0.18233
1081.87092,0.18533
1083.79939,0.18093
1085.72786,0.17682
1087.65632,0.17547
1089.58479,0.17218
1091.51326,0.16860
1093.44173,0.17038
1095.37020,0.17620
1097.29867,0.17660
1099.22714,0.17524
1101.15560,0.18319
1103.08407,0.18765
1105.01254,0.18022
1106.94101,0.17596
1108.86948,0.17684
1110.79795,0.17400
1112.72642,0.16829
1114.65489,0.16976
1116.58335,0.18270
1118.51182,0.19165
1120.44029,0.18541
1122.36876,0.17722
1124.29723,0.17747
1126.22570,0.17467
1128.15417,0.16257
1130.08263,0.15321
1132.01110,0.15191
1133.93957,0.15477
1135.86804,0.16090
1137.79651,0.16846
1139.72498,0.17268
1141.65345,0.17133
1143.58191,0.16870
1145.51038,0.17105
1147.43885,0.17749
1149.36732,0.18173
1151.29579,0.18014
1153.22426,0.17624
1155.15273,0.17438
1157.08120,0.17430
1159.00966,0.17661
1160.93813,0.18103
1162.86660,0.18420
1164.79507,0.18627
1166.72354,0.18808
1168.65201,0.18836
1170.58048,0.18618
1172.50894,0.18097
1174.43741,0.17681
1176.36588,0.17647
1178.29435,0.17674
1180.22282,0.17804
1182.15129,0.18039
1184.07976,0.17843
1186.00823,0.17358
1187.93669,0.17331
1189.86516,0.17521
1191.79363,0.17477
1193.72210,0.17497
1195.65057,0.17558
1197.57904,0.17535
1199.50751,0.17517
1201.43597,0.17322
1203.36444,0.17075
1205.29291,0.17143
1207.22138,0.17484
1209.14985,0.17886
1211.07832,0.18023
1213.00679,0.17873
1214.93526,0.17948
1216.86372,0.18247
1218.79219,0.18427
1220.72066,0.18424
1222.64913,0.18277
1224.57760,0.18230
1226.50607,0.18407
1228.43454,0.18366
1230.36300,0.18106
1232.29147,0.18255
1234.21994,0.18403
1236.14841,0.17986
1238.07688,0.17817
1240.00535,0.18288
1241.93382,0.18537
1243.86229,0.18247
1245.79075,0.18022
1247.71922,0.18101
1249.64769,0.18204
1251.57616,0.17961
1253.50463,0.17371
1255.43310,0.17045
1257.36157,0.17396
1259.29003,0.18112
1261.21850,0.18628
1263.14697,0.18538
1265.07544,0.17797
1267.00391,0.17113
1268.93238,0.17307
1270.86085,0.18169
1272.78932,0.18943
1274.71778,0.19302
1276.64625,0.19270
1278.57472,0.18912
1280.50319,0.18473
1282.43166,0.18249
1284.36013,0.18324
1286.28860,0.18494
1288.21706,0.18631
1290.14553,0.18833
1292.07400,0.19026
1294.00247,0.19219
1295.93094,0.19354
1297.85941,0.18950
1299.78788,0.18100
1301.71634,0.17445
1303.64481,0.17118
1305.57328,0.17102
1307.50175,0.17385
1309.43022,0.17616
1311.35869,0.17735
1313.28716,0.17899
1315.21563,0.17966
1317.14409,0.18174
1319.07256,0.18630
1321.00103,0.18582
1322.92950,0.18114
1324.85797,0.17932
1326.78644,0.18097
1328.71491,0.18411
1330.64337,0.18519
1332.57184,0.18383
1334.50031,0.18315
1336.42878,0.18475
1338.35725,0.18847
1340.28572,0.18839
1342.21419,0.18483
1344.14266,0.18538
1346.07112,0.18735
1347.99959,0.18798
1349.92806,0.19068
1351.85653,0.19485
1353.78500,0.19727
1355.71347,0.19588
1357.64194,0.19282
1359.57040,0.19287
1361.49887,0.19572
1363.42734,0.19543
1365.35581,0.19146
1367.28428,0.18952
1369.21275,0.18923
1371.14122,0.18974
1373.06969,0.19220
1374.99815,0.19136
1376.92662,0.18655
1378.85509,0.18542
1380.78356,0.18865
1382.71203,0.19119
1384.64050,0.19175
1386.56897,0.19276
1388.49743,0.19423
1390.42590,0.19563
1392.35437,0.19782
1394.28284,0.19863
1396.21131,0.19706
1398.13978,0.19758
1400.06825,0.19886
1401.99672,0.19760
1403.92518,0.19449
1405.85365,0.19139
1407.78212,0.19264
1409.71059,0.19705
1411.63906,0.19674
1413.56753,0.19350
1415.49600,0.19993
1417.42446,0.21668
1419.35293,0.22299
1421.28140,0.21340
1423.20987,0.20490
1425.13834,0.19781
1427.06681,0.19237
1428.99528,0.19029
1430.92375,0.18883
1432.85221,0.19072
1434.78068,0.20086
1436.70915,0.20901
1438.63762,0.20276
1440.56609,0.19595
1442.49456,0.19407
1444.42303,0.19587
1446.35149,0.20097
1448.27996,0.20519
1450.20843,0.20634
1452.13690,0.20723
1454.06537,0.21251
1455.99384,0.22809
1457.92231,0.23825
1459.85077,0.22382
1461.77924,0.20998
1463.70771,0.20470
1465.63618,0.20276
1467.56465,0.19866
1469.49312,0.20051
1471.42159,0.21422
1473.35006,0.22563
1475.27852,0.22138
1477.20699,0.21360
1479.13546,0.20783
1481.06393,0.20624
1482.99240,0.20826
1484.92087,0.21304
1486.84934,0.22023
1488.77780,0.22524
1490.70627,0.22061
1492.63474,0.21258
1494.56321,0.21056
1496.49168,0.21181
1498.42015,0.20885
1500.34862,0.20660
1502.27709,0.21198
1504.20555,0.22809
1506.13402,0.25055
1508.06249,0.24222
1509.99096,0.22539
1511.91943,0.22296
1513.84790,0.22780
1515.77637,0.23732
1517.70483,0.24201
1519.63330,0.24204
1521.56177,0.24535
1523.49024,0.24018
1525.41871,0.22795
1527.34718,0.21460
1529.27565,0.20522
1531.20412,0.20827
1533.13258,0.22129
1535.06105,0.22435
1536.98952,0.22025
1538.91799,0.22768
1540.84646,0.24410
1542.77493,0.23798
1544.70340,0.21986
1546.63186,0.20606
1548.56033,0.20255
1550.48880,0.20561
1552.41727,0.21020
1554.34574,0.21718
1556.27421,0.22667
1558.20268,0.24097
1560.13115,0.23811
1562.05961,0.21994
1563.98808,0.20833
1565.91655,0.20390
1567.84502,0.20710
1569.77349,0.21112
1571.70196,0.20880
1573.63043,0.21099
1575.55889,0.21833
1577.48736,0.21308
1579.41583,0.20174
1581.34430,0.19565
1583.27277,0.19106
1585.20124,0.18808
1587.12971,0.18967
1589.05818,0.19437
1590.98664,0.19772
1592.91511,0.19775
1594.84358,0.19677
1596.77205,0.19653
1598.70052,0.19806
1600.62899,0.19981
1602.55746,0.19849
1604.48592,0.19627
1606.41439,0.19821
1608.34286,0.20381
1610.27133,0.20703
1612.19980,0.20755
1614.12827,0.21089
1616.05674,0.21637
1617.98521,0.21539
1619.91367,0.21336
1621.84214,0.21524
1623.77061,0.21482
1625.69908,0.21286
1627.62755,0.21330
1629.55602,0.21314
1631.48449,0.21422
1633.41295,0.22255
1635.34142,0.23703
1637.26989,0.23511
1639.19836,0.22295
1641.12683,0.21673
1643.05530,0.21682
1644.98377,0.22590
1646.91223,0.24148
1648.84070,0.24293
1650.76917,0.24108
1652.69764,0.24815
1654.62611,0.24172
1656.55458,0.22727
1658.48305,0.22467
1660.41152,0.23648
1662.33998,0.24955
1664.26845,0.24203
1666.19692,0.22688
1668.12539,0.22517
1670.05386,0.23397
1671.98233,0.23449
1673.91080,0.23357
1675.83926,0.23128
1677.76773,0.22477
1679.69620,0.22544
1681.62467,0.23683
1683.55314,0.24870
1685.48161,0.23968
1687.41008,0.22663
1689.33855,0.22010
1691.26701,0.21529
1693.19548,0.21429
1695.12395,0.22175
1697.05242,0.23372
1698.98089,0.23885
1700.90936,0.23493
1702.83783,0.23019
1704.76629,0.22871
1706.69476,0.22351
1708.62323,0.21512
1710.55170,0.21154
1712.48017,0.21659
1714.40864,0.23044
1716.33711,0.24437
1718.26558,0.23690
1720.19404,0.21941
1722.12251,0.21107
1724.05098,0.20940
1725.97945,0.21061
1727.90792,0.21474
1729.83639,0.22138
1731.76486,0.22711
1733.69332,0.22527
1735.62179,0.21803
1737.55026,0.21776
1739.47873,0.22014
1741.40720,0.21844
1743.33567,0.21618
1745.26414,0.21718
1747.19261,0.22129
1749.12107,0.22570
1751.04954,0.22183
1752.97801,0.21566
1754.90648,0.21591
1756.83495,0.21713
1758.76342,0.21678
1760.69189,0.21925
1762.62035,0.21914
1764.54882,0.21350
1766.47729,0.21114
1768.40576,0.21471
1770.33423,0.22221
1772.26270,0.22685
1774.19117,0.21988
1776.11964,0.21127
1778.04810,0.20936
1779.97657,0.21126
1781.90504,0.21043
1783.83351,0.20834
1785.76198,0.20748
1787.69045,0.20639
1789.61892,0.20867
1791.54738,0.21699
1793.47585,0.22074
1795.40432,0.21534
1797.33279,0.21223
1799.26126,0.21574
1801.18973,0.21863
1803.11820,0.21512
1805.04666,0.21015
1806.97513,0.20791
1808.90360,0.20768
1810.83207,0.20789
1812.76054,0.20746
1814.68901,0.20634
1816.61748,0.20399
1818.54595,0.19741
1820.47441,0.19050
1822.40288,0.19428
1824.33135,0.20603
1826.25982,0.21199
1828.18829,0.21362
1830.11676,0.21598
1832.04523,0.21376
1833.97369,0.20804
1835.90216,0.20393
1837.83063,0.20253
1839.75910,0.20261
1841.68757,0.20534
1843.61604,0.21087
1845.54451,0.21254
1847.47298,0.20881
1849.40144,0.20462
1851.32991,0.20286
1853.25838,0.20504
1855.18685,0.20957
1857.11532,0.21248
1859.04379,0.21186
1860.97226,0.21001
1862.90072,0.20985
1864.82919,0.21237
1866.75766,0.21692
1868.68613,0.22064
1870.61460,0.21906
1872.54307,0.21304
1874.47154,0.20776
1876.40001,0.20602
1878.32847,0.20631
1880.25694,0.20644
1882.18541,0.20536
1884.11388,0.20338
1886.04235,0.20429
1887.97082,0.20913
1889.89929,0.21152
1891.82775,0.21000
1893.75622,0.21003
1895.68469,0.21134
1897.61316,0.20982
1899.54163,0.20691
1901.47010,0.20536
1903.39857,0.20413
1905.32704,0.20426
1907.25550,0.20556
1909.18397,0.20634
1911.11244,0.20787
1913.04091,0.20857
1914.96938,0.20729
1916.89785,0.20713
1918.82632,0.20870
1920.75478,0.21108
1922.68325,0.21292
1924.61172,0.20908
1926.54019,0.20180
1928.46866,0.19908
1930.39713,0.20169
1932.32560,0.20441
1934.25407,0.20562
1936.18253,0.20728
1938.11100,0.20984
1940.03947,0.21325
1941.96794,0.21480
1943.89641,0.21176
1945.82488,0.20799
1947.75335,0.20622
1949.68181,0.20555
1951.61028,0.20630
1953.53875,0.20777
1955.46722,0.20762
1957.39569,0.20651
1959.32416,0.20624
1961.25263,0.20705
1963.18110,0.20807
1965.10956,0.20890
1967.03803,0.20907
1968.96650,0.20682
1970.89497,0.20423
1972.82344,0.20515
1974.75191,0.20870
1976.68038,0.21093
1978.60884,0.20976
1980.53731,0.20742
1982.46578,0.20702
1984.39425,0.20739
1986.32272,0.20622
1988.25119,0.20402
1990.17966,0.20162
1992.10812,0.19968
1994.03659,0.19925
1995.96506,0.20028
1997.89353,0.20220
1999.82200,0.20387
2001.75047,0.20419
2003.67894,0.20508
2005.60741,0.20862
2007.53587,0.21162
2009.46434,0.21044
2011.39281,0.20687
2013.32128,0.20447
2015.24975,0.20496
2017.17822,0.20704
2019.10669,0.20826
2021.03515,0.20953
2022.96362,0.21082
2024.89209,0.20998
2026.82056,0.20840
2028.74903,0.20776
2030.67750,0.20736
2032.60597,0.20620
2034.53444,0.20465
2036.46290,0.20433
2038.39137,0.20590
2040.31984,0.20787
2042.24831,0.20799
2044.17678,0.20668
2046.10525,0.20572
2048.03372,0.20695
2049.96218,0.21030
2051.89065,0.21152
2053.81912,0.20932
2055.74759,0.20741
2057.67606,0.20668
2059.60453,0.20488
2061.53300,0.20219
2063.46147,0.20110
2065.38993,0.20309
2067.31840,0.20663
2069.24687,0.20872
2071.17534,0.20790
2073.10381,0.20608
2075.03228,0.20708
2076.96075,0.20923
2078.88921,0.20832
2080.81768,0.20673
2082.74615,0.20725
2084.67462,0.20856
2086.60309,0.20953
2088.53156,0.20983
2090.46003,0.20961
2092.38850,0.20974
2094.31696,0.21052
2096.24543,0.21036
2098.17390,0.20804
2100.10237,0.20547
2102.03084,0.20542
2103.95931,0.20810
2105.88778,0.21106
2107.81624,0.21100
2109.74471,0.20789
2111.67318,0.20611
2113.60165,0.20792
2115.53012,0.21008
2117.45859,0.20929
2119.38706,0.20637
2121.31553,0.20463
2123.24399,0.20570
2125.17246,0.20850
2127.10093,0.21171
2129.02940,0.21347
2130.95787,0.21242
2132.88634,0.20846
2134.81481,0.20384
2136.74327,0.20289
2138.67174,0.20455
2140.60021,0.20574
2142.52868,0.20678
2144.45715,0.20772
2146.38562,0.20906
2148.31409,0.21003
2150.24255,0.20991
2152.17102,0.20973
2154.09949,0.20946
2156.02796,0.20878
2157.95643,0.20747
2159.88490,0.20640
2161.81337,0.20573
2163.74184,0.20595
2165.67030,0.20810
2167.59877,0.20900
2169.52724,0.20769
2171.45571,0.20758
2173.38418,0.20831
2175.31265,0.20828
2177.24112,0.20871
2179.16958,0.20999
2181.09805,0.21043
2183.02652,0.20994
2184.95499,0.21103
2186.88346,0.21379
2188.81193,0.21498
2190.74040,0.21321
2192.66887,0.21048
2194.59733,0.20994
2196.52580,0.21112
2198.45427,0.21071
2200.38274,0.20888
2202.31121,0.20846
2204.23968,0.20971
2206.16815,0.21036
2208.09661,0.21010
2210.02508,0.21082
2211.95355,0.21168
2213.88202,0.21189
2215.81049,0.21348
2217.73896,0.21463
2219.66743,0.21276
2221.59590,0.20938
2223.52436,0.20556
2225.45283,0.20439
2227.38130,0.20799
2229.30977,0.21220
2231.23824,0.21420
2233.16671,0.21428
2235.09518,0.21334
2237.02364,0.21311
2238.95211,0.21239
2240.88058,0.21077
2242.80905,0.21026
2244.73752,0.20933
2246.66599,0.20878
2248.59446,0.21176
2250.52293,0.21417
2252.45139,0.21203
2254.37986,0.20948
2256.30833,0.20869
2258.23680,0.20683
2260.16527,0.20421
2262.09374,0.20375
2264.02221,0.20691
2265.95067,0.21027
2267.87914,0.20992
2269.80761,0.20898
2271.73608,0.20991
2273.66455,0.21147
2275.59302,0.21398
2277.52149,0.21614
2279.44996,0.21544
2281.37842,0.21330
2283.30689,0.21208
2285.23536,0.21064
2287.16383,0.20779
2289.09230,0.20663
2291.02077,0.20864
2292.94924,0.20893
2294.87770,0.20639
2296.80617,0.20461
2298.73464,0.20272
2300.66311,0.20013
2302.59158,0.19899
2304.52005,0.19952
2306.44852,0.20217
2308.37699,0.20774
2310.30545,0.21328
2312.23392,0.21421
2314.16239,0.21028
2316.09086,0.20405
2318.01933,0.19849
2319.94780,0.19752
2321.87627,0.20148
2323.80473,0.20482
2325.73320,0.20589
2327.66167,0.21042
2329.59014,0.22069
2331.51861,0.23177
2333.44708,0.23322
2335.37555,0.22315
2337.30401,0.21487
2339.23248,0.21253
2341.16095,0.21221
2343.08942,0.21394
2345.01789,0.21374
2346.94636,0.21443
2348.87483,0.21854
2350.80330,0.22392
2352.73176,0.23079
2354.66023,0.23965
2356.58870,0.24758
2358.51717,0.24683
2360.44564,0.22820
2362.37411,0.21204
2364.30258,0.22471
2366.23104,0.23508
2368.15951,0.22405
2370.08798,0.21875
2372.01645,0.22225
2373.94492,0.22317
2375.87339,0.21927
2377.80186,0.21243
2379.73033,0.20893
2381.65879,0.21025
2383.58726,0.21194
2385.51573,0.21285
2387.44420,0.21310
2389.37267,0.21099
2391.30114,0.20789
2393.22961,0.20714
2395.15807,0.20812
2397.08654,0.20843
2399.01501,0.20789
2400.94348,0.20806
2402.87195,0.20941
2404.80042,0.20992
2406.72889,0.21019
2408.65736,0.21256
2410.58582,0.21273
2412.51429,0.20883
2414.44276,0.20720
2416.37123,0.20820
2418.29970,0.20855
2420.22817,0.20991
2422.15664,0.21183
2424.08510,0.21184
2426.01357,0.21091
2427.94204,0.21020
2429.87051,0.20967
2431.79898,0.21000
2433.72745,0.21129
2435.65592,0.21312
2437.58439,0.21487
2439.51285,0.21484
2441.44132,0.21180
2443.36979,0.20847
2445.29826,0.20920
2447.22673,0.21207
2449.15520,0.21144
2451.08367,0.20565
2453.01213,0.19910
2454.94060,0.19739
2456.86907,0.20081
2458.79754,0.20532
2460.72601,0.20706
2462.65448,0.20840
2464.58295,0.21156
2466.51142,0.21247
2468.43988,0.21108
2470.36835,0.21152
2472.29682,0.21432
2474.22529,0.21604
2476.15376,0.21421
2478.08223,0.21055
2480.01070,0.20843
2481.93916,0.20854
2483.86763,0.20983
2485.79610,0.21265
2487.72457,0.21528
2489.65304,0.21499
2491.58151,0.21348
2493.50998,0.21351
2495.43844,0.21367
2497.36691,0.21225
2499.29538,0.21157
2501.22385,0.21181
2503.15232,0.21061
2505.08079,0.20904
2507.00926,0.20966
2508.93773,0.21243
2510.86619,0.21407
2512.79466,0.21286
2514.72313,0.21031
2516.65160,0.20779
2518.58007,0.20697
2520.50854,0.20866
2522.43701,0.21129
2524.36547,0.21298
2526.29394,0.21264
2528.22241,0.21310
2530.15088,0.21632
2532.07935,0.21780
2534.00782,0.21658
2535.93629,0.21518
2537.86476,0.21247
2539.79322,0.20913
2541.72169,0.20842
2543.65016,0.21113
2545.57863,0.21370
2547.50710,0.21336
2549.43557,0.21348
2551.36404,0.21645
2553.29250,0.21882
2555.22097,0.21754
2557.14944,0.21376
2559.07791,0.21057
2561.00638,0.21018
2562.93485,0.21327
2564.86332,0.21666
2566.79179,0.21734
2568.72025,0.21742
2570.64872,0.21673
2572.57719,0.21300
2574.50566,0.20812
2576.43413,0.20597
2578.36260,0.20821
2580.29107,0.21168
2582.21953,0.21335
2584.14800,0.21390
2586.07647,0.21453
2588.00494,0.21537
2589.93341,0.21599
2591.86188,0.21581
2593.79035,0.21449
2595.71882,0.21362
2597.64728,0.21443
2599.57575,0.21484
2601.50422,0.21383
2603.43269,0.21306
2605.36116,0.21296
2607.28963,0.21298
2609.21810,0.21321
2611.14656,0.21387
2613.07503,0.21453
2615.00350,0.21453
2616.93197,0.21437
2618.86044,0.21430
2620.78891,0.21460
2622.71738,0.21477
2624.64585,0.21354
2626.57431,0.21320
2628.50278,0.21532
2630.43125,0.21715
2632.35972,0.21639
2634.28819,0.21515
2636.21666,0.21518
2638.14513,0.21327
2640.07359,0.21071
2642.00206,0.21311
2643.93053,0.21787
2645.85900,0.21973
2647.78747,0.21893
2649.71594,0.21656
2651.64441,0.21451
2653.57288,0.21511
2655.50134,0.21740
2657.42981,0.21768
2659.35828,0.21492
2661.28675,0.21372
2663.21522,0.21601
2665.14369,0.21910
2667.07216,0.22006
2669.00062,0.21827
2670.92909,0.21683
2672.85756,0.21747
2674.78603,0.21928
2676.71450,0.22093
2678.64297,0.22326
2680.57144,0.22549
2682.49990,0.22374
2684.42837,0.22045
2686.35684,0.21937
2688.28531,0.21916
2690.21378,0.21904
2692.14225,0.21925
2694.07072,0.22013
2695.99919,0.22117
2697.92765,0.22114
2699.85612,0.22032
2701.78459,0.21897
2703.71306,0.21839
2705.64153,0.22078
2707.57000,0.22327
2709.49847,0.22300
2711.42693,0.22304
2713.35540,0.22485
2715.28387,0.22443
2717.21234,0.21999
2719.14081,0.21597
2721.06928,0.21614
2722.99775,0.21955
2724.92622,0.22336
2726.85468,0.22402
2728.78315,0.22098
2730.71162,0.21956
2732.64009,0.22191
2734.56856,0.22471
2736.49703,0.22629
2738.42550,0.22584
2740.35396,0.22506
2742.28243,0.22576
2744.21090,0.22554
2746.13937,0.22328
2748.06784,0.21923
2749.99631,0.21562
2751.92478,0.21578
2753.85325,0.21911
2755.78171,0.22253
2757.71018,0.22425
2759.63865,0.22394
2761.56712,0.22140
2763.49559,0.21946
2765.42406,0.22094
2767.35253,0.22454
2769.28099,0.22934
2771.20946,0.23263
2773.13793,0.23165
2775.06640,0.22957
2776.99487,0.22806
2778.92334,0.22566
2780.85181,0.22281
2782.78028,0.22142
2784.70874,0.22375
2786.63721,0.22792
2788.56568,0.22998
2790.49415,0.22968
2792.42262,0.22810
2794.35109,0.22721
2796.27956,0.22924
2798.20802,0.23234
2800.13649,0.23175
2802.06496,0.22852
2803.99343,0.22840
2805.92190,0.23066
2807.85037,0.23105
2809.77884,0.23108
2811.70731,0.23295
2813.63577,0.23377
2815.56424,0.23084
2817.49271,0.22691
2819.42118,0.22603
2821.34965,0.22766
2823.27812,0.22978
2825.20659,0.23180
2827.13505,0.23156
2829.06352,0.22897
2830.99199,0.22829
2832.92046,0.23075
2834.84893,0.23224
2836.77740,0.23050
2838.70587,0.22778
2840.63433,0.22492
2842.56280,0.22225
2844.49127,0.22278
2846.41974,0.22681
2848.34821,0.23268
2850.27668,0.23811
2852.20515,0.23878
2854.13362,0.23522
2856.06208,0.23142
2857.99055,0.22880
2859.91902,0.22828
2861.84749,0.22981
2863.77596,0.23158
2865.70443,0.23163
2867.63290,0.22961
2869.56136,0.22597
2871.48983,0.22311
2873.41830,0.22391
2875.34677,0.22683
2877.27524,0.23058
2879.20371,0.23581
2881.13218,0.24064
2883.06065,0.24085
2884.98911,0.23661
2886.91758,0.23397
2888.84605,0.23367
2890.77452,0.23235
2892.70299,0.23013
2894.63146,0.22754
2896.55993,0.22647
2898.48839,0.22818
2900.41686,0.22912
2902.34533,0.22756
2904.27380,0.22577
2906.20227,0.22515
2908.13074,0.22492
2910.05921,0.22371
2911.98768,0.22272
2913.91614,0.22302
2915.84461,0.22427
2917.77308,0.22552
2919.70155,0.22555
2921.63002,0.22643
2923.55849,0.22709
2925.48696,0.22704
2927.41542,0.23369
2929.34389,0.24274
2931.27236,0.24126
2933.20083,0.23381
2935.12930,0.22871
2937.05777,0.22328
2938.98624,0.22026
2940.91471,0.22285
2942.84317,0.22564
2944.77164,0.22571
2946.70011,0.22530
2948.62858,0.22787
2950.55705,0.23260
2952.48552,0.23535
2954.41399,0.23317
2956.34245,0.22432
2958.27092,0.21606
2960.19939,0.21761
2962.12786,0.22224
2964.05633,0.22325
2965.98480,0.22530
2967.91327,0.22725
2969.84174,0.22737
2971.77020,0.22830
2973.69867,0.22922
2975.62714,0.22957
2977.55561,0.23058
2979.48408,0.23359
2981.41255,0.23682
2983.34102,0.23958
2985.26948,0.24330
2987.19795,0.24349
2989.12642,0.23916
2991.05489,0.23622
2992.98336,0.23671
2994.91183,0.23744
2996.84030,0.23455
2998.76877,0.23103
3000.69723,0.23318
3002.62570,0.23779
3004.55417,0.23825
3006.48264,0.23591
3008.41111,0.23443
3010.33958,0.23276
3012.26805,0.22676
3014.19651,0.21299
3016.12498,0.19835
3018.05345,0.19859
3019.98192,0.21348
3021.91039,0.22762
3023.83886,0.23367
3025.76733,0.23302
3027.69579,0.23178
3029.62426,0.23405
3031.55273,0.23744
3033.48120,0.23941
3035.40967,0.23865
3037.33814,0.23761
3039.26661,0.23882
3041.19508,0.23862
3043.12354,0.23626
3045.05201,0.23356
3046.98048,0.23032
3048.90895,0.23093
3050.83742,0.23518
3052.76589,0.23616
3054.69436,0.23136
3056.62282,0.22405
3058.55129,0.22393
3060.47976,0.23159
3062.40823,0.23688
3064.33670,0.23725
3066.26517,0.23420
3068.19364,0.22904
3070.12211,0.22388
3072.05057,0.22276
3073.97904,0.22554
3075.90751,0.22527
3077.83598,0.22493
3079.76445,0.22932
3081.69292,0.23195
3083.62139,0.22554
3085.54985,0.21464
3087.47832,0.21413
3089.40679,0.22537
3091.33526,0.23457
3093.26373,0.23488
3095.19220,0.23285
3097.12067,0.23465
3099.04914,0.23487
3100.97760,0.22968
3102.90607,0.22292
3104.83454,0.22003
3106.76301,0.22312
3108.69148,0.22791
3110.61995,0.22999
3112.54842,0.23209
3114.47688,0.23679
3116.40535,0.23813
3118.33382,0.23564
3120.26229,0.23601
3122.19076,0.23779
3124.11923,0.23693
3126.04770,0.23641
3127.97617,0.23860
3129.90463,0.24033
3131.83310,0.24026
3133.76157,0.23823
3135.69004,0.23605
3137.61851,0.23819
3139.54698,0.24130
3141.47545,0.23798
3143.40391,0.23198
3145.33238,0.23204
3147.26085,0.23713
3149.18932,0.24102
3151.11779,0.24078
3153.04626,0.24040
3154.97473,0.24170
3156.90320,0.23907
3158.83166,0.23526
3160.76013,0.23405
3162.68860,0.23206
3164.61707,0.23143
3166.54554,0.23252
3168.47401,0.23187
3170.40248,0.23198
3172.33094,0.23514
3174.25941,0.23886
3176.18788,0.24059
3178.11635,0.24254
3180.04482,0.24576
3181.97329,0.24487
3183.90176,0.24003
3185.83022,0.23753
3187.75869,0.23724
3189.68716,0.23569
3191.61563,0.23561
3193.54410,0.23942
3195.47257,0.24095
3197.40104,0.23605
3199.32951,0.23335
3201.25797,0.23893
3203.18644,0.24500
3205.11491,0.24543
3207.04338,0.24264
3208.97185,0.24111
3210.90032,0.24231
3212.82879,0.24299
3214.75725,0.24157
3216.68572,0.23949
3218.61419,0.23822
3220.54266,0.23829
3222.47113,0.23891
3224.39960,0.23915
3226.32807,0.23941
3228.25654,0.24094
3230.18500,0.24039
3232.11347,0.23746
3234.04194,0.23796
3235.97041,0.23992
3237.89888,0.24016
3239.82735,0.23870
3241.75582,0.23449
3243.68428,0.23230
3245.61275,0.23459
3247.54122,0.23674
3249.46969,0.23694
3251.39816,0.23587
3253.32663,0.23554
3255.25510,0.23779
3257.18357,0.23880
3259.11203,0.23549
3261.04050,0.23134
3262.96897,0.22988
3264.89744,0.23334
3266.82591,0.24045
3268.75438,0.24395
3270.68285,0.24069
3272.61131,0.23722
3274.53978,0.23642
3276.46825,0.23426
3278.39672,0.23338
3280.32519,0.23701
3282.25366,0.24251
3284.18213,0.24726
3286.11060,0.24593
3288.03906,0.23796
3289.96753,0.23232
3291.89600,0.23210
3293.82447,0.23567
3295.75294,0.24089
3297.68141,0.24210
3299.60988,0.23897
3301.53834,0.23668
3303.46681,0.23758
3305.39528,0.23801
3307.32375,0.23650
3309.25222,0.23585
3311.18069,0.23534
3313.10916,0.23542
3315.03763,0.23649
3316.96609,0.23699
3318.89456,0.23823
3320.82303,0.24028
3322.75150,0.23819
3324.67997,0.23261
3326.60844,0.23098
3328.53691,0.23331
3330.46537,0.23865
3332.39384,0.24686
3334.32231,0.25113
3336.25078,0.24843
3338.17925,0.24274
3340.10772,0.23683
3342.03619,0.23434
3343.96466,0.23932
3345.89312,0.24552
3347.82159,0.24570
3349.75006,0.24413
3351.67853,0.24549
3353.60700,0.24760
3355.53547,0.24716
3357.46394,0.24508
3359.39240,0.24461
3361.32087,0.24462
3363.24934,0.24291
3365.17781,0.24279
3367.10628,0.24460
3369.03475,0.24381
3370.96322,0.24030
3372.89168,0.23807
3374.82015,0.23879
3376.74862,0.24179
3378.67709,0.24638
3380.60556,0.24919
3382.53403,0.24678
3384.46250,0.23885
3386.39097,0.23119
3388.31943,0.23092
3390.24790,0.23690
3392.17637,0.24290
3394.10484,0.24489
3396.03331,0.24508
3397.96178,0.24214
3399.89025,0.23391
3401.81871,0.22787
3403.74718,0.22867
3405.67565,0.23467
3407.60412,0.24118
3409.53259,0.24273
3411.46106,0.23966
3413.38953,0.23638
3415.31800,0.23666
3417.24646,0.23931
3419.17493,0.24049
3421.10340,0.23997
3423.03187,0.23840
3424.96034,0.23434
3426.88881,0.22752
3428.81728,0.22346
3430.74574,0.22743
3432.67421,0.23629
3434.60268,0.24219
3436.53115,0.23687
3438.45962,0.22575
3440.38809,0.22501
3442.31656,0.23241
3444.24503,0.23683
3446.17349,0.23624
3448.10196,0.23190
3450.03043,0.22801
3451.95890,0.22384
3453.88737,0.21820
3455.81584,0.21634
3457.74431,0.21866
3459.67277,0.22110
3461.60124,0.22130
3463.52971,0.21816
3465.45818,0.21455
3467.38665,0.21484
3469.31512,0.21750
3471.24359,0.21967
3473.17206,0.22162
3475.10052,0.22111
3477.02899,0.21633
3478.95746,0.21169
3480.88593,0.21192
3482.81440,0.21452
3484.74287,0.21580
3486.67134,0.21539
3488.59980,0.21225
3490.52827,0.20885
3492.45674,0.20725
3494.38521,0.20537
3496.31368,0.20447
3498.24215,0.20802
3500.17062,0.21343
3502.09909,0.21442
3504.02755,0.20904
3505.95602,0.20367
3507.88449,0.20362
3509.81296,0.20171
3511.74143,0.19536
3513.66990,0.19480
3515.59837,0.19864
3517.52683,0.20098
3519.45530,0.20346
3521.38377,0.20401
3523.31224,0.19985
3525.24071,0.19866
3527.16918,0.20321
3529.09765,0.20368
3531.02611,0.19921
3532.95458,0.19701
3534.88305,0.19709
3536.81152,0.19474
3538.73999,0.19204
3540.66846,0.19278
3542.59693,0.19403
3544.52540,0.19479
3546.45386,0.19277
3548.38233,0.18932
3550.31080,0.18925
3552.23927,0.18789
3554.16774,0.18411
3556.09621,0.18083
3558.02468,0.17610
3559.95314,0.17065
3561.88161,0.17140
3563.81008,0.18086
3565.73855,0.18995
3567.66702,0.18878
3569.59549,0.18114
3571.52396,0.17639
3573.45243,0.17598
3575.38089,0.17619
3577.30936,0.17610
3579.23783,0.17536
3581.16630,0.17161
3583.09477,0.17170
3585.02324,0.18517
3586.95171,0.20106
3588.88017,0.19434
3590.80864,0.17966
3592.73711,0.17503
3594.66558,0.17793
3596.59405,0.18117
3598.52252,0.17876
3600.45099,0.17275
3602.37946,0.17019
3604.30792,0.17388
3606.23639,0.18168
3608.16486,0.18567
3610.09333,0.17969
3612.02180,0.17298
3613.95027,0.17434
3615.87874,0.18057
3617.80720,0.18290
3619.73567,0.17312
3621.66414,0.15765
3623.59261,0.15032
3625.52108,0.15193
3627.44955,0.15843
3629.37802,0.16075
3631.30649,0.15632
3633.23495,0.15662
3635.16342,0.16007
3637.09189,0.15997
3639.02036,0.15739
3640.94883,0.15559
3642.87730,0.15543
3644.80577,0.16015
3646.73423,0.17276
3648.66270,0.18587
3650.59117,0.17661
3652.51964,0.15782
3654.44811,0.14693
3656.37658,0.14375
3658.30505,0.14793
3660.23352,0.15291
3662.16198,0.15238
3664.09045,0.14991
3666.01892,0.15196
3667.94739,0.15906
3669.87586,0.16373
3671.80433,0.15971
3673.73280,0.15925
3675.66126,0.16488
3677.58973,0.16369
3679.51820,0.15856
3681.44667,0.15489
3683.37514,0.15313
3685.30361,0.15560
3687.23208,0.16257
3689.16055,0.16548
3691.08901,0.15732
3693.01748,0.15188
3694.94595,0.15113
3696.87442,0.14884
3698.80289,0.14587
3700.73136,0.14349
3702.65983,0.14304
3704.58829,0.14731
3706.51676,0.15314
3708.44523,0.15936
3710.37370,0.16675
3712.30217,0.16764
3714.23064,0.16179
3716.15911,0.15698
3718.08757,0.15157
3720.01604,0.14370
3721.94451,0.13939
3723.87298,0.14608
3725.80145,0.15389
3727.72992,0.15118
3729.65839,0.14758
3731.58686,0.15219
3733.51532,0.16223
3735.44379,0.16854
3737.37226,0.16818
3739.30073,0.16609
3741.22920,0.16544
3743.15767,0.16480
3745.08614,0.15841
3747.01460,0.15375
3748.94307,0.16079
3750.87154,0.17232
3752.80001,0.17154
3754.72848,0.16684
3756.65695,0.16383
3758.58542,0.15906
3760.51389,0.15294
3762.44235,0.14861
3764.37082,0.14572
3766.29929,0.14449
3768.22776,0.14633
3770.15623,0.14744
3772.08470,0.14483
3774.01317,0.14124
3775.94163,0.13943
3777.87010,0.14045
3779.79857,0.14106
3781.72704,0.14308
3783.65551,0.14699
3785.58398,0.14480
3787.51245,0.14105
3789.44092,0.14247
3791.36938,0.14192
3793.29785,0.14013
3795.22632,0.14371
3797.15479,0.14666
3799.08326,0.14470
3801.01173,0.14389
3802.94020,0.14356
3804.86866,0.14500
3806.79713,0.15121
3808.72560,0.15170
3810.65407,0.14529
3812.58254,0.14328
3814.51101,0.14767
3816.43948,0.15076
3818.36795,0.14966
3820.29641,0.15038
3822.22488,0.14964
3824.15335,0.14845
3826.08182,0.14961
3828.01029,0.14793
3829.93876,0.14649
3831.86723,0.14816
3833.79569,0.14531
3835.72416,0.14111
3837.65263,0.14820
3839.58110,0.15767
3841.50957,0.15444
3843.43804,0.14866
3845.36651,0.14531
3847.29498,0.14161
3849.22344,0.13921
3851.15191,0.13986
3853.08038,0.13857
3855.00885,0.13227
3856.93732,0.13159
3858.86579,0.13449
3860.79426,0.13977
3862.72272,0.14695
3864.65119,0.14821
3866.57966,0.14284
3868.50813,0.13936
3870.43660,0.14158
3872.36507,0.14617
3874.29354,0.14592
3876.22200,0.14049
3878.15047,0.13632
3880.07894,0.13753
3882.00741,0.14280
3883.93588,0.14677
3885.86435,0.14201
3887.79282,0.13176
3889.72129,0.13135
3891.64975,0.13910
3893.57822,0.13673
3895.50669,0.12837
3897.43516,0.12724
3899.36363,0.13254
3901.29210,0.13999
3903.22057,0.14448
3905.14903,0.13800
3907.07750,0.12871
3909.00597,0.12575
3910.93444,0.12552
3912.86291,0.12599
3914.79138,0.12822
3916.71985,0.12772
3918.64832,0.12702
3920.57678,0.13225
3922.50525,0.13475
3924.43372,0.12918
3926.36219,0.12608
3928.29066,0.13126
3930.21913,0.13617
3932.14760,0.13561
3934.07606,0.13376
3936.00453,0.13254
3937.93300,0.12945
3939.86147,0.12586
3941.78994,0.12413
3943.71841,0.12092
3945.64688,0.11737
3947.57535,0.11789
3949.50381,0.12158
3951.43228,0.12585
3953.36075,0.12934
3955.28922,0.13249
3957.21769,0.13461
3959.14616,0.13228
3961.07463,0.12676
3963.00309,0.12344
3964.93156,0.12418
3966.86003,0.12896
3968.78850,0.13407
3970.71697,0.13268
3972.64544,0.12710
3974.57391,0.12279
3976.50238,0.11923
3978.43084,0.11594
3980.35931,0.11405
3982.28778,0.11611
3984.21625,0.12170
3986.14472,0.12310
3988.07319,0.11645
3990.00166,0.10896
3991.93012,0.10956
3993.85859,0.11615
3995.78706,0.12013
3997.71553,0.11858
3999.64400,0.11452
4001.57247,0.11110
4003.50094,0.10875
4005.42941,0.10945
4007.35787,0.11278
4009.28634,0.11455
4011.21481,0.11470
4013.14328,0.11414
4015.07175,0.11380
4017.00022,0.11161
4018.92869,0.10729
4020.85715,0.10859
4022.78562,0.11313
4024.71409,0.11371
4026.64256,0.11245
4028.57103,0.11344
4030.49950,0.11851
4032.42797,0.11854
4034.35644,0.10888
4036.28490,0.10430
4038.21337,0.10830
4040.14184,0.10924
4042.07031,0.10612
4043.99878,0.10766
4045.92725,0.11427
4047.85572,0.11636
4049.78418,0.11180
4051.71265,0.10613
4053.64112,0.10173
4055.56959,0.10189
4057.49806,0.10934
4059.42653,0.11394
4061.35500,0.11021
4063.28346,0.10997
4065.21193,0.11409
4067.14040,0.11201
4069.06887,0.10601
4070.99734,0.10470
4072.92581,0.10629
4074.85428,0.10746
4076.78275,0.11091
4078.71121,0.11536
4080.63968,0.11303
4082.56815,0.10337
4084.49662,0.09917
4086.42509,0.10386
4088.35356,0.10723
4090.28203,0.10532
4092.21049,0.10173
4094.13896,0.09948
4096.06743,0.09913
4097.99590,0.10066
4099.92437,0.10087
4101.85284,0.09803
4103.78131,0.09562
4105.70978,0.09631
4107.63824,0.09996
4109.56671,0.10138
4111.49518,0.09662
4113.42365,0.09111
4115.35212,0.09101
4117.28059,0.09294
4119.20906,0.09298
4121.13752,0.09551
4123.06599,0.10021
4124.99446,0.10034
4126.92293,0.09790
4128.85140,0.09673
4130.77987,0.09681
4132.70834,0.09990
4134.63681,0.10032
4136.56527,0.09350
4138.49374,0.08771
4140.42221,0.08687
4142.35068,0.08852
4144.27915,0.09239
4146.20762,0.09499
4148.13609,0.09188
4150.06455,0.08590
4151.99302,0.08349
4153.92149,0.08573
4155.84996,0.08883
4157.77843,0.09270
4159.70690,0.09788
4161.63537,0.10206
4163.56384,0.10241
4165.49230,0.09644
4167.42077,0.09212
4169.34924,0.09772
4171.27771,0.10264
4173.20618,0.09810
4175.13465,0.09154
4177.06312,0.09069
4178.99158,0.09455
4180.92005,0.09539
4182.84852,0.09143
4184.77699,0.08680
4186.70546,0.08018
4188.63393,0.07637
4190.56240,0.08256
4192.49087,0.09156
4194.41933,0.09616
4196.34780,0.09765
4198.27627,0.09529
4200.20474,0.08898
4202.13321,0.08440
4204.06168,0.08336
4205.99015,0.08395
4207.91861,0.08528
4209.84708,0.08509
4211.77555,0.08446
4213.70402,0.08339
4215.63249,0.07909
4217.56096,0.07445
4219.48943,0.07213
4221.41789,0.07290
4223.34636,0.07742
4225.27483,0.08160
4227.20330,0.08181
4229.13177,0.08117
4231.06024,0.08369
4232.98871,0.08420
4234.91718,0.07771
4236.84564,0.07358
4238.77411,0.07955
4240.70258,0.08607
4242.63105,0.08413
4244.55952,0.08039
4246.48799,0.07888
4248.41646,0.07547
4250.34492,0.07272
4252.27339,0.07224
4254.20186,0.07015
4256.13033,0.06825
4258.05880,0.06990
4259.98727,0.07158
4261.91574,0.07102
4263.84421,0.06857
4265.77267,0.06356
4267.70114,0.05857
4269.62961,0.05722
4271.55808,0.06319
4273.48655,0.07235
4275.41502,0.07162
4277.34349,0.06324
4279.27195,0.06252
4281.20042,0.07283
4283.12889,0.08392
4285.05736,0.08579
4286.98583,0.07853
4288.91430,0.06886
4290.84277,0.06493
4292.77124,0.06838
4294.69970,0.07192
4296.62817,0.07299
4298.55664,0.07279
4300.48511,0.07152
4302.41358,0.06900
4304.34205,0.06344
4306.27052,0.05837
4308.19898,0.05778
4310.12745,0.05940
4312.05592,0.06315
4313.98439,0.06855
4315.91286,0.07007
4317.84133,0.06761
4319.76980,0.06483
4321.69827,0.06387
4323.62673,0.06562
4325.55520,0.06686
4327.48367,0.06540
4329.41214,0.05905
4331.34061,0.05131
4333.26908,0.05256
4335.19755,0.05886
4337.12601,0.06017
4339.05448,0.05777
4340.98295,0.05410
4342.91142,0.05090
4344.83989,0.05387
4346.76836,0.06259
4348.69683,0.07030
4350.62530,0.07306
4352.55376,0.07060
4354.48223,0.06382
4356.41070,0.05508
4358.33917,0.05072
4360.26764,0.05229
4362.19611,0.05254
4364.12458,0.05054
4366.05304,0.05152
4367.98151,0.05203
4369.90998,0.04935
4371.83845,0.04796
4373.76692,0.04766
4375.69539,0.04512
4377.62386,0.04225
4379.55232,0.04643
4381.48079,0.05686
4383.40926,0.05935
4385.33773,0.05030
4387.26620,0.04305
4389.19467,0.04237
4391.12314,0.04274
4393.05161,0.04320
4394.98007,0.04282
4396.90854,0.03953
4398.83701,0.03409
4400.76548,0.02930
4402.69395,0.02911
4404.62242,0.03593
4406.55089,0.04681
4408.47935,0.05106
4410.40782,0.04407
4412.33629,0.03823
4414.26476,0.04409
4416.19323,0.05497
4418.12170,0.05736
4420.05017,0.04619
4421.97864,0.03348
4423.90710,0.02779
4425.83557,0.02214
4427.76404,0.01973
4429.69251,0.02473
4431.62098,0.02985
4433.54945,0.03260
4435.47792,0.03374
4437.40638,0.03466
4439.33485,0.03584
4441.26332,0.03563
4443.19179,0.03322
4445.12026,0.02990
4447.04873,0.02908
4448.97720,0.03026
4450.90567,0.03136
4452.83413,0.03092
4454.76260,0.02775
4456.69107,0.02882
4458.61954,0.03895
4460.54801,0.04687
4462.47648,0.04337
4464.40495,0.03403
4466.33341,0.03085
4468.26188,0.03655
4470.19035,0.03614
4472.11882,0.02636
4474.04729,0.02663
4475.97576,0.04057
4477.90423,0.04956
4479.83270,0.04802
4481.76116,0.04331
4483.68963,0.03469
4485.61810,0.02742
4487.54657,0.02734
4489.47504,0.02537
4491.40351,0.02271
4493.33198,0.02884
4495.26044,0.03648
4497.18891,0.03007
4499.11738,0.01301
4501.04585,0.00642
4502.97432,0.01348
4504.90279,0.01926
4506.83126,0.01834
4508.75973,0.01612
4510.68819,0.01439
4512.61666,0.00934
4514.54513,0.00405
4516.47360,0.00601
4518.40207,0.01355
4520.33054,0.02339
4522.25901,0.03228
4524.18747,0.03271
4526.11594,0.02674
4528.04441,0.02151
4529.97288,0.01453
4531.90135,0.00830
4533.82982,0.01384
4535.75829,0.02459
4537.68676,0.02487
4539.61522,0.01968
4541.54369,0.02198
4543.47216,0.02736
4545.40063,0.02517
4547.32910,0.01569
4549.25757,0.00576
4551.18604,0.00386
4553.11450,0.01041
4555.04297,0.01881
4556.97144,0.02660
4558.89991,0.02803
4560.82838,0.02065
4562.75685,0.01275
4564.68532,0.01596
4566.61378,0.02648
4568.54225,0.02341
4570.47072,0.00654
4572.39919,-0.00328
4574.32766,0.00138
4576.25613,0.01191
4578.18460,0.02080
4580.11307,0.02447
4582.04153,0.02041
4583.97000,0.01047
4585.89847,0.00369
4587.82694,0.00783
4589.75541,0.01596
4591.68388,0.01796
4593.61235,0.01511
4595.54081,0.01242
4597.46928,0.01249
4599.39775,0.01720
4601.32622,0.02486
4603.25469,0.02802
4605.18316,0.02497
4607.11163,0.02477
4609.04010,0.03001
4610.96856,0.03271
4612.89703,0.02786
4614.82550,0.01910
4616.75397,0.01083
4618.68244,0.00047
4620.61091,-0.00855
4622.53938,-0.00208
4624.46784,0.01929
4626.39631,0.03429
4628.32478,0.03311
4630.25325,0.03025
4632.18172,0.03098
4634.11019,0.02716
4636.03866,0.02134
4637.96713,0.01425
4639.89559,0.00568
4641.82406,0.00197
4643.75253,-0.00045
4645.68100,-0.00280
4647.60947,0.00182
4649.53794,0.00843
4651.46641,0.00898
4653.39487,0.00553
4655.32334,0.00385
4657.25181,0.00595
4659.18028,0.00979
4661.10875,0.01759
4663.03722,0.02670
4664.96569,0.02549
4666.89416,0.01596
4668.82262,0.01055
4670.75109,0.01208
4672.67956,0.01480
4674.60803,0.01594
4676.53650,0.01683
4678.46497,0.01599
4680.39344,0.01690
4682.32190,0.02057
4684.25037,0.01620
4686.17884,0.00838
4688.10731,0.01052
4690.03578,0.01516
4691.96425,0.01158
4693.89272,0.00248
4695.82119,-0.00441
4697.74965,-0.00125
4699.67812,0.00604
4701.60659,0.00295
4703.53506,-0.00317
4705.46353,-0.00176
4707.39200,-0.00280
4709.32047,-0.00741
4711.24893,-0.00471
4713.17740,0.00552
4715.10587,0.01568
4717.03434,0.01678
4718.96281,0.00900
4720.89128,0.00396
4722.81975,0.00611
4724.74821,0.00863
4726.67668,0.01021
4728.60515,0.01794
4730.53362,0.03000
4732.46209,0.03481
4734.39056,0.02821
4736.31903,0.02048
4738.24750,0.02068
4740.17596,0.01871
4742.10443,0.00501
4744.03290,-0.00340
4745.96137,0.00291
4747.88984,0.00727
4749.81831,0.00890
4751.74678,0.01710
4753.67524,0.02271
4755.60371,0.01646
4757.53218,0.00085
4759.46065,-0.00910
4761.38912,-0.00253
4763.31759,0.00974
4765.24606,0.01655
4767.17453,0.01728
4769.10299,0.01332
4771.03146,0.00691
4772.95993,0.00217
4774.88840,0.00479
4776.81687,0.00772
4778.74534,0.00172
4780.67381,-0.00395
4782.60227,-0.00286
4784.53074,-0.00078
4786.45921,-0.00413
4788.38768,-0.01335
4790.31615,-0.01389
4792.24462,0.00409
4794.17309,0.02644
4796.10156,0.03419
4798.03002,0.02516
4799.95849,0.01630
4801.88696,0.01785
4803.81543,0.01888
4805.74390,0.01741
4807.67237,0.01995
4809.60084,0.02069
4811.52930,0.01315
4813.45777,0.00216
4815.38624,0.00167
4817.31471,0.01381
4819.24318,0.02059
4821.17165,0.00802
4823.10012,-0.00935
4825.02859,-0.01633
4826.95705,-0.02237
4828.88552,-0.02353
4830.81399,-0.01070
4832.74246,0.00176
4834.67093,0.00261
4836.59940,0.00220
4838.52787,0.00781
4840.45633,0.00549
4842.38480,-0.00603
4844.31327,-0.00638
4846.24174,0.00540
4848.17021,0.01527
4850.09868,0.02247
4852.02715,0.02208
4853.95562,0.00811
4855.88408,-0.00148
4857.81255,0.00360
4859.74102,0.00533
4861.66949,-0.00069
4863.59796,-0.00150
4865.52643,-0.00096
4867.45490,0.00203
4869.38336,0.01239
4871.31183,0.01484
4873.24030,0.00425
4875.16877,-0.00609
4877.09724,-0.00877
4879.02571,-0.00103
4880.95418,0.01454
4882.88265,0.02342
4884.81111,0.02172
4886.73958,0.02031
4888.66805,0.02039
4890.59652,0.01940
4892.52499,0.02081
4894.45346,0.02136
4896.38193,0.01595
4898.31039,0.01218
4900.23886,0.01201
4902.16733,0.01057
4904.09580,0.01002
4906.02427,0.00783
4907.95274,0.00826
4909.88121,0.01689
4911.80967,0.02519
4913.73814,0.03176
4915.66661,0.03948
4917.59508,0.04057
4919.52355,0.03099
4921.45202,0.02122
4923.38049,0.01582
4925.30896,0.01376
4927.23742,0.01785
4929.16589,0.01811
4931.09436,0.00689
4933.02283,-0.00168
4934.95130,0.00490
4936.87977,0.01837
4938.80824,0.02453
4940.73670,0.02444
4942.66517,0.03141
4944.59364,0.04144
4946.52211,0.03573
4948.45058,0.01765
4950.37905,0.00696
4952.30752,0.00704
4954.23599,0.00417
4956.16445,-0.00059
4958.09292,0.00266
4960.02139,0.00947
4961.94986,0.01598
4963.87833,0.02086
4965.80680,0.02537
4967.73527,0.02885
4969.66373,0.02558
4971.59220,0.02206
4973.52067,0.02307
4975.44914,0.02339
4977.37761,0.02024
4979.30608,0.01655
4981.23455,0.02268
4983.16302,0.03442
4985.09148,0.03166
4987.01995,0.02236
4988.94842,0.02649
4990.87689,0.03042
4992.80536,0.02537
4994.73383,0.02586
4996.66230,0.02392
4998.59076,0.01455
5000.51923,0.01260
5002.44770,0.01332
5004.37617,0.01609
5006.30464,0.02920
5008.23311,0.03459
5010.16158,0.01874
5012.09005,-0.00213
5014.01851,-0.00936
5015.94698,0.00047
5017.87545,0.01282
5019.80392,0.01106
5021.73239,0.00967
5023.66086,0.02322
5025.58933,0.03144
5027.51779,0.02918
5029.44626,0.03264
5031.37473,0.03916
5033.30320,0.03754
5035.23167,0.02779
5037.16014,0.01642
5039.08861,0.00848
5041.01708,0.01502
5042.94554,0.03624
5044.87401,0.05051
5046.80248,0.03919
5048.73095,0.00952
5050.65942,-0.00403
5052.58789,0.00694
5054.51636,0.01232
5056.44482,0.00639
5058.37329,0.00349
5060.30176,0.00946
5062.23023,0.02596
5064.15870,0.04055
5066.08717,0.03381
5068.01564,0.01487
5069.94410,0.01267
5071.87257,0.02392
5073.80104,0.02082
5075.72951,0.00726
5077.65798,0.01418
5079.58645,0.03849
5081.51492,0.04582
5083.44339,0.03281
5085.37185,0.02198
5087.30032,0.02403
5089.22879,0.03644
5091.15726,0.04648
5093.08573,0.04544
5095.01420,0.03864
5096.94267,0.02462
5098.87113,0.00295
5100.79960,-0.01178
5102.72807,-0.01272
5104.65654,-0.00175
5106.58501,0.02116
5108.51348,0.04691
5110.44195,0.06178
5112.37042,0.06061
5114.29888,0.04281
5116.22735,0.01460
5118.15582,-0.00607
5120.08429,-0.00821
5122.01276,0.00357
5123.94123,0.02289
5125.86970,0.04050
5127.79816,0.04707
5129.72663,0.04389
5131.65510,0.03569
5133.58357,0.03343
5135.51204,0.03849
5137.44051,0.02699
5139.36898,-0.00171
5141.29745,-0.00759
5143.22591,0.02687
5145.15438,0.06174
5147.08285,0.06494
5149.01132,0.05234
5150.93979,0.03809
5152.86826,0.03108
5154.79673,0.04329
5156.72519,0.05900
5158.65366,0.05518
5160.58213,0.04314
5162.51060,0.03763
5164.43907,0.03200
5166.36754,0.03203
5168.29601,0.05172
5170.22448,0.06676
5172.15294,0.05383
5174.08141,0.03589
5176.00988,0.02630
5177.93835,0.02615
5179.86682,0.04142
5181.79529,0.05992
5183.72376,0.07344
5185.65222,0.07927
5187.58069,0.06189
5189.50916,0.03098
5191.43763,0.01389
5193.36610,0.01249
5195.29457,0.02144
5197.22304,0.03779
5199.15151,0.05026
5201.07997,0.05122
5203.00844,0.03435
5204.93691,0.01151
5206.86538,0.00648
5208.79385,0.01368
5210.72232,0.01722
5212.65079,0.01932
5214.57925,0.02820
5216.50772,0.03968
5218.43619,0.03850
5220.36466,0.02596
5222.29313,0.02427
5224.22160,0.04139
5226.15007,0.05653
5228.07854,0.05199
5230.00700,0.04429
5231.93547,0.04855
5233.86394,0.05072
5235.79241,0.04493
5237.72088,0.04403
5239.64935,0.04536
5241.57782,0.04423
5243.50628,0.04612
5245.43475,0.05422
5247.36322,0.06088
5249.29169,0.04706
5251.22016,0.02053
5253.14863,0.00998
5255.07710,0.02329
5257.00556,0.04894
5258.93403,0.06107
5260.86250,0.05410
5262.79097,0.05441
5264.71944,0.07037
5266.64791,0.08209
5268.57638,0.07640
5270.50485,0.06346
5272.43331,0.06472
5274.36178,0.07149
5276.29025,0.06207
5278.21872,0.04858
5280.14719,0.05062
5282.07566,0.05153
5284.00413,0.04078
5285.93259,0.04399
5287.86106,0.06434
5289.78953,0.06082
5291.71800,0.02683
5293.64647,0.01470
5295.57494,0.03691
5297.50341,0.05877
5299.43188,0.05662
5301.36034,0.05599
5303.28881,0.08617
5305.21728,0.11362
5307.14575,0.09919
5309.07422,0.05842
5311.00269,0.02754
5312.93116,0.00996
5314.85962,0.00207
5316.78809,0.02112
5318.71656,0.05801
5320.64503,0.07488
5322.57350,0.07278
5324.50197,0.07551
5326.43044,0.08081
5328.35891,0.08313
5330.28737,0.08362
5332.21584,0.07312
5334.14431,0.05935
5336.07278,0.06473
5338.00125,0.08580
5339.92972,0.09880
5341.85819,0.09516
5343.78665,0.07923
5345.71512,0.06033
5347.64359,0.05102
5349.57206,0.05165
5351.50053,0.05579
5353.42900,0.05451
5355.35747,0.04519
5357.28594,0.05134
5359.21440,0.08499
5361.14287,0.11047
5363.07134,0.10548
5364.99981,0.09325
5366.92828,0.09260
5368.85675,0.09899
5370.78522,0.09727
5372.71368,0.09144
5374.64215,0.09972
5376.57062,0.10692
5378.49909,0.08095
5380.42756,0.04684
5382.35603,0.03760
5384.28450,0.04238
5386.21297,0.04377
5388.14143,0.04556
5390.06990,0.04762
5391.99837,0.05078
5393.92684,0.05593
5395.85531,0.05700
5397.78378,0.05627
5399.71225,0.04965
5401.64071,0.03669
5403.56918,0.04707
5405.49765,0.07781
5407.42612,0.08258
5409.35459,0.06035
5411.28306,0.04197
5413.21153,0.03304
5415.13999,0.04095
5417.06846,0.07193
5418.99693,0.10339
5420.92540,0.11298
5422.85387,0.10819
5424.78234,0.11562
5426.71081,0.14103
5428.63928,0.14307
5430.56774,0.10484
5432.49621,0.07173
5434.42468,0.04634
5436.35315,0.02729
5438.28162,0.04114
5440.21009,0.07171
5442.13856,0.08761
5444.06702,0.08256
5445.99549,0.08125
5447.92396,0.10280
5449.85243,0.10939
5451.78090,0.09504
5453.70937,0.10216
5455.63784,0.12404
5457.56631,0.12365
5459.49477,0.10292
5461.42324,0.08807
5463.35171,0.08561
5465.28018,0.07991
5467.20865,0.06920
5469.13712,0.06506
5471.06559,0.06571
5472.99405,0.07056
5474.92252,0.07022
5476.85099,0.05703
5478.77946,0.05038
5480.70793,0.05126
5482.63640,0.05220
5484.56487,0.05768
5486.49334,0.06854
5488.42180,0.07823
5490.35027,0.08697
5492.27874,0.09388
5494.20721,0.08644
5496.13568,0.07624
5498.06415,0.08087
5499.99262,0.08631
5501.92108,0.07786
5503.84955,0.07836
5505.77802,0.09773
5507.70649,0.10721
5509.63496,0.09433
5511.56343,0.06909
5513.49190,0.03985
5515.42037,0.02560
5517.34883,0.04120
5519.27730,0.07158
5521.20577,0.09682
5523.13424,0.11478
5525.06271,0.13163
5526.99118,0.13960
5528.91965,0.12139
5530.84811,0.09733
5532.77658,0.08286
5534.70505,0.07249
5536.63352,0.07484
5538.56199,0.08598
5540.49046,0.10324
5542.41893,0.11399
5544.34740,0.10632
5546.27586,0.10502
5548.20433,0.11856
5550.13280,0.12003
5552.06127,0.09203
5553.98974,0.05733
5555.91821,0.05126
5557.84668,0.07391
5559.77514,0.10222
5561.70361,0.11704
5563.63208,0.09517
5565.56055,0.04732
5567.48902,0.03023
5569.41749,0.05660
5571.34596,0.07830
5573.27443,0.07253
5575.20289,0.06515
5577.13136,0.07468
5579.05983,0.09220
5580.98830,0.10289
5582.91677,0.10463
5584.84524,0.10382
5586.77371,0.09139
5588.70217,0.07623
5590.63064,0.08984
5592.55911,0.11747
5594.48758,0.11048
5596.41605,0.07160
5598.34452,0.04300
5600.27299,0.04686
5602.20145,0.07996
5604.12992,0.11337
5606.05839,0.11576
5607.98686,0.08770
5609.91533,0.06832
5611.84380,0.07464
5613.77227,0.07485
5615.70074,0.06620
5617.62920,0.06065
5619.55767,0.05040
5621.48614,0.04645
5623.41461,0.05677
5625.34308,0.06010
5627.27155,0.05138
5629.20002,0.05899
5631.12848,0.08395
5633.05695,0.09304
5634.98542,0.09059
5636.91389,0.09824
5638.84236,0.09833
5640.77083,0.09527
5642.69930,0.09886
5644.62777,0.08882
5646.55623,0.07305
5648.48470,0.06848
5650.41317,0.06488
5652.34164,0.06935
5654.27011,0.09223
5656.19858,0.10406
5658.12705,0.09447
5660.05551,0.08755
5661.98398,0.10897
5663.91245,0.15052
5665.84092,0.14886
5667.76939,0.10476
5669.69786,0.08358
5671.62633,0.09838
5673.55480,0.11129
5675.48326,0.09848
5677.41173,0.08887
5679.34020,0.10237
5681.26867,0.11374
5683.19714,0.11497
5685.12561,0.10916
5687.05408,0.08146
5688.98254,0.05390
5690.91101,0.06208
5692.83948,0.06590
5694.76795,0.03762
5696.69642,0.01458
5698.62489,0.03372
5700.55336,0.09082
5702.48183,0.12340
5704.41029,0.09631
5706.33876,0.07206
5708.26723,0.09033
5710.19570,0.10368
5712.12417,0.09532
5714.05264,0.09439
5715.98111,0.09206
5717.90957,0.06997
5719.83804,0.04138
5721.76651,0.03447
5723.69498,0.06126
5725.62345,0.09918
5727.55192,0.12386
5729.48039,0.12928
5731.40886,0.10843
5733.33732,0.06880
5735.26579,0.03995
5737.19426,0.03852
5739.12273,0.06901
5741.05120,0.12167
5742.97967,0.14639
5744.90814,0.11634
5746.83660,0.06473
5748.76507,0.04300
5750.69354,0.06555
5752.62201,0.08984
5754.55048,0.09716
5756.47895,0.08615
5758.40742,0.04706
5760.33588,0.02471
5762.26435,0.04254
5764.19282,0.06781
5766.12129,0.09113
5768.04976,0.09392
5769.97823,0.05593
5771.90670,0.01984
5773.83517,0.02407
5775.76363,0.03289
5777.69210,0.03568
5779.62057,0.05685
5781.54904,0.07604
5783.47751,0.08119
5785.40598,0.09243
5787.33445,0.12211
5789.26291,0.16707
5791.19138,0.20200
5793.11985,0.19855
5795.04832,0.15217
5796.97679,0.08339
5798.90526,0.04719
5800.83373,0.07235
5802.76220,0.09784
5804.69066,0.08735
5806.61913,0.09404
5808.54760,0.11562
5810.47607,0.11736
5812.40454,0.11625
5814.33301,0.12166
5816.26148,0.14009
5818.18994,0.17709
5820.11841,0.18564
5822.04688,0.13333
5823.97535,0.07496
5825.90382,0.06802
5827.83229,0.08501
5829.76076,0.07509
5831.68923,0.06473
5833.61769,0.09285
5835.54616,0.14079
5837.47463,0.16559
5839.40310,0.14076
5841.33157,0.09833
5843.26004,0.07640
5845.18851,0.07041
5847.11697,0.08204
5849.04544,0.09997
5850.97391,0.10270
5852.90238,0.10540
5854.83085,0.12011
5856.75932,0.13714
5858.68779,0.14746
5860.61626,0.14659
5862.54472,0.12554
5864.47319,0.08919
5866.40166,0.07841
5868.33013,0.10063
5870.25860,0.11118
5872.18707,0.09787
5874.11554,0.07331
5876.04400,0.06248
5877.97247,0.09025
5879.90094,0.11457
5881.82941,0.09258
5883.75788,0.06523
5885.68635,0.06293
5887.61482,0.05805
5889.54329,0.05328
5891.47175,0.06598
5893.40022,0.07397
5895.32869,0.06633
5897.25716,0.05885
5899.18563,0.05486
5901.11410,0.06082
5903.04257,0.09363
5904.97103,0.11671
5906.89950,0.10754
5908.82797,0.08857
5910.75644,0.05131
5912.68491,0.03489
5914.61338,0.07866
5916.54185,0.10638
5918.47032,0.08694
5920.39878,0.07568
5922.32725,0.09824
5924.25572,0.14511
5926.18419,0.16910
5928.11266,0.14571
5930.04113,0.12090
5931.96960,0.12732
5933.89806,0.15289
5935.82653,0.15470
5937.75500,0.12873
5939.68347,0.11828
5941.61194,0.11745
5943.54041,0.09995
5945.46888,0.09722
5947.39734,0.12620
5949.32581,0.13980
5951.25428,0.11301
5953.18275,0.08514
5955.11122,0.09662
5957.03969,0.12699
5958.96816,0.13516
5960.89663,0.13149
5962.82509,0.13085
5964.75356,0.11205
5966.68203,0.08493
5968.61050,0.10131
5970.53897,0.13098
5972.46744,0.11373
5974.39591,0.08754
5976.32437,0.08526
5978.25284,0.09633
5980.18131,0.10668
5982.10978,0.09319
5984.03825,0.06175
5985.96672,0.06092
5987.89519,0.07679
5989.82366,0.07056
5991.75212,0.09227
5993.68059,0.12816
5995.60906,0.11110
5997.53753,0.07133
5999.46600,0.06274
6001.39447,0.08451
6003.32294,0.10407
6005.25140,0.11907
6007.17987,0.13592
6009.10834,0.12454
6011.03681,0.08160
6012.96528,0.04145
6014.89375,0.02752
6016.82222,0.05024
6018.75069,0.09692
6020.67915,0.11798
6022.60762,0.09827
6024.53609,0.06951
6026.46456,0.06245
6028.39303,0.07087
6030.32150,0.05899
6032.24997,0.02626
6034.17843,0.01267
6036.10690,0.04768
6038.03537,0.08121
6039.96384,0.05536
6041.89231,0.01264
6043.82078,0.03500
6045.74925,0.11858
6047.67772,0.17904
6049.60618,0.18564
6051.53465,0.18126
6053.46312,0.18164
6055.39159,0.16211
6057.32006,0.11108
6059.24853,0.07734
6061.17700,0.08746
6063.10546,0.09914
6065.03393,0.10659
6066.96240,0.10802
6068.89087,0.07424
6070.81934,0.04376
6072.74781,0.05643
6074.67628,0.08330
6076.60475,0.10797
6078.53321,0.13758
6080.46168,0.14091
6082.39015,0.09573
6084.31862,0.04924
6086.24709,0.05904
6088.17556,0.11282
6090.10403,0.12616
6092.03249,0.07538
6093.96096,0.04525
6095.88943,0.06814
6097.81790,0.10426
6099.74637,0.11173
6101.67484,0.07059
6103.60331,0.04005
6105.53177,0.04536
6107.46024,0.04392
6109.38871,0.03538
6111.31718,0.03735
6113.24565,0.04430
6115.17412,0.05251
6117.10259,0.08174
6119.03106,0.13401
6120.95952,0.15412
6122.88799,0.13405
6124.81646,0.11525
6126.74493,0.12111
6128.67340,0.14834
6130.60187,0.18192
6132.53034,0.19354
6134.45880,0.14669
6136.38727,0.07898
6138.31574,0.06247
6140.24421,0.07008
6142.17268,0.03467
6144.10115,0.00182
6146.02962,0.04164
6147.95809,0.09532
6149.88655,0.08854
6151.81502,0.05553
6153.74349,0.06340
6155.67196,0.09850
6157.60043,0.14110
6159.52890,0.18681
6161.45737,0.20432
6163.38583,0.18928
6165.31430,0.14466
6167.24277,0.09121
6169.17124,0.07508
6171.09971,0.09130
6173.02818,0.09913
6174.95665,0.09321
6176.88512,0.09469
6178.81358,0.10179
6180.74205,0.11593
6182.67052,0.13587
6184.59899,0.13242
6186.52746,0.11187
6188.45593,0.08789
6190.38440,0.05685
6192.31286,0.05644
6194.24133,0.09293
6196.16980,0.11740
6198.09827,0.11265
6200.02674,0.09483
6201.95521,0.08833
6203.88368,0.09961
6205.81215,0.10197
6207.74061,0.10092
6209.66908,0.12461
6211.59755,0.12779
6213.52602,0.05677
6215.45449,-0.01491
6217.38296,0.00262
6219.31143,0.08827
6221.23989,0.16604
6223.16836,0.16475
6225.09683,0.10691
6227.02530,0.07728
6228.95377,0.08844
6230.88224,0.11766
6232.81071,0.11390
6234.73918,0.07134
6236.66764,0.06182
6238.59611,0.11346
6240.52458,0.16013
6242.45305,0.14588
6244.38152,0.12017
6246.30999,0.08675
6248.23846,0.04942
6250.16692,0.06233
6252.09539,0.06920
6254.02386,0.04851
6255.95233,0.02235
6257.88080,-0.01925
6259.80927,-0.01082
6261.73774,0.06925
6263.66621,0.15595
6265.59467,0.17387
6267.52314,0.11197
6269.45161,0.07384
6271.38008,0.09886
6273.30855,0.13048
6275.23702,0.12140
6277.16549,0.09381
6279.09395,0.07713
6281.02242,0.04804
6282.95089,0.02086
6284.87936,0.00962
6286.80783,-0.00695
6288.73630,-0.00928
6290.66477,0.02660
6292.59323,0.07847
6294.52170,0.08218
6296.45017,0.05714
6298.37864,0.09078
6300.30711,0.15106
6302.23558,0.15994
6304.16405,0.13382
6306.09252,0.13258
6308.02098,0.17678
6309.94945,0.19285
6311.87792,0.13369
6313.80639,0.09155
6315.73486,0.09947
6317.66333,0.09113
6319.59180,0.05444
6321.52026,0.02495
6323.44873,0.03589
6325.37720,0.06845
6327.30567,0.10558
6329.23414,0.16488
6331.16261,0.20669
6333.09108,0.19030
6335.01955,0.12628
6336.94801,0.04704
6338.87648,0.00155
6340.80495,-0.00724
6342.73342,-0.01350
6344.66189,-0.01585
6346.59036,-0.03140
6348.51883,-0.05541
6350.44729,0.01382
6352.37576,0.14825
6354.30423,0.19833
6356.23270,0.15112
6358.16117,0.05974
6360.08964,-0.00661
6362.01811,-0.00246
6363.94658,0.03713
6365.87504,0.06347
6367.80351,0.06111
6369.73198,0.04911
6371.66045,0.04854
6373.58892,0.05581
6375.51739,0.05572
6377.44586,0.02880
6379.37432,0.01032
6381.30279,0.03153
6383.23126,0.03051
6385.15973,-0.01774
6387.08820,-0.02505
6389.01667,0.03011
6390.94514,0.08024
6392.87361,0.10080
6394.80207,0.08954
6396.73054,0.04104
6398.65901,0.00827
6400.58748,0.00287
6402.51595,0.00023
6404.44442,-0.00544
6406.37289,0.01434
6408.30135,0.07210
6410.22982,0.08797
6412.15829,0.02927
6414.08676,-0.02801
6416.01523,-0.00775
6417.94370,0.06305
6419.87217,0.06811
6421.80064,0.01028
6423.72910,-0.01581
6425.65757,0.00254
6427.58604,0.00562
6429.51451,0.02344
6431.44298,0.08031
6433.37145,0.07877
6435.29992,0.02777
6437.22838,0.01833
6439.15685,0.04262
6441.08532,0.05494
6443.01379,0.05182
6444.94226,0.04632
6446.87073,0.03550
6448.79920,-0.00304
6450.72766,-0.00561
6452.65613,0.06100
6454.58460,0.08562
6456.51307,0.03682
6458.44154,0.00845
6460.37001,0.03810
6462.29848,0.07985
6464.22695,0.10565
6466.15541,0.09889
6468.08388,0.04085
6470.01235,-0.00700
6471.94082,0.00691
6473.86929,0.00626
6475.79776,-0.02371
6477.72623,-0.00163
6479.65469,0.06400
6481.58316,0.09768
6483.51163,0.06835
6485.44010,0.01924
6487.36857,-0.00406
6489.29704,0.02494
6491.22551,0.09903
6493.15398,0.13548
6495.08244,0.11373
6497.01091,0.10423
6498.93938,0.11364
6500.86785,0.07683
6502.79632,0.00713
6504.72479,0.00639
6506.65326,0.05292
6508.58172,0.08582
6510.51019,0.09131
6512.43866,0.06848
6514.36713,0.04629
6516.29560,0.02729
6518.22407,0.00504
6520.15254,-0.01606
6522.08101,-0.03129
6524.00947,-0.00943
6525.93794,0.03808
6527.86641,0.01768
6529.79488,-0.08601
6531.72335,-0.14175
6533.65182,-0.06230
6535.58029,0.05724
6537.50875,0.10089
6539.43722,0.07409
6541.36569,0.03162
6543.29416,0.00642
6545.22263,0.01301
6547.15110,0.04734
6549.07957,0.09898
6551.00804,0.13364
6552.93650,0.13601
6554.86497,0.12567
6556.79344,0.10181
6558.72191,0.05206
6560.65038,-0.02629
6562.57885,-0.09898
6564.50732,-0.08214
6566.43578,0.01362
6568.36425,0.06017
6570.29272,0.06087
6572.22119,0.08385
6574.14966,0.13227
6576.07813,0.16363
6578.00660,0.12774
6579.93507,0.07571
6581.86353,0.08623
6583.79200,0.14457
6585.72047,0.19092
6587.64894,0.18352
6589.57741,0.15034
6591.50588,0.14765
6593.43435,0.14693
6595.36281,0.10574
6597.29128,0.06704
6599.21975,0.07196
6601.14822,0.11804
6603.07669,0.12862
6605.00516,0.09501
6606.93363,0.08852
6608.86210,0.10870
6610.79056,0.13416
6612.71903,0.14638
6614.64750,0.13700
6616.57597,0.13146
6618.50444,0.10731
6620.43291,0.06878
6622.36138,0.05768
6624.28984,0.07162
6626.21831,0.07313
6628.14678,0.05916
6630.07525,0.07793
6632.00372,0.11239
6633.93219,0.10629
6635.86066,0.05191
6637.78912,-0.03323
6639.71759,-0.06583
6641.64606,0.02345
6643.57453,0.13498
6645.50300,0.12282
6647.43147,0.04432
6649.35994,0.01364
6651.28841,-0.00193
6653.21687,-0.02748
6655.14534,0.03421
6657.07381,0.20052
6659.00228,0.26018
6660.93075,0.14787
6662.85922,0.01250
6664.78769,-0.05676
6666.71615,-0.05227
6668.64462,0.01868
6670.57309,0.14125
6672.50156,0.22908
6674.43003,0.20591
6676.35850,0.15554
6678.28697,0.14193
6680.21544,0.13697
6682.14390,0.11230
6684.07237,0.08772
6686.00084,0.11359
6687.92931,0.19352
6689.85778,0.25784
6691.78625,0.22458
6693.71472,0.12428
6695.64318,0.06089
6697.57165,0.07521
6699.50012,0.08885
6701.42859,0.04646
6703.35706,0.01187
6705.28553,0.06805
6707.21400,0.18327
6709.14247,0.25462
6711.07093,0.20855
6712.99940,0.09206
6714.92787,0.01993
6716.85634,0.03701
6718.78481,0.10253
6720.71328,0.14356
6722.64175,0.15600
6724.57021,0.19219
6726.49868,0.21153
6728.42715,0.20636
6730.35562,0.20608
6732.28409,0.19581
6734.21256,0.17864
6736.14103,0.14459
6738.06950,0.12728
6739.99796,0.19000
6741.92643,0.26803
6743.85490,0.26538
6745.78337,0.18843
6747.71184,0.06481
6749.64031,-0.01617
6751.56878,0.00224
6753.49724,0.06291
6755.42571,0.11052
6757.35418,0.10643
6759.28265,-0.00145
6761.21112,-0.17423
6763.13959,-0.21084
6765.06806,-0.04327
6766.99653,0.13930
6768.92499,0.15459
6770.85346,0.07923
6772.78193,0.06040
6774.71040,0.07155
6776.63887,0.04949
6778.56734,0.04996
6780.49581,0.10589
6782.42427,0.13795
6784.35274,0.08674
6786.28121,0.05488
6788.20968,0.11168
6790.13815,0.13812
6792.06662,0.05225
6793.99509,-0.03355
6795.92355,-0.05101
6797.85202,-0.03965
6799.78049,-0.00132
6801.70896,0.06928
6803.63743,0.11455
6805.56590,0.11282
6807.49437,0.11715
6809.42284,0.13655
6811.35130,0.10683
6813.27977,0.03768
6815.20824,0.03191
6817.13671,0.07770
6819.06518,0.06648
6820.99365,0.01934
6822.92212,0.05811
6824.85058,0.14449
6826.77905,0.14385
6828.70752,0.04403
6830.63599,-0.07067
6832.56446,-0.06962
6834.49293,0.03790
6836.42140,0.12037
6838.34987,0.10498
6840.27833,0.03452
6842.20680,-0.01032
6844.13527,0.01577
6846.06374,0.05430
6847.99221,0.05931
6849.92068,0.04970
6851.84915,0.03857
6853.77761,0.02384
6855.70608,0.03524
6857.63455,0.09926
6859.56302,0.14973
6861.49149,0.13108
6863.41996,0.08508
6865.34843,0.03204
6867.27690,-0.02222
6869.20536,-0.02136
6871.13383,0.01201
6873.06230,0.02479
6874.99077,-0.00905
6876.91924,-0.05074
6878.84771,-0.05221
6880.77618,-0.00473
6882.70464,0.09212
6884.63311,0.18273
6886.56158,0.24808
6888.49005,0.30503
6890.41852,0.28298
6892.34699,0.17973
6894.27546,0.11562
6896.20393,0.12897
6898.13239,0.18695
6900.06086,0.23865
6901.98933,0.24665
6903.91780,0.21262
6905.84627,0.08507
6907.77474,-0.09118
6909.70321,-0.08576
6911.63167,0.10598
6913.56014,0.22546
6915.48861,0.17534
6917.41708,0.12854
6919.34555,0.15719
6921.27402,0.09696
6923.20249,-0.00845
6925.13096,-0.00520
6927.05942,0.02603
6928.98789,0.02678
6930.91636,0.05472
6932.84483,0.15375
6934.77330,0.24193
6936.70177,0.20792
6938.63024,0.11040
6940.55870,0.06917
6942.48717,0.06475
6944.41564,0.00353
6946.34411,-0.03771
6948.27258,0.03142
6950.20105,0.04842
6952.12952,-0.02602
6954.05799,-0.01355
6955.98645,0.05670
6957.91492,0.01376
6959.84339,-0.07007
6961.77186,-0.10060
6963.70033,-0.08979
6965.62880,-0.04525
6967.55727,0.01973
6969.48573,0.06722
6971.41420,0.05707
6973.34267,0.06050
6975.27114,0.13749
6977.19961,0.13385
6979.12808,0.07085
6981.05655,0.09485
6982.98501,0.16037
6984.91348,0.18529
6986.84195,0.17206
6988.77042,0.09586
6990.69889,0.05536
6992.62736,0.09873
6994.55583,0.11602
6996.48430,0.12979
6998.41276,0.17043
7000.34123,0.11853
7002.26970,-0.00127
7004.19817,-0.04444
7006.12664,0.07007
7008.05511,0.27151
7009.98358,0.35970
7011.91204,0.23517
7013.84051,0.02933
7015.76898,-0.00718
7017.69745,0.05151
7019.62592,0.08887
7021.55439,0.13900
7023.48286,0.10598
7025.41133,-0.03894
7027.33979,-0.08170
7029.26826,0.00083
7031.19673,0.00644
7033.12520,-0.09681
7035.05367,-0.23285
7036.98214,-0.24336
7038.91061,-0.11153
7040.83907,0.01237
7042.76754,0.04766
7044.69601,0.02609
7046.62448,0.01981
7048.55295,0.04913
7050.48142,0.06309
7052.40989,0.01703
7054.33836,-0.05752
7056.26682,-0.02122
7058.19529,0.11491
7060.12376,0.15247
7062.05223,0.11692
7063.98070,0.06847
7065.90917,0.01946
7067.83764,0.03294
7069.76610,0.07457
7071.69457,0.03944
7073.62304,0.02924
7075.55151,0.08942
7077.47998,0.10956
7079.40845,0.10722
7081.33692,0.14727
7083.26539,0.24635
7085.19385,0.34071
7087.12232,0.24999
7089.05079,0.04465
7090.97926,-0.01258
7092.90773,0.02783
7094.83620,0.07004
7096.76467,0.13864
7098.69313,0.15966
7100.62160,0.01958
7102.55007,-0.12860
7104.47854,-0.08329
7106.40701,0.09175
7108.33548,0.15257
7110.26395,0.12097
7112.19242,0.11845
7114.12088,0.14664
7116.04935,0.19930
7117.97782,0.27145
7119.90629,0.29166
7121.83476,0.19011
7123.76323,0.02673
7125.69170,-0.03869
7127.62016,0.04195
7129.54863,0.12466
7131.47710,0.08867
7133.40557,0.03296
7135.33404,0.06172
7137.26251,0.06500
7139.19098,-0.01364
7141.11944,-0.06737
7143.04791,-0.08274
7144.97638,-0.04302
7146.90485,0.10080
7148.83332,0.17700
7150.76179,0.12143
7152.69026,-0.00541
7154.61873,-0.15376
7156.54719,-0.17610
7158.47566,-0.01311
7160.40413,0.16069
7162.33260,0.12523
7164.26107,-0.01336
7166.18954,0.00428
7168.11801,0.12259
7170.04647,0.21554
7171.97494,0.21334
7173.90341,0.05799
7175.83188,-0.07354
7177.76035,-0.03096
7179.68882,0.05728
7181.61729,0.07103
7183.54576,0.08892
7185.47422,0.20007
7187.40269,0.23657
7189.33116,0.16702
7191.25963,0.11871
7193.18810,0.06313
7195.11657,-0.04124
7197.04504,-0.11920
7198.97350,-0.09929
7200.90197,0.05302
7202.83044,0.33660
7204.75891,0.63183
7206.68738,0.65862
7208.61585,0.40681
7210.54432,0.12452
7212.47279,0.05661
7214.40125,0.13661
7216.32972,0.13391
7218.25819,0.03418
7220.18666,-0.00624
7222.11513,-0.03228
7224.04360,-0.09256
7225.97207,-0.10404
7227.90053,-0.06665
7229.82900,-0.04461
7231.75747,-0.00328
7233.68594,0.08582
7235.61441,0.19562
7237.54288,0.25935
7239.47135,0.23135
7241.39982,0.15255
7243.32828,0.02487
7245.25675,-0.09294
7247.18522,-0.06758
7249.11369,0.17055
7251.04216,0.46339
7252.97063,0.37525
7254.89910,-0.02978
7256.82756,-0.20046
7258.75603,-0.14211
7260.68450,-0.00052
7262.61297,0.00406
7264.54144,-0.17698
7266.46991,-0.24727
7268.39838,-0.09793
7270.32685,0.13336
7272.25531,0.21151
7274.18378,0.08227
7276.11225,-0.01928
7278.04072,-0.05428
7279.96919,-0.02091
7281.89766,0.05709
7283.82613,0.08539
7285.75459,0.06542
7287.68306,0.03204
7289.61153,0.03627
7291.54000,0.07031
7293.46847,-0.00188
7295.39694,-0.12313
7297.32541,-0.12860
7299.25387,-0.05089
7301.18234,0.02825
7303.11081,0.06241
7305.03928,0.01656
7306.96775,-0.01942
7308.89622,0.07930
7310.82469,0.09983
7312.75316,0.00448
7314.68162,0.05241
7316.61009,0.27617
7318.53856,0.36541
7320.46703,0.26202
7322.39550,0.21626
7324.32397,0.26961
7326.25244,0.19239
7328.18090,-0.08028
7330.10937,-0.24560
7332.03784,-0.07449
7333.96631,0.11228
7335.89478,0.18472
7337.82325,0.23909
7339.75172,0.17072
7341.68019,0.00008
7343.60865,-0.01400
7345.53712,0.03270
7347.46559,-0.00928
7349.39406,-0.10948
7351.32253,-0.06064
7353.25100,0.10758
7355.17947,0.10938
7357.10793,-0.08652
7359.03640,-0.19804
7360.96487,-0.22012
7362.89334,-0.21775
7364.82181,-0.00085
7366.75028,0.29199
7368.67875,0.35741
7370.60722,0.20953
7372.53568,0.05288
7374.46415,-0.04036
7376.39262,0.02040
7378.32109,0.18007
7380.24956,0.29532
7382.17803,0.24009
7384.10650,0.01605
7386.03496,-0.13277
7387.96343,-0.05816
7389.89190,0.05046
7391.82037,0.10475
7393.74884,0.19499
7395.67731,0.27071
7397.60578,0.20104
7399.53425,0.04654
7401.46271,-0.05272
7403.39118,-0.07538
7405.31965,-0.14262
7407.24812,-0.22284
7409.17659,-0.14709
7411.10506,-0.01949
7413.03353,-0.11384
7414.96199,-0.38214
7416.89046,-0.47440
7418.81893,-0.17214
7420.74740,0.07732
7422.67587,0.07437
7424.60434,0.09924
7426.53281,0.13236
7428.46128,0.15563
7430.38974,0.28191
7432.31821,0.36220
7434.24668,0.28565
7436.17515,0.20637
7438.10362,0.22226
7440.03209,0.26057
7441.96056,0.18243
7443.88902,0.12503
7445.81749,0.26696
7447.74596,0.39577
7449.67443,0.36573
7451.60290,0.27149
7453.53137,0.12417
7455.45984,0.02547
7457.38831,0.10502
7459.31677,0.25301
7461.24524,0.20728
7463.17371,0.09945
7465.10218,0.08981
7467.03065,0.00033
7468.95912,-0.14788
7470.88759,-0.07996
7472.81605,0.06577
7474.74452,-0.00116
7476.67299,-0.03651
7478.60146,0.08493
7480.52993,0.08901
7482.45840,-0.00630
7484.38687,-0.03379
7486.31533,0.04701
7488.24380,0.24712
7490.17227,0.39787
7492.10074,0.34592
7494.02921,0.15839
7495.95768,0.00986
7497.88615,0.10692
