399.19301,6.27531
401.12148,-0.78397
403.04995,-0.88756
404.97842,-0.54343
406.90689,0.23000
408.83536,1.26555
410.76382,1.49437
412.69229,1.04299
414.62076,1.25393
416.54923,2.16491
418.47770,2.17999
420.40617,0.63254
422.33464,0.00916
424.26311,0.46888
426.19157,0.85624
428.12004,0.56315
430.04851,0.04966
431.97698,-0.17108
433.90545,-0.22507
435.83392,-0.17981
437.76239,-0.07253
439.69085,-0.04209
441.61932,-0.06043
443.54779,-0.07636
445.47626,-0.10942
447.40473,-0.06417
449.33320,0.02776
451.26167,0.01716
453.19013,-0.00721
455.11860,0.08008
457.04707,0.19166
458.97554,0.19476
460.90401,0.12674
462.83248,0.03886
464.76095,-0.02328
466.68942,-0.01084
468.61788,0.08058
470.54635,0.31285
472.47482,0.93130
474.40329,1.48812
476.33176,0.98593
478.26023,0.36614
480.18870,0.08758
482.11716,0.03191
484.04563,0.10037
485.97410,0.17946
487.90257,0.16739
489.83104,0.11622
491.75951,0.10090
493.68798,0.10701
495.61645,0.12744
497.54491,0.13798
499.47338,0.10741
501.40185,0.08969
503.33032,0.13014
505.25879,0.16409
507.18726,0.13648
509.11573,0.11354
511.04419,0.12096
512.97266,0.09727
514.90113,0.04811
516.82960,0.04571
518.75807,0.08926
520.68654,0.10777
522.61501,0.11493
524.54348,0.12876
526.47194,0.13762
528.40041,0.16452
530.32888,0.18921
532.25735,0.17683
534.18582,0.16397
536.11429,0.16412
538.04276,0.14856
539.97122,0.13990
541.89969,0.15097
543.82816,0.17269
545.75663,0.19464
547.68510,0.18622
549.61357,0.14554
551.54204,0.12934
553.47051,0.16562
555.39897,0.19734
557.32744,0.17846
559.25591,0.14180
561.18438,0.11018
563.11285,0.09131
565.04132,0.11033
566.96979,0.13051
568.89825,0.11454
570.82672,0.09960
572.75519,0.10264
574.68366,0.10888
576.61213,0.10967
578.54060,0.11058
580.46907,0.11260
582.39754,0.11877
584.32600,0.14057
586.25447,0.15215
588.18294,0.13219
590.11141,0.12435
592.03988,0.13861
593.96835,0.13162
595.89682,0.12341
597.82528,0.14560
599.75375,0.16423
601.68222,0.14447
603.61069,0.11015
605.53916,0.09422
607.46763,0.09616
609.39610,0.09441
611.32456,0.07601
613.25303,0.07238
615.18150,0.09971
617.10997,0.11334
619.03844,0.09636
620.96691,0.09218
622.89538,0.11674
624.82385,0.14356
626.75231,0.15331
628.68078,0.15448
630.60925,0.16178
632.53772,0.16096
634.46619,0.15107
636.39466,0.14595
638.32313,0.13557
640.25159,0.13132
642.18006,0.14947
644.10853,0.16073
646.03700,0.14888
647.96547,0.13878
649.89394,0.14264
651.82241,0.14701
653.75088,0.14835
655.67934,0.15280
657.60781,0.15736
659.53628,0.15738
661.46475,0.15241
663.39322,0.14397
665.32169,0.13015
667.25016,0.11324
669.17862,0.11559
671.10709,0.13535
673.03556,0.15865
674.96403,0.16747
676.89250,0.15190
678.82097,0.14737
680.74944,0.16473
682.67791,0.16724
684.60637,0.13869
686.53484,0.11311
688.46331,0.11658
690.39178,0.13311
692.32025,0.14217
694.24872,0.13893
696.17719,0.13141
698.10565,0.12547
700.03412,0.11527
701.96259,0.10690
703.89106,0.12177
705.81953,0.14492
707.74800,0.14893
709.67647,0.15358
711.60494,0.17230
713.53340,0.17953
715.46187,0.16655
717.39034,0.15033
719.31881,0.14037
721.24728,0.14362
723.17575,0.15362
725.10422,0.14911
727.03268,0.13567
728.96115,0.13591
730.88962,0.15057
732.81809,0.16658
734.74656,0.17464
736.67503,0.17449
738.60350,0.16811
740.53197,0.15291
742.46043,0.13569
744.38890,0.12814
746.31737,0.13484
748.24584,0.14754
750.17431,0.15479
752.10278,0.15716
754.03125,0.15176
755.95971,0.14030
757.88818,0.13599
759.81665,0.13737
761.74512,0.13515
763.67359,0.13066
765.60206,0.13338
767.53053,0.14299
769.45900,0.14452
771.38746,0.13434
773.31593,0.12729
775.24440,0.12627
777.17287,0.12408
779.10134,0.12918
781.02981,0.14329
782.95828,0.14909
784.88674,0.14519
786.81521,0.14359
788.74368,0.14543
790.67215,0.15200
792.60062,0.16165
794.52909,0.16746
796.45756,0.16740
798.38602,0.16110
800.31449,0.15701
802.24296,0.15937
804.17143,0.15818
806.09990,0.15204
808.02837,0.14665
809.95684,0.14144
811.88531,0.13431
813.81377,0.13248
815.74224,0.14046
817.67071,0.15102
819.59918,0.15516
821.52765,0.14972
823.45612,0.14579
825.38459,0.14760
827.31305,0.14376
829.24152,0.14214
831.16999,0.15408
833.09846,0.16766
835.02693,0.17167
836.95540,0.16667
838.88387,0.15596
840.81234,0.14248
842.74080,0.12936
844.66927,0.12215
846.59774,0.12392
848.52621,0.12960
850.45468,0.13365
852.38315,0.14249
854.31162,0.15718
856.24008,0.16445
858.16855,0.16426
860.09702,0.16831
862.02549,0.17598
863.95396,0.17255
865.88243,0.16477
867.81090,0.18548
869.73937,0.22084
871.66783,0.22258
873.59630,0.19154
875.52477,0.15947
877.45324,0.14604
879.38171,0.14858
881.31018,0.15133
883.23865,0.14986
885.16711,0.14479
887.09558,0.13727
889.02405,0.13743
890.95252,0.14652
892.88099,0.15105
894.80946,0.14820
896.73793,0.14562
898.66640,0.14493
900.59486,0.14552
902.52333,0.14931
904.45180,0.15569
906.38027,0.15627
908.30874,0.15280
910.23721,0.15679
912.16568,0.16666
914.09414,0.17372
916.02261,0.17133
917.95108,0.16450
919.87955,0.16593
921.80802,0.16923
923.73649,0.16048
925.66496,0.14796
927.59343,0.14474
929.52189,0.14355
931.45036,0.13977
933.37883,0.14488
935.30730,0.15557
937.23577,0.15552
939.16424,0.14687
941.09271,0.14109
943.02117,0.14089
944.94964,0.14641
946.87811,0.15315
948.80658,0.15380
950.73505,0.15373
952.66352,0.15709
954.59199,0.15843
956.52045,0.15842
958.44892,0.15820
960.37739,0.15748
962.30586,0.15950
964.23433,0.16259
966.16280,0.16361
968.09127,0.16427
970.01974,0.16552
971.94820,0.16588
973.87667,0.16477
975.80514,0.16162
977.73361,0.15710
979.66208,0.15537
981.59055,0.16104
983.51902,0.17106
985.44748,0.17771
987.37595,0.18129
989.30442,0.18233
991.23289,0.17791
993.16136,0.17353
995.08983,0.17249
997.01830,0.16795
998.94677,0.15979
1000.87523,0.15605
1002.80370,0.15968
1004.73217,0.16588
1006.66064,0.16715
1008.58911,0.16455
1010.51758,0.16557
1012.44605,0.16891
1014.37451,0.16879
1016.30298,0.16602
1018.23145,0.16612
1020.15992,0.16724
1022.08839,0.16275
1024.01686,0.15898
1025.94533,0.16947
1027.87380,0.19032
1029.80226,0.19385
1031.73073,0.17418
1033.65920,0.16194
1035.58767,0.16676
1037.51614,0.17357
1039.44461,0.17469
1041.37308,0.17194
1043.30154,0.17031
1045.23001,0.16790
1047.15848,0.16329
1049.08695,0.16253
1051.01542,0.16476
1052.94389,0.16404
1054.87236,0.16308
1056.80083,0.16995
1058.72929,0.17888
1060.65776,0.17773
1062.58623,0.17474
1064.51470,0.18172
1066.44317,0.19207
1068.37164,0.19557
1070.30011,0.18942
1072.22857,0.17792
1074.15704,0.16989
1076.08551,0.16885
1078.01398,0.17123
1079.94245,0.17268
1081.87092,0.17227
1083.79939,0.17446
1085.72786,0.18117
1087.65632,0.18542
1089.58479,0.18262
1091.51326,0.17797
1093.44173,0.17673
1095.37020,0.17721
1097.29867,0.17660
1099.22714,0.17686
1101.15560,0.18297
1103.08407,0.19409
1105.01254,0.20012
1106.94101,0.19685
1108.86948,0.19080
1110.79795,0.18486
1112.72642,0.18066
1114.65489,0.18135
1116.58335,0.18318
1118.51182,0.18009
1120.44029,0.17042
1122.36876,0.16136
1124.29723,0.16120
1126.22570,0.16385
1128.15417,0.16256
1130.08263,0.16513
1132.01110,0.17246
1133.93957,0.17400
1135.86804,0.16934
1137.79651,0.16545
1139.72498,0.16375
1141.65345,0.16050
1143.58191,0.15667
1145.51038,0.15927
1147.43885,0.16688
1149.36732,0.17259
1151.29579,0.17757
1153.22426,0.18362
1155.15273,0.18611
1157.08120,0.18421
1159.00966,0.18428
1160.93813,0.18814
1162.86660,0.18744
1164.79507,0.18078
1166.72354,0.17848
1168.65201,0.18293
1170.58048,0.18702
1172.50894,0.18560
1174.43741,0.18148
1176.36588,0.18067
1178.29435,0.18024
1180.22282,0.17693
1182.15129,0.17475
1184.07976,0.17464
1186.00823,0.17418
1187.93669,0.17452
1189.86516,0.17658
1191.79363,0.17667
1193.72210,0.17334
1195.65057,0.17024
1197.57904,0.17139
1199.50751,0.17548
1201.43597,0.17604
1203.36444,0.17359
1205.29291,0.17410
1207.22138,0.17731
1209.14985,0.18005
1211.07832,0.18260
1213.00679,0.18442
1214.93526,0.18288
1216.86372,0.18043
1218.79219,0.18222
1220.72066,0.18767
1222.64913,0.19066
1224.57760,0.18889
1226.50607,0.18505
1228.43454,0.18095
1230.36300,0.18017
1232.29147,0.18249
1234.21994,0.18100
1236.14841,0.17495
1238.07688,0.17224
1240.00535,0.17529
1241.93382,0.17823
1243.86229,0.17911
1245.79075,0.17793
1247.71922,0.17520
1249.64769,0.17579
1251.57616,0.18015
1253.50463,0.18349
1255.43310,0.18525
1257.36157,0.18605
1259.29003,0.18419
1261.21850,0.18119
1263.14697,0.18031
1265.07544,0.18389
1267.00391,0.18876
1268.93238,0.18700
1270.86085,0.18147
1272.78932,0.18101
1274.71778,0.18398
1276.64625,0.18630
1278.57472,0.18930
1280.50319,0.19084
1282.43166,0.18929
1284.36013,0.18719
1286.28860,0.18451
1288.21706,0.18352
1290.14553,0.18762
1292.07400,0.19223
1294.00247,0.19181
1295.93094,0.18927
1297.85941,0.18906
1299.78788,0.18972
1301.71634,0.18723
1303.64481,0.17956
1305.57328,0.17330
1307.50175,0.17671
1309.43022,0.18461
1311.35869,0.18796
1313.28716,0.18644
1315.21563,0.18630
1317.14409,0.19006
1319.07256,0.19294
1321.00103,0.19335
1322.92950,0.19140
1324.85797,0.18552
1326.78644,0.18006
1328.71491,0.17992
1330.64337,0.18180
1332.57184,0.18294
1334.50031,0.18327
1336.42878,0.18247
1338.35725,0.18533
1340.28572,0.18992
1342.21419,0.19080
1344.14266,0.19206
1346.07112,0.19151
1347.99959,0.18641
1349.92806,0.18342
1351.85653,0.18461
1353.78500,0.18589
1355.71347,0.18794
1357.64194,0.19057
1359.57040,0.19194
1361.49887,0.19378
1363.42734,0.19310
1365.35581,0.18775
1367.28428,0.18393
1369.21275,0.18534
1371.14122,0.19119
1373.06969,0.19783
1374.99815,0.19802
1376.92662,0.19148
1378.85509,0.18819
1380.78356,0.19068
1382.71203,0.19487
1384.64050,0.19971
1386.56897,0.20241
1388.49743,0.19815
1390.42590,0.19501
1392.35437,0.20036
1394.28284,0.20801
1396.21131,0.20882
1398.13978,0.20471
1400.06825,0.19916
1401.99672,0.19515
1403.92518,0.19573
1405.85365,0.19834
1407.78212,0.19887
1409.71059,0.19801
1411.63906,0.19673
1413.56753,0.19785
1415.49600,0.20404
1417.42446,0.20990
1419.35293,0.20827
1421.28140,0.20501
1423.20987,0.20217
1425.13834,0.19961
1427.06681,0.20280
1428.99528,0.20640
1430.92375,0.20324
1432.85221,0.20041
1434.78068,0.20387
1436.70915,0.20982
1438.63762,0.20742
1440.56609,0.19899
1442.49456,0.19434
1444.42303,0.19702
1446.35149,0.20213
1448.27996,0.20312
1450.20843,0.20127
1452.13690,0.20376
1454.06537,0.21453
1455.99384,0.23285
1457.92231,0.23653
1459.85077,0.21818
1461.77924,0.20881
1463.70771,0.21240
1465.63618,0.21596
1467.56465,0.21113
1469.49312,0.20901
1471.42159,0.21572
1473.35006,0.22474
1475.27852,0.22279
1477.20699,0.21354
1479.13546,0.20563
1481.06393,0.20339
1482.99240,0.20477
1484.92087,0.20777
1486.84934,0.21437
1488.77780,0.21991
1490.70627,0.21433
1492.63474,0.20890
1494.56321,0.21414
1496.49168,0.22161
1498.42015,0.21826
1500.34862,0.21215
1502.27709,0.20756
1504.20555,0.20962
1506.13402,0.23543
1508.06249,0.24880
1509.99096,0.22631
1511.91943,0.21284
1513.84790,0.21280
1515.77637,0.22468
1517.70483,0.23884
1519.63330,0.24560
1521.56177,0.24393
1523.49024,0.23044
1525.41871,0.21865
1527.34718,0.21299
1529.27565,0.21264
1531.20412,0.21783
1533.13258,0.22181
1535.06105,0.21712
1536.98952,0.21687
1538.91799,0.23437
1540.84646,0.25701
1542.77493,0.24821
1544.70340,0.22851
1546.63186,0.21477
1548.56033,0.21078
1550.48880,0.21146
1552.41727,0.21244
1554.34574,0.21646
1556.27421,0.22670
1558.20268,0.24029
1560.13115,0.23560
1562.05961,0.22460
1563.98808,0.21714
1565.91655,0.20946
1567.84502,0.20607
1569.77349,0.20865
1571.70196,0.21034
1573.63043,0.21214
1575.55889,0.21519
1577.48736,0.21045
1579.41583,0.20145
1581.34430,0.19544
1583.27277,0.19145
1585.20124,0.18978
1587.12971,0.19074
1589.05818,0.19278
1590.98664,0.19579
1592.91511,0.19895
1594.84358,0.19962
1596.77205,0.19731
1598.70052,0.19597
1600.62899,0.19829
1602.55746,0.20040
1604.48592,0.19939
1606.41439,0.19816
1608.34286,0.19691
1610.27133,0.19471
1612.19980,0.19567
1614.12827,0.20193
1616.05674,0.21087
1617.98521,0.21188
1619.91367,0.20724
1621.84214,0.20748
1623.77061,0.20910
1625.69908,0.20738
1627.62755,0.20746
1629.55602,0.20985
1631.48449,0.21269
1633.41295,0.21944
1635.34142,0.23186
1637.26989,0.23175
1639.19836,0.22153
1641.12683,0.21678
1643.05530,0.21904
1644.98377,0.23203
1646.91223,0.25245
1648.84070,0.25567
1650.76917,0.25367
1652.69764,0.25543
1654.62611,0.24125
1656.55458,0.22364
1658.48305,0.21803
1660.41152,0.23170
1662.33998,0.25180
1664.26845,0.24689
1666.19692,0.23112
1668.12539,0.22814
1670.05386,0.23238
1671.98233,0.23082
1673.91080,0.22909
1675.83926,0.22519
1677.76773,0.22043
1679.69620,0.22274
1681.62467,0.23491
1683.55314,0.25258
1685.48161,0.24998
1687.41008,0.23456
1689.33855,0.22208
1691.26701,0.21353
1693.19548,0.21451
1695.12395,0.22688
1697.05242,0.23987
1698.98089,0.23852
1700.90936,0.22630
1702.83783,0.22031
1704.76629,0.22268
1706.69476,0.22335
1708.62323,0.21947
1710.55170,0.21847
1712.48017,0.22284
1714.40864,0.23045
1716.33711,0.23640
1718.26558,0.22886
1720.19404,0.21504
1722.12251,0.20705
1724.05098,0.20338
1725.97945,0.20175
1727.90792,0.20357
1729.83639,0.21085
1731.76486,0.22355
1733.69332,0.23479
1735.62179,0.22926
1737.55026,0.22079
1739.47873,0.21852
1741.40720,0.21706
1743.33567,0.21694
1745.26414,0.22240
1747.19261,0.23064
1749.12107,0.23478
1751.04954,0.22921
1752.97801,0.21725
1754.90648,0.20597
1756.83495,0.19976
1758.76342,0.20273
1760.69189,0.21138
1762.62035,0.21551
1764.54882,0.21332
1766.47729,0.21415
1768.40576,0.22240
1770.33423,0.23281
1772.26270,0.23149
1774.19117,0.21720
1776.11964,0.20767
1778.04810,0.20739
1779.97657,0.21137
1781.90504,0.21155
1783.83351,0.20772
1785.76198,0.20543
1787.69045,0.20672
1789.61892,0.21119
1791.54738,0.21740
1793.47585,0.21933
1795.40432,0.21662
1797.33279,0.21535
1799.26126,0.21518
1801.18973,0.21316
1803.11820,0.21065
1805.04666,0.20948
1806.97513,0.20923
1808.90360,0.21009
1810.83207,0.20988
1812.76054,0.20543
1814.68901,0.20073
1816.61748,0.20163
1818.54595,0.21140
1820.47441,0.22163
1822.40288,0.22065
1824.33135,0.21538
1826.25982,0.21730
1828.18829,0.22337
1830.11676,0.22390
1832.04523,0.21429
1833.97369,0.20513
1835.90216,0.20411
1837.83063,0.20679
1839.75910,0.20695
1841.68757,0.20805
1843.61604,0.21247
1845.54451,0.21319
1847.47298,0.20913
1849.40144,0.20657
1851.32991,0.20666
1853.25838,0.20742
1855.18685,0.20809
1857.11532,0.20752
1859.04379,0.20573
1860.97226,0.20528
1862.90072,0.20690
1864.82919,0.20993
1866.75766,0.21446
1868.68613,0.21733
1870.61460,0.21347
1872.54307,0.20822
1874.47154,0.20666
1876.40001,0.20665
1878.32847,0.20592
1880.25694,0.20617
1882.18541,0.20864
1884.11388,0.21059
1886.04235,0.20979
1887.97082,0.20819
1889.89929,0.20703
1891.82775,0.20593
1893.75622,0.20615
1895.68469,0.20636
1897.61316,0.20442
1899.54163,0.20314
1901.47010,0.20448
1903.39857,0.20628
1905.32704,0.20673
1907.25550,0.20667
1909.18397,0.20666
1911.11244,0.20668
1913.04091,0.20672
1914.96938,0.20624
1916.89785,0.20646
1918.82632,0.20719
1920.75478,0.20793
1922.68325,0.20844
1924.61172,0.20550
1926.54019,0.20189
1928.46866,0.20279
1930.39713,0.20540
1932.32560,0.20424
1934.25407,0.20211
1936.18253,0.20399
1938.11100,0.20703
1940.03947,0.20958
1941.96794,0.21222
1943.89641,0.21143
1945.82488,0.20775
1947.75335,0.20582
1949.68181,0.20680
1951.61028,0.20832
1953.53875,0.20860
1955.46722,0.20781
1957.39569,0.20651
1959.32416,0.20600
1961.25263,0.20618
1963.18110,0.20592
1965.10956,0.20520
1967.03803,0.20400
1968.96650,0.20394
1970.89497,0.20636
1972.82344,0.20879
1974.75191,0.20841
1976.68038,0.20482
1978.60884,0.20200
1980.53731,0.20557
1982.46578,0.21102
1984.39425,0.21142
1986.32272,0.21011
1988.25119,0.21060
1990.17966,0.21288
1992.10812,0.21406
1994.03659,0.21031
1995.96506,0.20559
1997.89353,0.20449
1999.82200,0.20564
2001.75047,0.20637
2003.67894,0.20617
2005.60741,0.20565
2007.53587,0.20555
2009.46434,0.20599
2011.39281,0.20630
2013.32128,0.20637
2015.24975,0.20734
2017.17822,0.20926
2019.10669,0.21023
2021.03515,0.21010
2022.96362,0.21018
2024.89209,0.20951
2026.82056,0.20706
2028.74903,0.20580
2030.67750,0.20651
2032.60597,0.20618
2034.53444,0.20527
2036.46290,0.20547
2038.39137,0.20679
2040.31984,0.20787
2042.24831,0.20688
2044.17678,0.20445
2046.10525,0.20380
2048.03372,0.20687
2049.96218,0.21081
2051.89065,0.21206
2053.81912,0.21032
2055.74759,0.20870
2057.67606,0.20848
2059.60453,0.20780
2061.53300,0.20826
2063.46147,0.21011
2065.38993,0.21007
2067.31840,0.20853
2069.24687,0.20736
2071.17534,0.20682
2073.10381,0.20788
2075.03228,0.20984
2076.96075,0.21007
2078.88921,0.20979
2080.81768,0.21057
2082.74615,0.21096
2084.67462,0.20904
2086.60309,0.20475
2088.53156,0.20317
2090.46003,0.20631
2092.38850,0.20903
2094.31696,0.20976
2096.24543,0.21063
2098.17390,0.21062
2100.10237,0.20870
2102.03084,0.20681
2103.95931,0.20643
2105.88778,0.20796
2107.81624,0.21123
2109.74471,0.21358
2111.67318,0.21222
2113.60165,0.20964
2115.53012,0.20939
2117.45859,0.20900
2119.38706,0.20674
2121.31553,0.20631
2123.24399,0.20898
2125.17246,0.21127
2127.10093,0.21046
2129.02940,0.20717
2130.95787,0.20502
2132.88634,0.20545
2134.81481,0.20685
2136.74327,0.20925
2138.67174,0.21175
2140.60021,0.21176
2142.52868,0.21040
2144.45715,0.20857
2146.38562,0.20515
2148.31409,0.20336
2150.24255,0.20533
2152.17102,0.20688
2154.09949,0.20670
2156.02796,0.20772
2157.95643,0.20837
2159.88490,0.20630
2161.81337,0.20542
2163.74184,0.20814
2165.67030,0.21067
2167.59877,0.20992
2169.52724,0.20846
2171.45571,0.20910
2173.38418,0.21027
2175.31265,0.21021
2177.24112,0.20965
2179.16958,0.20953
2181.09805,0.20898
2183.02652,0.20861
2184.95499,0.20917
2186.88346,0.20952
2188.81193,0.21045
2190.74040,0.21127
2192.66887,0.20934
2194.59733,0.20582
2196.52580,0.20425
2198.45427,0.20488
2200.38274,0.20565
2202.31121,0.20691
2204.23968,0.20783
2206.16815,0.20676
2208.09661,0.20654
2210.02508,0.20832
2211.95355,0.20909
2213.88202,0.20885
2215.81049,0.20787
2217.73896,0.20599
2219.66743,0.20546
2221.59590,0.20674
2223.52436,0.20844
2225.45283,0.20991
2227.38130,0.21093
2229.30977,0.21138
2231.23824,0.21118
2233.16671,0.21111
2235.09518,0.21197
2237.02364,0.21302
2238.95211,0.21368
2240.88058,0.21288
2242.80905,0.20982
2244.73752,0.20808
2246.66599,0.20892
2248.59446,0.20843
2250.52293,0.20586
2252.45139,0.20414
2254.37986,0.20583
2256.30833,0.21040
2258.23680,0.21264
2260.16527,0.20914
2262.09374,0.20368
2264.02221,0.20129
2265.95067,0.20324
2267.87914,0.20650
2269.80761,0.20817
2271.73608,0.20840
2273.66455,0.20807
2275.59302,0.20837
2277.52149,0.20738
2279.44996,0.20457
2281.37842,0.20464
2283.30689,0.20759
2285.23536,0.20943
2287.16383,0.21006
2289.09230,0.20921
2291.02077,0.20548
2292.94924,0.20450
2294.87770,0.20892
2296.80617,0.20985
2298.73464,0.20784
2300.66311,0.21164
2302.59158,0.21577
2304.52005,0.21432
2306.44852,0.21264
2308.37699,0.21196
2310.30545,0.21014
2312.23392,0.20811
2314.16239,0.20627
2316.09086,0.20554
2318.01933,0.20488
2319.94780,0.20098
2321.87627,0.19751
2323.80473,0.19974
2325.73320,0.20395
2327.66167,0.20451
2329.59014,0.20233
2331.51861,0.20447
2333.44708,0.20932
2335.37555,0.20866
2337.30401,0.20332
2339.23248,0.20091
2341.16095,0.20328
2343.08942,0.20480
2345.01789,0.20951
2346.94636,0.21717
2348.87483,0.22029
2350.80330,0.21969
2352.73176,0.21572
2354.66023,0.20951
2356.58870,0.21641
2358.51717,0.24037
2360.44564,0.25609
2362.37411,0.24547
2364.30258,0.21521
2366.23104,0.19382
2368.15951,0.19381
2370.08798,0.20150
2372.01645,0.20602
2373.94492,0.20604
2375.87339,0.20730
2377.80186,0.21064
2379.73033,0.21048
2381.65879,0.20713
2383.58726,0.20524
2385.51573,0.20583
2387.44420,0.20636
2389.37267,0.20555
2391.30114,0.20457
2393.22961,0.20384
2395.15807,0.20320
2397.08654,0.20332
2399.01501,0.20398
2400.94348,0.20447
2402.87195,0.20491
2404.80042,0.20456
2406.72889,0.20373
2408.65736,0.20527
2410.58582,0.20807
2412.51429,0.20870
2414.44276,0.20841
2416.37123,0.20855
2418.29970,0.20856
2420.22817,0.20890
2422.15664,0.20797
2424.08510,0.20613
2426.01357,0.20924
2427.94204,0.21427
2429.87051,0.21347
2431.79898,0.21041
2433.72745,0.20928
2435.65592,0.20860
2437.58439,0.20744
2439.51285,0.20633
2441.44132,0.20722
2443.36979,0.20875
2445.29826,0.20770
2447.22673,0.20596
2449.15520,0.20620
2451.08367,0.20925
2453.01213,0.21435
2454.94060,0.21852
2456.86907,0.22010
2458.79754,0.21722
2460.72601,0.21209
2462.65448,0.20934
2464.58295,0.20851
2466.51142,0.20901
2468.43988,0.20802
2470.36835,0.20508
2472.29682,0.20480
2474.22529,0.20657
2476.15376,0.20732
2478.08223,0.20624
2480.01070,0.20584
2481.93916,0.20902
2483.86763,0.21285
2485.79610,0.21249
2487.72457,0.20978
2489.65304,0.20892
2491.58151,0.20835
2493.50998,0.20750
2495.43844,0.20941
2497.36691,0.21317
2499.29538,0.21480
2501.22385,0.21343
2503.15232,0.21200
2505.08079,0.21166
2507.00926,0.20976
2508.93773,0.20770
2510.86619,0.20883
2512.79466,0.21154
2514.72313,0.21376
2516.65160,0.21485
2518.58007,0.21488
2520.50854,0.21431
2522.43701,0.21272
2524.36547,0.20990
2526.29394,0.20790
2528.22241,0.20899
2530.15088,0.20983
2532.07935,0.20808
2534.00782,0.20697
2535.93629,0.20698
2537.86476,0.20742
2539.79322,0.20881
2541.72169,0.20957
2543.65016,0.20976
2545.57863,0.21030
2547.50710,0.20946
2549.43557,0.20831
2551.36404,0.20969
2553.29250,0.21221
2555.22097,0.21397
2557.14944,0.21487
2559.07791,0.21351
2561.00638,0.21060
2562.93485,0.21066
2564.86332,0.21346
2566.79179,0.21337
2568.72025,0.21081
2570.64872,0.21081
2572.57719,0.21110
2574.50566,0.20888
2576.43413,0.20890
2578.36260,0.21239
2580.29107,0.21593
2582.21953,0.21753
2584.14800,0.21572
2586.07647,0.21185
2588.00494,0.20951
2589.93341,0.21066
2591.86188,0.21401
2593.79035,0.21682
2595.71882,0.21857
2597.64728,0.21939
2599.57575,0.21853
2601.50422,0.21568
2603.43269,0.21312
2605.36116,0.21404
2607.28963,0.21678
2609.21810,0.21556
2611.14656,0.20943
2613.07503,0.20612
2615.00350,0.21003
2616.93197,0.21446
2618.86044,0.21517
2620.78891,0.21634
2622.71738,0.21858
2624.64585,0.21785
2626.57431,0.21485
2628.50278,0.21347
2630.43125,0.21584
2632.35972,0.21954
2634.28819,0.21991
2636.21666,0.21799
2638.14513,0.21780
2640.07359,0.21987
2642.00206,0.22073
2643.93053,0.21893
2645.85900,0.21786
2647.78747,0.21671
2649.71594,0.21270
2651.64441,0.20881
2653.57288,0.20952
2655.50134,0.21457
2657.42981,0.21976
2659.35828,0.22199
2661.28675,0.22068
2663.21522,0.21683
2665.14369,0.21334
2667.07216,0.21318
2669.00062,0.21462
2670.92909,0.21477
2672.85756,0.21587
2674.78603,0.21885
2676.71450,0.21960
2678.64297,0.21785
2680.57144,0.21809
2682.49990,0.21936
2684.42837,0.21899
2686.35684,0.21760
2688.28531,0.21470
2690.21378,0.21250
2692.14225,0.21418
2694.07072,0.21867
2695.99919,0.22236
2697.92765,0.22273
2699.85612,0.22065
2701.78459,0.21787
2703.71306,0.21618
2705.64153,0.21509
2707.57000,0.21322
2709.49847,0.21373
2711.42693,0.21716
2713.35540,0.21921
2715.28387,0.21934
2717.21234,0.21952
2719.14081,0.21986
2721.06928,0.22072
2722.99775,0.22351
2724.92622,0.22615
2726.85468,0.22533
2728.78315,0.22309
2730.71162,0.22197
2732.64009,0.22061
2734.56856,0.21821
2736.49703,0.21797
2738.42550,0.22199
2740.35396,0.22548
2742.28243,0.22592
2744.21090,0.22586
2746.13937,0.22428
2748.06784,0.22203
2749.99631,0.22318
2751.92478,0.22456
2753.85325,0.22133
2755.78171,0.21812
2757.71018,0.22064
2759.63865,0.22514
2761.56712,0.22546
2763.49559,0.22328
2765.42406,0.22401
2767.35253,0.22685
2769.28099,0.22798
2771.20946,0.22795
2773.13793,0.22852
2775.06640,0.22982
2776.99487,0.23055
2778.92334,0.23032
2780.85181,0.23095
2782.78028,0.23199
2784.70874,0.23123
2786.63721,0.22792
2788.56568,0.22473
2790.49415,0.22666
2792.42262,0.23123
2794.35109,0.23238
2796.27956,0.23169
2798.20802,0.23075
2800.13649,0.22843
2802.06496,0.22788
2803.99343,0.23110
2805.92190,0.23322
2807.85037,0.23077
2809.77884,0.22770
2811.70731,0.22671
2813.63577,0.22625
2815.56424,0.22662
2817.49271,0.22806
2819.42118,0.22860
2821.34965,0.22700
2823.27812,0.22523
2825.20659,0.22675
2827.13505,0.22898
2829.06352,0.22610
2830.99199,0.22073
2832.92046,0.21916
2834.84893,0.22129
2836.77740,0.22473
2838.70587,0.22814
2840.63433,0.23090
2842.56280,0.23229
2844.49127,0.23166
2846.41974,0.23141
2848.34821,0.23223
2850.27668,0.23029
2852.20515,0.22582
2854.13362,0.22411
2856.06208,0.22773
2857.99055,0.23484
2859.91902,0.23961
2861.84749,0.23767
2863.77596,0.23299
2865.70443,0.23057
2867.63290,0.22997
2869.56136,0.22874
2871.48983,0.22857
2873.41830,0.23201
2875.34677,0.23417
2877.27524,0.23193
2879.20371,0.23150
2881.13218,0.23432
2883.06065,0.23304
2884.98911,0.22750
2886.91758,0.22533
2888.84605,0.22869
2890.77452,0.23136
2892.70299,0.22852
2894.63146,0.22387
2896.55993,0.22297
2898.48839,0.22734
2900.41686,0.23232
2902.34533,0.23115
2904.27380,0.22593
2906.20227,0.22426
2908.13074,0.22531
2910.05921,0.22391
2911.98768,0.22237
2913.91614,0.22333
2915.84461,0.22456
2917.77308,0.22414
2919.70155,0.22232
2921.63002,0.22276
2923.55849,0.22891
2925.48696,0.23019
2927.41542,0.21397
2929.34389,0.19844
2931.27236,0.20541
2933.20083,0.22274
2935.12930,0.22934
2937.05777,0.22625
2938.98624,0.22609
2940.91471,0.22674
2942.84317,0.22273
2944.77164,0.21991
2946.70011,0.22015
2948.62858,0.22213
2950.55705,0.22604
2952.48552,0.22964
2954.41399,0.23058
2956.34245,0.22901
2958.27092,0.22948
2960.19939,0.23215
2962.12786,0.23210
2964.05633,0.23051
2965.98480,0.22790
2967.91327,0.22557
2969.84174,0.22696
2971.77020,0.22745
2973.69867,0.22563
2975.62714,0.22370
2977.55561,0.22088
2979.48408,0.22142
2981.41255,0.22699
2983.34102,0.23254
2985.26948,0.23484
2987.19795,0.23371
2989.12642,0.23301
2991.05489,0.23644
2992.98336,0.23991
2994.91183,0.23758
2996.84030,0.23110
2998.76877,0.22693
3000.69723,0.22821
3002.62570,0.23236
3004.55417,0.23487
3006.48264,0.23508
3008.41111,0.23489
3010.33958,0.23132
3012.26805,0.22205
3014.19651,0.20840
3016.12498,0.19558
3018.05345,0.19674
3019.98192,0.21272
3021.91039,0.22702
3023.83886,0.23384
3025.76733,0.23745
3027.69579,0.23752
3029.62426,0.23626
3031.55273,0.23686
3033.48120,0.23575
3035.40967,0.23278
3037.33814,0.23172
3039.26661,0.23252
3041.19508,0.23329
3043.12354,0.23198
3045.05201,0.22945
3046.98048,0.22895
3048.90895,0.23108
3050.83742,0.23372
3052.76589,0.23395
3054.69436,0.22980
3056.62282,0.22590
3058.55129,0.22899
3060.47976,0.23413
3062.40823,0.23344
3064.33670,0.22871
3066.26517,0.22522
3068.19364,0.22676
3070.12211,0.23203
3072.05057,0.23452
3073.97904,0.23184
3075.90751,0.22879
3077.83598,0.23157
3079.76445,0.23813
3081.69292,0.23875
3083.62139,0.23196
3085.54985,0.22792
3087.47832,0.23308
3089.40679,0.24060
3091.33526,0.24109
3093.26373,0.23241
3095.19220,0.22177
3097.12067,0.21956
3099.04914,0.22590
3100.97760,0.23330
3102.90607,0.23459
3104.83454,0.23347
3106.76301,0.23666
3108.69148,0.23738
3110.61995,0.23370
3112.54842,0.23423
3114.47688,0.23859
3116.40535,0.24082
3118.33382,0.24164
3120.26229,0.24245
3122.19076,0.24121
3124.11923,0.23758
3126.04770,0.23447
3127.97617,0.23458
3129.90463,0.23531
3131.83310,0.23573
3133.76157,0.23680
3135.69004,0.23650
3137.61851,0.23467
3139.54698,0.23350
3141.47545,0.23517
3143.40391,0.23831
3145.33238,0.23956
3147.26085,0.23781
3149.18932,0.23551
3151.11779,0.23678
3153.04626,0.24116
3154.97473,0.24342
3156.90320,0.24174
3158.83166,0.23947
3160.76013,0.23828
3162.68860,0.23944
3164.61707,0.24331
3166.54554,0.24577
3168.47401,0.24403
3170.40248,0.24069
3172.33094,0.23907
3174.25941,0.23943
3176.18788,0.24195
3178.11635,0.24462
3180.04482,0.24394
3181.97329,0.24073
3183.90176,0.23746
3185.83022,0.23681
3187.75869,0.23919
3189.68716,0.24076
3191.61563,0.23920
3193.54410,0.23883
3195.47257,0.24258
3197.40104,0.24453
3199.32951,0.24347
3201.25797,0.24396
3203.18644,0.24336
3205.11491,0.23873
3207.04338,0.23368
3208.97185,0.23060
3210.90032,0.23021
3212.82879,0.23415
3214.75725,0.23873
3216.68572,0.23844
3218.61419,0.23450
3220.54266,0.23389
3222.47113,0.23860
3224.39960,0.23975
3226.32807,0.23559
3228.25654,0.23305
3230.18500,0.23359
3232.11347,0.23605
3234.04194,0.23633
3235.97041,0.23378
3237.89888,0.23514
3239.82735,0.24057
3241.75582,0.24556
3243.68428,0.24772
3245.61275,0.24428
3247.54122,0.23812
3249.46969,0.23634
3251.39816,0.23801
3253.32663,0.23864
3255.25510,0.23961
3257.18357,0.24292
3259.11203,0.24702
3261.04050,0.24733
3262.96897,0.24184
3264.89744,0.23679
3266.82591,0.23862
3268.75438,0.24517
3270.68285,0.24622
3272.61131,0.23814
3274.53978,0.23180
3276.46825,0.23208
3278.39672,0.23057
3280.32519,0.22780
3282.25366,0.23329
3284.18213,0.24322
3286.11060,0.24639
3288.03906,0.24225
3289.96753,0.23821
3291.89600,0.23829
3293.82447,0.23989
3295.75294,0.24165
3297.68141,0.24424
3299.60988,0.24472
3301.53834,0.24248
3303.46681,0.24279
3305.39528,0.24345
3307.32375,0.23847
3309.25222,0.23218
3311.18069,0.23086
3313.10916,0.23132
3315.03763,0.22822
3316.96609,0.22583
3318.89456,0.22647
3320.82303,0.22693
3322.75150,0.23032
3324.67997,0.23652
3326.60844,0.24091
3328.53691,0.24423
3330.46537,0.24687
3332.39384,0.24508
3334.32231,0.24108
3336.25078,0.23992
3338.17925,0.23913
3340.10772,0.23585
3342.03619,0.23252
3343.96466,0.23274
3345.89312,0.23475
3347.82159,0.23548
3349.75006,0.23710
3351.67853,0.24261
3353.60700,0.24739
3355.53547,0.24419
3357.46394,0.23746
3359.39240,0.23561
3361.32087,0.23932
3363.24934,0.24419
3365.17781,0.24561
3367.10628,0.24372
3369.03475,0.23993
3370.96322,0.23472
3372.89168,0.23371
3374.82015,0.24101
3376.74862,0.24797
3378.67709,0.24908
3380.60556,0.24594
3382.53403,0.23651
3384.46250,0.22794
3386.39097,0.23024
3388.31943,0.23753
3390.24790,0.23921
3392.17637,0.23272
3394.10484,0.22543
3396.03331,0.22709
3397.96178,0.23693
3399.89025,0.24405
3401.81871,0.24197
3403.74718,0.23808
3405.67565,0.23973
3407.60412,0.24411
3409.53259,0.24593
3411.46106,0.24048
3413.38953,0.23169
3415.31800,0.23047
3417.24646,0.23656
3419.17493,0.24057
3421.10340,0.23908
3423.03187,0.23400
3424.96034,0.22816
3426.88881,0.22684
3428.81728,0.22843
3430.74574,0.22641
3432.67421,0.22395
3434.60268,0.22582
3436.53115,0.22986
3438.45962,0.23213
3440.38809,0.23071
3442.31656,0.22726
3444.24503,0.22559
3446.17349,0.22616
3448.10196,0.22410
3450.03043,0.22123
3451.95890,0.22439
3453.88737,0.23024
3455.81584,0.22945
3457.74431,0.22089
3459.67277,0.21477
3461.60124,0.21756
3463.52971,0.22166
3465.45818,0.22061
3467.38665,0.21902
3469.31512,0.21947
3471.24359,0.21882
3473.17206,0.21965
3475.10052,0.22478
3477.02899,0.22840
3478.95746,0.22682
3480.88593,0.22221
3482.81440,0.21602
3484.74287,0.21154
3486.67134,0.21156
3488.59980,0.21316
3490.52827,0.21178
3492.45674,0.20802
3494.38521,0.20586
3496.31368,0.20464
3498.24215,0.20097
3500.17062,0.19669
3502.09909,0.19854
3504.02755,0.20745
3505.95602,0.21307
3507.88449,0.21118
3509.81296,0.20341
3511.74143,0.19438
3513.66990,0.19254
3515.59837,0.19673
3517.52683,0.19957
3519.45530,0.19865
3521.38377,0.19650
3523.31224,0.19844
3525.24071,0.20564
3527.16918,0.20918
3529.09765,0.20381
3531.02611,0.19815
3532.95458,0.19664
3534.88305,0.19273
3536.81152,0.18575
3538.73999,0.18253
3540.66846,0.18511
3542.59693,0.19173
3544.52540,0.19976
3546.45386,0.20440
3548.38233,0.20052
3550.31080,0.19302
3552.23927,0.18882
3554.16774,0.18782
3556.09621,0.19219
3558.02468,0.19855
3559.95314,0.19816
3561.88161,0.19293
3563.81008,0.19119
3565.73855,0.19440
3567.66702,0.18934
3569.59549,0.17514
3571.52396,0.16857
3573.45243,0.17023
3575.38089,0.17426
3577.30936,0.17735
3579.23783,0.17644
3581.16630,0.17300
3583.09477,0.17330
3585.02324,0.17983
3586.95171,0.18764
3588.88017,0.18425
3590.80864,0.17704
3592.73711,0.17774
3594.66558,0.18002
3596.59405,0.17887
3598.52252,0.17825
3600.45099,0.17668
3602.37946,0.17429
3604.30792,0.17597
3606.23639,0.18068
3608.16486,0.18040
3610.09333,0.17473
3612.02180,0.17360
3613.95027,0.17494
3615.87874,0.17323
3617.80720,0.17318
3619.73567,0.17429
3621.66414,0.17031
3623.59261,0.16458
3625.52108,0.16292
3627.44955,0.16977
3629.37802,0.17782
3631.30649,0.17473
3633.23495,0.17010
3635.16342,0.16542
3637.09189,0.15837
3639.02036,0.15250
3640.94883,0.15178
3642.87730,0.15634
3644.80577,0.16519
3646.73423,0.17468
3648.66270,0.17617
3650.59117,0.16728
3652.51964,0.16093
3654.44811,0.16181
3656.37658,0.16466
3658.30505,0.16137
3660.23352,0.15349
3662.16198,0.14618
3664.09045,0.14463
3666.01892,0.14957
3667.94739,0.15956
3669.87586,0.17019
3671.80433,0.17234
3673.73280,0.17467
3675.66126,0.17541
3677.58973,0.16470
3679.51820,0.15627
3681.44667,0.15124
3683.37514,0.14769
3685.30361,0.14953
3687.23208,0.15840
3689.16055,0.16827
3691.08901,0.16660
3693.01748,0.15902
3694.94595,0.15148
3696.87442,0.14291
3698.80289,0.13737
3700.73136,0.13761
3702.65983,0.14167
3704.58829,0.14442
3706.51676,0.14439
3708.44523,0.14659
3710.37370,0.15503
3712.30217,0.15991
3714.23064,0.15452
3716.15911,0.14853
3718.08757,0.14302
3720.01604,0.13520
3721.94451,0.12801
3723.87298,0.12966
3725.80145,0.13854
3727.72992,0.14092
3729.65839,0.13933
3731.58686,0.14475
3733.51532,0.15547
3735.44379,0.16593
3737.37226,0.17033
3739.30073,0.16493
3741.22920,0.15768
3743.15767,0.15552
3745.08614,0.16152
3747.01460,0.16493
3748.94307,0.16359
3750.87154,0.16634
3752.80001,0.16475
3754.72848,0.15827
3756.65695,0.15690
3758.58542,0.15721
3760.51389,0.15256
3762.44235,0.14628
3764.37082,0.14287
3766.29929,0.14301
3768.22776,0.14362
3770.15623,0.14422
3772.08470,0.14483
3774.01317,0.14335
3775.94163,0.14309
3777.87010,0.14549
3779.79857,0.14538
3781.72704,0.14170
3783.65551,0.13748
3785.58398,0.13472
3787.51245,0.13663
3789.44092,0.13997
3791.36938,0.13972
3793.29785,0.14038
3795.22632,0.14692
3797.15479,0.15692
3799.08326,0.16646
3801.01173,0.16689
3802.94020,0.15421
3804.86866,0.14547
3806.79713,0.14212
3808.72560,0.14156
3810.65407,0.14097
3812.58254,0.13998
3814.51101,0.14387
3816.43948,0.14894
3818.36795,0.14746
3820.29641,0.14606
3822.22488,0.14482
3824.15335,0.14226
3826.08182,0.14256
3828.01029,0.14606
3829.93876,0.14953
3831.86723,0.15165
3833.79569,0.15524
3835.72416,0.16079
3837.65263,0.16341
3839.58110,0.16164
3841.50957,0.16028
3843.43804,0.15834
3845.36651,0.15182
3847.29498,0.14164
3849.22344,0.13433
3851.15191,0.13661
3853.08038,0.14513
3855.00885,0.14214
3856.93732,0.13382
3858.86579,0.12708
3860.79426,0.12655
3862.72272,0.13750
3864.65119,0.14787
3866.57966,0.14553
3868.50813,0.14306
3870.43660,0.14562
3872.36507,0.14703
3874.29354,0.14607
3876.22200,0.13977
3878.15047,0.13324
3880.07894,0.13672
3882.00741,0.14520
3883.93588,0.14650
3885.86435,0.14252
3887.79282,0.14036
3889.72129,0.14436
3891.64975,0.15012
3893.57822,0.14757
3895.50669,0.14034
3897.43516,0.13606
3899.36363,0.13747
3901.29210,0.14317
3903.22057,0.14494
3905.14903,0.13665
3907.07750,0.12872
3909.00597,0.12931
3910.93444,0.13228
3912.86291,0.13355
3914.79138,0.13751
3916.71985,0.14241
3918.64832,0.14036
3920.57678,0.13327
3922.50525,0.12784
3924.43372,0.12472
3926.36219,0.12179
3928.29066,0.12040
3930.21913,0.12180
3932.14760,0.12409
3934.07606,0.12617
3936.00453,0.12718
3937.93300,0.12631
3939.86147,0.12603
3941.78994,0.12758
3943.71841,0.12554
3945.64688,0.11827
3947.57535,0.11433
3949.50381,0.11722
3951.43228,0.12136
3953.36075,0.12442
3955.28922,0.12540
3957.21769,0.12497
3959.14616,0.12638
3961.07463,0.12641
3963.00309,0.12280
3964.93156,0.11989
3966.86003,0.11765
3968.78850,0.11528
3970.71697,0.11576
3972.64544,0.11648
3974.57391,0.11359
3976.50238,0.11101
3978.43084,0.11251
3980.35931,0.11525
3982.28778,0.11618
3984.21625,0.11580
3986.14472,0.11599
3988.07319,0.11751
3990.00166,0.11886
3991.93012,0.11973
3993.85859,0.12183
3995.78706,0.12351
3997.71553,0.12228
3999.64400,0.11991
4001.57247,0.11751
4003.50094,0.11452
4005.42941,0.11257
4007.35787,0.11129
4009.28634,0.11017
4011.21481,0.11220
4013.14328,0.11681
4015.07175,0.11889
4017.00022,0.11452
4018.92869,0.10609
4020.85715,0.10185
4022.78562,0.10427
4024.71409,0.10650
4026.64256,0.10509
4028.57103,0.10408
4030.49950,0.10663
4032.42797,0.11280
4034.35644,0.11873
4036.28490,0.11998
4038.21337,0.11771
4040.14184,0.11290
4042.07031,0.10690
4043.99878,0.10531
4045.92725,0.10595
4047.85572,0.10303
4049.78418,0.10286
4051.71265,0.11017
4053.64112,0.11810
4055.56959,0.12088
4057.49806,0.11820
4059.42653,0.11311
4061.35500,0.10906
4063.28346,0.10543
4065.21193,0.10252
4067.14040,0.10488
4069.06887,0.11179
4070.99734,0.11564
4072.92581,0.11337
4074.85428,0.10738
4076.78275,0.09950
4078.71121,0.09525
4080.63968,0.09998
4082.56815,0.10719
4084.49662,0.10838
4086.42509,0.10632
4088.35356,0.10725
4090.28203,0.11090
4092.21049,0.11227
4094.13896,0.10799
4096.06743,0.10210
4097.99590,0.10150
4099.92437,0.10418
4101.85284,0.10369
4103.78131,0.09994
4105.70978,0.09598
4107.63824,0.09327
4109.56671,0.09505
4111.49518,0.10194
4113.42365,0.10816
4115.35212,0.10940
4117.28059,0.10848
4119.20906,0.10940
4121.13752,0.10737
4123.06599,0.09898
4124.99446,0.09304
4126.92293,0.09620
4128.85140,0.10231
4130.77987,0.10232
4132.70834,0.09834
4134.63681,0.09772
4136.56527,0.09904
4138.49374,0.09900
4140.42221,0.09946
4142.35068,0.09904
4144.27915,0.09649
4146.20762,0.09573
4148.13609,0.09801
4150.06455,0.09958
4151.99302,0.09763
4153.92149,0.09328
4155.84996,0.08943
4157.77843,0.09039
4159.70690,0.09374
4161.63537,0.09177
4163.56384,0.08896
4165.49230,0.09308
4167.42077,0.10100
4169.34924,0.10295
4171.27771,0.09653
4173.20618,0.09033
4175.13465,0.08771
4177.06312,0.08822
4178.99158,0.08992
4180.92005,0.08542
4182.84852,0.07983
4184.77699,0.08385
4186.70546,0.09049
4188.63393,0.09045
4190.56240,0.08771
4192.49087,0.08600
4194.41933,0.08240
4196.34780,0.07871
4198.27627,0.07845
4200.20474,0.08216
4202.13321,0.09038
4204.06168,0.09692
4205.99015,0.09710
4207.91861,0.09238
4209.84708,0.08550
4211.77555,0.08353
4213.70402,0.08712
4215.63249,0.08941
4217.56096,0.08705
4219.48943,0.08349
4221.41789,0.08390
4223.34636,0.08793
4225.27483,0.09079
4227.20330,0.08913
4229.13177,0.08618
4231.06024,0.08558
4232.98871,0.08583
4234.91718,0.08514
4236.84564,0.08253
4238.77411,0.08143
4240.70258,0.08627
4242.63105,0.08921
4244.55952,0.08090
4246.48799,0.06850
4248.41646,0.06334
4250.34492,0.06600
4252.27339,0.07256
4254.20186,0.08080
4256.13033,0.08812
4258.05880,0.09149
4259.98727,0.08946
4261.91574,0.08310
4263.84421,0.07560
4265.77267,0.07053
4267.70114,0.07103
4269.62961,0.07432
4271.55808,0.07378
4273.48655,0.07038
4275.41502,0.06986
4277.34349,0.07331
4279.27195,0.07723
4281.20042,0.07854
4283.12889,0.07625
4285.05736,0.07032
4286.98583,0.06507
4288.91430,0.06649
4290.84277,0.06967
4292.77124,0.06735
4294.69970,0.06517
4296.62817,0.06898
4298.55664,0.07230
4300.48511,0.06954
4302.41358,0.06753
4304.34205,0.07080
4306.27052,0.07254
4308.19898,0.06729
4310.12745,0.05785
4312.05592,0.04977
4313.98439,0.04670
4315.91286,0.05122
4317.84133,0.05964
4319.76980,0.06418
4321.69827,0.06313
4323.62673,0.05956
4325.55520,0.05911
4327.48367,0.06060
4329.41214,0.05705
4331.34061,0.05011
4333.26908,0.04670
4335.19755,0.05075
4337.12601,0.05831
4339.05448,0.06147
4340.98295,0.05913
4342.91142,0.05843
4344.83989,0.06074
4346.76836,0.05711
4348.69683,0.04914
4350.62530,0.04467
4352.55376,0.04409
4354.48223,0.04913
4356.41070,0.05846
4358.33917,0.06190
4360.26764,0.05662
4362.19611,0.05228
4364.12458,0.05389
4366.05304,0.05663
4367.98151,0.05290
4369.90998,0.04447
4371.83845,0.04159
4373.76692,0.04464
4375.69539,0.04978
4377.62386,0.05233
4379.55232,0.04832
4381.48079,0.04680
4383.40926,0.05351
4385.33773,0.06113
4387.26620,0.06332
4389.19467,0.05776
4391.12314,0.04972
4393.05161,0.04840
4394.98007,0.04903
4396.90854,0.04423
4398.83701,0.04060
4400.76548,0.04092
4402.69395,0.03946
4404.62242,0.03838
4406.55089,0.04042
4408.47935,0.04046
4410.40782,0.04001
4412.33629,0.04265
4414.26476,0.04429
4416.19323,0.04284
4418.12170,0.04124
4420.05017,0.04193
4421.97864,0.04318
4423.90710,0.04018
4425.83557,0.03286
4427.76404,0.03110
4429.69251,0.03788
4431.62098,0.04361
4433.54945,0.04266
4435.47792,0.03449
4437.40638,0.02641
4439.33485,0.02633
4441.26332,0.02861
4443.19179,0.02629
4445.12026,0.02169
4447.04873,0.02178
4448.97720,0.03012
4450.90567,0.03903
4452.83413,0.03903
4454.76260,0.03260
4456.69107,0.02422
4458.61954,0.01774
4460.54801,0.02016
4462.47648,0.02804
4464.40495,0.02705
4466.33341,0.01773
4468.26188,0.01752
4470.19035,0.02618
4472.11882,0.03042
4474.04729,0.02942
4475.97576,0.02680
4477.90423,0.02530
4479.83270,0.02465
4481.76116,0.02626
4483.68963,0.03246
4485.61810,0.03844
4487.54657,0.04016
4489.47504,0.03366
4491.40351,0.02257
4493.33198,0.01924
4495.26044,0.02240
4497.18891,0.02301
4499.11738,0.02008
4501.04585,0.02017
4502.97432,0.02572
4504.90279,0.03017
4506.83126,0.03054
4508.75973,0.02852
4510.68819,0.02432
4512.61666,0.01889
4514.54513,0.01640
4516.47360,0.02015
4518.40207,0.02314
4520.33054,0.01766
4522.25901,0.01136
4524.18747,0.01261
4526.11594,0.01489
4528.04441,0.01314
4529.97288,0.01391
4531.90135,0.01829
4533.82982,0.02015
4535.75829,0.02160
4537.68676,0.02597
4539.61522,0.03044
4541.54369,0.03251
4543.47216,0.02817
4545.40063,0.01989
4547.32910,0.01917
4549.25757,0.02451
4551.18604,0.02409
4553.11450,0.01823
4555.04297,0.01623
4556.97144,0.01733
4558.89991,0.01624
4560.82838,0.01477
4562.75685,0.01360
4564.68532,0.01378
4566.61378,0.01651
4568.54225,0.01734
4570.47072,0.01458
4572.39919,0.01341
4574.32766,0.01476
4576.25613,0.01413
4578.18460,0.01185
4580.11307,0.00611
4582.04153,0.00083
4583.97000,0.00615
4585.89847,0.01462
4587.82694,0.01694
4589.75541,0.01766
4591.68388,0.01950
4593.61235,0.02300
4595.54081,0.02729
4597.46928,0.02424
4599.39775,0.01631
4601.32622,0.01559
4603.25469,0.02024
4605.18316,0.01902
4607.11163,0.01163
4609.04010,0.00845
4610.96856,0.01043
4612.89703,0.01088
4614.82550,0.00784
4616.75397,0.00720
4618.68244,0.00954
4620.61091,0.00687
4622.53938,0.00435
4624.46784,0.00494
4626.39631,0.00641
4628.32478,0.01210
4630.25325,0.01522
4632.18172,0.01494
4634.11019,0.01817
4636.03866,0.01735
4637.96713,0.01088
4639.89559,0.01094
4641.82406,0.01782
4643.75253,0.02093
4645.68100,0.01492
4647.60947,0.00553
4649.53794,0.00175
4651.46641,-0.00115
4653.39487,-0.00898
4655.32334,-0.01154
4657.25181,-0.00443
4659.18028,-0.00166
4661.10875,-0.00701
4663.03722,-0.00849
4664.96569,-0.00207
4666.89416,0.00603
4668.82262,0.00851
4670.75109,0.00493
4672.67956,0.00254
4674.60803,0.00554
4676.53650,0.01039
4678.46497,0.01388
4680.39344,0.01925
4682.32190,0.02868
4684.25037,0.03550
4686.17884,0.03311
4688.10731,0.02516
4690.03578,0.02368
4691.96425,0.03026
4693.89272,0.02949
4695.82119,0.01750
4697.74965,0.00398
4699.67812,-0.00323
4701.60659,-0.00190
4703.53506,0.00489
4705.46353,0.01441
4707.39200,0.01853
4709.32047,0.01823
4711.24893,0.02495
4713.17740,0.03572
4715.10587,0.03561
4717.03434,0.02297
4718.96281,0.01620
4720.89128,0.01956
4722.81975,0.01925
4724.74821,0.01263
4726.67668,0.01354
4728.60515,0.02725
4730.53362,0.03809
4732.46209,0.03562
4734.39056,0.02198
4736.31903,0.00773
4738.24750,0.00285
4740.17596,0.00099
4742.10443,-0.00360
4744.03290,-0.00637
4745.96137,-0.00810
4747.88984,-0.00895
4749.81831,-0.00335
4751.74678,0.00362
4753.67524,0.00928
4755.60371,0.01945
4757.53218,0.02863
4759.46065,0.02864
4761.38912,0.02007
4763.31759,0.00851
4765.24606,0.00753
4767.17453,0.02233
4769.10299,0.03012
4771.03146,0.02459
4772.95993,0.02433
4774.88840,0.02373
4776.81687,0.01440
4778.74534,0.00630
4780.67381,0.00950
4782.60227,0.02243
4784.53074,0.02874
4786.45921,0.02040
4788.38768,0.00694
4790.31615,-0.00536
4792.24462,-0.01182
4794.17309,-0.00165
4796.10156,0.01242
4798.03002,0.01325
4799.95849,0.01300
4801.88696,0.01269
4803.81543,0.00622
4805.74390,0.00424
4807.67237,0.01066
4809.60084,0.02083
4811.52930,0.02511
4813.45777,0.01776
4815.38624,0.00819
4817.31471,0.00018
4819.24318,-0.00898
4821.17165,-0.00985
4823.10012,0.00465
4825.02859,0.01789
4826.95705,0.01245
4828.88552,0.00074
4830.81399,-0.00180
4832.74246,0.00462
4834.67093,0.01293
4836.59940,0.01310
4838.52787,0.00818
4840.45633,0.00455
4842.38480,0.00129
4844.31327,-0.00035
4846.24174,-0.00444
4848.17021,-0.00719
4850.09868,0.00366
4852.02715,0.01493
4853.95562,0.00957
4855.88408,0.00125
4857.81255,0.00269
4859.74102,0.00525
4861.66949,0.00402
4863.59796,0.00368
4865.52643,0.00707
4867.45490,0.01293
4869.38336,0.01520
4871.31183,0.01509
4873.24030,0.01434
4875.16877,0.01025
4877.09724,0.00697
4879.02571,0.00089
4880.95418,-0.01202
4882.88265,-0.01821
4884.81111,-0.00899
4886.73958,0.00372
4888.66805,0.00900
4890.59652,0.00935
4892.52499,0.00786
4894.45346,0.00509
4896.38193,0.00146
4898.31039,0.00052
4900.23886,0.00112
4902.16733,0.00140
4904.09580,0.00801
4906.02427,0.01242
4907.95274,0.00596
4909.88121,0.00334
4911.80967,0.01269
4913.73814,0.02210
4915.66661,0.02211
4917.59508,0.01661
4919.52355,0.01183
4921.45202,0.01041
4923.38049,0.01065
4925.30896,0.01120
4927.23742,0.00998
4929.16589,0.00117
4931.09436,-0.00933
4933.02283,-0.01072
4934.95130,-0.00035
4936.87977,0.01407
4938.80824,0.01669
4940.73670,0.01161
4942.66517,0.00731
4944.59364,-0.00301
4946.52211,-0.01006
4948.45058,0.00238
4950.37905,0.02538
4952.30752,0.03529
4954.23599,0.02455
4956.16445,0.00570
4958.09292,-0.00483
4960.02139,0.00082
4961.94986,0.01159
4963.87833,0.01619
4965.80680,0.01680
4967.73527,0.01887
4969.66373,0.01824
4971.59220,0.00437
4973.52067,-0.01050
4975.44914,-0.00785
4977.37761,0.00334
4979.30608,0.01106
4981.23455,0.01829
4983.16302,0.02454
4985.09148,0.02144
4987.01995,0.00734
4988.94842,-0.00694
4990.87689,-0.00836
4992.80536,0.00260
4994.73383,0.01583
4996.66230,0.02188
4998.59076,0.01630
5000.51923,0.00761
5002.44770,0.00586
5004.37617,0.01027
5006.30464,0.01553
5008.23311,0.01595
5010.16158,0.00901
5012.09005,0.00071
5014.01851,-0.00127
5015.94698,0.00015
5017.87545,-0.00012
5019.80392,0.00311
5021.73239,0.01010
5023.66086,0.01742
5025.58933,0.02041
5027.51779,0.01124
5029.44626,0.00529
5031.37473,0.01580
5033.30320,0.02519
5035.23167,0.02671
5037.16014,0.02852
5039.08861,0.01727
5041.01708,-0.00817
5042.94554,-0.01628
5044.87401,-0.00451
5046.80248,0.00321
5048.73095,0.00400
5050.65942,0.00289
5052.58789,0.00575
5054.51636,0.02398
5056.44482,0.04635
5058.37329,0.04908
5060.30176,0.02959
5062.23023,0.01389
5064.15870,0.02497
5066.08717,0.03822
5068.01564,0.03269
5069.94410,0.02769
5071.87257,0.02631
5073.80104,0.02452
5075.72951,0.03252
5077.65798,0.04304
5079.58645,0.04192
5081.51492,0.03659
5083.44339,0.03436
5085.37185,0.03211
5087.30032,0.02943
5089.22879,0.03023
5091.15726,0.03776
5093.08573,0.04521
5095.01420,0.04992
5096.94267,0.04796
5098.87113,0.03172
5100.79960,0.01461
5102.72807,0.00687
5104.65654,0.00667
5106.58501,0.01702
5108.51348,0.03460
5110.44195,0.04923
5112.37042,0.05410
5114.29888,0.04502
5116.22735,0.02148
5118.15582,-0.00390
5120.08429,-0.01433
5122.01276,-0.00457
5123.94123,0.02184
5125.86970,0.04898
5127.79816,0.05244
5129.72663,0.03324
5131.65510,0.01656
5133.58357,0.01485
5135.51204,0.02226
5137.44051,0.03459
5139.36898,0.05015
5141.29745,0.05151
5143.22591,0.03561
5145.15438,0.03544
5147.08285,0.05482
5149.01132,0.06323
5150.93979,0.05437
5152.86826,0.03846
5154.79673,0.02260
5156.72519,0.01332
5158.65366,0.01417
5160.58213,0.01995
5162.51060,0.02430
5164.43907,0.02344
5166.36754,0.01206
5168.29601,-0.00256
5170.22448,-0.00756
5172.15294,0.00057
5174.08141,0.02798
5176.00988,0.06396
5177.93835,0.07647
5179.86682,0.06648
5181.79529,0.06048
5183.72376,0.06162
5185.65222,0.06495
5187.58069,0.06859
5189.50916,0.06484
5191.43763,0.05457
5193.36610,0.04480
5195.29457,0.03656
5197.22304,0.03205
5199.15151,0.03340
5201.07997,0.03729
5203.00844,0.04734
5204.93691,0.05964
5206.86538,0.06164
5208.79385,0.05671
5210.72232,0.04371
5212.65079,0.02940
5214.57925,0.03141
5216.50772,0.03916
5218.43619,0.04205
5220.36466,0.05011
5222.29313,0.05688
5224.22160,0.05737
5226.15007,0.06741
5228.07854,0.08234
5230.00700,0.08994
5231.93547,0.09453
5233.86394,0.09040
5235.79241,0.06789
5237.72088,0.03961
5239.64935,0.02998
5241.57782,0.03707
5243.50628,0.03834
5245.43475,0.02600
5247.36322,0.01821
5249.29169,0.02386
5251.22016,0.03220
5253.14863,0.04835
5255.07710,0.06848
5257.00556,0.07456
5258.93403,0.07199
5260.86250,0.06903
5262.79097,0.06068
5264.71944,0.04710
5266.64791,0.03599
5268.57638,0.02758
5270.50485,0.03083
5272.43331,0.04928
5274.36178,0.06280
5276.29025,0.06272
5278.21872,0.05168
5280.14719,0.03306
5282.07566,0.03088
5284.00413,0.05263
5285.93259,0.07099
5287.86106,0.08069
5289.78953,0.08592
5291.71800,0.08040
5293.64647,0.06875
5295.57494,0.05509
5297.50341,0.04424
5299.43188,0.04261
5301.36034,0.04785
5303.28881,0.04368
5305.21728,0.03283
5307.14575,0.03735
5309.07422,0.05352
5311.00269,0.06562
5312.93116,0.06622
5314.85962,0.05717
5316.78809,0.05160
5318.71656,0.05754
5320.64503,0.06450
5322.57350,0.05917
5324.50197,0.05005
5326.43044,0.05201
5328.35891,0.07193
5330.28737,0.10057
5332.21584,0.10154
5334.14431,0.06563
5336.07278,0.04019
5338.00125,0.04035
5339.92972,0.04053
5341.85819,0.03946
5343.78665,0.03248
5345.71512,0.02567
5347.64359,0.04775
5349.57206,0.07148
5351.50053,0.06831
5353.42900,0.05218
5355.35747,0.03251
5357.28594,0.01905
5359.21440,0.02537
5361.14287,0.04350
5363.07134,0.05840
5364.99981,0.07176
5366.92828,0.08823
5368.85675,0.09414
5370.78522,0.07926
5372.71368,0.06724
5374.64215,0.08339
5376.57062,0.10840
5378.49909,0.11094
5380.42756,0.08991
5382.35603,0.06036
5384.28450,0.04398
5386.21297,0.04199
5388.14143,0.03832
5390.06990,0.04078
5391.99837,0.06335
5393.92684,0.08823
5395.85531,0.08785
5397.78378,0.07300
5399.71225,0.06316
5401.64071,0.06362
5403.56918,0.06537
5405.49765,0.06395
5407.42612,0.07154
5409.35459,0.08534
5411.28306,0.08867
5413.21153,0.08367
5415.13999,0.08111
5417.06846,0.09091
5418.99693,0.11243
5420.92540,0.12559
5422.85387,0.12162
5424.78234,0.10284
5426.71081,0.07594
5428.63928,0.05712
5430.56774,0.06199
5432.49621,0.09049
5434.42468,0.12073
5436.35315,0.13745
5438.28162,0.14246
5440.21009,0.12453
5442.13856,0.08432
5444.06702,0.05629
5445.99549,0.05172
5447.92396,0.05018
5449.85243,0.04615
5451.78090,0.04521
5453.70937,0.04583
5455.63784,0.04148
5457.56631,0.02999
5459.49477,0.03647
5461.42324,0.07137
5463.35171,0.08674
5465.28018,0.06625
5467.20865,0.05731
5469.13712,0.06371
5471.06559,0.05714
5472.99405,0.05176
5474.92252,0.05824
5476.85099,0.06097
5478.77946,0.06234
5480.70793,0.07365
5482.63640,0.09740
5484.56487,0.12448
5486.49334,0.13392
5488.42180,0.12422
5490.35027,0.11181
5492.27874,0.09278
5494.20721,0.06447
5496.13568,0.05973
5498.06415,0.08412
5499.99262,0.10617
5501.92108,0.11653
5503.84955,0.11784
5505.77802,0.11122
5507.70649,0.10220
5509.63496,0.07738
5511.56343,0.04566
5513.49190,0.03995
5515.42037,0.05098
5517.34883,0.05673
5519.27730,0.06337
5521.20577,0.07122
5523.13424,0.07174
5525.06271,0.06240
5526.99118,0.06122
5528.91965,0.07958
5530.84811,0.09274
5532.77658,0.09790
5534.70505,0.10157
5536.63352,0.08678
5538.56199,0.07263
5540.49046,0.08680
5542.41893,0.10804
5544.34740,0.10850
5546.27586,0.09153
5548.20433,0.06766
5550.13280,0.04986
5552.06127,0.05257
5553.98974,0.06262
5555.91821,0.05978
5557.84668,0.06059
5559.77514,0.08235
5561.70361,0.10272
5563.63208,0.10455
5565.56055,0.10490
5567.48902,0.11004
5569.41749,0.11216
5571.34596,0.11820
5573.27443,0.11847
5575.20289,0.08809
5577.13136,0.04686
5579.05983,0.02960
5580.98830,0.04414
5582.91677,0.07580
5584.84524,0.09235
5586.77371,0.08517
5588.70217,0.07072
5590.63064,0.05742
5592.55911,0.04664
5594.48758,0.04365
5596.41605,0.06372
5598.34452,0.09614
5600.27299,0.10291
5602.20145,0.08768
5604.12992,0.08289
5606.05839,0.09389
5607.98686,0.10817
5609.91533,0.12234
5611.84380,0.12727
5613.77227,0.11056
5615.70074,0.09844
5617.62920,0.10530
5619.55767,0.10193
5621.48614,0.08391
5623.41461,0.07559
5625.34308,0.09412
5627.27155,0.13078
5629.20002,0.14362
5631.12848,0.12311
5633.05695,0.09824
5634.98542,0.08509
5636.91389,0.07323
5638.84236,0.04700
5640.77083,0.03558
5642.69930,0.05084
5644.62777,0.05534
5646.55623,0.05698
5648.48470,0.06739
5650.41317,0.06982
5652.34164,0.07217
5654.27011,0.06124
5656.19858,0.03421
5658.12705,0.03072
5660.05551,0.06142
5661.98398,0.08866
5663.91245,0.09311
5665.84092,0.08932
5667.76939,0.08022
5669.69786,0.07875
5671.62633,0.09412
5673.55480,0.10650
5675.48326,0.11321
5677.41173,0.11108
5679.34020,0.08991
5681.26867,0.06611
5683.19714,0.05105
5685.12561,0.05719
5687.05408,0.09169
5688.98254,0.11822
5690.91101,0.11205
5692.83948,0.09105
5694.76795,0.06924
5696.69642,0.05532
5698.62489,0.06824
5700.55336,0.09914
5702.48183,0.10887
5704.41029,0.08265
5706.33876,0.03618
5708.26723,0.01590
5710.19570,0.04253
5712.12417,0.06958
5714.05264,0.07219
5715.98111,0.07320
5717.90957,0.08483
5719.83804,0.09583
5721.76651,0.09082
5723.69498,0.08356
5725.62345,0.08803
5727.55192,0.07097
5729.48039,0.02666
5731.40886,0.01372
5733.33732,0.05254
5735.26579,0.10470
5737.19426,0.12493
5739.12273,0.12110
5741.05120,0.13039
5742.97967,0.14339
5744.90814,0.12173
5746.83660,0.08107
5748.76507,0.06637
5750.69354,0.07659
5752.62201,0.10059
5754.55048,0.12765
5756.47895,0.14550
5758.40742,0.16333
5760.33588,0.16816
5762.26435,0.14245
5764.19282,0.10357
5766.12129,0.07001
5768.04976,0.06305
5769.97823,0.09339
5771.90670,0.11226
5773.83517,0.09958
5775.76363,0.10043
5777.69210,0.08988
5779.62057,0.04701
5781.54904,0.04401
5783.47751,0.07255
5785.40598,0.06191
5787.33445,0.03293
5789.26291,0.03764
5791.19138,0.07408
5793.11985,0.10686
5795.04832,0.12866
5796.97679,0.15342
5798.90526,0.16290
5800.83373,0.14092
5802.76220,0.09915
5804.69066,0.06275
5806.61913,0.05522
5808.54760,0.09126
5810.47607,0.14418
5812.40454,0.15563
5814.33301,0.12839
5816.26148,0.10071
5818.18994,0.07544
5820.11841,0.04772
5822.04688,0.05029
5823.97535,0.10898
5825.90382,0.16907
5827.83229,0.17978
5829.76076,0.15839
5831.68923,0.13504
5833.61769,0.11356
5835.54616,0.10352
5837.47463,0.10436
5839.40310,0.08492
5841.33157,0.05857
5843.26004,0.05934
5845.18851,0.07210
5847.11697,0.08117
5849.04544,0.09622
5850.97391,0.12977
5852.90238,0.15732
5854.83085,0.14758
5856.75932,0.11042
5858.68779,0.06683
5860.61626,0.04804
5862.54472,0.07685
5864.47319,0.11902
5866.40166,0.13262
5868.33013,0.11128
5870.25860,0.07076
5872.18707,0.04341
5874.11554,0.05683
5876.04400,0.09293
5877.97247,0.10446
5879.90094,0.09372
5881.82941,0.09579
5883.75788,0.12463
5885.68635,0.16362
5887.61482,0.16693
5889.54329,0.12237
5891.47175,0.06783
5893.40022,0.04210
5895.32869,0.06871
5897.25716,0.10924
5899.18563,0.10870
5901.11410,0.09350
5903.04257,0.10789
5904.97103,0.11643
5906.89950,0.07276
5908.82797,0.02396
5910.75644,0.02996
5912.68491,0.05973
5914.61338,0.07060
5916.54185,0.07868
5918.47032,0.09848
5920.39878,0.10270
5922.32725,0.09355
5924.25572,0.09907
5926.18419,0.09880
5928.11266,0.07275
5930.04113,0.05290
5931.96960,0.05550
5933.89806,0.07741
5935.82653,0.10000
5937.75500,0.08560
5939.68347,0.05397
5941.61194,0.04874
5943.54041,0.06327
5945.46888,0.07829
5947.39734,0.10256
5949.32581,0.12194
5951.25428,0.10989
5953.18275,0.09536
5955.11122,0.09520
5957.03969,0.09683
5958.96816,0.11479
5960.89663,0.14860
5962.82509,0.16048
5964.75356,0.12828
5966.68203,0.07318
5968.61050,0.04659
5970.53897,0.05969
5972.46744,0.08177
5974.39591,0.09712
5976.32437,0.10085
5978.25284,0.09619
5980.18131,0.08871
5982.10978,0.08323
5984.03825,0.09267
5985.96672,0.12502
5987.89519,0.15517
5989.82366,0.13630
5991.75212,0.08106
5993.68059,0.05697
5995.60906,0.07488
5997.53753,0.08558
5999.46600,0.08204
6001.39447,0.07267
6003.32294,0.06346
6005.25140,0.08355
6007.17987,0.10058
6009.10834,0.06320
6011.03681,0.03037
6012.96528,0.05321
6014.89375,0.09613
6016.82222,0.14834
6018.75069,0.16626
6020.67915,0.09195
6022.60762,0.03027
6024.53609,0.04398
6026.46456,0.06082
6028.39303,0.05221
6030.32150,0.02471
6032.24997,-0.00326
6034.17843,0.01227
6036.10690,0.04678
6038.03537,0.03482
6039.96384,0.01814
6041.89231,0.06546
6043.82078,0.13097
6045.74925,0.13814
6047.67772,0.10965
6049.60618,0.10556
6051.53465,0.12290
6053.46312,0.11765
6055.39159,0.07275
6057.32006,0.02313
6059.24853,0.02138
6061.17700,0.04464
6063.10546,0.04817
6065.03393,0.05060
6066.96240,0.05800
6068.89087,0.06329
6070.81934,0.06806
6072.74781,0.07429
6074.67628,0.09819
6076.60475,0.11024
6078.53321,0.09439
6080.46168,0.10831
6082.39015,0.14635
6084.31862,0.14807
6086.24709,0.11090
6088.17556,0.08274
6090.10403,0.07751
6092.03249,0.07796
6093.96096,0.09649
6095.88943,0.11658
6097.81790,0.11872
6099.74637,0.12136
6101.67484,0.10935
6103.60331,0.09810
6105.53177,0.12834
6107.46024,0.15373
6109.38871,0.13115
6111.31718,0.12105
6113.24565,0.14837
6115.17412,0.18395
6117.10259,0.20199
6119.03106,0.15194
6120.95952,0.06957
6122.88799,0.05559
6124.81646,0.11393
6126.74493,0.16099
6128.67340,0.14582
6130.60187,0.10678
6132.53034,0.07116
6134.45880,0.03862
6136.38727,0.01090
6138.31574,0.00790
6140.24421,0.05354
6142.17268,0.11332
6144.10115,0.13385
6146.02962,0.12804
6147.95809,0.12594
6149.88655,0.09782
6151.81502,0.04314
6153.74349,0.03969
6155.67196,0.07432
6157.60043,0.09363
6159.52890,0.12044
6161.45737,0.15368
6163.38583,0.14518
6165.31430,0.07802
6167.24277,0.02187
6169.17124,0.03593
6171.09971,0.09166
6173.02818,0.13688
6174.95665,0.13852
6176.88512,0.10454
6178.81358,0.08762
6180.74205,0.10304
6182.67052,0.11854
6184.59899,0.11834
6186.52746,0.09828
6188.45593,0.07045
6190.38440,0.05301
6192.31286,0.03383
6194.24133,0.02497
6196.16980,0.04878
6198.09827,0.08423
6200.02674,0.09334
6201.95521,0.10681
6203.88368,0.14839
6205.81215,0.13975
6207.74061,0.09012
6209.66908,0.07676
6211.59755,0.08148
6213.52602,0.09498
6215.45449,0.12832
6217.38296,0.10479
6219.31143,0.02181
6221.23989,-0.01687
6223.16836,0.01354
6225.09683,0.06087
6227.02530,0.06309
6228.95377,0.02891
6230.88224,0.04040
6232.81071,0.10690
6234.73918,0.16027
6236.66764,0.17528
6238.59611,0.18217
6240.52458,0.21410
6242.45305,0.23833
6244.38152,0.20613
6246.30999,0.14039
6248.23846,0.09060
6250.16692,0.10726
6252.09539,0.17749
6254.02386,0.20619
6255.95233,0.16186
6257.88080,0.09118
6259.80927,0.05213
6261.73774,0.08231
6263.66621,0.15557
6265.59467,0.13804
6267.52314,0.02745
6269.45161,0.00656
6271.38008,0.06609
6273.30855,0.10322
6275.23702,0.12557
6277.16549,0.15168
6279.09395,0.14974
6281.02242,0.13463
6282.95089,0.13302
6284.87936,0.13739
6286.80783,0.14625
6288.73630,0.15128
6290.66477,0.11886
6292.59323,0.06222
6294.52170,0.03551
6296.45017,0.02121
6298.37864,-0.00836
6300.30711,-0.03230
6302.23558,-0.03585
6304.16405,-0.00234
6306.09252,0.04332
6308.02098,0.04399
6309.94945,0.01068
6311.87792,-0.02402
6313.80639,-0.02546
6315.73486,0.03285
6317.66333,0.08300
6319.59180,0.07515
6321.52026,0.04776
6323.44873,0.02640
6325.37720,0.02890
6327.30567,0.07997
6329.23414,0.14610
6331.16261,0.14676
6333.09108,0.09802
6335.01955,0.07771
6336.94801,0.09456
6338.87648,0.14252
6340.80495,0.21794
6342.73342,0.25001
6344.66189,0.18353
6346.59036,0.09002
6348.51883,0.07602
6350.44729,0.12725
6352.37576,0.14488
6354.30423,0.10502
6356.23270,0.08093
6358.16117,0.10938
6360.08964,0.15117
6362.01811,0.15656
6363.94658,0.11738
6365.87504,0.09196
6367.80351,0.13751
6369.73198,0.17995
6371.66045,0.18408
6373.58892,0.18693
6375.51739,0.16294
6377.44586,0.11861
6379.37432,0.08162
6381.30279,0.04350
6383.23126,0.01553
6385.15973,0.04644
6387.08820,0.07866
6389.01667,0.02790
6390.94514,-0.03248
6392.87361,-0.00970
6394.80207,0.05449
6396.73054,0.07652
6398.65901,0.04961
6400.58748,0.04915
6402.51595,0.11034
6404.44442,0.14073
6406.37289,0.12271
6408.30135,0.11988
6410.22982,0.09521
6412.15829,0.06241
6414.08676,0.07769
6416.01523,0.09409
6417.94370,0.09737
6419.87217,0.11008
6421.80064,0.12523
6423.72910,0.14076
6425.65757,0.14390
6427.58604,0.09725
6429.51451,0.00869
6431.44298,-0.03097
6433.37145,0.00174
6435.29992,0.03216
6437.22838,0.04859
6439.15685,0.06184
6441.08532,0.06220
6443.01379,0.07162
6444.94226,0.08438
6446.87073,0.05304
6448.79920,0.00960
6450.72766,0.00514
6452.65613,0.01721
6454.58460,0.05517
6456.51307,0.13867
6458.44154,0.17384
6460.37001,0.10529
6462.29848,0.02792
6464.22695,0.00338
6466.15541,-0.01397
6468.08388,-0.02123
6470.01235,0.03479
6471.94082,0.11637
6473.86929,0.14448
6475.79776,0.14637
6477.72623,0.17928
6479.65469,0.19332
6481.58316,0.12739
6483.51163,0.05454
6485.44010,0.03244
6487.36857,0.02002
6489.29704,0.03081
6491.22551,0.08218
6493.15398,0.11356
6495.08244,0.12592
6497.01091,0.16331
6498.93938,0.20650
6500.86785,0.21205
6502.79632,0.16347
6504.72479,0.08591
6506.65326,0.02954
6508.58172,0.04714
6510.51019,0.10861
6512.43866,0.14891
6514.36713,0.16134
6516.29560,0.14472
6518.22407,0.12487
6520.15254,0.13171
6522.08101,0.15061
6524.00947,0.17283
6525.93794,0.19688
6527.86641,0.21431
6529.79488,0.18725
6531.72335,0.10751
6533.65182,0.05306
6535.58029,0.04602
6537.50875,0.04616
6539.43722,0.06948
6541.36569,0.10064
6543.29416,0.06026
6545.22263,0.00442
6547.15110,0.02674
6549.07957,0.04926
6551.00804,0.01792
6552.93650,-0.00416
6554.86497,-0.02283
6556.79344,-0.04139
6558.72191,-0.01688
6560.65038,0.03028
6562.57885,0.02391
6564.50732,-0.05834
6566.43578,-0.12471
6568.36425,-0.08685
6570.29272,0.00571
6572.22119,0.04902
6574.14966,0.05450
6576.07813,0.08569
6578.00660,0.15316
6579.93507,0.21353
6581.86353,0.18369
6583.79200,0.10147
6585.72047,0.05674
6587.64894,0.02830
6589.57741,0.01376
6591.50588,0.03067
6593.43435,0.07409
6595.36281,0.13940
6597.29128,0.20442
6599.21975,0.21660
6601.14822,0.15946
6603.07669,0.10940
6605.00516,0.09485
6606.93363,0.08957
6608.86210,0.08797
6610.79056,0.10283
6612.71903,0.14551
6614.64750,0.16699
6616.57597,0.12791
6618.50444,0.06709
6620.43291,0.03204
6622.36138,0.05575
6624.28984,0.12413
6626.21831,0.18187
6628.14678,0.19588
6630.07525,0.14854
6632.00372,0.09478
6633.93219,0.07288
6635.86066,0.05864
6637.78912,0.07260
6639.71759,0.12960
6641.64606,0.17388
6643.57453,0.15447
6645.50300,0.11043
6647.43147,0.11744
6649.35994,0.14390
6651.28841,0.11706
6653.21687,0.05525
6655.14534,0.03000
6657.07381,0.07987
6659.00228,0.17249
6660.93075,0.25275
6662.85922,0.29631
6664.78769,0.27722
6666.71615,0.16931
6668.64462,0.04701
6670.57309,0.02399
6672.50156,0.06793
6674.43003,0.11297
6676.35850,0.14947
6678.28697,0.12392
6680.21544,0.04187
6682.14390,-0.01470
6684.07237,-0.04698
6686.00084,-0.09013
6687.92931,-0.06733
6689.85778,0.01445
6691.78625,0.02125
6693.71472,0.00135
6695.64318,0.01500
6697.57165,0.03245
6699.50012,0.07921
6701.42859,0.13342
6703.35706,0.09179
6705.28553,0.01308
6707.21400,0.01340
6709.14247,0.02898
6711.07093,-0.01194
6712.99940,-0.06021
6714.92787,-0.09380
6716.85634,-0.11842
6718.78481,-0.09035
6720.71328,0.00554
6722.64175,0.10561
6724.57021,0.15859
6726.49868,0.15797
6728.42715,0.14661
6730.35562,0.17433
6732.28409,0.19986
6734.21256,0.17102
6736.14103,0.13339
6738.06950,0.09329
6739.99796,0.01316
6741.92643,-0.02914
6743.85490,0.00516
6745.78337,0.05773
6747.71184,0.11530
6749.64031,0.10223
6751.56878,0.03669
6753.49724,0.02885
6755.42571,0.04155
6757.35418,0.04271
6759.28265,0.07342
6761.21112,0.12845
6763.13959,0.11863
6765.06806,0.06451
6766.99653,0.07101
6768.92499,0.09033
6770.85346,0.05714
6772.78193,0.02582
6774.71040,0.04659
6776.63887,0.09792
6778.56734,0.09461
6780.49581,0.01718
6782.42427,-0.04382
6784.35274,0.00724
6786.28121,0.12244
6788.20968,0.15715
6790.13815,0.08803
6792.06662,0.04312
6793.99509,0.04726
6795.92355,0.05688
6797.85202,0.12090
6799.78049,0.19535
6801.70896,0.13914
6803.63743,-0.02607
6805.56590,-0.06574
6807.49437,0.04696
6809.42284,0.12157
6811.35130,0.07501
6813.27977,-0.02616
6815.20824,-0.07772
6817.13671,-0.02568
6819.06518,0.08915
6820.99365,0.20940
6822.92212,0.31858
6824.85058,0.35274
6826.77905,0.29569
6828.70752,0.22961
6830.63599,0.20873
6832.56446,0.21897
6834.49293,0.22968
6836.42140,0.20086
6838.34987,0.14470
6840.27833,0.09190
6842.20680,0.07329
6844.13527,0.09948
6846.06374,0.10110
6847.99221,0.04683
6849.92068,-0.02184
6851.84915,-0.06930
6853.77761,-0.08353
6855.70608,-0.04879
6857.63455,0.01471
6859.56302,0.04342
6861.49149,0.01761
6863.41996,-0.04952
6865.34843,-0.09252
6867.27690,-0.06038
6869.20536,-0.01760
6871.13383,0.00879
6873.06230,0.03290
6874.99077,0.03081
6876.91924,-0.00912
6878.84771,-0.03377
6880.77618,0.06856
6882.70464,0.20054
6884.63311,0.19456
6886.56158,0.10156
6888.49005,0.04178
6890.41852,0.03443
6892.34699,0.04216
6894.27546,0.03701
6896.20393,0.04802
6898.13239,0.08545
6900.06086,0.05389
6901.98933,-0.01935
6903.91780,-0.01917
6905.84627,0.02825
6907.77474,0.01349
6909.70321,-0.01635
6911.63167,0.01503
6913.56014,0.06939
6915.48861,0.10915
6917.41708,0.13143
6919.34555,0.15858
6921.27402,0.18530
6923.20249,0.14864
6925.13096,0.09206
6927.05942,0.09903
6928.98789,0.15028
6930.91636,0.12082
6932.84483,0.02647
6934.77330,0.01052
6936.70177,0.04335
6938.63024,0.09040
6940.55870,0.14686
6942.48717,0.17539
6944.41564,0.19634
6946.34411,0.21878
6948.27258,0.18326
6950.20105,0.10775
6952.12952,0.03362
6954.05799,-0.01991
6955.98645,0.04242
6957.91492,0.12688
6959.84339,0.10025
6961.77186,0.03519
6963.70033,-0.04017
6965.62880,-0.10730
6967.55727,-0.10990
6969.48573,-0.02547
6971.41420,0.11427
6973.34267,0.18131
6975.27114,0.12552
6977.19961,0.09784
6979.12808,0.15119
6981.05655,0.12835
6982.98501,-0.08214
6984.91348,-0.28777
6986.84195,-0.27687
6988.77042,-0.12175
6990.69889,0.06575
6992.62736,0.21273
6994.55583,0.23257
6996.48430,0.15819
6998.41276,0.08012
7000.34123,-0.00803
7002.26970,-0.08952
7004.19817,-0.08166
7006.12664,0.06742
7008.05511,0.19061
7009.98358,0.09852
7011.91204,-0.06615
7013.84051,-0.09106
7015.76898,0.01213
7017.69745,0.07155
7019.62592,0.06044
7021.55439,0.07931
7023.48286,0.09703
7025.41133,-0.01366
7027.33979,-0.12569
7029.26826,-0.01560
7031.19673,0.11832
7033.12520,0.08083
7035.05367,0.02041
7036.98214,0.05795
7038.91061,0.13331
7040.83907,0.14135
7042.76754,0.03024
7044.69601,-0.03338
7046.62448,0.04608
7048.55295,0.11089
7050.48142,0.11542
7052.40989,0.13468
7054.33836,0.11686
7056.26682,0.07142
7058.19529,0.08682
7060.12376,0.07967
7062.05223,0.09184
7063.98070,0.20386
7065.90917,0.28014
7067.83764,0.24215
7069.76610,0.11809
7071.69457,0.00527
7073.62304,0.00987
7075.55151,0.07073
7077.47998,0.09507
7079.40845,0.05658
7081.33692,-0.02170
7083.26539,-0.06904
7085.19385,-0.03226
7087.12232,0.06683
7089.05079,0.14514
7090.97926,0.14746
7092.90773,0.10537
7094.83620,0.06365
7096.76467,0.00545
7098.69313,-0.04559
7100.62160,-0.05035
7102.55007,-0.05274
7104.47854,-0.05330
7106.40701,-0.05609
7108.33548,-0.08560
7110.26395,-0.08481
7112.19242,-0.02829
7114.12088,0.02335
7116.04935,0.08679
7117.97782,0.18771
7119.90629,0.16662
7121.83476,0.05721
7123.76323,0.07276
7125.69170,0.17846
7127.62016,0.17239
7129.54863,0.04640
7131.47710,-0.05072
7133.40557,-0.03250
7135.33404,0.03922
7137.26251,0.04807
7139.19098,-0.01021
7141.11944,-0.03214
7143.04791,0.08393
7144.97638,0.27465
7146.90485,0.27851
7148.83332,0.13095
7150.76179,0.07154
7152.69026,0.09215
7154.61873,0.04511
7156.54719,-0.02522
7158.47566,0.00325
7160.40413,0.09047
7162.33260,0.12342
7164.26107,0.11305
7166.18954,0.15498
7168.11801,0.18602
7170.04647,0.10620
7171.97494,0.01868
7173.90341,0.06919
7175.83188,0.19636
7177.76035,0.20112
7179.68882,0.09240
7181.61729,0.05334
7183.54576,0.06590
7185.47422,0.01125
7187.40269,0.02334
7189.33116,0.16023
7191.25963,0.24257
7193.18810,0.19521
7195.11657,0.19633
7197.04504,0.27183
7198.97350,0.27957
7200.90197,0.23422
7202.83044,0.19413
7204.75891,0.08580
7206.68738,-0.08299
7208.61585,-0.15766
7210.54432,-0.11412
7212.47279,-0.06044
7214.40125,-0.07657
7216.32972,-0.04944
7218.25819,0.13187
7220.18666,0.20735
7222.11513,0.09484
7224.04360,0.02959
7225.97207,0.14961
7227.90053,0.28279
7229.82900,0.19484
7231.75747,-0.00103
7233.68594,-0.14247
7235.61441,-0.26198
7237.54288,-0.23450
7239.47135,-0.05906
7241.39982,0.06812
7243.32828,0.09799
7245.25675,0.10413
7247.18522,0.10128
7249.11369,0.04401
7251.04216,-0.04416
7252.97063,-0.07702
7254.89910,-0.05705
7256.82756,-0.00729
7258.75603,0.15691
7260.68450,0.36599
7262.61297,0.34003
7264.54144,0.16623
7266.46991,-0.00321
7268.39838,-0.14162
7270.32685,-0.12049
7272.25531,0.02632
7274.18378,0.04972
7276.11225,-0.01906
7278.04072,-0.03456
7279.96919,0.04125
7281.89766,0.14665
7283.82613,0.26623
7285.75459,0.30260
7287.68306,0.26851
7289.61153,0.26613
7291.54000,0.19751
7293.46847,0.05812
7295.39694,0.01093
7297.32541,-0.00301
7299.25387,-0.06466
7301.18234,-0.03800
7303.11081,0.13443
7305.03928,0.24454
7306.96775,0.09822
7308.89622,-0.16294
7310.82469,-0.12534
7312.75316,0.08155
7314.68162,0.14876
7316.61009,0.10858
7318.53856,0.15444
7320.46703,0.29560
7322.39550,0.39376
7324.32397,0.28751
7326.25244,0.08573
7328.18090,0.01637
7330.10937,0.04318
7332.03784,-0.04066
7333.96631,-0.22775
7335.89478,-0.33809
7337.82325,-0.23859
7339.75172,0.03124
7341.68019,0.11902
7343.60865,0.09977
7345.53712,0.17118
7347.46559,0.21857
7349.39406,0.17059
7351.32253,0.09733
7353.25100,0.08697
7355.17947,0.22143
7357.10793,0.38525
7359.03640,0.36936
7360.96487,0.26796
7362.89334,0.16029
7364.82181,0.09023
7366.75028,0.18197
7368.67875,0.29615
7370.60722,0.25470
7372.53568,0.16069
7374.46415,0.13094
7376.39262,0.12816
7378.32109,0.05314
7380.24956,-0.06924
7382.17803,-0.15984
7384.10650,-0.05717
7386.03496,0.11745
7387.96343,-0.00136
7389.89190,-0.19007
7391.82037,-0.13678
7393.74884,0.06382
7395.67731,0.26463
7397.60578,0.24490
7399.53425,-0.01600
7401.46271,-0.19301
7403.39118,-0.17397
7405.31965,-0.14911
7407.24812,-0.20222
7409.17659,-0.23113
7411.10506,-0.14320
7413.03353,-0.00469
7414.96199,0.06990
7416.89046,0.02778
7418.81893,-0.08704
7420.74740,-0.01941
7422.67587,0.20834
7424.60434,0.32339
7426.53281,0.18214
7428.46128,-0.05320
7430.38974,-0.01341
7432.31821,0.18489
7434.24668,0.24180
7436.17515,0.27506
7438.10362,0.25497
7440.03209,0.02674
7441.96056,-0.14631
7443.88902,-0.05099
7445.81749,0.15184
7447.74596,0.32946
7449.67443,0.37200
7451.60290,0.18709
7453.53137,-0.02977
7455.45984,-0.07060
7457.38831,0.03890
7459.31677,0.18871
7461.24524,0.17238
7463.17371,0.09584
7465.10218,0.18948
7467.03065,0.28237
7468.95912,0.17318
7470.88759,0.03257
7472.81605,0.07107
7474.74452,0.09669
7476.67299,0.05902
7478.60146,0.18684
7480.52993,0.32025
7482.45840,0.16198
7484.38687,-0.07505
7486.31533,-0.21566
7488.24380,-0.30866
7490.17227,-0.27222
7492.10074,-0.05371
7494.02921,0.11336
7495.95768,0.09318
7497.88615,-0.09463
