399.19301,-1.99016
401.12148,-0.26857
403.04995,0.38698
404.97842,0.77070
406.90689,1.16083
408.83536,1.27269
410.76382,1.74571
412.69229,3.47601
414.62076,4.96433
416.54923,4.89859
418.47770,3.01795
420.40617,0.43967
422.33464,-0.30313
424.26311,0.24175
426.19157,0.65091
428.12004,0.56134
430.04851,0.23445
431.97698,-0.16501
433.90545,-0.46428
435.83392,-0.65521
437.76239,-0.75053
439.69085,-0.70358
441.61932,-0.33886
443.54779,0.33172
445.47626,0.84081
447.40473,0.96760
449.33320,0.78419
451.26167,0.43216
453.19013,0.04910
455.11860,-0.31472
457.04707,-0.53828
458.97554,-0.48235
460.90401,-0.23325
462.83248,0.09684
464.76095,0.41742
466.68942,0.59422
468.61788,0.59379
470.54635,0.54966
472.47482,0.87042
474.40329,1.23376
476.33176,0.53764
478.26023,-0.07796
480.18870,-0.08053
482.11716,0.19574
484.04563,0.47167
485.97410,0.61655
487.90257,0.56657
489.83104,0.35453
491.75951,0.06641
493.68798,-0.21230
495.61645,-0.40345
497.54491,-0.41825
499.47338,-0.26888
501.40185,0.00525
503.33032,0.29644
505.25879,0.47303
507.18726,0.49167
509.11573,0.36863
511.04419,0.20147
512.97266,0.03433
514.90113,-0.10869
516.82960,-0.16218
518.75807,-0.07274
520.68654,0.10104
522.61501,0.30589
524.54348,0.49349
526.47194,0.55179
528.40041,0.45509
530.32888,0.27880
532.25735,0.07833
534.18582,-0.09533
536.11429,-0.17829
538.04276,-0.11795
539.97122,0.06901
541.89969,0.29740
543.82816,0.46307
545.75663,0.51228
547.68510,0.43498
549.61357,0.37437
551.54204,0.72968
553.47051,1.19360
555.39897,0.91732
557.32744,0.23749
559.25591,0.01810
561.18438,0.15312
563.11285,0.30329
565.04132,0.36728
566.96979,0.32567
568.89825,0.21381
570.82672,0.06621
572.75519,-0.07442
574.68366,-0.14349
576.61213,-0.11432
578.54060,-0.01958
580.46907,0.12924
582.39754,0.29067
584.32600,0.37740
586.25447,0.36570
588.18294,0.29485
590.11141,0.19571
592.03988,0.08427
593.96835,-0.01690
595.89682,-0.07679
597.82528,-0.05077
599.75375,0.06362
601.68222,0.21188
603.61069,0.31818
605.53916,0.33128
607.46763,0.26284
609.39610,0.16057
611.32456,0.07107
613.25303,0.01663
615.18150,-0.00625
617.10997,0.00770
619.03844,0.06125
620.96691,0.12736
622.89538,0.18028
624.82385,0.21685
626.75231,0.23276
628.68078,0.20812
630.60925,0.11966
632.53772,0.00485
634.46619,-0.03123
636.39466,0.01088
638.32313,0.06810
640.25159,0.14747
642.18006,0.23777
644.10853,0.28808
646.03700,0.28151
647.96547,0.23409
649.89394,0.15759
651.82241,0.07388
653.75088,0.01588
655.67934,-0.00633
657.60781,0.00865
659.53628,0.06468
661.46475,0.14845
663.39322,0.23145
665.32169,0.28697
667.25016,0.30166
669.17862,0.23802
671.10709,0.13383
673.03556,0.04708
674.96403,0.00384
676.89250,0.02645
678.82097,0.08540
680.74944,0.15275
682.67791,0.22369
684.60637,0.26845
686.53484,0.25944
688.46331,0.20542
690.39178,0.12652
692.32025,0.04686
694.24872,0.00115
696.17719,0.01875
698.10565,0.08420
700.03412,0.15425
701.96259,0.20966
703.89106,0.24407
705.81953,0.25326
707.74800,0.24092
709.67647,0.21430
711.60494,0.16005
713.53340,0.08270
715.46187,0.03784
717.39034,0.05138
719.31881,0.10623
721.24728,0.17882
723.17575,0.23570
725.10422,0.25396
727.03268,0.23128
728.96115,0.17882
730.88962,0.11636
732.81809,0.06456
734.74656,0.03923
736.67503,0.04978
738.60350,0.10060
740.53197,0.17344
742.46043,0.23155
744.38890,0.25502
746.31737,0.23467
748.24584,0.17943
750.17431,0.11882
752.10278,0.06547
754.03125,0.02988
755.95971,0.03333
757.88818,0.07490
759.81665,0.13475
761.74512,0.19655
763.67359,0.24223
765.60206,0.24953
767.53053,0.21656
769.45900,0.16436
771.38746,0.10773
773.31593,0.06275
775.24440,0.05527
777.17287,0.08922
779.10134,0.14186
781.02981,0.19347
782.95828,0.23546
784.88674,0.25402
786.81521,0.23275
788.74368,0.17900
790.67215,0.11557
792.60062,0.06304
794.52909,0.04449
796.45756,0.07262
798.38602,0.13721
800.31449,0.20410
802.24296,0.24529
804.17143,0.26501
806.09990,0.25744
808.02837,0.21262
809.95684,0.15009
811.88531,0.09378
813.81377,0.06254
815.74224,0.06596
817.67071,0.10109
819.59918,0.15435
821.52765,0.20487
823.45612,0.23607
825.38459,0.23209
827.31305,0.18871
829.24152,0.12870
831.16999,0.07982
833.09846,0.05111
835.02693,0.05054
836.95540,0.08686
838.88387,0.14430
840.81234,0.20004
842.74080,0.23843
844.66927,0.24254
846.59774,0.21367
848.52621,0.16873
850.45468,0.12061
852.38315,0.08250
854.31162,0.06708
856.24008,0.08550
858.16855,0.13425
860.09702,0.18943
862.02549,0.22876
863.95396,0.23906
865.88243,0.22171
867.81090,0.19633
869.73937,0.16939
871.66783,0.12915
873.59630,0.09243
875.52477,0.09023
877.45324,0.12043
879.38171,0.16200
881.31018,0.19669
883.23865,0.21945
885.16711,0.22091
887.09558,0.18668
889.02405,0.13387
890.95252,0.09541
892.88099,0.08146
894.80946,0.08421
896.73793,0.10507
898.66640,0.14816
900.59486,0.19649
902.52333,0.22153
904.45180,0.21734
906.38027,0.19437
908.30874,0.15503
910.23721,0.11323
912.16568,0.09098
914.09414,0.09223
916.02261,0.11344
917.95108,0.15147
919.87955,0.19147
921.80802,0.21579
923.73649,0.21996
925.66496,0.20457
927.59343,0.17103
929.52189,0.13289
931.45036,0.10642
933.37883,0.09729
935.30730,0.10669
937.23577,0.13342
939.16424,0.17085
941.09271,0.20084
943.02117,0.20762
944.94964,0.19394
946.87811,0.16487
948.80658,0.12720
950.73505,0.09620
952.66352,0.08501
954.59199,0.09879
956.52045,0.12913
958.44892,0.16012
960.37739,0.18312
962.30586,0.19642
964.23433,0.19266
966.16280,0.16868
968.09127,0.13843
970.01974,0.11661
971.94820,0.10948
973.87667,0.11831
975.80514,0.13733
977.73361,0.16386
979.66208,0.19537
981.59055,0.21285
983.51902,0.20541
985.44748,0.18080
987.37595,0.14711
989.30442,0.11795
991.23289,0.10442
993.16136,0.10522
995.08983,0.11967
997.01830,0.14920
998.94677,0.18650
1000.87523,0.21551
1002.80370,0.22180
1004.73217,0.20267
1006.66064,0.16722
1008.58911,0.12754
1010.51758,0.09950
1012.44605,0.09660
1014.37451,0.11383
1016.30298,0.14040
1018.23145,0.17138
1020.15992,0.19944
1022.08839,0.21738
1024.01686,0.22300
1025.94533,0.22622
1027.87380,0.22688
1029.80226,0.19436
1031.73073,0.14010
1033.65920,0.11951
1035.58767,0.13595
1037.51614,0.16685
1039.44461,0.20730
1041.37308,0.23725
1043.30154,0.23617
1045.23001,0.21107
1047.15848,0.17561
1049.08695,0.14056
1051.01542,0.11619
1052.94389,0.11036
1054.87236,0.12927
1056.80083,0.16821
1058.72929,0.20778
1060.65776,0.23105
1062.58623,0.24067
1064.51470,0.23380
1066.44317,0.19702
1068.37164,0.14922
1070.30011,0.12343
1072.22857,0.12436
1074.15704,0.14437
1076.08551,0.17778
1078.01398,0.21163
1079.94245,0.23315
1081.87092,0.23709
1083.79939,0.22213
1085.72786,0.18996
1087.65632,0.14854
1089.58479,0.11757
1091.51326,0.11363
1093.44173,0.12817
1095.37020,0.15033
1097.29867,0.18568
1099.22714,0.22677
1101.15560,0.24888
1103.08407,0.24098
1105.01254,0.21210
1106.94101,0.17480
1108.86948,0.14077
1110.79795,0.12014
1112.72642,0.12018
1114.65489,0.14355
1116.58335,0.18233
1118.51182,0.21964
1120.44029,0.23630
1122.36876,0.22697
1124.29723,0.20220
1126.22570,0.17012
1128.15417,0.13866
1130.08263,0.12094
1132.01110,0.12421
1133.93957,0.14476
1135.86804,0.17340
1137.79651,0.19682
1139.72498,0.20905
1141.65345,0.21322
1143.58191,0.20191
1145.51038,0.17476
1147.43885,0.14974
1149.36732,0.13332
1151.29579,0.12616
1153.22426,0.13642
1155.15273,0.16237
1157.08120,0.19254
1159.00966,0.21492
1160.93813,0.22150
1162.86660,0.21495
1164.79507,0.20012
1166.72354,0.17899
1168.65201,0.15779
1170.58048,0.14681
1172.50894,0.15199
1174.43741,0.16934
1176.36588,0.18994
1178.29435,0.20678
1180.22282,0.21455
1182.15129,0.20885
1184.07976,0.18662
1186.00823,0.15618
1187.93669,0.13929
1189.86516,0.14034
1191.79363,0.14582
1193.72210,0.15527
1195.65057,0.17221
1197.57904,0.19108
1199.50751,0.20356
1201.43597,0.20387
1203.36444,0.19390
1205.29291,0.17707
1207.22138,0.15633
1209.14985,0.14094
1211.07832,0.13929
1213.00679,0.15124
1214.93526,0.17059
1216.86372,0.18945
1218.79219,0.20348
1220.72066,0.20896
1222.64913,0.20308
1224.57760,0.18997
1226.50607,0.17496
1228.43454,0.16101
1230.36300,0.15241
1232.29147,0.15602
1234.21994,0.16985
1236.14841,0.18482
1238.07688,0.19958
1240.00535,0.21067
1241.93382,0.20912
1243.86229,0.19278
1245.79075,0.17045
1247.71922,0.15409
1249.64769,0.14844
1251.57616,0.15269
1253.50463,0.16593
1255.43310,0.18702
1257.36157,0.20741
1259.29003,0.21547
1261.21850,0.21110
1263.14697,0.19795
1265.07544,0.17799
1267.00391,0.16148
1268.93238,0.15655
1270.86085,0.16182
1272.78932,0.17545
1274.71778,0.19388
1276.64625,0.20873
1278.57472,0.21322
1280.50319,0.20922
1282.43166,0.20081
1284.36013,0.18660
1286.28860,0.16797
1288.21706,0.15403
1290.14553,0.15286
1292.07400,0.16497
1294.00247,0.18361
1295.93094,0.19992
1297.85941,0.21125
1299.78788,0.21487
1301.71634,0.20348
1303.64481,0.17989
1305.57328,0.15884
1307.50175,0.15135
1309.43022,0.15661
1311.35869,0.16702
1313.28716,0.17704
1315.21563,0.18895
1317.14409,0.20481
1319.07256,0.21352
1321.00103,0.20685
1322.92950,0.19384
1324.85797,0.18003
1326.78644,0.16558
1328.71491,0.15803
1330.64337,0.16069
1332.57184,0.16889
1334.50031,0.18110
1336.42878,0.19714
1338.35725,0.21267
1340.28572,0.21250
1342.21419,0.18544
1344.14266,0.15263
1346.07112,0.14194
1347.99959,0.14912
1349.92806,0.15508
1351.85653,0.16201
1353.78500,0.17695
1355.71347,0.19660
1357.64194,0.21268
1359.57040,0.21980
1361.49887,0.21416
1363.42734,0.19170
1365.35581,0.16678
1367.28428,0.15621
1369.21275,0.16073
1371.14122,0.17290
1373.06969,0.18873
1374.99815,0.20548
1376.92662,0.21705
1378.85509,0.21946
1380.78356,0.20995
1382.71203,0.19417
1384.64050,0.18124
1386.56897,0.17297
1388.49743,0.17004
1390.42590,0.17550
1392.35437,0.19074
1394.28284,0.21582
1396.21131,0.23896
1398.13978,0.24438
1400.06825,0.23127
1401.99672,0.21043
1403.92518,0.19034
1405.85365,0.17556
1407.78212,0.17033
1409.71059,0.17268
1411.63906,0.18022
1413.56753,0.19263
1415.49600,0.20982
1417.42446,0.23057
1419.35293,0.24007
1421.28140,0.22653
1423.20987,0.20409
1425.13834,0.18372
1427.06681,0.17495
1428.99528,0.17718
1430.92375,0.18588
1432.85221,0.20059
1434.78068,0.22209
1436.70915,0.23757
1438.63762,0.22875
1440.56609,0.21281
1442.49456,0.19951
1444.42303,0.18665
1446.35149,0.17793
1448.27996,0.17969
1450.20843,0.18760
1452.13690,0.19721
1454.06537,0.21475
1455.99384,0.24923
1457.92231,0.26801
1459.85077,0.23774
1461.77924,0.21099
1463.70771,0.19583
1465.63618,0.18257
1467.56465,0.17549
1469.49312,0.17981
1471.42159,0.19837
1473.35006,0.22536
1475.27852,0.23453
1477.20699,0.22980
1479.13546,0.22313
1481.06393,0.21192
1482.99240,0.19530
1484.92087,0.18373
1486.84934,0.18490
1488.77780,0.19699
1490.70627,0.20736
1492.63474,0.21509
1494.56321,0.23196
1496.49168,0.25345
1498.42015,0.25176
1500.34862,0.22500
1502.27709,0.19532
1504.20555,0.17503
1506.13402,0.17498
1508.06249,0.19270
1509.99096,0.20389
1511.91943,0.21839
1513.84790,0.23888
1515.77637,0.25931
1517.70483,0.26505
1519.63330,0.25357
1521.56177,0.23410
1523.49024,0.21206
1525.41871,0.19512
1527.34718,0.18707
1529.27565,0.19317
1531.20412,0.21239
1533.13258,0.23722
1535.06105,0.24922
1536.98952,0.25554
1538.91799,0.27291
1540.84646,0.27529
1542.77493,0.23938
1544.70340,0.20537
1546.63186,0.18868
1548.56033,0.19070
1550.48880,0.20452
1552.41727,0.22301
1554.34574,0.24503
1556.27421,0.27088
1558.20268,0.28873
1560.13115,0.24647
1562.05961,0.20697
1563.98808,0.19035
1565.91655,0.18308
1567.84502,0.18593
1569.77349,0.19801
1571.70196,0.21179
1573.63043,0.22958
1575.55889,0.24891
1577.48736,0.24059
1579.41583,0.21399
1581.34430,0.19198
1583.27277,0.17684
1585.20124,0.17105
1587.12971,0.17395
1589.05818,0.18320
1590.98664,0.19638
1592.91511,0.20945
1594.84358,0.21704
1596.77205,0.21421
1598.70052,0.20456
1600.62899,0.19501
1602.55746,0.18585
1604.48592,0.17591
1606.41439,0.17021
1608.34286,0.17569
1610.27133,0.19064
1612.19980,0.20769
1614.12827,0.22609
1616.05674,0.24022
1617.98521,0.23069
1619.91367,0.21394
1621.84214,0.20613
1623.77061,0.20033
1625.69908,0.19497
1627.62755,0.19735
1629.55602,0.20763
1631.48449,0.22166
1633.41295,0.24463
1635.34142,0.27438
1637.26989,0.26568
1639.19836,0.23207
1641.12683,0.20747
1643.05530,0.19438
1644.98377,0.19269
1646.91223,0.20397
1648.84070,0.21973
1650.76917,0.24039
1652.69764,0.27613
1654.62611,0.27570
1656.55458,0.24738
1658.48305,0.22889
1660.41152,0.21661
1662.33998,0.20549
1664.26845,0.19663
1666.19692,0.19590
1668.12539,0.20650
1670.05386,0.22749
1671.98233,0.24749
1673.91080,0.26205
1675.83926,0.26015
1677.76773,0.24230
1679.69620,0.22609
1681.62467,0.21413
1683.55314,0.20279
1685.48161,0.19866
1687.41008,0.20507
1689.33855,0.21523
1691.26701,0.22646
1693.19548,0.24223
1695.12395,0.26695
1697.05242,0.28029
1698.98089,0.26141
1700.90936,0.22251
1702.83783,0.19874
1704.76629,0.19391
1706.69476,0.19689
1708.62323,0.20293
1710.55170,0.21394
1712.48017,0.23349
1714.40864,0.25662
1716.33711,0.26361
1718.26558,0.23468
1720.19404,0.20335
1722.12251,0.18879
1724.05098,0.18419
1725.97945,0.18749
1727.90792,0.19964
1729.83639,0.21821
1731.76486,0.24009
1733.69332,0.25772
1735.62179,0.24978
1737.55026,0.23147
1739.47873,0.21299
1741.40720,0.19540
1743.33567,0.18847
1745.26414,0.19365
1747.19261,0.20750
1749.12107,0.22543
1751.04954,0.23751
1752.97801,0.23958
1754.90648,0.23804
1756.83495,0.23182
1758.76342,0.21910
1760.69189,0.20626
1762.62035,0.19579
1764.54882,0.19171
1766.47729,0.19800
1768.40576,0.21414
1770.33423,0.23731
1772.26270,0.25164
1774.19117,0.23788
1776.11964,0.21799
1778.04810,0.20762
1779.97657,0.20050
1781.90504,0.18887
1783.83351,0.18063
1785.76198,0.18565
1787.69045,0.20076
1789.61892,0.21980
1791.54738,0.23703
1793.47585,0.23981
1795.40432,0.23027
1797.33279,0.21977
1799.26126,0.21103
1801.18973,0.20067
1803.11820,0.19088
1805.04666,0.19047
1806.97513,0.20010
1808.90360,0.21480
1810.83207,0.22653
1812.76054,0.22835
1814.68901,0.22377
1816.61748,0.21165
1818.54595,0.18979
1820.47441,0.17610
1822.40288,0.18209
1824.33135,0.19175
1826.25982,0.19833
1828.18829,0.21398
1830.11676,0.22980
1832.04523,0.22994
1833.97369,0.22493
1835.90216,0.22016
1837.83063,0.21002
1839.75910,0.19892
1841.68757,0.19467
1843.61604,0.19581
1845.54451,0.19881
1847.47298,0.20431
1849.40144,0.21295
1851.32991,0.22098
1853.25838,0.22430
1855.18685,0.22149
1857.11532,0.21226
1859.04379,0.19901
1860.97226,0.18904
1862.90072,0.18881
1864.82919,0.19646
1866.75766,0.20752
1868.68613,0.21869
1870.61460,0.22387
1872.54307,0.22261
1874.47154,0.21796
1876.40001,0.20989
1878.32847,0.19838
1880.25694,0.18849
1882.18541,0.18743
1884.11388,0.19347
1886.04235,0.20130
1887.97082,0.21217
1889.89929,0.22305
1891.82775,0.22756
1893.75622,0.22733
1895.68469,0.22106
1897.61316,0.20745
1899.54163,0.19418
1901.47010,0.18878
1903.39857,0.19140
1905.32704,0.19832
1907.25550,0.20795
1909.18397,0.21975
1911.11244,0.22891
1913.04091,0.22984
1914.96938,0.22364
1916.89785,0.21397
1918.82632,0.20361
1920.75478,0.19742
1922.68325,0.19766
1924.61172,0.20120
1926.54019,0.20679
1928.46866,0.21509
1930.39713,0.22112
1932.32560,0.22210
1934.25407,0.22040
1936.18253,0.21530
1938.11100,0.20563
1940.03947,0.19506
1941.96794,0.19207
1943.89641,0.20062
1945.82488,0.21071
1947.75335,0.21578
1949.68181,0.21994
1951.61028,0.22423
1953.53875,0.22278
1955.46722,0.21401
1957.39569,0.20328
1959.32416,0.19490
1961.25263,0.19167
1963.18110,0.19563
1965.10956,0.20373
1967.03803,0.21162
1968.96650,0.21841
1970.89497,0.22209
1972.82344,0.21909
1974.75191,0.21078
1976.68038,0.20258
1978.60884,0.19735
1980.53731,0.19481
1982.46578,0.19452
1984.39425,0.19831
1986.32272,0.20675
1988.25119,0.21521
1990.17966,0.22093
1992.10812,0.22378
1994.03659,0.22121
1995.96506,0.21260
1997.89353,0.20147
1999.82200,0.19338
2001.75047,0.19148
2003.67894,0.19523
2005.60741,0.20298
2007.53587,0.21208
2009.46434,0.21901
2011.39281,0.22147
2013.32128,0.21880
2015.24975,0.21211
2017.17822,0.20363
2019.10669,0.19643
2021.03515,0.19494
2022.96362,0.19857
2024.89209,0.20441
2026.82056,0.21225
2028.74903,0.21892
2030.67750,0.22145
2032.60597,0.21926
2034.53444,0.21170
2036.46290,0.20225
2038.39137,0.19518
2040.31984,0.19151
2042.24831,0.19349
2044.17678,0.20097
2046.10525,0.21008
2048.03372,0.21853
2049.96218,0.22296
2051.89065,0.22031
2053.81912,0.21333
2055.74759,0.20562
2057.67606,0.19755
2059.60453,0.19218
2061.53300,0.19336
2063.46147,0.20052
2065.38993,0.21034
2067.31840,0.21883
2069.24687,0.22427
2071.17534,0.22539
2073.10381,0.22133
2075.03228,0.21297
2076.96075,0.20158
2078.88921,0.19173
2080.81768,0.18955
2082.74615,0.19648
2084.67462,0.20747
2086.60309,0.21646
2088.53156,0.22088
2090.46003,0.22077
2092.38850,0.21700
2094.31696,0.20949
2096.24543,0.19985
2098.17390,0.19272
2100.10237,0.19152
2102.03084,0.19646
2103.95931,0.20522
2105.88778,0.21397
2107.81624,0.21993
2109.74471,0.22292
2111.67318,0.22316
2113.60165,0.21756
2115.53012,0.20543
2117.45859,0.19430
2119.38706,0.19024
2121.31553,0.19369
2123.24399,0.20234
2125.17246,0.21130
2127.10093,0.21779
2129.02940,0.22163
2130.95787,0.22148
2132.88634,0.21658
2134.81481,0.20969
2136.74327,0.20262
2138.67174,0.19519
2140.60021,0.19181
2142.52868,0.19718
2144.45715,0.20811
2146.38562,0.21868
2148.31409,0.22583
2150.24255,0.22669
2152.17102,0.21976
2154.09949,0.20900
2156.02796,0.19908
2157.95643,0.19324
2159.88490,0.19435
2161.81337,0.20101
2163.74184,0.20920
2165.67030,0.21702
2167.59877,0.22402
2169.52724,0.22688
2171.45571,0.22226
2173.38418,0.21251
2175.31265,0.20072
2177.24112,0.19050
2179.16958,0.18769
2181.09805,0.19329
2183.02652,0.20326
2184.95499,0.21434
2186.88346,0.22285
2188.81193,0.22505
2190.74040,0.22112
2192.66887,0.21213
2194.59733,0.20105
2196.52580,0.19323
2198.45427,0.19041
2200.38274,0.19379
2202.31121,0.20368
2204.23968,0.21418
2206.16815,0.21959
2208.09661,0.22107
2210.02508,0.22130
2211.95355,0.21871
2213.88202,0.21109
2215.81049,0.20240
2217.73896,0.19809
2219.66743,0.19758
2221.59590,0.20052
2223.52436,0.20811
2225.45283,0.21861
2227.38130,0.22688
2229.30977,0.22725
2231.23824,0.21990
2233.16671,0.20917
2235.09518,0.19908
2237.02364,0.19254
2238.95211,0.19036
2240.88058,0.19400
2242.80905,0.20521
2244.73752,0.21969
2246.66599,0.22892
2248.59446,0.22945
2250.52293,0.22375
2252.45139,0.21425
2254.37986,0.20270
2256.30833,0.19376
2258.23680,0.19244
2260.16527,0.19794
2262.09374,0.20655
2264.02221,0.21575
2265.95067,0.22298
2267.87914,0.22630
2269.80761,0.22361
2271.73608,0.21330
2273.66455,0.20066
2275.59302,0.19421
2277.52149,0.19375
2279.44996,0.19463
2281.37842,0.19847
2283.30689,0.20780
2285.23536,0.21975
2287.16383,0.22746
2289.09230,0.22530
2291.02077,0.21732
2292.94924,0.20962
2294.87770,0.20315
2296.80617,0.19810
2298.73464,0.19439
2300.66311,0.19700
2302.59158,0.20823
2304.52005,0.21909
2306.44852,0.22314
2308.37699,0.22077
2310.30545,0.21325
2312.23392,0.20092
2314.16239,0.18610
2316.09086,0.17450
2318.01933,0.17088
2319.94780,0.17822
2321.87627,0.19646
2323.80473,0.22039
2325.73320,0.24006
2327.66167,0.24618
2329.59014,0.23543
2331.51861,0.21262
2333.44708,0.19155
2335.37555,0.17659
2337.30401,0.16580
2339.23248,0.17280
2341.16095,0.20685
2343.08942,0.25061
2345.01789,0.26915
2346.94636,0.25613
2348.87483,0.23655
2350.80330,0.21590
2352.73176,0.18716
2354.66023,0.15133
2356.58870,0.12555
2358.51717,0.13641
2360.44564,0.18364
2362.37411,0.23780
2364.30258,0.28031
2366.23104,0.29274
2368.15951,0.27058
2370.08798,0.24028
2372.01645,0.21633
2373.94492,0.19677
2375.87339,0.18474
2377.80186,0.18549
2379.73033,0.19715
2381.65879,0.21004
2383.58726,0.21846
2385.51573,0.22391
2387.44420,0.22549
2389.37267,0.21994
2391.30114,0.20838
2393.22961,0.19731
2395.15807,0.19295
2397.08654,0.19457
2399.01501,0.19923
2400.94348,0.20675
2402.87195,0.21565
2404.80042,0.22270
2406.72889,0.22472
2408.65736,0.22089
2410.58582,0.21345
2412.51429,0.20364
2414.44276,0.19433
2416.37123,0.19104
2418.29970,0.19523
2420.22817,0.20554
2422.15664,0.21792
2424.08510,0.22527
2426.01357,0.22584
2427.94204,0.22093
2429.87051,0.21161
2431.79898,0.20305
2433.72745,0.19849
2435.65592,0.19649
2437.58439,0.19938
2439.51285,0.20845
2441.44132,0.21760
2443.36979,0.22258
2445.29826,0.22297
2447.22673,0.21853
2449.15520,0.20709
2451.08367,0.18875
2453.01213,0.17415
2454.94060,0.17461
2456.86907,0.18795
2458.79754,0.20205
2460.72601,0.21188
2462.65448,0.21996
2464.58295,0.22409
2466.51142,0.22227
2468.43988,0.21674
2470.36835,0.20866
2472.29682,0.19987
2474.22529,0.19430
2476.15376,0.19273
2478.08223,0.19580
2480.01070,0.20505
2481.93916,0.21684
2483.86763,0.22488
2485.79610,0.22413
2487.72457,0.21644
2489.65304,0.20807
2491.58151,0.19959
2493.50998,0.19252
2495.43844,0.19283
2497.36691,0.19895
2499.29538,0.20614
2501.22385,0.21461
2503.15232,0.22234
2505.08079,0.22533
2507.00926,0.22158
2508.93773,0.21280
2510.86619,0.20322
2512.79466,0.19596
2514.72313,0.19482
2516.65160,0.20030
2518.58007,0.20881
2520.50854,0.21829
2522.43701,0.22735
2524.36547,0.23257
2526.29394,0.22863
2528.22241,0.21575
2530.15088,0.20331
2532.07935,0.19772
2534.00782,0.19767
2535.93629,0.20266
2537.86476,0.21106
2539.79322,0.21811
2541.72169,0.22313
2543.65016,0.22793
2545.57863,0.22937
2547.50710,0.22295
2549.43557,0.21202
2551.36404,0.20387
2553.29250,0.20045
2555.22097,0.20098
2557.14944,0.20601
2559.07791,0.21454
2561.00638,0.22341
2562.93485,0.22906
2564.86332,0.22868
2566.79179,0.22263
2568.72025,0.21504
2570.64872,0.20916
2572.57719,0.20361
2574.50566,0.19966
2576.43413,0.20283
2578.36260,0.21249
2580.29107,0.22237
2582.21953,0.22863
2584.14800,0.23029
2586.07647,0.22549
2588.00494,0.21435
2589.93341,0.20272
2591.86188,0.19566
2593.79035,0.19422
2595.71882,0.19803
2597.64728,0.20683
2599.57575,0.21928
2601.50422,0.22915
2603.43269,0.23078
2605.36116,0.22626
2607.28963,0.21976
2609.21810,0.21137
2611.14656,0.20240
2613.07503,0.19744
2615.00350,0.19950
2616.93197,0.20751
2618.86044,0.21709
2620.78891,0.22431
2622.71738,0.22636
2624.64585,0.22225
2626.57431,0.21503
2628.50278,0.20822
2630.43125,0.20202
2632.35972,0.19773
2634.28819,0.19962
2636.21666,0.20734
2638.14513,0.21695
2640.07359,0.22605
2642.00206,0.23078
2643.93053,0.22759
2645.85900,0.21944
2647.78747,0.21187
2649.71594,0.20521
2651.64441,0.19860
2653.57288,0.19606
2655.50134,0.20166
2657.42981,0.21460
2659.35828,0.23105
2661.28675,0.24288
2663.21522,0.24099
2665.14369,0.22741
2667.07216,0.21350
2669.00062,0.20470
2670.92909,0.20000
2672.85756,0.20156
2674.78603,0.20996
2676.71450,0.21982
2678.64297,0.22762
2680.57144,0.23350
2682.49990,0.23704
2684.42837,0.23516
2686.35684,0.22604
2688.28531,0.21421
2690.21378,0.20602
2692.14225,0.20425
2694.07072,0.20810
2695.99919,0.21614
2697.92765,0.22756
2699.85612,0.23713
2701.78459,0.23830
2703.71306,0.23157
2705.64153,0.22130
2707.57000,0.21165
2709.49847,0.20601
2711.42693,0.20467
2713.35540,0.20627
2715.28387,0.21084
2717.21234,0.21786
2719.14081,0.22640
2721.06928,0.23429
2722.99775,0.23668
2724.92622,0.23081
2726.85468,0.21932
2728.78315,0.20953
2730.71162,0.20750
2732.64009,0.21159
2734.56856,0.21723
2736.49703,0.22451
2738.42550,0.23354
2740.35396,0.23894
2742.28243,0.23887
2744.21090,0.23505
2746.13937,0.22729
2748.06784,0.21733
2749.99631,0.20895
2751.92478,0.20667
2753.85325,0.21154
2755.78171,0.21949
2757.71018,0.22871
2759.63865,0.23978
2761.56712,0.24887
2763.49559,0.24887
2765.42406,0.23724
2767.35253,0.22074
2769.28099,0.20998
2771.20946,0.20931
2773.13793,0.21657
2775.06640,0.22691
2776.99487,0.23507
2778.92334,0.24089
2780.85181,0.24510
2782.78028,0.24418
2784.70874,0.23657
2786.63721,0.22517
2788.56568,0.21568
2790.49415,0.21142
2792.42262,0.21208
2794.35109,0.22046
2796.27956,0.23568
2798.20802,0.24721
2800.13649,0.24840
2802.06496,0.24336
2803.99343,0.23617
2805.92190,0.22659
2807.85037,0.21639
2809.77884,0.20948
2811.70731,0.20858
2813.63577,0.21529
2815.56424,0.22778
2817.49271,0.24053
2819.42118,0.24805
2821.34965,0.24582
2823.27812,0.23567
2825.20659,0.22566
2827.13505,0.21864
2829.06352,0.21289
2830.99199,0.21104
2832.92046,0.21751
2834.84893,0.23025
2836.77740,0.24156
2838.70587,0.24760
2840.63433,0.25148
2842.56280,0.25293
2844.49127,0.24533
2846.41974,0.22899
2848.34821,0.21464
2850.27668,0.21205
2852.20515,0.22092
2854.13362,0.23212
2856.06208,0.23975
2857.99055,0.24635
2859.91902,0.25100
2861.84749,0.24669
2863.77596,0.23309
2865.70443,0.21802
2867.63290,0.20873
2869.56136,0.20697
2871.48983,0.21179
2873.41830,0.22261
2875.34677,0.23563
2877.27524,0.24627
2879.20371,0.25101
2881.13218,0.24578
2883.06065,0.23442
2884.98911,0.22459
2886.91758,0.21758
2888.84605,0.21481
2890.77452,0.21804
2892.70299,0.22390
2894.63146,0.22982
2896.55993,0.23836
2898.48839,0.24776
2900.41686,0.24900
2902.34533,0.23977
2904.27380,0.22620
2906.20227,0.21371
2908.13074,0.20534
2910.05921,0.20290
2911.98768,0.20951
2913.91614,0.22441
2915.84461,0.23887
2917.77308,0.24646
2919.70155,0.24736
2921.63002,0.24075
2923.55849,0.22753
2925.48696,0.21635
2927.41542,0.21296
2929.34389,0.21479
2931.27236,0.22046
2933.20083,0.22943
2935.12930,0.23752
2937.05777,0.24361
2938.98624,0.24817
2940.91471,0.24566
2942.84317,0.23568
2944.77164,0.22418
2946.70011,0.21148
2948.62858,0.20331
2950.55705,0.20864
2952.48552,0.22135
2954.41399,0.23282
2956.34245,0.24306
2958.27092,0.24890
2960.19939,0.24742
2962.12786,0.24186
2964.05633,0.23127
2965.98480,0.21583
2967.91327,0.20778
2969.84174,0.21487
2971.77020,0.22719
2973.69867,0.23731
2975.62714,0.24598
2977.55561,0.25051
2979.48408,0.24943
2981.41255,0.24133
2983.34102,0.22772
2985.26948,0.21488
2987.19795,0.20654
2989.12642,0.20800
2991.05489,0.22106
2992.98336,0.23897
2994.91183,0.25304
2996.84030,0.25856
2998.76877,0.25785
3000.69723,0.25240
3002.62570,0.24150
3004.55417,0.22903
3006.48264,0.21849
3008.41111,0.21266
3010.33958,0.21491
3012.26805,0.22046
3014.19651,0.22017
3016.12498,0.21504
3018.05345,0.21865
3019.98192,0.23161
3021.91039,0.23530
3023.83886,0.22707
3025.76733,0.21688
3027.69579,0.20868
3029.62426,0.20947
3031.55273,0.22391
3033.48120,0.24406
3035.40967,0.25955
3037.33814,0.26697
3039.26661,0.26524
3041.19508,0.25506
3043.12354,0.23944
3045.05201,0.22193
3046.98048,0.21074
3048.90895,0.21301
3050.83742,0.22373
3052.76589,0.23582
3054.69436,0.24591
3056.62282,0.24892
3058.55129,0.24665
3060.47976,0.24028
3062.40823,0.22697
3064.33670,0.21280
3066.26517,0.20365
3068.19364,0.20288
3070.12211,0.21325
3072.05057,0.23010
3073.97904,0.24462
3075.90751,0.25083
3077.83598,0.25034
3079.76445,0.24511
3081.69292,0.23256
3083.62139,0.21752
3085.54985,0.21131
3087.47832,0.21122
3089.40679,0.21261
3091.33526,0.22466
3093.26373,0.24111
3095.19220,0.25022
3097.12067,0.25691
3099.04914,0.25731
3100.97760,0.24231
3102.90607,0.21908
3104.83454,0.20531
3106.76301,0.20714
3108.69148,0.21648
3110.61995,0.22727
3112.54842,0.23696
3114.47688,0.24686
3116.40535,0.25516
3118.33382,0.25257
3120.26229,0.23964
3122.19076,0.22619
3124.11923,0.21736
3126.04770,0.21528
3127.97617,0.22021
3129.90463,0.22595
3131.83310,0.23387
3133.76157,0.24990
3135.69004,0.26203
3137.61851,0.25760
3139.54698,0.24326
3141.47545,0.22972
3143.40391,0.21881
3145.33238,0.20980
3147.26085,0.20741
3149.18932,0.21927
3151.11779,0.24211
3153.04626,0.26129
3154.97473,0.26911
3156.90320,0.26537
3158.83166,0.25252
3160.76013,0.23911
3162.68860,0.23038
3164.61707,0.22577
3166.54554,0.22739
3168.47401,0.23407
3170.40248,0.24089
3172.33094,0.25086
3174.25941,0.26400
3176.18788,0.26845
3178.11635,0.25861
3180.04482,0.24327
3181.97329,0.23082
3183.90176,0.22064
3185.83022,0.21495
3187.75869,0.22113
3189.68716,0.23662
3191.61563,0.25419
3193.54410,0.27172
3195.47257,0.28240
3197.40104,0.27651
3199.32951,0.25540
3201.25797,0.23159
3203.18644,0.21736
3205.11491,0.21543
3207.04338,0.22081
3208.97185,0.22942
3210.90032,0.24069
3212.82879,0.25385
3214.75725,0.26417
3216.68572,0.26396
3218.61419,0.25211
3220.54266,0.23690
3222.47113,0.22449
3224.39960,0.21630
3226.32807,0.21478
3228.25654,0.22255
3230.18500,0.23889
3232.11347,0.25641
3234.04194,0.26707
3235.97041,0.26894
3237.89888,0.26006
3239.82735,0.23866
3241.75582,0.21651
3243.68428,0.20975
3245.61275,0.21554
3247.54122,0.22380
3249.46969,0.23493
3251.39816,0.25108
3253.32663,0.26726
3255.25510,0.27214
3257.18357,0.26113
3259.11203,0.24361
3261.04050,0.22907
3262.96897,0.21919
3264.89744,0.21479
3266.82591,0.22093
3268.75438,0.23752
3270.68285,0.25272
3272.61131,0.25773
3274.53978,0.25644
3276.46825,0.25339
3278.39672,0.24450
3280.32519,0.22815
3282.25366,0.21345
3284.18213,0.20854
3286.11060,0.21303
3288.03906,0.22441
3289.96753,0.24282
3291.89600,0.26176
3293.82447,0.26818
3295.75294,0.26056
3297.68141,0.24573
3299.60988,0.22850
3301.53834,0.21337
3303.46681,0.20338
3305.39528,0.20158
3307.32375,0.21007
3309.25222,0.22801
3311.18069,0.24788
3313.10916,0.25766
3315.03763,0.25525
3316.96609,0.24449
3318.89456,0.23112
3320.82303,0.22140
3322.75150,0.21506
3324.67997,0.21350
3326.60844,0.21834
3328.53691,0.23040
3330.46537,0.24989
3332.39384,0.26763
3334.32231,0.27529
3336.25078,0.27053
3338.17925,0.25419
3340.10772,0.23275
3342.03619,0.21302
3343.96466,0.20046
3345.89312,0.20179
3347.82159,0.21901
3349.75006,0.24171
3351.67853,0.25802
3353.60700,0.26629
3355.53547,0.26431
3357.46394,0.25210
3359.39240,0.23893
3361.32087,0.22855
3363.24934,0.22174
3365.17781,0.22450
3367.10628,0.23824
3369.03475,0.25464
3370.96322,0.26491
3372.89168,0.26860
3374.82015,0.26593
3376.74862,0.25340
3378.67709,0.23243
3380.60556,0.21339
3382.53403,0.20687
3384.46250,0.21112
3386.39097,0.22165
3388.31943,0.23770
3390.24790,0.25499
3392.17637,0.26839
3394.10484,0.27131
3396.03331,0.26204
3397.96178,0.24787
3399.89025,0.23251
3401.81871,0.21769
3403.74718,0.21148
3405.67565,0.21826
3407.60412,0.23203
3409.53259,0.24515
3411.46106,0.25278
3413.38953,0.25342
3415.31800,0.24812
3417.24646,0.23811
3419.17493,0.22374
3421.10340,0.20856
3423.03187,0.20183
3424.96034,0.20772
3426.88881,0.22560
3428.81728,0.25022
3430.74574,0.26783
3432.67421,0.27139
3434.60268,0.26365
3436.53115,0.24858
3438.45962,0.23002
3440.38809,0.21533
3442.31656,0.21399
3444.24503,0.22261
3446.17349,0.23144
3448.10196,0.24044
3450.03043,0.25267
3451.95890,0.26326
3453.88737,0.26221
3455.81584,0.24783
3457.74431,0.22657
3459.67277,0.20543
3461.60124,0.19365
3463.52971,0.19523
3465.45818,0.20592
3467.38665,0.22240
3469.31512,0.23974
3471.24359,0.25128
3473.17206,0.25144
3475.10052,0.23692
3477.02899,0.21657
3478.95746,0.20116
3480.88593,0.18919
3482.81440,0.18255
3484.74287,0.18984
3486.67134,0.20736
3488.59980,0.22221
3490.52827,0.23160
3492.45674,0.23748
3494.38521,0.23311
3496.31368,0.21635
3498.24215,0.19613
3500.17062,0.18129
3502.09909,0.17753
3504.02755,0.18464
3505.95602,0.19574
3507.88449,0.20764
3509.81296,0.21817
3511.74143,0.22210
3513.66990,0.21586
3515.59837,0.20256
3517.52683,0.18942
3519.45530,0.18023
3521.38377,0.17659
3523.31224,0.18057
3525.24071,0.19363
3527.16918,0.21043
3529.09765,0.22111
3531.02611,0.22078
3532.95458,0.21091
3534.88305,0.19784
3536.81152,0.18599
3538.73999,0.17542
3540.66846,0.16724
3542.59693,0.16321
3544.52540,0.16970
3546.45386,0.18961
3548.38233,0.20812
3550.31080,0.21761
3552.23927,0.21983
3554.16774,0.20699
3556.09621,0.18228
3558.02468,0.16287
3559.95314,0.15685
3561.88161,0.16059
3563.81008,0.17269
3565.73855,0.19568
3567.66702,0.21493
3569.59549,0.21198
3571.52396,0.20234
3573.45243,0.19534
3575.38089,0.18435
3577.30936,0.16881
3579.23783,0.15676
3581.16630,0.15146
3583.09477,0.15450
3585.02324,0.16737
3586.95171,0.18738
3588.88017,0.19912
3590.80864,0.19599
3592.73711,0.18966
3594.66558,0.18261
3596.59405,0.16992
3598.52252,0.15376
3600.45099,0.14212
3602.37946,0.14155
3604.30792,0.15296
3606.23639,0.17558
3608.16486,0.20212
3610.09333,0.21298
3612.02180,0.20548
3613.95027,0.18949
3615.87874,0.17437
3617.80720,0.16174
3619.73567,0.14782
3621.66414,0.14332
3623.59261,0.15277
3625.52108,0.16943
3627.44955,0.19176
3629.37802,0.20879
3631.30649,0.20262
3633.23495,0.18474
3635.16342,0.16229
3637.09189,0.14567
3639.02036,0.13929
3640.94883,0.13895
3642.87730,0.14637
3644.80577,0.16510
3646.73423,0.19571
3648.66270,0.22796
3650.59117,0.22190
3652.51964,0.19204
3654.44811,0.17096
3656.37658,0.15567
3658.30505,0.14162
3660.23352,0.13292
3662.16198,0.13070
3664.09045,0.13472
3666.01892,0.14881
3667.94739,0.17904
3669.87586,0.21094
3671.80433,0.21076
3673.73280,0.19585
3675.66126,0.17176
3677.58973,0.14254
3679.51820,0.12882
3681.44667,0.13179
3683.37514,0.14501
3685.30361,0.16026
3687.23208,0.18045
3689.16055,0.20120
3691.08901,0.19432
3693.01748,0.16722
3694.94595,0.14262
3696.87442,0.12778
3698.80289,0.12298
3700.73136,0.12513
3702.65983,0.13479
3704.58829,0.15005
3706.51676,0.16450
3708.44523,0.17465
3710.37370,0.17808
3712.30217,0.16783
3714.23064,0.14890
3716.15911,0.13474
3718.08757,0.12869
3720.01604,0.13078
3721.94451,0.14040
3723.87298,0.15427
3725.80145,0.16614
3727.72992,0.17235
3729.65839,0.17388
3731.58686,0.17157
3733.51532,0.16529
3735.44379,0.15419
3737.37226,0.14019
3739.30073,0.13087
3741.22920,0.12925
3743.15767,0.14172
3745.08614,0.17142
3747.01460,0.19426
3748.94307,0.20769
3750.87154,0.20591
3752.80001,0.17622
3754.72848,0.14429
3756.65695,0.12187
3758.58542,0.11601
3760.51389,0.12705
3762.44235,0.14027
3764.37082,0.15281
3766.29929,0.16490
3768.22776,0.17104
3770.15623,0.16641
3772.08470,0.15143
3774.01317,0.13480
3775.94163,0.12251
3777.87010,0.11779
3779.79857,0.12273
3781.72704,0.13567
3783.65551,0.15161
3785.58398,0.16417
3787.51245,0.16744
3789.44092,0.16251
3791.36938,0.15156
3793.29785,0.14006
3795.22632,0.12967
3797.15479,0.11687
3799.08326,0.11259
3801.01173,0.12819
3802.94020,0.15064
3804.86866,0.16692
3806.79713,0.17995
3808.72560,0.17563
3810.65407,0.15960
3812.58254,0.14663
3814.51101,0.13662
3816.43948,0.12670
3818.36795,0.12351
3820.29641,0.13218
3822.22488,0.14694
3824.15335,0.15995
3826.08182,0.17112
3828.01029,0.17293
3829.93876,0.16654
3831.86723,0.15542
3833.79569,0.13891
3835.72416,0.12507
3837.65263,0.12030
3839.58110,0.12868
3841.50957,0.14370
3843.43804,0.15470
3845.36651,0.16031
3847.29498,0.16386
3849.22344,0.16997
3851.15191,0.17904
3853.08038,0.16910
3855.00885,0.13375
3856.93732,0.11828
3858.86579,0.11379
3860.79426,0.11875
3862.72272,0.14216
3864.65119,0.16765
3866.57966,0.17801
3868.50813,0.18442
3870.43660,0.17604
3872.36507,0.14911
3874.29354,0.12709
3876.22200,0.11721
3878.15047,0.11871
3880.07894,0.12995
3882.00741,0.14582
3883.93588,0.15986
3885.86435,0.16446
3887.79282,0.15772
3889.72129,0.14796
3891.64975,0.12946
3893.57822,0.10579
3895.50669,0.09251
3897.43516,0.09216
3899.36363,0.10633
3901.29210,0.12845
3903.22057,0.14585
3905.14903,0.15460
3907.07750,0.15502
3909.00597,0.14813
3910.93444,0.13565
3912.86291,0.12289
3914.79138,0.11402
3916.71985,0.10913
3918.64832,0.11234
3920.57678,0.12752
3922.50525,0.14464
3924.43372,0.15260
3926.36219,0.15202
3928.29066,0.14632
3930.21913,0.13615
3932.14760,0.12245
3934.07606,0.10844
3936.00453,0.10015
3937.93300,0.10035
3939.86147,0.10969
3941.78994,0.13037
3943.71841,0.15199
3945.64688,0.15860
3947.57535,0.15405
3949.50381,0.14208
3951.43228,0.12364
3953.36075,0.10870
3955.28922,0.10292
3957.21769,0.10413
3959.14616,0.11315
3961.07463,0.12739
3963.00309,0.13830
3964.93156,0.14680
3966.86003,0.15337
3968.78850,0.14922
3970.71697,0.13166
3972.64544,0.10847
3974.57391,0.09191
3976.50238,0.09014
3978.43084,0.10226
3980.35931,0.12097
3982.28778,0.13574
3984.21625,0.14134
3986.14472,0.14122
3988.07319,0.13727
3990.00166,0.12558
3991.93012,0.10791
3993.85859,0.09459
3995.78706,0.08955
3997.71553,0.09251
3999.64400,0.10560
4001.57247,0.12335
4003.50094,0.13689
4005.42941,0.14230
4007.35787,0.13808
4009.28634,0.12576
4011.21481,0.11094
4013.14328,0.09892
4015.07175,0.09003
4017.00022,0.08617
4018.92869,0.09313
4020.85715,0.10919
4022.78562,0.12403
4024.71409,0.13167
4026.64256,0.13161
4028.57103,0.12208
4030.49950,0.10727
4032.42797,0.09618
4034.35644,0.09050
4036.28490,0.09142
4038.21337,0.10111
4040.14184,0.11180
4042.07031,0.11876
4043.99878,0.12850
4045.92725,0.13759
4047.85572,0.12944
4049.78418,0.10521
4051.71265,0.08504
4053.64112,0.07660
4055.56959,0.07711
4057.49806,0.08598
4059.42653,0.10029
4061.35500,0.11303
4063.28346,0.12077
4065.21193,0.12587
4067.14040,0.12467
4069.06887,0.11296
4070.99734,0.09655
4072.92581,0.08448
4074.85428,0.08039
4076.78275,0.08171
4078.71121,0.08673
4080.63968,0.09668
4082.56815,0.11137
4084.49662,0.12459
4086.42509,0.12891
4088.35356,0.12191
4090.28203,0.10647
4092.21049,0.08851
4094.13896,0.07550
4096.06743,0.07515
4097.99590,0.08682
4099.92437,0.10420
4101.85284,0.12104
4103.78131,0.13114
4105.70978,0.13129
4107.63824,0.12097
4109.56671,0.10147
4111.49518,0.07925
4113.42365,0.06628
4115.35212,0.06738
4117.28059,0.07962
4119.20906,0.09778
4121.13752,0.11295
4123.06599,0.12028
4124.99446,0.12087
4126.92293,0.11583
4128.85140,0.10269
4130.77987,0.08484
4132.70834,0.07483
4134.63681,0.07611
4136.56527,0.08052
4138.49374,0.08551
4140.42221,0.09802
4142.35068,0.11603
4144.27915,0.12466
4146.20762,0.11897
4148.13609,0.10513
4150.06455,0.08781
4151.99302,0.07419
4153.92149,0.06789
4155.84996,0.06917
4157.77843,0.08598
4159.70690,0.11352
4161.63537,0.13318
4163.56384,0.13581
4165.49230,0.12330
4167.42077,0.10413
4169.34924,0.08437
4171.27771,0.06783
4173.20618,0.05973
4175.13465,0.06211
4177.06312,0.07499
4178.99158,0.09352
4180.92005,0.10882
4182.84852,0.11770
4184.77699,0.11975
4186.70546,0.11128
4188.63393,0.09353
4190.56240,0.07289
4192.49087,0.05772
4194.41933,0.05833
4196.34780,0.06943
4198.27627,0.07573
4200.20474,0.08394
4202.13321,0.10490
4204.06168,0.12050
4205.99015,0.11299
4207.91861,0.08901
4209.84708,0.06797
4211.77555,0.06208
4213.70402,0.06160
4215.63249,0.06152
4217.56096,0.07110
4219.48943,0.08792
4221.41789,0.10407
4223.34636,0.11515
4225.27483,0.11310
4227.20330,0.09698
4229.13177,0.07781
4231.06024,0.06395
4232.98871,0.05817
4234.91718,0.06063
4236.84564,0.07104
4238.77411,0.08596
4240.70258,0.09905
4242.63105,0.10683
4244.55952,0.10498
4246.48799,0.09144
4248.41646,0.06947
4250.34492,0.04928
4252.27339,0.04178
4254.20186,0.04708
4256.13033,0.06329
4258.05880,0.08582
4259.98727,0.10298
4261.91574,0.10614
4263.84421,0.09485
4265.77267,0.07969
4267.70114,0.06945
4269.62961,0.05908
4271.55808,0.04712
4273.48655,0.04130
4275.41502,0.04911
4277.34349,0.07001
4279.27195,0.08979
4281.20042,0.09841
4283.12889,0.10032
4285.05736,0.09813
4286.98583,0.08706
4288.91430,0.06593
4290.84277,0.04366
4292.77124,0.03632
4294.69970,0.04755
4296.62817,0.06267
4298.55664,0.07603
4300.48511,0.09090
4302.41358,0.09965
4304.34205,0.09600
4306.27052,0.08421
4308.19898,0.06705
4310.12745,0.04698
4312.05592,0.03376
4313.98439,0.03369
4315.91286,0.04320
4317.84133,0.05934
4319.76980,0.07998
4321.69827,0.09645
4323.62673,0.09883
4325.55520,0.08432
4327.48367,0.05895
4329.41214,0.03557
4331.34061,0.02519
4333.26908,0.02766
4335.19755,0.04019
4337.12601,0.06252
4339.05448,0.08432
4340.98295,0.09561
4342.91142,0.09632
4344.83989,0.08427
4346.76836,0.06075
4348.69683,0.03613
4350.62530,0.01998
4352.55376,0.01549
4354.48223,0.01913
4356.41070,0.03189
4358.33917,0.05809
4360.26764,0.08465
4362.19611,0.09281
4364.12458,0.08173
4366.05304,0.06115
4367.98151,0.04056
4369.90998,0.02742
4371.83845,0.02539
4373.76692,0.03394
4375.69539,0.04999
4377.62386,0.06923
4379.55232,0.08143
4381.48079,0.07916
4383.40926,0.07199
4385.33773,0.06330
4387.26620,0.04483
4389.19467,0.02593
4391.12314,0.01829
4393.05161,0.01486
4394.98007,0.01424
4396.90854,0.02876
4398.83701,0.05536
4400.76548,0.07300
4402.69395,0.07069
4404.62242,0.05696
4406.55089,0.04095
4408.47935,0.02078
4410.40782,0.00333
4412.33629,0.00231
4414.26476,0.01779
4416.19323,0.04228
4418.12170,0.06777
4420.05017,0.08513
4421.97864,0.08334
4423.90710,0.06389
4425.83557,0.04233
4427.76404,0.02330
4429.69251,0.00585
4431.62098,-0.00028
4433.54945,0.01041
4435.47792,0.03338
4437.40638,0.05947
4439.33485,0.07626
4441.26332,0.07886
4443.19179,0.06684
4445.12026,0.04111
4447.04873,0.01017
4448.97720,-0.01305
4450.90567,-0.01838
4452.83413,-0.00819
4454.76260,0.01220
4456.69107,0.04042
4458.61954,0.06878
4460.54801,0.08215
4462.47648,0.06726
4464.40495,0.03791
4466.33341,0.01615
4468.26188,0.00203
4470.19035,-0.00394
4472.11882,0.00138
4474.04729,0.01285
4475.97576,0.03074
4477.90423,0.04957
4479.83270,0.05918
4481.76116,0.05866
4483.68963,0.04522
4485.61810,0.02245
4487.54657,-0.00020
4489.47504,-0.01583
4491.40351,-0.01562
4493.33198,0.00100
4495.26044,0.02501
4497.18891,0.04671
4499.11738,0.06067
4501.04585,0.06253
4502.97432,0.04901
4504.90279,0.02266
4506.83126,-0.00831
4508.75973,-0.02827
4510.68819,-0.02746
4512.61666,-0.00875
4514.54513,0.01836
4516.47360,0.04355
4518.40207,0.05979
4520.33054,0.06067
4522.25901,0.04714
4524.18747,0.02687
4526.11594,0.00568
4528.04441,-0.01401
4529.97288,-0.02247
4531.90135,-0.00905
4533.82982,0.01652
4535.75829,0.03720
4537.68676,0.04713
4539.61522,0.05162
4541.54369,0.05068
4543.47216,0.03374
4545.40063,0.00573
4547.32910,-0.00936
4549.25757,-0.00521
4551.18604,-0.00194
4553.11450,-0.00156
4555.04297,0.01679
4556.97144,0.04785
4558.89991,0.06486
4560.82838,0.06161
4562.75685,0.04200
4564.68532,0.00818
4566.61378,-0.01790
4568.54225,-0.01840
4570.47072,-0.00797
4572.39919,0.00464
4574.32766,0.02401
4576.25613,0.03850
4578.18460,0.04405
4580.11307,0.04526
4582.04153,0.03498
4583.97000,0.01517
4585.89847,-0.00909
4587.82694,-0.03287
4589.75541,-0.04182
4591.68388,-0.02832
4593.61235,0.00166
4595.54081,0.03517
4597.46928,0.06305
4599.39775,0.07614
4601.32622,0.06432
4603.25469,0.03303
4605.18316,-0.00080
4607.11163,-0.02666
4609.04010,-0.04180
4610.96856,-0.04158
4612.89703,-0.02002
4614.82550,0.01344
4616.75397,0.03684
4618.68244,0.04161
4620.61091,0.03416
4622.53938,0.02254
4624.46784,0.00926
4626.39631,-0.00748
4628.32478,-0.02296
4630.25325,-0.02589
4632.18172,-0.01108
4634.11019,0.01019
4636.03866,0.02606
4637.96713,0.03772
4639.89559,0.04304
4641.82406,0.03234
4643.75253,0.00654
4645.68100,-0.01670
4647.60947,-0.02475
4649.53794,-0.02375
4651.46641,-0.01727
4653.39487,0.00031
4655.32334,0.02404
4657.25181,0.04023
4659.18028,0.04696
4661.10875,0.04412
4663.03722,0.01983
4664.96569,-0.01851
4666.89416,-0.03879
4668.82262,-0.03048
4670.75109,-0.01384
4672.67956,0.00008
4674.60803,0.02163
4676.53650,0.04756
4678.46497,0.05900
4680.39344,0.05248
4682.32190,0.03322
4684.25037,0.00197
4686.17884,-0.02847
4688.10731,-0.03335
4690.03578,-0.00648
4691.96425,0.02955
4693.89272,0.05291
4695.82119,0.06074
4697.74965,0.05556
4699.67812,0.03957
4701.60659,0.01691
4703.53506,-0.01089
4705.46353,-0.03435
4707.39200,-0.03388
4709.32047,-0.00637
4711.24893,0.02686
4713.17740,0.05323
4715.10587,0.07336
4717.03434,0.07828
4718.96281,0.05951
4720.89128,0.02093
4722.81975,-0.01842
4724.74821,-0.04029
4726.67668,-0.03609
4728.60515,-0.00944
4730.53362,0.01616
4732.46209,0.03170
4734.39056,0.05029
4736.31903,0.06277
4738.24750,0.05049
4740.17596,0.02419
4742.10443,-0.00354
4744.03290,-0.03300
4745.96137,-0.04902
4747.88984,-0.03682
4749.81831,-0.00533
4751.74678,0.02557
4753.67524,0.04286
4755.60371,0.04639
4757.53218,0.04063
4759.46065,0.02940
4761.38912,0.01284
4763.31759,-0.00785
4765.24606,-0.01917
4767.17453,-0.01075
4769.10299,0.01132
4771.03146,0.04014
4772.95993,0.06360
4774.88840,0.07045
4776.81687,0.06121
4778.74534,0.03123
4780.67381,-0.00924
4782.60227,-0.03274
4784.53074,-0.03382
4786.45921,-0.02020
4788.38768,0.00805
4790.31615,0.03448
4792.24462,0.04048
4794.17309,0.03988
4796.10156,0.04031
4798.03002,0.02742
4799.95849,0.00308
4801.88696,-0.02455
4803.81543,-0.04742
4805.74390,-0.05016
4807.67237,-0.03167
4809.60084,-0.00285
4811.52930,0.02738
4813.45777,0.04833
4815.38624,0.05160
4817.31471,0.04065
4819.24318,0.02215
4821.17165,-0.00548
4823.10012,-0.03842
4825.02859,-0.06023
4826.95705,-0.05836
4828.88552,-0.02992
4830.81399,0.00982
4832.74246,0.03870
4834.67093,0.05318
4836.59940,0.05595
4838.52787,0.04040
4840.45633,0.01187
4842.38480,-0.01264
4844.31327,-0.03547
4846.24174,-0.05361
4848.17021,-0.04492
4850.09868,-0.01023
4852.02715,0.03015
4853.95562,0.06167
4855.88408,0.07378
4857.81255,0.06334
4859.74102,0.03779
4861.66949,-0.00021
4863.59796,-0.04359
4865.52643,-0.06567
4867.45490,-0.05738
4869.38336,-0.03419
4871.31183,-0.00461
4873.24030,0.02255
4875.16877,0.03892
4877.09724,0.04248
4879.02571,0.03030
4880.95418,0.00324
4882.88265,-0.02646
4884.81111,-0.04443
4886.73958,-0.05013
4888.66805,-0.03776
4890.59652,-0.00277
4892.52499,0.03453
4894.45346,0.05918
4896.38193,0.06763
4898.31039,0.05872
4900.23886,0.03581
4902.16733,0.00429
4904.09580,-0.02225
4906.02427,-0.03471
4907.95274,-0.03167
4909.88121,-0.00616
4911.80967,0.03516
4913.73814,0.06536
4915.66661,0.07367
4917.59508,0.06531
4919.52355,0.03089
4921.45202,-0.02512
4923.38049,-0.06428
4925.30896,-0.07236
4927.23742,-0.06350
4929.16589,-0.03242
4931.09436,0.02070
4933.02283,0.06542
4934.95130,0.07980
4936.87977,0.06703
4938.80824,0.03863
4940.73670,0.00563
4942.66517,-0.02615
4944.59364,-0.04911
4946.52211,-0.04889
4948.45058,-0.02102
4950.37905,0.02031
4952.30752,0.05842
4954.23599,0.08440
4956.16445,0.08900
4958.09292,0.07120
4960.02139,0.04313
4961.94986,0.01208
4963.87833,-0.02014
4965.80680,-0.03958
4967.73527,-0.02349
4969.66373,0.01968
4971.59220,0.05498
4973.52067,0.07326
4975.44914,0.07761
4977.37761,0.05837
4979.30608,0.02192
4981.23455,-0.01524
4983.16302,-0.04552
4985.09148,-0.05751
4987.01995,-0.03570
4988.94842,0.01262
4990.87689,0.05680
4992.80536,0.08558
4994.73383,0.09498
4996.66230,0.07031
4998.59076,0.02628
5000.51923,-0.01319
5002.44770,-0.04856
5004.37617,-0.07817
5006.30464,-0.07475
5008.23311,-0.02429
5010.16158,0.03547
5012.09005,0.06578
5014.01851,0.06870
5015.94698,0.05541
5017.87545,0.03173
5019.80392,-0.00328
5021.73239,-0.04195
5023.66086,-0.05809
5025.58933,-0.04824
5027.51779,-0.02191
5029.44626,0.02371
5031.37473,0.07040
5033.30320,0.09218
5035.23167,0.07855
5037.16014,0.03139
5039.08861,-0.02341
5041.01708,-0.05931
5042.94554,-0.06820
5044.87401,-0.04189
5046.80248,0.01050
5048.73095,0.05933
5050.65942,0.09586
5052.58789,0.11886
5054.51636,0.11160
5056.44482,0.07130
5058.37329,0.01732
5060.30176,-0.02979
5062.23023,-0.04972
5064.15870,-0.03233
5066.08717,0.00768
5068.01564,0.04247
5069.94410,0.06265
5071.87257,0.06848
5073.80104,0.05092
5075.72951,0.02132
5077.65798,-0.00345
5079.58645,-0.03126
5081.51492,-0.05122
5083.44339,-0.04050
5085.37185,-0.00177
5087.30032,0.04968
5089.22879,0.08863
5091.15726,0.09707
5093.08573,0.08887
5095.01420,0.07187
5096.94267,0.03390
5098.87113,-0.01454
5100.79960,-0.04540
5102.72807,-0.03949
5104.65654,-0.00146
5106.58501,0.03563
5108.51348,0.06021
5110.44195,0.08694
5112.37042,0.09092
5114.29888,0.04958
5116.22735,0.00276
5118.15582,-0.02052
5120.08429,-0.03208
5122.01276,-0.03240
5123.94123,-0.01573
5125.86970,0.00778
5127.79816,0.03681
5129.72663,0.07006
5131.65510,0.08174
5133.58357,0.05818
5135.51204,0.01434
5137.44051,-0.03026
5139.36898,-0.05363
5141.29745,-0.04751
5143.22591,-0.02133
5145.15438,0.02093
5147.08285,0.07273
5149.01132,0.11796
5150.93979,0.13221
5152.86826,0.10544
5154.79673,0.06667
5156.72519,0.03449
5158.65366,0.00507
5160.58213,-0.01082
5162.51060,-0.00307
5164.43907,0.02753
5166.36754,0.06844
5168.29601,0.10102
5170.22448,0.11728
5172.15294,0.10952
5174.08141,0.07648
5176.00988,0.03452
5177.93835,-0.00115
5179.86682,-0.01454
5181.79529,0.00508
5183.72376,0.04503
5185.65222,0.09010
5187.58069,0.11900
5189.50916,0.12112
5191.43763,0.11268
5193.36610,0.08910
5195.29457,0.03812
5197.22304,-0.01353
5199.15151,-0.04200
5201.07997,-0.05164
5203.00844,-0.03575
5204.93691,0.00725
5206.86538,0.05188
5208.79385,0.07507
5210.72232,0.08607
5212.65079,0.08683
5214.57925,0.05486
5216.50772,-0.00466
5218.43619,-0.05089
5220.36466,-0.05021
5222.29313,-0.00923
5224.22160,0.04428
5226.15007,0.10514
5228.07854,0.16427
5230.00700,0.18117
5231.93547,0.13665
5233.86394,0.06255
5235.79241,-0.00389
5237.72088,-0.04996
5239.64935,-0.06648
5241.57782,-0.03863
5243.50628,0.03120
5245.43475,0.10127
5247.36322,0.13627
5249.29169,0.13402
5251.22016,0.11392
5253.14863,0.08349
5255.07710,0.03114
5257.00556,-0.01272
5258.93403,-0.02329
5260.86250,-0.02101
5262.79097,-0.00071
5264.71944,0.06075
5266.64791,0.11651
5268.57638,0.12188
5270.50485,0.09716
5272.43331,0.06878
5274.36178,0.04042
5276.29025,0.00636
5278.21872,-0.02497
5280.14719,-0.03204
5282.07566,-0.00362
5284.00413,0.05686
5285.93259,0.12759
5287.86106,0.16942
5289.78953,0.16114
5291.71800,0.11407
5293.64647,0.05543
5295.57494,0.00767
5297.50341,-0.01678
5299.43188,-0.01574
5301.36034,0.01635
5303.28881,0.07944
5305.21728,0.14682
5307.14575,0.19181
5309.07422,0.19875
5311.00269,0.15636
5312.93116,0.08932
5314.85962,0.03155
5316.78809,-0.00704
5318.71656,-0.01805
5320.64503,-0.00084
5322.57350,0.03770
5324.50197,0.09097
5326.43044,0.14291
5328.35891,0.16880
5330.28737,0.15766
5332.21584,0.10397
5334.14431,0.02422
5336.07278,-0.02339
5338.00125,-0.02328
5339.92972,-0.00687
5341.85819,0.01897
5343.78665,0.07356
5345.71512,0.14160
5347.64359,0.16841
5349.57206,0.13984
5351.50053,0.07287
5353.42900,0.00211
5355.35747,-0.03188
5357.28594,-0.03000
5359.21440,-0.01885
5361.14287,-0.00196
5363.07134,0.03427
5364.99981,0.07889
5366.92828,0.10473
5368.85675,0.10655
5370.78522,0.09052
5372.71368,0.05469
5374.64215,0.00320
5376.57062,-0.03312
5378.49909,-0.03688
5380.42756,-0.01524
5382.35603,0.02982
5384.28450,0.09455
5386.21297,0.15214
5388.14143,0.15354
5390.06990,0.11256
5391.99837,0.07284
5393.92684,0.04320
5395.85531,0.02081
5397.78378,0.01842
5399.71225,0.05149
5401.64071,0.10322
5403.56918,0.14569
5405.49765,0.18177
5407.42612,0.19977
5409.35459,0.15844
5411.28306,0.06463
5413.21153,-0.01636
5415.13999,-0.05089
5417.06846,-0.05706
5418.99693,-0.03826
5420.92540,0.01550
5422.85387,0.08876
5424.78234,0.15207
5426.71081,0.18982
5428.63928,0.17983
5430.56774,0.12097
5432.49621,0.04211
5434.42468,-0.03473
5436.35315,-0.06764
5438.28162,-0.04003
5440.21009,0.03532
5442.13856,0.12482
5444.06702,0.18492
5445.99549,0.21341
5447.92396,0.21529
5449.85243,0.17494
5451.78090,0.09192
5453.70937,-0.00125
5455.63784,-0.06067
5457.56631,-0.06243
5459.49477,-0.02687
5461.42324,0.03929
5463.35171,0.12361
5465.28018,0.18065
5467.20865,0.17924
5469.13712,0.11485
5471.06559,0.03357
5472.99405,-0.00852
5474.92252,-0.01278
5476.85099,-0.00371
5478.77946,0.02589
5480.70793,0.08348
5482.63640,0.15142
5484.56487,0.20170
5486.49334,0.20551
5488.42180,0.16225
5490.35027,0.09486
5492.27874,0.02015
5494.20721,-0.03457
5496.13568,-0.03710
5498.06415,0.00564
5499.99262,0.06244
5501.92108,0.11407
5503.84955,0.15188
5505.77802,0.16381
5507.70649,0.13725
5509.63496,0.07762
5511.56343,0.01272
5513.49190,-0.03031
5515.42037,-0.03854
5517.34883,-0.00356
5519.27730,0.07312
5521.20577,0.15100
5523.13424,0.19088
5525.06271,0.18958
5526.99118,0.16552
5528.91965,0.12844
5530.84811,0.07728
5532.77658,0.02837
5534.70505,0.00206
5536.63352,-0.00112
5538.56199,0.01582
5540.49046,0.06524
5542.41893,0.13731
5544.34740,0.18897
5546.27586,0.19829
5548.20433,0.15903
5550.13280,0.08776
5552.06127,0.01927
5553.98974,-0.02293
5555.91821,-0.02277
5557.84668,0.00993
5559.77514,0.05633
5561.70361,0.12262
5563.63208,0.19116
5565.56055,0.21687
5567.48902,0.17473
5569.41749,0.09301
5571.34596,0.02105
5573.27443,-0.01930
5575.20289,-0.01280
5577.13136,0.04600
5579.05983,0.13694
5580.98830,0.20661
5582.91677,0.21208
5584.84524,0.18539
5586.77371,0.14683
5588.70217,0.06674
5590.63064,-0.03061
5592.55911,-0.07353
5594.48758,-0.05235
5596.41605,0.00188
5598.34452,0.08286
5600.27299,0.18086
5602.20145,0.23843
5604.12992,0.22961
5606.05839,0.18778
5607.98686,0.11647
5609.91533,0.02654
5611.84380,-0.03220
5613.77227,-0.04867
5615.70074,-0.03102
5617.62920,0.03541
5619.55767,0.12012
5621.48614,0.17124
5623.41461,0.18633
5625.34308,0.15867
5627.27155,0.08320
5629.20002,0.00000
5631.12848,-0.04931
5633.05695,-0.05568
5634.98542,-0.02591
5636.91389,0.03227
5638.84236,0.09684
5640.77083,0.14757
5642.69930,0.18168
5644.62777,0.19674
5646.55623,0.17783
5648.48470,0.11750
5650.41317,0.03368
5652.34164,-0.03951
5654.27011,-0.05271
5656.19858,0.00996
5658.12705,0.10108
5660.05551,0.16097
5661.98398,0.17074
5663.91245,0.15537
5665.84092,0.13508
5667.76939,0.10143
5669.69786,0.04402
5671.62633,-0.00640
5673.55480,-0.00765
5675.48326,0.03996
5677.41173,0.11670
5679.34020,0.20351
5681.26867,0.25516
5683.19714,0.22902
5685.12561,0.15733
5687.05408,0.08953
5688.98254,0.02998
5690.91101,-0.01791
5692.83948,-0.03382
5694.76795,-0.00949
5696.69642,0.04340
5698.62489,0.11025
5700.55336,0.18204
5702.48183,0.22703
5704.41029,0.20841
5706.33876,0.14181
5708.26723,0.06062
5710.19570,-0.00871
5712.12417,-0.03645
5714.05264,-0.01832
5715.98111,0.02826
5717.90957,0.09856
5719.83804,0.18219
5721.76651,0.22904
5723.69498,0.20314
5725.62345,0.13045
5727.55192,0.04738
5729.48039,-0.01243
5731.40886,-0.02958
5733.33732,-0.01305
5735.26579,0.03261
5737.19426,0.10237
5739.12273,0.17104
5741.05120,0.20822
5742.97967,0.21223
5744.90814,0.17637
5746.83660,0.09440
5748.76507,0.02349
5750.69354,-0.00298
5752.62201,-0.02154
5754.55048,-0.02349
5756.47895,0.03590
5758.40742,0.14502
5760.33588,0.23517
5762.26435,0.23326
5764.19282,0.15071
5766.12129,0.06986
5768.04976,0.02245
5769.97823,-0.01263
5771.90670,-0.04168
5773.83517,-0.04344
5775.76363,0.01593
5777.69210,0.12988
5779.62057,0.22681
5781.54904,0.25827
5783.47751,0.24717
5785.40598,0.19772
5787.33445,0.09581
5789.26291,-0.01124
5791.19138,-0.06361
5793.11985,-0.03873
5795.04832,0.04683
5796.97679,0.15288
5798.90526,0.23822
5800.83373,0.26151
5802.76220,0.21186
5804.69066,0.11842
5806.61913,0.02598
5808.54760,-0.02593
5810.47607,-0.03050
5812.40454,-0.00011
5814.33301,0.05708
5816.26148,0.14248
5818.18994,0.22794
5820.11841,0.26934
5822.04688,0.26285
5823.97535,0.20875
5825.90382,0.11542
5827.83229,0.03041
5829.76076,-0.01688
5831.68923,-0.02406
5833.61769,0.01765
5835.54616,0.08181
5837.47463,0.14303
5839.40310,0.20876
5841.33157,0.24296
5843.26004,0.19570
5845.18851,0.07462
5847.11697,-0.04844
5849.04544,-0.10020
5850.97391,-0.06761
5852.90238,0.02024
5854.83085,0.13642
5856.75932,0.24780
5858.68779,0.30964
5860.61626,0.29739
5862.54472,0.23030
5864.47319,0.13092
5866.40166,0.00292
5868.33013,-0.11356
5870.25860,-0.12907
5872.18707,-0.04264
5874.11554,0.05681
5876.04400,0.13009
5877.97247,0.20520
5879.90094,0.26827
5881.82941,0.24198
5883.75788,0.13655
5885.68635,0.03433
5887.61482,-0.03085
5889.54329,-0.05670
5891.47175,-0.03660
5893.40022,0.02974
5895.32869,0.10642
5897.25716,0.18087
5899.18563,0.25381
5901.11410,0.24395
5903.04257,0.12316
5904.97103,0.00382
5906.89950,-0.05079
5908.82797,-0.06337
5910.75644,-0.04585
5912.68491,0.01634
5914.61338,0.12195
5916.54185,0.23337
5918.47032,0.29921
5920.39878,0.28826
5922.32725,0.21431
5924.25572,0.11263
5926.18419,0.00747
5928.11266,-0.07970
5930.04113,-0.09130
5931.96960,-0.01103
5933.89806,0.09428
5935.82653,0.16898
5937.75500,0.20193
5939.68347,0.20670
5941.61194,0.19054
5943.54041,0.14514
5945.46888,0.05688
5947.39734,-0.06208
5949.32581,-0.12445
5951.25428,-0.07031
5953.18275,0.03795
5955.11122,0.13091
5957.03969,0.20223
5958.96816,0.22744
5960.89663,0.15163
5962.82509,0.02782
5964.75356,-0.04937
5966.68203,-0.07286
5968.61050,-0.08454
5970.53897,-0.07762
5972.46744,0.00430
5974.39591,0.15213
5976.32437,0.26692
5978.25284,0.28191
5980.18131,0.23147
5982.10978,0.16648
5984.03825,0.07284
5985.96672,-0.05543
5987.89519,-0.13626
5989.82366,-0.08899
5991.75212,0.05619
5993.68059,0.20491
5995.60906,0.30587
5997.53753,0.34289
5999.46600,0.28566
6001.39447,0.14628
6003.32294,0.01704
6005.25140,-0.03625
6007.17987,-0.04548
6009.10834,-0.01943
6011.03681,0.05980
6012.96528,0.16394
6014.89375,0.26566
6016.82222,0.33477
6018.75069,0.33149
6020.67915,0.23151
6022.60762,0.06936
6024.53609,-0.04960
6026.46456,-0.08480
6028.39303,-0.06840
6030.32150,-0.01392
6032.24997,0.06539
6034.17843,0.17530
6036.10690,0.28094
6038.03537,0.28763
6039.96384,0.20763
6041.89231,0.11877
6043.82078,0.05249
6045.74925,0.00337
6047.67772,-0.01581
6049.60618,0.03080
6051.53465,0.13900
6053.46312,0.27986
6055.39159,0.37929
6057.32006,0.36889
6059.24853,0.27504
6061.17700,0.13942
6063.10546,0.00514
6065.03393,-0.08501
6066.96240,-0.11397
6068.89087,-0.08289
6070.81934,-0.01790
6072.74781,0.05380
6074.67628,0.13697
6076.60475,0.20094
6078.53321,0.19726
6080.46168,0.15062
6082.39015,0.06541
6084.31862,-0.06337
6086.24709,-0.13212
6088.17556,-0.06207
6090.10403,0.07684
6092.03249,0.19253
6093.96096,0.24863
6095.88943,0.27013
6097.81790,0.27053
6099.74637,0.19646
6101.67484,0.05738
6103.60331,-0.06287
6105.53177,-0.14393
6107.46024,-0.14802
6109.38871,-0.03661
6111.31718,0.09319
6113.24565,0.20400
6115.17412,0.29864
6117.10259,0.26790
6119.03106,0.11802
6120.95952,-0.01256
6122.88799,-0.10317
6124.81646,-0.14052
6126.74493,-0.09842
6128.67340,-0.01898
6130.60187,0.07790
6132.53034,0.18871
6134.45880,0.26482
6136.38727,0.27513
6138.31574,0.23183
6140.24421,0.15678
6142.17268,0.06825
6144.10115,-0.02410
6146.02962,-0.08705
6147.95809,-0.07752
6149.88655,-0.00277
6151.81502,0.10473
6153.74349,0.21894
6155.67196,0.30383
6157.60043,0.30038
6159.52890,0.16935
6161.45737,-0.01061
6163.38583,-0.12187
6165.31430,-0.12065
6167.24277,-0.02972
6169.17124,0.07558
6171.09971,0.14330
6173.02818,0.19733
6174.95665,0.24983
6176.88512,0.25217
6178.81358,0.16388
6180.74205,0.02817
6182.67052,-0.05698
6184.59899,-0.09503
6186.52746,-0.11520
6188.45593,-0.06948
6190.38440,0.03341
6192.31286,0.16832
6194.24133,0.28608
6196.16980,0.27153
6198.09827,0.12628
6200.02674,-0.02376
6201.95521,-0.09984
6203.88368,-0.10408
6205.81215,-0.04739
6207.74061,0.07494
6209.66908,0.22472
6211.59755,0.32616
6213.52602,0.37433
6215.45449,0.35412
6217.38296,0.23071
6219.31143,0.07343
6221.23989,-0.04113
6223.16836,-0.09362
6225.09683,-0.08194
6227.02530,-0.00741
6228.95377,0.09618
6230.88224,0.17362
6232.81071,0.21566
6234.73918,0.25052
6236.66764,0.25456
6238.59611,0.17665
6240.52458,0.03840
6242.45305,-0.09321
6244.38152,-0.17188
6246.30999,-0.17393
6248.23846,-0.08267
6250.16692,0.10191
6252.09539,0.26270
6254.02386,0.30458
6255.95233,0.27810
6257.88080,0.19392
6259.80927,0.05746
6261.73774,-0.08833
6263.66621,-0.20970
6265.59467,-0.23380
6267.52314,-0.14535
6269.45161,-0.00396
6271.38008,0.19240
6273.30855,0.37300
6275.23702,0.36757
6277.16549,0.20756
6279.09395,0.05107
6281.02242,-0.07140
6282.95089,-0.14352
6284.87936,-0.14108
6286.80783,-0.07686
6288.73630,0.05734
6290.66477,0.22286
6292.59323,0.30309
6294.52170,0.27281
6296.45017,0.19261
6298.37864,0.06478
6300.30711,-0.10703
6302.23558,-0.24769
6304.16405,-0.28036
6306.09252,-0.20563
6308.02098,-0.07664
6309.94945,0.08822
6311.87792,0.27429
6313.80639,0.39026
6315.73486,0.35388
6317.66333,0.17984
6319.59180,-0.00902
6321.52026,-0.10461
6323.44873,-0.11485
6325.37720,-0.08104
6327.30567,0.01462
6329.23414,0.14147
6331.16261,0.25476
6333.09108,0.34564
6335.01955,0.32120
6336.94801,0.15745
6338.87648,-0.00991
6340.80495,-0.10288
6342.73342,-0.13762
6344.66189,-0.06309
6346.59036,0.12204
6348.51883,0.30259
6350.44729,0.43065
6352.37576,0.44731
6354.30423,0.34188
6356.23270,0.18286
6358.16117,0.01822
6360.08964,-0.09895
6362.01811,-0.13182
6363.94658,-0.09968
6365.87504,-0.02611
6367.80351,0.09613
6369.73198,0.25324
6371.66045,0.38890
6373.58892,0.38738
6375.51739,0.22676
6377.44586,0.02988
6379.37432,-0.08658
6381.30279,-0.09603
6383.23126,-0.06738
6385.15973,-0.00264
6387.08820,0.15071
6389.01667,0.28591
6390.94514,0.26185
6392.87361,0.14318
6394.80207,0.06678
6396.73054,-0.00061
6398.65901,-0.08950
6400.58748,-0.16624
6402.51595,-0.16834
6404.44442,-0.05876
6406.37289,0.10619
6408.30135,0.26304
6410.22982,0.39116
6412.15829,0.44271
6414.08676,0.37596
6416.01523,0.22194
6417.94370,0.01688
6419.87217,-0.15926
6421.80064,-0.18830
6423.72910,-0.04954
6425.65757,0.15983
6427.58604,0.31736
6429.51451,0.37149
6431.44298,0.35639
6433.37145,0.31376
6435.29992,0.17653
6437.22838,-0.06566
6439.15685,-0.23296
6441.08532,-0.21742
6443.01379,-0.08219
6444.94226,0.06273
6446.87073,0.15930
6448.79920,0.21397
6450.72766,0.21379
6452.65613,0.15742
6454.58460,0.07673
6456.51307,-0.02574
6458.44154,-0.15709
6460.37001,-0.25063
6462.29848,-0.22236
6464.22695,-0.10265
6466.15541,0.07666
6468.08388,0.31126
6470.01235,0.46301
6471.94082,0.43632
6473.86929,0.31077
6475.79776,0.14342
6477.72623,-0.01077
6479.65469,-0.08493
6481.58316,-0.06860
6483.51163,-0.01251
6485.44010,0.03597
6487.36857,0.12175
6489.29704,0.25277
6491.22551,0.30581
6493.15398,0.20816
6495.08244,0.03418
6497.01091,-0.13219
6498.93938,-0.20964
6500.86785,-0.11350
6502.79632,0.07358
6504.72479,0.20873
6506.65326,0.32067
6508.58172,0.39200
6510.51019,0.37187
6512.43866,0.29185
6514.36713,0.17380
6516.29560,0.02133
6518.22407,-0.14575
6520.15254,-0.25904
6522.08101,-0.25505
6524.00947,-0.12716
6525.93794,0.05598
6527.86641,0.20544
6529.79488,0.31150
6531.72335,0.36269
6533.65182,0.29439
6535.58029,0.14050
6537.50875,-0.01680
6539.43722,-0.16965
6541.36569,-0.23599
6543.29416,-0.17414
6545.22263,-0.06445
6547.15110,0.08003
6549.07957,0.21393
6551.00804,0.24309
6552.93650,0.19437
6554.86497,0.09250
6556.79344,-0.06057
6558.72191,-0.15764
6560.65038,-0.12311
6562.57885,-0.04304
6564.50732,0.03844
6566.43578,0.17307
6568.36425,0.33546
6570.29272,0.43511
6572.22119,0.36805
6574.14966,0.12110
6576.07813,-0.14557
6578.00660,-0.28446
6579.93507,-0.27130
6581.86353,-0.15860
6583.79200,-0.01544
6585.72047,0.11822
6587.64894,0.24004
6589.57741,0.30257
6591.50588,0.24478
6593.43435,0.07657
6595.36281,-0.09437
6597.29128,-0.19418
6599.21975,-0.25531
6601.14822,-0.22075
6603.07669,-0.01911
6605.00516,0.19372
6606.93363,0.31761
6608.86210,0.37372
6610.79056,0.31679
6612.71903,0.15024
6614.64750,-0.02265
6616.57597,-0.15198
6618.50444,-0.21856
6620.43291,-0.20386
6622.36138,-0.08198
6624.28984,0.09879
6626.21831,0.23150
6628.14678,0.29807
6630.07525,0.30271
6632.00372,0.19744
6633.93219,-0.00631
6635.86066,-0.17498
6637.78912,-0.19677
6639.71759,-0.11466
6641.64606,0.04987
6643.57453,0.24377
6645.50300,0.34814
6647.43147,0.35796
6649.35994,0.30341
6651.28841,0.16441
6653.21687,-0.02778
6655.14534,-0.19890
6657.07381,-0.26986
6659.00228,-0.18613
6660.93075,-0.01396
6662.85922,0.15435
6664.78769,0.28706
6666.71615,0.33849
6668.64462,0.27828
6670.57309,0.13879
6672.50156,-0.02895
6674.43003,-0.15866
6676.35850,-0.21847
6678.28697,-0.20625
6680.21544,-0.10450
6682.14390,0.11047
6684.07237,0.35502
6686.00084,0.49064
6687.92931,0.52467
6689.85778,0.43710
6691.78625,0.19101
6693.71472,-0.06810
6695.64318,-0.23253
6697.57165,-0.29790
6699.50012,-0.23958
6701.42859,-0.03581
6703.35706,0.23162
6705.28553,0.39737
6707.21400,0.39295
6709.14247,0.27027
6711.07093,0.05857
6712.99940,-0.15752
6714.92787,-0.23906
6716.85634,-0.14695
6718.78481,0.03562
6720.71328,0.21982
6722.64175,0.33601
6724.57021,0.34683
6726.49868,0.30637
6728.42715,0.24368
6730.35562,0.11262
6732.28409,-0.06898
6734.21256,-0.23341
6736.14103,-0.28036
6738.06950,-0.13992
6739.99796,0.10090
6741.92643,0.26210
6743.85490,0.27229
6745.78337,0.19704
6747.71184,0.08445
6749.64031,-0.00305
6751.56878,-0.05869
6753.49724,-0.12450
6755.42571,-0.18140
6757.35418,-0.18431
6759.28265,-0.05992
6761.21112,0.20496
6763.13959,0.40079
6765.06806,0.39034
6766.99653,0.23623
6768.92499,0.10328
6770.85346,0.03864
6772.78193,-0.05606
6774.71040,-0.16929
6776.63887,-0.18867
6778.56734,-0.09336
6780.49581,0.06016
6782.42427,0.17966
6784.35274,0.23594
6786.28121,0.25845
6788.20968,0.23186
6790.13815,0.14095
6792.06662,-0.04412
6793.99509,-0.28385
6795.92355,-0.40101
6797.85202,-0.30093
6799.78049,-0.06155
6801.70896,0.23588
6803.63743,0.50842
6805.56590,0.62123
6807.49437,0.53161
6809.42284,0.30973
6811.35130,-0.02982
6813.27977,-0.32209
6815.20824,-0.33335
6817.13671,-0.16968
6819.06518,-0.04811
6820.99365,0.09910
6822.92212,0.32729
6824.85058,0.45658
6826.77905,0.44901
6828.70752,0.31047
6830.63599,0.01439
6832.56446,-0.24338
6834.49293,-0.28503
6836.42140,-0.13359
6838.34987,-0.01343
6840.27833,-0.01108
6842.20680,0.02499
6844.13527,0.16377
6846.06374,0.31382
6847.99221,0.30976
6849.92068,0.03316
6851.84915,-0.30358
6853.77761,-0.46724
6855.70608,-0.38313
6857.63455,-0.15838
6859.56302,0.05006
6861.49149,0.25590
6863.41996,0.44288
6865.34843,0.52911
6867.27690,0.47422
6869.20536,0.30599
6871.13383,0.04554
6873.06230,-0.21618
6874.99077,-0.28983
6876.91924,-0.21481
6878.84771,-0.05776
6880.77618,0.18315
6882.70464,0.42014
6884.63311,0.56211
6886.56158,0.52474
6888.49005,0.32160
6890.41852,0.14538
6892.34699,0.04020
6894.27546,-0.10972
6896.20393,-0.21437
6898.13239,-0.07134
6900.06086,0.23178
6901.98933,0.46380
6903.91780,0.59458
6905.84627,0.67562
6907.77474,0.62592
6909.70321,0.33191
6911.63167,-0.09184
6913.56014,-0.36937
6915.48861,-0.39393
6917.41708,-0.26588
6919.34555,-0.04987
6921.27402,0.17384
6923.20249,0.36167
6925.13096,0.50435
6927.05942,0.52895
6928.98789,0.36539
6930.91636,0.09720
6932.84483,-0.13929
6934.77330,-0.31034
6936.70177,-0.36266
6938.63024,-0.19295
6940.55870,0.15375
6942.48717,0.39761
6944.41564,0.42952
6946.34411,0.28384
6948.27258,0.08542
6950.20105,-0.08167
6952.12952,-0.27772
6954.05799,-0.47568
6955.98645,-0.47749
6957.91492,-0.25538
6959.84339,0.05903
6961.77186,0.38787
6963.70033,0.58469
6965.62880,0.59771
6967.55727,0.43979
6969.48573,0.18279
6971.41420,-0.04429
6973.34267,-0.23649
6975.27114,-0.31826
6977.19961,-0.15324
6979.12808,0.10989
6981.05655,0.32225
6982.98501,0.41371
6984.91348,0.29817
6986.84195,0.00903
6988.77042,-0.28844
6990.69889,-0.48806
6992.62736,-0.53712
6994.55583,-0.38988
6996.48430,-0.06840
6998.41276,0.31083
7000.34123,0.58047
7002.26970,0.60403
7004.19817,0.42794
7006.12664,0.15476
7008.05511,-0.20882
7009.98358,-0.40446
7011.91204,-0.31389
7013.84051,-0.11202
7015.76898,0.09199
7017.69745,0.31704
7019.62592,0.46135
7021.55439,0.44299
7023.48286,0.26020
7025.41133,-0.01586
7027.33979,-0.25720
7029.26826,-0.38216
7031.19673,-0.35580
7033.12520,-0.19539
7035.05367,0.07487
7036.98214,0.33839
7038.91061,0.53195
7040.83907,0.62595
7042.76754,0.51091
7044.69601,0.22055
7046.62448,-0.06911
7048.55295,-0.30641
7050.48142,-0.41946
7052.40989,-0.32868
7054.33836,-0.05160
7056.26682,0.29128
7058.19529,0.54181
7060.12376,0.65528
7062.05223,0.60024
7063.98070,0.23848
7065.90917,-0.18153
7067.83764,-0.37511
7069.76610,-0.35345
7071.69457,-0.23025
7073.62304,-0.10905
7075.55151,0.04722
7077.47998,0.25194
7079.40845,0.44757
7081.33692,0.51053
7083.26539,0.32626
7085.19385,0.00829
7087.12232,-0.33039
7089.05079,-0.58528
7090.97926,-0.66385
7092.90773,-0.53102
7094.83620,-0.23999
7096.76467,0.12634
7098.69313,0.44654
7100.62160,0.51052
7102.55007,0.35440
7104.47854,0.08144
7106.40701,-0.23266
7108.33548,-0.45421
7110.26395,-0.55851
7112.19242,-0.54048
7114.12088,-0.38261
7116.04935,-0.13212
7117.97782,0.19801
7119.90629,0.47451
7121.83476,0.54871
7123.76323,0.45407
7125.69170,0.23141
7127.62016,-0.07365
7129.54863,-0.26166
7131.47710,-0.27188
7133.40557,-0.20749
7135.33404,0.00779
7137.26251,0.37558
7139.19098,0.64921
7141.11944,0.60222
7143.04791,0.30719
7144.97638,0.03325
7146.90485,-0.11388
7148.83332,-0.26104
7150.76179,-0.37503
7152.69026,-0.28317
7154.61873,0.02018
7156.54719,0.32660
7158.47566,0.49950
7160.40413,0.49808
7162.33260,0.35791
7164.26107,0.14543
7166.18954,-0.10238
7168.11801,-0.30703
7170.04647,-0.29472
7171.97494,-0.01827
7173.90341,0.25009
7175.83188,0.44959
7177.76035,0.64956
7179.68882,0.74988
7181.61729,0.63149
7183.54576,0.28594
7185.47422,-0.15690
7187.40269,-0.55948
7189.33116,-0.72717
7191.25963,-0.47338
7193.18810,0.01754
7195.11657,0.40926
7197.04504,0.66099
7198.97350,0.78879
7200.90197,0.76103
7202.83044,0.53954
7204.75891,0.11923
7206.68738,-0.17317
7208.61585,-0.24532
7210.54432,-0.25565
7212.47279,-0.10954
7214.40125,0.20643
7216.32972,0.50310
7218.25819,0.58979
7220.18666,0.47794
7222.11513,0.29976
7224.04360,0.00746
7225.97207,-0.44857
7227.90053,-0.81498
7229.82900,-0.76928
7231.75747,-0.26222
7233.68594,0.23309
7235.61441,0.47703
7237.54288,0.56840
7239.47135,0.53960
7241.39982,0.34024
7243.32828,-0.06172
7245.25675,-0.44155
7247.18522,-0.63129
7249.11369,-0.60114
7251.04216,-0.37357
7252.97063,-0.02109
7254.89910,0.23586
7256.82756,0.30869
7258.75603,0.38702
7260.68450,0.46244
7262.61297,0.35285
7264.54144,0.12067
7266.46991,-0.11139
7268.39838,-0.37186
7270.32685,-0.60430
7272.25531,-0.61083
7274.18378,-0.37356
7276.11225,-0.10462
7278.04072,0.16429
7279.96919,0.45503
7281.89766,0.63426
7283.82613,0.56539
7285.75459,0.27187
7287.68306,-0.09607
7289.61153,-0.39564
7291.54000,-0.48223
7293.46847,-0.32323
7295.39694,-0.02623
7297.32541,0.33986
7299.25387,0.68593
7301.18234,0.87525
7303.11081,0.79612
7305.03928,0.54691
7306.96775,0.26081
7308.89622,-0.11050
7310.82469,-0.44280
7312.75316,-0.52543
7314.68162,-0.36747
7316.61009,-0.10368
7318.53856,0.21064
7320.46703,0.59799
7322.39550,0.90613
7324.32397,0.88346
7326.25244,0.55601
7328.18090,0.04357
7330.10937,-0.35494
7332.03784,-0.45604
7333.96631,-0.42755
7335.89478,-0.23849
7337.82325,0.19910
7339.75172,0.86304
7341.68019,1.06771
7343.60865,0.78589
7345.53712,0.36501
7347.46559,-0.18363
7349.39406,-0.62719
7351.32253,-0.67269
7353.25100,-0.45995
7355.17947,-0.16842
7357.10793,0.30649
7359.03640,0.82262
7360.96487,1.06380
7362.89334,1.01605
7364.82181,0.76425
7366.75028,0.44777
7368.67875,0.06386
7370.60722,-0.31739
7372.53568,-0.51190
7374.46415,-0.40297
7376.39262,0.04374
7378.32109,0.41492
7380.24956,0.61015
7382.17803,0.74560
7384.10650,0.77309
7386.03496,0.49293
7387.96343,-0.03255
7389.89190,-0.42229
7391.82037,-0.56765
7393.74884,-0.51384
7395.67731,-0.21534
7397.60578,0.16835
7399.53425,0.43789
7401.46271,0.62896
7403.39118,0.64081
7405.31965,0.34102
7407.24812,-0.04174
7409.17659,-0.28869
7411.10506,-0.26669
7413.03353,-0.05803
7414.96199,0.13935
7416.89046,0.34697
7418.81893,0.63858
7420.74740,0.85689
7422.67587,0.80086
7424.60434,0.44172
7426.53281,-0.10681
7428.46128,-0.66734
7430.38974,-0.92199
7432.31821,-0.69728
7434.24668,-0.29927
7436.17515,0.13830
7438.10362,0.69127
7440.03209,0.93028
7441.96056,0.55972
7443.88902,-0.06047
7445.81749,-0.39347
7447.74596,-0.43429
7449.67443,-0.30900
7451.60290,0.04451
7453.53137,0.47959
7455.45984,0.74574
7457.38831,0.76653
7459.31677,0.44597
7461.24524,-0.03739
7463.17371,-0.36163
7465.10218,-0.50745
7467.03065,-0.40413
7468.95912,-0.10751
7470.88759,0.28830
7472.81605,0.50932
7474.74452,0.46464
7476.67299,0.21264
7478.60146,-0.31103
7480.52993,-0.75266
7482.45840,-0.63381
7484.38687,-0.17513
7486.31533,0.29877
7488.24380,0.66586
7490.17227,0.79179
7492.10074,0.58121
7494.02921,0.14159
7495.95768,-0.30226
7497.88615,-0.60771
