399.19301,12.28837
401.12148,0.34722
403.04995,-0.73407
404.97842,-0.60717
406.90689,0.08579
408.83536,1.22907
410.76382,1.75271
412.69229,1.15442
414.62076,0.67125
416.54923,1.23178
418.47770,2.17164
420.40617,1.39969
422.33464,0.29334
424.26311,-0.06645
426.19157,-0.17328
428.12004,-0.06365
430.04851,0.25069
431.97698,0.35687
433.90545,0.18850
435.83392,0.07607
437.76239,0.01865
439.69085,-0.00964
441.61932,0.06794
443.54779,0.15095
445.47626,0.08446
447.40473,0.02902
449.33320,0.07153
451.26167,0.10672
453.19013,0.18964
455.11860,0.28795
457.04707,0.26682
458.97554,0.15480
460.90401,0.06855
462.83248,0.05166
464.76095,0.07301
466.68942,0.07588
468.61788,0.05378
470.54635,0.03600
472.47482,-0.17756
474.40329,-0.59787
476.33176,-0.38558
478.26023,-0.00136
480.18870,0.12386
482.11716,0.11089
484.04563,0.05493
485.97410,-0.00889
487.90257,-0.01618
489.83104,0.04215
491.75951,0.10017
493.68798,0.11127
495.61645,0.09098
497.54491,0.05835
499.47338,0.05750
501.40185,0.10631
503.33032,0.13923
505.25879,0.12879
507.18726,0.12641
509.11573,0.12997
511.04419,0.10982
512.97266,0.09509
514.90113,0.11668
516.82960,0.14026
518.75807,0.14565
520.68654,0.16729
522.61501,0.17352
524.54348,0.15001
526.47194,0.15680
528.40041,0.17932
530.32888,0.17370
532.25735,0.15441
534.18582,0.13607
536.11429,0.11781
538.04276,0.09988
539.97122,0.09466
541.89969,0.10069
543.82816,0.09115
545.75663,0.09424
547.68510,0.12135
549.61357,0.12163
551.54204,0.11260
553.47051,0.12278
555.39897,0.12014
557.32744,0.10176
559.25591,0.09915
561.18438,0.11474
563.11285,0.12512
565.04132,0.12104
566.96979,0.11961
568.89825,0.11038
570.82672,0.09005
572.75519,0.09741
574.68366,0.15014
576.61213,0.19879
578.54060,0.17894
580.46907,0.11988
582.39754,0.09976
584.32600,0.13085
586.25447,0.16249
588.18294,0.15849
590.11141,0.14499
592.03988,0.15384
593.96835,0.17429
595.89682,0.18905
597.82528,0.18312
599.75375,0.15010
601.68222,0.11586
603.61069,0.09113
605.53916,0.07138
607.46763,0.07300
609.39610,0.08777
611.32456,0.09161
613.25303,0.08519
615.18150,0.09599
617.10997,0.13010
619.03844,0.15809
620.96691,0.16818
622.89538,0.15538
624.82385,0.12996
626.75231,0.12196
628.68078,0.13311
630.60925,0.14194
632.53772,0.12962
634.46619,0.10342
636.39466,0.09405
638.32313,0.10429
640.25159,0.11678
642.18006,0.12321
644.10853,0.13162
646.03700,0.14930
647.96547,0.15922
649.89394,0.15259
651.82241,0.13917
653.75088,0.12806
655.67934,0.12679
657.60781,0.12151
659.53628,0.11446
661.46475,0.12768
663.39322,0.15248
665.32169,0.17322
667.25016,0.18078
669.17862,0.16774
671.10709,0.16386
673.03556,0.16612
674.96403,0.15898
676.89250,0.14417
678.82097,0.12456
680.74944,0.11278
682.67791,0.11732
684.60637,0.12511
686.53484,0.13384
688.46331,0.14716
690.39178,0.16213
692.32025,0.17069
694.24872,0.16668
696.17719,0.16351
698.10565,0.15987
700.03412,0.14813
701.96259,0.14244
703.89106,0.13586
705.81953,0.12804
707.74800,0.13460
709.67647,0.14070
711.60494,0.14225
713.53340,0.13922
715.46187,0.13268
717.39034,0.14171
719.31881,0.14977
721.24728,0.14651
723.17575,0.15055
725.10422,0.15590
727.03268,0.15558
728.96115,0.14839
730.88962,0.13517
732.81809,0.12445
734.74656,0.12265
736.67503,0.13157
738.60350,0.13704
740.53197,0.13633
742.46043,0.14833
744.38890,0.16203
746.31737,0.15797
748.24584,0.14767
750.17431,0.14034
752.10278,0.13896
754.03125,0.14754
755.95971,0.15853
757.88818,0.16415
759.81665,0.16432
761.74512,0.16682
763.67359,0.17087
765.60206,0.16070
767.53053,0.14330
769.45900,0.13850
771.38746,0.14283
773.31593,0.14844
775.24440,0.15560
777.17287,0.15813
779.10134,0.15081
781.02981,0.14677
782.95828,0.15681
784.88674,0.16589
786.81521,0.16416
788.74368,0.16119
790.67215,0.16124
792.60062,0.16064
794.52909,0.15968
796.45756,0.16500
798.38602,0.17020
800.31449,0.16398
802.24296,0.15265
804.17143,0.14133
806.09990,0.13584
808.02837,0.14376
809.95684,0.14818
811.88531,0.14164
813.81377,0.14435
815.74224,0.15611
817.67071,0.16485
819.59918,0.16886
821.52765,0.15840
823.45612,0.13856
825.38459,0.13568
827.31305,0.15051
829.24152,0.15430
831.16999,0.14878
833.09846,0.15786
835.02693,0.16931
836.95540,0.16349
838.88387,0.15009
840.81234,0.13761
842.74080,0.12552
844.66927,0.11833
846.59774,0.12277
848.52621,0.13768
850.45468,0.14783
852.38315,0.14479
854.31162,0.13910
856.24008,0.13607
858.16855,0.13718
860.09702,0.14677
862.02549,0.16068
863.95396,0.16762
865.88243,0.16194
867.81090,0.11453
869.73937,0.01435
871.66783,-0.02228
873.59630,0.06026
875.52477,0.13804
877.45324,0.15898
879.38171,0.16570
881.31018,0.16902
883.23865,0.17196
885.16711,0.16726
887.09558,0.15622
889.02405,0.15389
890.95252,0.15249
892.88099,0.15356
894.80946,0.16520
896.73793,0.17154
898.66640,0.16699
900.59486,0.15768
902.52333,0.14660
904.45180,0.14910
906.38027,0.16494
908.30874,0.17161
910.23721,0.16604
912.16568,0.16363
914.09414,0.16735
916.02261,0.16383
917.95108,0.15214
919.87955,0.14651
921.80802,0.14921
923.73649,0.15474
925.66496,0.15614
927.59343,0.15210
929.52189,0.15461
931.45036,0.16446
933.37883,0.17147
935.30730,0.17139
937.23577,0.16659
939.16424,0.16317
941.09271,0.16121
943.02117,0.15862
944.94964,0.15776
946.87811,0.16006
948.80658,0.16473
950.73505,0.17113
952.66352,0.17574
954.59199,0.17248
956.52045,0.16383
958.44892,0.16004
960.37739,0.16139
962.30586,0.16115
964.23433,0.16224
966.16280,0.16186
968.09127,0.15346
970.01974,0.14891
971.94820,0.15324
973.87667,0.15589
975.80514,0.15231
977.73361,0.14602
979.66208,0.14416
981.59055,0.14714
983.51902,0.15176
985.44748,0.15831
987.37595,0.16572
989.30442,0.17118
991.23289,0.17120
993.16136,0.16912
995.08983,0.16602
997.01830,0.15828
998.94677,0.15696
1000.87523,0.16705
1002.80370,0.17612
1004.73217,0.17558
1006.66064,0.16499
1008.58911,0.15637
1010.51758,0.15802
1012.44605,0.16009
1014.37451,0.15970
1016.30298,0.15917
1018.23145,0.16082
1020.15992,0.16528
1022.08839,0.16147
1024.01686,0.15463
1025.94533,0.15744
1027.87380,0.16633
1029.80226,0.17533
1031.73073,0.17343
1033.65920,0.16314
1035.58767,0.16056
1037.51614,0.16401
1039.44461,0.16810
1041.37308,0.16856
1043.30154,0.16189
1045.23001,0.16366
1047.15848,0.17607
1049.08695,0.17991
1051.01542,0.17715
1052.94389,0.18187
1054.87236,0.19182
1056.80083,0.19358
1058.72929,0.18840
1060.65776,0.18762
1062.58623,0.18784
1064.51470,0.18564
1066.44317,0.18295
1068.37164,0.18145
1070.30011,0.18185
1072.22857,0.17969
1074.15704,0.17967
1076.08551,0.18596
1078.01398,0.18806
1079.94245,0.18260
1081.87092,0.17762
1083.79939,0.17420
1085.72786,0.17043
1087.65632,0.17109
1089.58479,0.17687
1091.51326,0.17941
1093.44173,0.17795
1095.37020,0.17827
1097.29867,0.17687
1099.22714,0.17839
1101.15560,0.18849
1103.08407,0.19294
1105.01254,0.19279
1106.94101,0.19868
1108.86948,0.20024
1110.79795,0.19509
1112.72642,0.19057
1114.65489,0.18363
1116.58335,0.17462
1118.51182,0.16514
1120.44029,0.15777
1122.36876,0.15860
1124.29723,0.16258
1126.22570,0.16413
1128.15417,0.16468
1130.08263,0.16519
1132.01110,0.16511
1133.93957,0.16388
1135.86804,0.16436
1137.79651,0.16746
1139.72498,0.17426
1141.65345,0.18423
1143.58191,0.18744
1145.51038,0.17939
1147.43885,0.16802
1149.36732,0.16461
1151.29579,0.17125
1153.22426,0.17830
1155.15273,0.18025
1157.08120,0.17819
1159.00966,0.17577
1160.93813,0.17776
1162.86660,0.18302
1164.79507,0.18641
1166.72354,0.18706
1168.65201,0.18698
1170.58048,0.18525
1172.50894,0.18006
1174.43741,0.17695
1176.36588,0.18152
1178.29435,0.18464
1180.22282,0.18080
1182.15129,0.17661
1184.07976,0.17522
1186.00823,0.17862
1187.93669,0.18233
1189.86516,0.17952
1191.79363,0.17452
1193.72210,0.17293
1195.65057,0.17531
1197.57904,0.17651
1199.50751,0.17402
1201.43597,0.17337
1203.36444,0.17382
1205.29291,0.17181
1207.22138,0.17163
1209.14985,0.17553
1211.07832,0.17981
1213.00679,0.18269
1214.93526,0.18605
1216.86372,0.18855
1218.79219,0.18586
1220.72066,0.17970
1222.64913,0.17515
1224.57760,0.17527
1226.50607,0.17786
1228.43454,0.17718
1230.36300,0.17487
1232.29147,0.17427
1234.21994,0.17436
1236.14841,0.17734
1238.07688,0.18221
1240.00535,0.18309
1241.93382,0.18238
1243.86229,0.18248
1245.79075,0.17965
1247.71922,0.17500
1249.64769,0.17292
1251.57616,0.17528
1253.50463,0.17720
1255.43310,0.17612
1257.36157,0.17765
1259.29003,0.18080
1261.21850,0.18250
1263.14697,0.18614
1265.07544,0.19017
1267.00391,0.18797
1268.93238,0.18380
1270.86085,0.18719
1272.78932,0.19174
1274.71778,0.18815
1276.64625,0.18129
1278.57472,0.17853
1280.50319,0.18099
1282.43166,0.18578
1284.36013,0.18937
1286.28860,0.18933
1288.21706,0.18811
1290.14553,0.19027
1292.07400,0.19355
1294.00247,0.19352
1295.93094,0.19046
1297.85941,0.18590
1299.78788,0.18049
1301.71634,0.17415
1303.64481,0.16804
1305.57328,0.16696
1307.50175,0.17167
1309.43022,0.17687
1311.35869,0.18228
1313.28716,0.18720
1315.21563,0.18717
1317.14409,0.18605
1319.07256,0.18782
1321.00103,0.18937
1322.92950,0.18827
1324.85797,0.18468
1326.78644,0.18300
1328.71491,0.18452
1330.64337,0.18306
1332.57184,0.17885
1334.50031,0.17752
1336.42878,0.17950
1338.35725,0.18402
1340.28572,0.18774
1342.21419,0.18420
1344.14266,0.17474
1346.07112,0.16848
1347.99959,0.17347
1349.92806,0.18189
1351.85653,0.18244
1353.78500,0.18014
1355.71347,0.18228
1357.64194,0.18891
1359.57040,0.19662
1361.49887,0.19959
1363.42734,0.19302
1365.35581,0.18390
1367.28428,0.18243
1369.21275,0.18554
1371.14122,0.18783
1373.06969,0.19442
1374.99815,0.20318
1376.92662,0.20281
1378.85509,0.19776
1380.78356,0.19589
1382.71203,0.19574
1384.64050,0.19413
1386.56897,0.19368
1388.49743,0.19632
1390.42590,0.19813
1392.35437,0.20136
1394.28284,0.20745
1396.21131,0.20888
1398.13978,0.20421
1400.06825,0.19834
1401.99672,0.19514
1403.92518,0.19507
1405.85365,0.19384
1407.78212,0.18971
1409.71059,0.18712
1411.63906,0.18933
1413.56753,0.19394
1415.49600,0.19749
1417.42446,0.20053
1419.35293,0.20090
1421.28140,0.19636
1423.20987,0.19363
1425.13834,0.19470
1427.06681,0.19791
1428.99528,0.20267
1430.92375,0.20362
1432.85221,0.20001
1434.78068,0.19868
1436.70915,0.19913
1438.63762,0.19816
1440.56609,0.19642
1442.49456,0.19401
1444.42303,0.19432
1446.35149,0.19751
1448.27996,0.19879
1450.20843,0.20015
1452.13690,0.20377
1454.06537,0.20786
1455.99384,0.21554
1457.92231,0.22277
1459.85077,0.21729
1461.77924,0.21169
1463.70771,0.20922
1465.63618,0.20360
1467.56465,0.19791
1469.49312,0.20155
1471.42159,0.21630
1473.35006,0.22931
1475.27852,0.22519
1477.20699,0.21364
1479.13546,0.20473
1481.06393,0.20223
1482.99240,0.20387
1484.92087,0.20796
1486.84934,0.21568
1488.77780,0.22290
1490.70627,0.21983
1492.63474,0.21269
1494.56321,0.21193
1496.49168,0.21779
1498.42015,0.21956
1500.34862,0.21336
1502.27709,0.21279
1504.20555,0.22349
1506.13402,0.23937
1508.06249,0.23863
1509.99096,0.22670
1511.91943,0.21868
1513.84790,0.21714
1515.77637,0.22134
1517.70483,0.22789
1519.63330,0.23338
1521.56177,0.23201
1523.49024,0.22476
1525.41871,0.22145
1527.34718,0.22032
1529.27565,0.21874
1531.20412,0.21919
1533.13258,0.22148
1535.06105,0.22214
1536.98952,0.22841
1538.91799,0.25118
1540.84646,0.26892
1542.77493,0.25016
1544.70340,0.22809
1546.63186,0.21323
1548.56033,0.20891
1550.48880,0.21104
1552.41727,0.21456
1554.34574,0.22207
1556.27421,0.23329
1558.20268,0.24294
1560.13115,0.22839
1562.05961,0.21152
1563.98808,0.20633
1565.91655,0.20824
1567.84502,0.21437
1569.77349,0.21647
1571.70196,0.21013
1573.63043,0.20695
1575.55889,0.20999
1577.48736,0.21110
1579.41583,0.20510
1581.34430,0.19694
1583.27277,0.19213
1585.20124,0.19100
1587.12971,0.19136
1589.05818,0.19414
1590.98664,0.19617
1592.91511,0.19471
1594.84358,0.19210
1596.77205,0.19039
1598.70052,0.19129
1600.62899,0.19327
1602.55746,0.19309
1604.48592,0.19276
1606.41439,0.19348
1608.34286,0.19281
1610.27133,0.19350
1612.19980,0.19952
1614.12827,0.20930
1616.05674,0.21770
1617.98521,0.21701
1619.91367,0.21368
1621.84214,0.21315
1623.77061,0.21337
1625.69908,0.21447
1627.62755,0.21410
1629.55602,0.21078
1631.48449,0.20985
1633.41295,0.21658
1635.34142,0.23065
1637.26989,0.22985
1639.19836,0.21929
1641.12683,0.21609
1643.05530,0.21993
1644.98377,0.23304
1646.91223,0.24888
1648.84070,0.24833
1650.76917,0.24894
1652.69764,0.25661
1654.62611,0.24268
1656.55458,0.22158
1658.48305,0.20761
1660.41152,0.20861
1662.33998,0.22545
1664.26845,0.22742
1666.19692,0.21820
1668.12539,0.22101
1670.05386,0.22761
1671.98233,0.22587
1673.91080,0.22199
1675.83926,0.21721
1677.76773,0.21575
1679.69620,0.22127
1681.62467,0.23386
1683.55314,0.24630
1685.48161,0.24032
1687.41008,0.23082
1689.33855,0.22793
1691.26701,0.22523
1693.19548,0.22536
1695.12395,0.23348
1697.05242,0.24388
1698.98089,0.24780
1700.90936,0.23942
1702.83783,0.22942
1704.76629,0.22745
1706.69476,0.22485
1708.62323,0.21760
1710.55170,0.21273
1712.48017,0.21493
1714.40864,0.22426
1716.33711,0.23459
1718.26558,0.22832
1720.19404,0.21454
1722.12251,0.20956
1724.05098,0.20979
1725.97945,0.20999
1727.90792,0.20940
1729.83639,0.21098
1731.76486,0.21816
1733.69332,0.22466
1735.62179,0.22061
1737.55026,0.21704
1739.47873,0.21738
1741.40720,0.21813
1743.33567,0.22012
1745.26414,0.22496
1747.19261,0.23035
1749.12107,0.23202
1751.04954,0.22421
1752.97801,0.21222
1754.90648,0.20790
1756.83495,0.21037
1758.76342,0.21170
1760.69189,0.21263
1762.62035,0.21354
1764.54882,0.21135
1766.47729,0.21184
1768.40576,0.21837
1770.33423,0.22944
1772.26270,0.23820
1774.19117,0.22976
1776.11964,0.21439
1778.04810,0.20724
1779.97657,0.20904
1781.90504,0.21190
1783.83351,0.21091
1785.76198,0.20867
1787.69045,0.20925
1789.61892,0.21551
1791.54738,0.22437
1793.47585,0.22304
1795.40432,0.21551
1797.33279,0.21298
1799.26126,0.21327
1801.18973,0.21203
1803.11820,0.20845
1805.04666,0.20517
1806.97513,0.20478
1808.90360,0.20617
1810.83207,0.20579
1812.76054,0.20229
1814.68901,0.19986
1816.61748,0.20184
1818.54595,0.20717
1820.47441,0.21335
1822.40288,0.21747
1824.33135,0.21605
1826.25982,0.21144
1828.18829,0.20998
1830.11676,0.21039
1832.04523,0.21011
1833.97369,0.21016
1835.90216,0.21059
1837.83063,0.20918
1839.75910,0.20742
1841.68757,0.21161
1843.61604,0.21983
1845.54451,0.22079
1847.47298,0.21591
1849.40144,0.21074
1851.32991,0.20609
1853.25838,0.20541
1855.18685,0.20753
1857.11532,0.20772
1859.04379,0.20714
1860.97226,0.20759
1862.90072,0.20831
1864.82919,0.21118
1866.75766,0.21645
1868.68613,0.21729
1870.61460,0.21298
1872.54307,0.21067
1874.47154,0.20808
1876.40001,0.20384
1878.32847,0.20283
1880.25694,0.20469
1882.18541,0.20551
1884.11388,0.20623
1886.04235,0.20871
1887.97082,0.21246
1889.89929,0.21305
1891.82775,0.20986
1893.75622,0.20933
1895.68469,0.21017
1897.61316,0.20915
1899.54163,0.20841
1901.47010,0.20815
1903.39857,0.20755
1905.32704,0.20686
1907.25550,0.20714
1909.18397,0.20816
1911.11244,0.20738
1913.04091,0.20589
1914.96938,0.20700
1916.89785,0.20913
1918.82632,0.20786
1920.75478,0.20534
1922.68325,0.20463
1924.61172,0.20310
1926.54019,0.20167
1928.46866,0.20301
1930.39713,0.20593
1932.32560,0.20839
1934.25407,0.20878
1936.18253,0.20862
1938.11100,0.20991
1940.03947,0.21191
1941.96794,0.21371
1943.89641,0.21373
1945.82488,0.21165
1947.75335,0.20912
1949.68181,0.20697
1951.61028,0.20679
1953.53875,0.20897
1955.46722,0.20995
1957.39569,0.20890
1959.32416,0.20809
1961.25263,0.20740
1963.18110,0.20724
1965.10956,0.20884
1967.03803,0.20977
1968.96650,0.20799
1970.89497,0.20716
1972.82344,0.20796
1974.75191,0.20732
1976.68038,0.20481
1978.60884,0.20155
1980.53731,0.20132
1982.46578,0.20545
1984.39425,0.20862
1986.32272,0.20892
1988.25119,0.20863
1990.17966,0.20760
1992.10812,0.20646
1994.03659,0.20709
1995.96506,0.20852
1997.89353,0.20820
1999.82200,0.20554
2001.75047,0.20379
2003.67894,0.20387
2005.60741,0.20313
2007.53587,0.20158
2009.46434,0.20107
2011.39281,0.20295
2013.32128,0.20625
2015.24975,0.20861
2017.17822,0.20912
2019.10669,0.20759
2021.03515,0.20574
2022.96362,0.20629
2024.89209,0.20854
2026.82056,0.20944
2028.74903,0.20818
2030.67750,0.20788
2032.60597,0.20928
2034.53444,0.20780
2036.46290,0.20509
2038.39137,0.20696
2040.31984,0.21000
2042.24831,0.20939
2044.17678,0.20797
2046.10525,0.20760
2048.03372,0.20715
2049.96218,0.20685
2051.89065,0.20551
2053.81912,0.20349
2055.74759,0.20384
2057.67606,0.20563
2059.60453,0.20475
2061.53300,0.20188
2063.46147,0.20220
2065.38993,0.20472
2067.31840,0.20599
2069.24687,0.20759
2071.17534,0.20941
2073.10381,0.20926
2075.03228,0.20721
2076.96075,0.20529
2078.88921,0.20429
2080.81768,0.20328
2082.74615,0.20370
2084.67462,0.20606
2086.60309,0.20769
2088.53156,0.20802
2090.46003,0.20735
2092.38850,0.20608
2094.31696,0.20668
2096.24543,0.20924
2098.17390,0.21125
2100.10237,0.21154
2102.03084,0.21095
2103.95931,0.20972
2105.88778,0.20682
2107.81624,0.20442
2109.74471,0.20537
2111.67318,0.20818
2113.60165,0.21121
2115.53012,0.21317
2117.45859,0.21286
2119.38706,0.21171
2121.31553,0.21006
2123.24399,0.20866
2125.17246,0.20956
2127.10093,0.21059
2129.02940,0.20870
2130.95787,0.20633
2132.88634,0.20636
2134.81481,0.20614
2136.74327,0.20468
2138.67174,0.20506
2140.60021,0.20733
2142.52868,0.20897
2144.45715,0.20868
2146.38562,0.20724
2148.31409,0.20603
2150.24255,0.20625
2152.17102,0.20856
2154.09949,0.21126
2156.02796,0.21202
2157.95643,0.21097
2159.88490,0.20932
2161.81337,0.20787
2163.74184,0.20680
2165.67030,0.20680
2167.59877,0.20992
2169.52724,0.21323
2171.45571,0.21248
2173.38418,0.21064
2175.31265,0.21044
2177.24112,0.21128
2179.16958,0.21251
2181.09805,0.21213
2183.02652,0.20947
2184.95499,0.20625
2186.88346,0.20531
2188.81193,0.20794
2190.74040,0.21005
2192.66887,0.20964
2194.59733,0.20935
2196.52580,0.20981
2198.45427,0.21021
2200.38274,0.20827
2202.31121,0.20458
2204.23968,0.20359
2206.16815,0.20512
2208.09661,0.20731
2210.02508,0.20922
2211.95355,0.20784
2213.88202,0.20438
2215.81049,0.20354
2217.73896,0.20478
2219.66743,0.20592
2221.59590,0.20621
2223.52436,0.20545
2225.45283,0.20486
2227.38130,0.20578
2229.30977,0.20814
2231.23824,0.20896
2233.16671,0.20740
2235.09518,0.20616
2237.02364,0.20689
2238.95211,0.20846
2240.88058,0.20730
2242.80905,0.20425
2244.73752,0.20380
2246.66599,0.20633
2248.59446,0.20920
2250.52293,0.21086
2252.45139,0.21170
2254.37986,0.21189
2256.30833,0.21056
2258.23680,0.20938
2260.16527,0.21044
2262.09374,0.21191
2264.02221,0.21333
2265.95067,0.21417
2267.87914,0.21135
2269.80761,0.20691
2271.73608,0.20497
2273.66455,0.20592
2275.59302,0.20794
2277.52149,0.20913
2279.44996,0.21015
2281.37842,0.21171
2283.30689,0.21286
2285.23536,0.21403
2287.16383,0.21439
2289.09230,0.21197
2291.02077,0.20876
2292.94924,0.20749
2294.87770,0.20709
2296.80617,0.20654
2298.73464,0.20832
2300.66311,0.21108
2302.59158,0.20974
2304.52005,0.20727
2306.44852,0.20751
2308.37699,0.20734
2310.30545,0.20613
2312.23392,0.20651
2314.16239,0.20982
2316.09086,0.21255
2318.01933,0.20956
2319.94780,0.20515
2321.87627,0.20635
2323.80473,0.21274
2325.73320,0.21698
2327.66167,0.21267
2329.59014,0.20864
2331.51861,0.21209
2333.44708,0.21297
2335.37555,0.21046
2337.30401,0.21272
2339.23248,0.21855
2341.16095,0.22244
2343.08942,0.22011
2345.01789,0.21230
2346.94636,0.20739
2348.87483,0.20736
2350.80330,0.20652
2352.73176,0.20093
2354.66023,0.20061
2356.58870,0.21428
2358.51717,0.21992
2360.44564,0.20542
2362.37411,0.19377
2364.30258,0.20315
2366.23104,0.21709
2368.15951,0.21702
2370.08798,0.21389
2372.01645,0.21499
2373.94492,0.21465
2375.87339,0.21255
2377.80186,0.21132
2379.73033,0.21228
2381.65879,0.21319
2383.58726,0.21061
2385.51573,0.20636
2387.44420,0.20414
2389.37267,0.20384
2391.30114,0.20327
2393.22961,0.20357
2395.15807,0.20696
2397.08654,0.20928
2399.01501,0.20720
2400.94348,0.20609
2402.87195,0.20963
2404.80042,0.21309
2406.72889,0.21270
2408.65736,0.21009
2410.58582,0.20903
2412.51429,0.21217
2414.44276,0.21594
2416.37123,0.21524
2418.29970,0.21079
2420.22817,0.20644
2422.15664,0.20499
2424.08510,0.20605
2426.01357,0.20768
2427.94204,0.20768
2429.87051,0.20600
2431.79898,0.20597
2433.72745,0.20690
2435.65592,0.20666
2437.58439,0.20630
2439.51285,0.20608
2441.44132,0.20651
2443.36979,0.20781
2445.29826,0.21002
2447.22673,0.21340
2449.15520,0.21533
2451.08367,0.21011
2453.01213,0.19648
2454.94060,0.18698
2456.86907,0.19368
2458.79754,0.20836
2460.72601,0.21588
2462.65448,0.21493
2464.58295,0.21196
2466.51142,0.20948
2468.43988,0.20764
2470.36835,0.20749
2472.29682,0.20979
2474.22529,0.21226
2476.15376,0.21261
2478.08223,0.21246
2480.01070,0.21380
2481.93916,0.21368
2483.86763,0.21000
2485.79610,0.20840
2487.72457,0.21025
2489.65304,0.21072
2491.58151,0.20991
2493.50998,0.21055
2495.43844,0.21280
2497.36691,0.21414
2499.29538,0.21374
2501.22385,0.21328
2503.15232,0.21244
2505.08079,0.21158
2507.00926,0.21238
2508.93773,0.21381
2510.86619,0.21502
2512.79466,0.21577
2514.72313,0.21496
2516.65160,0.21299
2518.58007,0.21101
2520.50854,0.21095
2522.43701,0.21181
2524.36547,0.20992
2526.29394,0.20812
2528.22241,0.21017
2530.15088,0.21402
2532.07935,0.21535
2534.00782,0.21259
2535.93629,0.21150
2537.86476,0.21380
2539.79322,0.21416
2541.72169,0.21276
2543.65016,0.21228
2545.57863,0.21360
2547.50710,0.21552
2549.43557,0.21530
2551.36404,0.21352
2553.29250,0.21184
2555.22097,0.21189
2557.14944,0.21397
2559.07791,0.21511
2561.00638,0.21448
2562.93485,0.21437
2564.86332,0.21441
2566.79179,0.21212
2568.72025,0.20976
2570.64872,0.21057
2572.57719,0.21240
2574.50566,0.21357
2576.43413,0.21605
2578.36260,0.21855
2580.29107,0.21632
2582.21953,0.21208
2584.14800,0.21232
2586.07647,0.21492
2588.00494,0.21468
2589.93341,0.21236
2591.86188,0.21164
2593.79035,0.21263
2595.71882,0.21252
2597.64728,0.21121
2599.57575,0.21038
2601.50422,0.21059
2603.43269,0.21150
2605.36116,0.21185
2607.28963,0.21160
2609.21810,0.21148
2611.14656,0.21030
2613.07503,0.20857
2615.00350,0.20960
2616.93197,0.21261
2618.86044,0.21449
2620.78891,0.21557
2622.71738,0.21525
2624.64585,0.21377
2626.57431,0.21365
2628.50278,0.21371
2630.43125,0.21353
2632.35972,0.21514
2634.28819,0.21703
2636.21666,0.21781
2638.14513,0.21906
2640.07359,0.21981
2642.00206,0.21766
2643.93053,0.21382
2645.85900,0.21299
2647.78747,0.21699
2649.71594,0.21952
2651.64441,0.21718
2653.57288,0.21504
2655.50134,0.21379
2657.42981,0.21118
2659.35828,0.20952
2661.28675,0.21147
2663.21522,0.21728
2665.14369,0.22210
2667.07216,0.22167
2669.00062,0.21880
2670.92909,0.21723
2672.85756,0.21928
2674.78603,0.22247
2676.71450,0.22332
2678.64297,0.22330
2680.57144,0.22274
2682.49990,0.22137
2684.42837,0.21947
2686.35684,0.21779
2688.28531,0.21672
2690.21378,0.21509
2692.14225,0.21467
2694.07072,0.21662
2695.99919,0.21782
2697.92765,0.21726
2699.85612,0.21685
2701.78459,0.21583
2703.71306,0.21446
2705.64153,0.21636
2707.57000,0.22003
2709.49847,0.21988
2711.42693,0.21747
2713.35540,0.21812
2715.28387,0.22058
2717.21234,0.22218
2719.14081,0.22299
2721.06928,0.22273
2722.99775,0.22064
2724.92622,0.21755
2726.85468,0.21675
2728.78315,0.21978
2730.71162,0.22348
2732.64009,0.22457
2734.56856,0.22288
2736.49703,0.21878
2738.42550,0.21497
2740.35396,0.21614
2742.28243,0.22171
2744.21090,0.22574
2746.13937,0.22507
2748.06784,0.22345
2749.99631,0.22439
2751.92478,0.22700
2753.85325,0.22922
2755.78171,0.22933
2757.71018,0.22826
2759.63865,0.22898
2761.56712,0.23184
2763.49559,0.23432
2765.42406,0.23442
2767.35253,0.23385
2769.28099,0.23348
2771.20946,0.22995
2773.13793,0.22627
2775.06640,0.22639
2776.99487,0.22608
2778.92334,0.22470
2780.85181,0.22483
2782.78028,0.22632
2784.70874,0.22743
2786.63721,0.22818
2788.56568,0.23137
2790.49415,0.23297
2792.42262,0.22854
2794.35109,0.22677
2796.27956,0.23149
2798.20802,0.23279
2800.13649,0.22976
2802.06496,0.22936
2803.99343,0.23040
2805.92190,0.22944
2807.85037,0.22775
2809.77884,0.22853
2811.70731,0.23079
2813.63577,0.23046
2815.56424,0.22704
2817.49271,0.22496
2819.42118,0.22683
2821.34965,0.22910
2823.27812,0.23002
2825.20659,0.22995
2827.13505,0.22826
2829.06352,0.22774
2830.99199,0.22851
2832.92046,0.22859
2834.84893,0.22887
2836.77740,0.22729
2838.70587,0.22449
2840.63433,0.22447
2842.56280,0.22579
2844.49127,0.22599
2846.41974,0.22566
2848.34821,0.22635
2850.27668,0.22958
2852.20515,0.23378
2854.13362,0.23384
2856.06208,0.23040
2857.99055,0.22880
2859.91902,0.22902
2861.84749,0.22877
2863.77596,0.22807
2865.70443,0.22747
2867.63290,0.22753
2869.56136,0.22963
2871.48983,0.23245
2873.41830,0.23234
2875.34677,0.23056
2877.27524,0.23098
2879.20371,0.23203
2881.13218,0.23014
2883.06065,0.22755
2884.98911,0.22731
2886.91758,0.22850
2888.84605,0.22938
2890.77452,0.22845
2892.70299,0.22775
2894.63146,0.23020
2896.55993,0.23189
2898.48839,0.23074
2900.41686,0.22950
2902.34533,0.22799
2904.27380,0.22632
2906.20227,0.22494
2908.13074,0.22426
2910.05921,0.22513
2911.98768,0.22617
2913.91614,0.22582
2915.84461,0.22496
2917.77308,0.22592
2919.70155,0.22784
2921.63002,0.22905
2923.55849,0.22803
2925.48696,0.22945
2927.41542,0.24130
2929.34389,0.25356
2931.27236,0.25111
2933.20083,0.23490
2935.12930,0.21915
2937.05777,0.21459
2938.98624,0.21793
2940.91471,0.22308
2942.84317,0.22539
2944.77164,0.22545
2946.70011,0.22645
2948.62858,0.22661
2950.55705,0.22487
2952.48552,0.22210
2954.41399,0.22134
2956.34245,0.22221
2958.27092,0.22272
2960.19939,0.22577
2962.12786,0.22944
2964.05633,0.23065
2965.98480,0.22904
2967.91327,0.22614
2969.84174,0.22712
2971.77020,0.23008
2973.69867,0.23087
2975.62714,0.22945
2977.55561,0.22590
2979.48408,0.22510
2981.41255,0.23006
2983.34102,0.23513
2985.26948,0.23599
2987.19795,0.23456
2989.12642,0.23595
2991.05489,0.24135
2992.98336,0.24479
2994.91183,0.24285
2996.84030,0.23730
2998.76877,0.23197
3000.69723,0.23113
3002.62570,0.23396
3004.55417,0.23710
3006.48264,0.23723
3008.41111,0.23360
3010.33958,0.22820
3012.26805,0.22007
3014.19651,0.20731
3016.12498,0.19483
3018.05345,0.19781
3019.98192,0.21794
3021.91039,0.23473
3023.83886,0.24062
3025.76733,0.24196
3027.69579,0.23935
3029.62426,0.23735
3031.55273,0.23988
3033.48120,0.24128
3035.40967,0.23895
3037.33814,0.23555
3039.26661,0.23312
3041.19508,0.23124
3043.12354,0.23023
3045.05201,0.23017
3046.98048,0.23040
3048.90895,0.23441
3050.83742,0.24067
3052.76589,0.24079
3054.69436,0.23234
3056.62282,0.22447
3058.55129,0.22714
3060.47976,0.23555
3062.40823,0.24086
3064.33670,0.24038
3066.26517,0.23432
3068.19364,0.22914
3070.12211,0.22981
3072.05057,0.23202
3073.97904,0.23154
3075.90751,0.23081
3077.83598,0.23291
3079.76445,0.23652
3081.69292,0.23884
3083.62139,0.23348
3085.54985,0.22245
3087.47832,0.21865
3089.40679,0.22285
3091.33526,0.22826
3093.26373,0.22913
3095.19220,0.22703
3097.12067,0.23020
3099.04914,0.23464
3100.97760,0.23432
3102.90607,0.23171
3104.83454,0.23222
3106.76301,0.23599
3108.69148,0.23524
3110.61995,0.22999
3112.54842,0.22788
3114.47688,0.23131
3116.40535,0.23686
3118.33382,0.24004
3120.26229,0.23881
3122.19076,0.23737
3124.11923,0.23873
3126.04770,0.23580
3127.97617,0.22766
3129.90463,0.22439
3131.83310,0.22893
3133.76157,0.23465
3135.69004,0.23692
3137.61851,0.23661
3139.54698,0.23571
3141.47545,0.23574
3143.40391,0.23555
3145.33238,0.23208
3147.26085,0.22569
3149.18932,0.22104
3151.11779,0.22249
3153.04626,0.22896
3154.97473,0.23652
3156.90320,0.24219
3158.83166,0.24329
3160.76013,0.24188
3162.68860,0.24171
3164.61707,0.24276
3166.54554,0.24533
3168.47401,0.24518
3170.40248,0.23827
3172.33094,0.23152
3174.25941,0.23164
3176.18788,0.23741
3178.11635,0.24295
3180.04482,0.24245
3181.97329,0.23860
3183.90176,0.23749
3185.83022,0.23906
3187.75869,0.23942
3189.68716,0.23649
3191.61563,0.23586
3193.54410,0.24144
3195.47257,0.24482
3197.40104,0.24056
3199.32951,0.23542
3201.25797,0.23661
3203.18644,0.24188
3205.11491,0.24396
3207.04338,0.24119
3208.97185,0.23547
3210.90032,0.23275
3212.82879,0.23921
3214.75725,0.24558
3216.68572,0.24296
3218.61419,0.23828
3220.54266,0.23401
3222.47113,0.22954
3224.39960,0.23046
3226.32807,0.23544
3228.25654,0.23668
3230.18500,0.23625
3232.11347,0.24073
3234.04194,0.24423
3235.97041,0.24162
3237.89888,0.24033
3239.82735,0.24354
3241.75582,0.24552
3243.68428,0.24284
3245.61275,0.23742
3247.54122,0.23354
3249.46969,0.23257
3251.39816,0.23122
3253.32663,0.23050
3255.25510,0.23338
3257.18357,0.23654
3259.11203,0.23554
3261.04050,0.23165
3262.96897,0.23015
3264.89744,0.23069
3266.82591,0.23057
3268.75438,0.23213
3270.68285,0.23737
3272.61131,0.24254
3274.53978,0.24290
3276.46825,0.24090
3278.39672,0.24082
3280.32519,0.24244
3282.25366,0.24225
3284.18213,0.23781
3286.11060,0.23451
3288.03906,0.23593
3289.96753,0.23454
3291.89600,0.22918
3293.82447,0.22852
3295.75294,0.23227
3297.68141,0.23486
3299.60988,0.23505
3301.53834,0.23406
3303.46681,0.23304
3305.39528,0.23358
3307.32375,0.23677
3309.25222,0.23806
3311.18069,0.23587
3313.10916,0.23412
3315.03763,0.23111
3316.96609,0.22600
3318.89456,0.22275
3320.82303,0.22306
3322.75150,0.22777
3324.67997,0.23674
3326.60844,0.24549
3328.53691,0.24792
3330.46537,0.24391
3332.39384,0.24005
3334.32231,0.23889
3336.25078,0.23853
3338.17925,0.23885
3340.10772,0.23893
3342.03619,0.23644
3343.96466,0.23301
3345.89312,0.23517
3347.82159,0.24329
3349.75006,0.24752
3351.67853,0.24579
3353.60700,0.24651
3355.53547,0.24612
3357.46394,0.23993
3359.39240,0.23796
3361.32087,0.24321
3363.24934,0.24809
3365.17781,0.24902
3367.10628,0.24746
3369.03475,0.24497
3370.96322,0.24376
3372.89168,0.24525
3374.82015,0.24404
3376.74862,0.23720
3378.67709,0.23081
3380.60556,0.23109
3382.53403,0.23720
3384.46250,0.24315
3386.39097,0.24417
3388.31943,0.23789
3390.24790,0.22987
3392.17637,0.23017
3394.10484,0.23518
3396.03331,0.23708
3397.96178,0.23851
3399.89025,0.24036
3401.81871,0.24194
3403.74718,0.24319
3405.67565,0.24019
3407.60412,0.23542
3409.53259,0.23580
3411.46106,0.23868
3413.38953,0.23834
3415.31800,0.23675
3417.24646,0.23846
3419.17493,0.24070
3421.10340,0.23859
3423.03187,0.23614
3424.96034,0.23296
3426.88881,0.22586
3428.81728,0.22113
3430.74574,0.22096
3432.67421,0.22339
3434.60268,0.22907
3436.53115,0.23452
3438.45962,0.23574
3440.38809,0.23441
3442.31656,0.23423
3444.24503,0.23490
3446.17349,0.23536
3448.10196,0.23454
3450.03043,0.22821
3451.95890,0.21941
3453.88737,0.21648
3455.81584,0.21950
3457.74431,0.22298
3459.67277,0.22306
3461.60124,0.22061
3463.52971,0.21905
3465.45818,0.21736
3467.38665,0.21660
3469.31512,0.22067
3471.24359,0.22316
3473.17206,0.21923
3475.10052,0.21705
3477.02899,0.21818
3478.95746,0.21794
3480.88593,0.21659
3482.81440,0.21590
3484.74287,0.21684
3486.67134,0.21431
3488.59980,0.20979
3490.52827,0.21206
3492.45674,0.21472
3494.38521,0.21109
3496.31368,0.20708
3498.24215,0.20425
3500.17062,0.20184
3502.09909,0.20445
3504.02755,0.21221
3505.95602,0.21898
3507.88449,0.22055
3509.81296,0.21728
3511.74143,0.21006
3513.66990,0.20108
3515.59837,0.19688
3517.52683,0.19539
3519.45530,0.19160
3521.38377,0.19273
3523.31224,0.20158
3525.24071,0.20696
3527.16918,0.20463
3529.09765,0.20025
3531.02611,0.19589
3532.95458,0.19379
3534.88305,0.19545
3536.81152,0.19478
3538.73999,0.19081
3540.66846,0.19183
3542.59693,0.19883
3544.52540,0.20462
3546.45386,0.20301
3548.38233,0.19800
3550.31080,0.19707
3552.23927,0.19537
3554.16774,0.18642
3556.09621,0.17875
3558.02468,0.17898
3559.95314,0.18116
3561.88161,0.18325
3563.81008,0.18925
3565.73855,0.19558
3567.66702,0.19360
3569.59549,0.18704
3571.52396,0.18285
3573.45243,0.17822
3575.38089,0.17284
3577.30936,0.17060
3579.23783,0.17260
3581.16630,0.17450
3583.09477,0.17316
3585.02324,0.17465
3586.95171,0.18189
3588.88017,0.18186
3590.80864,0.17405
3592.73711,0.17089
3594.66558,0.17231
3596.59405,0.17194
3598.52252,0.17158
3600.45099,0.17286
3602.37946,0.17127
3604.30792,0.16799
3606.23639,0.16978
3608.16486,0.17462
3610.09333,0.17409
3612.02180,0.17316
3613.95027,0.17733
3615.87874,0.18155
3617.80720,0.18282
3619.73567,0.17934
3621.66414,0.16967
3623.59261,0.16245
3625.52108,0.16351
3627.44955,0.17016
3629.37802,0.17608
3631.30649,0.17945
3633.23495,0.17930
3635.16342,0.17440
3637.09189,0.17139
3639.02036,0.17018
3640.94883,0.16670
3642.87730,0.16500
3644.80577,0.16789
3646.73423,0.17637
3648.66270,0.18951
3650.59117,0.18850
3652.51964,0.17653
3654.44811,0.16911
3656.37658,0.16324
3658.30505,0.15688
3660.23352,0.15323
3662.16198,0.15126
3664.09045,0.15077
3666.01892,0.15478
3667.94739,0.16508
3669.87586,0.17258
3671.80433,0.16868
3673.73280,0.16985
3675.66126,0.17423
3677.58973,0.16206
3679.51820,0.14983
3681.44667,0.14739
3683.37514,0.14735
3685.30361,0.14890
3687.23208,0.15816
3689.16055,0.17011
3691.08901,0.16552
3693.01748,0.15102
3694.94595,0.14064
3696.87442,0.13644
3698.80289,0.13942
3700.73136,0.14725
3702.65983,0.15048
3704.58829,0.14984
3706.51676,0.15405
3708.44523,0.16002
3710.37370,0.16281
3712.30217,0.16190
3714.23064,0.15754
3716.15911,0.15108
3718.08757,0.14442
3720.01604,0.14590
3721.94451,0.15433
3723.87298,0.15502
3725.80145,0.15039
3727.72992,0.14805
3729.65839,0.14602
3731.58686,0.14960
3733.51532,0.16446
3735.44379,0.17323
3737.37226,0.16198
3739.30073,0.15025
3741.22920,0.14890
3743.15767,0.15626
3745.08614,0.16436
3747.01460,0.16302
3748.94307,0.15678
3750.87154,0.15525
3752.80001,0.15918
3754.72848,0.15891
3756.65695,0.15481
3758.58542,0.14789
3760.51389,0.14107
3762.44235,0.13950
3764.37082,0.14405
3766.29929,0.15079
3768.22776,0.15377
3770.15623,0.15186
3772.08470,0.14643
3774.01317,0.14184
3775.94163,0.14189
3777.87010,0.14560
3779.79857,0.14892
3781.72704,0.15008
3783.65551,0.15068
3785.58398,0.14868
3787.51245,0.14273
3789.44092,0.13846
3791.36938,0.13739
3793.29785,0.13652
3795.22632,0.13582
3797.15479,0.13610
3799.08326,0.13857
3801.01173,0.14487
3802.94020,0.14819
3804.86866,0.14574
3806.79713,0.14404
3808.72560,0.14264
3810.65407,0.14134
3812.58254,0.14410
3814.51101,0.14953
3816.43948,0.15008
3818.36795,0.14545
3820.29641,0.14085
3822.22488,0.13842
3824.15335,0.14007
3826.08182,0.14315
3828.01029,0.14435
3829.93876,0.14203
3831.86723,0.14070
3833.79569,0.14616
3835.72416,0.15575
3837.65263,0.16219
3839.58110,0.15936
3841.50957,0.15321
3843.43804,0.15162
3845.36651,0.15100
3847.29498,0.14833
3849.22344,0.15021
3851.15191,0.16136
3853.08038,0.16755
3855.00885,0.15091
3856.93732,0.14105
3858.86579,0.14125
3860.79426,0.14440
3862.72272,0.14553
3864.65119,0.14213
3866.57966,0.14347
3868.50813,0.15277
3870.43660,0.15487
3872.36507,0.14422
3874.29354,0.13785
3876.22200,0.13833
3878.15047,0.14001
3880.07894,0.14158
3882.00741,0.14381
3883.93588,0.14570
3885.86435,0.14217
3887.79282,0.13711
3889.72129,0.13529
3891.64975,0.13295
3893.57822,0.13112
3895.50669,0.13084
3897.43516,0.13000
3899.36363,0.12737
3901.29210,0.12507
3903.22057,0.12898
3905.14903,0.13730
3907.07750,0.14279
3909.00597,0.14295
3910.93444,0.13865
3912.86291,0.13508
3914.79138,0.13378
3916.71985,0.13019
3918.64832,0.12720
3920.57678,0.12894
3922.50525,0.13021
3924.43372,0.12739
3926.36219,0.12467
3928.29066,0.12514
3930.21913,0.12644
3932.14760,0.12766
3934.07606,0.12683
3936.00453,0.12347
3937.93300,0.12206
3939.86147,0.12391
3941.78994,0.12534
3943.71841,0.12507
3945.64688,0.12767
3947.57535,0.13271
3949.50381,0.13209
3951.43228,0.12604
3953.36075,0.12496
3955.28922,0.12857
3957.21769,0.12865
3959.14616,0.12345
3961.07463,0.11853
3963.00309,0.11842
3964.93156,0.11735
3966.86003,0.11205
3968.78850,0.11144
3970.71697,0.11826
3972.64544,0.12323
3974.57391,0.12051
3976.50238,0.11528
3978.43084,0.11452
3980.35931,0.11687
3982.28778,0.11851
3984.21625,0.12027
3986.14472,0.12180
3988.07319,0.12332
3990.00166,0.12475
3991.93012,0.12105
3993.85859,0.11578
3995.78706,0.11494
3997.71553,0.11533
3999.64400,0.11593
4001.57247,0.11903
4003.50094,0.12249
4005.42941,0.12159
4007.35787,0.11865
4009.28634,0.11668
4011.21481,0.11499
4013.14328,0.11893
4015.07175,0.12627
4017.00022,0.12707
4018.92869,0.12400
4020.85715,0.12268
4022.78562,0.12249
4024.71409,0.12227
4026.64256,0.12030
4028.57103,0.11580
4030.49950,0.11113
4032.42797,0.11014
4034.35644,0.11214
4036.28490,0.11392
4038.21337,0.11527
4040.14184,0.11467
4042.07031,0.11267
4043.99878,0.11076
4045.92725,0.10688
4047.85572,0.10313
4049.78418,0.10252
4051.71265,0.10387
4053.64112,0.10657
4055.56959,0.10969
4057.49806,0.11078
4059.42653,0.10930
4061.35500,0.10947
4063.28346,0.11435
4065.21193,0.11855
4067.14040,0.11682
4069.06887,0.11013
4070.99734,0.10012
4072.92581,0.09116
4074.85428,0.08995
4076.78275,0.09672
4078.71121,0.10633
4080.63968,0.11370
4082.56815,0.11509
4084.49662,0.11192
4086.42509,0.10994
4088.35356,0.11098
4090.28203,0.11130
4092.21049,0.11035
4094.13896,0.11077
4096.06743,0.11052
4097.99590,0.10843
4099.92437,0.10626
4101.85284,0.10470
4103.78131,0.10476
4105.70978,0.10386
4107.63824,0.10053
4109.56671,0.09860
4111.49518,0.09992
4113.42365,0.10342
4115.35212,0.10551
4117.28059,0.10349
4119.20906,0.10023
4121.13752,0.09840
4123.06599,0.09623
4124.99446,0.09589
4126.92293,0.10060
4128.85140,0.10214
4130.77987,0.09781
4132.70834,0.09606
4134.63681,0.09713
4136.56527,0.09812
4138.49374,0.09836
4140.42221,0.09848
4142.35068,0.10107
4144.27915,0.10354
4146.20762,0.10032
4148.13609,0.09254
4150.06455,0.08772
4151.99302,0.08863
4153.92149,0.09305
4155.84996,0.09555
4157.77843,0.09356
4159.70690,0.09476
4161.63537,0.09666
4163.56384,0.09034
4165.49230,0.08429
4167.42077,0.08628
4169.34924,0.08719
4171.27771,0.08291
4173.20618,0.08316
4175.13465,0.09022
4177.06312,0.09404
4178.99158,0.08935
4180.92005,0.08229
4182.84852,0.07728
4184.77699,0.07522
4186.70546,0.07952
4188.63393,0.08536
4190.56240,0.08578
4192.49087,0.08703
4194.41933,0.09142
4196.34780,0.08984
4198.27627,0.08464
4200.20474,0.08315
4202.13321,0.07891
4204.06168,0.07202
4205.99015,0.07249
4207.91861,0.07796
4209.84708,0.07983
4211.77555,0.07846
4213.70402,0.07882
4215.63249,0.07991
4217.56096,0.07891
4219.48943,0.07926
4221.41789,0.08441
4223.34636,0.09163
4225.27483,0.09286
4227.20330,0.08583
4229.13177,0.07947
4231.06024,0.07811
4232.98871,0.07581
4234.91718,0.07021
4236.84564,0.06765
4238.77411,0.07129
4240.70258,0.07594
4242.63105,0.07639
4244.55952,0.07285
4246.48799,0.06758
4248.41646,0.06457
4250.34492,0.07124
4252.27339,0.08591
4254.20186,0.09294
4256.13033,0.08252
4258.05880,0.06880
4259.98727,0.06797
4261.91574,0.07354
4263.84421,0.07486
4265.77267,0.07064
4267.70114,0.06329
4269.62961,0.05858
4271.55808,0.06200
4273.48655,0.06883
4275.41502,0.07073
4277.34349,0.06933
4279.27195,0.06816
4281.20042,0.06934
4283.12889,0.07371
4285.05736,0.08009
4286.98583,0.08529
4288.91430,0.08176
4290.84277,0.07231
4292.77124,0.06621
4294.69970,0.05999
4296.62817,0.05176
4298.55664,0.04970
4300.48511,0.05459
4302.41358,0.06152
4304.34205,0.07019
4306.27052,0.07780
4308.19898,0.07703
4310.12745,0.07015
4312.05592,0.06549
4313.98439,0.06292
4315.91286,0.06182
4317.84133,0.06479
4319.76980,0.06998
4321.69827,0.06999
4323.62673,0.06167
4325.55520,0.05378
4327.48367,0.05137
4329.41214,0.05267
4331.34061,0.05923
4333.26908,0.06601
4335.19755,0.06483
4337.12601,0.06057
4339.05448,0.06094
4340.98295,0.06333
4342.91142,0.06439
4344.83989,0.06585
4346.76836,0.06510
4348.69683,0.05864
4350.62530,0.05098
4352.55376,0.04499
4354.48223,0.04161
4356.41070,0.04539
4358.33917,0.05135
4360.26764,0.04708
4362.19611,0.03897
4364.12458,0.04084
4366.05304,0.04577
4367.98151,0.04763
4369.90998,0.04996
4371.83845,0.05292
4373.76692,0.05570
4375.69539,0.05541
4377.62386,0.05124
4379.55232,0.04563
4381.48079,0.04326
4383.40926,0.04330
4385.33773,0.03849
4387.26620,0.03385
4389.19467,0.03628
4391.12314,0.04221
4393.05161,0.04982
4394.98007,0.05498
4396.90854,0.04889
4398.83701,0.03775
4400.76548,0.03704
4402.69395,0.04219
4404.62242,0.03822
4406.55089,0.02743
4408.47935,0.01927
4410.40782,0.01753
4412.33629,0.02214
4414.26476,0.02681
4416.19323,0.02904
4418.12170,0.03381
4420.05017,0.03704
4421.97864,0.03298
4423.90710,0.03054
4425.83557,0.03297
4427.76404,0.03112
4429.69251,0.02462
4431.62098,0.01732
4433.54945,0.01569
4435.47792,0.03076
4437.40638,0.05041
4439.33485,0.04993
4441.26332,0.03468
4443.19179,0.02378
4445.12026,0.02174
4447.04873,0.02635
4448.97720,0.03144
4450.90567,0.03262
4452.83413,0.03096
4454.76260,0.03032
4456.69107,0.03437
4458.61954,0.03602
4460.54801,0.03224
4462.47648,0.03193
4464.40495,0.03479
4466.33341,0.03891
4468.26188,0.04629
4470.19035,0.04842
4472.11882,0.03854
4474.04729,0.02556
4475.97576,0.02023
4477.90423,0.02474
4479.83270,0.03515
4481.76116,0.04256
4483.68963,0.04043
4485.61810,0.03327
4487.54657,0.02687
4489.47504,0.02128
4491.40351,0.01837
4493.33198,0.02298
4495.26044,0.03546
4497.18891,0.04309
4499.11738,0.03331
4501.04585,0.01820
4502.97432,0.01568
4504.90279,0.02326
4506.83126,0.03022
4508.75973,0.02964
4510.68819,0.01873
4512.61666,0.00796
4514.54513,0.01222
4516.47360,0.02478
4518.40207,0.03144
4520.33054,0.03522
4522.25901,0.04004
4524.18747,0.03719
4526.11594,0.02507
4528.04441,0.01303
4529.97288,0.00742
4531.90135,0.01213
4533.82982,0.02536
4535.75829,0.03893
4537.68676,0.04517
4539.61522,0.04252
4541.54369,0.03708
4543.47216,0.03375
4545.40063,0.02988
4547.32910,0.02039
4549.25757,0.01193
4551.18604,0.01539
4553.11450,0.02562
4555.04297,0.02592
4556.97144,0.01195
4558.89991,0.00216
4560.82838,0.00608
4562.75685,0.01260
4564.68532,0.01507
4566.61378,0.01632
4568.54225,0.02024
4570.47072,0.02492
4572.39919,0.02516
4574.32766,0.01944
4576.25613,0.01172
4578.18460,0.00757
4580.11307,0.00768
4582.04153,0.01020
4583.97000,0.01415
4585.89847,0.01875
4587.82694,0.02375
4589.75541,0.02875
4591.68388,0.02985
4593.61235,0.02493
4595.54081,0.01761
4597.46928,0.01282
4599.39775,0.01704
4601.32622,0.02403
4603.25469,0.02120
4605.18316,0.01323
4607.11163,0.00625
4609.04010,0.00275
4610.96856,0.00722
4612.89703,0.01178
4614.82550,0.01179
4616.75397,0.01641
4618.68244,0.02059
4620.61091,0.01428
4622.53938,0.00711
4624.46784,0.00292
4626.39631,0.00034
4628.32478,0.00841
4630.25325,0.01970
4632.18172,0.01779
4634.11019,0.01064
4636.03866,0.01249
4637.96713,0.02109
4639.89559,0.02939
4641.82406,0.03004
4643.75253,0.01993
4645.68100,0.00541
4647.60947,-0.00206
4649.53794,0.00050
4651.46641,0.00276
4653.39487,0.00267
4655.32334,0.00634
4657.25181,0.01522
4659.18028,0.02237
4661.10875,0.01619
4663.03722,0.00678
4664.96569,0.01096
4666.89416,0.01405
4668.82262,-0.00032
4670.75109,-0.01764
4672.67956,-0.01683
4674.60803,0.00128
4676.53650,0.01607
4678.46497,0.02097
4680.39344,0.02647
4682.32190,0.02779
4684.25037,0.02118
4686.17884,0.01676
4688.10731,0.01390
4690.03578,0.01068
4691.96425,0.01237
4693.89272,0.01239
4695.82119,0.00741
4697.74965,0.00578
4699.67812,0.00698
4701.60659,0.00593
4703.53506,0.00427
4705.46353,0.00319
4707.39200,0.00090
4709.32047,0.00067
4711.24893,0.00407
4713.17740,0.00732
4715.10587,0.00887
4717.03434,0.01448
4718.96281,0.02645
4720.89128,0.02802
4722.81975,0.01455
4724.74821,0.00648
4726.67668,0.00987
4728.60515,0.01212
4730.53362,0.01153
4732.46209,0.01480
4734.39056,0.01935
4736.31903,0.02115
4738.24750,0.01746
4740.17596,0.00843
4742.10443,0.00160
4744.03290,0.00103
4745.96137,0.00562
4747.88984,0.01210
4749.81831,0.01372
4751.74678,0.01310
4753.67524,0.01989
4755.60371,0.02723
4757.53218,0.02429
4759.46065,0.01817
4761.38912,0.02116
4763.31759,0.03042
4765.24606,0.03336
4767.17453,0.02680
4769.10299,0.01635
4771.03146,0.00746
4772.95993,0.00486
4774.88840,0.00985
4776.81687,0.01636
4778.74534,0.01655
4780.67381,0.00748
4782.60227,0.00191
4784.53074,0.01229
4786.45921,0.02470
4788.38768,0.02607
4790.31615,0.01719
4792.24462,0.00318
4794.17309,-0.00362
4796.10156,-0.00012
4798.03002,0.00192
4799.95849,-0.00317
4801.88696,-0.01010
4803.81543,-0.01018
4805.74390,0.00114
4807.67237,0.01405
4809.60084,0.01824
4811.52930,0.01703
4813.45777,0.01009
4815.38624,-0.00189
4817.31471,-0.00672
4819.24318,-0.00225
4821.17165,0.00195
4823.10012,0.00003
4825.02859,-0.00137
4826.95705,0.00582
4828.88552,0.01332
4830.81399,0.01589
4832.74246,0.01228
4834.67093,0.00383
4836.59940,0.00681
4838.52787,0.01638
4840.45633,0.01421
4842.38480,0.00893
4844.31327,0.01057
4846.24174,0.01230
4848.17021,0.01434
4850.09868,0.02432
4852.02715,0.03308
4853.95562,0.03001
4855.88408,0.02413
4857.81255,0.01877
4859.74102,0.00876
4861.66949,-0.00045
4863.59796,-0.00535
4865.52643,-0.00457
4867.45490,0.00517
4869.38336,0.01532
4871.31183,0.01759
4873.24030,0.01777
4875.16877,0.01990
4877.09724,0.01828
4879.02571,0.01743
4880.95418,0.02086
4882.88265,0.01806
4884.81111,0.01237
4886.73958,0.01027
4888.66805,0.00436
4890.59652,-0.00418
4892.52499,-0.00595
4894.45346,-0.00215
4896.38193,0.00278
4898.31039,0.00589
4900.23886,0.00744
4902.16733,0.01046
4904.09580,0.01155
4906.02427,0.01568
4907.95274,0.02248
4909.88121,0.01943
4911.80967,0.01504
4913.73814,0.01765
4915.66661,0.01674
4917.59508,0.01274
4919.52355,0.01411
4921.45202,0.01456
4923.38049,0.00626
4925.30896,-0.01382
4927.23742,-0.04101
4929.16589,-0.05184
4931.09436,-0.03697
4933.02283,-0.01583
4934.95130,-0.00605
4936.87977,-0.00306
4938.80824,0.00201
4940.73670,0.00257
4942.66517,-0.00255
4944.59364,-0.00350
4946.52211,0.00119
4948.45058,0.00959
4950.37905,0.02250
4952.30752,0.03032
4954.23599,0.02644
4956.16445,0.02108
4958.09292,0.01494
4960.02139,0.00631
4961.94986,0.00079
4963.87833,-0.00831
4965.80680,-0.01954
4967.73527,-0.01716
4969.66373,-0.00530
4971.59220,0.00085
4973.52067,-0.00209
4975.44914,-0.00647
4977.37761,-0.00374
4979.30608,-0.00031
4981.23455,-0.00399
4983.16302,-0.00540
4985.09148,-0.00307
4987.01995,-0.00895
4988.94842,-0.01665
4990.87689,-0.00854
4992.80536,0.00745
4994.73383,0.01156
4996.66230,0.00395
4998.59076,0.00180
5000.51923,0.01095
5002.44770,0.01889
5004.37617,0.01723
5006.30464,0.01192
5008.23311,0.01323
5010.16158,0.01782
5012.09005,0.01901
5014.01851,0.01884
5015.94698,0.01580
5017.87545,0.01259
5019.80392,0.01569
5021.73239,0.02207
5023.66086,0.02732
5025.58933,0.02714
5027.51779,0.01483
5029.44626,0.00023
5031.37473,-0.00655
5033.30320,-0.01336
5035.23167,-0.02021
5037.16014,-0.01707
5039.08861,-0.00025
5041.01708,0.01988
5042.94554,0.03041
5044.87401,0.03094
5046.80248,0.02297
5048.73095,0.00923
5050.65942,0.00342
5052.58789,0.01052
5054.51636,0.01752
5056.44482,0.01932
5058.37329,0.02153
5060.30176,0.03029
5062.23023,0.03498
5064.15870,0.02192
5066.08717,0.00502
5068.01564,-0.00196
5069.94410,0.00485
5071.87257,0.02152
5073.80104,0.03070
5075.72951,0.02948
5077.65798,0.02729
5079.58645,0.02465
5081.51492,0.01893
5083.44339,0.01227
5085.37185,0.00986
5087.30032,0.02033
5089.22879,0.04189
5091.15726,0.04939
5093.08573,0.03099
5095.01420,0.00808
5096.94267,0.00017
5098.87113,0.01192
5100.79960,0.03916
5102.72807,0.06461
5104.65654,0.06747
5106.58501,0.05527
5108.51348,0.05088
5110.44195,0.04513
5112.37042,0.03339
5114.29888,0.03270
5116.22735,0.02861
5118.15582,0.00950
5120.08429,0.00059
5122.01276,0.01453
5123.94123,0.03087
5125.86970,0.02991
5127.79816,0.02075
5129.72663,0.02018
5131.65510,0.02951
5133.58357,0.04015
5135.51204,0.03953
5137.44051,0.03751
5139.36898,0.04769
5141.29745,0.05815
5143.22591,0.06055
5145.15438,0.05072
5147.08285,0.03162
5149.01132,0.02436
5150.93979,0.03605
5152.86826,0.04773
5154.79673,0.04627
5156.72519,0.03896
5158.65366,0.03773
5160.58213,0.05307
5162.51060,0.08215
5164.43907,0.09472
5166.36754,0.07304
5168.29601,0.04874
5170.22448,0.04715
5172.15294,0.05100
5174.08141,0.05367
5176.00988,0.05793
5177.93835,0.05726
5179.86682,0.06130
5181.79529,0.06618
5183.72376,0.05336
5185.65222,0.03419
5187.58069,0.02770
5189.50916,0.02678
5191.43763,0.02373
5193.36610,0.02432
5195.29457,0.02285
5197.22304,0.01447
5199.15151,0.02651
5201.07997,0.06445
5203.00844,0.09506
5204.93691,0.09990
5206.86538,0.08185
5208.79385,0.06278
5210.72232,0.06091
5212.65079,0.07301
5214.57925,0.08248
5216.50772,0.07691
5218.43619,0.06344
5220.36466,0.05107
5222.29313,0.04516
5224.22160,0.05035
5226.15007,0.06212
5228.07854,0.06851
5230.00700,0.05722
5231.93547,0.03439
5233.86394,0.02794
5235.79241,0.03456
5237.72088,0.03212
5239.64935,0.03292
5241.57782,0.04689
5243.50628,0.06449
5245.43475,0.07975
5247.36322,0.07975
5249.29169,0.06620
5251.22016,0.06964
5253.14863,0.07789
5255.07710,0.05538
5257.00556,0.02946
5258.93403,0.02799
5260.86250,0.02432
5262.79097,0.00914
5264.71944,0.01739
5266.64791,0.05019
5268.57638,0.06183
5270.50485,0.04886
5272.43331,0.03991
5274.36178,0.03273
5276.29025,0.02463
5278.21872,0.02697
5280.14719,0.03396
5282.07566,0.04495
5284.00413,0.06446
5285.93259,0.07430
5287.86106,0.06755
5289.78953,0.05853
5291.71800,0.05587
5293.64647,0.05523
5295.57494,0.05581
5297.50341,0.06344
5299.43188,0.07185
5301.36034,0.07504
5303.28881,0.07573
5305.21728,0.07980
5307.14575,0.08525
5309.07422,0.07868
5311.00269,0.06459
5312.93116,0.05237
5314.85962,0.04093
5316.78809,0.03574
5318.71656,0.04202
5320.64503,0.05625
5322.57350,0.06503
5324.50197,0.05629
5326.43044,0.04112
5328.35891,0.03799
5330.28737,0.05223
5332.21584,0.07193
5334.14431,0.07724
5336.07278,0.07734
5338.00125,0.08213
5339.92972,0.07890
5341.85819,0.07337
5343.78665,0.07350
5345.71512,0.07371
5347.64359,0.07409
5349.57206,0.08238
5351.50053,0.09355
5353.42900,0.09115
5355.35747,0.06953
5357.28594,0.05225
5359.21440,0.05961
5361.14287,0.07820
5363.07134,0.09404
5364.99981,0.10180
5366.92828,0.08712
5368.85675,0.06348
5370.78522,0.06002
5372.71368,0.06685
5374.64215,0.05340
5376.57062,0.02857
5378.49909,0.01847
5380.42756,0.02760
5382.35603,0.05430
5384.28450,0.07993
5386.21297,0.08508
5388.14143,0.07832
5390.06990,0.07504
5391.99837,0.07497
5393.92684,0.06984
5395.85531,0.06490
5397.78378,0.06701
5399.71225,0.06979
5401.64071,0.07739
5403.56918,0.09376
5405.49765,0.09857
5407.42612,0.08774
5409.35459,0.09101
5411.28306,0.10889
5413.21153,0.10778
5415.13999,0.09545
5417.06846,0.09206
5418.99693,0.08620
5420.92540,0.07182
5422.85387,0.05957
5424.78234,0.06399
5426.71081,0.07701
5428.63928,0.08464
5430.56774,0.09527
5432.49621,0.09670
5434.42468,0.07583
5436.35315,0.06054
5438.28162,0.07301
5440.21009,0.10153
5442.13856,0.11696
5444.06702,0.11046
5445.99549,0.09329
5447.92396,0.07207
5449.85243,0.06330
5451.78090,0.06356
5453.70937,0.06105
5455.63784,0.06788
5457.56631,0.08477
5459.49477,0.09144
5461.42324,0.08599
5463.35171,0.08460
5465.28018,0.08770
5467.20865,0.09200
5469.13712,0.10025
5471.06559,0.10658
5472.99405,0.12300
5474.92252,0.14634
5476.85099,0.12539
5478.77946,0.07096
5480.70793,0.05111
5482.63640,0.06896
5484.56487,0.08443
5486.49334,0.10520
5488.42180,0.13582
5490.35027,0.13346
5492.27874,0.09669
5494.20721,0.07508
5496.13568,0.07212
5498.06415,0.07072
5499.99262,0.07887
5501.92108,0.09596
5503.84955,0.11595
5505.77802,0.12997
5507.70649,0.12551
5509.63496,0.11758
5511.56343,0.11577
5513.49190,0.11072
5515.42037,0.10717
5517.34883,0.10630
5519.27730,0.10512
5521.20577,0.10515
5523.13424,0.10856
5525.06271,0.11444
5526.99118,0.10600
5528.91965,0.08061
5530.84811,0.05945
5532.77658,0.06264
5534.70505,0.08472
5536.63352,0.10100
5538.56199,0.11400
5540.49046,0.13177
5542.41893,0.12997
5544.34740,0.08750
5546.27586,0.03384
5548.20433,0.02298
5550.13280,0.04605
5552.06127,0.06235
5553.98974,0.08191
5555.91821,0.11507
5557.84668,0.12085
5559.77514,0.09105
5561.70361,0.07218
5563.63208,0.09021
5565.56055,0.12041
5567.48902,0.11557
5569.41749,0.07643
5571.34596,0.04830
5573.27443,0.06084
5575.20289,0.10071
5577.13136,0.11855
5579.05983,0.09963
5580.98830,0.07903
5582.91677,0.07146
5584.84524,0.06638
5586.77371,0.06835
5588.70217,0.07286
5590.63064,0.07922
5592.55911,0.10280
5594.48758,0.13027
5596.41605,0.12363
5598.34452,0.08846
5600.27299,0.07709
5602.20145,0.09732
5604.12992,0.10480
5606.05839,0.08406
5607.98686,0.06466
5609.91533,0.06014
5611.84380,0.05771
5613.77227,0.06556
5615.70074,0.08902
5617.62920,0.10254
5619.55767,0.09011
5621.48614,0.06863
5623.41461,0.05097
5625.34308,0.03672
5627.27155,0.03692
5629.20002,0.05756
5631.12848,0.09515
5633.05695,0.13427
5634.98542,0.14836
5636.91389,0.14491
5638.84236,0.14699
5640.77083,0.15111
5642.69930,0.14472
5644.62777,0.11668
5646.55623,0.07041
5648.48470,0.03067
5650.41317,0.02359
5652.34164,0.05867
5654.27011,0.11336
5656.19858,0.14373
5658.12705,0.13584
5660.05551,0.12089
5661.98398,0.12139
5663.91245,0.12442
5665.84092,0.10843
5667.76939,0.08117
5669.69786,0.07733
5671.62633,0.10150
5673.55480,0.11416
5675.48326,0.09280
5677.41173,0.06045
5679.34020,0.04977
5681.26867,0.07052
5683.19714,0.08896
5685.12561,0.07650
5687.05408,0.07310
5688.98254,0.09675
5690.91101,0.10361
5692.83948,0.09291
5694.76795,0.10146
5696.69642,0.12108
5698.62489,0.10608
5700.55336,0.06763
5702.48183,0.06130
5704.41029,0.07876
5706.33876,0.07901
5708.26723,0.05964
5710.19570,0.04485
5712.12417,0.05358
5714.05264,0.07149
5715.98111,0.07298
5717.90957,0.07136
5719.83804,0.09044
5721.76651,0.11152
5723.69498,0.10536
5725.62345,0.08299
5727.55192,0.07001
5729.48039,0.06703
5731.40886,0.07007
5733.33732,0.08231
5735.26579,0.08656
5737.19426,0.07609
5739.12273,0.08123
5741.05120,0.10924
5742.97967,0.13156
5744.90814,0.13782
5746.83660,0.13668
5748.76507,0.12961
5750.69354,0.12214
5752.62201,0.11422
5754.55048,0.09029
5756.47895,0.06658
5758.40742,0.07851
5760.33588,0.10999
5762.26435,0.12628
5764.19282,0.13781
5766.12129,0.14472
5768.04976,0.12655
5769.97823,0.09640
5771.90670,0.08416
5773.83517,0.09574
5775.76363,0.10354
5777.69210,0.09197
5779.62057,0.07740
5781.54904,0.07424
5783.47751,0.09031
5785.40598,0.12479
5787.33445,0.16577
5789.26291,0.20907
5791.19138,0.21868
5793.11985,0.17257
5795.04832,0.12333
5796.97679,0.10467
5798.90526,0.10277
5800.83373,0.10728
5802.76220,0.11527
5804.69066,0.10482
5806.61913,0.06749
5808.54760,0.05293
5810.47607,0.07247
5812.40454,0.07810
5814.33301,0.07790
5816.26148,0.09793
5818.18994,0.10251
5820.11841,0.09177
5822.04688,0.10985
5823.97535,0.13804
5825.90382,0.14223
5827.83229,0.11737
5829.76076,0.05923
5831.68923,0.00094
5833.61769,-0.00600
5835.54616,0.02542
5837.47463,0.06018
5839.40310,0.09356
5841.33157,0.10187
5843.26004,0.08053
5845.18851,0.08375
5847.11697,0.11001
5849.04544,0.09982
5850.97391,0.07074
5852.90238,0.05742
5854.83085,0.05355
5856.75932,0.05720
5858.68779,0.05306
5860.61626,0.04574
5862.54472,0.05686
5864.47319,0.08460
5866.40166,0.10210
5868.33013,0.09423
5870.25860,0.08233
5872.18707,0.07939
5874.11554,0.08229
5876.04400,0.08551
5877.97247,0.08347
5879.90094,0.08353
5881.82941,0.08061
5883.75788,0.08044
5885.68635,0.11475
5887.61482,0.14044
5889.54329,0.09715
5891.47175,0.04639
5893.40022,0.05324
5895.32869,0.07539
5897.25716,0.06834
5899.18563,0.06714
5901.11410,0.07960
5903.04257,0.05486
5904.97103,0.02605
5906.89950,0.06086
5908.82797,0.11833
5910.75644,0.14411
5912.68491,0.16444
5914.61338,0.18560
5916.54185,0.18443
5918.47032,0.17131
5920.39878,0.18012
5922.32725,0.18696
5924.25572,0.13663
5926.18419,0.08191
5928.11266,0.10281
5930.04113,0.16115
5931.96960,0.17116
5933.89806,0.12760
5935.82653,0.11749
5937.75500,0.14518
5939.68347,0.14068
5941.61194,0.12559
5943.54041,0.13012
5945.46888,0.12827
5947.39734,0.11296
5949.32581,0.08772
5951.25428,0.07498
5953.18275,0.10063
5955.11122,0.12926
5957.03969,0.12894
5958.96816,0.11369
5960.89663,0.09239
5962.82509,0.07727
5964.75356,0.07347
5966.68203,0.07128
5968.61050,0.09416
5970.53897,0.16126
5972.46744,0.21791
5974.39591,0.20934
5976.32437,0.16912
5978.25284,0.13002
5980.18131,0.09676
5982.10978,0.08163
5984.03825,0.06972
5985.96672,0.03895
5987.89519,0.00718
5989.82366,-0.00178
5991.75212,0.00689
5993.68059,0.04491
5995.60906,0.11044
5997.53753,0.13706
5999.46600,0.09082
6001.39447,0.03203
6003.32294,0.03025
6005.25140,0.05745
6007.17987,0.07561
6009.10834,0.09544
6011.03681,0.10478
6012.96528,0.09551
6014.89375,0.08826
6016.82222,0.09347
6018.75069,0.10664
6020.67915,0.14393
6022.60762,0.17676
6024.53609,0.16360
6026.46456,0.14538
6028.39303,0.16571
6030.32150,0.18954
6032.24997,0.17822
6034.17843,0.17875
6036.10690,0.22044
6038.03537,0.23399
6039.96384,0.16480
6041.89231,0.07538
6043.82078,0.05251
6045.74925,0.06088
6047.67772,0.07266
6049.60618,0.12318
6051.53465,0.15038
6053.46312,0.10727
6055.39159,0.06116
6057.32006,0.06281
6059.24853,0.09623
6061.17700,0.11396
6063.10546,0.08810
6065.03393,0.05073
6066.96240,0.03573
6068.89087,0.05569
6070.81934,0.11565
6072.74781,0.19757
6074.67628,0.23987
6076.60475,0.19949
6078.53321,0.13594
6080.46168,0.12687
6082.39015,0.13950
6084.31862,0.11655
6086.24709,0.09696
6088.17556,0.08985
6090.10403,0.05147
6092.03249,0.01643
6093.96096,0.02122
6095.88943,0.04308
6097.81790,0.07467
6099.74637,0.10074
6101.67484,0.09135
6103.60331,0.09545
6105.53177,0.15065
6107.46024,0.19772
6109.38871,0.18474
6111.31718,0.13202
6113.24565,0.08087
6115.17412,0.04149
6117.10259,0.01622
6119.03106,0.02749
6120.95952,0.06797
6122.88799,0.10553
6124.81646,0.12845
6126.74493,0.13955
6128.67340,0.15097
6130.60187,0.13986
6132.53034,0.09481
6134.45880,0.05012
6136.38727,0.01309
6138.31574,0.00264
6140.24421,0.05147
6142.17268,0.11773
6144.10115,0.13456
6146.02962,0.09927
6147.95809,0.05163
6149.88655,0.04361
6151.81502,0.07393
6153.74349,0.11119
6155.67196,0.16223
6157.60043,0.16726
6159.52890,0.09415
6161.45737,0.03847
6163.38583,0.04461
6165.31430,0.06462
6167.24277,0.05796
6169.17124,0.04128
6171.09971,0.05001
6173.02818,0.06822
6174.95665,0.07078
6176.88512,0.08725
6178.81358,0.12760
6180.74205,0.15815
6182.67052,0.19382
6184.59899,0.24071
6186.52746,0.23481
6188.45593,0.16806
6190.38440,0.13947
6192.31286,0.15811
6194.24133,0.14583
6196.16980,0.10219
6198.09827,0.06001
6200.02674,0.02378
6201.95521,0.01685
6203.88368,0.05566
6205.81215,0.11000
6207.74061,0.14232
6209.66908,0.16248
6211.59755,0.18371
6213.52602,0.17388
6215.45449,0.15159
6217.38296,0.16261
6219.31143,0.17423
6221.23989,0.15108
6223.16836,0.11523
6225.09683,0.10065
6227.02530,0.10542
6228.95377,0.10881
6230.88224,0.10425
6232.81071,0.09469
6234.73918,0.08642
6236.66764,0.06855
6238.59611,0.04192
6240.52458,0.04830
6242.45305,0.08865
6244.38152,0.09117
6246.30999,0.05599
6248.23846,0.05773
6250.16692,0.09147
6252.09539,0.09642
6254.02386,0.07595
6255.95233,0.08702
6257.88080,0.12635
6259.80927,0.11744
6261.73774,0.04868
6263.66621,-0.00032
6265.59467,0.03525
6267.52314,0.08808
6269.45161,0.07263
6271.38008,0.04425
6273.30855,0.07332
6275.23702,0.13860
6277.16549,0.15006
6279.09395,0.07100
6281.02242,-0.02135
6282.95089,-0.04165
6284.87936,0.00680
6286.80783,0.08711
6288.73630,0.15628
6290.66477,0.15226
6292.59323,0.08967
6294.52170,0.04204
6296.45017,0.04196
6298.37864,0.05378
6300.30711,0.05524
6302.23558,0.08244
6304.16405,0.09683
6306.09252,0.05354
6308.02098,0.02804
6309.94945,0.08084
6311.87792,0.15130
6313.80639,0.17324
6315.73486,0.16887
6317.66333,0.16374
6319.59180,0.14777
6321.52026,0.10804
6323.44873,0.06500
6325.37720,0.04523
6327.30567,0.06620
6329.23414,0.13256
6331.16261,0.18463
6333.09108,0.17409
6335.01955,0.12176
6336.94801,0.09595
6338.87648,0.08817
6340.80495,0.02001
6342.73342,-0.02323
6344.66189,0.03017
6346.59036,0.07105
6348.51883,0.07178
6350.44729,0.09556
6352.37576,0.13585
6354.30423,0.16094
6356.23270,0.14409
6358.16117,0.10442
6360.08964,0.08455
6362.01811,0.07796
6363.94658,0.08175
6365.87504,0.07690
6367.80351,0.01700
6369.73198,-0.01556
6371.66045,0.04691
6373.58892,0.08045
6375.51739,0.03376
6377.44586,0.00422
6379.37432,0.00801
6381.30279,0.00568
6383.23126,0.00545
6385.15973,0.04533
6387.08820,0.11745
6389.01667,0.17465
6390.94514,0.15365
6392.87361,0.07635
6394.80207,0.06662
6396.73054,0.12409
6398.65901,0.16783
6400.58748,0.18279
6402.51595,0.16373
6404.44442,0.08684
6406.37289,0.01142
6408.30135,0.00688
6410.22982,0.01830
6412.15829,0.01212
6414.08676,0.02319
6416.01523,0.05433
6417.94370,0.06341
6419.87217,0.06436
6421.80064,0.10029
6423.72910,0.11057
6425.65757,0.05829
6427.58604,0.01346
6429.51451,0.00213
6431.44298,-0.01283
6433.37145,-0.02747
6435.29992,-0.03676
6437.22838,-0.02358
6439.15685,0.06007
6441.08532,0.17019
6443.01379,0.20282
6444.94226,0.13758
6446.87073,0.04395
6448.79920,-0.01984
6450.72766,0.02221
6452.65613,0.10842
6454.58460,0.12857
6456.51307,0.11905
6458.44154,0.08040
6460.37001,-0.00093
6462.29848,-0.04347
6464.22695,-0.01090
6466.15541,0.02654
6468.08388,0.03302
6470.01235,0.05704
6471.94082,0.10526
6473.86929,0.14846
6475.79776,0.18127
6477.72623,0.15108
6479.65469,0.07732
6481.58316,0.05975
6483.51163,0.06810
6485.44010,0.03356
6487.36857,-0.02356
6489.29704,-0.04780
6491.22551,-0.03276
6493.15398,-0.03417
6495.08244,-0.04505
6497.01091,-0.04578
6498.93938,-0.05160
6500.86785,-0.04438
6502.79632,-0.00696
6504.72479,0.03392
6506.65326,0.03456
6508.58172,0.01384
6510.51019,0.04300
6512.43866,0.10211
6514.36713,0.11489
6516.29560,0.09405
6518.22407,0.07559
6520.15254,0.05575
6522.08101,0.02580
6524.00947,-0.00605
6525.93794,-0.01903
6527.86641,-0.00003
6529.79488,0.04608
6531.72335,0.07777
6533.65182,0.09153
6535.58029,0.12501
6537.50875,0.17570
6539.43722,0.25200
6541.36569,0.32137
6543.29416,0.33083
6545.22263,0.29014
6547.15110,0.22012
6549.07957,0.17575
6551.00804,0.18370
6552.93650,0.15704
6554.86497,0.09132
6556.79344,0.07006
6558.72191,0.10494
6560.65038,0.10925
6562.57885,0.02166
6564.50732,-0.05657
6566.43578,-0.02929
6568.36425,0.01558
6570.29272,0.00834
6572.22119,-0.00338
6574.14966,0.02127
6576.07813,0.05835
6578.00660,0.06626
6579.93507,0.06810
6581.86353,0.09840
6583.79200,0.10539
6585.72047,0.08267
6587.64894,0.08878
6589.57741,0.13182
6591.50588,0.16134
6593.43435,0.13529
6595.36281,0.10231
6597.29128,0.10385
6599.21975,0.10531
6601.14822,0.05683
6603.07669,-0.02626
6605.00516,-0.06924
6606.93363,-0.07271
6608.86210,-0.04530
6610.79056,0.00995
6612.71903,-0.00019
6614.64750,-0.07445
6616.57597,-0.02643
6618.50444,0.13929
6620.43291,0.20104
6622.36138,0.14287
6624.28984,0.08873
6626.21831,0.04780
6628.14678,-0.01298
6630.07525,-0.04227
6632.00372,0.00375
6633.93219,0.08718
6635.86066,0.11340
6637.78912,0.10196
6639.71759,0.16750
6641.64606,0.24026
6643.57453,0.22214
6645.50300,0.15503
6647.43147,0.11266
6649.35994,0.09085
6651.28841,0.06611
6653.21687,0.04020
6655.14534,0.01050
6657.07381,0.03078
6659.00228,0.08013
6660.93075,0.04278
6662.85922,0.02245
6664.78769,0.09074
6666.71615,0.12178
6668.64462,0.07603
6670.57309,0.02488
6672.50156,0.02670
6674.43003,0.07082
6676.35850,0.07629
6678.28697,0.06904
6680.21544,0.11250
6682.14390,0.14784
6684.07237,0.14068
6686.00084,0.14458
6687.92931,0.15070
6689.85778,0.11300
6691.78625,0.05709
6693.71472,0.05671
6695.64318,0.12957
6697.57165,0.17901
6699.50012,0.16776
6701.42859,0.14854
6703.35706,0.12950
6705.28553,0.12037
6707.21400,0.06908
6709.14247,-0.03990
6711.07093,-0.08387
6712.99940,-0.04010
6714.92787,0.01667
6716.85634,0.02985
6718.78481,-0.00917
6720.71328,-0.04198
6722.64175,-0.05366
6724.57021,-0.04672
6726.49868,0.04365
6728.42715,0.16025
6730.35562,0.16716
6732.28409,0.10046
6734.21256,0.11299
6736.14103,0.17769
6738.06950,0.14660
6739.99796,0.04031
6741.92643,-0.02276
6743.85490,-0.01283
6745.78337,0.02215
6747.71184,0.07325
6749.64031,0.12667
6751.56878,0.10104
6753.49724,-0.00323
6755.42571,-0.01725
6757.35418,0.10243
6759.28265,0.17639
6761.21112,0.12182
6763.13959,0.07047
6765.06806,0.04839
6766.99653,-0.04216
6768.92499,-0.13638
6770.85346,-0.09200
6772.78193,-0.01376
6774.71040,-0.02227
6776.63887,-0.05338
6778.56734,-0.05521
6780.49581,-0.04390
6782.42427,-0.04203
6784.35274,-0.00476
6786.28121,0.10896
6788.20968,0.19382
6790.13815,0.16886
6792.06662,0.11682
6793.99509,0.11517
6795.92355,0.13334
6797.85202,0.16719
6799.78049,0.19771
6801.70896,0.19705
6803.63743,0.17705
6805.56590,0.13163
6807.49437,0.08623
6809.42284,0.05932
6811.35130,0.03529
6813.27977,0.02461
6815.20824,0.02404
6817.13671,0.02765
6819.06518,0.05951
6820.99365,0.10202
6822.92212,0.10384
6824.85058,0.11094
6826.77905,0.12613
6828.70752,0.09708
6830.63599,0.09286
6832.56446,0.13546
6834.49293,0.16275
6836.42140,0.14465
6838.34987,0.14132
6840.27833,0.18887
6842.20680,0.19731
6844.13527,0.15579
6846.06374,0.15932
6847.99221,0.23610
6849.92068,0.23934
6851.84915,0.09043
6853.77761,-0.04721
6855.70608,-0.02835
6857.63455,0.07226
6859.56302,0.10208
6861.49149,0.06307
6863.41996,-0.00361
6865.34843,-0.05695
6867.27690,-0.05224
6869.20536,0.01073
6871.13383,0.08948
6873.06230,0.11102
6874.99077,0.05427
6876.91924,0.01876
6878.84771,0.11138
6880.77618,0.27125
6882.70464,0.30977
6884.63311,0.24328
6886.56158,0.16776
6888.49005,0.14918
6890.41852,0.20944
6892.34699,0.25891
6894.27546,0.21730
6896.20393,0.12947
6898.13239,0.09081
6900.06086,0.12762
6901.98933,0.15529
6903.91780,0.07840
6905.84627,-0.10987
6907.77474,-0.20713
6909.70321,-0.09882
6911.63167,0.06130
6913.56014,0.10546
6915.48861,0.05456
6917.41708,0.08804
6919.34555,0.23435
6921.27402,0.23340
6923.20249,0.09698
6925.13096,0.04168
6927.05942,0.06618
6928.98789,0.09555
6930.91636,0.10881
6932.84483,0.05777
6934.77330,-0.03722
6936.70177,-0.08761
6938.63024,-0.07301
6940.55870,-0.01958
6942.48717,0.02133
6944.41564,0.04147
6946.34411,0.05328
6948.27258,0.04705
6950.20105,0.04695
6952.12952,0.06404
6954.05799,0.05306
6955.98645,0.03252
6957.91492,0.06977
6959.84339,0.11720
6961.77186,0.13142
6963.70033,0.12252
6965.62880,0.06074
6967.55727,-0.03975
6969.48573,-0.04040
6971.41420,0.07029
6973.34267,0.12858
6975.27114,0.12141
6977.19961,0.14648
6979.12808,0.20473
6981.05655,0.22068
6982.98501,0.18760
6984.91348,0.17816
6986.84195,0.12375
6988.77042,0.00229
6990.69889,-0.04454
6992.62736,-0.01831
6994.55583,0.00993
6996.48430,0.03686
6998.41276,0.04009
7000.34123,0.04096
7002.26970,0.10076
7004.19817,0.16192
7006.12664,0.14699
7008.05511,0.05467
7009.98358,-0.00417
7011.91204,0.00917
7013.84051,0.01147
7015.76898,0.00798
7017.69745,0.01340
7019.62592,-0.03870
7021.55439,-0.02039
7023.48286,0.18670
7025.41133,0.36322
7027.33979,0.32930
7029.26826,0.14021
7031.19673,-0.00320
7033.12520,0.03772
7035.05367,0.16896
7036.98214,0.20444
7038.91061,0.12266
7040.83907,0.00143
7042.76754,-0.07070
7044.69601,-0.08173
7046.62448,-0.07048
7048.55295,0.03686
7050.48142,0.20114
7052.40989,0.26773
7054.33836,0.19828
7056.26682,0.10732
7058.19529,0.09650
7060.12376,0.05000
7062.05223,-0.09803
7063.98070,-0.15696
7065.90917,-0.07504
7067.83764,0.00897
7069.76610,0.10175
7071.69457,0.18355
7073.62304,0.09325
7075.55151,-0.07716
7077.47998,-0.13038
7079.40845,-0.06601
7081.33692,0.03153
7083.26539,0.11661
7085.19385,0.18940
7087.12232,0.23977
7089.05079,0.22582
7090.97926,0.15875
7092.90773,0.07399
7094.83620,0.05041
7096.76467,0.13277
7098.69313,0.19452
7100.62160,0.15527
7102.55007,0.10831
7104.47854,0.05590
7106.40701,-0.01805
7108.33548,-0.03546
7110.26395,0.01819
7112.19242,0.09773
7114.12088,0.12761
7116.04935,0.05881
7117.97782,-0.07328
7119.90629,-0.12318
7121.83476,-0.02001
7123.76323,0.10995
7125.69170,0.17196
7127.62016,0.17214
7129.54863,0.10187
7131.47710,-0.02683
7133.40557,-0.09464
7135.33404,-0.00648
7137.26251,0.08323
7139.19098,0.03239
7141.11944,0.01300
7143.04791,0.14298
7144.97638,0.22478
7146.90485,0.14861
7148.83332,0.05127
7150.76179,-0.02562
7152.69026,-0.08855
7154.61873,-0.05235
7156.54719,0.03394
7158.47566,0.02403
7160.40413,0.01572
7162.33260,0.10827
7164.26107,0.17667
7166.18954,0.15831
7168.11801,0.09557
7170.04647,-0.02829
7171.97494,-0.09170
7173.90341,-0.01796
7175.83188,0.02438
7177.76035,-0.01192
7179.68882,-0.04639
7181.61729,-0.04599
7183.54576,0.02635
7185.47422,0.12828
7187.40269,0.19649
7189.33116,0.18701
7191.25963,0.12572
7193.18810,0.11193
7195.11657,0.06176
7197.04504,-0.06864
7198.97350,-0.11564
7200.90197,-0.09694
7202.83044,-0.12255
7204.75891,-0.07818
7206.68738,0.06359
7208.61585,0.14952
7210.54432,0.18153
7212.47279,0.14764
7214.40125,0.09153
7216.32972,0.09732
7218.25819,0.09277
7220.18666,0.03854
7222.11513,0.04220
7224.04360,0.08698
7225.97207,0.03470
7227.90053,-0.07506
7229.82900,-0.04705
7231.75747,0.08626
7233.68594,0.17647
7235.61441,0.27210
7237.54288,0.31319
7239.47135,0.19104
7241.39982,0.04850
7243.32828,-0.00647
7245.25675,-0.11558
7247.18522,-0.12818
7249.11369,0.07340
7251.04216,0.22678
7252.97063,0.11433
7254.89910,-0.06307
7256.82756,-0.08697
7258.75603,-0.02995
7260.68450,-0.03087
7262.61297,0.02203
7264.54144,0.16815
7266.46991,0.20105
7268.39838,0.22226
7270.32685,0.24683
7272.25531,0.10594
7274.18378,-0.10330
7276.11225,-0.18089
7278.04072,-0.02015
7279.96919,0.30433
7281.89766,0.37640
7283.82613,0.26717
7285.75459,0.18025
7287.68306,0.17461
7289.61153,0.32762
7291.54000,0.44161
7293.46847,0.27450
7295.39694,0.04435
7297.32541,0.06128
7299.25387,0.23413
7301.18234,0.26231
7303.11081,0.14181
7305.03928,0.10378
7306.96775,0.17256
7308.89622,0.19502
7310.82469,0.04230
7312.75316,-0.17334
7314.68162,-0.30167
7316.61009,-0.27816
7318.53856,-0.13066
7320.46703,-0.01078
7322.39550,0.02517
7324.32397,0.03167
7326.25244,0.03101
7328.18090,-0.00907
7330.10937,-0.03733
7332.03784,-0.02537
7333.96631,-0.03519
7335.89478,-0.05338
7337.82325,-0.05158
7339.75172,-0.08250
7341.68019,-0.24272
7343.60865,-0.39791
7345.53712,-0.34014
7347.46559,-0.02400
7349.39406,0.21621
7351.32253,0.26354
7353.25100,0.31531
7355.17947,0.30366
7357.10793,0.10061
7359.03640,-0.07460
7360.96487,-0.01765
7362.89334,0.10239
7364.82181,0.21557
7366.75028,0.33684
7368.67875,0.34205
7370.60722,0.20847
7372.53568,0.09549
7374.46415,0.08581
7376.39262,0.16630
7378.32109,0.20510
7380.24956,0.13690
7382.17803,-0.03182
7384.10650,-0.09732
7386.03496,0.08303
7387.96343,0.26998
7389.89190,0.29264
7391.82037,0.24571
7393.74884,0.16030
7395.67731,0.07098
7397.60578,0.08001
7399.53425,0.14452
7401.46271,0.15689
7403.39118,0.08783
7405.31965,-0.02125
7407.24812,-0.07301
7409.17659,-0.08985
7411.10506,-0.11635
7413.03353,-0.07472
7414.96199,0.01619
7416.89046,-0.03273
7418.81893,-0.17600
7420.74740,-0.10654
7422.67587,-0.01380
7424.60434,0.01040
7426.53281,0.05996
7428.46128,0.10883
7430.38974,0.04440
7432.31821,-0.06935
7434.24668,-0.08336
7436.17515,-0.12705
7438.10362,-0.25358
7440.03209,-0.21506
7441.96056,0.01134
7443.88902,0.17677
7445.81749,0.28319
7447.74596,0.38444
7449.67443,0.36848
7451.60290,0.27578
7453.53137,0.16757
7455.45984,0.06886
7457.38831,0.03976
7459.31677,0.03693
7461.24524,0.06376
7463.17371,0.09959
7465.10218,-0.02434
7467.03065,-0.24088
7468.95912,-0.28172
7470.88759,-0.09578
7472.81605,0.05188
7474.74452,-0.03637
7476.67299,-0.12197
7478.60146,-0.10308
7480.52993,-0.09563
7482.45840,0.05731
7484.38687,0.25288
7486.31533,0.24746
7488.24380,0.17943
7490.17227,0.18446
7492.10074,0.23101
7494.02921,0.28637
7495.95768,0.26648
7497.88615,0.13584
