399.19301,0.52885
401.12148,1.09978
403.04995,0.77420
404.97842,-0.09390
406.90689,-0.70148
408.83536,-0.15940
410.76382,1.34531
412.69229,1.82398
414.62076,1.47836
416.54923,1.54051
418.47770,1.54011
420.40617,0.75457
422.33464,0.14620
424.26311,0.15232
426.19157,0.29326
428.12004,0.15875
430.04851,-0.03239
431.97698,0.01948
433.90545,0.20222
435.83392,0.24147
437.76239,0.12552
439.69085,0.02372
441.61932,0.03362
443.54779,0.07991
445.47626,0.02455
447.40473,-0.03587
449.33320,0.06988
451.26167,0.21391
453.19013,0.23259
455.11860,0.21184
457.04707,0.22628
458.97554,0.17181
460.90401,0.07836
462.83248,0.05939
464.76095,0.07852
466.68942,0.06454
468.61788,0.02028
470.54635,-0.04814
472.47482,-0.30928
474.40329,-0.56781
476.33176,-0.23941
478.26023,0.09588
480.18870,0.18929
482.11716,0.14945
484.04563,0.06275
485.97410,0.01902
487.90257,0.03812
489.83104,0.05059
491.75951,0.04394
493.68798,0.05103
495.61645,0.08033
497.54491,0.11427
499.47338,0.14110
501.40185,0.16729
503.33032,0.18275
505.25879,0.18758
507.18726,0.15937
509.11573,0.10682
511.04419,0.11394
512.97266,0.15731
514.90113,0.14233
516.82960,0.08862
518.75807,0.09751
520.68654,0.17203
522.61501,0.23798
524.54348,0.23165
526.47194,0.14570
528.40041,0.04845
530.32888,0.02297
532.25735,0.07861
534.18582,0.13820
536.11429,0.17911
538.04276,0.22137
539.97122,0.22785
541.89969,0.17914
543.82816,0.13226
545.75663,0.13198
547.68510,0.15006
549.61357,0.10436
551.54204,-0.06739
553.47051,-0.20757
555.39897,-0.10714
557.32744,0.09604
559.25591,0.16112
561.18438,0.14171
563.11285,0.14598
565.04132,0.15952
566.96979,0.13494
568.89825,0.09749
570.82672,0.10424
572.75519,0.12996
574.68366,0.13188
576.61213,0.12285
578.54060,0.12951
580.46907,0.14252
582.39754,0.14714
584.32600,0.14212
586.25447,0.13691
588.18294,0.13333
590.11141,0.11260
592.03988,0.08759
593.96835,0.09300
595.89682,0.11761
597.82528,0.13039
599.75375,0.13784
601.68222,0.14861
603.61069,0.13849
605.53916,0.11757
607.46763,0.12125
609.39610,0.13445
611.32456,0.13170
613.25303,0.12304
615.18150,0.12371
617.10997,0.12932
619.03844,0.12228
620.96691,0.10992
622.89538,0.10755
624.82385,0.10552
626.75231,0.09992
628.68078,0.11096
630.60925,0.16188
632.53772,0.20866
634.46619,0.17744
636.39466,0.11183
638.32313,0.08703
640.25159,0.10363
642.18006,0.13520
644.10853,0.15562
646.03700,0.15757
647.96547,0.14642
649.89394,0.13593
651.82241,0.15250
653.75088,0.17171
655.67934,0.15906
657.60781,0.13219
659.53628,0.11008
661.46475,0.10349
663.39322,0.11599
665.32169,0.12510
667.25016,0.11491
669.17862,0.11353
671.10709,0.13262
673.03556,0.13705
674.96403,0.12930
676.89250,0.13296
678.82097,0.14425
680.74944,0.14190
682.67791,0.13628
684.60637,0.14401
686.53484,0.14850
688.46331,0.13395
690.39178,0.11819
692.32025,0.11416
694.24872,0.12085
696.17719,0.12996
698.10565,0.12902
700.03412,0.12763
701.96259,0.13905
703.89106,0.15235
705.81953,0.16099
707.74800,0.16792
709.67647,0.15602
711.60494,0.13453
713.53340,0.13829
715.46187,0.15257
717.39034,0.15728
719.31881,0.16116
721.24728,0.15895
723.17575,0.14989
725.10422,0.14458
727.03268,0.13665
728.96115,0.11629
730.88962,0.10021
732.81809,0.10836
734.74656,0.12520
736.67503,0.13096
738.60350,0.13314
740.53197,0.13982
742.46043,0.15010
744.38890,0.16427
746.31737,0.17266
748.24584,0.16868
750.17431,0.16187
752.10278,0.15662
754.03125,0.15504
755.95971,0.16047
757.88818,0.16143
759.81665,0.15188
761.74512,0.14573
763.67359,0.14387
765.60206,0.13777
767.53053,0.13339
769.45900,0.13495
771.38746,0.13780
773.31593,0.14049
775.24440,0.14495
777.17287,0.14978
779.10134,0.15335
781.02981,0.15593
782.95828,0.15661
784.88674,0.15002
786.81521,0.13407
788.74368,0.10730
790.67215,0.08124
792.60062,0.09321
794.52909,0.14092
796.45756,0.17166
798.38602,0.16844
800.31449,0.15783
802.24296,0.15970
804.17143,0.16490
806.09990,0.15795
808.02837,0.14528
809.95684,0.13990
811.88531,0.13841
813.81377,0.14341
815.74224,0.14870
817.67071,0.13727
819.59918,0.12677
821.52765,0.13822
823.45612,0.15823
825.38459,0.16211
827.31305,0.15297
829.24152,0.15296
831.16999,0.16001
833.09846,0.16177
835.02693,0.16121
836.95540,0.15911
838.88387,0.15068
840.81234,0.14296
842.74080,0.14462
844.66927,0.14964
846.59774,0.14775
848.52621,0.14578
850.45468,0.15030
852.38315,0.15547
854.31162,0.15762
856.24008,0.15532
858.16855,0.14826
860.09702,0.13933
862.02549,0.13817
863.95396,0.14486
865.88243,0.15056
867.81090,0.16349
869.73937,0.18030
871.66783,0.17897
873.59630,0.16457
875.52477,0.15575
877.45324,0.15565
879.38171,0.15898
881.31018,0.16065
883.23865,0.16163
885.16711,0.15730
887.09558,0.14558
889.02405,0.14130
890.95252,0.14405
892.88099,0.14118
894.80946,0.13961
896.73793,0.14531
898.66640,0.15080
900.59486,0.15359
902.52333,0.15809
904.45180,0.16381
906.38027,0.15833
908.30874,0.14199
910.23721,0.13353
912.16568,0.14260
914.09414,0.15618
916.02261,0.15572
917.95108,0.14780
919.87955,0.14387
921.80802,0.14244
923.73649,0.14579
925.66496,0.15477
927.59343,0.16218
929.52189,0.15942
931.45036,0.15038
933.37883,0.14780
935.30730,0.15051
937.23577,0.15005
939.16424,0.14871
941.09271,0.15085
943.02117,0.15550
944.94964,0.15584
946.87811,0.14505
948.80658,0.13411
950.73505,0.13845
952.66352,0.15140
954.59199,0.15480
956.52045,0.14737
958.44892,0.14319
960.37739,0.14967
962.30586,0.16359
964.23433,0.17172
966.16280,0.16422
968.09127,0.15234
970.01974,0.14945
971.94820,0.15362
973.87667,0.15737
975.80514,0.15682
977.73361,0.15647
979.66208,0.16080
981.59055,0.16196
983.51902,0.15848
985.44748,0.15996
987.37595,0.16345
989.30442,0.16373
991.23289,0.16203
993.16136,0.16032
995.08983,0.16379
997.01830,0.16906
998.94677,0.16905
1000.87523,0.16741
1002.80370,0.16774
1004.73217,0.16554
1006.66064,0.16054
1008.58911,0.16015
1010.51758,0.16554
1012.44605,0.17256
1014.37451,0.17721
1016.30298,0.17671
1018.23145,0.17459
1020.15992,0.17521
1022.08839,0.17578
1024.01686,0.16816
1025.94533,0.15321
1027.87380,0.14583
1029.80226,0.15242
1031.73073,0.16247
1033.65920,0.16780
1035.58767,0.16659
1037.51614,0.16105
1039.44461,0.16259
1041.37308,0.17116
1043.30154,0.17047
1045.23001,0.16853
1047.15848,0.17903
1049.08695,0.18359
1051.01542,0.17611
1052.94389,0.17149
1054.87236,0.17045
1056.80083,0.17234
1058.72929,0.17827
1060.65776,0.18299
1062.58623,0.18432
1064.51470,0.18223
1066.44317,0.18039
1068.37164,0.18186
1070.30011,0.18470
1072.22857,0.18697
1074.15704,0.18785
1076.08551,0.18713
1078.01398,0.18674
1079.94245,0.18965
1081.87092,0.19134
1083.79939,0.18630
1085.72786,0.17569
1087.65632,0.16869
1089.58479,0.17273
1091.51326,0.17740
1093.44173,0.17557
1095.37020,0.17297
1097.29867,0.17183
1099.22714,0.17427
1101.15560,0.17844
1103.08407,0.18137
1105.01254,0.19224
1106.94101,0.20261
1108.86948,0.19116
1110.79795,0.17064
1112.72642,0.16457
1114.65489,0.17223
1116.58335,0.18106
1118.51182,0.18425
1120.44029,0.18214
1122.36876,0.17681
1124.29723,0.17173
1126.22570,0.16885
1128.15417,0.16711
1130.08263,0.16520
1132.01110,0.16752
1133.93957,0.17255
1135.86804,0.17144
1137.79651,0.16816
1139.72498,0.17151
1141.65345,0.18079
1143.58191,0.18653
1145.51038,0.18090
1147.43885,0.17119
1149.36732,0.16827
1151.29579,0.16877
1153.22426,0.16807
1155.15273,0.17093
1157.08120,0.17671
1159.00966,0.18008
1160.93813,0.18103
1162.86660,0.18222
1164.79507,0.18450
1166.72354,0.18378
1168.65201,0.17894
1170.58048,0.17646
1172.50894,0.17772
1174.43741,0.17664
1176.36588,0.17238
1178.29435,0.17240
1180.22282,0.17847
1182.15129,0.18105
1184.07976,0.17372
1186.00823,0.16330
1187.93669,0.16190
1189.86516,0.16835
1191.79363,0.17151
1193.72210,0.17205
1195.65057,0.17647
1197.57904,0.18153
1199.50751,0.18335
1201.43597,0.18371
1203.36444,0.18403
1205.29291,0.18302
1207.22138,0.17856
1209.14985,0.17382
1211.07832,0.17385
1213.00679,0.17687
1214.93526,0.17813
1216.86372,0.17741
1218.79219,0.17950
1220.72066,0.18265
1222.64913,0.18058
1224.57760,0.17864
1226.50607,0.18193
1228.43454,0.18506
1230.36300,0.18620
1232.29147,0.18576
1234.21994,0.18419
1236.14841,0.18444
1238.07688,0.18513
1240.00535,0.18498
1241.93382,0.18462
1243.86229,0.18166
1245.79075,0.17751
1247.71922,0.17592
1249.64769,0.17684
1251.57616,0.17935
1253.50463,0.18166
1255.43310,0.18236
1257.36157,0.18109
1259.29003,0.17975
1261.21850,0.18187
1263.14697,0.18405
1265.07544,0.18134
1267.00391,0.17901
1268.93238,0.18407
1270.86085,0.19115
1272.78932,0.19176
1274.71778,0.18805
1276.64625,0.18511
1278.57472,0.18435
1280.50319,0.18631
1282.43166,0.19055
1284.36013,0.19401
1286.28860,0.19397
1288.21706,0.19314
1290.14553,0.19348
1292.07400,0.19210
1294.00247,0.18739
1295.93094,0.18171
1297.85941,0.17818
1299.78788,0.17571
1301.71634,0.17138
1303.64481,0.16787
1305.57328,0.17059
1307.50175,0.17771
1309.43022,0.18207
1311.35869,0.18171
1313.28716,0.18114
1315.21563,0.18314
1317.14409,0.18582
1319.07256,0.18838
1321.00103,0.19044
1322.92950,0.19012
1324.85797,0.18717
1326.78644,0.18370
1328.71491,0.18219
1330.64337,0.18117
1332.57184,0.17947
1334.50031,0.18031
1336.42878,0.18550
1338.35725,0.19158
1340.28572,0.18329
1342.21419,0.15516
1344.14266,0.13214
1346.07112,0.13670
1347.99959,0.16219
1349.92806,0.18058
1351.85653,0.18236
1353.78500,0.18185
1355.71347,0.18546
1357.64194,0.18916
1359.57040,0.19016
1361.49887,0.18922
1363.42734,0.18565
1365.35581,0.17957
1367.28428,0.17653
1369.21275,0.17861
1371.14122,0.18446
1373.06969,0.19162
1374.99815,0.19573
1376.92662,0.19344
1378.85509,0.18961
1380.78356,0.19071
1382.71203,0.19437
1384.64050,0.19824
1386.56897,0.20247
1388.49743,0.20136
1390.42590,0.19654
1392.35437,0.19692
1394.28284,0.20356
1396.21131,0.20796
1398.13978,0.20696
1400.06825,0.20502
1401.99672,0.20463
1403.92518,0.20502
1405.85365,0.20238
1407.78212,0.19952
1409.71059,0.20123
1411.63906,0.20219
1413.56753,0.20133
1415.49600,0.20492
1417.42446,0.21023
1419.35293,0.21021
1421.28140,0.20680
1423.20987,0.20116
1425.13834,0.19434
1427.06681,0.19493
1428.99528,0.20406
1430.92375,0.20946
1432.85221,0.20484
1434.78068,0.19957
1436.70915,0.19824
1438.63762,0.19353
1440.56609,0.18731
1442.49456,0.18857
1444.42303,0.19572
1446.35149,0.19931
1448.27996,0.19901
1450.20843,0.20071
1452.13690,0.20467
1454.06537,0.21253
1455.99384,0.22735
1457.92231,0.22976
1459.85077,0.21090
1461.77924,0.20027
1463.70771,0.20085
1465.63618,0.20294
1467.56465,0.20163
1469.49312,0.20400
1471.42159,0.21202
1473.35006,0.21596
1475.27852,0.21117
1477.20699,0.20786
1479.13546,0.20821
1481.06393,0.20754
1482.99240,0.20418
1484.92087,0.20353
1486.84934,0.20695
1488.77780,0.21128
1490.70627,0.21200
1492.63474,0.20957
1494.56321,0.21180
1496.49168,0.21902
1498.42015,0.22115
1500.34862,0.22350
1502.27709,0.23221
1504.20555,0.24125
1506.13402,0.24565
1508.06249,0.23224
1509.99096,0.21659
1511.91943,0.21401
1513.84790,0.22156
1515.77637,0.23263
1517.70483,0.23762
1519.63330,0.23760
1521.56177,0.23805
1523.49024,0.23069
1525.41871,0.22285
1527.34718,0.21851
1529.27565,0.21257
1531.20412,0.20888
1533.13258,0.21051
1535.06105,0.21500
1536.98952,0.22649
1538.91799,0.25197
1540.84646,0.26753
1542.77493,0.25140
1544.70340,0.23486
1546.63186,0.21980
1548.56033,0.20888
1550.48880,0.20475
1552.41727,0.20791
1554.34574,0.21799
1556.27421,0.23535
1558.20268,0.25794
1560.13115,0.24502
1562.05961,0.22200
1563.98808,0.21475
1565.91655,0.21414
1567.84502,0.21682
1569.77349,0.22004
1571.70196,0.21654
1573.63043,0.21233
1575.55889,0.21136
1577.48736,0.20725
1579.41583,0.20023
1581.34430,0.19560
1583.27277,0.19310
1585.20124,0.18945
1587.12971,0.18701
1589.05818,0.19032
1590.98664,0.19439
1592.91511,0.19375
1594.84358,0.19189
1596.77205,0.19273
1598.70052,0.19516
1600.62899,0.19701
1602.55746,0.19775
1604.48592,0.19804
1606.41439,0.19846
1608.34286,0.19892
1610.27133,0.19905
1612.19980,0.19984
1614.12827,0.20405
1616.05674,0.21106
1617.98521,0.20959
1619.91367,0.20430
1621.84214,0.20838
1623.77061,0.21620
1625.69908,0.21755
1627.62755,0.21817
1629.55602,0.21655
1631.48449,0.21365
1633.41295,0.22058
1635.34142,0.23711
1637.26989,0.23663
1639.19836,0.22370
1641.12683,0.21532
1643.05530,0.21450
1644.98377,0.22270
1646.91223,0.23507
1648.84070,0.24054
1650.76917,0.24752
1652.69764,0.25716
1654.62611,0.24153
1656.55458,0.22281
1658.48305,0.21394
1660.41152,0.21251
1662.33998,0.21660
1664.26845,0.21489
1666.19692,0.21076
1668.12539,0.21617
1670.05386,0.22473
1671.98233,0.22483
1673.91080,0.22333
1675.83926,0.21892
1677.76773,0.21308
1679.69620,0.21395
1681.62467,0.22447
1683.55314,0.24048
1685.48161,0.23859
1687.41008,0.22541
1689.33855,0.21808
1691.26701,0.21716
1693.19548,0.22361
1695.12395,0.23626
1697.05242,0.24689
1698.98089,0.25121
1700.90936,0.24515
1702.83783,0.23638
1704.76629,0.23390
1706.69476,0.22823
1708.62323,0.21750
1710.55170,0.21005
1712.48017,0.21043
1714.40864,0.22060
1716.33711,0.23207
1718.26558,0.22575
1720.19404,0.21302
1722.12251,0.20655
1724.05098,0.20460
1725.97945,0.20530
1727.90792,0.20758
1729.83639,0.21153
1731.76486,0.21770
1733.69332,0.22331
1735.62179,0.21814
1737.55026,0.21179
1739.47873,0.21182
1741.40720,0.21367
1743.33567,0.21584
1745.26414,0.22050
1747.19261,0.22580
1749.12107,0.22867
1751.04954,0.22420
1752.97801,0.21369
1754.90648,0.20655
1756.83495,0.20614
1758.76342,0.20902
1760.69189,0.21169
1762.62035,0.21136
1764.54882,0.20899
1766.47729,0.20894
1768.40576,0.21184
1770.33423,0.21840
1772.26270,0.22405
1774.19117,0.21986
1776.11964,0.21393
1778.04810,0.21251
1779.97657,0.21260
1781.90504,0.20967
1783.83351,0.20541
1785.76198,0.20422
1787.69045,0.20671
1789.61892,0.21325
1791.54738,0.22172
1793.47585,0.22291
1795.40432,0.21964
1797.33279,0.21859
1799.26126,0.21822
1801.18973,0.21671
1803.11820,0.21351
1805.04666,0.21083
1806.97513,0.20944
1808.90360,0.20863
1810.83207,0.20899
1812.76054,0.20933
1814.68901,0.21052
1816.61748,0.20937
1818.54595,0.20394
1820.47441,0.20609
1822.40288,0.21537
1824.33135,0.21856
1826.25982,0.21706
1828.18829,0.21784
1830.11676,0.21568
1832.04523,0.20736
1833.97369,0.20287
1835.90216,0.20458
1837.83063,0.20518
1839.75910,0.20447
1841.68757,0.20857
1843.61604,0.21786
1845.54451,0.22143
1847.47298,0.21507
1849.40144,0.20781
1851.32991,0.20400
1853.25838,0.20353
1855.18685,0.20495
1857.11532,0.20578
1859.04379,0.20599
1860.97226,0.20713
1862.90072,0.20827
1864.82919,0.21013
1866.75766,0.21437
1868.68613,0.21739
1870.61460,0.21533
1872.54307,0.21125
1874.47154,0.20815
1876.40001,0.20604
1878.32847,0.20491
1880.25694,0.20448
1882.18541,0.20291
1884.11388,0.20106
1886.04235,0.20285
1887.97082,0.20889
1889.89929,0.21268
1891.82775,0.20968
1893.75622,0.20524
1895.68469,0.20430
1897.61316,0.20624
1899.54163,0.20745
1901.47010,0.20654
1903.39857,0.20544
1905.32704,0.20565
1907.25550,0.20646
1909.18397,0.20613
1911.11244,0.20415
1913.04091,0.20369
1914.96938,0.20633
1916.89785,0.20814
1918.82632,0.20660
1920.75478,0.20609
1922.68325,0.20805
1924.61172,0.20735
1926.54019,0.20401
1928.46866,0.20291
1930.39713,0.20360
1932.32560,0.20484
1934.25407,0.20743
1936.18253,0.20741
1938.11100,0.20315
1940.03947,0.20280
1941.96794,0.20918
1943.89641,0.21279
1945.82488,0.20999
1947.75335,0.20513
1949.68181,0.20288
1951.61028,0.20559
1953.53875,0.20842
1955.46722,0.20828
1957.39569,0.20689
1959.32416,0.20614
1961.25263,0.20804
1963.18110,0.21089
1965.10956,0.21167
1967.03803,0.20991
1968.96650,0.20696
1970.89497,0.20495
1972.82344,0.20458
1974.75191,0.20599
1976.68038,0.21014
1978.60884,0.21378
1980.53731,0.21194
1982.46578,0.20823
1984.39425,0.20618
1986.32272,0.20455
1988.25119,0.20591
1990.17966,0.21047
1992.10812,0.21282
1994.03659,0.21120
1995.96506,0.20942
1997.89353,0.20973
1999.82200,0.20995
2001.75047,0.20901
2003.67894,0.20932
2005.60741,0.20981
2007.53587,0.20790
2009.46434,0.20608
2011.39281,0.20619
2013.32128,0.20651
2015.24975,0.20621
2017.17822,0.20546
2019.10669,0.20422
2021.03515,0.20391
2022.96362,0.20733
2024.89209,0.21182
2026.82056,0.21198
2028.74903,0.20938
2030.67750,0.20625
2032.60597,0.20253
2034.53444,0.20106
2036.46290,0.20404
2038.39137,0.20882
2040.31984,0.21030
2042.24831,0.20672
2044.17678,0.20234
2046.10525,0.20196
2048.03372,0.20366
2049.96218,0.20372
2051.89065,0.20347
2053.81912,0.20476
2055.74759,0.20671
2057.67606,0.20687
2059.60453,0.20447
2061.53300,0.20277
2063.46147,0.20463
2065.38993,0.20803
2067.31840,0.20945
2069.24687,0.20976
2071.17534,0.21037
2073.10381,0.20888
2075.03228,0.20578
2076.96075,0.20497
2078.88921,0.20601
2080.81768,0.20680
2082.74615,0.20729
2084.67462,0.20744
2086.60309,0.20754
2088.53156,0.20872
2090.46003,0.21053
2092.38850,0.21060
2094.31696,0.20952
2096.24543,0.20932
2098.17390,0.20792
2100.10237,0.20462
2102.03084,0.20277
2103.95931,0.20282
2105.88778,0.20386
2107.81624,0.20643
2109.74471,0.20884
2111.67318,0.20951
2113.60165,0.20926
2115.53012,0.20789
2117.45859,0.20518
2119.38706,0.20350
2121.31553,0.20387
2123.24399,0.20401
2125.17246,0.20337
2127.10093,0.20400
2129.02940,0.20581
2130.95787,0.20241
2132.88634,0.18890
2134.81481,0.17769
2136.74327,0.18451
2138.67174,0.20128
2140.60021,0.21090
2142.52868,0.21226
2144.45715,0.21125
2146.38562,0.21058
2148.31409,0.21195
2150.24255,0.21348
2152.17102,0.21226
2154.09949,0.20949
2156.02796,0.20673
2157.95643,0.20609
2159.88490,0.20860
2161.81337,0.21090
2163.74184,0.21042
2165.67030,0.20809
2167.59877,0.20740
2169.52724,0.20878
2171.45571,0.20829
2173.38418,0.20580
2175.31265,0.20464
2177.24112,0.20630
2179.16958,0.20804
2181.09805,0.20698
2183.02652,0.20420
2184.95499,0.20240
2186.88346,0.20416
2188.81193,0.20981
2190.74040,0.21534
2192.66887,0.21530
2194.59733,0.21042
2196.52580,0.20700
2198.45427,0.20644
2200.38274,0.20595
2202.31121,0.20679
2204.23968,0.20923
2206.16815,0.20888
2208.09661,0.20693
2210.02508,0.20775
2211.95355,0.20964
2213.88202,0.20944
2215.81049,0.20792
2217.73896,0.20668
2219.66743,0.20611
2221.59590,0.20596
2223.52436,0.20455
2225.45283,0.20317
2227.38130,0.20591
2229.30977,0.21094
2231.23824,0.21314
2233.16671,0.21319
2235.09518,0.21312
2237.02364,0.21199
2238.95211,0.21058
2240.88058,0.20968
2242.80905,0.20929
2244.73752,0.21052
2246.66599,0.21273
2248.59446,0.21343
2250.52293,0.21351
2252.45139,0.21458
2254.37986,0.21439
2256.30833,0.21274
2258.23680,0.21034
2260.16527,0.20739
2262.09374,0.20664
2264.02221,0.20892
2265.95067,0.21049
2267.87914,0.20857
2269.80761,0.20762
2271.73608,0.21095
2273.66455,0.21396
2275.59302,0.21451
2277.52149,0.21448
2279.44996,0.21274
2281.37842,0.20880
2283.30689,0.20568
2285.23536,0.20522
2287.16383,0.20699
2289.09230,0.21148
2291.02077,0.21873
2292.94924,0.22276
2294.87770,0.21920
2296.80617,0.21367
2298.73464,0.21115
2300.66311,0.20988
2302.59158,0.20897
2304.52005,0.21032
2306.44852,0.21296
2308.37699,0.21314
2310.30545,0.20985
2312.23392,0.20447
2314.16239,0.19889
2316.09086,0.19820
2318.01933,0.20445
2319.94780,0.21074
2321.87627,0.21264
2323.80473,0.21044
2325.73320,0.20550
2327.66167,0.20537
2329.59014,0.21100
2331.51861,0.21278
2333.44708,0.20720
2335.37555,0.20248
2337.30401,0.20911
2339.23248,0.22135
2341.16095,0.22794
2343.08942,0.22852
2345.01789,0.22159
2346.94636,0.21261
2348.87483,0.21004
2350.80330,0.21504
2352.73176,0.22042
2354.66023,0.21549
2356.58870,0.21395
2358.51717,0.22739
2360.44564,0.23117
2362.37411,0.21776
2364.30258,0.21500
2366.23104,0.22366
2368.15951,0.22635
2370.08798,0.22464
2372.01645,0.21746
2373.94492,0.20822
2375.87339,0.20572
2377.80186,0.20896
2379.73033,0.21147
2381.65879,0.21133
2383.58726,0.21010
2385.51573,0.20900
2387.44420,0.20854
2389.37267,0.20747
2391.30114,0.20563
2393.22961,0.20508
2395.15807,0.20688
2397.08654,0.20914
2399.01501,0.20862
2400.94348,0.20718
2402.87195,0.20819
2404.80042,0.21000
2406.72889,0.21011
2408.65736,0.20864
2410.58582,0.20771
2412.51429,0.20805
2414.44276,0.20853
2416.37123,0.20906
2418.29970,0.20904
2420.22817,0.20767
2422.15664,0.20607
2424.08510,0.20481
2426.01357,0.20483
2427.94204,0.20725
2429.87051,0.20996
2431.79898,0.21111
2433.72745,0.21126
2435.65592,0.21093
2437.58439,0.21022
2439.51285,0.20960
2441.44132,0.20860
2443.36979,0.20733
2445.29826,0.20873
2447.22673,0.21234
2449.15520,0.21469
2451.08367,0.21491
2453.01213,0.21391
2454.94060,0.21270
2456.86907,0.21092
2458.79754,0.20921
2460.72601,0.20905
2462.65448,0.21038
2464.58295,0.21135
2466.51142,0.21113
2468.43988,0.21145
2470.36835,0.21113
2472.29682,0.20994
2474.22529,0.21043
2476.15376,0.21062
2478.08223,0.20782
2480.01070,0.20451
2481.93916,0.20341
2483.86763,0.20411
2485.79610,0.20541
2487.72457,0.20480
2489.65304,0.20327
2491.58151,0.20550
2493.50998,0.20930
2495.43844,0.21020
2497.36691,0.20973
2499.29538,0.20993
2501.22385,0.21132
2503.15232,0.21454
2505.08079,0.21727
2507.00926,0.21592
2508.93773,0.21125
2510.86619,0.20738
2512.79466,0.20685
2514.72313,0.20887
2516.65160,0.21181
2518.58007,0.21315
2520.50854,0.21158
2522.43701,0.21007
2524.36547,0.21102
2526.29394,0.21312
2528.22241,0.21383
2530.15088,0.21300
2532.07935,0.21261
2534.00782,0.21240
2535.93629,0.21070
2537.86476,0.20971
2539.79322,0.21219
2541.72169,0.21462
2543.65016,0.21238
2545.57863,0.20753
2547.50710,0.20542
2549.43557,0.20729
2551.36404,0.20999
2553.29250,0.21145
2555.22097,0.21290
2557.14944,0.21511
2559.07791,0.21623
2561.00638,0.21610
2562.93485,0.21652
2564.86332,0.21634
2566.79179,0.21320
2568.72025,0.20957
2570.64872,0.21026
2572.57719,0.21360
2574.50566,0.21510
2576.43413,0.21554
2578.36260,0.21531
2580.29107,0.21327
2582.21953,0.21195
2584.14800,0.21308
2586.07647,0.21489
2588.00494,0.21560
2589.93341,0.21485
2591.86188,0.21417
2593.79035,0.21503
2595.71882,0.21519
2597.64728,0.21214
2599.57575,0.20910
2601.50422,0.21032
2603.43269,0.21411
2605.36116,0.21655
2607.28963,0.21847
2609.21810,0.22401
2611.14656,0.22940
2613.07503,0.22499
2615.00350,0.21579
2616.93197,0.21284
2618.86044,0.21288
2620.78891,0.21162
2622.71738,0.21084
2624.64585,0.21084
2626.57431,0.21237
2628.50278,0.21512
2630.43125,0.21603
2632.35972,0.21562
2634.28819,0.21561
2636.21666,0.21448
2638.14513,0.21334
2640.07359,0.21427
2642.00206,0.21599
2643.93053,0.21706
2645.85900,0.21692
2647.78747,0.21560
2649.71594,0.21373
2651.64441,0.21256
2653.57288,0.21371
2655.50134,0.21652
2657.42981,0.21808
2659.35828,0.21744
2661.28675,0.21595
2663.21522,0.21452
2665.14369,0.21366
2667.07216,0.21329
2669.00062,0.21277
2670.92909,0.21375
2672.85756,0.21685
2674.78603,0.21813
2676.71450,0.21691
2678.64297,0.21643
2680.57144,0.21775
2682.49990,0.21916
2684.42837,0.21802
2686.35684,0.21645
2688.28531,0.21756
2690.21378,0.21902
2692.14225,0.21909
2694.07072,0.21922
2695.99919,0.21959
2697.92765,0.22039
2699.85612,0.22233
2701.78459,0.22289
2703.71306,0.22103
2705.64153,0.22094
2707.57000,0.22375
2709.49847,0.22520
2711.42693,0.22470
2713.35540,0.22447
2715.28387,0.22434
2717.21234,0.22452
2719.14081,0.22492
2721.06928,0.22381
2722.99775,0.22173
2724.92622,0.22200
2726.85468,0.22325
2728.78315,0.22144
2730.71162,0.21880
2732.64009,0.21843
2734.56856,0.21980
2736.49703,0.22316
2738.42550,0.22696
2740.35396,0.22618
2742.28243,0.22194
2744.21090,0.21966
2746.13937,0.21816
2748.06784,0.21626
2749.99631,0.21647
2751.92478,0.21807
2753.85325,0.21967
2755.78171,0.22295
2757.71018,0.22690
2759.63865,0.22753
2761.56712,0.22508
2763.49559,0.22204
2765.42406,0.22067
2767.35253,0.22218
2769.28099,0.22341
2771.20946,0.22337
2773.13793,0.22478
2775.06640,0.22694
2776.99487,0.22694
2778.92334,0.22386
2780.85181,0.22100
2782.78028,0.22350
2784.70874,0.23044
2786.63721,0.23416
2788.56568,0.23103
2790.49415,0.22615
2792.42262,0.22385
2794.35109,0.22315
2796.27956,0.22383
2798.20802,0.22638
2800.13649,0.22906
2802.06496,0.23078
2803.99343,0.23084
2805.92190,0.23032
2807.85037,0.22979
2809.77884,0.22706
2811.70731,0.22527
2813.63577,0.22603
2815.56424,0.22618
2817.49271,0.22672
2819.42118,0.22818
2821.34965,0.22963
2823.27812,0.23021
2825.20659,0.23029
2827.13505,0.23147
2829.06352,0.23285
2830.99199,0.23211
2832.92046,0.22876
2834.84893,0.22766
2836.77740,0.23098
2838.70587,0.23364
2840.63433,0.23247
2842.56280,0.22931
2844.49127,0.22805
2846.41974,0.22952
2848.34821,0.23143
2850.27668,0.23070
2852.20515,0.22668
2854.13362,0.22269
2856.06208,0.22262
2857.99055,0.22595
2859.91902,0.22737
2861.84749,0.22689
2863.77596,0.22767
2865.70443,0.22958
2867.63290,0.23197
2869.56136,0.23276
2871.48983,0.23010
2873.41830,0.22732
2875.34677,0.22852
2877.27524,0.23045
2879.20371,0.22875
2881.13218,0.22437
2883.06065,0.22104
2884.98911,0.22074
2886.91758,0.22100
2888.84605,0.22266
2890.77452,0.22916
2892.70299,0.23637
2894.63146,0.23616
2896.55993,0.22987
2898.48839,0.22698
2900.41686,0.22837
2902.34533,0.22848
2904.27380,0.22760
2906.20227,0.22741
2908.13074,0.22707
2910.05921,0.22656
2911.98768,0.22632
2913.91614,0.22721
2915.84461,0.22859
2917.77308,0.22730
2919.70155,0.22240
2921.63002,0.21681
2923.55849,0.21446
2925.48696,0.21459
2927.41542,0.21505
2929.34389,0.21953
2931.27236,0.22686
2933.20083,0.23034
2935.12930,0.22979
2937.05777,0.22772
2938.98624,0.22658
2940.91471,0.22795
2942.84317,0.23020
2944.77164,0.23021
2946.70011,0.22631
2948.62858,0.22377
2950.55705,0.22624
2952.48552,0.22831
2954.41399,0.22755
2956.34245,0.22618
2958.27092,0.22553
2960.19939,0.22819
2962.12786,0.23324
2964.05633,0.23490
2965.98480,0.23179
2967.91327,0.22734
2969.84174,0.22609
2971.77020,0.22979
2973.69867,0.23338
2975.62714,0.23068
2977.55561,0.22297
2979.48408,0.21978
2981.41255,0.22572
2983.34102,0.23363
2985.26948,0.23501
2987.19795,0.22933
2989.12642,0.22472
2991.05489,0.22693
2992.98336,0.23268
2994.91183,0.23737
2996.84030,0.23832
2998.76877,0.23668
3000.69723,0.23812
3002.62570,0.24271
3004.55417,0.24460
3006.48264,0.24287
3008.41111,0.24009
3010.33958,0.23537
3012.26805,0.22543
3014.19651,0.20887
3016.12498,0.19504
3018.05345,0.20103
3019.98192,0.22187
3021.91039,0.23565
3023.83886,0.23814
3025.76733,0.23556
3027.69579,0.23180
3029.62426,0.23059
3031.55273,0.23286
3033.48120,0.23693
3035.40967,0.23886
3037.33814,0.23714
3039.26661,0.23458
3041.19508,0.23077
3043.12354,0.22574
3045.05201,0.22340
3046.98048,0.22398
3048.90895,0.22609
3050.83742,0.22925
3052.76589,0.23242
3054.69436,0.23369
3056.62282,0.23096
3058.55129,0.23062
3060.47976,0.23893
3062.40823,0.24591
3064.33670,0.24058
3066.26517,0.22971
3068.19364,0.22600
3070.12211,0.22924
3072.05057,0.23087
3073.97904,0.22657
3075.90751,0.22132
3077.83598,0.22369
3079.76445,0.23090
3081.69292,0.23224
3083.62139,0.22506
3085.54985,0.21719
3087.47832,0.21916
3089.40679,0.22710
3091.33526,0.22963
3093.26373,0.22905
3095.19220,0.22947
3097.12067,0.22950
3099.04914,0.23007
3100.97760,0.22995
3102.90607,0.22665
3104.83454,0.22402
3106.76301,0.22571
3108.69148,0.22812
3110.61995,0.22620
3112.54842,0.22142
3114.47688,0.22245
3116.40535,0.23010
3118.33382,0.23579
3120.26229,0.23715
3122.19076,0.23674
3124.11923,0.23625
3126.04770,0.23590
3127.97617,0.23574
3129.90463,0.23501
3131.83310,0.23457
3133.76157,0.23592
3135.69004,0.23520
3137.61851,0.23219
3139.54698,0.23102
3141.47545,0.23255
3143.40391,0.23610
3145.33238,0.23892
3147.26085,0.23901
3149.18932,0.23869
3151.11779,0.23992
3153.04626,0.24010
3154.97473,0.23756
3156.90320,0.23607
3158.83166,0.23694
3160.76013,0.23906
3162.68860,0.24326
3164.61707,0.24571
3166.54554,0.24344
3168.47401,0.23982
3170.40248,0.23688
3172.33094,0.23548
3174.25941,0.23706
3176.18788,0.24035
3178.11635,0.24077
3180.04482,0.23736
3181.97329,0.23622
3183.90176,0.24235
3185.83022,0.25047
3187.75869,0.25032
3189.68716,0.24392
3191.61563,0.24006
3193.54410,0.24074
3195.47257,0.24129
3197.40104,0.23638
3199.32951,0.23038
3201.25797,0.23080
3203.18644,0.23483
3205.11491,0.23504
3207.04338,0.23200
3208.97185,0.23119
3210.90032,0.23386
3212.82879,0.23735
3214.75725,0.23961
3216.68572,0.24150
3218.61419,0.24237
3220.54266,0.24244
3222.47113,0.24388
3224.39960,0.24478
3226.32807,0.24485
3228.25654,0.24383
3230.18500,0.23961
3232.11347,0.23658
3234.04194,0.23732
3235.97041,0.23641
3237.89888,0.23172
3239.82735,0.22944
3241.75582,0.23355
3243.68428,0.23920
3245.61275,0.24262
3247.54122,0.24213
3249.46969,0.23811
3251.39816,0.23511
3253.32663,0.23205
3255.25510,0.23096
3257.18357,0.23748
3259.11203,0.24300
3261.04050,0.23695
3262.96897,0.22641
3264.89744,0.22257
3266.82591,0.22517
3268.75438,0.23097
3270.68285,0.23599
3272.61131,0.23537
3274.53978,0.23349
3276.46825,0.23517
3278.39672,0.23635
3280.32519,0.23642
3282.25366,0.23747
3284.18213,0.23705
3286.11060,0.23610
3288.03906,0.23727
3289.96753,0.23700
3291.89600,0.23089
3293.82447,0.22435
3295.75294,0.22491
3297.68141,0.22906
3299.60988,0.23184
3301.53834,0.23363
3303.46681,0.23427
3305.39528,0.23506
3307.32375,0.23939
3309.25222,0.24314
3311.18069,0.23801
3313.10916,0.22824
3315.03763,0.22614
3316.96609,0.23140
3318.89456,0.23221
3320.82303,0.22915
3322.75150,0.23207
3324.67997,0.23939
3326.60844,0.24552
3328.53691,0.24848
3330.46537,0.24605
3332.39384,0.24078
3334.32231,0.23861
3336.25078,0.23913
3338.17925,0.23784
3340.10772,0.23333
3342.03619,0.22846
3343.96466,0.22807
3345.89312,0.23287
3347.82159,0.23991
3349.75006,0.24400
3351.67853,0.23905
3353.60700,0.23151
3355.53547,0.23227
3357.46394,0.23625
3359.39240,0.23709
3361.32087,0.23913
3363.24934,0.24257
3365.17781,0.24270
3367.10628,0.24145
3369.03475,0.24290
3370.96322,0.24454
3372.89168,0.24346
3374.82015,0.24016
3376.74862,0.23499
3378.67709,0.23324
3380.60556,0.24015
3382.53403,0.24615
3384.46250,0.24277
3386.39097,0.23969
3388.31943,0.24242
3390.24790,0.24395
3392.17637,0.24036
3394.10484,0.23509
3396.03331,0.23367
3397.96178,0.23372
3399.89025,0.23100
3401.81871,0.22795
3403.74718,0.22965
3405.67565,0.23783
3407.60412,0.24305
3409.53259,0.23990
3411.46106,0.23701
3413.38953,0.23714
3415.31800,0.23494
3417.24646,0.22996
3419.17493,0.22680
3421.10340,0.22660
3423.03187,0.22750
3424.96034,0.23000
3426.88881,0.23266
3428.81728,0.23296
3430.74574,0.23224
3432.67421,0.23124
3434.60268,0.22994
3436.53115,0.23197
3438.45962,0.23676
3440.38809,0.23786
3442.31656,0.23667
3444.24503,0.24065
3446.17349,0.24410
3448.10196,0.23753
3450.03043,0.23075
3451.95890,0.23077
3453.88737,0.22936
3455.81584,0.22635
3457.74431,0.22537
3459.67277,0.22115
3461.60124,0.21398
3463.52971,0.20964
3465.45818,0.20874
3467.38665,0.21185
3469.31512,0.21683
3471.24359,0.21660
3473.17206,0.21361
3475.10052,0.21758
3477.02899,0.22421
3478.95746,0.22397
3480.88593,0.22009
3482.81440,0.21780
3484.74287,0.21504
3486.67134,0.20886
3488.59980,0.20280
3490.52827,0.20251
3492.45674,0.20536
3494.38521,0.20704
3496.31368,0.21020
3498.24215,0.21335
3500.17062,0.21081
3502.09909,0.20818
3504.02755,0.20865
3505.95602,0.20550
3507.88449,0.20304
3509.81296,0.21000
3511.74143,0.21780
3513.66990,0.21231
3515.59837,0.19935
3517.52683,0.19304
3519.45530,0.19656
3521.38377,0.20479
3523.31224,0.21167
3525.24071,0.21383
3527.16918,0.21158
3529.09765,0.20550
3531.02611,0.19990
3532.95458,0.19847
3534.88305,0.19696
3536.81152,0.19189
3538.73999,0.18652
3540.66846,0.18577
3542.59693,0.19177
3544.52540,0.20147
3546.45386,0.20651
3548.38233,0.20270
3550.31080,0.19779
3552.23927,0.19373
3554.16774,0.18559
3556.09621,0.17986
3558.02468,0.18114
3559.95314,0.18408
3561.88161,0.18651
3563.81008,0.19004
3565.73855,0.19510
3567.66702,0.19529
3569.59549,0.18620
3571.52396,0.17890
3573.45243,0.17716
3575.38089,0.17830
3577.30936,0.18073
3579.23783,0.17911
3581.16630,0.17371
3583.09477,0.17430
3585.02324,0.18314
3586.95171,0.19138
3588.88017,0.18848
3590.80864,0.18212
3592.73711,0.18114
3594.66558,0.18269
3596.59405,0.18289
3598.52252,0.18258
3600.45099,0.18138
3602.37946,0.17957
3604.30792,0.17951
3606.23639,0.18114
3608.16486,0.17957
3610.09333,0.17436
3612.02180,0.17381
3613.95027,0.17292
3615.87874,0.16748
3617.80720,0.16783
3619.73567,0.16970
3621.66414,0.16301
3623.59261,0.16142
3625.52108,0.17103
3627.44955,0.18164
3629.37802,0.18049
3631.30649,0.17270
3633.23495,0.16602
3635.16342,0.16138
3637.09189,0.16161
3639.02036,0.16373
3640.94883,0.16200
3642.87730,0.15761
3644.80577,0.15743
3646.73423,0.16596
3648.66270,0.18048
3650.59117,0.17673
3652.51964,0.16020
3654.44811,0.15411
3656.37658,0.15621
3658.30505,0.15526
3660.23352,0.15293
3662.16198,0.15355
3664.09045,0.15429
3666.01892,0.15492
3667.94739,0.15869
3669.87586,0.16124
3671.80433,0.15825
3673.73280,0.15801
3675.66126,0.15822
3677.58973,0.15490
3679.51820,0.15349
3681.44667,0.15181
3683.37514,0.14895
3685.30361,0.15123
3687.23208,0.16312
3689.16055,0.17632
3691.08901,0.17230
3693.01748,0.15821
3694.94595,0.14833
3696.87442,0.14551
3698.80289,0.14793
3700.73136,0.15084
3702.65983,0.15096
3704.58829,0.15101
3706.51676,0.15184
3708.44523,0.15358
3710.37370,0.15502
3712.30217,0.15216
3714.23064,0.15153
3716.15911,0.15485
3718.08757,0.15909
3720.01604,0.16149
3721.94451,0.15787
3723.87298,0.15034
3725.80145,0.14460
3727.72992,0.14279
3729.65839,0.14597
3731.58686,0.15499
3733.51532,0.16322
3735.44379,0.16206
3737.37226,0.16141
3739.30073,0.16239
3741.22920,0.16126
3743.15767,0.16315
3745.08614,0.17040
3747.01460,0.17268
3748.94307,0.17146
3750.87154,0.17220
3752.80001,0.16958
3754.72848,0.16327
3756.65695,0.15597
3758.58542,0.14969
3760.51389,0.14777
3762.44235,0.14666
3764.37082,0.14493
3766.29929,0.14579
3768.22776,0.14846
3770.15623,0.14883
3772.08470,0.14558
3774.01317,0.14160
3775.94163,0.13909
3777.87010,0.13866
3779.79857,0.13734
3781.72704,0.13462
3783.65551,0.13532
3785.58398,0.13860
3787.51245,0.14183
3789.44092,0.14393
3791.36938,0.14304
3793.29785,0.14539
3795.22632,0.15616
3797.15479,0.16578
3799.08326,0.16873
3801.01173,0.16471
3802.94020,0.14728
3804.86866,0.13420
3806.79713,0.13341
3808.72560,0.13575
3810.65407,0.13713
3812.58254,0.14162
3814.51101,0.14855
3816.43948,0.15400
3818.36795,0.15785
3820.29641,0.15764
3822.22488,0.14760
3824.15335,0.13915
3826.08182,0.13448
3828.01029,0.13181
3829.93876,0.13445
3831.86723,0.13781
3833.79569,0.13835
3835.72416,0.14262
3837.65263,0.15087
3839.58110,0.15251
3841.50957,0.14849
3843.43804,0.14780
3845.36651,0.14735
3847.29498,0.14176
3849.22344,0.13885
3851.15191,0.14913
3853.08038,0.16484
3855.00885,0.15311
3856.93732,0.13562
3858.86579,0.13087
3860.79426,0.13482
3862.72272,0.14052
3864.65119,0.14102
3866.57966,0.13634
3868.50813,0.13530
3870.43660,0.14202
3872.36507,0.14866
3874.29354,0.14990
3876.22200,0.14821
3878.15047,0.14800
3880.07894,0.14768
3882.00741,0.14369
3883.93588,0.14173
3885.86435,0.14433
3887.79282,0.14644
3889.72129,0.14216
3891.64975,0.13188
3893.57822,0.12844
3895.50669,0.13143
3897.43516,0.13248
3899.36363,0.13393
3901.29210,0.13761
3903.22057,0.13698
3905.14903,0.12905
3907.07750,0.12408
3909.00597,0.12424
3910.93444,0.12222
3912.86291,0.12243
3914.79138,0.13161
3916.71985,0.13832
3918.64832,0.13127
3920.57678,0.12369
3922.50525,0.12508
3924.43372,0.12616
3926.36219,0.12259
3928.29066,0.12291
3930.21913,0.12877
3932.14760,0.13262
3934.07606,0.13018
3936.00453,0.12396
3937.93300,0.11770
3939.86147,0.11316
3941.78994,0.11321
3943.71841,0.12204
3945.64688,0.13064
3947.57535,0.13077
3949.50381,0.12732
3951.43228,0.12444
3953.36075,0.12202
3955.28922,0.12016
3957.21769,0.11795
3959.14616,0.11630
3961.07463,0.11919
3963.00309,0.12634
3964.93156,0.12960
3966.86003,0.12657
3968.78850,0.12479
3970.71697,0.12705
3972.64544,0.13039
3974.57391,0.13101
3976.50238,0.12681
3978.43084,0.12260
3980.35931,0.12182
3982.28778,0.12218
3984.21625,0.12274
3986.14472,0.12387
3988.07319,0.12299
3990.00166,0.12154
3991.93012,0.12451
3993.85859,0.12722
3995.78706,0.12348
3997.71553,0.11802
3999.64400,0.11711
4001.57247,0.11552
4003.50094,0.10768
4005.42941,0.10191
4007.35787,0.10491
4009.28634,0.11152
4011.21481,0.11536
4013.14328,0.11529
4015.07175,0.11188
4017.00022,0.10825
4018.92869,0.10945
4020.85715,0.11088
4022.78562,0.10776
4024.71409,0.10912
4026.64256,0.11797
4028.57103,0.12310
4030.49950,0.12020
4032.42797,0.11303
4034.35644,0.10664
4036.28490,0.10551
4038.21337,0.10880
4040.14184,0.11361
4042.07031,0.11492
4043.99878,0.11097
4045.92725,0.11047
4047.85572,0.11646
4049.78418,0.11979
4051.71265,0.11663
4053.64112,0.11266
4055.56959,0.11219
4057.49806,0.11091
4059.42653,0.10473
4061.35500,0.09953
4063.28346,0.10108
4065.21193,0.10855
4067.14040,0.11429
4069.06887,0.11201
4070.99734,0.10860
4072.92581,0.10901
4074.85428,0.11080
4076.78275,0.11260
4078.71121,0.10888
4080.63968,0.10117
4082.56815,0.09978
4084.49662,0.10188
4086.42509,0.10156
4088.35356,0.10146
4090.28203,0.10416
4092.21049,0.10748
4094.13896,0.10530
4096.06743,0.10276
4097.99590,0.10875
4099.92437,0.11475
4101.85284,0.11373
4103.78131,0.11227
4105.70978,0.11064
4107.63824,0.10401
4109.56671,0.09612
4111.49518,0.09215
4113.42365,0.09484
4115.35212,0.10190
4117.28059,0.10743
4119.20906,0.11014
4121.13752,0.11110
4123.06599,0.10890
4124.99446,0.10223
4126.92293,0.09842
4128.85140,0.10048
4130.77987,0.09982
4132.70834,0.10024
4134.63681,0.10611
4136.56527,0.10591
4138.49374,0.09912
4140.42221,0.09593
4142.35068,0.09624
4144.27915,0.09400
4146.20762,0.08749
4148.13609,0.08571
4150.06455,0.09327
4151.99302,0.09898
4153.92149,0.09755
4155.84996,0.09726
4157.77843,0.09961
4159.70690,0.09793
4161.63537,0.09420
4163.56384,0.09535
4165.49230,0.10112
4167.42077,0.10398
4169.34924,0.10016
4171.27771,0.09702
4173.20618,0.09837
4175.13465,0.09651
4177.06312,0.08845
4178.99158,0.07933
4180.92005,0.07094
4182.84852,0.06760
4184.77699,0.07383
4186.70546,0.08327
4188.63393,0.08667
4190.56240,0.08545
4192.49087,0.08702
4194.41933,0.08772
4196.34780,0.08366
4198.27627,0.08005
4200.20474,0.08129
4202.13321,0.08554
4204.06168,0.08574
4205.99015,0.08335
4207.91861,0.08460
4209.84708,0.08676
4211.77555,0.08664
4213.70402,0.08628
4215.63249,0.08503
4217.56096,0.07982
4219.48943,0.07401
4221.41789,0.07496
4223.34636,0.08085
4225.27483,0.08290
4227.20330,0.08268
4229.13177,0.08289
4231.06024,0.08068
4232.98871,0.08053
4234.91718,0.08394
4236.84564,0.08488
4238.77411,0.08297
4240.70258,0.08166
4242.63105,0.08052
4244.55952,0.07781
4246.48799,0.07288
4248.41646,0.06552
4250.34492,0.05954
4252.27339,0.06105
4254.20186,0.07055
4256.13033,0.07817
4258.05880,0.07682
4259.98727,0.07325
4261.91574,0.07173
4263.84421,0.07035
4265.77267,0.07066
4267.70114,0.07002
4269.62961,0.06577
4271.55808,0.06385
4273.48655,0.06694
4275.41502,0.06932
4277.34349,0.06801
4279.27195,0.06904
4281.20042,0.07221
4283.12889,0.06742
4285.05736,0.05878
4286.98583,0.06028
4288.91430,0.07197
4290.84277,0.08208
4292.77124,0.08244
4294.69970,0.07844
4296.62817,0.07807
4298.55664,0.07730
4300.48511,0.07052
4302.41358,0.06107
4304.34205,0.05550
4306.27052,0.05944
4308.19898,0.06971
4310.12745,0.07272
4312.05592,0.06807
4313.98439,0.06781
4315.91286,0.06919
4317.84133,0.06446
4319.76980,0.05942
4321.69827,0.05942
4323.62673,0.05969
4325.55520,0.05580
4327.48367,0.05260
4329.41214,0.05638
4331.34061,0.05911
4333.26908,0.05511
4335.19755,0.05861
4337.12601,0.07063
4339.05448,0.07244
4340.98295,0.06519
4342.91142,0.06480
4344.83989,0.06946
4346.76836,0.06987
4348.69683,0.06898
4350.62530,0.06647
4352.55376,0.06070
4354.48223,0.05909
4356.41070,0.05793
4358.33917,0.05286
4360.26764,0.05205
4362.19611,0.05496
4364.12458,0.05817
4366.05304,0.06083
4367.98151,0.05805
4369.90998,0.05207
4371.83845,0.04934
4373.76692,0.04796
4375.69539,0.04439
4377.62386,0.04292
4379.55232,0.04373
4381.48079,0.04203
4383.40926,0.03738
4385.33773,0.02883
4387.26620,0.02270
4389.19467,0.02785
4391.12314,0.04291
4393.05161,0.05814
4394.98007,0.06028
4396.90854,0.05378
4398.83701,0.05051
4400.76548,0.04548
4402.69395,0.03761
4404.62242,0.03403
4406.55089,0.03423
4408.47935,0.03536
4410.40782,0.03680
4412.33629,0.03836
4414.26476,0.03964
4416.19323,0.04088
4418.12170,0.04304
4420.05017,0.04308
4421.97864,0.03664
4423.90710,0.03188
4425.83557,0.03879
4427.76404,0.04590
4429.69251,0.03954
4431.62098,0.02488
4433.54945,0.01440
4435.47792,0.01747
4437.40638,0.03057
4439.33485,0.04052
4441.26332,0.04105
4443.19179,0.03777
4445.12026,0.03830
4447.04873,0.03921
4448.97720,0.03513
4450.90567,0.03232
4452.83413,0.03453
4454.76260,0.03731
4456.69107,0.04145
4458.61954,0.04471
4460.54801,0.03861
4462.47648,0.02900
4464.40495,0.02807
4466.33341,0.03013
4468.26188,0.02720
4470.19035,0.02498
4472.11882,0.02413
4474.04729,0.02112
4475.97576,0.01975
4477.90423,0.02004
4479.83270,0.01926
4481.76116,0.01971
4483.68963,0.02388
4485.61810,0.02900
4487.54657,0.03008
4489.47504,0.02441
4491.40351,0.01860
4493.33198,0.02114
4495.26044,0.02247
4497.18891,0.01671
4499.11738,0.01165
4501.04585,0.00867
4502.97432,0.00924
4504.90279,0.01711
4506.83126,0.02865
4508.75973,0.03338
4510.68819,0.02725
4512.61666,0.01949
4514.54513,0.02081
4516.47360,0.02701
4518.40207,0.02501
4520.33054,0.01867
4522.25901,0.01603
4524.18747,0.01624
4526.11594,0.02429
4528.04441,0.03663
4529.97288,0.03813
4531.90135,0.02664
4533.82982,0.01601
4535.75829,0.01610
4537.68676,0.01681
4539.61522,0.00814
4541.54369,0.00208
4543.47216,0.00668
4545.40063,0.01632
4547.32910,0.02300
4549.25757,0.01778
4551.18604,0.00963
4553.11450,0.01486
4555.04297,0.02607
4556.97144,0.02684
4558.89991,0.01965
4560.82838,0.01466
4562.75685,0.01273
4564.68532,0.01459
4566.61378,0.01738
4568.54225,0.01465
4570.47072,0.00559
4572.39919,-0.00335
4574.32766,-0.00085
4576.25613,0.01016
4578.18460,0.01939
4580.11307,0.02000
4582.04153,0.00902
4583.97000,0.00189
4585.89847,0.00788
4587.82694,0.01655
4589.75541,0.02266
4591.68388,0.02574
4593.61235,0.02297
4595.54081,0.01442
4597.46928,0.00568
4599.39775,0.00160
4601.32622,0.00257
4603.25469,0.00891
4605.18316,0.01544
4607.11163,0.01664
4609.04010,0.01428
4610.96856,0.00718
4612.89703,-0.00090
4614.82550,0.00076
4616.75397,0.00940
4618.68244,0.01404
4620.61091,0.01233
4622.53938,0.00977
4624.46784,0.01281
4626.39631,0.01553
4628.32478,0.00979
4630.25325,0.00765
4632.18172,0.01839
4634.11019,0.02593
4636.03866,0.02018
4637.96713,0.01614
4639.89559,0.01953
4641.82406,0.01787
4643.75253,0.00906
4645.68100,0.00312
4647.60947,0.00238
4649.53794,0.00065
4651.46641,-0.00090
4653.39487,0.00446
4655.32334,0.01172
4657.25181,0.01062
4659.18028,0.00359
4661.10875,-0.00112
4663.03722,0.00089
4664.96569,0.00528
4666.89416,0.00345
4668.82262,0.00065
4670.75109,0.00640
4672.67956,0.01582
4674.60803,0.01832
4676.53650,0.01218
4678.46497,0.00901
4680.39344,0.01519
4682.32190,0.01546
4684.25037,0.00249
4686.17884,-0.00049
4688.10731,0.01660
4690.03578,0.03158
4691.96425,0.03609
4693.89272,0.03390
4695.82119,0.02006
4697.74965,0.00194
4699.67812,-0.01140
4701.60659,-0.01995
4703.53506,-0.01399
4705.46353,0.00134
4707.39200,0.00981
4709.32047,0.01751
4711.24893,0.02471
4713.17740,0.01948
4715.10587,0.01009
4717.03434,0.01238
4718.96281,0.02216
4720.89128,0.02915
4722.81975,0.02858
4724.74821,0.02015
4726.67668,0.01606
4728.60515,0.01801
4730.53362,0.01245
4732.46209,0.00468
4734.39056,0.00799
4736.31903,0.01114
4738.24750,0.00366
4740.17596,-0.00215
4742.10443,0.00079
4744.03290,0.00755
4745.96137,0.00934
4747.88984,0.00662
4749.81831,0.01120
4751.74678,0.01162
4753.67524,-0.00080
4755.60371,-0.00626
4757.53218,0.00264
4759.46065,0.00997
4761.38912,0.01314
4763.31759,0.01606
4765.24606,0.01215
4767.17453,0.00260
4769.10299,-0.00155
4771.03146,-0.00131
4772.95993,0.00066
4774.88840,0.00765
4776.81687,0.01777
4778.74534,0.02272
4780.67381,0.01972
4782.60227,0.01441
4784.53074,0.00713
4786.45921,0.00348
4788.38768,0.01013
4790.31615,0.01893
4792.24462,0.02185
4794.17309,0.01636
4796.10156,0.00229
4798.03002,-0.00288
4799.95849,0.01064
4801.88696,0.02275
4803.81543,0.01923
4805.74390,0.01016
4807.67237,0.00461
4809.60084,-0.00054
4811.52930,-0.00351
4813.45777,0.00368
4815.38624,0.01345
4817.31471,0.01803
4819.24318,0.02472
4821.17165,0.02487
4823.10012,0.01023
4825.02859,-0.00371
4826.95705,-0.00629
4828.88552,0.00091
4830.81399,0.00842
4832.74246,0.00789
4834.67093,0.00585
4836.59940,0.00590
4838.52787,0.00458
4840.45633,0.00640
4842.38480,0.01493
4844.31327,0.02271
4846.24174,0.02144
4848.17021,0.01554
4850.09868,0.00903
4852.02715,-0.00367
4853.95562,-0.01612
4855.88408,-0.01661
4857.81255,-0.00994
4859.74102,-0.00546
4861.66949,-0.00477
4863.59796,-0.00188
4865.52643,0.00670
4867.45490,0.01278
4869.38336,0.01117
4871.31183,0.00779
4873.24030,0.00857
4875.16877,0.01326
4877.09724,0.02070
4879.02571,0.02819
4880.95418,0.02676
4882.88265,0.02043
4884.81111,0.01918
4886.73958,0.01497
4888.66805,0.00900
4890.59652,0.01265
4892.52499,0.01627
4894.45346,0.01093
4896.38193,0.00663
4898.31039,0.01320
4900.23886,0.02308
4902.16733,0.02078
4904.09580,0.01338
4906.02427,0.01420
4907.95274,0.01113
4909.88121,-0.00441
4911.80967,-0.02040
4913.73814,-0.02398
4915.66661,-0.01189
4917.59508,0.01129
4919.52355,0.02829
4921.45202,0.01972
4923.38049,0.00504
4925.30896,0.01090
4927.23742,0.02065
4929.16589,0.02095
4931.09436,0.02378
4933.02283,0.03067
4934.95130,0.03174
4936.87977,0.02775
4938.80824,0.01922
4940.73670,0.00913
4942.66517,0.01684
4944.59364,0.03526
4946.52211,0.03606
4948.45058,0.02464
4950.37905,0.01922
4952.30752,0.02042
4954.23599,0.02201
4956.16445,0.01848
4958.09292,0.01200
4960.02139,0.00844
4961.94986,0.00770
4963.87833,0.01441
4965.80680,0.03167
4967.73527,0.04081
4969.66373,0.02740
4971.59220,0.01128
4973.52067,0.00597
4975.44914,-0.00506
4977.37761,-0.01380
4979.30608,0.00278
4981.23455,0.02223
4983.16302,0.01502
4985.09148,0.00685
4987.01995,0.02263
4988.94842,0.03877
4990.87689,0.04027
4992.80536,0.03862
4994.73383,0.03327
4996.66230,0.02150
4998.59076,0.01888
5000.51923,0.03287
5002.44770,0.03995
5004.37617,0.01976
5006.30464,-0.00500
5008.23311,-0.00812
5010.16158,0.00047
5012.09005,0.00364
5014.01851,0.00576
5015.94698,0.01262
5017.87545,0.02038
5019.80392,0.02922
5021.73239,0.02934
5023.66086,0.01083
5025.58933,-0.00591
5027.51779,-0.00357
5029.44626,0.00843
5031.37473,0.02323
5033.30320,0.03085
5035.23167,0.02271
5037.16014,0.01389
5039.08861,0.01883
5041.01708,0.03619
5042.94554,0.04019
5044.87401,0.01182
5046.80248,-0.01301
5048.73095,-0.00879
5050.65942,-0.00323
5052.58789,-0.00775
5054.51636,-0.00198
5056.44482,0.01705
5058.37329,0.03714
5060.30176,0.05214
5062.23023,0.05177
5064.15870,0.03697
5066.08717,0.02500
5068.01564,0.02150
5069.94410,0.01883
5071.87257,0.01825
5073.80104,0.01777
5075.72951,0.00427
5077.65798,-0.00899
5079.58645,-0.00125
5081.51492,0.01535
5083.44339,0.02310
5085.37185,0.02330
5087.30032,0.02176
5089.22879,0.01770
5091.15726,0.01612
5093.08573,0.02026
5095.01420,0.01922
5096.94267,0.00805
5098.87113,-0.00320
5100.79960,0.00181
5102.72807,0.01913
5104.65654,0.02524
5106.58501,0.02441
5108.51348,0.03324
5110.44195,0.03964
5112.37042,0.03436
5114.29888,0.02447
5116.22735,0.00781
5118.15582,-0.01258
5120.08429,-0.01684
5122.01276,-0.00008
5123.94123,0.01892
5125.86970,0.02426
5127.79816,0.01490
5129.72663,0.00702
5131.65510,0.01463
5133.58357,0.02560
5135.51204,0.02907
5137.44051,0.03511
5139.36898,0.04292
5141.29745,0.04574
5143.22591,0.04879
5145.15438,0.04815
5147.08285,0.04134
5149.01132,0.03770
5150.93979,0.04234
5152.86826,0.04930
5154.79673,0.04805
5156.72519,0.04206
5158.65366,0.03259
5160.58213,0.02116
5162.51060,0.02508
5164.43907,0.03469
5166.36754,0.02368
5168.29601,0.01077
5170.22448,0.02119
5172.15294,0.03416
5174.08141,0.03555
5176.00988,0.04099
5177.93835,0.05028
5179.86682,0.04493
5181.79529,0.02331
5183.72376,0.01145
5185.65222,0.02172
5187.58069,0.03649
5189.50916,0.04482
5191.43763,0.05807
5193.36610,0.07450
5195.29457,0.07682
5197.22304,0.07147
5199.15151,0.06908
5201.07997,0.06290
5203.00844,0.04471
5204.93691,0.02521
5206.86538,0.02615
5208.79385,0.04252
5210.72232,0.06490
5212.65079,0.08124
5214.57925,0.07044
5216.50772,0.04073
5218.43619,0.02060
5220.36466,0.02420
5222.29313,0.03244
5224.22160,0.03057
5226.15007,0.03436
5228.07854,0.04421
5230.00700,0.04623
5231.93547,0.04872
5233.86394,0.05210
5235.79241,0.04294
5237.72088,0.02603
5239.64935,0.02090
5241.57782,0.03769
5243.50628,0.06148
5245.43475,0.06914
5247.36322,0.06129
5249.29169,0.04855
5251.22016,0.04400
5253.14863,0.05219
5255.07710,0.05328
5257.00556,0.03785
5258.93403,0.02863
5260.86250,0.04343
5262.79097,0.06351
5264.71944,0.06101
5266.64791,0.04705
5268.57638,0.05240
5270.50485,0.07939
5272.43331,0.09201
5274.36178,0.08513
5276.29025,0.08525
5278.21872,0.08266
5280.14719,0.06904
5282.07566,0.06350
5284.00413,0.05532
5285.93259,0.03115
5287.86106,0.01953
5289.78953,0.03536
5291.71800,0.06007
5293.64647,0.07020
5295.57494,0.05938
5297.50341,0.03671
5299.43188,0.01475
5301.36034,0.00993
5303.28881,0.02470
5305.21728,0.04210
5307.14575,0.05120
5309.07422,0.04814
5311.00269,0.04610
5312.93116,0.05526
5314.85962,0.06495
5316.78809,0.07272
5318.71656,0.07782
5320.64503,0.07762
5322.57350,0.07947
5324.50197,0.07765
5326.43044,0.06809
5328.35891,0.06838
5330.28737,0.08120
5332.21584,0.08757
5334.14431,0.07398
5336.07278,0.05399
5338.00125,0.06403
5339.92972,0.10003
5341.85819,0.11708
5343.78665,0.11278
5345.71512,0.09960
5347.64359,0.08839
5349.57206,0.09151
5351.50053,0.10489
5353.42900,0.10798
5355.35747,0.09196
5357.28594,0.07895
5359.21440,0.07408
5361.14287,0.06799
5363.07134,0.06013
5364.99981,0.04738
5366.92828,0.03117
5368.85675,0.03124
5370.78522,0.05656
5372.71368,0.07909
5374.64215,0.08021
5376.57062,0.07240
5378.49909,0.06196
5380.42756,0.05278
5382.35603,0.05698
5384.28450,0.06765
5386.21297,0.05864
5388.14143,0.03708
5390.06990,0.01834
5391.99837,0.01001
5393.92684,0.03350
5395.85531,0.07054
5397.78378,0.08474
5399.71225,0.09175
5401.64071,0.10700
5403.56918,0.10184
5405.49765,0.06478
5407.42612,0.03060
5409.35459,0.02642
5411.28306,0.04585
5413.21153,0.06348
5415.13999,0.06699
5417.06846,0.06015
5418.99693,0.05421
5420.92540,0.06312
5422.85387,0.08240
5424.78234,0.09330
5426.71081,0.08799
5428.63928,0.07931
5430.56774,0.07702
5432.49621,0.07846
5434.42468,0.07843
5436.35315,0.06737
5438.28162,0.05799
5440.21009,0.07170
5442.13856,0.09909
5444.06702,0.11265
5445.99549,0.11710
5447.92396,0.12145
5449.85243,0.10691
5451.78090,0.07976
5453.70937,0.06447
5455.63784,0.06174
5457.56631,0.06354
5459.49477,0.06366
5461.42324,0.05753
5463.35171,0.05774
5465.28018,0.08034
5467.20865,0.10262
5469.13712,0.09411
5471.06559,0.07978
5472.99405,0.08561
5474.92252,0.09068
5476.85099,0.08208
5478.77946,0.05854
5480.70793,0.02093
5482.63640,-0.00353
5484.56487,0.00539
5486.49334,0.03207
5488.42180,0.04574
5490.35027,0.04941
5492.27874,0.05943
5494.20721,0.05623
5496.13568,0.05071
5498.06415,0.06799
5499.99262,0.07995
5501.92108,0.06341
5503.84955,0.04403
5505.77802,0.03667
5507.70649,0.04499
5509.63496,0.07471
5511.56343,0.10522
5513.49190,0.11348
5515.42037,0.10798
5517.34883,0.10735
5519.27730,0.10652
5521.20577,0.09890
5523.13424,0.08970
5525.06271,0.07613
5526.99118,0.06244
5528.91965,0.06105
5530.84811,0.06667
5532.77658,0.07020
5534.70505,0.08483
5536.63352,0.11432
5538.56199,0.12742
5540.49046,0.11431
5542.41893,0.10516
5544.34740,0.10510
5546.27586,0.08722
5548.20433,0.06089
5550.13280,0.05465
5552.06127,0.05582
5553.98974,0.05527
5555.91821,0.07317
5557.84668,0.10080
5559.77514,0.10753
5561.70361,0.09415
5563.63208,0.07345
5565.56055,0.04931
5567.48902,0.03461
5569.41749,0.04192
5571.34596,0.06232
5573.27443,0.09064
5575.20289,0.11569
5577.13136,0.10871
5579.05983,0.09081
5580.98830,0.09735
5582.91677,0.09704
5584.84524,0.08534
5586.77371,0.10085
5588.70217,0.12040
5590.63064,0.10727
5592.55911,0.08184
5594.48758,0.07543
5596.41605,0.07690
5598.34452,0.05893
5600.27299,0.04596
5602.20145,0.05451
5604.12992,0.04974
5606.05839,0.04099
5607.98686,0.06292
5609.91533,0.10189
5611.84380,0.11942
5613.77227,0.09825
5615.70074,0.07186
5617.62920,0.07022
5619.55767,0.06982
5621.48614,0.05501
5623.41461,0.05113
5625.34308,0.06937
5627.27155,0.08479
5629.20002,0.07752
5631.12848,0.06963
5633.05695,0.07876
5634.98542,0.07765
5636.91389,0.07164
5638.84236,0.09161
5640.77083,0.10026
5642.69930,0.07907
5644.62777,0.06170
5646.55623,0.05798
5648.48470,0.06366
5650.41317,0.07714
5652.34164,0.08002
5654.27011,0.06296
5656.19858,0.06538
5658.12705,0.09996
5660.05551,0.11504
5661.98398,0.09758
5663.91245,0.08103
5665.84092,0.07571
5667.76939,0.07722
5669.69786,0.08662
5671.62633,0.10410
5673.55480,0.12783
5675.48326,0.15403
5677.41173,0.15741
5679.34020,0.12865
5681.26867,0.10215
5683.19714,0.09772
5685.12561,0.10529
5687.05408,0.10684
5688.98254,0.09847
5690.91101,0.09821
5692.83948,0.10532
5694.76795,0.10024
5696.69642,0.08151
5698.62489,0.06695
5700.55336,0.06413
5702.48183,0.06160
5704.41029,0.05554
5706.33876,0.05160
5708.26723,0.05785
5710.19570,0.08211
5712.12417,0.11451
5714.05264,0.13913
5715.98111,0.15488
5717.90957,0.14845
5719.83804,0.10334
5721.76651,0.04874
5723.69498,0.02770
5725.62345,0.05576
5727.55192,0.11942
5729.48039,0.17045
5731.40886,0.17384
5733.33732,0.13910
5735.26579,0.09671
5737.19426,0.08616
5739.12273,0.09368
5741.05120,0.08216
5742.97967,0.06928
5744.90814,0.06550
5746.83660,0.06053
5748.76507,0.07253
5750.69354,0.11388
5752.62201,0.14900
5754.55048,0.14165
5756.47895,0.10958
5758.40742,0.08836
5760.33588,0.09406
5762.26435,0.12011
5764.19282,0.14670
5766.12129,0.15743
5768.04976,0.14185
5769.97823,0.11886
5771.90670,0.10040
5773.83517,0.07406
5775.76363,0.06017
5777.69210,0.07881
5779.62057,0.09791
5781.54904,0.08971
5783.47751,0.09225
5785.40598,0.11598
5787.33445,0.11054
5789.26291,0.07597
5791.19138,0.04676
5793.11985,0.04371
5795.04832,0.06336
5796.97679,0.06854
5798.90526,0.05444
5800.83373,0.05409
5802.76220,0.05504
5804.69066,0.04550
5806.61913,0.08621
5808.54760,0.16278
5810.47607,0.16951
5812.40454,0.09754
5814.33301,0.03964
5816.26148,0.04072
5818.18994,0.07895
5820.11841,0.12780
5822.04688,0.15703
5823.97535,0.15119
5825.90382,0.13403
5827.83229,0.11737
5829.76076,0.10392
5831.68923,0.10778
5833.61769,0.11557
5835.54616,0.11499
5837.47463,0.11891
5839.40310,0.13078
5841.33157,0.14752
5843.26004,0.14317
5845.18851,0.11545
5847.11697,0.10530
5849.04544,0.11200
5850.97391,0.11002
5852.90238,0.10281
5854.83085,0.11363
5856.75932,0.15067
5858.68779,0.17364
5860.61626,0.14184
5862.54472,0.09069
5864.47319,0.05999
5866.40166,0.03364
5868.33013,0.02716
5870.25860,0.03819
5872.18707,0.04187
5874.11554,0.05398
5876.04400,0.06903
5877.97247,0.07855
5879.90094,0.09634
5881.82941,0.12534
5883.75788,0.13936
5885.68635,0.11701
5887.61482,0.08538
5889.54329,0.06637
5891.47175,0.05907
5893.40022,0.06607
5895.32869,0.08442
5897.25716,0.10885
5899.18563,0.14056
5901.11410,0.15641
5903.04257,0.13191
5904.97103,0.11673
5906.89950,0.14828
5908.82797,0.17448
5910.75644,0.15806
5912.68491,0.12137
5914.61338,0.08420
5916.54185,0.07381
5918.47032,0.09149
5920.39878,0.09510
5922.32725,0.07467
5924.25572,0.05741
5926.18419,0.06685
5928.11266,0.08931
5930.04113,0.08691
5931.96960,0.05805
5933.89806,0.04503
5935.82653,0.07413
5937.75500,0.10735
5939.68347,0.10728
5941.61194,0.10121
5943.54041,0.10834
5945.46888,0.08575
5947.39734,0.05189
5949.32581,0.06516
5951.25428,0.10140
5953.18275,0.12232
5955.11122,0.13371
5957.03969,0.14090
5958.96816,0.13862
5960.89663,0.12878
5962.82509,0.10493
5964.75356,0.06524
5966.68203,0.04391
5968.61050,0.06107
5970.53897,0.10117
5972.46744,0.13531
5974.39591,0.13120
5976.32437,0.09275
5978.25284,0.05720
5980.18131,0.05809
5982.10978,0.09826
5984.03825,0.14654
5985.96672,0.15750
5987.89519,0.12636
5989.82366,0.09854
5991.75212,0.07681
5993.68059,0.06408
5995.60906,0.10361
5997.53753,0.16178
5999.46600,0.17441
6001.39447,0.13649
6003.32294,0.07652
6005.25140,0.03799
6007.17987,0.04053
6009.10834,0.06118
6011.03681,0.07466
6012.96528,0.08019
6014.89375,0.06985
6016.82222,0.04642
6018.75069,0.04596
6020.67915,0.06556
6022.60762,0.06592
6024.53609,0.05474
6026.46456,0.06736
6028.39303,0.09388
6030.32150,0.09822
6032.24997,0.10136
6034.17843,0.13803
6036.10690,0.18101
6038.03537,0.17454
6039.96384,0.11871
6041.89231,0.06633
6043.82078,0.04296
6045.74925,0.05076
6047.67772,0.09769
6049.60618,0.13363
6051.53465,0.12007
6053.46312,0.11401
6055.39159,0.11781
6057.32006,0.09765
6059.24853,0.08969
6061.17700,0.09261
6063.10546,0.07076
6065.03393,0.03409
6066.96240,0.01803
6068.89087,0.05352
6070.81934,0.11808
6072.74781,0.14895
6074.67628,0.12401
6076.60475,0.08611
6078.53321,0.07469
6080.46168,0.07450
6082.39015,0.07291
6084.31862,0.09301
6086.24709,0.12427
6088.17556,0.12707
6090.10403,0.12006
6092.03249,0.10830
6093.96096,0.07503
6095.88943,0.06494
6097.81790,0.09742
6099.74637,0.12562
6101.67484,0.13267
6103.60331,0.13253
6105.53177,0.11974
6107.46024,0.10694
6109.38871,0.11365
6111.31718,0.10327
6113.24565,0.06048
6115.17412,0.02489
6117.10259,-0.01251
6119.03106,-0.03161
6120.95952,0.02924
6122.88799,0.08650
6124.81646,0.06740
6126.74493,0.02834
6128.67340,0.01258
6130.60187,-0.00182
6132.53034,-0.01354
6134.45880,-0.00038
6136.38727,0.03665
6138.31574,0.10017
6140.24421,0.13878
6142.17268,0.09109
6144.10115,0.03614
6146.02962,0.02792
6147.95809,0.03428
6149.88655,0.04373
6151.81502,0.02140
6153.74349,-0.02443
6155.67196,-0.04297
6157.60043,-0.04194
6159.52890,-0.02779
6161.45737,-0.00484
6163.38583,0.02312
6165.31430,0.06888
6167.24277,0.10776
6169.17124,0.10421
6171.09971,0.08123
6173.02818,0.08433
6174.95665,0.09587
6176.88512,0.11580
6178.81358,0.16171
6180.74205,0.18832
6182.67052,0.17296
6184.59899,0.14031
6186.52746,0.11547
6188.45593,0.11974
6190.38440,0.12709
6192.31286,0.10036
6194.24133,0.06946
6196.16980,0.06856
6198.09827,0.06590
6200.02674,0.02982
6201.95521,-0.01635
6203.88368,-0.04985
6205.81215,-0.05600
6207.74061,-0.01589
6209.66908,0.05467
6211.59755,0.12039
6213.52602,0.14379
6215.45449,0.10441
6217.38296,0.05395
6219.31143,0.05132
6221.23989,0.07743
6223.16836,0.08325
6225.09683,0.06966
6227.02530,0.06949
6228.95377,0.07361
6230.88224,0.09248
6232.81071,0.13517
6234.73918,0.17027
6236.66764,0.18135
6238.59611,0.15714
6240.52458,0.11510
6242.45305,0.09471
6244.38152,0.10280
6246.30999,0.10564
6248.23846,0.09162
6250.16692,0.09622
6252.09539,0.11679
6254.02386,0.12830
6255.95233,0.12439
6257.88080,0.10963
6259.80927,0.09307
6261.73774,0.06511
6263.66621,0.07612
6265.59467,0.18709
6267.52314,0.27052
6269.45161,0.20646
6271.38008,0.11045
6273.30855,0.10856
6275.23702,0.17386
6277.16549,0.18011
6279.09395,0.12112
6281.02242,0.10935
6282.95089,0.13203
6284.87936,0.10836
6286.80783,0.08218
6288.73630,0.08145
6290.66477,0.05933
6292.59323,0.04276
6294.52170,0.06788
6296.45017,0.08696
6298.37864,0.09939
6300.30711,0.12946
6302.23558,0.12379
6304.16405,0.06529
6306.09252,0.04382
6308.02098,0.09117
6309.94945,0.12760
6311.87792,0.11301
6313.80639,0.10045
6315.73486,0.11862
6317.66333,0.13636
6319.59180,0.14328
6321.52026,0.11407
6323.44873,0.05283
6325.37720,0.05369
6327.30567,0.10775
6329.23414,0.12917
6331.16261,0.10112
6333.09108,0.07198
6335.01955,0.05425
6336.94801,0.02088
6338.87648,0.01620
6340.80495,0.05149
6342.73342,0.06890
6344.66189,0.08304
6346.59036,0.11825
6348.51883,0.16365
6350.44729,0.20579
6352.37576,0.20111
6354.30423,0.15708
6356.23270,0.11989
6358.16117,0.10081
6360.08964,0.09689
6362.01811,0.09648
6363.94658,0.08766
6365.87504,0.07451
6367.80351,0.06672
6369.73198,0.09268
6371.66045,0.16186
6373.58892,0.19047
6375.51739,0.14049
6377.44586,0.11212
6379.37432,0.15252
6381.30279,0.21504
6383.23126,0.23973
6385.15973,0.18074
6387.08820,0.08777
6389.01667,0.08224
6390.94514,0.18868
6392.87361,0.26842
6394.80207,0.22287
6396.73054,0.13946
6398.65901,0.08985
6400.58748,0.06409
6402.51595,0.05430
6404.44442,0.08719
6406.37289,0.14239
6408.30135,0.14537
6410.22982,0.13161
6412.15829,0.16484
6414.08676,0.18598
6416.01523,0.18378
6417.94370,0.19510
6419.87217,0.17659
6421.80064,0.10919
6423.72910,0.04651
6425.65757,0.05240
6427.58604,0.13756
6429.51451,0.22281
6431.44298,0.23319
6433.37145,0.20274
6435.29992,0.18549
6437.22838,0.15282
6439.15685,0.13307
6441.08532,0.18432
6443.01379,0.20443
6444.94226,0.13577
6446.87073,0.10159
6448.79920,0.12951
6450.72766,0.17096
6452.65613,0.19317
6454.58460,0.15587
6456.51307,0.09255
6458.44154,0.10284
6460.37001,0.14981
6462.29848,0.13774
6464.22695,0.10994
6466.15541,0.12373
6468.08388,0.16011
6470.01235,0.17195
6471.94082,0.10777
6473.86929,0.02736
6475.79776,0.02827
6477.72623,0.10707
6479.65469,0.18655
6481.58316,0.20041
6483.51163,0.18485
6485.44010,0.19898
6487.36857,0.18833
6489.29704,0.11341
6491.22551,0.04191
6493.15398,0.04016
6495.08244,0.08595
6497.01091,0.11408
6498.93938,0.10189
6500.86785,0.06101
6502.79632,0.01057
6504.72479,-0.00381
6506.65326,0.03093
6508.58172,0.08544
6510.51019,0.09425
6512.43866,0.04977
6514.36713,0.05687
6516.29560,0.07595
6518.22407,0.04804
6520.15254,0.02730
6522.08101,-0.00832
6524.00947,-0.03956
6525.93794,-0.00134
6527.86641,0.04105
6529.79488,0.05134
6531.72335,0.07507
6533.65182,0.07335
6535.58029,0.00048
6537.50875,-0.04621
6539.43722,0.01635
6541.36569,0.11772
6543.29416,0.16973
6545.22263,0.16345
6547.15110,0.10922
6549.07957,0.02210
6551.00804,-0.03927
6552.93650,-0.05946
6554.86497,-0.06551
6556.79344,-0.03266
6558.72191,0.02993
6560.65038,0.04914
6562.57885,0.02151
6564.50732,0.01117
6566.43578,0.07026
6568.36425,0.18225
6570.29272,0.24222
6572.22119,0.20376
6574.14966,0.13599
6576.07813,0.11540
6578.00660,0.17381
6579.93507,0.23920
6581.86353,0.21187
6583.79200,0.15060
6585.72047,0.14937
6587.64894,0.15554
6589.57741,0.12322
6591.50588,0.07720
6593.43435,0.04353
6595.36281,0.02893
6597.29128,0.02484
6599.21975,0.03415
6601.14822,0.05676
6603.07669,0.07966
6605.00516,0.08761
6606.93363,0.06854
6608.86210,0.02274
6610.79056,-0.02027
6612.71903,0.00522
6614.64750,0.10092
6616.57597,0.14669
6618.50444,0.09084
6620.43291,0.00273
6622.36138,-0.06831
6624.28984,-0.07664
6626.21831,-0.00755
6628.14678,0.11939
6630.07525,0.22239
6632.00372,0.20281
6633.93219,0.12114
6635.86066,0.09448
6637.78912,0.13882
6639.71759,0.16707
6641.64606,0.12646
6643.57453,0.06043
6645.50300,0.06745
6647.43147,0.12927
6649.35994,0.12444
6651.28841,0.04401
6653.21687,-0.04070
6655.14534,-0.08028
6657.07381,-0.05028
6659.00228,0.00976
6660.93075,0.05583
6662.85922,0.10149
6664.78769,0.13402
6666.71615,0.15724
6668.64462,0.16051
6670.57309,0.10333
6672.50156,0.05999
6674.43003,0.08682
6676.35850,0.09240
6678.28697,0.05417
6680.21544,0.04188
6682.14390,0.06110
6684.07237,0.06235
6686.00084,0.09259
6687.92931,0.20573
6689.85778,0.29466
6691.78625,0.29244
6693.71472,0.23958
6695.64318,0.15360
6697.57165,0.07883
6699.50012,0.05236
6701.42859,0.08049
6703.35706,0.15596
6705.28553,0.20398
6707.21400,0.15249
6709.14247,0.04600
6711.07093,-0.02686
6712.99940,-0.03390
6714.92787,0.00804
6716.85634,0.06545
6718.78481,0.13523
6720.71328,0.15807
6722.64175,0.14660
6724.57021,0.18004
6726.49868,0.16771
6728.42715,0.10021
6730.35562,0.04511
6732.28409,0.01516
6734.21256,0.05326
6736.14103,0.11920
6738.06950,0.12659
6739.99796,0.08572
6741.92643,0.02853
6743.85490,0.00298
6745.78337,0.02020
6747.71184,0.02953
6749.64031,0.02151
6751.56878,0.03048
6753.49724,0.02122
6755.42571,0.00186
6757.35418,0.03720
6759.28265,0.05136
6761.21112,0.01427
6763.13959,0.05042
6765.06806,0.10234
6766.99653,0.08699
6768.92499,0.05792
6770.85346,0.05306
6772.78193,0.08383
6774.71040,0.14011
6776.63887,0.16023
6778.56734,0.12573
6780.49581,0.08215
6782.42427,0.05555
6784.35274,0.01343
6786.28121,-0.03135
6788.20968,0.02529
6790.13815,0.14990
6792.06662,0.18050
6793.99509,0.11961
6795.92355,0.03979
6797.85202,-0.02489
6799.78049,-0.00916
6801.70896,0.06629
6803.63743,0.06741
6805.56590,-0.01009
6807.49437,-0.05753
6809.42284,-0.02911
6811.35130,0.06706
6813.27977,0.11488
6815.20824,0.02914
6817.13671,-0.05921
6819.06518,-0.01561
6820.99365,0.08712
6822.92212,0.08726
6824.85058,-0.01876
6826.77905,-0.05772
6828.70752,-0.02448
6830.63599,0.00888
6832.56446,0.04857
6834.49293,0.05756
6836.42140,0.01154
6838.34987,0.02714
6840.27833,0.12818
6842.20680,0.17979
6844.13527,0.14390
6846.06374,0.12291
6847.99221,0.09256
6849.92068,-0.03960
6851.84915,-0.08608
6853.77761,0.01365
6855.70608,0.08604
6857.63455,0.11372
6859.56302,0.15084
6861.49149,0.12746
6863.41996,0.06278
6865.34843,0.02741
6867.27690,-0.00430
6869.20536,-0.03583
6871.13383,-0.04012
6873.06230,-0.01723
6874.99077,0.01901
6876.91924,0.02734
6878.84771,-0.02086
6880.77618,-0.03289
6882.70464,0.08363
6884.63311,0.16959
6886.56158,0.05129
6888.49005,-0.11358
6890.41852,-0.10998
6892.34699,-0.01297
6894.27546,0.05222
6896.20393,0.05649
6898.13239,-0.00552
6900.06086,-0.07023
6901.98933,-0.06461
6903.91780,0.03445
6905.84627,0.11414
6907.77474,0.07461
6909.70321,0.03080
6911.63167,0.07859
6913.56014,0.17246
6915.48861,0.20852
6917.41708,0.22549
6919.34555,0.29600
6921.27402,0.31973
6923.20249,0.24456
6925.13096,0.13184
6927.05942,0.01942
6928.98789,-0.06356
6930.91636,-0.07507
6932.84483,-0.01852
6934.77330,0.04429
6936.70177,0.07687
6938.63024,0.06302
6940.55870,0.00744
6942.48717,-0.02576
6944.41564,0.02038
6946.34411,0.05887
6948.27258,0.02316
6950.20105,0.02062
6952.12952,0.08892
6954.05799,0.11443
6955.98645,0.03635
6957.91492,-0.03043
6959.84339,-0.01512
6961.77186,0.04531
6963.70033,0.09690
6965.62880,0.08860
6967.55727,-0.00871
6969.48573,-0.14452
6971.41420,-0.24249
6973.34267,-0.32877
6975.27114,-0.32635
6977.19961,-0.17752
6979.12808,-0.08546
6981.05655,-0.09010
6982.98501,-0.08756
6984.91348,-0.05370
6986.84195,0.01470
6988.77042,0.13508
6990.69889,0.24300
6992.62736,0.26332
6994.55583,0.21056
6996.48430,0.15280
6998.41276,0.08219
7000.34123,-0.07905
7002.26970,-0.20025
7004.19817,-0.14346
7006.12664,-0.00890
7008.05511,0.07339
7009.98358,0.05741
7011.91204,-0.00265
7013.84051,0.02838
7015.76898,0.09204
7017.69745,0.01975
7019.62592,-0.06867
7021.55439,-0.02412
7023.48286,0.07514
7025.41133,0.12727
7027.33979,0.11945
7029.26826,0.00570
7031.19673,-0.15269
7033.12520,-0.19503
7035.05367,-0.09782
7036.98214,0.01404
7038.91061,0.06455
7040.83907,0.09921
7042.76754,0.18122
7044.69601,0.25566
7046.62448,0.19984
7048.55295,0.06532
7050.48142,0.05103
7052.40989,0.16778
7054.33836,0.25867
7056.26682,0.24841
7058.19529,0.14788
7060.12376,0.09863
7062.05223,0.20620
7063.98070,0.28496
7065.90917,0.21497
7067.83764,0.12784
7069.76610,0.09330
7071.69457,0.10852
7073.62304,0.07816
7075.55151,0.00215
7077.47998,-0.05415
7079.40845,-0.11940
7081.33692,-0.12036
7083.26539,0.05292
7085.19385,0.26475
7087.12232,0.31139
7089.05079,0.09870
7090.97926,-0.11596
7092.90773,-0.12002
7094.83620,-0.01621
7096.76467,0.03424
7098.69313,-0.00373
7100.62160,-0.10677
7102.55007,-0.15755
7104.47854,-0.10582
7106.40701,-0.03978
7108.33548,0.01741
7110.26395,0.04811
7112.19242,0.04879
7114.12088,0.07629
7116.04935,0.08462
7117.97782,0.09300
7119.90629,0.18005
7121.83476,0.19909
7123.76323,0.16033
7125.69170,0.16538
7127.62016,0.12083
7129.54863,-0.00642
7131.47710,-0.12930
7133.40557,-0.16268
7135.33404,-0.10033
7137.26251,-0.02132
7139.19098,0.05693
7141.11944,0.10557
7143.04791,0.13143
7144.97638,0.19548
7146.90485,0.22769
7148.83332,0.17235
7150.76179,0.04996
7152.69026,-0.04352
7154.61873,0.01124
7156.54719,0.09159
7158.47566,0.11997
7160.40413,0.14052
7162.33260,0.10476
7164.26107,-0.00151
7166.18954,-0.09113
7168.11801,-0.14064
7170.04647,-0.06933
7171.97494,0.07728
7173.90341,0.12049
7175.83188,0.08360
7177.76035,0.00695
7179.68882,-0.07252
7181.61729,-0.09954
7183.54576,-0.02737
7185.47422,0.09730
7187.40269,0.16647
7189.33116,0.13910
7191.25963,0.03608
7193.18810,-0.01686
7195.11657,-0.00128
7197.04504,-0.00335
7198.97350,-0.02798
7200.90197,-0.09050
7202.83044,-0.24405
7204.75891,-0.28560
7206.68738,-0.02222
7208.61585,0.16592
7210.54432,0.15481
7212.47279,0.11806
7214.40125,0.14580
7216.32972,0.14113
7218.25819,0.00081
7220.18666,-0.05852
7222.11513,0.05707
7224.04360,0.15310
7225.97207,0.16192
7227.90053,0.21277
7229.82900,0.32691
7231.75747,0.31596
7233.68594,0.11610
7235.61441,-0.05560
7237.54288,-0.08083
7239.47135,-0.00432
7241.39982,0.10845
7243.32828,0.18589
7245.25675,0.09751
7247.18522,-0.04486
7249.11369,-0.00548
7251.04216,0.22551
7252.97063,0.28943
7254.89910,0.08931
7256.82756,-0.00784
7258.75603,0.07424
7260.68450,0.23119
7262.61297,0.18021
7264.54144,-0.00160
7266.46991,-0.01553
7268.39838,0.01154
7270.32685,-0.02727
7272.25531,-0.06525
7274.18378,-0.09326
7276.11225,-0.11267
7278.04072,-0.12565
7279.96919,-0.11044
7281.89766,-0.07631
7283.82613,-0.14253
7285.75459,-0.20026
7287.68306,-0.12771
7289.61153,-0.00923
7291.54000,0.13348
7293.46847,0.23407
7295.39694,0.20915
7297.32541,0.20227
7299.25387,0.22314
7301.18234,0.16538
7303.11081,0.08787
7305.03928,0.06760
7306.96775,0.00276
7308.89622,-0.20596
7310.82469,-0.36618
7312.75316,-0.34797
7314.68162,-0.31346
7316.61009,-0.33542
7318.53856,-0.24418
7320.46703,-0.02483
7322.39550,0.13273
7324.32397,0.12517
7326.25244,0.06444
7328.18090,0.04123
7330.10937,0.00915
7332.03784,0.01123
7333.96631,0.04881
7335.89478,0.04152
7337.82325,0.08812
7339.75172,0.28026
7341.68019,0.34409
7343.60865,0.29175
7345.53712,0.31139
7347.46559,0.33507
7349.39406,0.34008
7351.32253,0.37301
7353.25100,0.41194
7355.17947,0.50389
7357.10793,0.63025
7359.03640,0.53648
7360.96487,0.20700
7362.89334,-0.01586
7364.82181,-0.05414
7366.75028,-0.07467
7368.67875,-0.10434
7370.60722,-0.05363
7372.53568,0.03323
7374.46415,0.14347
7376.39262,0.21550
7378.32109,0.10292
7380.24956,-0.06753
7382.17803,-0.17846
7384.10650,-0.24218
7386.03496,-0.23221
7387.96343,-0.13265
7389.89190,-0.02783
7391.82037,0.03210
7393.74884,0.03413
7395.67731,0.02768
7397.60578,0.11895
7399.53425,0.16009
7401.46271,-0.01185
7403.39118,-0.16122
7405.31965,-0.04573
7407.24812,0.13828
7409.17659,0.15397
7411.10506,0.03895
7413.03353,0.03099
7414.96199,0.15388
7416.89046,0.21272
7418.81893,0.14999
7420.74740,0.11665
7422.67587,0.09175
7424.60434,0.03339
7426.53281,0.00579
7428.46128,-0.04210
7430.38974,-0.13848
7432.31821,-0.11065
7434.24668,-0.06028
7436.17515,-0.11357
7438.10362,-0.09557
7440.03209,-0.00314
7441.96056,-0.06822
7443.88902,-0.23239
7445.81749,-0.34059
7447.74596,-0.29171
7449.67443,-0.07050
7451.60290,0.03657
7453.53137,-0.09240
7455.45984,-0.19155
7457.38831,-0.21743
7459.31677,-0.20006
7461.24524,-0.03523
7463.17371,0.16325
7465.10218,0.23371
7467.03065,0.25468
7468.95912,0.27446
7470.88759,0.27028
7472.81605,0.21101
7474.74452,0.17606
7476.67299,0.20637
7478.60146,0.13685
7480.52993,-0.07416
7482.45840,-0.16403
7484.38687,-0.07708
7486.31533,0.04818
7488.24380,0.17397
7490.17227,0.25605
7492.10074,0.25391
7494.02921,0.19617
7495.95768,0.10039
7497.88615,-0.00807
