399.19301,3.64269
401.12148,0.42274
403.04995,0.18106
404.97842,0.04116
406.90689,-0.05407
408.83536,0.15934
410.76382,0.60211
412.69229,0.87286
414.62076,0.83227
416.54923,0.29703
418.47770,-0.77961
420.40617,-0.99796
422.33464,-0.30343
424.26311,0.30696
426.19157,0.49565
428.12004,0.30534
430.04851,0.06317
431.97698,-0.03308
433.90545,-0.04048
435.83392,-0.09093
437.76239,-0.18994
439.69085,-0.15511
441.61932,0.04987
443.54779,0.16674
445.47626,0.14613
447.40473,0.14311
449.33320,0.12360
451.26167,0.04479
453.19013,-0.02950
455.11860,-0.01951
457.04707,0.04572
458.97554,0.06713
460.90401,0.09005
462.83248,0.15393
464.76095,0.17422
466.68942,0.11785
468.61788,0.04146
470.54635,0.42514
472.47482,3.43475
474.40329,7.44936
476.33176,4.94905
478.26023,1.41343
480.18870,0.25174
482.11716,0.13420
484.04563,0.08499
485.97410,0.13281
487.90257,0.20685
489.83104,0.17615
491.75951,0.09424
493.68798,0.09020
495.61645,0.11325
497.54491,0.11766
499.47338,0.10644
501.40185,0.08887
503.33032,0.07503
505.25879,0.08321
507.18726,0.11300
509.11573,0.11607
511.04419,0.07969
512.97266,0.05532
514.90113,0.06686
516.82960,0.07090
518.75807,0.07406
520.68654,0.10549
522.61501,0.14168
524.54348,0.13756
526.47194,0.10567
528.40041,0.09851
530.32888,0.11508
532.25735,0.13805
534.18582,0.15825
536.11429,0.16592
538.04276,0.15430
539.97122,0.14540
541.89969,0.12391
543.82816,0.08781
545.75663,0.08070
547.68510,0.09006
549.61357,0.09040
551.54204,0.08052
553.47051,0.08574
555.39897,0.12553
557.32744,0.15982
559.25591,0.17063
561.18438,0.18729
563.11285,0.17947
565.04132,0.13010
566.96979,0.09465
568.89825,0.08810
570.82672,0.09356
572.75519,0.10627
574.68366,0.11428
576.61213,0.11243
578.54060,0.10637
580.46907,0.10366
582.39754,0.11206
584.32600,0.13020
586.25447,0.15323
588.18294,0.16818
590.11141,0.17142
592.03988,0.17298
593.96835,0.16078
595.89682,0.14579
597.82528,0.14961
599.75375,0.14906
601.68222,0.12663
603.61069,0.10347
605.53916,0.09704
607.46763,0.10613
609.39610,0.13286
611.32456,0.16670
613.25303,0.17954
615.18150,0.16116
617.10997,0.13702
619.03844,0.13289
620.96691,0.13930
622.89538,0.13257
624.82385,0.11225
626.75231,0.10692
628.68078,0.13188
630.60925,0.15943
632.53772,0.15872
634.46619,0.13510
636.39466,0.11424
638.32313,0.11288
640.25159,0.13846
642.18006,0.17367
644.10853,0.18432
646.03700,0.16494
647.96547,0.14646
649.89394,0.14697
651.82241,0.15338
653.75088,0.15675
655.67934,0.14647
657.60781,0.12545
659.53628,0.12263
661.46475,0.13820
663.39322,0.14508
665.32169,0.14313
667.25016,0.15787
669.17862,0.18212
671.10709,0.16962
673.03556,0.14950
674.96403,0.13812
676.89250,0.12904
678.82097,0.12480
680.74944,0.12507
682.67791,0.12124
684.60637,0.12343
686.53484,0.13681
688.46331,0.14219
690.39178,0.13587
692.32025,0.14243
694.24872,0.16073
696.17719,0.16033
698.10565,0.14187
700.03412,0.13402
701.96259,0.14651
703.89106,0.16251
705.81953,0.16590
707.74800,0.16137
709.67647,0.17238
711.60494,0.20651
713.53340,0.22174
715.46187,0.19628
717.39034,0.16653
719.31881,0.15620
721.24728,0.16208
723.17575,0.16971
725.10422,0.16527
727.03268,0.15174
728.96115,0.13772
730.88962,0.13430
732.81809,0.15071
734.74656,0.16854
736.67503,0.16831
738.60350,0.15684
740.53197,0.14346
742.46043,0.14171
744.38890,0.15664
746.31737,0.17293
748.24584,0.18233
750.17431,0.18330
752.10278,0.17543
754.03125,0.16217
755.95971,0.14887
757.88818,0.14276
759.81665,0.14299
761.74512,0.14609
763.67359,0.14777
765.60206,0.14112
767.53053,0.13281
769.45900,0.13675
771.38746,0.14696
773.31593,0.14433
775.24440,0.12578
777.17287,0.10845
779.10134,0.11036
781.02981,0.12604
782.95828,0.13919
784.88674,0.14496
786.81521,0.14627
788.74368,0.14033
790.67215,0.11938
792.60062,0.10317
794.52909,0.11768
796.45756,0.14176
798.38602,0.14555
800.31449,0.13754
802.24296,0.13652
804.17143,0.14182
806.09990,0.14558
808.02837,0.14407
809.95684,0.14178
811.88531,0.14062
813.81377,0.12973
815.74224,0.11608
817.67071,0.11718
819.59918,0.12603
821.52765,0.13711
823.45612,0.15327
825.38459,0.16144
827.31305,0.15679
829.24152,0.15037
831.16999,0.15402
833.09846,0.17249
835.02693,0.18357
836.95540,0.16828
838.88387,0.14757
840.81234,0.14549
842.74080,0.15189
844.66927,0.14933
846.59774,0.14251
848.52621,0.14181
850.45468,0.14705
852.38315,0.15057
854.31162,0.15031
856.24008,0.15008
858.16855,0.15106
860.09702,0.15247
862.02549,0.15245
863.95396,0.15061
865.88243,0.14459
867.81090,0.10181
869.73937,0.02252
871.66783,0.00973
873.59630,0.08218
875.52477,0.13343
877.45324,0.14416
879.38171,0.15066
881.31018,0.15348
883.23865,0.15347
885.16711,0.15392
887.09558,0.15246
889.02405,0.14725
890.95252,0.14497
892.88099,0.15012
894.80946,0.15809
896.73793,0.16228
898.66640,0.16065
900.59486,0.15793
902.52333,0.15897
904.45180,0.16460
906.38027,0.17058
908.30874,0.17129
910.23721,0.16894
912.16568,0.17061
914.09414,0.17065
916.02261,0.16348
917.95108,0.15867
919.87955,0.15848
921.80802,0.15480
923.73649,0.14983
925.66496,0.15138
927.59343,0.15405
929.52189,0.15247
931.45036,0.15466
933.37883,0.15999
935.30730,0.15787
937.23577,0.15448
939.16424,0.15906
941.09271,0.16203
943.02117,0.15816
944.94964,0.15532
946.87811,0.15811
948.80658,0.16347
950.73505,0.16595
952.66352,0.16311
954.59199,0.15926
956.52045,0.15870
958.44892,0.15668
960.37739,0.15729
962.30586,0.16885
964.23433,0.17770
966.16280,0.16740
968.09127,0.14654
970.01974,0.13648
971.94820,0.14471
973.87667,0.15675
975.80514,0.16016
977.73361,0.15876
979.66208,0.15611
981.59055,0.15219
983.51902,0.14831
985.44748,0.14785
987.37595,0.15810
989.30442,0.17472
991.23289,0.17979
993.16136,0.17554
995.08983,0.17542
997.01830,0.17277
998.94677,0.16455
1000.87523,0.15897
1002.80370,0.16139
1004.73217,0.17042
1006.66064,0.17517
1008.58911,0.17029
1010.51758,0.16053
1012.44605,0.15280
1014.37451,0.15316
1016.30298,0.15916
1018.23145,0.16258
1020.15992,0.16579
1022.08839,0.17033
1024.01686,0.16407
1025.94533,0.10856
1027.87380,0.00706
1029.80226,-0.01142
1031.73073,0.08521
1033.65920,0.15648
1035.58767,0.16352
1037.51614,0.15849
1039.44461,0.15631
1041.37308,0.15989
1043.30154,0.16984
1045.23001,0.17749
1047.15848,0.17386
1049.08695,0.16584
1051.01542,0.16711
1052.94389,0.17504
1054.87236,0.17790
1056.80083,0.17620
1058.72929,0.17690
1060.65776,0.17955
1062.58623,0.17941
1064.51470,0.17627
1066.44317,0.17656
1068.37164,0.17923
1070.30011,0.17939
1072.22857,0.18265
1074.15704,0.19061
1076.08551,0.19436
1078.01398,0.19592
1079.94245,0.19920
1081.87092,0.19683
1083.79939,0.18753
1085.72786,0.17833
1087.65632,0.18042
1089.58479,0.19183
1091.51326,0.19126
1093.44173,0.17528
1095.37020,0.16538
1097.29867,0.17014
1099.22714,0.17465
1101.15560,0.17088
1103.08407,0.17089
1105.01254,0.18278
1106.94101,0.19238
1108.86948,0.18619
1110.79795,0.17508
1112.72642,0.17366
1114.65489,0.17621
1116.58335,0.17223
1118.51182,0.16703
1120.44029,0.16936
1122.36876,0.17691
1124.29723,0.17994
1126.22570,0.17681
1128.15417,0.17736
1130.08263,0.18039
1132.01110,0.17889
1133.93957,0.17529
1135.86804,0.17118
1137.79651,0.16946
1139.72498,0.17190
1141.65345,0.17155
1143.58191,0.16825
1145.51038,0.16974
1147.43885,0.17614
1149.36732,0.18033
1151.29579,0.17980
1153.22426,0.17983
1155.15273,0.18246
1157.08120,0.18659
1159.00966,0.18842
1160.93813,0.18204
1162.86660,0.17378
1164.79507,0.17291
1166.72354,0.17622
1168.65201,0.17722
1170.58048,0.17637
1172.50894,0.17751
1174.43741,0.18038
1176.36588,0.18187
1178.29435,0.17976
1180.22282,0.17588
1182.15129,0.17376
1184.07976,0.17646
1186.00823,0.18364
1187.93669,0.18690
1189.86516,0.18415
1191.79363,0.18183
1193.72210,0.18148
1195.65057,0.18134
1197.57904,0.17952
1199.50751,0.17567
1201.43597,0.17355
1203.36444,0.17617
1205.29291,0.18131
1207.22138,0.18496
1209.14985,0.18505
1211.07832,0.18378
1213.00679,0.18441
1214.93526,0.18463
1216.86372,0.18383
1218.79219,0.18542
1220.72066,0.18699
1222.64913,0.18336
1224.57760,0.17760
1226.50607,0.17706
1228.43454,0.17977
1230.36300,0.18064
1232.29147,0.18199
1234.21994,0.18435
1236.14841,0.18325
1238.07688,0.18075
1240.00535,0.18277
1241.93382,0.18453
1243.86229,0.17973
1245.79075,0.17447
1247.71922,0.17411
1249.64769,0.17303
1251.57616,0.16727
1253.50463,0.16535
1255.43310,0.17101
1257.36157,0.17661
1259.29003,0.17911
1261.21850,0.18022
1263.14697,0.18128
1265.07544,0.18346
1267.00391,0.18670
1268.93238,0.18763
1270.86085,0.18577
1272.78932,0.18482
1274.71778,0.18422
1276.64625,0.18408
1278.57472,0.18472
1280.50319,0.18303
1282.43166,0.18035
1284.36013,0.18069
1286.28860,0.18325
1288.21706,0.18718
1290.14553,0.19228
1292.07400,0.19251
1294.00247,0.18772
1295.93094,0.18448
1297.85941,0.18394
1299.78788,0.18383
1301.71634,0.17976
1303.64481,0.17240
1305.57328,0.17086
1307.50175,0.17788
1309.43022,0.18647
1311.35869,0.19220
1313.28716,0.19436
1315.21563,0.19166
1317.14409,0.18730
1319.07256,0.18728
1321.00103,0.18935
1322.92950,0.18881
1324.85797,0.18722
1326.78644,0.18638
1328.71491,0.18628
1330.64337,0.18507
1332.57184,0.18389
1334.50031,0.18562
1336.42878,0.18806
1338.35725,0.18950
1340.28572,0.18785
1342.21419,0.18218
1344.14266,0.17407
1346.07112,0.16939
1347.99959,0.17471
1349.92806,0.17994
1351.85653,0.17874
1353.78500,0.17932
1355.71347,0.18128
1357.64194,0.18235
1359.57040,0.18613
1361.49887,0.19143
1363.42734,0.19162
1365.35581,0.18875
1367.28428,0.18973
1369.21275,0.19206
1371.14122,0.19218
1373.06969,0.19273
1374.99815,0.19233
1376.92662,0.19007
1378.85509,0.19141
1380.78356,0.19407
1382.71203,0.19378
1384.64050,0.19434
1386.56897,0.20020
1388.49743,0.20584
1390.42590,0.20220
1392.35437,0.19591
1394.28284,0.19656
1396.21131,0.20004
1398.13978,0.19751
1400.06825,0.19101
1401.99672,0.18712
1403.92518,0.18872
1405.85365,0.19209
1407.78212,0.19301
1409.71059,0.19280
1411.63906,0.19295
1413.56753,0.19460
1415.49600,0.19820
1417.42446,0.20298
1419.35293,0.20209
1421.28140,0.19701
1423.20987,0.19860
1425.13834,0.20106
1427.06681,0.20069
1428.99528,0.20129
1430.92375,0.19972
1432.85221,0.19849
1434.78068,0.20235
1436.70915,0.20433
1438.63762,0.20062
1440.56609,0.19950
1442.49456,0.20080
1444.42303,0.20209
1446.35149,0.20275
1448.27996,0.20004
1450.20843,0.19638
1452.13690,0.19895
1454.06537,0.21054
1455.99384,0.22951
1457.92231,0.23400
1459.85077,0.21622
1461.77924,0.20670
1463.70771,0.20992
1465.63618,0.21244
1467.56465,0.20673
1469.49312,0.20613
1471.42159,0.21743
1473.35006,0.23084
1475.27852,0.22818
1477.20699,0.21604
1479.13546,0.20623
1481.06393,0.20307
1482.99240,0.20466
1484.92087,0.20903
1486.84934,0.21671
1488.77780,0.22385
1490.70627,0.22015
1492.63474,0.21346
1494.56321,0.21449
1496.49168,0.22030
1498.42015,0.22098
1500.34862,0.21568
1502.27709,0.21616
1504.20555,0.22815
1506.13402,0.24468
1508.06249,0.23487
1509.99096,0.21408
1511.91943,0.20730
1513.84790,0.21570
1515.77637,0.23215
1517.70483,0.24405
1519.63330,0.25100
1521.56177,0.24954
1523.49024,0.23062
1525.41871,0.21567
1527.34718,0.21175
1529.27565,0.21085
1531.20412,0.21111
1533.13258,0.21555
1535.06105,0.22181
1536.98952,0.23158
1538.91799,0.25487
1540.84646,0.27591
1542.77493,0.25850
1544.70340,0.23091
1546.63186,0.21546
1548.56033,0.21345
1550.48880,0.21273
1552.41727,0.21010
1554.34574,0.21357
1556.27421,0.22842
1558.20268,0.25554
1560.13115,0.24971
1562.05961,0.22647
1563.98808,0.21710
1565.91655,0.21337
1567.84502,0.21190
1569.77349,0.21194
1571.70196,0.21192
1573.63043,0.21520
1575.55889,0.21925
1577.48736,0.21178
1579.41583,0.19847
1581.34430,0.19131
1583.27277,0.19128
1585.20124,0.19307
1587.12971,0.19363
1589.05818,0.19499
1590.98664,0.19747
1592.91511,0.19700
1594.84358,0.19229
1596.77205,0.18923
1598.70052,0.19017
1600.62899,0.19038
1602.55746,0.19097
1604.48592,0.19492
1606.41439,0.19661
1608.34286,0.19627
1610.27133,0.19903
1612.19980,0.20151
1614.12827,0.20448
1616.05674,0.21215
1617.98521,0.21422
1619.91367,0.21164
1621.84214,0.21777
1623.77061,0.22739
1625.69908,0.22600
1627.62755,0.21696
1629.55602,0.20814
1631.48449,0.20569
1633.41295,0.21404
1635.34142,0.23151
1637.26989,0.23177
1639.19836,0.21834
1641.12683,0.21215
1643.05530,0.21611
1644.98377,0.22915
1646.91223,0.24202
1648.84070,0.24367
1650.76917,0.24957
1652.69764,0.25941
1654.62611,0.24183
1656.55458,0.22093
1658.48305,0.21354
1660.41152,0.21608
1662.33998,0.21911
1664.26845,0.21576
1666.19692,0.21603
1668.12539,0.22584
1670.05386,0.23425
1671.98233,0.22867
1673.91080,0.22086
1675.83926,0.21729
1677.76773,0.21895
1679.69620,0.22446
1681.62467,0.23290
1683.55314,0.24254
1685.48161,0.23896
1687.41008,0.23041
1689.33855,0.22676
1691.26701,0.22493
1693.19548,0.22834
1695.12395,0.23616
1697.05242,0.23655
1698.98089,0.23209
1700.90936,0.22843
1702.83783,0.22535
1704.76629,0.22486
1706.69476,0.22000
1708.62323,0.21103
1710.55170,0.20616
1712.48017,0.20918
1714.40864,0.22202
1716.33711,0.23572
1718.26558,0.22768
1720.19404,0.21174
1722.12251,0.20670
1724.05098,0.20866
1725.97945,0.21053
1727.90792,0.21190
1729.83639,0.21539
1731.76486,0.22253
1733.69332,0.22999
1735.62179,0.22560
1737.55026,0.21933
1739.47873,0.21983
1741.40720,0.22160
1743.33567,0.22079
1745.26414,0.22315
1747.19261,0.23009
1749.12107,0.23362
1751.04954,0.22609
1752.97801,0.21608
1754.90648,0.21276
1756.83495,0.21227
1758.76342,0.21090
1760.69189,0.21141
1762.62035,0.21124
1764.54882,0.20864
1766.47729,0.20784
1768.40576,0.21013
1770.33423,0.21696
1772.26270,0.22351
1774.19117,0.21813
1776.11964,0.20965
1778.04810,0.20883
1779.97657,0.21394
1781.90504,0.21559
1783.83351,0.21170
1785.76198,0.20810
1787.69045,0.20782
1789.61892,0.21147
1791.54738,0.22013
1793.47585,0.22691
1795.40432,0.22364
1797.33279,0.21681
1799.26126,0.21358
1801.18973,0.21335
1803.11820,0.21037
1805.04666,0.20541
1806.97513,0.20443
1808.90360,0.20944
1810.83207,0.21457
1812.76054,0.21377
1814.68901,0.20849
1816.61748,0.21082
1818.54595,0.23754
1820.47441,0.26708
1822.40288,0.26039
1824.33135,0.23141
1826.25982,0.21985
1828.18829,0.22384
1830.11676,0.22340
1832.04523,0.21490
1833.97369,0.20858
1835.90216,0.20992
1837.83063,0.21310
1839.75910,0.21285
1841.68757,0.21434
1843.61604,0.21966
1845.54451,0.21980
1847.47298,0.21424
1849.40144,0.20999
1851.32991,0.20806
1853.25838,0.20776
1855.18685,0.20840
1857.11532,0.20853
1859.04379,0.20713
1860.97226,0.20596
1862.90072,0.20646
1864.82919,0.20955
1866.75766,0.21656
1868.68613,0.22120
1870.61460,0.21542
1872.54307,0.20680
1874.47154,0.20298
1876.40001,0.20317
1878.32847,0.20437
1880.25694,0.20588
1882.18541,0.20796
1884.11388,0.21036
1886.04235,0.21238
1887.97082,0.21418
1889.89929,0.21285
1891.82775,0.20727
1893.75622,0.20390
1895.68469,0.20427
1897.61316,0.20471
1899.54163,0.20495
1901.47010,0.20633
1903.39857,0.20853
1905.32704,0.21083
1907.25550,0.21195
1909.18397,0.21084
1911.11244,0.20856
1913.04091,0.20715
1914.96938,0.20800
1916.89785,0.20989
1918.82632,0.21002
1920.75478,0.20947
1922.68325,0.21006
1924.61172,0.21102
1926.54019,0.21123
1928.46866,0.21024
1930.39713,0.21039
1932.32560,0.21235
1934.25407,0.21186
1936.18253,0.20899
1938.11100,0.20770
1940.03947,0.20853
1941.96794,0.20905
1943.89641,0.20725
1945.82488,0.20623
1947.75335,0.20700
1949.68181,0.20651
1951.61028,0.20562
1953.53875,0.20528
1955.46722,0.20472
1957.39569,0.20562
1959.32416,0.20893
1961.25263,0.21109
1963.18110,0.20997
1965.10956,0.20977
1967.03803,0.21181
1968.96650,0.21127
1970.89497,0.20799
1972.82344,0.20551
1974.75191,0.20249
1976.68038,0.19797
1978.60884,0.19467
1980.53731,0.19505
1982.46578,0.20128
1984.39425,0.20902
1986.32272,0.21242
1988.25119,0.21273
1990.17966,0.21120
1992.10812,0.20835
1994.03659,0.20577
1995.96506,0.20455
1997.89353,0.20469
1999.82200,0.20508
2001.75047,0.20629
2003.67894,0.20855
2005.60741,0.21013
2007.53587,0.20980
2009.46434,0.20771
2011.39281,0.20595
2013.32128,0.20627
2015.24975,0.20776
2017.17822,0.20907
2019.10669,0.20932
2021.03515,0.20851
2022.96362,0.20807
2024.89209,0.20761
2026.82056,0.20569
2028.74903,0.20429
2030.67750,0.20535
2032.60597,0.20631
2034.53444,0.20545
2036.46290,0.20507
2038.39137,0.20753
2040.31984,0.21138
2042.24831,0.21315
2044.17678,0.21248
2046.10525,0.20986
2048.03372,0.20666
2049.96218,0.20629
2051.89065,0.20870
2053.81912,0.21070
2055.74759,0.21037
2057.67606,0.20903
2059.60453,0.20972
2061.53300,0.21185
2063.46147,0.21323
2065.38993,0.21402
2067.31840,0.21306
2069.24687,0.20941
2071.17534,0.20628
2073.10381,0.20722
2075.03228,0.20982
2076.96075,0.20942
2078.88921,0.20748
2080.81768,0.20636
2082.74615,0.20567
2084.67462,0.20596
2086.60309,0.20711
2088.53156,0.20742
2090.46003,0.20660
2092.38850,0.20647
2094.31696,0.20674
2096.24543,0.20628
2098.17390,0.20608
2100.10237,0.20657
2102.03084,0.20654
2103.95931,0.20568
2105.88778,0.20685
2107.81624,0.21086
2109.74471,0.21349
2111.67318,0.21232
2113.60165,0.21024
2115.53012,0.20927
2117.45859,0.20828
2119.38706,0.20770
2121.31553,0.20700
2123.24399,0.20611
2125.17246,0.20829
2127.10093,0.21161
2129.02940,0.21153
2130.95787,0.20990
2132.88634,0.20934
2134.81481,0.20920
2136.74327,0.20881
2138.67174,0.20826
2140.60021,0.20792
2142.52868,0.20731
2144.45715,0.20612
2146.38562,0.20454
2148.31409,0.20339
2150.24255,0.20490
2152.17102,0.20857
2154.09949,0.21029
2156.02796,0.20891
2157.95643,0.20745
2159.88490,0.20798
2161.81337,0.20937
2163.74184,0.20893
2165.67030,0.20822
2167.59877,0.21046
2169.52724,0.21163
2171.45571,0.20872
2173.38418,0.20663
2175.31265,0.20795
2177.24112,0.21019
2179.16958,0.21189
2181.09805,0.21106
2183.02652,0.20842
2184.95499,0.20821
2186.88346,0.20853
2188.81193,0.20715
2190.74040,0.20677
2192.66887,0.20805
2194.59733,0.20940
2196.52580,0.20968
2198.45427,0.20841
2200.38274,0.20615
2202.31121,0.20497
2204.23968,0.20599
2206.16815,0.20782
2208.09661,0.20903
2210.02508,0.20955
2211.95355,0.20988
2213.88202,0.20817
2215.81049,0.20335
2217.73896,0.20074
2219.66743,0.20423
2221.59590,0.20831
2223.52436,0.20809
2225.45283,0.20676
2227.38130,0.20663
2229.30977,0.20597
2231.23824,0.20489
2233.16671,0.20535
2235.09518,0.20743
2237.02364,0.20912
2238.95211,0.20933
2240.88058,0.20979
2242.80905,0.21176
2244.73752,0.21256
2246.66599,0.20965
2248.59446,0.20595
2250.52293,0.20587
2252.45139,0.20783
2254.37986,0.20756
2256.30833,0.20688
2258.23680,0.20780
2260.16527,0.20686
2262.09374,0.20408
2264.02221,0.20366
2265.95067,0.20616
2267.87914,0.20791
2269.80761,0.20675
2271.73608,0.20604
2273.66455,0.20868
2275.59302,0.21049
2277.52149,0.20848
2279.44996,0.20546
2281.37842,0.20377
2283.30689,0.20468
2285.23536,0.20776
2287.16383,0.21136
2289.09230,0.21351
2291.02077,0.21246
2292.94924,0.21215
2294.87770,0.21457
2296.80617,0.21205
2298.73464,0.20464
2300.66311,0.20267
2302.59158,0.20574
2304.52005,0.20827
2306.44852,0.21038
2308.37699,0.21055
2310.30545,0.20869
2312.23392,0.20785
2314.16239,0.20835
2316.09086,0.20859
2318.01933,0.20614
2319.94780,0.20251
2321.87627,0.20444
2323.80473,0.21334
2325.73320,0.22493
2327.66167,0.23106
2329.59014,0.22330
2331.51861,0.21168
2333.44708,0.20807
2335.37555,0.20260
2337.30401,0.19075
2339.23248,0.18436
2341.16095,0.19035
2343.08942,0.20378
2345.01789,0.21279
2346.94636,0.21121
2348.87483,0.20676
2350.80330,0.20582
2352.73176,0.20923
2354.66023,0.21574
2356.58870,0.22776
2358.51717,0.23516
2360.44564,0.22735
2362.37411,0.22175
2364.30258,0.21856
2366.23104,0.20799
2368.15951,0.19933
2370.08798,0.20340
2372.01645,0.21333
2373.94492,0.21506
2375.87339,0.21108
2377.80186,0.20773
2379.73033,0.20470
2381.65879,0.20427
2383.58726,0.20639
2385.51573,0.20709
2387.44420,0.20554
2389.37267,0.20397
2391.30114,0.20460
2393.22961,0.20658
2395.15807,0.20775
2397.08654,0.20866
2399.01501,0.20873
2400.94348,0.20617
2402.87195,0.20437
2404.80042,0.20632
2406.72889,0.20855
2408.65736,0.20860
2410.58582,0.20783
2412.51429,0.20774
2414.44276,0.20768
2416.37123,0.20674
2418.29970,0.20606
2420.22817,0.20580
2422.15664,0.20571
2424.08510,0.20644
2426.01357,0.20762
2427.94204,0.20763
2429.87051,0.20663
2431.79898,0.20642
2433.72745,0.20677
2435.65592,0.20766
2437.58439,0.20979
2439.51285,0.21131
2441.44132,0.21059
2443.36979,0.21056
2445.29826,0.21287
2447.22673,0.21450
2449.15520,0.21429
2451.08367,0.21477
2453.01213,0.21750
2454.94060,0.21906
2456.86907,0.21788
2458.79754,0.21687
2460.72601,0.21530
2462.65448,0.21296
2464.58295,0.21290
2466.51142,0.21422
2468.43988,0.21429
2470.36835,0.21393
2472.29682,0.21439
2474.22529,0.21355
2476.15376,0.20984
2478.08223,0.20636
2480.01070,0.20603
2481.93916,0.20793
2483.86763,0.21030
2485.79610,0.21258
2487.72457,0.21415
2489.65304,0.21247
2491.58151,0.20819
2493.50998,0.20741
2495.43844,0.21127
2497.36691,0.21375
2499.29538,0.21301
2501.22385,0.21272
2503.15232,0.21309
2505.08079,0.21250
2507.00926,0.21203
2508.93773,0.21132
2510.86619,0.20886
2512.79466,0.20684
2514.72313,0.20731
2516.65160,0.20862
2518.58007,0.21080
2520.50854,0.21410
2522.43701,0.21578
2524.36547,0.21563
2526.29394,0.21611
2528.22241,0.21566
2530.15088,0.21162
2532.07935,0.20754
2534.00782,0.20708
2535.93629,0.20888
2537.86476,0.21144
2539.79322,0.21385
2541.72169,0.21521
2543.65016,0.21518
2545.57863,0.21470
2547.50710,0.21513
2549.43557,0.21449
2551.36404,0.21206
2553.29250,0.21206
2555.22097,0.21498
2557.14944,0.21580
2559.07791,0.21359
2561.00638,0.21319
2562.93485,0.21507
2564.86332,0.21341
2566.79179,0.20907
2568.72025,0.20815
2570.64872,0.21110
2572.57719,0.21419
2574.50566,0.21459
2576.43413,0.21330
2578.36260,0.21183
2580.29107,0.21100
2582.21953,0.21253
2584.14800,0.21492
2586.07647,0.21510
2588.00494,0.21399
2589.93341,0.21298
2591.86188,0.21117
2593.79035,0.21038
2595.71882,0.21333
2597.64728,0.21629
2599.57575,0.21434
2601.50422,0.21157
2603.43269,0.21381
2605.36116,0.21794
2607.28963,0.21868
2609.21810,0.21698
2611.14656,0.21656
2613.07503,0.21552
2615.00350,0.21308
2616.93197,0.21350
2618.86044,0.21502
2620.78891,0.21411
2622.71738,0.21203
2624.64585,0.21239
2626.57431,0.21640
2628.50278,0.21924
2630.43125,0.21851
2632.35972,0.21689
2634.28819,0.21542
2636.21666,0.21504
2638.14513,0.21747
2640.07359,0.22026
2642.00206,0.22030
2643.93053,0.21885
2645.85900,0.21868
2647.78747,0.21967
2649.71594,0.21967
2651.64441,0.21901
2653.57288,0.21740
2655.50134,0.21452
2657.42981,0.21325
2659.35828,0.21488
2661.28675,0.21808
2663.21522,0.22022
2665.14369,0.21917
2667.07216,0.21621
2669.00062,0.21518
2670.92909,0.21759
2672.85756,0.21963
2674.78603,0.21906
2676.71450,0.21864
2678.64297,0.21806
2680.57144,0.21680
2682.49990,0.21832
2684.42837,0.21962
2686.35684,0.21814
2688.28531,0.21874
2690.21378,0.22054
2692.14225,0.22032
2694.07072,0.21960
2695.99919,0.21901
2697.92765,0.21895
2699.85612,0.21961
2701.78459,0.21994
2703.71306,0.22111
2705.64153,0.22250
2707.57000,0.22205
2709.49847,0.22173
2711.42693,0.22159
2713.35540,0.22071
2715.28387,0.22076
2717.21234,0.22021
2719.14081,0.21883
2721.06928,0.21987
2722.99775,0.22237
2724.92622,0.22327
2726.85468,0.22291
2728.78315,0.22201
2730.71162,0.21951
2732.64009,0.21735
2734.56856,0.21920
2736.49703,0.22247
2738.42550,0.22223
2740.35396,0.21947
2742.28243,0.21872
2744.21090,0.22125
2746.13937,0.22302
2748.06784,0.22137
2749.99631,0.21843
2751.92478,0.21706
2753.85325,0.21922
2755.78171,0.22360
2757.71018,0.22641
2759.63865,0.22608
2761.56712,0.22327
2763.49559,0.22060
2765.42406,0.22025
2767.35253,0.22164
2769.28099,0.22374
2771.20946,0.22583
2773.13793,0.22837
2775.06640,0.23097
2776.99487,0.23067
2778.92334,0.22780
2780.85181,0.22635
2782.78028,0.22719
2784.70874,0.22798
2786.63721,0.22776
2788.56568,0.22740
2790.49415,0.22734
2792.42262,0.22749
2794.35109,0.22831
2796.27956,0.22931
2798.20802,0.22947
2800.13649,0.22947
2802.06496,0.23018
2803.99343,0.23100
2805.92190,0.23004
2807.85037,0.22652
2809.77884,0.22385
2811.70731,0.22460
2813.63577,0.22551
2815.56424,0.22430
2817.49271,0.22422
2819.42118,0.22669
2821.34965,0.22897
2823.27812,0.22980
2825.20659,0.22930
2827.13505,0.22818
2829.06352,0.22899
2830.99199,0.23207
2832.92046,0.23526
2834.84893,0.23722
2836.77740,0.23618
2838.70587,0.23326
2840.63433,0.23256
2842.56280,0.23295
2844.49127,0.23158
2846.41974,0.22923
2848.34821,0.22806
2850.27668,0.22974
2852.20515,0.23034
2854.13362,0.22744
2856.06208,0.22644
2857.99055,0.22762
2859.91902,0.22675
2861.84749,0.22643
2863.77596,0.23030
2865.70443,0.23327
2867.63290,0.23108
2869.56136,0.22965
2871.48983,0.23158
2873.41830,0.23153
2875.34677,0.22881
2877.27524,0.22854
2879.20371,0.23208
2881.13218,0.23390
2883.06065,0.23083
2884.98911,0.22639
2886.91758,0.22365
2888.84605,0.22493
2890.77452,0.23020
2892.70299,0.23323
2894.63146,0.23015
2896.55993,0.22486
2898.48839,0.22241
2900.41686,0.22459
2902.34533,0.22916
2904.27380,0.23158
2906.20227,0.23065
2908.13074,0.22878
2910.05921,0.22874
2911.98768,0.23171
2913.91614,0.23334
2915.84461,0.23032
2917.77308,0.22659
2919.70155,0.22466
2921.63002,0.22555
2923.55849,0.22538
2925.48696,0.21982
2927.41542,0.21937
2929.34389,0.22374
2931.27236,0.22146
2933.20083,0.21975
2935.12930,0.22268
2937.05777,0.22324
2938.98624,0.22337
2940.91471,0.22567
2942.84317,0.22696
2944.77164,0.22473
2946.70011,0.22214
2948.62858,0.22484
2950.55705,0.23006
2952.48552,0.23160
2954.41399,0.22967
2956.34245,0.22545
2958.27092,0.22261
2960.19939,0.22685
2962.12786,0.23312
2964.05633,0.23303
2965.98480,0.22849
2967.91327,0.22488
2969.84174,0.22465
2971.77020,0.22563
2973.69867,0.22386
2975.62714,0.22083
2977.55561,0.21947
2979.48408,0.22117
2981.41255,0.22555
2983.34102,0.23021
2985.26948,0.23287
2987.19795,0.23014
2989.12642,0.22619
2991.05489,0.22925
2992.98336,0.23403
2994.91183,0.23391
2996.84030,0.23135
2998.76877,0.22954
3000.69723,0.23238
3002.62570,0.23661
3004.55417,0.23391
3006.48264,0.22862
3008.41111,0.22787
3010.33958,0.22897
3012.26805,0.22567
3014.19651,0.21136
3016.12498,0.19327
3018.05345,0.19333
3019.98192,0.21192
3021.91039,0.23000
3023.83886,0.23963
3025.76733,0.23926
3027.69579,0.23362
3029.62426,0.23157
3031.55273,0.23378
3033.48120,0.23714
3035.40967,0.23926
3037.33814,0.23927
3039.26661,0.23873
3041.19508,0.23830
3043.12354,0.23722
3045.05201,0.23500
3046.98048,0.23126
3048.90895,0.22958
3050.83742,0.23229
3052.76589,0.23342
3054.69436,0.23060
3056.62282,0.22787
3058.55129,0.22904
3060.47976,0.23331
3062.40823,0.23628
3064.33670,0.23591
3066.26517,0.23250
3068.19364,0.22964
3070.12211,0.22988
3072.05057,0.23170
3073.97904,0.23103
3075.90751,0.22649
3077.83598,0.22700
3079.76445,0.23554
3081.69292,0.24050
3083.62139,0.23438
3085.54985,0.22590
3087.47832,0.22676
3089.40679,0.23379
3091.33526,0.23603
3093.26373,0.23028
3095.19220,0.22683
3097.12067,0.23239
3099.04914,0.23859
3100.97760,0.23800
3102.90607,0.23046
3104.83454,0.22731
3106.76301,0.23570
3108.69148,0.24012
3110.61995,0.23171
3112.54842,0.22473
3114.47688,0.22734
3116.40535,0.22925
3118.33382,0.22536
3120.26229,0.22144
3122.19076,0.22156
3124.11923,0.22796
3126.04770,0.23633
3127.97617,0.24042
3129.90463,0.24167
3131.83310,0.24201
3133.76157,0.24078
3135.69004,0.23938
3137.61851,0.23815
3139.54698,0.23642
3141.47545,0.23542
3143.40391,0.23504
3145.33238,0.23496
3147.26085,0.23675
3149.18932,0.24040
3151.11779,0.24181
3153.04626,0.23943
3154.97473,0.23675
3156.90320,0.23603
3158.83166,0.23868
3160.76013,0.24378
3162.68860,0.24653
3164.61707,0.24410
3166.54554,0.23992
3168.47401,0.23760
3170.40248,0.23809
3172.33094,0.24052
3174.25941,0.24035
3176.18788,0.23860
3178.11635,0.24069
3180.04482,0.24494
3181.97329,0.24526
3183.90176,0.24083
3185.83022,0.23860
3187.75869,0.24239
3189.68716,0.24693
3191.61563,0.24770
3193.54410,0.24770
3195.47257,0.24850
3197.40104,0.24761
3199.32951,0.24486
3201.25797,0.24142
3203.18644,0.24103
3205.11491,0.24336
3207.04338,0.24135
3208.97185,0.23625
3210.90032,0.23589
3212.82879,0.23954
3214.75725,0.24096
3216.68572,0.23891
3218.61419,0.23653
3220.54266,0.23737
3222.47113,0.24135
3224.39960,0.24265
3226.32807,0.23879
3228.25654,0.23554
3230.18500,0.23772
3232.11347,0.24308
3234.04194,0.24809
3235.97041,0.25132
3237.89888,0.25116
3239.82735,0.24828
3241.75582,0.24481
3243.68428,0.24274
3245.61275,0.24182
3247.54122,0.24028
3249.46969,0.24019
3251.39816,0.24157
3253.32663,0.24383
3255.25510,0.24701
3257.18357,0.24754
3259.11203,0.24498
3261.04050,0.24091
3262.96897,0.23727
3264.89744,0.23499
3266.82591,0.23371
3268.75438,0.23574
3270.68285,0.23943
3272.61131,0.24085
3274.53978,0.24159
3276.46825,0.24278
3278.39672,0.23940
3280.32519,0.23289
3282.25366,0.23269
3284.18213,0.23697
3286.11060,0.23783
3288.03906,0.23582
3289.96753,0.23378
3291.89600,0.23285
3293.82447,0.23283
3295.75294,0.23326
3297.68141,0.23481
3299.60988,0.23641
3301.53834,0.23875
3303.46681,0.24025
3305.39528,0.23595
3307.32375,0.23092
3309.25222,0.23001
3311.18069,0.23010
3313.10916,0.23219
3315.03763,0.23444
3316.96609,0.23275
3318.89456,0.23293
3320.82303,0.23913
3322.75150,0.24542
3324.67997,0.24603
3326.60844,0.24398
3328.53691,0.24466
3330.46537,0.24223
3332.39384,0.23628
3334.32231,0.23892
3336.25078,0.24788
3338.17925,0.25043
3340.10772,0.24639
3342.03619,0.24431
3343.96466,0.24504
3345.89312,0.24321
3347.82159,0.23974
3349.75006,0.23849
3351.67853,0.23904
3353.60700,0.24052
3355.53547,0.24379
3357.46394,0.24761
3359.39240,0.24826
3361.32087,0.24286
3363.24934,0.23493
3365.17781,0.23074
3367.10628,0.23101
3369.03475,0.23576
3370.96322,0.24327
3372.89168,0.24611
3374.82015,0.24183
3376.74862,0.23632
3378.67709,0.23304
3380.60556,0.23126
3382.53403,0.23303
3384.46250,0.24004
3386.39097,0.24554
3388.31943,0.24335
3390.24790,0.23994
3392.17637,0.24155
3394.10484,0.24467
3396.03331,0.24543
3397.96178,0.24063
3399.89025,0.23206
3401.81871,0.22963
3403.74718,0.23316
3405.67565,0.23207
3407.60412,0.22771
3409.53259,0.22919
3411.46106,0.23535
3413.38953,0.24213
3415.31800,0.24658
3417.24646,0.24482
3419.17493,0.24105
3421.10340,0.23907
3423.03187,0.23673
3424.96034,0.23311
3426.88881,0.22828
3428.81728,0.22528
3430.74574,0.22544
3432.67421,0.22656
3434.60268,0.22870
3436.53115,0.23105
3438.45962,0.23363
3440.38809,0.23865
3442.31656,0.24156
3444.24503,0.23757
3446.17349,0.23210
3448.10196,0.22859
3450.03043,0.22434
3451.95890,0.21984
3453.88737,0.21724
3455.81584,0.21665
3457.74431,0.21859
3459.67277,0.22547
3461.60124,0.23373
3463.52971,0.23337
3465.45818,0.22298
3467.38665,0.21288
3469.31512,0.21109
3471.24359,0.21540
3473.17206,0.22059
3475.10052,0.22373
3477.02899,0.22254
3478.95746,0.21750
3480.88593,0.21196
3482.81440,0.20997
3484.74287,0.21327
3486.67134,0.21620
3488.59980,0.21244
3490.52827,0.20561
3492.45674,0.20440
3494.38521,0.21136
3496.31368,0.21787
3498.24215,0.21569
3500.17062,0.21195
3502.09909,0.21414
3504.02755,0.21557
3505.95602,0.21313
3507.88449,0.20955
3509.81296,0.20407
3511.74143,0.20323
3513.66990,0.20707
3515.59837,0.20622
3517.52683,0.20275
3519.45530,0.20216
3521.38377,0.20398
3523.31224,0.20736
3525.24071,0.20822
3527.16918,0.20352
3529.09765,0.19916
3531.02611,0.19823
3532.95458,0.19769
3534.88305,0.19658
3536.81152,0.19230
3538.73999,0.18413
3540.66846,0.18151
3542.59693,0.18924
3544.52540,0.19779
3546.45386,0.19996
3548.38233,0.19726
3550.31080,0.19243
3552.23927,0.18813
3554.16774,0.18277
3556.09621,0.17667
3558.02468,0.17684
3559.95314,0.18515
3561.88161,0.19213
3563.81008,0.19281
3565.73855,0.19242
3567.66702,0.19228
3569.59549,0.18895
3571.52396,0.18318
3573.45243,0.17780
3575.38089,0.17358
3577.30936,0.17094
3579.23783,0.17364
3581.16630,0.18020
3583.09477,0.18329
3585.02324,0.18139
3586.95171,0.17873
3588.88017,0.17642
3590.80864,0.17529
3592.73711,0.17789
3594.66558,0.18086
3596.59405,0.17900
3598.52252,0.17545
3600.45099,0.17405
3602.37946,0.17467
3604.30792,0.17585
3606.23639,0.17499
3608.16486,0.17314
3610.09333,0.17468
3612.02180,0.17780
3613.95027,0.17724
3615.87874,0.17494
3617.80720,0.17800
3619.73567,0.18021
3621.66414,0.17282
3623.59261,0.16408
3625.52108,0.16034
3627.44955,0.16438
3629.37802,0.17180
3631.30649,0.17015
3633.23495,0.16513
3635.16342,0.16374
3637.09189,0.16598
3639.02036,0.16800
3640.94883,0.16643
3642.87730,0.16277
3644.80577,0.16607
3646.73423,0.18246
3648.66270,0.19934
3650.59117,0.18567
3652.51964,0.16262
3654.44811,0.15205
3656.37658,0.14971
3658.30505,0.14904
3660.23352,0.15037
3662.16198,0.15458
3664.09045,0.15617
3666.01892,0.15402
3667.94739,0.15445
3669.87586,0.15806
3671.80433,0.15998
3673.73280,0.16282
3675.66126,0.16413
3677.58973,0.15981
3679.51820,0.15513
3681.44667,0.15205
3683.37514,0.15305
3685.30361,0.15709
3687.23208,0.16149
3689.16055,0.16419
3691.08901,0.15808
3693.01748,0.15020
3694.94595,0.14873
3696.87442,0.14799
3698.80289,0.14460
3700.73136,0.14341
3702.65983,0.14485
3704.58829,0.14678
3706.51676,0.15176
3708.44523,0.15942
3710.37370,0.16693
3712.30217,0.16613
3714.23064,0.15740
3716.15911,0.15332
3718.08757,0.15331
3720.01604,0.15092
3721.94451,0.14610
3723.87298,0.14189
3725.80145,0.14019
3727.72992,0.14282
3729.65839,0.14821
3731.58686,0.15582
3733.51532,0.16507
3735.44379,0.16623
3737.37226,0.15619
3739.30073,0.14777
3741.22920,0.14538
3743.15767,0.14820
3745.08614,0.15226
3747.01460,0.15554
3748.94307,0.16550
3750.87154,0.17722
3752.80001,0.17169
3754.72848,0.16094
3756.65695,0.15672
3758.58542,0.15677
3760.51389,0.15287
3762.44235,0.14839
3764.37082,0.14999
3766.29929,0.15145
3768.22776,0.15007
3770.15623,0.15001
3772.08470,0.14714
3774.01317,0.14302
3775.94163,0.14319
3777.87010,0.14636
3779.79857,0.14687
3781.72704,0.14398
3783.65551,0.14234
3785.58398,0.14178
3787.51245,0.13979
3789.44092,0.13751
3791.36938,0.13558
3793.29785,0.13500
3795.22632,0.13924
3797.15479,0.14766
3799.08326,0.15395
3801.01173,0.15476
3802.94020,0.15199
3804.86866,0.15081
3806.79713,0.14943
3808.72560,0.14459
3810.65407,0.14086
3812.58254,0.14184
3814.51101,0.14627
3816.43948,0.15356
3818.36795,0.16393
3820.29641,0.17004
3822.22488,0.15605
3824.15335,0.13782
3826.08182,0.13263
3828.01029,0.13475
3829.93876,0.13471
3831.86723,0.13375
3833.79569,0.14101
3835.72416,0.15743
3837.65263,0.16980
3839.58110,0.16512
3841.50957,0.15450
3843.43804,0.14648
3845.36651,0.13837
3847.29498,0.13239
3849.22344,0.13426
3851.15191,0.14662
3853.08038,0.16011
3855.00885,0.15875
3856.93732,0.15688
3858.86579,0.15628
3860.79426,0.15492
3862.72272,0.15291
3864.65119,0.14525
3866.57966,0.13787
3868.50813,0.14054
3870.43660,0.14683
3872.36507,0.14637
3874.29354,0.14104
3876.22200,0.13495
3878.15047,0.13389
3880.07894,0.14071
3882.00741,0.14995
3883.93588,0.15029
3885.86435,0.14071
3887.79282,0.13701
3889.72129,0.14415
3891.64975,0.15081
3893.57822,0.14653
3895.50669,0.13690
3897.43516,0.13077
3899.36363,0.13282
3901.29210,0.14183
3903.22057,0.14843
3905.14903,0.14355
3907.07750,0.13123
3909.00597,0.12156
3910.93444,0.11967
3912.86291,0.12628
3914.79138,0.13487
3916.71985,0.13606
3918.64832,0.13102
3920.57678,0.12981
3922.50525,0.13253
3924.43372,0.13296
3926.36219,0.13035
3928.29066,0.12866
3930.21913,0.12861
3932.14760,0.12978
3934.07606,0.13058
3936.00453,0.12686
3937.93300,0.11836
3939.86147,0.11199
3941.78994,0.11547
3943.71841,0.12441
3945.64688,0.12844
3947.57535,0.12703
3949.50381,0.12568
3951.43228,0.12853
3953.36075,0.12882
3955.28922,0.12180
3957.21769,0.11392
3959.14616,0.11227
3961.07463,0.11675
3963.00309,0.11980
3964.93156,0.11823
3966.86003,0.11814
3968.78850,0.12204
3970.71697,0.12476
3972.64544,0.12529
3974.57391,0.12523
3976.50238,0.12236
3978.43084,0.11843
3980.35931,0.11610
3982.28778,0.11633
3984.21625,0.11707
3986.14472,0.11430
3988.07319,0.11128
3990.00166,0.11194
3991.93012,0.11387
3993.85859,0.11422
3995.78706,0.11353
3997.71553,0.11335
3999.64400,0.11485
4001.57247,0.11592
4003.50094,0.11481
4005.42941,0.11711
4007.35787,0.12134
4009.28634,0.11941
4011.21481,0.11539
4013.14328,0.11440
4015.07175,0.11385
4017.00022,0.11198
4018.92869,0.11129
4020.85715,0.11495
4022.78562,0.11954
4024.71409,0.11861
4026.64256,0.11294
4028.57103,0.11207
4030.49950,0.11673
4032.42797,0.11578
4034.35644,0.10977
4036.28490,0.10761
4038.21337,0.10906
4040.14184,0.11035
4042.07031,0.11157
4043.99878,0.11044
4045.92725,0.10692
4047.85572,0.11054
4049.78418,0.11903
4051.71265,0.11927
4053.64112,0.11151
4055.56959,0.10454
4057.49806,0.10222
4059.42653,0.10261
4061.35500,0.10442
4063.28346,0.10800
4065.21193,0.11113
4067.14040,0.11111
4069.06887,0.10896
4070.99734,0.10665
4072.92581,0.10483
4074.85428,0.10635
4076.78275,0.10828
4078.71121,0.10461
4080.63968,0.10157
4082.56815,0.10482
4084.49662,0.10878
4086.42509,0.11022
4088.35356,0.11201
4090.28203,0.11290
4092.21049,0.10717
4094.13896,0.09937
4096.06743,0.09998
4097.99590,0.10437
4099.92437,0.10465
4101.85284,0.10665
4103.78131,0.11083
4105.70978,0.10657
4107.63824,0.09702
4109.56671,0.09551
4111.49518,0.10105
4113.42365,0.10666
4115.35212,0.11041
4117.28059,0.10939
4119.20906,0.10703
4121.13752,0.10902
4123.06599,0.10980
4124.99446,0.10724
4126.92293,0.10611
4128.85140,0.10236
4130.77987,0.09261
4132.70834,0.08780
4134.63681,0.09437
4136.56527,0.09947
4138.49374,0.09620
4140.42221,0.09337
4142.35068,0.09467
4144.27915,0.09638
4146.20762,0.09567
4148.13609,0.09362
4150.06455,0.09265
4151.99302,0.09330
4153.92149,0.09660
4155.84996,0.10036
4157.77843,0.09708
4159.70690,0.08736
4161.63537,0.08259
4163.56384,0.08567
4165.49230,0.08924
4167.42077,0.08878
4169.34924,0.08502
4171.27771,0.08121
4173.20618,0.08118
4175.13465,0.08596
4177.06312,0.08849
4178.99158,0.08417
4180.92005,0.07901
4182.84852,0.07676
4184.77699,0.07717
4186.70546,0.07982
4188.63393,0.08250
4190.56240,0.08452
4192.49087,0.08845
4194.41933,0.09108
4196.34780,0.08733
4198.27627,0.08137
4200.20474,0.07665
4202.13321,0.07607
4204.06168,0.08247
4205.99015,0.08787
4207.91861,0.08576
4209.84708,0.07955
4211.77555,0.07625
4213.70402,0.07782
4215.63249,0.08024
4217.56096,0.08214
4219.48943,0.08247
4221.41789,0.07907
4223.34636,0.07574
4225.27483,0.07933
4227.20330,0.08653
4229.13177,0.08721
4231.06024,0.08188
4232.98871,0.07685
4234.91718,0.07218
4236.84564,0.07053
4238.77411,0.07521
4240.70258,0.07867
4242.63105,0.07839
4244.55952,0.07829
4246.48799,0.07393
4248.41646,0.06846
4250.34492,0.07065
4252.27339,0.07476
4254.20186,0.07280
4256.13033,0.07104
4258.05880,0.07581
4259.98727,0.08111
4261.91574,0.08421
4263.84421,0.08451
4265.77267,0.07859
4267.70114,0.07196
4269.62961,0.06954
4271.55808,0.06845
4273.48655,0.06948
4275.41502,0.07246
4277.34349,0.07219
4279.27195,0.07051
4281.20042,0.07041
4283.12889,0.06841
4285.05736,0.06680
4286.98583,0.06950
4288.91430,0.07237
4290.84277,0.07428
4292.77124,0.07786
4294.69970,0.07860
4296.62817,0.07473
4298.55664,0.07184
4300.48511,0.07190
4302.41358,0.07428
4304.34205,0.07491
4306.27052,0.06913
4308.19898,0.06198
4310.12745,0.06058
4312.05592,0.06482
4313.98439,0.06834
4315.91286,0.06547
4317.84133,0.05753
4319.76980,0.05095
4321.69827,0.05242
4323.62673,0.06064
4325.55520,0.06965
4327.48367,0.07390
4329.41214,0.06909
4331.34061,0.05932
4333.26908,0.04886
4335.19755,0.03963
4337.12601,0.03801
4339.05448,0.04489
4340.98295,0.05603
4342.91142,0.06595
4344.83989,0.06908
4346.76836,0.06915
4348.69683,0.06750
4350.62530,0.05841
4352.55376,0.05089
4354.48223,0.05704
4356.41070,0.06880
4358.33917,0.07063
4360.26764,0.06150
4362.19611,0.05041
4364.12458,0.04126
4366.05304,0.03951
4367.98151,0.04739
4369.90998,0.05587
4371.83845,0.05951
4373.76692,0.05790
4375.69539,0.05435
4377.62386,0.05353
4379.55232,0.05286
4381.48079,0.04963
4383.40926,0.04738
4385.33773,0.04840
4387.26620,0.04963
4389.19467,0.04808
4391.12314,0.04400
4393.05161,0.04061
4394.98007,0.03955
4396.90854,0.04072
4398.83701,0.04582
4400.76548,0.04964
4402.69395,0.04512
4404.62242,0.03560
4406.55089,0.02906
4408.47935,0.03004
4410.40782,0.03279
4412.33629,0.03373
4414.26476,0.03842
4416.19323,0.04555
4418.12170,0.04949
4420.05017,0.04720
4421.97864,0.04330
4423.90710,0.04299
4425.83557,0.04053
4427.76404,0.03542
4429.69251,0.03548
4431.62098,0.04118
4433.54945,0.04398
4435.47792,0.04123
4437.40638,0.03929
4439.33485,0.03787
4441.26332,0.03492
4443.19179,0.03285
4445.12026,0.03000
4447.04873,0.02603
4448.97720,0.02613
4450.90567,0.03209
4452.83413,0.03557
4454.76260,0.03292
4456.69107,0.03444
4458.61954,0.04230
4460.54801,0.04633
4462.47648,0.04049
4464.40495,0.03099
4466.33341,0.02811
4468.26188,0.03012
4470.19035,0.02977
4472.11882,0.02829
4474.04729,0.03206
4475.97576,0.03908
4477.90423,0.03996
4479.83270,0.03333
4481.76116,0.02841
4483.68963,0.02934
4485.61810,0.02896
4487.54657,0.02554
4489.47504,0.02314
4491.40351,0.02413
4493.33198,0.02599
4495.26044,0.02464
4497.18891,0.02554
4499.11738,0.03066
4501.04585,0.03508
4502.97432,0.03839
4504.90279,0.03798
4506.83126,0.03197
4508.75973,0.02889
4510.68819,0.03006
4512.61666,0.02399
4514.54513,0.01443
4516.47360,0.01710
4518.40207,0.02695
4520.33054,0.02442
4522.25901,0.01306
4524.18747,0.00705
4526.11594,0.00306
4528.04441,0.00176
4529.97288,0.00800
4531.90135,0.01498
4533.82982,0.01707
4535.75829,0.01902
4537.68676,0.02482
4539.61522,0.02638
4541.54369,0.01469
4543.47216,-0.00204
4545.40063,-0.00581
4547.32910,0.00529
4549.25757,0.01654
4551.18604,0.01928
4553.11450,0.01369
4555.04297,0.00585
4556.97144,0.00641
4558.89991,0.01409
4560.82838,0.02049
4562.75685,0.02513
4564.68532,0.02655
4566.61378,0.02368
4568.54225,0.02084
4570.47072,0.02173
4572.39919,0.02464
4574.32766,0.02547
4576.25613,0.02426
4578.18460,0.02331
4580.11307,0.02468
4582.04153,0.02658
4583.97000,0.02583
4585.89847,0.02018
4587.82694,0.00950
4589.75541,0.00327
4591.68388,0.00645
4593.61235,0.01075
4595.54081,0.01306
4597.46928,0.01729
4599.39775,0.02241
4601.32622,0.02388
4603.25469,0.02129
4605.18316,0.01867
4607.11163,0.01669
4609.04010,0.01541
4610.96856,0.01874
4612.89703,0.02292
4614.82550,0.01995
4616.75397,0.01360
4618.68244,0.01200
4620.61091,0.01388
4622.53938,0.01691
4624.46784,0.01906
4626.39631,0.01532
4628.32478,0.00916
4630.25325,0.00769
4632.18172,0.00665
4634.11019,0.00168
4636.03866,0.00369
4637.96713,0.01504
4639.89559,0.02240
4641.82406,0.02188
4643.75253,0.01563
4645.68100,0.00847
4647.60947,0.00620
4649.53794,0.00603
4651.46641,0.00927
4653.39487,0.01803
4655.32334,0.02219
4657.25181,0.01594
4659.18028,0.01003
4661.10875,0.01060
4663.03722,0.00819
4664.96569,0.00098
4666.89416,-0.00077
4668.82262,0.00362
4670.75109,0.00636
4672.67956,0.01020
4674.60803,0.01582
4676.53650,0.01598
4678.46497,0.01504
4680.39344,0.01643
4682.32190,0.01673
4684.25037,0.01609
4686.17884,0.01240
4688.10731,0.00517
4690.03578,-0.00080
4691.96425,-0.00091
4693.89272,0.00364
4695.82119,0.00891
4697.74965,0.01259
4699.67812,0.01382
4701.60659,0.01343
4703.53506,0.01046
4705.46353,0.00895
4707.39200,0.01430
4709.32047,0.02142
4711.24893,0.01779
4713.17740,0.00423
4715.10587,-0.00234
4717.03434,-0.00139
4718.96281,0.00360
4720.89128,0.01538
4722.81975,0.02100
4724.74821,0.01471
4726.67668,0.00610
4728.60515,0.00184
4730.53362,0.00456
4732.46209,0.00801
4734.39056,0.00415
4736.31903,-0.00078
4738.24750,0.00003
4740.17596,0.00466
4742.10443,0.00968
4744.03290,0.01178
4745.96137,0.01542
4747.88984,0.02329
4749.81831,0.02514
4751.74678,0.01792
4753.67524,0.01164
4755.60371,0.00925
4757.53218,0.00591
4759.46065,0.00502
4761.38912,0.01259
4763.31759,0.02372
4765.24606,0.02784
4767.17453,0.02141
4769.10299,0.01161
4771.03146,0.00429
4772.95993,-0.00047
4774.88840,-0.00015
4776.81687,-0.00199
4778.74534,-0.01084
4780.67381,-0.00889
4782.60227,0.00334
4784.53074,0.00695
4786.45921,0.00526
4788.38768,0.00350
4790.31615,-0.00121
4792.24462,-0.00049
4794.17309,0.01056
4796.10156,0.01616
4798.03002,0.00450
4799.95849,-0.00681
4801.88696,0.00212
4803.81543,0.01913
4805.74390,0.02558
4807.67237,0.01900
4809.60084,0.00296
4811.52930,-0.00821
4813.45777,-0.00780
4815.38624,-0.00060
4817.31471,0.01029
4819.24318,0.01167
4821.17165,-0.00365
4823.10012,-0.01870
4825.02859,-0.01591
4826.95705,0.00116
4828.88552,0.01204
4830.81399,0.00742
4832.74246,0.00401
4834.67093,0.01328
4836.59940,0.02353
4838.52787,0.02189
4840.45633,0.00990
4842.38480,-0.00266
4844.31327,-0.00873
4846.24174,-0.00462
4848.17021,0.00282
4850.09868,0.00361
4852.02715,0.00273
4853.95562,0.00722
4855.88408,0.01398
4857.81255,0.02244
4859.74102,0.03689
4861.66949,0.04938
4863.59796,0.04351
4865.52643,0.02267
4867.45490,0.00491
4869.38336,-0.00341
4871.31183,-0.00614
4873.24030,-0.00398
4875.16877,0.00088
4877.09724,0.00389
4879.02571,0.00852
4880.95418,0.01002
4882.88265,-0.00385
4884.81111,-0.01431
4886.73958,-0.00017
4888.66805,0.02128
4890.59652,0.02612
4892.52499,0.01642
4894.45346,0.00673
4896.38193,-0.00113
4898.31039,-0.00593
4900.23886,-0.00160
4902.16733,0.01040
4904.09580,0.02405
4906.02427,0.02661
4907.95274,0.01515
4909.88121,0.00366
4911.80967,0.00480
4913.73814,0.01870
4915.66661,0.02465
4917.59508,0.01075
4919.52355,0.00353
4921.45202,0.01703
4923.38049,0.02198
4925.30896,0.00714
4927.23742,-0.00527
4929.16589,-0.00567
4931.09436,0.00269
4933.02283,0.01577
4934.95130,0.02667
4936.87977,0.03292
4938.80824,0.03789
4940.73670,0.04067
4942.66517,0.03067
4944.59364,0.00732
4946.52211,-0.00836
4948.45058,-0.00646
4950.37905,0.00166
4952.30752,0.00984
4954.23599,0.01084
4956.16445,-0.00064
4958.09292,-0.00771
4960.02139,-0.00145
4961.94986,0.00435
4963.87833,0.00539
4965.80680,0.00675
4967.73527,0.00627
4969.66373,0.00821
4971.59220,0.01700
4973.52067,0.01842
4975.44914,0.00824
4977.37761,0.01151
4979.30608,0.03814
4981.23455,0.05412
4983.16302,0.03611
4985.09148,0.01028
4987.01995,0.00166
4988.94842,0.00863
4990.87689,0.02038
4992.80536,0.02238
4994.73383,0.01225
4996.66230,0.00381
4998.59076,0.00143
5000.51923,0.00077
5002.44770,0.00234
5004.37617,0.00363
5006.30464,0.00111
5008.23311,-0.00252
5010.16158,-0.00140
5012.09005,0.01026
5014.01851,0.02751
5015.94698,0.03222
5017.87545,0.02342
5019.80392,0.01635
5021.73239,0.01270
5023.66086,0.01379
5025.58933,0.01703
5027.51779,0.01217
5029.44626,0.00892
5031.37473,0.01836
5033.30320,0.03425
5035.23167,0.04390
5037.16014,0.03943
5039.08861,0.03094
5041.01708,0.03148
5042.94554,0.03225
5044.87401,0.02418
5046.80248,0.01971
5048.73095,0.02457
5050.65942,0.02041
5052.58789,0.00518
5054.51636,0.00550
5056.44482,0.02340
5058.37329,0.03073
5060.30176,0.02241
5062.23023,0.01460
5064.15870,0.01053
5066.08717,0.01019
5068.01564,0.01670
5069.94410,0.02940
5071.87257,0.04335
5073.80104,0.04689
5075.72951,0.03773
5077.65798,0.02772
5079.58645,0.02657
5081.51492,0.03789
5083.44339,0.05211
5085.37185,0.05302
5087.30032,0.04070
5089.22879,0.02413
5091.15726,0.01170
5093.08573,0.01916
5095.01420,0.03920
5096.94267,0.03899
5098.87113,0.01876
5100.79960,0.00950
5102.72807,0.01001
5104.65654,-0.00075
5106.58501,-0.00983
5108.51348,0.00298
5110.44195,0.02478
5112.37042,0.03508
5114.29888,0.03713
5116.22735,0.04258
5118.15582,0.04543
5120.08429,0.03820
5122.01276,0.02528
5123.94123,0.02390
5125.86970,0.03787
5127.79816,0.03492
5129.72663,0.01512
5131.65510,0.01881
5133.58357,0.03872
5135.51204,0.04124
5137.44051,0.03294
5139.36898,0.03742
5141.29745,0.05951
5143.22591,0.07356
5145.15438,0.05210
5147.08285,0.02233
5149.01132,0.02232
5150.93979,0.03999
5152.86826,0.05305
5154.79673,0.05810
5156.72519,0.06287
5158.65366,0.06599
5160.58213,0.05062
5162.51060,0.02983
5164.43907,0.03036
5166.36754,0.04215
5168.29601,0.05181
5170.22448,0.05512
5172.15294,0.04348
5174.08141,0.02554
5176.00988,0.01779
5177.93835,0.02024
5179.86682,0.02707
5181.79529,0.03493
5183.72376,0.04347
5185.65222,0.05661
5187.58069,0.06143
5189.50916,0.05286
5191.43763,0.05285
5193.36610,0.05898
5195.29457,0.04933
5197.22304,0.02690
5199.15151,0.00874
5201.07997,0.01068
5203.00844,0.04057
5204.93691,0.08017
5206.86538,0.08802
5208.79385,0.05561
5210.72232,0.03340
5212.65079,0.04776
5214.57925,0.07285
5216.50772,0.07540
5218.43619,0.05016
5220.36466,0.03638
5222.29313,0.05791
5224.22160,0.07161
5226.15007,0.05306
5228.07854,0.03763
5230.00700,0.04470
5231.93547,0.05619
5233.86394,0.05177
5235.79241,0.03544
5237.72088,0.02225
5239.64935,0.02211
5241.57782,0.03128
5243.50628,0.03702
5245.43475,0.03738
5247.36322,0.04028
5249.29169,0.04688
5251.22016,0.05448
5253.14863,0.06349
5255.07710,0.06703
5257.00556,0.07152
5258.93403,0.08161
5260.86250,0.07918
5262.79097,0.06439
5264.71944,0.05188
5266.64791,0.05462
5268.57638,0.06914
5270.50485,0.07667
5272.43331,0.07151
5274.36178,0.05402
5276.29025,0.03265
5278.21872,0.02551
5280.14719,0.04059
5282.07566,0.05530
5284.00413,0.03684
5285.93259,0.00790
5287.86106,0.00645
5289.78953,0.02196
5291.71800,0.03882
5293.64647,0.04362
5295.57494,0.03467
5297.50341,0.03481
5299.43188,0.04474
5301.36034,0.04889
5303.28881,0.05078
5305.21728,0.05524
5307.14575,0.06609
5309.07422,0.07872
5311.00269,0.07176
5312.93116,0.05277
5314.85962,0.05329
5316.78809,0.07372
5318.71656,0.09192
5320.64503,0.09400
5322.57350,0.07342
5324.50197,0.05203
5326.43044,0.05181
5328.35891,0.05014
5330.28737,0.03679
5332.21584,0.03110
5334.14431,0.03147
5336.07278,0.02357
5338.00125,0.01896
5339.92972,0.03522
5341.85819,0.05221
5343.78665,0.06350
5345.71512,0.06693
5347.64359,0.03836
5349.57206,0.00468
5351.50053,0.01471
5353.42900,0.06282
5355.35747,0.09197
5357.28594,0.08695
5359.21440,0.07939
5361.14287,0.08155
5363.07134,0.08619
5364.99981,0.08123
5366.92828,0.06881
5368.85675,0.06628
5370.78522,0.06503
5372.71368,0.05951
5374.64215,0.07728
5376.57062,0.09774
5378.49909,0.07917
5380.42756,0.05982
5382.35603,0.06471
5384.28450,0.07118
5386.21297,0.06381
5388.14143,0.06044
5390.06990,0.06226
5391.99837,0.05256
5393.92684,0.02944
5395.85531,0.01238
5397.78378,0.02415
5399.71225,0.06323
5401.64071,0.10153
5403.56918,0.10730
5405.49765,0.08816
5407.42612,0.07371
5409.35459,0.07316
5411.28306,0.09308
5413.21153,0.12446
5415.13999,0.13620
5417.06846,0.11945
5418.99693,0.08766
5420.92540,0.05969
5422.85387,0.03488
5424.78234,0.01900
5426.71081,0.04591
5428.63928,0.09430
5430.56774,0.09400
5432.49621,0.05798
5434.42468,0.02586
5436.35315,0.01094
5438.28162,0.01334
5440.21009,0.01572
5442.13856,0.01614
5444.06702,0.03217
5445.99549,0.06021
5447.92396,0.05817
5449.85243,0.02904
5451.78090,0.04091
5453.70937,0.07753
5455.63784,0.08639
5457.56631,0.08102
5459.49477,0.07541
5461.42324,0.06910
5463.35171,0.07389
5465.28018,0.08043
5467.20865,0.08168
5469.13712,0.07589
5471.06559,0.05906
5472.99405,0.04460
5474.92252,0.04905
5476.85099,0.07650
5478.77946,0.10218
5480.70793,0.10140
5482.63640,0.08803
5484.56487,0.08683
5486.49334,0.09443
5488.42180,0.09943
5490.35027,0.09964
5492.27874,0.08278
5494.20721,0.05717
5496.13568,0.06308
5498.06415,0.08724
5499.99262,0.09496
5501.92108,0.09477
5503.84955,0.09738
5505.77802,0.10309
5507.70649,0.10866
5509.63496,0.09314
5511.56343,0.06723
5513.49190,0.06694
5515.42037,0.07897
5517.34883,0.06795
5519.27730,0.05190
5521.20577,0.05227
5523.13424,0.04737
5525.06271,0.03737
5526.99118,0.05400
5528.91965,0.09379
5530.84811,0.11568
5532.77658,0.10983
5534.70505,0.10451
5536.63352,0.10419
5538.56199,0.10382
5540.49046,0.10180
5542.41893,0.08587
5544.34740,0.06610
5546.27586,0.05656
5548.20433,0.06071
5550.13280,0.07870
5552.06127,0.08976
5553.98974,0.08913
5555.91821,0.08834
5557.84668,0.08662
5559.77514,0.09038
5561.70361,0.09637
5563.63208,0.09149
5565.56055,0.08371
5567.48902,0.09242
5569.41749,0.09975
5571.34596,0.07839
5573.27443,0.06692
5575.20289,0.08870
5577.13136,0.09844
5579.05983,0.08790
5580.98830,0.08744
5582.91677,0.09669
5584.84524,0.08954
5586.77371,0.06841
5588.70217,0.05584
5590.63064,0.05410
5592.55911,0.04939
5594.48758,0.04631
5596.41605,0.05844
5598.34452,0.07161
5600.27299,0.07060
5602.20145,0.06958
5604.12992,0.07960
5606.05839,0.10240
5607.98686,0.12840
5609.91533,0.12599
5611.84380,0.09344
5613.77227,0.08104
5615.70074,0.11491
5617.62920,0.14646
5619.55767,0.13072
5621.48614,0.09830
5623.41461,0.07377
5625.34308,0.05376
5627.27155,0.04557
5629.20002,0.04544
5631.12848,0.06097
5633.05695,0.08467
5634.98542,0.08734
5636.91389,0.07647
5638.84236,0.07029
5640.77083,0.07656
5642.69930,0.10633
5644.62777,0.13347
5646.55623,0.11818
5648.48470,0.09802
5650.41317,0.11565
5652.34164,0.12992
5654.27011,0.10629
5656.19858,0.06662
5658.12705,0.04527
5660.05551,0.04824
5661.98398,0.05532
5663.91245,0.05770
5665.84092,0.05729
5667.76939,0.05765
5669.69786,0.05979
5671.62633,0.05022
5673.55480,0.04342
5675.48326,0.07367
5677.41173,0.11166
5679.34020,0.10827
5681.26867,0.07964
5683.19714,0.06347
5685.12561,0.06250
5687.05408,0.05590
5688.98254,0.04678
5690.91101,0.05853
5692.83948,0.08267
5694.76795,0.09251
5696.69642,0.09285
5698.62489,0.09104
5700.55336,0.07874
5702.48183,0.07073
5704.41029,0.08505
5706.33876,0.09857
5708.26723,0.07458
5710.19570,0.04519
5712.12417,0.06994
5714.05264,0.12102
5715.98111,0.13434
5717.90957,0.11877
5719.83804,0.09998
5721.76651,0.07777
5723.69498,0.07106
5725.62345,0.06433
5727.55192,0.03790
5729.48039,0.03210
5731.40886,0.05955
5733.33732,0.10670
5735.26579,0.15085
5737.19426,0.15154
5739.12273,0.12028
5741.05120,0.09173
5742.97967,0.06775
5744.90814,0.05463
5746.83660,0.05915
5748.76507,0.06265
5750.69354,0.07536
5752.62201,0.11912
5754.55048,0.15116
5756.47895,0.14070
5758.40742,0.13261
5760.33588,0.14886
5762.26435,0.15537
5764.19282,0.14602
5766.12129,0.13212
5768.04976,0.11560
5769.97823,0.11577
5771.90670,0.13325
5773.83517,0.14169
5775.76363,0.14946
5777.69210,0.17355
5779.62057,0.17837
5781.54904,0.14880
5783.47751,0.12167
5785.40598,0.09837
5787.33445,0.06975
5789.26291,0.06088
5791.19138,0.07049
5793.11985,0.09152
5795.04832,0.12078
5796.97679,0.12608
5798.90526,0.12420
5800.83373,0.13783
5802.76220,0.12356
5804.69066,0.07362
5806.61913,0.03833
5808.54760,0.03836
5810.47607,0.04939
5812.40454,0.06135
5814.33301,0.06730
5816.26148,0.04441
5818.18994,0.04166
5820.11841,0.09424
5822.04688,0.12429
5823.97535,0.11103
5825.90382,0.09781
5827.83229,0.09447
5829.76076,0.09484
5831.68923,0.09385
5833.61769,0.09780
5835.54616,0.10661
5837.47463,0.11412
5839.40310,0.12075
5841.33157,0.13264
5843.26004,0.13902
5845.18851,0.12040
5847.11697,0.10110
5849.04544,0.09954
5850.97391,0.08322
5852.90238,0.05083
5854.83085,0.04110
5856.75932,0.05211
5858.68779,0.05425
5860.61626,0.06408
5862.54472,0.10299
5864.47319,0.12984
5866.40166,0.11561
5868.33013,0.08812
5870.25860,0.07455
5872.18707,0.08944
5874.11554,0.11869
5876.04400,0.11551
5877.97247,0.06673
5879.90094,0.03305
5881.82941,0.04897
5883.75788,0.07547
5885.68635,0.10583
5887.61482,0.13705
5889.54329,0.13338
5891.47175,0.09614
5893.40022,0.05283
5895.32869,0.03604
5897.25716,0.06765
5899.18563,0.12020
5901.11410,0.14167
5903.04257,0.12560
5904.97103,0.09725
5906.89950,0.06636
5908.82797,0.06097
5910.75644,0.10625
5912.68491,0.15571
5914.61338,0.14705
5916.54185,0.11503
5918.47032,0.11296
5920.39878,0.10556
5922.32725,0.07882
5924.25572,0.07301
5926.18419,0.09746
5928.11266,0.11560
5930.04113,0.09225
5931.96960,0.06297
5933.89806,0.07385
5935.82653,0.10392
5937.75500,0.13212
5939.68347,0.15284
5941.61194,0.14960
5943.54041,0.13709
5945.46888,0.13306
5947.39734,0.12893
5949.32581,0.13595
5951.25428,0.15369
5953.18275,0.15533
5955.11122,0.16066
5957.03969,0.17701
5958.96816,0.16962
5960.89663,0.14619
5962.82509,0.11602
5964.75356,0.07087
5966.68203,0.04517
5968.61050,0.07189
5970.53897,0.12158
5972.46744,0.13205
5974.39591,0.10442
5976.32437,0.09400
5978.25284,0.09303
5980.18131,0.09141
5982.10978,0.12708
5984.03825,0.16511
5985.96672,0.14324
5987.89519,0.11094
5989.82366,0.10790
5991.75212,0.12422
5993.68059,0.16656
5995.60906,0.16208
5997.53753,0.06467
5999.46600,-0.00786
6001.39447,0.01010
6003.32294,0.05468
6005.25140,0.08723
6007.17987,0.12773
6009.10834,0.13794
6011.03681,0.09602
6012.96528,0.07574
6014.89375,0.09231
6016.82222,0.09821
6018.75069,0.11396
6020.67915,0.14675
6022.60762,0.14886
6024.53609,0.10595
6026.46456,0.03534
6028.39303,-0.00006
6030.32150,0.04626
6032.24997,0.10952
6034.17843,0.10975
6036.10690,0.05531
6038.03537,0.01154
6039.96384,0.01556
6041.89231,0.05718
6043.82078,0.09769
6045.74925,0.11889
6047.67772,0.12311
6049.60618,0.10663
6051.53465,0.09971
6053.46312,0.11492
6055.39159,0.10671
6057.32006,0.07812
6059.24853,0.09110
6061.17700,0.13945
6063.10546,0.15394
6065.03393,0.11799
6066.96240,0.08219
6068.89087,0.05044
6070.81934,0.02005
6072.74781,0.01979
6074.67628,0.04125
6076.60475,0.07138
6078.53321,0.08748
6080.46168,0.06754
6082.39015,0.05341
6084.31862,0.06602
6086.24709,0.07158
6088.17556,0.07403
6090.10403,0.12124
6092.03249,0.20063
6093.96096,0.22772
6095.88943,0.17136
6097.81790,0.11173
6099.74637,0.10446
6101.67484,0.11596
6103.60331,0.11927
6105.53177,0.12645
6107.46024,0.14092
6109.38871,0.12864
6111.31718,0.08595
6113.24565,0.07264
6115.17412,0.11759
6117.10259,0.19274
6119.03106,0.23545
6120.95952,0.20139
6122.88799,0.12152
6124.81646,0.05943
6126.74493,0.05335
6128.67340,0.08110
6130.60187,0.10574
6132.53034,0.11777
6134.45880,0.10532
6136.38727,0.07607
6138.31574,0.06095
6140.24421,0.07041
6142.17268,0.10972
6144.10115,0.14861
6146.02962,0.14121
6147.95809,0.12008
6149.88655,0.12254
6151.81502,0.14571
6153.74349,0.18018
6155.67196,0.19940
6157.60043,0.18315
6159.52890,0.13095
6161.45737,0.06260
6163.38583,0.03252
6165.31430,0.05205
6167.24277,0.07735
6169.17124,0.08400
6171.09971,0.08058
6173.02818,0.09703
6174.95665,0.09637
6176.88512,0.05763
6178.81358,0.04458
6180.74205,0.06399
6182.67052,0.08815
6184.59899,0.08198
6186.52746,0.02905
6188.45593,0.00905
6190.38440,0.06282
6192.31286,0.10174
6194.24133,0.08117
6196.16980,0.06282
6198.09827,0.08720
6200.02674,0.11320
6201.95521,0.11777
6203.88368,0.12531
6205.81215,0.13714
6207.74061,0.14553
6209.66908,0.15954
6211.59755,0.16856
6213.52602,0.18812
6215.45449,0.20636
6217.38296,0.16837
6219.31143,0.09422
6221.23989,0.03560
6223.16836,0.02506
6225.09683,0.05058
6227.02530,0.05609
6228.95377,0.05289
6230.88224,0.08281
6232.81071,0.11581
6234.73918,0.10770
6236.66764,0.07366
6238.59611,0.04810
6240.52458,0.03665
6242.45305,0.00636
6244.38152,-0.01722
6246.30999,0.01964
6248.23846,0.09261
6250.16692,0.16732
6252.09539,0.17756
6254.02386,0.09324
6255.95233,0.00719
6257.88080,-0.03232
6259.80927,-0.04334
6261.73774,-0.00749
6263.66621,0.07184
6265.59467,0.10798
6267.52314,0.05978
6269.45161,0.01945
6271.38008,0.02125
6273.30855,0.03625
6275.23702,0.06979
6277.16549,0.10541
6279.09395,0.12123
6281.02242,0.13051
6282.95089,0.12782
6284.87936,0.09486
6286.80783,0.07717
6288.73630,0.11046
6290.66477,0.15130
6292.59323,0.17711
6294.52170,0.16423
6296.45017,0.11170
6298.37864,0.07653
6300.30711,0.05309
6302.23558,0.03561
6304.16405,0.04690
6306.09252,0.06848
6308.02098,0.08784
6309.94945,0.10374
6311.87792,0.11868
6313.80639,0.12465
6315.73486,0.11027
6317.66333,0.10421
6319.59180,0.12056
6321.52026,0.11543
6323.44873,0.08743
6325.37720,0.08372
6327.30567,0.12458
6329.23414,0.17885
6331.16261,0.17045
6333.09108,0.11723
6335.01955,0.10206
6336.94801,0.12755
6338.87648,0.15251
6340.80495,0.12651
6342.73342,0.03975
6344.66189,-0.01269
6346.59036,0.06975
6348.51883,0.19881
6350.44729,0.19351
6352.37576,0.07752
6354.30423,0.00201
6356.23270,-0.03616
6358.16117,-0.05753
6360.08964,-0.01841
6362.01811,0.05102
6363.94658,0.10008
6365.87504,0.13654
6367.80351,0.16131
6369.73198,0.16344
6371.66045,0.13563
6373.58892,0.11078
6375.51739,0.10665
6377.44586,0.09179
6379.37432,0.06833
6381.30279,0.03238
6383.23126,0.01185
6385.15973,0.04508
6387.08820,0.08810
6389.01667,0.13856
6390.94514,0.17912
6392.87361,0.15617
6394.80207,0.08469
6396.73054,0.02447
6398.65901,0.00581
6400.58748,0.01839
6402.51595,0.05604
6404.44442,0.12184
6406.37289,0.18628
6408.30135,0.20271
6410.22982,0.14914
6412.15829,0.08548
6414.08676,0.07888
6416.01523,0.07927
6417.94370,0.02651
6419.87217,-0.00732
6421.80064,0.03877
6423.72910,0.08635
6425.65757,0.07109
6427.58604,0.01769
6429.51451,-0.03203
6431.44298,-0.02466
6433.37145,0.07303
6435.29992,0.17443
6437.22838,0.17551
6439.15685,0.11907
6441.08532,0.09451
6443.01379,0.09115
6444.94226,0.11630
6446.87073,0.15626
6448.79920,0.16298
6450.72766,0.16642
6452.65613,0.17104
6454.58460,0.13366
6456.51307,0.08773
6458.44154,0.07077
6460.37001,0.05321
6462.29848,0.03345
6464.22695,0.05315
6466.15541,0.08540
6468.08388,0.05705
6470.01235,0.00029
6471.94082,0.01164
6473.86929,0.06042
6475.79776,0.08343
6477.72623,0.11669
6479.65469,0.17285
6481.58316,0.19045
6483.51163,0.15029
6485.44010,0.11989
6487.36857,0.13309
6489.29704,0.14949
6491.22551,0.13815
6493.15398,0.09179
6495.08244,0.04456
6497.01091,0.02849
6498.93938,0.01560
6500.86785,0.02172
6502.79632,0.05459
6504.72479,0.05065
6506.65326,0.03354
6508.58172,0.05877
6510.51019,0.10246
6512.43866,0.12331
6514.36713,0.09058
6516.29560,0.00784
6518.22407,-0.05955
6520.15254,-0.07198
6522.08101,-0.04632
6524.00947,-0.00593
6525.93794,0.05100
6527.86641,0.11912
6529.79488,0.14555
6531.72335,0.12322
6533.65182,0.11201
6535.58029,0.13869
6537.50875,0.17653
6539.43722,0.19481
6541.36569,0.18476
6543.29416,0.15880
6545.22263,0.09846
6547.15110,-0.01110
6549.07957,-0.09369
6551.00804,-0.05945
6552.93650,0.04045
6554.86497,0.09744
6556.79344,0.09036
6558.72191,0.06651
6560.65038,0.02728
6562.57885,-0.02153
6564.50732,-0.03894
6566.43578,-0.02248
6568.36425,0.04743
6570.29272,0.11741
6572.22119,0.09590
6574.14966,0.06231
6576.07813,0.06135
6578.00660,0.03624
6579.93507,0.00978
6581.86353,0.03133
6583.79200,0.09676
6585.72047,0.13656
6587.64894,0.08973
6589.57741,-0.00505
6591.50588,-0.06343
6593.43435,-0.06717
6595.36281,-0.05171
6597.29128,-0.03124
6599.21975,0.01159
6601.14822,0.08578
6603.07669,0.13835
6605.00516,0.12210
6606.93363,0.06210
6608.86210,0.03347
6610.79056,0.08688
6612.71903,0.13070
6614.64750,0.10092
6616.57597,0.11581
6618.50444,0.19602
6620.43291,0.24850
6622.36138,0.24069
6624.28984,0.15515
6626.21831,0.06330
6628.14678,0.07232
6630.07525,0.15422
6632.00372,0.19560
6633.93219,0.18925
6635.86066,0.12904
6637.78912,0.01754
6639.71759,-0.03584
6641.64606,-0.01389
6643.57453,0.02380
6645.50300,0.06083
6647.43147,0.07642
6649.35994,0.04403
6651.28841,0.00224
6653.21687,0.01975
6655.14534,0.08013
6657.07381,0.09434
6659.00228,0.05766
6660.93075,0.05786
6662.85922,0.07177
6664.78769,0.01828
6666.71615,-0.00920
6668.64462,0.05220
6670.57309,0.06902
6672.50156,0.04282
6674.43003,0.07451
6676.35850,0.12019
6678.28697,0.14196
6680.21544,0.11962
6682.14390,0.04198
6684.07237,0.00073
6686.00084,0.06595
6687.92931,0.11246
6689.85778,0.01889
6691.78625,-0.07788
6693.71472,-0.05523
6695.64318,0.01920
6697.57165,0.01822
6699.50012,-0.00951
6701.42859,0.01017
6703.35706,-0.02000
6705.28553,-0.06890
6707.21400,-0.06327
6709.14247,-0.04845
6711.07093,-0.00884
6712.99940,0.06411
6714.92787,0.12514
6716.85634,0.15197
6718.78481,0.16237
6720.71328,0.14898
6722.64175,0.09823
6724.57021,0.06408
6726.49868,0.08409
6728.42715,0.12756
6730.35562,0.13890
6732.28409,0.07238
6734.21256,-0.00747
6736.14103,0.01172
6738.06950,0.06887
6739.99796,0.07125
6741.92643,0.05451
6743.85490,0.05054
6745.78337,0.04325
6747.71184,0.06094
6749.64031,0.13440
6751.56878,0.15375
6753.49724,0.03664
6755.42571,-0.07868
6757.35418,-0.06401
6759.28265,0.04467
6761.21112,0.12402
6763.13959,0.11926
6765.06806,0.12050
6766.99653,0.16961
6768.92499,0.17098
6770.85346,0.06640
6772.78193,-0.02628
6774.71040,-0.02079
6776.63887,0.00816
6778.56734,0.00454
6780.49581,0.01300
6782.42427,0.05286
6784.35274,0.09342
6786.28121,0.11665
6788.20968,0.14541
6790.13815,0.15223
6792.06662,0.09796
6793.99509,0.06144
6795.92355,0.09241
6797.85202,0.15463
6799.78049,0.15423
6801.70896,0.04552
6803.63743,-0.02503
6805.56590,0.01702
6807.49437,0.07713
6809.42284,0.12144
6811.35130,0.10809
6813.27977,0.04106
6815.20824,0.03506
6817.13671,0.09200
6819.06518,0.13445
6820.99365,0.15379
6822.92212,0.13409
6824.85058,0.10859
6826.77905,0.13891
6828.70752,0.18426
6830.63599,0.18642
6832.56446,0.14403
6834.49293,0.10727
6836.42140,0.12053
6838.34987,0.11420
6840.27833,0.04782
6842.20680,0.00410
6844.13527,0.02049
6846.06374,0.06123
6847.99221,0.08779
6849.92068,0.08996
6851.84915,0.10405
6853.77761,0.10885
6855.70608,0.07379
6857.63455,0.04860
6859.56302,0.00707
6861.49149,-0.06354
6863.41996,-0.04959
6865.34843,0.05070
6867.27690,0.11617
6869.20536,0.12746
6871.13383,0.16772
6873.06230,0.18820
6874.99077,0.13076
6876.91924,0.06300
6878.84771,-0.01398
6880.77618,-0.03645
6882.70464,0.04707
6884.63311,0.13180
6886.56158,0.17156
6888.49005,0.13945
6890.41852,0.03580
6892.34699,-0.04114
6894.27546,-0.07233
6896.20393,-0.08195
6898.13239,0.00192
6900.06086,0.13577
6901.98933,0.20850
6903.91780,0.17988
6905.84627,0.05811
6907.77474,-0.01398
6909.70321,0.03127
6911.63167,0.11138
6913.56014,0.13718
6915.48861,0.09561
6917.41708,0.03978
6919.34555,0.01759
6921.27402,0.07370
6923.20249,0.14416
6925.13096,0.16201
6927.05942,0.17627
6928.98789,0.16534
6930.91636,0.03125
6932.84483,-0.12853
6934.77330,-0.10123
6936.70177,0.02663
6938.63024,0.05172
6940.55870,0.00473
6942.48717,0.05528
6944.41564,0.10429
6946.34411,0.04361
6948.27258,-0.03476
6950.20105,0.01697
6952.12952,0.14777
6954.05799,0.24053
6955.98645,0.27749
6957.91492,0.25855
6959.84339,0.21106
6961.77186,0.16102
6963.70033,0.12685
6965.62880,0.09871
6967.55727,0.06155
6969.48573,0.10561
6971.41420,0.21285
6973.34267,0.17882
6975.27114,0.01005
6977.19961,-0.11543
6979.12808,-0.13265
6981.05655,-0.02246
6982.98501,0.09656
6984.91348,0.07500
6986.84195,0.01707
6988.77042,0.03447
6990.69889,0.04697
6992.62736,0.01944
6994.55583,0.03934
6996.48430,0.05200
6998.41276,-0.00358
7000.34123,0.03932
7002.26970,0.14406
7004.19817,0.13948
7006.12664,0.01694
7008.05511,-0.09659
7009.98358,-0.10565
7011.91204,-0.04527
7013.84051,0.10299
7015.76898,0.22806
7017.69745,0.13221
7019.62592,-0.03560
7021.55439,-0.03272
7023.48286,0.03202
7025.41133,-0.02429
7027.33979,-0.09439
7029.26826,0.02963
7031.19673,0.18925
7033.12520,0.20082
7035.05367,0.13843
7036.98214,0.10229
7038.91061,0.17338
7040.83907,0.33521
7042.76754,0.41745
7044.69601,0.26124
7046.62448,0.04962
7048.55295,0.02596
7050.48142,0.12610
7052.40989,0.20992
7054.33836,0.22874
7056.26682,0.18690
7058.19529,0.12520
7060.12376,0.06656
7062.05223,-0.01263
7063.98070,-0.06537
7065.90917,0.00089
7067.83764,0.16600
7069.76610,0.36063
7071.69457,0.46091
7073.62304,0.37255
7075.55151,0.20282
7077.47998,0.06958
7079.40845,-0.01804
7081.33692,-0.04316
7083.26539,-0.00160
7085.19385,0.09696
7087.12232,0.20006
7089.05079,0.16907
7090.97926,0.08453
7092.90773,0.04173
7094.83620,-0.02700
7096.76467,-0.08957
7098.69313,-0.02636
7100.62160,0.06185
7102.55007,0.06391
7104.47854,0.06212
7106.40701,0.12417
7108.33548,0.19633
7110.26395,0.18035
7112.19242,0.13317
7114.12088,0.15385
7116.04935,0.17101
7117.97782,0.14620
7119.90629,0.12537
7121.83476,0.08287
7123.76323,0.04745
7125.69170,0.00383
7127.62016,-0.07023
7129.54863,-0.06206
7131.47710,-0.00551
7133.40557,0.05018
7135.33404,0.21290
7137.26251,0.33346
7139.19098,0.24969
7141.11944,0.16304
7143.04791,0.14067
7144.97638,0.01164
7146.90485,-0.15398
7148.83332,-0.20066
7150.76179,-0.10363
7152.69026,0.12363
7154.61873,0.26729
7156.54719,0.18939
7158.47566,0.07914
7160.40413,0.00844
7162.33260,-0.04835
7164.26107,-0.02717
7166.18954,-0.01945
7168.11801,-0.09098
7170.04647,-0.05508
7171.97494,0.07839
7173.90341,0.15680
7175.83188,0.16443
7177.76035,0.10209
7179.68882,0.01139
7181.61729,-0.02277
7183.54576,-0.01954
7185.47422,-0.04095
7187.40269,-0.02848
7189.33116,0.03186
7191.25963,0.11651
7193.18810,0.17819
7195.11657,0.19848
7197.04504,0.17411
7198.97350,0.11548
7200.90197,0.08142
7202.83044,0.02545
7204.75891,-0.04136
7206.68738,0.04627
7208.61585,0.21502
7210.54432,0.35187
7212.47279,0.37784
7214.40125,0.25114
7216.32972,0.05278
7218.25819,0.02234
7220.18666,0.15664
7222.11513,0.18641
7224.04360,0.10500
7225.97207,0.02017
7227.90053,-0.01735
7229.82900,0.03562
7231.75747,0.20791
7233.68594,0.23145
7235.61441,0.04583
7237.54288,-0.03660
7239.47135,0.09857
7241.39982,0.22851
7243.32828,0.21686
7245.25675,0.10418
7247.18522,0.00851
7249.11369,0.00411
7251.04216,0.10866
7252.97063,0.24635
7254.89910,0.27546
7256.82756,0.29017
7258.75603,0.39021
7260.68450,0.46379
7262.61297,0.37602
7264.54144,0.22619
7266.46991,0.10341
7268.39838,0.04182
7270.32685,0.08795
7272.25531,0.19450
7274.18378,0.15146
7276.11225,0.03574
7278.04072,0.07706
7279.96919,0.24681
7281.89766,0.27826
7283.82613,0.22122
7285.75459,0.19737
7287.68306,0.17440
7289.61153,0.07578
7291.54000,-0.02730
7293.46847,0.02264
7295.39694,0.15215
7297.32541,0.21970
7299.25387,0.18059
7301.18234,0.04225
7303.11081,-0.10710
7305.03928,-0.15291
7306.96775,-0.09226
7308.89622,0.04056
7310.82469,0.12483
7312.75316,0.08772
7314.68162,-0.02651
7316.61009,-0.09122
7318.53856,-0.02528
7320.46703,0.02688
7322.39550,0.04478
7324.32397,0.14047
7326.25244,0.23390
7328.18090,0.20272
7330.10937,0.12284
7332.03784,0.10251
7333.96631,0.03093
7335.89478,-0.04318
7337.82325,0.00435
7339.75172,0.15788
7341.68019,0.12507
7343.60865,-0.09183
7345.53712,-0.20449
7347.46559,-0.12021
7349.39406,-0.00985
7351.32253,0.08394
7353.25100,0.17254
7355.17947,0.15512
7357.10793,0.06580
7359.03640,0.09157
7360.96487,0.26040
7362.89334,0.33328
7364.82181,0.16604
7366.75028,-0.03094
7368.67875,-0.03069
7370.60722,0.10734
7372.53568,0.28874
7374.46415,0.47123
7376.39262,0.38993
7378.32109,0.18011
7380.24956,0.07229
7382.17803,-0.00046
7384.10650,0.02084
7386.03496,0.17567
7387.96343,0.26215
7389.89190,0.14089
7391.82037,-0.06582
7393.74884,-0.17720
7395.67731,-0.14252
7397.60578,-0.04180
7399.53425,0.00857
7401.46271,-0.01740
7403.39118,-0.00201
7405.31965,0.06101
7407.24812,0.06441
7409.17659,0.11689
7411.10506,0.17493
7413.03353,0.11668
7414.96199,0.03861
7416.89046,0.02869
7418.81893,0.03015
7420.74740,-0.01399
7422.67587,0.03575
7424.60434,0.10533
7426.53281,0.06228
7428.46128,-0.03838
7430.38974,-0.10072
7432.31821,-0.07968
7434.24668,0.00985
7436.17515,0.19505
7438.10362,0.43192
7440.03209,0.58575
7441.96056,0.56166
7443.88902,0.37000
7445.81749,0.22210
7447.74596,0.23269
7449.67443,0.27037
7451.60290,0.21921
7453.53137,0.18408
7455.45984,0.25433
7457.38831,0.33207
7459.31677,0.31450
7461.24524,0.28187
7463.17371,0.30592
7465.10218,0.27539
7467.03065,0.20285
7468.95912,0.17639
7470.88759,0.15168
7472.81605,0.09379
7474.74452,0.14658
7476.67299,0.28493
7478.60146,0.31434
7480.52993,0.28180
7482.45840,0.25844
7484.38687,0.14288
7486.31533,0.03296
7488.24380,0.09244
7490.17227,0.11730
7492.10074,-0.01818
7494.02921,0.00200
7495.95768,0.19025
7497.88615,0.33585
