399.19301,2.07351
401.12148,2.53468
403.04995,2.54983
404.97842,1.93939
406.90689,1.40632
408.83536,0.45998
410.76382,-0.73655
412.69229,-2.25486
414.62076,-3.38463
416.54923,-2.10899
418.47770,0.63682
420.40617,1.61767
422.33464,1.78456
424.26311,1.30245
426.19157,0.38997
428.12004,-0.05664
430.04851,-0.21229
431.97698,-0.01871
433.90545,0.10954
435.83392,-0.07717
437.76239,-0.28616
439.69085,-0.33152
441.61932,-0.22387
443.54779,-0.16630
445.47626,-0.19490
447.40473,-0.09870
449.33320,0.01485
451.26167,-0.02761
453.19013,-0.01648
455.11860,0.07294
457.04707,0.08240
458.97554,0.04749
460.90401,0.04039
462.83248,-0.00865
464.76095,-0.08144
466.68942,-0.09121
468.61788,-0.04875
470.54635,0.22970
472.47482,1.58483
474.40329,3.34741
476.33176,2.36636
478.26023,0.80233
480.18870,0.19550
482.11716,0.07318
484.04563,-0.00904
485.97410,-0.03372
487.90257,0.00653
489.83104,0.04499
491.75951,0.05736
493.68798,0.10292
495.61645,0.20098
497.54491,0.24285
499.47338,0.19636
501.40185,0.13903
503.33032,0.08979
505.25879,0.05477
507.18726,0.04633
509.11573,0.10323
511.04419,0.18774
512.97266,0.22286
514.90113,0.19981
516.82960,0.15286
518.75807,0.09266
520.68654,0.02504
522.61501,0.02816
524.54348,0.12020
526.47194,0.19826
528.40041,0.18923
530.32888,0.13596
532.25735,0.08674
534.18582,0.07616
536.11429,0.13576
538.04276,0.21974
539.97122,0.25248
541.89969,0.21627
543.82816,0.15745
545.75663,0.12142
547.68510,0.10921
549.61357,0.21796
551.54204,0.73267
553.47051,1.30109
555.39897,1.10521
557.32744,0.44269
559.25591,0.14435
561.18438,0.16878
563.11285,0.19470
565.04132,0.14446
566.96979,0.08763
568.89825,0.10689
570.82672,0.15178
572.75519,0.15123
574.68366,0.12298
576.61213,0.11301
578.54060,0.13038
580.46907,0.12883
582.39754,0.08880
584.32600,0.06507
586.25447,0.08682
588.18294,0.12621
590.11141,0.15053
592.03988,0.13712
593.96835,0.11257
595.89682,0.13130
597.82528,0.14103
599.75375,0.10677
601.68222,0.09009
603.61069,0.09435
605.53916,0.09965
607.46763,0.10941
609.39610,0.10323
611.32456,0.08261
613.25303,0.07234
615.18150,0.08070
617.10997,0.10052
619.03844,0.10846
620.96691,0.09549
622.89538,0.08944
624.82385,0.10609
626.75231,0.12480
628.68078,0.12785
630.60925,0.13985
632.53772,0.16112
634.46619,0.13147
636.39466,0.07239
638.32313,0.06978
640.25159,0.11597
642.18006,0.15634
644.10853,0.18125
646.03700,0.18502
647.96547,0.16218
649.89394,0.13530
651.82241,0.13842
653.75088,0.15820
655.67934,0.15797
657.60781,0.15320
659.53628,0.15188
661.46475,0.13072
663.39322,0.11838
665.32169,0.15174
667.25016,0.21446
669.17862,0.22351
671.10709,0.18490
673.03556,0.16896
674.96403,0.16889
676.89250,0.16438
678.82097,0.14125
680.74944,0.12428
682.67791,0.12222
684.60637,0.10596
686.53484,0.09549
688.46331,0.10682
690.39178,0.10773
692.32025,0.09641
694.24872,0.09033
696.17719,0.10110
698.10565,0.12606
700.03412,0.14412
701.96259,0.14498
703.89106,0.13769
705.81953,0.13839
707.74800,0.14595
709.67647,0.16646
711.60494,0.19282
713.53340,0.18064
715.46187,0.13972
717.39034,0.11355
719.31881,0.10993
721.24728,0.12226
723.17575,0.13093
725.10422,0.13030
727.03268,0.13943
728.96115,0.16085
730.88962,0.18370
732.81809,0.19244
734.74656,0.17507
736.67503,0.15690
738.60350,0.15921
740.53197,0.16447
742.46043,0.16429
744.38890,0.16587
746.31737,0.16353
748.24584,0.16286
750.17431,0.17013
752.10278,0.16952
754.03125,0.16532
755.95971,0.17186
757.88818,0.17675
759.81665,0.16945
761.74512,0.16069
763.67359,0.15421
765.60206,0.15054
767.53053,0.15527
769.45900,0.15829
771.38746,0.15394
773.31593,0.14934
775.24440,0.15196
777.17287,0.16389
779.10134,0.17523
781.02981,0.17916
782.95828,0.17959
784.88674,0.17431
786.81521,0.15720
788.74368,0.13218
790.67215,0.10672
792.60062,0.09508
794.52909,0.10389
796.45756,0.12060
798.38602,0.13584
800.31449,0.14658
802.24296,0.14809
804.17143,0.14106
806.09990,0.13791
808.02837,0.13906
809.95684,0.14068
811.88531,0.14772
813.81377,0.15317
815.74224,0.15104
817.67071,0.14198
819.59918,0.12028
821.52765,0.09350
823.45612,0.08810
825.38459,0.10848
827.31305,0.12455
829.24152,0.12653
831.16999,0.13937
833.09846,0.16061
835.02693,0.16982
836.95540,0.17278
838.88387,0.16909
840.81234,0.16038
842.74080,0.15910
844.66927,0.16342
846.59774,0.17990
848.52621,0.19708
850.45468,0.18447
852.38315,0.17066
854.31162,0.18579
856.24008,0.19679
858.16855,0.19088
860.09702,0.18692
862.02549,0.18112
863.95396,0.17408
865.88243,0.16842
867.81090,0.12334
869.73937,0.04266
871.66783,0.02854
873.59630,0.09599
875.52477,0.13862
877.45324,0.13400
879.38171,0.12745
881.31018,0.12464
883.23865,0.12749
885.16711,0.13660
887.09558,0.14654
889.02405,0.15784
890.95252,0.16470
892.88099,0.16317
894.80946,0.15811
896.73793,0.15200
898.66640,0.14293
900.59486,0.13763
902.52333,0.14498
904.45180,0.15884
906.38027,0.16527
908.30874,0.16101
910.23721,0.15241
912.16568,0.14635
914.09414,0.15090
916.02261,0.16451
917.95108,0.17294
919.87955,0.16945
921.80802,0.15948
923.73649,0.15343
925.66496,0.15502
927.59343,0.15764
929.52189,0.16234
931.45036,0.17137
933.37883,0.17325
935.30730,0.16243
937.23577,0.15053
939.16424,0.14828
941.09271,0.15396
943.02117,0.15880
944.94964,0.15831
946.87811,0.14631
948.80658,0.12361
950.73505,0.11844
952.66352,0.13503
954.59199,0.14947
956.52045,0.16237
958.44892,0.17384
960.37739,0.17619
962.30586,0.17135
964.23433,0.15835
966.16280,0.13873
968.09127,0.12639
970.01974,0.13038
971.94820,0.14164
973.87667,0.15457
975.80514,0.16724
977.73361,0.17227
979.66208,0.16905
981.59055,0.16456
983.51902,0.16332
985.44748,0.16156
987.37595,0.15684
989.30442,0.15155
991.23289,0.15194
993.16136,0.16497
995.08983,0.17777
997.01830,0.17459
998.94677,0.16560
1000.87523,0.16346
1002.80370,0.16217
1004.73217,0.15341
1006.66064,0.14786
1008.58911,0.15067
1010.51758,0.15270
1012.44605,0.15315
1014.37451,0.15612
1016.30298,0.16964
1018.23145,0.18486
1020.15992,0.18439
1022.08839,0.17760
1024.01686,0.17543
1025.94533,0.14997
1027.87380,0.09542
1029.80226,0.09141
1031.73073,0.14923
1033.65920,0.17967
1035.58767,0.17541
1037.51614,0.17489
1039.44461,0.17365
1041.37308,0.16667
1043.30154,0.16257
1045.23001,0.16281
1047.15848,0.16838
1049.08695,0.18256
1051.01542,0.18908
1052.94389,0.17723
1054.87236,0.16933
1056.80083,0.17713
1058.72929,0.18062
1060.65776,0.17925
1062.58623,0.18638
1064.51470,0.18830
1066.44317,0.18497
1068.37164,0.18953
1070.30011,0.19496
1072.22857,0.19760
1074.15704,0.19523
1076.08551,0.18533
1078.01398,0.18257
1079.94245,0.19345
1081.87092,0.19918
1083.79939,0.18999
1085.72786,0.17437
1087.65632,0.16147
1089.58479,0.15347
1091.51326,0.14977
1093.44173,0.16116
1095.37020,0.18647
1097.29867,0.19928
1099.22714,0.19415
1101.15560,0.19203
1103.08407,0.19752
1105.01254,0.20171
1106.94101,0.20624
1108.86948,0.20367
1110.79795,0.18620
1112.72642,0.17264
1114.65489,0.16841
1116.58335,0.16811
1118.51182,0.17789
1120.44029,0.18487
1122.36876,0.17903
1124.29723,0.17439
1126.22570,0.17858
1128.15417,0.18294
1130.08263,0.17879
1132.01110,0.17091
1133.93957,0.16648
1135.86804,0.16225
1137.79651,0.15732
1139.72498,0.15944
1141.65345,0.16892
1143.58191,0.17882
1145.51038,0.18523
1147.43885,0.18676
1149.36732,0.18419
1151.29579,0.18288
1153.22426,0.18788
1155.15273,0.19465
1157.08120,0.19658
1159.00966,0.19283
1160.93813,0.18523
1162.86660,0.17843
1164.79507,0.17383
1166.72354,0.16908
1168.65201,0.16646
1170.58048,0.16910
1172.50894,0.17682
1174.43741,0.18468
1176.36588,0.18493
1178.29435,0.17990
1180.22282,0.17615
1182.15129,0.17581
1184.07976,0.18308
1186.00823,0.19001
1187.93669,0.18157
1189.86516,0.16827
1191.79363,0.16364
1193.72210,0.16347
1195.65057,0.16855
1197.57904,0.17463
1199.50751,0.17222
1201.43597,0.16962
1203.36444,0.17563
1205.29291,0.18225
1207.22138,0.18258
1209.14985,0.18189
1211.07832,0.18164
1213.00679,0.17684
1214.93526,0.17261
1216.86372,0.17575
1218.79219,0.17824
1220.72066,0.17413
1222.64913,0.16914
1224.57760,0.16862
1226.50607,0.17369
1228.43454,0.17727
1230.36300,0.17287
1232.29147,0.16721
1234.21994,0.16964
1236.14841,0.17861
1238.07688,0.18669
1240.00535,0.18949
1241.93382,0.18704
1243.86229,0.18277
1245.79075,0.17900
1247.71922,0.17667
1249.64769,0.17620
1251.57616,0.17609
1253.50463,0.17548
1255.43310,0.17601
1257.36157,0.17798
1259.29003,0.17892
1261.21850,0.17883
1263.14697,0.17763
1265.07544,0.17869
1267.00391,0.18742
1268.93238,0.19608
1270.86085,0.19718
1272.78932,0.19310
1274.71778,0.18771
1276.64625,0.18501
1278.57472,0.18435
1280.50319,0.18288
1282.43166,0.17968
1284.36013,0.17574
1286.28860,0.17642
1288.21706,0.18372
1290.14553,0.19072
1292.07400,0.19016
1294.00247,0.18423
1295.93094,0.18163
1297.85941,0.18327
1299.78788,0.18276
1301.71634,0.17644
1303.64481,0.16606
1305.57328,0.16106
1307.50175,0.16843
1309.43022,0.18044
1311.35869,0.18763
1313.28716,0.18831
1315.21563,0.18510
1317.14409,0.18326
1319.07256,0.18226
1321.00103,0.18014
1322.92950,0.17962
1324.85797,0.17909
1326.78644,0.17809
1328.71491,0.17795
1330.64337,0.17595
1332.57184,0.17440
1334.50031,0.17593
1336.42878,0.17737
1338.35725,0.17778
1340.28572,0.17868
1342.21419,0.20254
1344.14266,0.26054
1346.07112,0.28836
1347.99959,0.24316
1349.92806,0.19616
1351.85653,0.19037
1353.78500,0.19138
1355.71347,0.18766
1357.64194,0.18804
1359.57040,0.19255
1361.49887,0.19554
1363.42734,0.19265
1365.35581,0.18988
1367.28428,0.18775
1369.21275,0.18253
1371.14122,0.18356
1373.06969,0.19827
1374.99815,0.21236
1376.92662,0.21021
1378.85509,0.20035
1380.78356,0.19390
1382.71203,0.19305
1384.64050,0.19391
1386.56897,0.19269
1388.49743,0.19053
1390.42590,0.19003
1392.35437,0.19406
1394.28284,0.20173
1396.21131,0.20116
1398.13978,0.19457
1400.06825,0.19548
1401.99672,0.20257
1403.92518,0.20704
1405.85365,0.20488
1407.78212,0.20157
1409.71059,0.19722
1411.63906,0.18912
1413.56753,0.18761
1415.49600,0.19821
1417.42446,0.21337
1419.35293,0.21976
1421.28140,0.21114
1423.20987,0.20064
1425.13834,0.19712
1427.06681,0.19937
1428.99528,0.20172
1430.92375,0.20311
1432.85221,0.20802
1434.78068,0.21580
1436.70915,0.21517
1438.63762,0.20514
1440.56609,0.20016
1442.49456,0.19928
1444.42303,0.19880
1446.35149,0.19988
1448.27996,0.20381
1450.20843,0.20950
1452.13690,0.21521
1454.06537,0.22266
1455.99384,0.23638
1457.92231,0.23777
1459.85077,0.21769
1461.77924,0.20704
1463.70771,0.20737
1465.63618,0.20796
1467.56465,0.20522
1469.49312,0.20748
1471.42159,0.21554
1473.35006,0.21973
1475.27852,0.21914
1477.20699,0.22027
1479.13546,0.22133
1481.06393,0.21620
1482.99240,0.20441
1484.92087,0.19908
1486.84934,0.20753
1488.77780,0.21762
1490.70627,0.21484
1492.63474,0.21234
1494.56321,0.21546
1496.49168,0.21426
1498.42015,0.20899
1500.34862,0.21769
1502.27709,0.23677
1504.20555,0.25830
1506.13402,0.27785
1508.06249,0.25607
1509.99096,0.22121
1511.91943,0.20552
1513.84790,0.20814
1515.77637,0.22516
1517.70483,0.23679
1519.63330,0.23670
1521.56177,0.23498
1523.49024,0.23239
1525.41871,0.22713
1527.34718,0.21321
1529.27565,0.20104
1531.20412,0.20253
1533.13258,0.21291
1535.06105,0.22244
1536.98952,0.23757
1538.91799,0.26453
1540.84646,0.26928
1542.77493,0.24185
1544.70340,0.22304
1546.63186,0.21451
1548.56033,0.21460
1550.48880,0.21757
1552.41727,0.22017
1554.34574,0.22627
1556.27421,0.24138
1558.20268,0.26193
1560.13115,0.24436
1562.05961,0.21914
1563.98808,0.20932
1565.91655,0.20823
1567.84502,0.21446
1569.77349,0.21902
1571.70196,0.21320
1573.63043,0.20764
1575.55889,0.20534
1577.48736,0.20260
1579.41583,0.20049
1581.34430,0.19714
1583.27277,0.19101
1585.20124,0.18707
1587.12971,0.18762
1589.05818,0.19063
1590.98664,0.19885
1592.91511,0.20855
1594.84358,0.20843
1596.77205,0.19984
1598.70052,0.19248
1600.62899,0.18988
1602.55746,0.18994
1604.48592,0.19009
1606.41439,0.19315
1608.34286,0.19822
1610.27133,0.19938
1612.19980,0.20053
1614.12827,0.20924
1616.05674,0.22175
1617.98521,0.21928
1619.91367,0.20842
1621.84214,0.20463
1623.77061,0.20847
1625.69908,0.21201
1627.62755,0.21044
1629.55602,0.20940
1631.48449,0.21438
1633.41295,0.22958
1635.34142,0.25121
1637.26989,0.24578
1639.19836,0.22697
1641.12683,0.21649
1643.05530,0.21332
1644.98377,0.21886
1646.91223,0.23047
1648.84070,0.23587
1650.76917,0.24427
1652.69764,0.25750
1654.62611,0.23930
1656.55458,0.21592
1658.48305,0.19903
1660.41152,0.18040
1662.33998,0.17077
1664.26845,0.18602
1666.19692,0.21200
1668.12539,0.23301
1670.05386,0.23696
1671.98233,0.22818
1673.91080,0.22610
1675.83926,0.22675
1677.76773,0.22371
1679.69620,0.22421
1681.62467,0.22919
1683.55314,0.23032
1685.48161,0.22084
1687.41008,0.21592
1689.33855,0.21700
1691.26701,0.21808
1693.19548,0.22115
1695.12395,0.22636
1697.05242,0.22470
1698.98089,0.21891
1700.90936,0.21820
1702.83783,0.22186
1704.76629,0.22821
1706.69476,0.22938
1708.62323,0.21914
1710.55170,0.21037
1712.48017,0.21361
1714.40864,0.22861
1716.33711,0.24576
1718.26558,0.23992
1720.19404,0.21946
1722.12251,0.20622
1724.05098,0.20034
1725.97945,0.20077
1727.90792,0.20656
1729.83639,0.21571
1731.76486,0.22656
1733.69332,0.23113
1735.62179,0.22111
1737.55026,0.21480
1739.47873,0.21660
1741.40720,0.21968
1743.33567,0.22116
1745.26414,0.22255
1747.19261,0.22271
1749.12107,0.22080
1751.04954,0.21928
1752.97801,0.21697
1754.90648,0.21615
1756.83495,0.21876
1758.76342,0.21904
1760.69189,0.21576
1762.62035,0.21057
1764.54882,0.20479
1766.47729,0.20268
1768.40576,0.20728
1770.33423,0.21819
1772.26270,0.22733
1774.19117,0.22375
1776.11964,0.21823
1778.04810,0.21950
1779.97657,0.22057
1781.90504,0.21435
1783.83351,0.20755
1785.76198,0.20647
1787.69045,0.20934
1789.61892,0.21496
1791.54738,0.22039
1793.47585,0.21789
1795.40432,0.21311
1797.33279,0.21260
1799.26126,0.21378
1801.18973,0.21323
1803.11820,0.21107
1805.04666,0.20885
1806.97513,0.20776
1808.90360,0.21163
1810.83207,0.21828
1812.76054,0.21881
1814.68901,0.21533
1816.61748,0.21249
1818.54595,0.20188
1820.47441,0.18427
1822.40288,0.18316
1824.33135,0.20422
1826.25982,0.22161
1828.18829,0.22471
1830.11676,0.21857
1832.04523,0.20734
1833.97369,0.20254
1835.90216,0.20279
1837.83063,0.20226
1839.75910,0.20475
1841.68757,0.21162
1843.61604,0.21862
1845.54451,0.22030
1847.47298,0.21718
1849.40144,0.21261
1851.32991,0.20856
1853.25838,0.20471
1855.18685,0.20097
1857.11532,0.20220
1859.04379,0.20670
1860.97226,0.20845
1862.90072,0.20925
1864.82919,0.21256
1866.75766,0.21753
1868.68613,0.21886
1870.61460,0.21371
1872.54307,0.20796
1874.47154,0.20505
1876.40001,0.20579
1878.32847,0.20827
1880.25694,0.20741
1882.18541,0.20473
1884.11388,0.20377
1886.04235,0.20382
1887.97082,0.20511
1889.89929,0.20552
1891.82775,0.20537
1893.75622,0.20608
1895.68469,0.20494
1897.61316,0.20364
1899.54163,0.20448
1901.47010,0.20490
1903.39857,0.20356
1905.32704,0.20323
1907.25550,0.20765
1909.18397,0.21251
1911.11244,0.20961
1913.04091,0.20531
1914.96938,0.20784
1916.89785,0.21225
1918.82632,0.21234
1920.75478,0.21067
1922.68325,0.21059
1924.61172,0.21033
1926.54019,0.20777
1928.46866,0.20337
1930.39713,0.20128
1932.32560,0.20326
1934.25407,0.20643
1936.18253,0.20865
1938.11100,0.20886
1940.03947,0.20879
1941.96794,0.21078
1943.89641,0.21355
1945.82488,0.21297
1947.75335,0.20909
1949.68181,0.20747
1951.61028,0.20793
1953.53875,0.20511
1955.46722,0.20100
1957.39569,0.20079
1959.32416,0.20403
1961.25263,0.20693
1963.18110,0.20729
1965.10956,0.20626
1967.03803,0.20547
1968.96650,0.20699
1970.89497,0.21033
1972.82344,0.21145
1974.75191,0.21023
1976.68038,0.21143
1978.60884,0.21417
1980.53731,0.20950
1982.46578,0.19939
1984.39425,0.19641
1986.32272,0.20205
1988.25119,0.20862
1990.17966,0.21177
1992.10812,0.21263
1994.03659,0.21156
1995.96506,0.20793
1997.89353,0.20274
1999.82200,0.19792
2001.75047,0.19653
2003.67894,0.19801
2005.60741,0.20033
2007.53587,0.20563
2009.46434,0.21266
2011.39281,0.21606
2013.32128,0.21450
2015.24975,0.21065
2017.17822,0.20843
2019.10669,0.20814
2021.03515,0.20813
2022.96362,0.20840
2024.89209,0.20793
2026.82056,0.20747
2028.74903,0.20752
2030.67750,0.20689
2032.60597,0.20585
2034.53444,0.20488
2036.46290,0.20437
2038.39137,0.20420
2040.31984,0.20445
2042.24831,0.20547
2044.17678,0.20669
2046.10525,0.20749
2048.03372,0.20747
2049.96218,0.20567
2051.89065,0.20226
2053.81912,0.19988
2055.74759,0.20154
2057.67606,0.20608
2059.60453,0.20821
2061.53300,0.20656
2063.46147,0.20355
2065.38993,0.20150
2067.31840,0.20155
2069.24687,0.20191
2071.17534,0.20198
2073.10381,0.20422
2075.03228,0.20880
2076.96075,0.21190
2078.88921,0.21147
2080.81768,0.20886
2082.74615,0.20599
2084.67462,0.20372
2086.60309,0.20215
2088.53156,0.20207
2090.46003,0.20378
2092.38850,0.20638
2094.31696,0.20849
2096.24543,0.20967
2098.17390,0.20926
2100.10237,0.20733
2102.03084,0.20617
2103.95931,0.20651
2105.88778,0.20843
2107.81624,0.21100
2109.74471,0.21157
2111.67318,0.20980
2113.60165,0.20818
2115.53012,0.20801
2117.45859,0.20863
2119.38706,0.20899
2121.31553,0.20780
2123.24399,0.20563
2125.17246,0.20549
2127.10093,0.20838
2129.02940,0.21075
2130.95787,0.21108
2132.88634,0.21461
2134.81481,0.22549
2136.74327,0.23391
2138.67174,0.22644
2140.60021,0.21197
2142.52868,0.20623
2144.45715,0.20654
2146.38562,0.20681
2148.31409,0.20944
2150.24255,0.21384
2152.17102,0.21532
2154.09949,0.21586
2156.02796,0.21942
2157.95643,0.22250
2159.88490,0.22005
2161.81337,0.21499
2163.74184,0.21252
2165.67030,0.21070
2167.59877,0.20743
2169.52724,0.20514
2171.45571,0.20573
2173.38418,0.20922
2175.31265,0.21198
2177.24112,0.21108
2179.16958,0.20975
2181.09805,0.20973
2183.02652,0.20965
2184.95499,0.20944
2186.88346,0.20856
2188.81193,0.20771
2190.74040,0.20952
2192.66887,0.21325
2194.59733,0.21471
2196.52580,0.21178
2198.45427,0.20783
2200.38274,0.20779
2202.31121,0.21035
2204.23968,0.21173
2206.16815,0.21246
2208.09661,0.21213
2210.02508,0.20998
2211.95355,0.20785
2213.88202,0.20593
2215.81049,0.20481
2217.73896,0.20633
2219.66743,0.21041
2221.59590,0.21429
2223.52436,0.21458
2225.45283,0.21141
2227.38130,0.20608
2229.30977,0.20009
2231.23824,0.19708
2233.16671,0.19989
2235.09518,0.20724
2237.02364,0.21283
2238.95211,0.21303
2240.88058,0.21063
2242.80905,0.20843
2244.73752,0.20813
2246.66599,0.20953
2248.59446,0.21027
2250.52293,0.21073
2252.45139,0.21252
2254.37986,0.21489
2256.30833,0.21751
2258.23680,0.21775
2260.16527,0.21285
2262.09374,0.20981
2264.02221,0.21261
2265.95067,0.21302
2267.87914,0.20841
2269.80761,0.20489
2271.73608,0.20446
2273.66455,0.20365
2275.59302,0.20191
2277.52149,0.20371
2279.44996,0.20972
2281.37842,0.21346
2283.30689,0.21067
2285.23536,0.20603
2287.16383,0.20498
2289.09230,0.20439
2291.02077,0.20272
2292.94924,0.21111
2294.87770,0.22755
2296.80617,0.22695
2298.73464,0.20914
2300.66311,0.19962
2302.59158,0.20319
2304.52005,0.20778
2306.44852,0.20756
2308.37699,0.20714
2310.30545,0.20993
2312.23392,0.21194
2314.16239,0.21247
2316.09086,0.21410
2318.01933,0.21964
2319.94780,0.22556
2321.87627,0.22219
2323.80473,0.21315
2325.73320,0.20777
2327.66167,0.20686
2329.59014,0.21140
2331.51861,0.21990
2333.44708,0.22672
2335.37555,0.22466
2337.30401,0.20809
2339.23248,0.18869
2341.16095,0.18224
2343.08942,0.19034
2345.01789,0.20251
2346.94636,0.20752
2348.87483,0.20991
2350.80330,0.21685
2352.73176,0.23496
2354.66023,0.26201
2356.58870,0.27331
2358.51717,0.25740
2360.44564,0.23599
2362.37411,0.22558
2364.30258,0.22515
2366.23104,0.22296
2368.15951,0.20936
2370.08798,0.20399
2372.01645,0.21525
2373.94492,0.22388
2375.87339,0.22233
2377.80186,0.21637
2379.73033,0.21366
2381.65879,0.21543
2383.58726,0.21519
2385.51573,0.21188
2387.44420,0.20868
2389.37267,0.20577
2391.30114,0.20390
2393.22961,0.20412
2395.15807,0.20604
2397.08654,0.20785
2399.01501,0.20709
2400.94348,0.20491
2402.87195,0.20514
2404.80042,0.20938
2406.72889,0.21362
2408.65736,0.21426
2410.58582,0.21375
2412.51429,0.21362
2414.44276,0.21391
2416.37123,0.21357
2418.29970,0.21056
2420.22817,0.20749
2422.15664,0.20671
2424.08510,0.20750
2426.01357,0.21024
2427.94204,0.21071
2429.87051,0.20726
2431.79898,0.20618
2433.72745,0.20574
2435.65592,0.20355
2437.58439,0.20442
2439.51285,0.20665
2441.44132,0.20690
2443.36979,0.20772
2445.29826,0.20999
2447.22673,0.21123
2449.15520,0.20796
2451.08367,0.19734
2453.01213,0.18641
2454.94060,0.18786
2456.86907,0.20051
2458.79754,0.21102
2460.72601,0.21448
2462.65448,0.21579
2464.58295,0.21536
2466.51142,0.21301
2468.43988,0.21136
2470.36835,0.20981
2472.29682,0.20867
2474.22529,0.20916
2476.15376,0.21069
2478.08223,0.21107
2480.01070,0.20927
2481.93916,0.20957
2483.86763,0.21226
2485.79610,0.21089
2487.72457,0.20612
2489.65304,0.20478
2491.58151,0.20766
2493.50998,0.21025
2495.43844,0.21213
2497.36691,0.21295
2499.29538,0.21136
2501.22385,0.21207
2503.15232,0.21528
2505.08079,0.21595
2507.00926,0.21471
2508.93773,0.21283
2510.86619,0.21185
2512.79466,0.21332
2514.72313,0.21336
2516.65160,0.21120
2518.58007,0.21072
2520.50854,0.21015
2522.43701,0.20806
2524.36547,0.20890
2526.29394,0.21259
2528.22241,0.21458
2530.15088,0.21400
2532.07935,0.21175
2534.00782,0.21053
2535.93629,0.21029
2537.86476,0.20688
2539.79322,0.20383
2541.72169,0.20524
2543.65016,0.20870
2545.57863,0.21211
2547.50710,0.21372
2549.43557,0.21372
2551.36404,0.21200
2553.29250,0.20910
2555.22097,0.20912
2557.14944,0.21070
2559.07791,0.21204
2561.00638,0.21534
2562.93485,0.21639
2564.86332,0.21358
2566.79179,0.21339
2568.72025,0.21633
2570.64872,0.21765
2572.57719,0.21574
2574.50566,0.21221
2576.43413,0.20885
2578.36260,0.20731
2580.29107,0.20858
2582.21953,0.21105
2584.14800,0.21316
2586.07647,0.21448
2588.00494,0.21502
2589.93341,0.21440
2591.86188,0.21269
2593.79035,0.21267
2595.71882,0.21537
2597.64728,0.21888
2599.57575,0.22017
2601.50422,0.21684
2603.43269,0.21261
2605.36116,0.21114
2607.28963,0.21112
2609.21810,0.21200
2611.14656,0.21423
2613.07503,0.21765
2615.00350,0.21770
2616.93197,0.21188
2618.86044,0.20928
2620.78891,0.21233
2622.71738,0.21343
2624.64585,0.21491
2626.57431,0.21715
2628.50278,0.21446
2630.43125,0.21257
2632.35972,0.21459
2634.28819,0.21442
2636.21666,0.21262
2638.14513,0.21220
2640.07359,0.21318
2642.00206,0.21610
2643.93053,0.21799
2645.85900,0.21559
2647.78747,0.21347
2649.71594,0.21598
2651.64441,0.21917
2653.57288,0.21930
2655.50134,0.21808
2657.42981,0.21715
2659.35828,0.21487
2661.28675,0.21045
2663.21522,0.20867
2665.14369,0.21332
2667.07216,0.21925
2669.00062,0.22017
2670.92909,0.21825
2672.85756,0.21830
2674.78603,0.21891
2676.71450,0.21819
2678.64297,0.21780
2680.57144,0.21789
2682.49990,0.21848
2684.42837,0.21774
2686.35684,0.21487
2688.28531,0.21540
2690.21378,0.21780
2692.14225,0.21637
2694.07072,0.21572
2695.99919,0.21837
2697.92765,0.21906
2699.85612,0.21630
2701.78459,0.21256
2703.71306,0.20988
2705.64153,0.21027
2707.57000,0.21456
2709.49847,0.22100
2711.42693,0.22537
2713.35540,0.22544
2715.28387,0.22425
2717.21234,0.22316
2719.14081,0.22200
2721.06928,0.22364
2722.99775,0.22763
2724.92622,0.23227
2726.85468,0.23392
2728.78315,0.22665
2730.71162,0.21826
2732.64009,0.21926
2734.56856,0.22408
2736.49703,0.22641
2738.42550,0.22839
2740.35396,0.22964
2742.28243,0.22710
2744.21090,0.22427
2746.13937,0.22632
2748.06784,0.23090
2749.99631,0.23116
2751.92478,0.22600
2753.85325,0.22159
2755.78171,0.22005
2757.71018,0.21899
2759.63865,0.22008
2761.56712,0.22495
2763.49559,0.22979
2765.42406,0.23277
2767.35253,0.23352
2769.28099,0.23091
2771.20946,0.22945
2773.13793,0.23156
2775.06640,0.23396
2776.99487,0.23375
2778.92334,0.23050
2780.85181,0.22792
2782.78028,0.22958
2784.70874,0.23430
2786.63721,0.23700
2788.56568,0.23490
2790.49415,0.23056
2792.42262,0.22432
2794.35109,0.21773
2796.27956,0.21929
2798.20802,0.22708
2800.13649,0.22877
2802.06496,0.22414
2803.99343,0.22419
2805.92190,0.23299
2807.85037,0.24176
2809.77884,0.24374
2811.70731,0.24223
2813.63577,0.24239
2815.56424,0.24220
2817.49271,0.23549
2819.42118,0.22629
2821.34965,0.22208
2823.27812,0.22191
2825.20659,0.22455
2827.13505,0.23042
2829.06352,0.23514
2830.99199,0.23413
2832.92046,0.23042
2834.84893,0.23095
2836.77740,0.23449
2838.70587,0.23218
2840.63433,0.22605
2842.56280,0.22501
2844.49127,0.22682
2846.41974,0.22662
2848.34821,0.22828
2850.27668,0.23257
2852.20515,0.23290
2854.13362,0.23026
2856.06208,0.23063
2857.99055,0.23232
2859.91902,0.22952
2861.84749,0.22438
2863.77596,0.22489
2865.70443,0.23116
2867.63290,0.23585
2869.56136,0.23425
2871.48983,0.22898
2873.41830,0.22518
2875.34677,0.22427
2877.27524,0.22514
2879.20371,0.22735
2881.13218,0.23005
2883.06065,0.23044
2884.98911,0.22870
2886.91758,0.22852
2888.84605,0.23072
2890.77452,0.23158
2892.70299,0.22902
2894.63146,0.22412
2896.55993,0.22037
2898.48839,0.22238
2900.41686,0.22775
2902.34533,0.23147
2904.27380,0.23182
2906.20227,0.22843
2908.13074,0.22503
2910.05921,0.22515
2911.98768,0.22639
2913.91614,0.22451
2915.84461,0.22141
2917.77308,0.22358
2919.70155,0.22822
2921.63002,0.22817
2923.55849,0.22288
2925.48696,0.21624
2927.41542,0.21975
2929.34389,0.23096
2931.27236,0.23115
2933.20083,0.22347
2935.12930,0.21902
2937.05777,0.21936
2938.98624,0.22640
2940.91471,0.23245
2942.84317,0.23028
2944.77164,0.22287
2946.70011,0.21381
2948.62858,0.21257
2950.55705,0.22452
2952.48552,0.23828
2954.41399,0.24180
2956.34245,0.23487
2958.27092,0.23003
2960.19939,0.23538
2962.12786,0.24112
2964.05633,0.23907
2965.98480,0.23400
2967.91327,0.23258
2969.84174,0.23485
2971.77020,0.23723
2973.69867,0.23814
2975.62714,0.23363
2977.55561,0.22509
2979.48408,0.22673
2981.41255,0.23947
2983.34102,0.24570
2985.26948,0.23974
2987.19795,0.23122
2989.12642,0.22899
2991.05489,0.23204
2992.98336,0.23289
2994.91183,0.23204
2996.84030,0.23491
2998.76877,0.23859
3000.69723,0.23720
3002.62570,0.23078
3004.55417,0.22284
3006.48264,0.21898
3008.41111,0.22080
3010.33958,0.22033
3012.26805,0.20936
3014.19651,0.18752
3016.12498,0.16999
3018.05345,0.18110
3019.98192,0.21504
3021.91039,0.23827
3023.83886,0.24162
3025.76733,0.24003
3027.69579,0.24184
3029.62426,0.24571
3031.55273,0.24601
3033.48120,0.24161
3035.40967,0.23795
3037.33814,0.23558
3039.26661,0.23221
3041.19508,0.23019
3043.12354,0.23192
3045.05201,0.23453
3046.98048,0.23555
3048.90895,0.23896
3050.83742,0.24277
3052.76589,0.24249
3054.69436,0.24350
3056.62282,0.24405
3058.55129,0.23957
3060.47976,0.23488
3062.40823,0.23318
3064.33670,0.23203
3066.26517,0.22851
3068.19364,0.22948
3070.12211,0.23639
3072.05057,0.23896
3073.97904,0.23833
3075.90751,0.23903
3077.83598,0.23763
3079.76445,0.23466
3081.69292,0.23394
3083.62139,0.23111
3085.54985,0.22482
3087.47832,0.22614
3089.40679,0.23571
3091.33526,0.23914
3093.26373,0.23511
3095.19220,0.23778
3097.12067,0.24568
3099.04914,0.24816
3100.97760,0.24443
3102.90607,0.23444
3104.83454,0.22658
3106.76301,0.22841
3108.69148,0.23089
3110.61995,0.22578
3112.54842,0.21911
3114.47688,0.22283
3116.40535,0.23361
3118.33382,0.23722
3120.26229,0.23269
3122.19076,0.22898
3124.11923,0.23004
3126.04770,0.23265
3127.97617,0.23187
3129.90463,0.22852
3131.83310,0.22891
3133.76157,0.23414
3135.69004,0.23806
3137.61851,0.23792
3139.54698,0.23751
3141.47545,0.24095
3143.40391,0.24603
3145.33238,0.24548
3147.26085,0.23934
3149.18932,0.23279
3151.11779,0.22709
3153.04626,0.22381
3154.97473,0.22368
3156.90320,0.22543
3158.83166,0.23083
3160.76013,0.24010
3162.68860,0.24455
3164.61707,0.24258
3166.54554,0.24204
3168.47401,0.23940
3170.40248,0.23401
3172.33094,0.23418
3174.25941,0.23883
3176.18788,0.24145
3178.11635,0.23952
3180.04482,0.23743
3181.97329,0.24169
3183.90176,0.24922
3185.83022,0.25070
3187.75869,0.24700
3189.68716,0.24592
3191.61563,0.24815
3193.54410,0.25059
3195.47257,0.25103
3197.40104,0.24695
3199.32951,0.23955
3201.25797,0.23363
3203.18644,0.23234
3205.11491,0.23536
3207.04338,0.23683
3208.97185,0.23123
3210.90032,0.22490
3212.82879,0.22787
3214.75725,0.23593
3216.68572,0.24060
3218.61419,0.24282
3220.54266,0.24371
3222.47113,0.24124
3224.39960,0.23590
3226.32807,0.23317
3228.25654,0.23570
3230.18500,0.23956
3232.11347,0.24177
3234.04194,0.24157
3235.97041,0.23997
3237.89888,0.23730
3239.82735,0.23418
3241.75582,0.23623
3243.68428,0.24393
3245.61275,0.24583
3247.54122,0.23810
3249.46969,0.23436
3251.39816,0.24081
3253.32663,0.24492
3255.25510,0.23912
3257.18357,0.23400
3259.11203,0.23785
3261.04050,0.24370
3262.96897,0.24222
3264.89744,0.23392
3266.82591,0.22845
3268.75438,0.23108
3270.68285,0.23548
3272.61131,0.23446
3274.53978,0.22970
3276.46825,0.22716
3278.39672,0.22733
3280.32519,0.22883
3282.25366,0.23076
3284.18213,0.23480
3286.11060,0.24640
3288.03906,0.25809
3289.96753,0.25522
3291.89600,0.24269
3293.82447,0.23731
3295.75294,0.24049
3297.68141,0.24350
3299.60988,0.24396
3301.53834,0.24297
3303.46681,0.24121
3305.39528,0.23735
3307.32375,0.23449
3309.25222,0.23540
3311.18069,0.23366
3313.10916,0.23174
3315.03763,0.23592
3316.96609,0.24212
3318.89456,0.24404
3320.82303,0.23834
3322.75150,0.23277
3324.67997,0.23523
3326.60844,0.23827
3328.53691,0.23521
3330.46537,0.22814
3332.39384,0.22337
3334.32231,0.22666
3336.25078,0.23527
3338.17925,0.24392
3340.10772,0.24870
3342.03619,0.24787
3343.96466,0.24372
3345.89312,0.23932
3347.82159,0.23985
3349.75006,0.24192
3351.67853,0.23976
3353.60700,0.24219
3355.53547,0.25045
3357.46394,0.25171
3359.39240,0.24750
3361.32087,0.24928
3363.24934,0.25303
3365.17781,0.24932
3367.10628,0.24135
3369.03475,0.23687
3370.96322,0.23928
3372.89168,0.24600
3374.82015,0.24766
3376.74862,0.24261
3378.67709,0.24394
3380.60556,0.25255
3382.53403,0.25550
3384.46250,0.24849
3386.39097,0.23688
3388.31943,0.23125
3390.24790,0.23471
3392.17637,0.24094
3394.10484,0.24724
3396.03331,0.25387
3397.96178,0.25852
3399.89025,0.25879
3401.81871,0.25100
3403.74718,0.23840
3405.67565,0.23728
3407.60412,0.24654
3409.53259,0.24829
3411.46106,0.24364
3413.38953,0.24098
3415.31800,0.23909
3417.24646,0.23919
3419.17493,0.23982
3421.10340,0.23392
3423.03187,0.22668
3424.96034,0.22706
3426.88881,0.23137
3428.81728,0.23421
3430.74574,0.23703
3432.67421,0.24009
3434.60268,0.23808
3436.53115,0.22932
3438.45962,0.22214
3440.38809,0.22325
3442.31656,0.22687
3444.24503,0.22903
3446.17349,0.23098
3448.10196,0.23033
3450.03043,0.22846
3451.95890,0.22698
3453.88737,0.22252
3455.81584,0.21703
3457.74431,0.21709
3459.67277,0.22063
3461.60124,0.22126
3463.52971,0.22142
3465.45818,0.22492
3467.38665,0.22829
3469.31512,0.22845
3471.24359,0.22519
3473.17206,0.21813
3475.10052,0.21041
3477.02899,0.20644
3478.95746,0.20482
3480.88593,0.20298
3482.81440,0.20475
3484.74287,0.21057
3486.67134,0.21373
3488.59980,0.21277
3490.52827,0.21237
3492.45674,0.21679
3494.38521,0.22318
3496.31368,0.22332
3498.24215,0.21778
3500.17062,0.21621
3502.09909,0.21795
3504.02755,0.21409
3505.95602,0.20687
3507.88449,0.20075
3509.81296,0.19866
3511.74143,0.20122
3513.66990,0.19966
3515.59837,0.19489
3517.52683,0.19535
3519.45530,0.19943
3521.38377,0.20535
3523.31224,0.21405
3525.24071,0.21743
3527.16918,0.21241
3529.09765,0.20367
3531.02611,0.19390
3532.95458,0.18998
3534.88305,0.19302
3536.81152,0.19376
3538.73999,0.18848
3540.66846,0.18389
3542.59693,0.18567
3544.52540,0.19496
3546.45386,0.20658
3548.38233,0.20838
3550.31080,0.20040
3552.23927,0.19205
3554.16774,0.18588
3556.09621,0.18077
3558.02468,0.17877
3559.95314,0.18200
3561.88161,0.18721
3563.81008,0.19054
3565.73855,0.19639
3567.66702,0.20240
3569.59549,0.19527
3571.52396,0.18285
3573.45243,0.17426
3575.38089,0.17168
3577.30936,0.17722
3579.23783,0.18632
3581.16630,0.18963
3583.09477,0.18481
3585.02324,0.17792
3586.95171,0.17647
3588.88017,0.17939
3590.80864,0.17974
3592.73711,0.17749
3594.66558,0.17253
3596.59405,0.16688
3598.52252,0.16503
3600.45099,0.16738
3602.37946,0.17149
3604.30792,0.17518
3606.23639,0.17932
3608.16486,0.18257
3610.09333,0.18175
3612.02180,0.17942
3613.95027,0.17622
3615.87874,0.17469
3617.80720,0.17757
3619.73567,0.17959
3621.66414,0.17981
3623.59261,0.18237
3625.52108,0.18408
3627.44955,0.18005
3629.37802,0.16900
3631.30649,0.16187
3633.23495,0.15898
3635.16342,0.15495
3637.09189,0.15093
3639.02036,0.15055
3640.94883,0.15752
3642.87730,0.16621
3644.80577,0.16886
3646.73423,0.17090
3648.66270,0.18002
3650.59117,0.18287
3652.51964,0.17268
3654.44811,0.16309
3656.37658,0.15715
3658.30505,0.15306
3660.23352,0.15018
3662.16198,0.14473
3664.09045,0.13900
3666.01892,0.14452
3667.94739,0.16435
3669.87586,0.18494
3671.80433,0.18861
3673.73280,0.18697
3675.66126,0.18095
3677.58973,0.16392
3679.51820,0.15118
3681.44667,0.14755
3683.37514,0.15045
3685.30361,0.15839
3687.23208,0.17007
3689.16055,0.17541
3691.08901,0.16530
3693.01748,0.15386
3694.94595,0.14903
3696.87442,0.14767
3698.80289,0.14664
3700.73136,0.14869
3702.65983,0.15323
3704.58829,0.15394
3706.51676,0.15488
3708.44523,0.16137
3710.37370,0.16872
3712.30217,0.16585
3714.23064,0.15511
3716.15911,0.14395
3718.08757,0.13407
3720.01604,0.12874
3721.94451,0.13296
3723.87298,0.14607
3725.80145,0.15553
3727.72992,0.15407
3729.65839,0.14927
3731.58686,0.14763
3733.51532,0.15199
3735.44379,0.15918
3737.37226,0.16082
3739.30073,0.16027
3741.22920,0.16447
3743.15767,0.17513
3745.08614,0.17789
3747.01460,0.16477
3748.94307,0.15851
3750.87154,0.16197
3752.80001,0.15695
3754.72848,0.14960
3756.65695,0.14936
3758.58542,0.15327
3760.51389,0.15473
3762.44235,0.15531
3764.37082,0.15906
3766.29929,0.16212
3768.22776,0.16175
3770.15623,0.15602
3772.08470,0.14615
3774.01317,0.14162
3775.94163,0.14279
3777.87010,0.14555
3779.79857,0.14526
3781.72704,0.14360
3783.65551,0.14569
3785.58398,0.14264
3787.51245,0.13300
3789.44092,0.12913
3791.36938,0.13246
3793.29785,0.13993
3795.22632,0.15039
3797.15479,0.15789
3799.08326,0.16123
3801.01173,0.16416
3802.94020,0.15623
3804.86866,0.14404
3806.79713,0.14402
3808.72560,0.15015
3810.65407,0.14649
3812.58254,0.14111
3814.51101,0.14972
3816.43948,0.16855
3818.36795,0.17479
3820.29641,0.16735
3822.22488,0.15012
3824.15335,0.14154
3826.08182,0.14359
3828.01029,0.14388
3829.93876,0.14230
3831.86723,0.14326
3833.79569,0.14536
3835.72416,0.14885
3837.65263,0.14885
3839.58110,0.13964
3841.50957,0.13949
3843.43804,0.14905
3845.36651,0.14736
3847.29498,0.14180
3849.22344,0.14802
3851.15191,0.16322
3853.08038,0.17745
3855.00885,0.17092
3856.93732,0.15427
3858.86579,0.14279
3860.79426,0.13883
3862.72272,0.13803
3864.65119,0.13259
3866.57966,0.13035
3868.50813,0.14412
3870.43660,0.16209
3872.36507,0.15568
3874.29354,0.13583
3876.22200,0.12487
3878.15047,0.12795
3880.07894,0.13893
3882.00741,0.14327
3883.93588,0.13865
3885.86435,0.13455
3887.79282,0.13263
3889.72129,0.12992
3891.64975,0.12454
3893.57822,0.12134
3895.50669,0.12446
3897.43516,0.12649
3899.36363,0.12782
3901.29210,0.13749
3903.22057,0.14618
3905.14903,0.14394
3907.07750,0.13560
3909.00597,0.13024
3910.93444,0.13397
3912.86291,0.14469
3914.79138,0.15585
3916.71985,0.15966
3918.64832,0.15251
3920.57678,0.14312
3922.50525,0.13775
3924.43372,0.13453
3926.36219,0.13083
3928.29066,0.12412
3930.21913,0.11632
3932.14760,0.11283
3934.07606,0.11375
3936.00453,0.11829
3937.93300,0.12113
3939.86147,0.11686
3941.78994,0.11458
3943.71841,0.12131
3945.64688,0.13243
3947.57535,0.14038
3949.50381,0.13689
3951.43228,0.13022
3953.36075,0.13000
3955.28922,0.13099
3957.21769,0.12887
3959.14616,0.12572
3961.07463,0.12614
3963.00309,0.12669
3964.93156,0.12226
3966.86003,0.11592
3968.78850,0.11315
3970.71697,0.11651
3972.64544,0.12186
3974.57391,0.12228
3976.50238,0.11548
3978.43084,0.10992
3980.35931,0.11368
3982.28778,0.12085
3984.21625,0.12385
3986.14472,0.12377
3988.07319,0.12166
3990.00166,0.11892
3991.93012,0.11947
3993.85859,0.12124
3995.78706,0.12157
3997.71553,0.12082
3999.64400,0.11737
4001.57247,0.11258
4003.50094,0.10851
4005.42941,0.10534
4007.35787,0.10869
4009.28634,0.11938
4011.21481,0.12706
4013.14328,0.12841
4015.07175,0.12360
4017.00022,0.11230
4018.92869,0.10270
4020.85715,0.10302
4022.78562,0.11078
4024.71409,0.11559
4026.64256,0.11498
4028.57103,0.11369
4030.49950,0.11072
4032.42797,0.10687
4034.35644,0.10619
4036.28490,0.10688
4038.21337,0.10515
4040.14184,0.10231
4042.07031,0.10245
4043.99878,0.10931
4045.92725,0.12136
4047.85572,0.13006
4049.78418,0.12718
4051.71265,0.11553
4053.64112,0.10822
4055.56959,0.10787
4057.49806,0.10744
4059.42653,0.10884
4061.35500,0.11579
4063.28346,0.12098
4065.21193,0.11668
4067.14040,0.10951
4069.06887,0.10550
4070.99734,0.10181
4072.92581,0.10165
4074.85428,0.10556
4076.78275,0.10616
4078.71121,0.10724
4080.63968,0.11272
4082.56815,0.11158
4084.49662,0.10414
4086.42509,0.10194
4088.35356,0.10708
4090.28203,0.11797
4092.21049,0.12222
4094.13896,0.11165
4096.06743,0.10404
4097.99590,0.10683
4099.92437,0.10822
4101.85284,0.10488
4103.78131,0.09777
4105.70978,0.09286
4107.63824,0.09880
4109.56671,0.11027
4111.49518,0.11991
4113.42365,0.12529
4115.35212,0.12284
4117.28059,0.11395
4119.20906,0.10325
4121.13752,0.09810
4123.06599,0.10279
4124.99446,0.10758
4126.92293,0.10560
4128.85140,0.10318
4130.77987,0.10221
4132.70834,0.09896
4134.63681,0.09403
4136.56527,0.09076
4138.49374,0.09461
4140.42221,0.10476
4142.35068,0.10706
4144.27915,0.09566
4146.20762,0.08619
4148.13609,0.08801
4150.06455,0.09260
4151.99302,0.09477
4153.92149,0.09508
4155.84996,0.09449
4157.77843,0.09378
4159.70690,0.09311
4161.63537,0.09571
4163.56384,0.10130
4165.49230,0.10147
4167.42077,0.09552
4169.34924,0.08882
4171.27771,0.08122
4173.20618,0.07885
4175.13465,0.08733
4177.06312,0.09836
4178.99158,0.10022
4180.92005,0.09125
4182.84852,0.08318
4184.77699,0.08260
4186.70546,0.08366
4188.63393,0.08517
4190.56240,0.09186
4192.49087,0.09926
4194.41933,0.09887
4196.34780,0.09163
4198.27627,0.08294
4200.20474,0.07982
4202.13321,0.08456
4204.06168,0.08738
4205.99015,0.08103
4207.91861,0.07210
4209.84708,0.06691
4211.77555,0.06550
4213.70402,0.07016
4215.63249,0.07724
4217.56096,0.07743
4219.48943,0.07352
4221.41789,0.07451
4223.34636,0.08187
4225.27483,0.09071
4227.20330,0.09180
4229.13177,0.08216
4231.06024,0.07231
4232.98871,0.06895
4234.91718,0.07118
4236.84564,0.07720
4238.77411,0.07931
4240.70258,0.07805
4242.63105,0.08058
4244.55952,0.08047
4246.48799,0.07720
4248.41646,0.07690
4250.34492,0.07241
4252.27339,0.06352
4254.20186,0.05896
4256.13033,0.06288
4258.05880,0.07560
4259.98727,0.08609
4261.91574,0.08252
4263.84421,0.07126
4265.77267,0.06950
4267.70114,0.07747
4269.62961,0.07868
4271.55808,0.07638
4273.48655,0.08064
4275.41502,0.08374
4277.34349,0.08279
4279.27195,0.08092
4281.20042,0.07397
4283.12889,0.06685
4285.05736,0.06986
4286.98583,0.07534
4288.91430,0.07435
4290.84277,0.07070
4292.77124,0.06889
4294.69970,0.06624
4296.62817,0.05703
4298.55664,0.04921
4300.48511,0.05063
4302.41358,0.05382
4304.34205,0.05709
4306.27052,0.06442
4308.19898,0.07048
4310.12745,0.06658
4312.05592,0.05703
4313.98439,0.05658
4315.91286,0.06212
4317.84133,0.05794
4319.76980,0.04863
4321.69827,0.04545
4323.62673,0.04657
4325.55520,0.05091
4327.48367,0.05885
4329.41214,0.06446
4331.34061,0.06184
4333.26908,0.05459
4335.19755,0.04806
4337.12601,0.04487
4339.05448,0.05126
4340.98295,0.05997
4342.91142,0.05789
4344.83989,0.05272
4346.76836,0.05527
4348.69683,0.06671
4350.62530,0.08225
4352.55376,0.08786
4354.48223,0.07517
4356.41070,0.05520
4358.33917,0.04638
4360.26764,0.05024
4362.19611,0.05482
4364.12458,0.05262
4366.05304,0.04414
4367.98151,0.03909
4369.90998,0.03780
4371.83845,0.03214
4373.76692,0.03053
4375.69539,0.03887
4377.62386,0.04964
4379.55232,0.05232
4381.48079,0.04674
4383.40926,0.04845
4385.33773,0.05279
4387.26620,0.04518
4389.19467,0.03766
4391.12314,0.04142
4393.05161,0.04784
4394.98007,0.04933
4396.90854,0.04519
4398.83701,0.03936
4400.76548,0.04156
4402.69395,0.05016
4404.62242,0.05217
4406.55089,0.04660
4408.47935,0.03889
4410.40782,0.03019
4412.33629,0.02323
4414.26476,0.01882
4416.19323,0.01875
4418.12170,0.02871
4420.05017,0.04291
4421.97864,0.04916
4423.90710,0.04868
4425.83557,0.05047
4427.76404,0.05282
4429.69251,0.05135
4431.62098,0.05083
4433.54945,0.05161
4435.47792,0.04626
4437.40638,0.03578
4439.33485,0.03075
4441.26332,0.03516
4443.19179,0.04508
4445.12026,0.04695
4447.04873,0.03221
4448.97720,0.01369
4450.90567,0.00182
4452.83413,-0.00066
4454.76260,0.00339
4456.69107,0.00982
4458.61954,0.02020
4460.54801,0.03337
4462.47648,0.04142
4464.40495,0.03677
4466.33341,0.02877
4468.26188,0.02709
4470.19035,0.03063
4472.11882,0.04067
4474.04729,0.04938
4475.97576,0.04963
4477.90423,0.04960
4479.83270,0.05092
4481.76116,0.04817
4483.68963,0.04141
4485.61810,0.03033
4487.54657,0.01877
4489.47504,0.01514
4491.40351,0.02003
4493.33198,0.02893
4495.26044,0.04052
4497.18891,0.05025
4499.11738,0.05090
4501.04585,0.04551
4502.97432,0.04277
4504.90279,0.04457
4506.83126,0.04315
4508.75973,0.03424
4510.68819,0.02167
4512.61666,0.00970
4514.54513,0.00798
4516.47360,0.02076
4518.40207,0.03233
4520.33054,0.03195
4522.25901,0.03121
4524.18747,0.02935
4526.11594,0.01777
4528.04441,0.01186
4529.97288,0.01798
4531.90135,0.02099
4533.82982,0.01700
4535.75829,0.01327
4537.68676,0.01059
4539.61522,0.00877
4541.54369,0.00992
4543.47216,0.01107
4545.40063,0.00862
4547.32910,0.00400
4549.25757,0.00851
4551.18604,0.02301
4553.11450,0.02456
4555.04297,0.00957
4556.97144,0.00321
4558.89991,0.01003
4560.82838,0.01485
4562.75685,0.01604
4564.68532,0.01727
4566.61378,0.01990
4568.54225,0.01800
4570.47072,0.00759
4572.39919,0.00625
4574.32766,0.01773
4576.25613,0.02266
4578.18460,0.01636
4580.11307,0.00843
4582.04153,0.00825
4583.97000,0.01658
4585.89847,0.01786
4587.82694,0.00323
4589.75541,-0.01165
4591.68388,-0.01764
4593.61235,-0.01592
4595.54081,-0.00216
4597.46928,0.01095
4599.39775,0.00870
4601.32622,0.00902
4603.25469,0.02220
4605.18316,0.02602
4607.11163,0.01717
4609.04010,0.01497
4610.96856,0.02133
4612.89703,0.02521
4614.82550,0.01838
4616.75397,0.00792
4618.68244,0.00552
4620.61091,0.00435
4622.53938,0.00021
4624.46784,-0.00117
4626.39631,-0.00098
4628.32478,0.00284
4630.25325,0.01281
4632.18172,0.01737
4634.11019,0.00893
4636.03866,0.00491
4637.96713,0.01738
4639.89559,0.02941
4641.82406,0.03024
4643.75253,0.02334
4645.68100,0.01032
4647.60947,0.00154
4649.53794,0.00631
4651.46641,0.01624
4653.39487,0.01664
4655.32334,0.00662
4657.25181,0.00212
4659.18028,0.01047
4661.10875,0.00999
4663.03722,-0.01265
4664.96569,-0.03034
4666.89416,-0.02503
4668.82262,-0.01239
4670.75109,-0.00480
4672.67956,0.00492
4674.60803,0.01785
4676.53650,0.01289
4678.46497,-0.00326
4680.39344,0.00255
4682.32190,0.01779
4684.25037,0.01448
4686.17884,0.00677
4688.10731,0.01500
4690.03578,0.03022
4691.96425,0.03493
4693.89272,0.02408
4695.82119,0.00452
4697.74965,-0.00718
4699.67812,-0.00398
4701.60659,0.00012
4703.53506,-0.00121
4705.46353,-0.00072
4707.39200,0.00150
4709.32047,-0.00070
4711.24893,-0.00797
4713.17740,-0.00816
4715.10587,0.00614
4717.03434,0.01735
4718.96281,0.00696
4720.89128,-0.01164
4722.81975,-0.01419
4724.74821,-0.00076
4726.67668,0.01575
4728.60515,0.02721
4730.53362,0.02790
4732.46209,0.01918
4734.39056,0.01578
4736.31903,0.02106
4738.24750,0.01973
4740.17596,0.01689
4742.10443,0.02475
4744.03290,0.02679
4745.96137,0.01847
4747.88984,0.01858
4749.81831,0.02575
4751.74678,0.02901
4753.67524,0.02660
4755.60371,0.01867
4757.53218,0.00939
4759.46065,0.00354
4761.38912,0.00223
4763.31759,0.00656
4765.24606,0.01314
4767.17453,0.01200
4769.10299,0.00768
4771.03146,0.01030
4772.95993,0.01545
4774.88840,0.01799
4776.81687,0.01266
4778.74534,0.00107
4780.67381,-0.00220
4782.60227,0.00243
4784.53074,0.00166
4786.45921,-0.00128
4788.38768,-0.00408
4790.31615,-0.00858
4792.24462,-0.00463
4794.17309,0.00442
4796.10156,0.00216
4798.03002,-0.00781
4799.95849,-0.00902
4801.88696,-0.00691
4803.81543,-0.01736
4805.74390,-0.02869
4807.67237,-0.02612
4809.60084,-0.00977
4811.52930,0.01246
4813.45777,0.02124
4815.38624,0.01434
4817.31471,0.00886
4819.24318,0.01113
4821.17165,0.01404
4823.10012,0.00860
4825.02859,-0.00189
4826.95705,-0.00828
4828.88552,-0.00697
4830.81399,0.00570
4832.74246,0.02318
4834.67093,0.02382
4836.59940,0.00330
4838.52787,-0.01619
4840.45633,-0.02123
4842.38480,-0.01639
4844.31327,-0.00842
4846.24174,-0.00433
4848.17021,-0.00177
4850.09868,0.01070
4852.02715,0.02794
4853.95562,0.02711
4855.88408,0.00140
4857.81255,-0.02218
4859.74102,-0.00884
4861.66949,0.02679
4863.59796,0.04008
4865.52643,0.03261
4867.45490,0.02678
4869.38336,0.02067
4871.31183,0.01056
4873.24030,0.00662
4875.16877,0.01544
4877.09724,0.02657
4879.02571,0.02776
4880.95418,0.02410
4882.88265,0.02579
4884.81111,0.03155
4886.73958,0.03676
4888.66805,0.02952
4890.59652,0.00125
4892.52499,-0.02701
4894.45346,-0.03188
4896.38193,-0.01580
4898.31039,0.00205
4900.23886,0.00216
4902.16733,-0.01481
4904.09580,-0.02414
4906.02427,-0.00357
4907.95274,0.02532
4909.88121,0.02979
4911.80967,0.02367
4913.73814,0.02514
4915.66661,0.02035
4917.59508,0.01514
4919.52355,0.02680
4921.45202,0.03240
4923.38049,0.01108
4925.30896,-0.01633
4927.23742,-0.02841
4929.16589,-0.02932
4931.09436,-0.02967
4933.02283,-0.02681
4934.95130,-0.01523
4936.87977,-0.00352
4938.80824,-0.00368
4940.73670,-0.00875
4942.66517,-0.00484
4944.59364,0.00128
4946.52211,0.00368
4948.45058,0.00804
4950.37905,0.00791
4952.30752,-0.00107
4954.23599,-0.00327
4956.16445,0.00530
4958.09292,0.00456
4960.02139,0.00181
4961.94986,0.02547
4963.87833,0.05751
4965.80680,0.06043
4967.73527,0.03847
4969.66373,0.01238
4971.59220,-0.01189
4973.52067,-0.02445
4975.44914,-0.00651
4977.37761,0.02729
4979.30608,0.03642
4981.23455,0.02661
4983.16302,0.01877
4985.09148,0.00513
4987.01995,-0.00890
4988.94842,-0.01044
4990.87689,0.00507
4992.80536,0.02680
4994.73383,0.03600
4996.66230,0.04110
4998.59076,0.04590
5000.51923,0.03618
5002.44770,0.01793
5004.37617,0.00692
5006.30464,0.00832
5008.23311,0.02055
5010.16158,0.03290
5012.09005,0.03102
5014.01851,0.02428
5015.94698,0.02810
5017.87545,0.03978
5019.80392,0.04959
5021.73239,0.04389
5023.66086,0.02270
5025.58933,0.00336
5027.51779,-0.00068
5029.44626,0.01089
5031.37473,0.02122
5033.30320,0.01364
5035.23167,-0.00886
5037.16014,-0.02606
5039.08861,-0.01587
5041.01708,0.01502
5042.94554,0.03600
5044.87401,0.03838
5046.80248,0.03603
5048.73095,0.03370
5050.65942,0.02769
5052.58789,0.02219
5054.51636,0.01467
5056.44482,-0.00024
5058.37329,-0.00287
5060.30176,0.01625
5062.23023,0.03169
5064.15870,0.03588
5066.08717,0.03441
5068.01564,0.02359
5069.94410,0.01338
5071.87257,0.01231
5073.80104,0.01972
5075.72951,0.03402
5077.65798,0.04196
5079.58645,0.03837
5081.51492,0.03668
5083.44339,0.04076
5085.37185,0.04034
5087.30032,0.02982
5089.22879,0.01600
5091.15726,0.00676
5093.08573,0.00649
5095.01420,0.01327
5096.94267,0.01324
5098.87113,0.01263
5100.79960,0.02629
5102.72807,0.03011
5104.65654,0.01472
5106.58501,0.01251
5108.51348,0.02382
5110.44195,0.02510
5112.37042,0.02421
5114.29888,0.02616
5116.22735,0.01732
5118.15582,-0.00537
5120.08429,-0.02239
5122.01276,-0.02015
5123.94123,-0.01759
5125.86970,-0.02012
5127.79816,-0.01511
5129.72663,0.00418
5131.65510,0.03979
5133.58357,0.06529
5135.51204,0.04837
5137.44051,0.01882
5139.36898,0.03306
5141.29745,0.06358
5143.22591,0.05788
5145.15438,0.04012
5147.08285,0.04038
5149.01132,0.04533
5150.93979,0.04188
5152.86826,0.03765
5154.79673,0.03761
5156.72519,0.02698
5158.65366,0.00879
5160.58213,0.01264
5162.51060,0.03084
5164.43907,0.03718
5166.36754,0.04587
5168.29601,0.07005
5170.22448,0.08923
5172.15294,0.08191
5174.08141,0.05452
5176.00988,0.02548
5177.93835,0.01279
5179.86682,0.02109
5181.79529,0.03373
5183.72376,0.04156
5185.65222,0.04140
5187.58069,0.02753
5189.50916,0.01338
5191.43763,0.01832
5193.36610,0.03427
5195.29457,0.03566
5197.22304,0.02144
5199.15151,0.02182
5201.07997,0.04375
5203.00844,0.05890
5204.93691,0.06011
5206.86538,0.05507
5208.79385,0.04552
5210.72232,0.04202
5212.65079,0.05031
5214.57925,0.05782
5216.50772,0.05315
5218.43619,0.05880
5220.36466,0.08795
5222.29313,0.10324
5224.22160,0.08521
5226.15007,0.04397
5228.07854,-0.00252
5230.00700,-0.01745
5231.93547,0.01048
5233.86394,0.04698
5235.79241,0.08204
5237.72088,0.11085
5239.64935,0.10415
5241.57782,0.07623
5243.50628,0.05019
5245.43475,0.02067
5247.36322,0.01454
5249.29169,0.05127
5251.22016,0.08796
5253.14863,0.09512
5255.07710,0.08511
5257.00556,0.07850
5258.93403,0.07334
5260.86250,0.06014
5262.79097,0.04871
5264.71944,0.04600
5266.64791,0.04596
5268.57638,0.04499
5270.50485,0.03874
5272.43331,0.03071
5274.36178,0.02995
5276.29025,0.03083
5278.21872,0.03952
5280.14719,0.06190
5282.07566,0.06725
5284.00413,0.05404
5285.93259,0.07080
5287.86106,0.11753
5289.78953,0.13413
5291.71800,0.10839
5293.64647,0.08320
5295.57494,0.07734
5297.50341,0.09154
5299.43188,0.10785
5301.36034,0.11175
5303.28881,0.10728
5305.21728,0.09720
5307.14575,0.07548
5309.07422,0.03829
5311.00269,0.01370
5312.93116,0.02082
5314.85962,0.04924
5316.78809,0.07903
5318.71656,0.08589
5320.64503,0.06427
5322.57350,0.03541
5324.50197,0.03068
5326.43044,0.06280
5328.35891,0.10409
5330.28737,0.10880
5332.21584,0.07481
5334.14431,0.04653
5336.07278,0.04127
5338.00125,0.04428
5339.92972,0.05137
5341.85819,0.06272
5343.78665,0.08632
5345.71512,0.10324
5347.64359,0.09050
5349.57206,0.07809
5351.50053,0.08294
5353.42900,0.08813
5355.35747,0.07371
5357.28594,0.04440
5359.21440,0.02865
5361.14287,0.05102
5363.07134,0.09393
5364.99981,0.11019
5366.92828,0.08605
5368.85675,0.04348
5370.78522,0.01243
5372.71368,0.01526
5374.64215,0.04247
5376.57062,0.07103
5378.49909,0.08043
5380.42756,0.06359
5382.35603,0.04091
5384.28450,0.03027
5386.21297,0.02726
5388.14143,0.02885
5390.06990,0.04320
5391.99837,0.07452
5393.92684,0.09937
5395.85531,0.09223
5397.78378,0.08305
5399.71225,0.08547
5401.64071,0.07959
5403.56918,0.08143
5405.49765,0.09947
5407.42612,0.10512
5409.35459,0.08751
5411.28306,0.04302
5413.21153,0.00186
5415.13999,0.01744
5417.06846,0.05499
5418.99693,0.05909
5420.92540,0.03961
5422.85387,0.05229
5424.78234,0.10346
5426.71081,0.13361
5428.63928,0.10300
5430.56774,0.05584
5432.49621,0.05034
5434.42468,0.07249
5436.35315,0.07871
5438.28162,0.05990
5440.21009,0.05078
5442.13856,0.06622
5444.06702,0.06943
5445.99549,0.05282
5447.92396,0.02278
5449.85243,-0.01769
5451.78090,-0.02111
5453.70937,0.02231
5455.63784,0.06919
5457.56631,0.08938
5459.49477,0.08614
5461.42324,0.08322
5463.35171,0.09087
5465.28018,0.09087
5467.20865,0.07628
5469.13712,0.06527
5471.06559,0.07275
5472.99405,0.07930
5474.92252,0.06874
5476.85099,0.06765
5478.77946,0.07908
5480.70793,0.08556
5482.63640,0.10765
5484.56487,0.14666
5486.49334,0.16143
5488.42180,0.13966
5490.35027,0.10111
5492.27874,0.07226
5494.20721,0.07925
5496.13568,0.09500
5498.06415,0.08330
5499.99262,0.05383
5501.92108,0.03691
5503.84955,0.03999
5505.77802,0.06463
5507.70649,0.12486
5509.63496,0.18503
5511.56343,0.18926
5513.49190,0.14297
5515.42037,0.08175
5517.34883,0.03747
5519.27730,0.03409
5521.20577,0.04517
5523.13424,0.05301
5525.06271,0.07944
5526.99118,0.09652
5528.91965,0.07724
5530.84811,0.05157
5532.77658,0.04013
5534.70505,0.04077
5536.63352,0.05233
5538.56199,0.06923
5540.49046,0.07147
5542.41893,0.05448
5544.34740,0.05936
5546.27586,0.07328
5548.20433,0.03147
5550.13280,-0.02077
5552.06127,-0.02318
5553.98974,0.00104
5555.91821,0.03120
5557.84668,0.06090
5559.77514,0.09498
5561.70361,0.11906
5563.63208,0.10295
5565.56055,0.08957
5567.48902,0.11597
5569.41749,0.13663
5571.34596,0.12473
5573.27443,0.09864
5575.20289,0.07642
5577.13136,0.06675
5579.05983,0.05789
5580.98830,0.04347
5582.91677,0.02991
5584.84524,0.01224
5586.77371,0.01304
5588.70217,0.06292
5590.63064,0.12555
5592.55911,0.14232
5594.48758,0.13160
5596.41605,0.14440
5598.34452,0.15670
5600.27299,0.13481
5602.20145,0.12569
5604.12992,0.14801
5606.05839,0.14601
5607.98686,0.10836
5609.91533,0.09063
5611.84380,0.10197
5613.77227,0.10237
5615.70074,0.10358
5617.62920,0.12261
5619.55767,0.12801
5621.48614,0.10119
5623.41461,0.05129
5625.34308,0.01257
5627.27155,0.02909
5629.20002,0.08056
5631.12848,0.11120
5633.05695,0.10824
5634.98542,0.09784
5636.91389,0.10305
5638.84236,0.10941
5640.77083,0.10985
5642.69930,0.10781
5644.62777,0.08560
5646.55623,0.04037
5648.48470,-0.00350
5650.41317,-0.01472
5652.34164,0.00934
5654.27011,0.03536
5656.19858,0.05528
5658.12705,0.08031
5660.05551,0.10302
5661.98398,0.09682
5663.91245,0.05817
5665.84092,0.02906
5667.76939,0.02413
5669.69786,0.03142
5671.62633,0.04580
5673.55480,0.04967
5675.48326,0.04588
5677.41173,0.04926
5679.34020,0.05599
5681.26867,0.06147
5683.19714,0.05539
5685.12561,0.03795
5687.05408,0.03575
5688.98254,0.07860
5690.91101,0.13908
5692.83948,0.14678
5694.76795,0.10611
5696.69642,0.07849
5698.62489,0.06815
5700.55336,0.04901
5702.48183,0.03187
5704.41029,0.02457
5706.33876,0.03713
5708.26723,0.08383
5710.19570,0.11213
5712.12417,0.07123
5714.05264,0.02147
5715.98111,0.03310
5717.90957,0.06777
5719.83804,0.07270
5721.76651,0.06814
5723.69498,0.08093
5725.62345,0.10402
5727.55192,0.12336
5729.48039,0.12006
5731.40886,0.08991
5733.33732,0.07822
5735.26579,0.10669
5737.19426,0.11169
5739.12273,0.06586
5741.05120,0.01824
5742.97967,0.01202
5744.90814,0.04047
5746.83660,0.07721
5748.76507,0.11297
5750.69354,0.11727
5752.62201,0.09300
5754.55048,0.08473
5756.47895,0.07531
5758.40742,0.05517
5760.33588,0.05589
5762.26435,0.06544
5764.19282,0.06310
5766.12129,0.08674
5768.04976,0.14669
5769.97823,0.19215
5771.90670,0.18703
5773.83517,0.16287
5775.76363,0.15911
5777.69210,0.17180
5779.62057,0.20745
5781.54904,0.22807
5783.47751,0.16550
5785.40598,0.08629
5787.33445,0.07195
5789.26291,0.08245
5791.19138,0.09904
5793.11985,0.12213
5795.04832,0.13628
5796.97679,0.17233
5798.90526,0.22910
5800.83373,0.22705
5802.76220,0.14872
5804.69066,0.08358
5806.61913,0.07750
5808.54760,0.08435
5810.47607,0.07939
5812.40454,0.08638
5814.33301,0.08059
5816.26148,0.04454
5818.18994,0.05737
5820.11841,0.11930
5822.04688,0.14339
5823.97535,0.12480
5825.90382,0.10479
5827.83229,0.10078
5829.76076,0.07658
5831.68923,0.03820
5833.61769,0.06843
5835.54616,0.14783
5837.47463,0.17807
5839.40310,0.16648
5841.33157,0.17127
5843.26004,0.17053
5845.18851,0.13156
5847.11697,0.08378
5849.04544,0.04469
5850.97391,0.01743
5852.90238,0.03570
5854.83085,0.10433
5856.75932,0.16451
5858.68779,0.18487
5860.61626,0.18916
5862.54472,0.18181
5864.47319,0.15363
5866.40166,0.13140
5868.33013,0.13576
5870.25860,0.13916
5872.18707,0.13216
5874.11554,0.12875
5876.04400,0.13616
5877.97247,0.15494
5879.90094,0.16738
5881.82941,0.15398
5883.75788,0.11023
5885.68635,0.07744
5887.61482,0.10230
5889.54329,0.15624
5891.47175,0.17987
5893.40022,0.17427
5895.32869,0.17585
5897.25716,0.15595
5899.18563,0.09752
5901.11410,0.06534
5903.04257,0.08409
5904.97103,0.12621
5906.89950,0.16352
5908.82797,0.16216
5910.75644,0.12725
5912.68491,0.09085
5914.61338,0.07427
5916.54185,0.09902
5918.47032,0.13368
5920.39878,0.14314
5922.32725,0.15074
5924.25572,0.14397
5926.18419,0.11972
5928.11266,0.13969
5930.04113,0.19914
5931.96960,0.20701
5933.89806,0.15188
5935.82653,0.10046
5937.75500,0.06470
5939.68347,0.06038
5941.61194,0.07253
5943.54041,0.06031
5945.46888,0.09415
5947.39734,0.15937
5949.32581,0.13374
5951.25428,0.06818
5953.18275,0.08074
5955.11122,0.15101
5957.03969,0.20711
5958.96816,0.19126
5960.89663,0.12563
5962.82509,0.10091
5964.75356,0.12983
5966.68203,0.13576
5968.61050,0.07870
5970.53897,0.03211
5972.46744,0.05453
5974.39591,0.09000
5976.32437,0.07071
5978.25284,0.02677
5980.18131,0.01576
5982.10978,0.04338
5984.03825,0.08517
5985.96672,0.12439
5987.89519,0.15030
5989.82366,0.14865
5991.75212,0.12433
5993.68059,0.08656
5995.60906,0.03804
5997.53753,0.02085
5999.46600,0.05371
6001.39447,0.05704
6003.32294,0.00769
6005.25140,0.00395
6007.17987,0.05800
6009.10834,0.11358
6011.03681,0.14784
6012.96528,0.14704
6014.89375,0.14029
6016.82222,0.16344
6018.75069,0.17676
6020.67915,0.13720
6022.60762,0.10194
6024.53609,0.11348
6026.46456,0.13636
6028.39303,0.11542
6030.32150,0.07919
6032.24997,0.09154
6034.17843,0.11151
6036.10690,0.09337
6038.03537,0.03982
6039.96384,-0.02083
6041.89231,-0.02919
6043.82078,0.04405
6045.74925,0.13764
6047.67772,0.19180
6049.60618,0.19992
6051.53465,0.15535
6053.46312,0.09372
6055.39159,0.07518
6057.32006,0.07471
6059.24853,0.02847
6061.17700,-0.03480
6063.10546,-0.04497
6065.03393,0.00368
6066.96240,0.06937
6068.89087,0.10031
6070.81934,0.09836
6072.74781,0.09501
6074.67628,0.08079
6076.60475,0.05708
6078.53321,0.05145
6080.46168,0.08083
6082.39015,0.13637
6084.31862,0.20813
6086.24709,0.23543
6088.17556,0.14315
6090.10403,0.00116
6092.03249,-0.03397
6093.96096,0.08877
6095.88943,0.22716
6097.81790,0.26161
6099.74637,0.22065
6101.67484,0.16334
6103.60331,0.08027
6105.53177,-0.02222
6107.46024,-0.05410
6109.38871,-0.01619
6111.31718,0.01973
6113.24565,0.03200
6115.17412,0.04273
6117.10259,0.08944
6119.03106,0.10765
6120.95952,0.08285
6122.88799,0.09827
6124.81646,0.11429
6126.74493,0.08475
6128.67340,0.06588
6130.60187,0.08085
6132.53034,0.10792
6134.45880,0.15430
6136.38727,0.18239
6138.31574,0.14199
6140.24421,0.04751
6142.17268,-0.02730
6144.10115,-0.00883
6146.02962,0.08252
6147.95809,0.17141
6149.88655,0.19894
6151.81502,0.16559
6153.74349,0.12362
6155.67196,0.09946
6157.60043,0.09079
6159.52890,0.09355
6161.45737,0.09025
6163.38583,0.06601
6165.31430,0.06158
6167.24277,0.07670
6169.17124,0.05615
6171.09971,0.03349
6173.02818,0.08862
6174.95665,0.20725
6176.88512,0.29225
6178.81358,0.27795
6180.74205,0.18755
6182.67052,0.09852
6184.59899,0.07743
6186.52746,0.08902
6188.45593,0.05380
6190.38440,0.00980
6192.31286,0.03357
6194.24133,0.07863
6196.16980,0.08041
6198.09827,0.06154
6200.02674,0.04755
6201.95521,0.03565
6203.88368,0.02471
6205.81215,0.04543
6207.74061,0.10224
6209.66908,0.09100
6211.59755,-0.01168
6213.52602,-0.01918
6215.45449,0.12978
6217.38296,0.24569
6219.31143,0.21713
6221.23989,0.17195
6223.16836,0.19528
6225.09683,0.22185
6227.02530,0.18165
6228.95377,0.11769
6230.88224,0.10669
6232.81071,0.12126
6234.73918,0.09333
6236.66764,0.05605
6238.59611,0.05327
6240.52458,0.06295
6242.45305,0.03024
6244.38152,-0.06576
6246.30999,-0.13798
6248.23846,-0.08495
6250.16692,0.07951
6252.09539,0.18397
6254.02386,0.12053
6255.95233,0.00834
6257.88080,-0.06040
6259.80927,-0.05434
6261.73774,0.04501
6263.66621,0.15140
6265.59467,0.16092
6267.52314,0.07993
6269.45161,0.02769
6271.38008,0.07476
6273.30855,0.16533
6275.23702,0.21528
6277.16549,0.19743
6279.09395,0.13228
6281.02242,0.08223
6282.95089,0.08214
6284.87936,0.08360
6286.80783,0.06979
6288.73630,0.07506
6290.66477,0.12550
6292.59323,0.17167
6294.52170,0.13503
6296.45017,0.08887
6298.37864,0.10248
6300.30711,0.12537
6302.23558,0.12081
6304.16405,0.08593
6306.09252,0.04969
6308.02098,0.03776
6309.94945,0.01873
6311.87792,-0.05231
6313.80639,-0.09240
6315.73486,-0.00728
6317.66333,0.10390
6319.59180,0.16406
6321.52026,0.18070
6323.44873,0.14003
6325.37720,0.09267
6327.30567,0.05912
6329.23414,0.03829
6331.16261,0.06230
6333.09108,0.09920
6335.01955,0.12570
6336.94801,0.15919
6338.87648,0.16312
6340.80495,0.10170
6342.73342,0.02405
6344.66189,0.01625
6346.59036,0.09271
6348.51883,0.18690
6350.44729,0.26745
6352.37576,0.29944
6354.30423,0.25407
6356.23270,0.15634
6358.16117,0.07385
6360.08964,0.08222
6362.01811,0.14432
6363.94658,0.16654
6365.87504,0.12208
6367.80351,0.08054
6369.73198,0.12356
6371.66045,0.20277
6373.58892,0.19633
6375.51739,0.12003
6377.44586,0.11206
6379.37432,0.15978
6381.30279,0.17442
6383.23126,0.18439
6385.15973,0.21276
6387.08820,0.21300
6389.01667,0.17454
6390.94514,0.12356
6392.87361,0.10281
6394.80207,0.10569
6396.73054,0.11455
6398.65901,0.14562
6400.58748,0.17338
6402.51595,0.14766
6404.44442,0.10409
6406.37289,0.10961
6408.30135,0.11979
6410.22982,0.08376
6412.15829,0.03294
6414.08676,-0.00160
6416.01523,0.00274
6417.94370,0.03063
6419.87217,0.05564
6421.80064,0.09891
6423.72910,0.15108
6425.65757,0.16755
6427.58604,0.12130
6429.51451,-0.00295
6431.44298,-0.12630
6433.37145,-0.07701
6435.29992,0.11173
6437.22838,0.22607
6439.15685,0.21412
6441.08532,0.24763
6443.01379,0.36206
6444.94226,0.43171
6446.87073,0.34975
6448.79920,0.14988
6450.72766,0.01775
6452.65613,0.03667
6454.58460,0.08931
6456.51307,0.06818
6458.44154,-0.02246
6460.37001,-0.07584
6462.29848,0.00211
6464.22695,0.14909
6466.15541,0.19930
6468.08388,0.18036
6470.01235,0.21644
6471.94082,0.25036
6473.86929,0.22590
6475.79776,0.16055
6477.72623,0.07117
6479.65469,0.02163
6481.58316,0.03824
6483.51163,0.08719
6485.44010,0.14789
6487.36857,0.15140
6489.29704,0.03973
6491.22551,-0.06196
6493.15398,-0.03468
6495.08244,0.01640
6497.01091,0.03802
6498.93938,0.07891
6500.86785,0.09714
6502.79632,0.05918
6504.72479,0.04723
6506.65326,0.08813
6508.58172,0.11512
6510.51019,0.10058
6512.43866,0.04592
6514.36713,-0.04033
6516.29560,-0.04259
6518.22407,0.08238
6520.15254,0.19707
6522.08101,0.25701
6524.00947,0.27266
6525.93794,0.20222
6527.86641,0.07990
6529.79488,-0.00616
6531.72335,0.02241
6533.65182,0.13697
6535.58029,0.20990
6537.50875,0.21943
6539.43722,0.21334
6541.36569,0.19883
6543.29416,0.15328
6545.22263,0.06371
6547.15110,-0.00865
6549.07957,-0.01078
6551.00804,0.00711
6552.93650,-0.00552
6554.86497,-0.03828
6556.79344,-0.06448
6558.72191,-0.03115
6560.65038,0.00097
6562.57885,-0.02367
6564.50732,-0.03050
6566.43578,-0.02555
6568.36425,-0.05508
6570.29272,-0.06122
6572.22119,-0.02505
6574.14966,-0.00702
6576.07813,-0.00535
6578.00660,-0.00959
6579.93507,-0.00714
6581.86353,0.01950
6583.79200,0.02553
6585.72047,0.03352
6587.64894,0.05329
6589.57741,0.03637
6591.50588,0.02344
6593.43435,0.05850
6595.36281,0.08197
6597.29128,0.04642
6599.21975,-0.02291
6601.14822,-0.10009
6603.07669,-0.15219
6605.00516,-0.12310
6606.93363,0.00382
6608.86210,0.04171
6610.79056,-0.11609
6612.71903,-0.17752
6614.64750,-0.02769
6616.57597,0.07301
6618.50444,0.06896
6620.43291,0.07938
6622.36138,0.11716
6624.28984,0.13430
6626.21831,0.09356
6628.14678,0.05712
6630.07525,0.10891
6632.00372,0.14667
6633.93219,0.05153
6635.86066,-0.02401
6637.78912,0.07988
6639.71759,0.15612
6641.64606,0.09526
6643.57453,0.03262
6645.50300,0.03908
6647.43147,0.08431
6649.35994,0.13007
6651.28841,0.09616
6653.21687,0.00662
6655.14534,-0.01973
6657.07381,0.00651
6659.00228,0.03080
6660.93075,0.05193
6662.85922,0.06347
6664.78769,0.04702
6666.71615,0.03185
6668.64462,0.09691
6670.57309,0.16151
6672.50156,0.10684
6674.43003,0.03037
6676.35850,0.03301
6678.28697,0.03498
6680.21544,-0.04124
6682.14390,-0.10469
6684.07237,-0.04781
6686.00084,0.04493
6687.92931,0.07667
6689.85778,0.09787
6691.78625,0.08921
6693.71472,0.01714
6695.64318,-0.03257
6697.57165,0.01706
6699.50012,0.13154
6701.42859,0.18530
6703.35706,0.08666
6705.28553,-0.07870
6707.21400,-0.17048
6709.14247,-0.12437
6711.07093,0.04753
6712.99940,0.22346
6714.92787,0.25792
6716.85634,0.16742
6718.78481,0.10046
6720.71328,0.09621
6722.64175,0.08926
6724.57021,0.07409
6726.49868,0.07685
6728.42715,0.09801
6730.35562,0.10294
6732.28409,0.07034
6734.21256,0.08067
6736.14103,0.15721
6738.06950,0.20024
6739.99796,0.19957
6741.92643,0.20353
6743.85490,0.20305
6745.78337,0.16860
6747.71184,0.08106
6749.64031,-0.03290
6751.56878,-0.12530
6753.49724,-0.15245
6755.42571,-0.09091
6757.35418,0.02410
6759.28265,0.15614
6761.21112,0.23903
6763.13959,0.23323
6765.06806,0.16098
6766.99653,0.10027
6768.92499,0.14886
6770.85346,0.21331
6772.78193,0.18573
6774.71040,0.14244
6776.63887,0.13261
6778.56734,0.10270
6780.49581,0.02645
6782.42427,-0.03202
6784.35274,-0.00560
6786.28121,0.06245
6788.20968,0.11264
6790.13815,0.10965
6792.06662,0.02641
6793.99509,-0.04263
6795.92355,-0.02138
6797.85202,0.02291
6799.78049,-0.00242
6801.70896,-0.03478
6803.63743,0.02551
6805.56590,0.02232
6807.49437,-0.10201
6809.42284,-0.16506
6811.35130,-0.12186
6813.27977,-0.04172
6815.20824,0.03009
6817.13671,0.04550
6819.06518,0.02698
6820.99365,-0.00113
6822.92212,-0.07749
6824.85058,-0.16828
6826.77905,-0.21519
6828.70752,-0.14366
6830.63599,0.02546
6832.56446,0.13778
6834.49293,0.15941
6836.42140,0.16267
6838.34987,0.13171
6840.27833,0.03972
6842.20680,-0.06924
6844.13527,-0.12215
6846.06374,-0.09267
6847.99221,-0.04185
6849.92068,0.03600
6851.84915,0.12139
6853.77761,0.12972
6855.70608,0.08915
6857.63455,0.00339
6859.56302,-0.11839
6861.49149,-0.15409
6863.41996,-0.04973
6865.34843,0.04453
6867.27690,0.07007
6869.20536,0.12719
6871.13383,0.21691
6873.06230,0.29656
6874.99077,0.37532
6876.91924,0.36130
6878.84771,0.16054
6880.77618,-0.04293
6882.70464,-0.05122
6884.63311,0.01850
6886.56158,0.14199
6888.49005,0.33346
6890.41852,0.38048
6892.34699,0.22588
6894.27546,0.09108
6896.20393,0.01557
6898.13239,0.02588
6900.06086,0.12693
6901.98933,0.11096
6903.91780,-0.03038
6905.84627,-0.11266
6907.77474,-0.06322
6909.70321,0.04084
6911.63167,0.09793
6913.56014,0.09409
6915.48861,0.05016
6917.41708,-0.01286
6919.34555,-0.08253
6921.27402,-0.14916
6923.20249,-0.12126
6925.13096,-0.01814
6927.05942,0.01008
6928.98789,0.01853
6930.91636,0.13309
6932.84483,0.16171
6934.77330,0.06349
6936.70177,0.00172
6938.63024,-0.06361
6940.55870,-0.15696
6942.48717,-0.15007
6944.41564,-0.03300
6946.34411,0.11120
6948.27258,0.15159
6950.20105,0.02827
6952.12952,-0.05853
6954.05799,0.01952
6955.98645,0.10728
6957.91492,0.13321
6959.84339,0.19958
6961.77186,0.23987
6963.70033,0.15484
6965.62880,0.04403
6967.55727,-0.02584
6969.48573,-0.10218
6971.41420,-0.15714
6973.34267,-0.03936
6975.27114,0.14865
6977.19961,0.11663
6979.12808,-0.03754
6981.05655,-0.15757
6982.98501,-0.20372
6984.91348,-0.08068
6986.84195,0.12053
6988.77042,0.15441
6990.69889,0.06409
6992.62736,0.04542
6994.55583,0.14504
6996.48430,0.25605
6998.41276,0.26194
7000.34123,0.15690
7002.26970,0.14509
7004.19817,0.32914
7006.12664,0.34229
7008.05511,0.04275
7009.98358,-0.14622
7011.91204,-0.08924
7013.84051,0.01379
7015.76898,0.08913
7017.69745,0.13520
7019.62592,0.09916
7021.55439,0.06676
7023.48286,0.05423
7025.41133,0.01532
7027.33979,-0.03892
7029.26826,-0.02289
7031.19673,0.18196
7033.12520,0.37253
7035.05367,0.30979
7036.98214,0.14741
7038.91061,0.09193
7040.83907,0.15562
7042.76754,0.30310
7044.69601,0.38909
7046.62448,0.32591
7048.55295,0.16923
7050.48142,0.02882
7052.40989,0.03747
7054.33836,0.15510
7056.26682,0.16505
7058.19529,0.04191
7060.12376,-0.05944
7062.05223,-0.08343
7063.98070,-0.01074
7065.90917,0.09294
7067.83764,0.12869
7069.76610,0.10519
7071.69457,0.07981
7073.62304,0.06980
7075.55151,0.03868
7077.47998,-0.00259
7079.40845,0.07022
7081.33692,0.15678
7083.26539,0.03123
7085.19385,0.01554
7087.12232,0.23338
7089.05079,0.32221
7090.97926,0.23528
7092.90773,0.23409
7094.83620,0.23831
7096.76467,0.10832
7098.69313,0.02439
7100.62160,0.02313
7102.55007,-0.05702
7104.47854,-0.11746
7106.40701,-0.00897
7108.33548,0.16389
7110.26395,0.23103
7112.19242,0.15837
7114.12088,0.02676
7116.04935,-0.05861
7117.97782,-0.12288
7119.90629,-0.20585
7121.83476,-0.25922
7123.76323,-0.30485
7125.69170,-0.29078
7127.62016,-0.17983
7129.54863,-0.05259
7131.47710,0.05750
7133.40557,-0.03664
7135.33404,-0.27658
7137.26251,-0.28923
7139.19098,-0.01469
7141.11944,0.28644
7143.04791,0.42361
7144.97638,0.26784
7146.90485,0.00038
7148.83332,-0.02879
7150.76179,0.06657
7152.69026,0.17607
7154.61873,0.28833
7156.54719,0.22875
7158.47566,0.04552
7160.40413,-0.02357
7162.33260,0.13514
7164.26107,0.35442
7166.18954,0.35917
7168.11801,0.23473
7170.04647,0.17143
7171.97494,0.08033
7173.90341,0.00050
7175.83188,0.00160
7177.76035,-0.00781
7179.68882,-0.02181
7181.61729,-0.07325
7183.54576,-0.20036
7185.47422,-0.27451
7187.40269,-0.26147
7189.33116,-0.14680
7191.25963,0.09396
7193.18810,0.27101
7195.11657,0.20785
7197.04504,0.06370
7198.97350,0.02864
7200.90197,0.09647
7202.83044,0.25152
7204.75891,0.20642
7206.68738,-0.09394
7208.61585,-0.16085
7210.54432,-0.08011
7212.47279,0.04767
7214.40125,0.25258
7216.32972,0.28741
7218.25819,-0.03501
7220.18666,-0.24157
7222.11513,-0.17652
7224.04360,-0.03797
7225.97207,0.03857
7227.90053,0.02067
7229.82900,0.08749
7231.75747,0.33815
7233.68594,0.49046
7235.61441,0.36503
7237.54288,0.08908
7239.47135,-0.05308
7241.39982,0.01129
7243.32828,-0.00446
7245.25675,-0.17565
7247.18522,-0.27611
7249.11369,-0.30719
7251.04216,-0.21051
7252.97063,0.03255
7254.89910,0.08393
7256.82756,-0.03235
7258.75603,-0.10970
7260.68450,-0.13918
7262.61297,-0.11598
7264.54144,-0.06499
7266.46991,-0.05387
7268.39838,0.05884
7270.32685,0.26987
7272.25531,0.43116
7274.18378,0.44142
7276.11225,0.36966
7278.04072,0.45773
7279.96919,0.52999
7281.89766,0.24474
7283.82613,0.04647
7285.75459,0.01660
7287.68306,-0.08310
7289.61153,-0.18256
7291.54000,-0.07759
7293.46847,0.16140
7295.39694,0.32714
7297.32541,0.38487
7299.25387,0.34008
7301.18234,0.22729
7303.11081,0.10311
7305.03928,0.03163
7306.96775,0.12982
7308.89622,0.16803
7310.82469,0.02853
7312.75316,0.13478
7314.68162,0.43650
7316.61009,0.51415
7318.53856,0.16715
7320.46703,-0.05699
7322.39550,0.09534
7324.32397,0.23683
7326.25244,0.23406
7328.18090,0.23461
7330.10937,0.25667
7332.03784,0.34192
7333.96631,0.38317
7335.89478,0.30100
7337.82325,0.17001
7339.75172,0.08602
7341.68019,0.15709
7343.60865,0.28651
7345.53712,0.33521
7347.46559,0.28690
7349.39406,0.31836
7351.32253,0.39510
7353.25100,0.35512
7355.17947,0.30339
7357.10793,0.38144
7359.03640,0.55081
7360.96487,0.54687
7362.89334,0.23308
7364.82181,-0.05281
7366.75028,-0.03789
7368.67875,-0.00384
7370.60722,-0.16457
7372.53568,-0.30287
7374.46415,-0.25839
7376.39262,-0.18174
7378.32109,-0.17090
7380.24956,0.01711
7382.17803,0.36933
7384.10650,0.53433
7386.03496,0.45802
7387.96343,0.39446
7389.89190,0.38497
7391.82037,0.31496
7393.74884,0.18907
7395.67731,0.12030
7397.60578,0.17310
7399.53425,0.32752
7401.46271,0.47332
7403.39118,0.33149
7405.31965,-0.05129
7407.24812,-0.21020
7409.17659,-0.20483
7411.10506,-0.18034
7413.03353,0.00248
7414.96199,0.28915
7416.89046,0.29557
7418.81893,-0.06561
7420.74740,-0.09249
7422.67587,0.15487
7424.60434,0.20803
7426.53281,0.14951
7428.46128,0.07657
7430.38974,-0.11789
7432.31821,-0.32458
7434.24668,-0.36640
7436.17515,-0.30807
7438.10362,-0.22631
7440.03209,-0.10189
7441.96056,0.08975
7443.88902,0.24160
7445.81749,0.33855
7447.74596,0.53053
7449.67443,0.77863
7451.60290,0.83365
7453.53137,0.58840
7455.45984,0.35428
7457.38831,0.29586
7459.31677,0.29280
7461.24524,0.28478
7463.17371,0.22535
7465.10218,0.05721
7467.03065,-0.08143
7468.95912,-0.20460
7470.88759,-0.31274
7472.81605,-0.13917
7474.74452,0.18569
7476.67299,0.31602
7478.60146,0.15724
7480.52993,-0.11881
7482.45840,-0.09706
7484.38687,0.13959
7486.31533,0.16434
7488.24380,0.13700
7490.17227,0.20675
7492.10074,0.10172
7494.02921,-0.11535
7495.95768,-0.19654
7497.88615,0.01555
