399.19301,-1.63620
401.12148,-0.82100
403.04995,-0.37652
404.97842,0.02620
406.90689,0.08718
408.83536,0.00856
410.76382,0.06688
412.69229,0.91458
414.62076,3.00139
416.54923,4.67431
418.47770,2.64398
420.40617,-0.79057
422.33464,-1.12352
424.26311,-0.67654
426.19157,-0.22675
428.12004,0.12607
430.04851,0.16936
431.97698,0.22025
433.90545,0.22985
435.83392,0.09076
437.76239,-0.04543
439.69085,-0.09611
441.61932,-0.07346
443.54779,-0.05522
445.47626,-0.06764
447.40473,-0.02440
449.33320,0.04576
451.26167,0.00432
453.19013,-0.12437
455.11860,-0.19309
457.04707,-0.13343
458.97554,-0.01972
460.90401,0.04342
462.83248,0.08615
464.76095,0.12859
466.68942,0.10929
468.61788,0.04732
470.54635,0.36388
472.47482,2.55825
474.40329,5.39738
476.33176,3.71390
478.26023,1.20348
480.18870,0.25532
482.11716,0.10720
484.04563,0.06093
485.97410,0.08338
487.90257,0.12353
489.83104,0.10937
491.75951,0.10110
493.68798,0.13632
495.61645,0.13468
497.54491,0.07103
499.47338,0.02121
501.40185,0.01295
503.33032,0.04706
505.25879,0.11666
507.18726,0.14675
509.11573,0.10448
511.04419,0.06924
512.97266,0.08724
514.90113,0.12906
516.82960,0.14525
518.75807,0.10797
520.68654,0.05334
522.61501,0.05540
524.54348,0.11434
526.47194,0.16594
528.40041,0.17394
530.32888,0.14394
532.25735,0.10980
534.18582,0.08973
536.11429,0.08383
538.04276,0.10090
539.97122,0.12419
541.89969,0.15649
543.82816,0.18275
545.75663,0.14683
547.68510,0.09738
549.61357,0.10749
551.54204,0.18001
553.47051,0.27087
555.39897,0.26928
557.32744,0.17352
559.25591,0.11020
561.18438,0.08722
563.11285,0.08058
565.04132,0.11296
566.96979,0.16040
568.89825,0.16234
570.82672,0.12292
572.75519,0.10180
574.68366,0.11375
576.61213,0.11964
578.54060,0.11884
580.46907,0.13824
582.39754,0.15735
584.32600,0.15246
586.25447,0.14275
588.18294,0.15317
590.11141,0.16649
592.03988,0.13804
593.96835,0.09680
595.89682,0.09696
597.82528,0.12999
599.75375,0.16683
601.68222,0.17475
603.61069,0.15928
605.53916,0.14540
607.46763,0.12850
609.39610,0.11893
611.32456,0.12437
613.25303,0.12789
615.18150,0.12099
617.10997,0.11537
619.03844,0.11496
620.96691,0.11190
622.89538,0.11709
624.82385,0.13490
626.75231,0.15220
628.68078,0.16468
630.60925,0.17975
632.53772,0.19248
634.46619,0.17917
636.39466,0.14978
638.32313,0.13676
640.25159,0.14327
642.18006,0.14384
644.10853,0.12707
646.03700,0.12416
647.96547,0.14733
649.89394,0.15555
651.82241,0.13701
653.75088,0.11986
655.67934,0.11711
657.60781,0.12113
659.53628,0.11427
661.46475,0.09727
663.39322,0.08680
665.32169,0.08887
667.25016,0.09852
669.17862,0.11331
671.10709,0.12733
673.03556,0.12770
674.96403,0.12280
676.89250,0.12445
678.82097,0.11765
680.74944,0.10716
682.67791,0.11452
684.60637,0.13873
686.53484,0.16660
688.46331,0.17597
690.39178,0.16673
692.32025,0.15350
694.24872,0.13639
696.17719,0.13081
698.10565,0.14499
700.03412,0.15743
701.96259,0.15798
703.89106,0.15055
705.81953,0.14070
707.74800,0.13411
709.67647,0.13821
711.60494,0.15505
713.53340,0.17240
715.46187,0.18124
717.39034,0.17420
719.31881,0.15562
721.24728,0.14883
723.17575,0.15376
725.10422,0.15641
727.03268,0.15627
728.96115,0.14991
730.88962,0.13192
732.81809,0.11639
734.74656,0.12231
736.67503,0.14286
738.60350,0.15930
740.53197,0.15814
742.46043,0.14666
744.38890,0.14293
746.31737,0.14528
748.24584,0.14790
750.17431,0.15686
752.10278,0.17043
754.03125,0.17591
755.95971,0.16622
757.88818,0.14613
759.81665,0.13474
761.74512,0.14296
763.67359,0.15498
765.60206,0.15410
767.53053,0.14498
769.45900,0.14020
771.38746,0.13929
773.31593,0.13847
775.24440,0.14402
777.17287,0.15361
779.10134,0.15877
781.02981,0.16244
782.95828,0.16118
784.88674,0.15291
786.81521,0.15385
788.74368,0.16304
790.67215,0.16088
792.60062,0.15611
794.52909,0.17066
796.45756,0.18390
798.38602,0.17162
800.31449,0.15730
802.24296,0.15678
804.17143,0.15536
806.09990,0.14830
808.02837,0.14033
809.95684,0.13582
811.88531,0.13868
813.81377,0.14390
815.74224,0.14762
817.67071,0.15028
819.59918,0.15006
821.52765,0.15000
823.45612,0.14975
825.38459,0.14952
827.31305,0.14780
829.24152,0.13725
831.16999,0.13169
833.09846,0.13961
835.02693,0.14989
836.95540,0.15850
838.88387,0.15638
840.81234,0.14828
842.74080,0.14886
844.66927,0.15036
846.59774,0.15073
848.52621,0.15392
850.45468,0.15527
852.38315,0.15544
854.31162,0.15338
856.24008,0.15120
858.16855,0.15384
860.09702,0.15697
862.02549,0.16431
863.95396,0.17410
865.88243,0.16713
867.81090,0.11123
869.73937,0.01585
871.66783,-0.00688
873.59630,0.07080
875.52477,0.13781
877.45324,0.15852
879.38171,0.16058
881.31018,0.15326
883.23865,0.14956
885.16711,0.15614
887.09558,0.16093
889.02405,0.15162
890.95252,0.14000
892.88099,0.13978
894.80946,0.14934
896.73793,0.15956
898.66640,0.16078
900.59486,0.15474
902.52333,0.15298
904.45180,0.15862
906.38027,0.16454
908.30874,0.16815
910.23721,0.16865
912.16568,0.16529
914.09414,0.15826
916.02261,0.15017
917.95108,0.14715
919.87955,0.15048
921.80802,0.15626
923.73649,0.15933
925.66496,0.15723
927.59343,0.15047
929.52189,0.14368
931.45036,0.14386
933.37883,0.14871
935.30730,0.15202
937.23577,0.15647
939.16424,0.16449
941.09271,0.16745
943.02117,0.15962
944.94964,0.14798
946.87811,0.13906
948.80658,0.13583
950.73505,0.14093
952.66352,0.15207
954.59199,0.16404
956.52045,0.16910
958.44892,0.16211
960.37739,0.14812
962.30586,0.13695
964.23433,0.13833
966.16280,0.14930
968.09127,0.15567
970.01974,0.15577
971.94820,0.15705
973.87667,0.15898
975.80514,0.15789
977.73361,0.15678
979.66208,0.15882
981.59055,0.16020
983.51902,0.15953
985.44748,0.15893
987.37595,0.15863
989.30442,0.16023
991.23289,0.16232
993.16136,0.16633
995.08983,0.17507
997.01830,0.17824
998.94677,0.17138
1000.87523,0.16574
1002.80370,0.16704
1004.73217,0.16593
1006.66064,0.16121
1008.58911,0.16382
1010.51758,0.17078
1012.44605,0.17438
1014.37451,0.17434
1016.30298,0.17248
1018.23145,0.17028
1020.15992,0.16623
1022.08839,0.16253
1024.01686,0.16349
1025.94533,0.14806
1027.87380,0.10393
1029.80226,0.08836
1031.73073,0.13045
1033.65920,0.17319
1035.58767,0.18546
1037.51614,0.17904
1039.44461,0.16827
1041.37308,0.16764
1043.30154,0.17365
1045.23001,0.17269
1047.15848,0.16773
1049.08695,0.16536
1051.01542,0.16289
1052.94389,0.16281
1054.87236,0.16677
1056.80083,0.16607
1058.72929,0.16249
1060.65776,0.16809
1062.58623,0.17803
1064.51470,0.18495
1066.44317,0.19457
1068.37164,0.20035
1070.30011,0.19690
1072.22857,0.19453
1074.15704,0.18876
1076.08551,0.17569
1078.01398,0.16664
1079.94245,0.15979
1081.87092,0.15535
1083.79939,0.16211
1085.72786,0.17302
1087.65632,0.17807
1089.58479,0.17842
1091.51326,0.17725
1093.44173,0.17567
1095.37020,0.17230
1097.29867,0.16903
1099.22714,0.17250
1101.15560,0.18272
1103.08407,0.18849
1105.01254,0.18354
1106.94101,0.17993
1108.86948,0.18230
1110.79795,0.17948
1112.72642,0.17336
1114.65489,0.17368
1116.58335,0.17971
1118.51182,0.18206
1120.44029,0.17617
1122.36876,0.16963
1124.29723,0.16887
1126.22570,0.17173
1128.15417,0.17449
1130.08263,0.17520
1132.01110,0.17276
1133.93957,0.17011
1135.86804,0.17228
1137.79651,0.17603
1139.72498,0.17255
1141.65345,0.16705
1143.58191,0.17220
1145.51038,0.18383
1147.43885,0.18882
1149.36732,0.18380
1151.29579,0.17663
1153.22426,0.17347
1155.15273,0.17215
1157.08120,0.17387
1159.00966,0.18138
1160.93813,0.18597
1162.86660,0.18120
1164.79507,0.17815
1166.72354,0.18332
1168.65201,0.18740
1170.58048,0.18713
1172.50894,0.18758
1174.43741,0.18457
1176.36588,0.17396
1178.29435,0.16658
1180.22282,0.16681
1182.15129,0.16630
1184.07976,0.16449
1186.00823,0.16522
1187.93669,0.16819
1189.86516,0.16864
1191.79363,0.16529
1193.72210,0.16456
1195.65057,0.16765
1197.57904,0.17474
1199.50751,0.18485
1201.43597,0.18850
1203.36444,0.18624
1205.29291,0.18395
1207.22138,0.17996
1209.14985,0.17974
1211.07832,0.18439
1213.00679,0.18164
1214.93526,0.17255
1216.86372,0.16968
1218.79219,0.17550
1220.72066,0.18418
1222.64913,0.18822
1224.57760,0.18474
1226.50607,0.18185
1228.43454,0.18468
1230.36300,0.18542
1232.29147,0.18257
1234.21994,0.18162
1236.14841,0.18102
1238.07688,0.17913
1240.00535,0.17703
1241.93382,0.17541
1243.86229,0.17498
1245.79075,0.17515
1247.71922,0.17649
1249.64769,0.17989
1251.57616,0.18320
1253.50463,0.18386
1255.43310,0.18338
1257.36157,0.18402
1259.29003,0.18309
1261.21850,0.17957
1263.14697,0.17737
1265.07544,0.17661
1267.00391,0.17611
1268.93238,0.17853
1270.86085,0.18401
1272.78932,0.18833
1274.71778,0.18935
1276.64625,0.18989
1278.57472,0.19087
1280.50319,0.18857
1282.43166,0.18611
1284.36013,0.18751
1286.28860,0.18736
1288.21706,0.18706
1290.14553,0.19155
1292.07400,0.19624
1294.00247,0.19647
1295.93094,0.19224
1297.85941,0.18570
1299.78788,0.17825
1301.71634,0.17054
1303.64481,0.16598
1305.57328,0.16812
1307.50175,0.17430
1309.43022,0.18008
1311.35869,0.18554
1313.28716,0.18963
1315.21563,0.19038
1317.14409,0.18925
1319.07256,0.18731
1321.00103,0.18387
1322.92950,0.17997
1324.85797,0.17644
1326.78644,0.17408
1328.71491,0.17510
1330.64337,0.17783
1332.57184,0.18081
1334.50031,0.18523
1336.42878,0.18854
1338.35725,0.18879
1340.28572,0.18611
1342.21419,0.18239
1344.14266,0.18130
1346.07112,0.18250
1347.99959,0.18476
1349.92806,0.18692
1351.85653,0.18557
1353.78500,0.18213
1355.71347,0.18121
1357.64194,0.18430
1359.57040,0.19135
1361.49887,0.19752
1363.42734,0.19323
1365.35581,0.18616
1367.28428,0.18818
1369.21275,0.19160
1371.14122,0.19015
1373.06969,0.19170
1374.99815,0.19726
1376.92662,0.19750
1378.85509,0.19249
1380.78356,0.18912
1382.71203,0.19011
1384.64050,0.19339
1386.56897,0.19835
1388.49743,0.20100
1390.42590,0.19823
1392.35437,0.19731
1394.28284,0.20431
1396.21131,0.21258
1398.13978,0.20988
1400.06825,0.20102
1401.99672,0.19692
1403.92518,0.19573
1405.85365,0.19368
1407.78212,0.19144
1409.71059,0.18896
1411.63906,0.18724
1413.56753,0.18786
1415.49600,0.19201
1417.42446,0.20052
1419.35293,0.20654
1421.28140,0.20906
1423.20987,0.21542
1425.13834,0.21755
1427.06681,0.21127
1428.99528,0.20356
1430.92375,0.19751
1432.85221,0.19535
1434.78068,0.19996
1436.70915,0.20673
1438.63762,0.20351
1440.56609,0.19605
1442.49456,0.19282
1444.42303,0.19401
1446.35149,0.19526
1448.27996,0.19474
1450.20843,0.19702
1452.13690,0.20365
1454.06537,0.21457
1455.99384,0.23195
1457.92231,0.23551
1459.85077,0.21901
1461.77924,0.21294
1463.70771,0.21589
1465.63618,0.21486
1467.56465,0.20698
1469.49312,0.20307
1471.42159,0.21075
1473.35006,0.22242
1475.27852,0.22101
1477.20699,0.21339
1479.13546,0.20732
1481.06393,0.20615
1482.99240,0.20886
1484.92087,0.21374
1486.84934,0.21923
1488.77780,0.21778
1490.70627,0.20787
1492.63474,0.20195
1494.56321,0.20370
1496.49168,0.21117
1498.42015,0.21546
1500.34862,0.21455
1502.27709,0.22036
1504.20555,0.23461
1506.13402,0.24565
1508.06249,0.23688
1509.99096,0.22519
1511.91943,0.21623
1513.84790,0.21523
1515.77637,0.22462
1517.70483,0.23436
1519.63330,0.24353
1521.56177,0.24938
1523.49024,0.23923
1525.41871,0.22750
1527.34718,0.21889
1529.27565,0.21464
1531.20412,0.21998
1533.13258,0.23034
1535.06105,0.23331
1536.98952,0.23665
1538.91799,0.25345
1540.84646,0.26013
1542.77493,0.23218
1544.70340,0.21077
1546.63186,0.20570
1548.56033,0.21058
1550.48880,0.21590
1552.41727,0.21716
1554.34574,0.22062
1556.27421,0.23119
1558.20268,0.24212
1560.13115,0.22801
1562.05961,0.21407
1563.98808,0.21003
1565.91655,0.20985
1567.84502,0.21253
1569.77349,0.21304
1571.70196,0.20908
1573.63043,0.20959
1575.55889,0.21481
1577.48736,0.21235
1579.41583,0.20201
1581.34430,0.19480
1583.27277,0.19316
1585.20124,0.19116
1587.12971,0.18651
1589.05818,0.18686
1590.98664,0.19245
1592.91511,0.19422
1594.84358,0.19128
1596.77205,0.18993
1598.70052,0.19266
1600.62899,0.19546
1602.55746,0.19549
1604.48592,0.19577
1606.41439,0.19764
1608.34286,0.20026
1610.27133,0.20191
1612.19980,0.20189
1614.12827,0.20543
1616.05674,0.21298
1617.98521,0.21178
1619.91367,0.20834
1621.84214,0.21417
1623.77061,0.21874
1625.69908,0.21358
1627.62755,0.20756
1629.55602,0.20226
1631.48449,0.20155
1633.41295,0.21102
1635.34142,0.22738
1637.26989,0.23121
1639.19836,0.22402
1641.12683,0.21724
1643.05530,0.21500
1644.98377,0.22369
1646.91223,0.24132
1648.84070,0.24699
1650.76917,0.25055
1652.69764,0.26233
1654.62611,0.25117
1656.55458,0.23050
1658.48305,0.22153
1660.41152,0.22397
1662.33998,0.22914
1664.26845,0.22523
1666.19692,0.22341
1668.12539,0.23210
1670.05386,0.23681
1671.98233,0.22910
1673.91080,0.22486
1675.83926,0.22356
1677.76773,0.22358
1679.69620,0.22909
1681.62467,0.23864
1683.55314,0.24495
1685.48161,0.23378
1687.41008,0.22210
1689.33855,0.21770
1691.26701,0.21552
1693.19548,0.21851
1695.12395,0.22872
1697.05242,0.23735
1698.98089,0.23455
1700.90936,0.22250
1702.83783,0.21518
1704.76629,0.21544
1706.69476,0.21642
1708.62323,0.21370
1710.55170,0.21060
1712.48017,0.21254
1714.40864,0.22296
1716.33711,0.23698
1718.26558,0.23424
1720.19404,0.21894
1722.12251,0.20937
1724.05098,0.20658
1725.97945,0.20722
1727.90792,0.21098
1729.83639,0.21753
1731.76486,0.22381
1733.69332,0.22669
1735.62179,0.22350
1737.55026,0.22117
1739.47873,0.22053
1741.40720,0.21860
1743.33567,0.21736
1745.26414,0.22054
1747.19261,0.22795
1749.12107,0.23236
1751.04954,0.22387
1752.97801,0.21083
1754.90648,0.20740
1756.83495,0.21025
1758.76342,0.21073
1760.69189,0.21070
1762.62035,0.21048
1764.54882,0.20809
1766.47729,0.20790
1768.40576,0.21163
1770.33423,0.21741
1772.26270,0.22083
1774.19117,0.21628
1776.11964,0.21100
1778.04810,0.21146
1779.97657,0.21478
1781.90504,0.21594
1783.83351,0.21464
1785.76198,0.21178
1787.69045,0.21001
1789.61892,0.21296
1791.54738,0.22009
1793.47585,0.22348
1795.40432,0.22038
1797.33279,0.21728
1799.26126,0.21607
1801.18973,0.21349
1803.11820,0.20871
1805.04666,0.20660
1806.97513,0.20892
1808.90360,0.21150
1810.83207,0.21066
1812.76054,0.20723
1814.68901,0.20585
1816.61748,0.20198
1818.54595,0.18005
1820.47441,0.15299
1822.40288,0.15565
1824.33135,0.18509
1826.25982,0.20725
1828.18829,0.21533
1830.11676,0.21753
1832.04523,0.21359
1833.97369,0.20950
1835.90216,0.20768
1837.83063,0.20748
1839.75910,0.20915
1841.68757,0.21375
1843.61604,0.22032
1845.54451,0.22032
1847.47298,0.21364
1849.40144,0.20842
1851.32991,0.20677
1853.25838,0.20709
1855.18685,0.20775
1857.11532,0.20765
1859.04379,0.20685
1860.97226,0.20551
1862.90072,0.20347
1864.82919,0.20471
1866.75766,0.21203
1868.68613,0.21597
1870.61460,0.20970
1872.54307,0.20543
1874.47154,0.20796
1876.40001,0.21043
1878.32847,0.20757
1880.25694,0.20327
1882.18541,0.20381
1884.11388,0.20820
1886.04235,0.21174
1887.97082,0.21341
1889.89929,0.21416
1891.82775,0.21440
1893.75622,0.21328
1895.68469,0.20925
1897.61316,0.20457
1899.54163,0.20290
1901.47010,0.20445
1903.39857,0.20637
1905.32704,0.20671
1907.25550,0.20790
1909.18397,0.21043
1911.11244,0.21104
1913.04091,0.20969
1914.96938,0.20929
1916.89785,0.21130
1918.82632,0.21237
1920.75478,0.20971
1922.68325,0.20660
1924.61172,0.20470
1926.54019,0.20306
1928.46866,0.20291
1930.39713,0.20507
1932.32560,0.20765
1934.25407,0.20898
1936.18253,0.20847
1938.11100,0.20734
1940.03947,0.20881
1941.96794,0.21252
1943.89641,0.21330
1945.82488,0.21003
1947.75335,0.20610
1949.68181,0.20340
1951.61028,0.20224
1953.53875,0.20199
1955.46722,0.20198
1957.39569,0.20307
1959.32416,0.20501
1961.25263,0.20589
1963.18110,0.20752
1965.10956,0.21154
1967.03803,0.21370
1968.96650,0.21090
1970.89497,0.20658
1972.82344,0.20547
1974.75191,0.21131
1976.68038,0.22115
1978.60884,0.22515
1980.53731,0.22114
1982.46578,0.21525
1984.39425,0.21060
1986.32272,0.20767
1988.25119,0.20850
1990.17966,0.21257
1992.10812,0.21179
1994.03659,0.20436
1995.96506,0.19973
1997.89353,0.20118
1999.82200,0.20565
2001.75047,0.20920
2003.67894,0.20938
2005.60741,0.20943
2007.53587,0.21086
2009.46434,0.20913
2011.39281,0.20494
2013.32128,0.20432
2015.24975,0.20798
2017.17822,0.21060
2019.10669,0.20871
2021.03515,0.20533
2022.96362,0.20390
2024.89209,0.20402
2026.82056,0.20330
2028.74903,0.20208
2030.67750,0.20371
2032.60597,0.20784
2034.53444,0.21110
2036.46290,0.21190
2038.39137,0.21025
2040.31984,0.20742
2042.24831,0.20569
2044.17678,0.20645
2046.10525,0.20766
2048.03372,0.20723
2049.96218,0.20742
2051.89065,0.20893
2053.81912,0.20869
2055.74759,0.20692
2057.67606,0.20610
2059.60453,0.20621
2061.53300,0.20723
2063.46147,0.20811
2065.38993,0.20700
2067.31840,0.20684
2069.24687,0.20892
2071.17534,0.21068
2073.10381,0.21233
2075.03228,0.21253
2076.96075,0.21020
2078.88921,0.20982
2080.81768,0.21252
2082.74615,0.21401
2084.67462,0.21336
2086.60309,0.21194
2088.53156,0.20955
2090.46003,0.20762
2092.38850,0.20750
2094.31696,0.20741
2096.24543,0.20686
2098.17390,0.20676
2100.10237,0.20716
2102.03084,0.20846
2103.95931,0.21005
2105.88778,0.20979
2107.81624,0.20722
2109.74471,0.20559
2111.67318,0.20722
2113.60165,0.20917
2115.53012,0.20884
2117.45859,0.20761
2119.38706,0.20705
2121.31553,0.20617
2123.24399,0.20436
2125.17246,0.20461
2127.10093,0.20725
2129.02940,0.20879
2130.95787,0.20908
2132.88634,0.20877
2134.81481,0.20919
2136.74327,0.21153
2138.67174,0.21160
2140.60021,0.20942
2142.52868,0.20976
2144.45715,0.21055
2146.38562,0.20861
2148.31409,0.20525
2150.24255,0.20237
2152.17102,0.20295
2154.09949,0.20698
2156.02796,0.20944
2157.95643,0.20833
2159.88490,0.20723
2161.81337,0.20882
2163.74184,0.21120
2165.67030,0.21167
2167.59877,0.20978
2169.52724,0.20835
2171.45571,0.20974
2173.38418,0.21172
2175.31265,0.21198
2177.24112,0.21101
2179.16958,0.21092
2181.09805,0.21234
2183.02652,0.21279
2184.95499,0.21049
2186.88346,0.20831
2188.81193,0.20895
2190.74040,0.20989
2192.66887,0.20944
2194.59733,0.20911
2196.52580,0.21053
2198.45427,0.21220
2200.38274,0.21073
2202.31121,0.20768
2204.23968,0.20566
2206.16815,0.20401
2208.09661,0.20452
2210.02508,0.20845
2211.95355,0.21068
2213.88202,0.20909
2215.81049,0.20814
2217.73896,0.20954
2219.66743,0.21042
2221.59590,0.20952
2223.52436,0.20883
2225.45283,0.20934
2227.38130,0.21044
2229.30977,0.21111
2231.23824,0.21026
2233.16671,0.20820
2235.09518,0.20659
2237.02364,0.20539
2238.95211,0.20413
2240.88058,0.20473
2242.80905,0.20601
2244.73752,0.20567
2246.66599,0.20564
2248.59446,0.20754
2250.52293,0.21002
2252.45139,0.21063
2254.37986,0.20901
2256.30833,0.20714
2258.23680,0.20675
2260.16527,0.20937
2262.09374,0.21321
2264.02221,0.21344
2265.95067,0.20994
2267.87914,0.20619
2269.80761,0.20456
2271.73608,0.20616
2273.66455,0.20842
2275.59302,0.20827
2277.52149,0.20642
2279.44996,0.20445
2281.37842,0.20355
2283.30689,0.20455
2285.23536,0.20770
2287.16383,0.21017
2289.09230,0.20892
2291.02077,0.20534
2292.94924,0.20095
2294.87770,0.19825
2296.80617,0.19905
2298.73464,0.20167
2300.66311,0.20507
2302.59158,0.20798
2304.52005,0.21007
2306.44852,0.21178
2308.37699,0.21179
2310.30545,0.20775
2312.23392,0.20279
2314.16239,0.20599
2316.09086,0.21439
2318.01933,0.21717
2319.94780,0.21715
2321.87627,0.22091
2323.80473,0.22295
2325.73320,0.22346
2327.66167,0.22877
2329.59014,0.23118
2331.51861,0.22417
2333.44708,0.21746
2335.37555,0.21364
2337.30401,0.20777
2339.23248,0.20718
2341.16095,0.21284
2343.08942,0.21403
2345.01789,0.21134
2346.94636,0.21256
2348.87483,0.21741
2350.80330,0.22060
2352.73176,0.21748
2354.66023,0.21348
2356.58870,0.22136
2358.51717,0.23223
2360.44564,0.23521
2362.37411,0.23516
2364.30258,0.23141
2366.23104,0.22099
2368.15951,0.20867
2370.08798,0.20771
2372.01645,0.21488
2373.94492,0.21895
2375.87339,0.21887
2377.80186,0.21803
2379.73033,0.21851
2381.65879,0.21835
2383.58726,0.21622
2385.51573,0.21391
2387.44420,0.21239
2389.37267,0.21155
2391.30114,0.21132
2393.22961,0.21054
2395.15807,0.20893
2397.08654,0.20845
2399.01501,0.20874
2400.94348,0.20775
2402.87195,0.20753
2404.80042,0.21030
2406.72889,0.21461
2408.65736,0.21844
2410.58582,0.21822
2412.51429,0.21295
2414.44276,0.20823
2416.37123,0.20664
2418.29970,0.20549
2420.22817,0.20550
2422.15664,0.20788
2424.08510,0.20979
2426.01357,0.21037
2427.94204,0.21022
2429.87051,0.20881
2431.79898,0.20823
2433.72745,0.20992
2435.65592,0.21148
2437.58439,0.21196
2439.51285,0.21173
2441.44132,0.20934
2443.36979,0.20662
2445.29826,0.20730
2447.22673,0.20964
2449.15520,0.20893
2451.08367,0.20139
2453.01213,0.19060
2454.94060,0.18901
2456.86907,0.19896
2458.79754,0.20834
2460.72601,0.21175
2462.65448,0.21347
2464.58295,0.21437
2466.51142,0.21222
2468.43988,0.20826
2470.36835,0.20619
2472.29682,0.20803
2474.22529,0.21132
2476.15376,0.21072
2478.08223,0.20671
2480.01070,0.20506
2481.93916,0.20693
2483.86763,0.20993
2485.79610,0.21188
2487.72457,0.21247
2489.65304,0.21395
2491.58151,0.21489
2493.50998,0.21236
2495.43844,0.20959
2497.36691,0.21096
2499.29538,0.21493
2501.22385,0.21637
2503.15232,0.21464
2505.08079,0.21359
2507.00926,0.21360
2508.93773,0.21314
2510.86619,0.21257
2512.79466,0.21211
2514.72313,0.21183
2516.65160,0.21155
2518.58007,0.21152
2520.50854,0.21259
2522.43701,0.21346
2524.36547,0.21339
2526.29394,0.21282
2528.22241,0.21089
2530.15088,0.20971
2532.07935,0.21247
2534.00782,0.21687
2535.93629,0.21873
2537.86476,0.21729
2539.79322,0.21351
2541.72169,0.20937
2543.65016,0.20905
2545.57863,0.21303
2547.50710,0.21547
2549.43557,0.21372
2551.36404,0.21149
2553.29250,0.21142
2555.22097,0.21269
2557.14944,0.21329
2559.07791,0.21329
2561.00638,0.21434
2562.93485,0.21419
2564.86332,0.21213
2566.79179,0.21222
2568.72025,0.21329
2570.64872,0.21156
2572.57719,0.20978
2574.50566,0.21262
2576.43413,0.21786
2578.36260,0.21961
2580.29107,0.21752
2582.21953,0.21419
2584.14800,0.21145
2586.07647,0.21217
2588.00494,0.21647
2589.93341,0.21916
2591.86188,0.21648
2593.79035,0.21191
2595.71882,0.21080
2597.64728,0.21209
2599.57575,0.21163
2601.50422,0.21151
2603.43269,0.21459
2605.36116,0.21686
2607.28963,0.21605
2609.21810,0.21442
2611.14656,0.21186
2613.07503,0.20795
2615.00350,0.20664
2616.93197,0.20957
2618.86044,0.21255
2620.78891,0.21426
2622.71738,0.21583
2624.64585,0.21615
2626.57431,0.21430
2628.50278,0.21214
2630.43125,0.21268
2632.35972,0.21504
2634.28819,0.21679
2636.21666,0.21762
2638.14513,0.21724
2640.07359,0.21668
2642.00206,0.21696
2643.93053,0.21642
2645.85900,0.21391
2647.78747,0.21106
2649.71594,0.21147
2651.64441,0.21479
2653.57288,0.21694
2655.50134,0.21914
2657.42981,0.22139
2659.35828,0.21895
2661.28675,0.21470
2663.21522,0.21474
2665.14369,0.21775
2667.07216,0.21993
2669.00062,0.22073
2670.92909,0.22252
2672.85756,0.22525
2674.78603,0.22565
2676.71450,0.22371
2678.64297,0.22107
2680.57144,0.21941
2682.49990,0.21932
2684.42837,0.21843
2686.35684,0.21721
2688.28531,0.21760
2690.21378,0.21975
2692.14225,0.22291
2694.07072,0.22456
2695.99919,0.22320
2697.92765,0.22017
2699.85612,0.21843
2701.78459,0.22085
2703.71306,0.22355
2705.64153,0.22045
2707.57000,0.21736
2709.49847,0.21979
2711.42693,0.22176
2713.35540,0.22145
2715.28387,0.22049
2717.21234,0.21796
2719.14081,0.21633
2721.06928,0.21680
2722.99775,0.21826
2724.92622,0.22120
2726.85468,0.22505
2728.78315,0.22705
2730.71162,0.22440
2732.64009,0.22045
2734.56856,0.22055
2736.49703,0.22339
2738.42550,0.22494
2740.35396,0.22388
2742.28243,0.22335
2744.21090,0.22489
2746.13937,0.22547
2748.06784,0.22391
2749.99631,0.22267
2751.92478,0.22243
2753.85325,0.22142
2755.78171,0.22175
2757.71018,0.22497
2759.63865,0.22777
2761.56712,0.22787
2763.49559,0.22539
2765.42406,0.22149
2767.35253,0.21975
2769.28099,0.22210
2771.20946,0.22370
2773.13793,0.22300
2775.06640,0.22296
2776.99487,0.22276
2778.92334,0.22335
2780.85181,0.22565
2782.78028,0.22764
2784.70874,0.22939
2786.63721,0.22976
2788.56568,0.22729
2790.49415,0.22611
2792.42262,0.22853
2794.35109,0.22977
2796.27956,0.22877
2798.20802,0.22864
2800.13649,0.22812
2802.06496,0.22707
2803.99343,0.22748
2805.92190,0.22858
2807.85037,0.22917
2809.77884,0.22755
2811.70731,0.22595
2813.63577,0.22987
2815.56424,0.23709
2817.49271,0.23988
2819.42118,0.23666
2821.34965,0.23298
2823.27812,0.23261
2825.20659,0.23323
2827.13505,0.23132
2829.06352,0.22766
2830.99199,0.22659
2832.92046,0.22941
2834.84893,0.23183
2836.77740,0.23135
2838.70587,0.23043
2840.63433,0.23034
2842.56280,0.23150
2844.49127,0.23477
2846.41974,0.23685
2848.34821,0.23504
2850.27668,0.23271
2852.20515,0.23233
2854.13362,0.23376
2856.06208,0.23494
2857.99055,0.23328
2859.91902,0.23202
2861.84749,0.23142
2863.77596,0.23038
2865.70443,0.23223
2867.63290,0.23199
2869.56136,0.22594
2871.48983,0.22075
2873.41830,0.22074
2875.34677,0.22436
2877.27524,0.22908
2879.20371,0.23338
2881.13218,0.23446
2883.06065,0.23062
2884.98911,0.22551
2886.91758,0.22401
2888.84605,0.22706
2890.77452,0.23207
2892.70299,0.23587
2894.63146,0.23541
2896.55993,0.23046
2898.48839,0.22621
2900.41686,0.22861
2902.34533,0.23607
2904.27380,0.23907
2906.20227,0.23522
2908.13074,0.23231
2910.05921,0.23323
2911.98768,0.23404
2913.91614,0.23080
2915.84461,0.22524
2917.77308,0.22294
2919.70155,0.22310
2921.63002,0.22363
2923.55849,0.22669
2925.48696,0.23260
2927.41542,0.24033
2929.34389,0.24750
2931.27236,0.24653
2933.20083,0.23677
2935.12930,0.22948
2937.05777,0.22766
2938.98624,0.22840
2940.91471,0.23171
2942.84317,0.23324
2944.77164,0.23061
2946.70011,0.22698
2948.62858,0.22597
2950.55705,0.22844
2952.48552,0.23187
2954.41399,0.23482
2956.34245,0.23567
2958.27092,0.23300
2960.19939,0.22871
2962.12786,0.22572
2964.05633,0.22709
2965.98480,0.23095
2967.91327,0.22955
2969.84174,0.22455
2971.77020,0.22544
2973.69867,0.23161
2975.62714,0.23313
2977.55561,0.22816
2979.48408,0.22739
2981.41255,0.23297
2983.34102,0.23588
2985.26948,0.23361
2987.19795,0.22939
2989.12642,0.22558
2991.05489,0.22618
2992.98336,0.23260
2994.91183,0.23551
2996.84030,0.22992
2998.76877,0.22508
3000.69723,0.22583
3002.62570,0.22724
3004.55417,0.22678
3006.48264,0.22704
3008.41111,0.22870
3010.33958,0.22721
3012.26805,0.21778
3014.19651,0.20017
3016.12498,0.18470
3018.05345,0.18947
3019.98192,0.21183
3021.91039,0.22899
3023.83886,0.23407
3025.76733,0.23401
3027.69579,0.23190
3029.62426,0.22990
3031.55273,0.22972
3033.48120,0.22945
3035.40967,0.22849
3037.33814,0.22923
3039.26661,0.23170
3041.19508,0.23487
3043.12354,0.23776
3045.05201,0.23589
3046.98048,0.22892
3048.90895,0.22616
3050.83742,0.23052
3052.76589,0.23485
3054.69436,0.23481
3056.62282,0.23120
3058.55129,0.23231
3060.47976,0.23953
3062.40823,0.23916
3064.33670,0.22836
3066.26517,0.22044
3068.19364,0.22243
3070.12211,0.22690
3072.05057,0.22742
3073.97904,0.22448
3075.90751,0.21962
3077.83598,0.22137
3079.76445,0.23366
3081.69292,0.24167
3083.62139,0.23390
3085.54985,0.22077
3087.47832,0.21606
3089.40679,0.22048
3091.33526,0.22768
3093.26373,0.22880
3095.19220,0.22448
3097.12067,0.22416
3099.04914,0.22763
3100.97760,0.22842
3102.90607,0.22418
3104.83454,0.22206
3106.76301,0.22723
3108.69148,0.23176
3110.61995,0.22969
3112.54842,0.22623
3114.47688,0.22752
3116.40535,0.22900
3118.33382,0.22441
3120.26229,0.21924
3122.19076,0.22011
3124.11923,0.22314
3126.04770,0.22462
3127.97617,0.22721
3129.90463,0.22971
3131.83310,0.23105
3133.76157,0.23234
3135.69004,0.23263
3137.61851,0.23314
3139.54698,0.23404
3141.47545,0.23545
3143.40391,0.23887
3145.33238,0.24117
3147.26085,0.24250
3149.18932,0.24761
3151.11779,0.25178
3153.04626,0.24971
3154.97473,0.24618
3156.90320,0.24431
3158.83166,0.24289
3160.76013,0.24096
3162.68860,0.23929
3164.61707,0.24100
3166.54554,0.24654
3168.47401,0.25172
3170.40248,0.25322
3172.33094,0.25118
3174.25941,0.24657
3176.18788,0.24233
3178.11635,0.24114
3180.04482,0.24042
3181.97329,0.23898
3183.90176,0.23998
3185.83022,0.24189
3187.75869,0.23943
3189.68716,0.23401
3191.61563,0.23248
3193.54410,0.23590
3195.47257,0.23966
3197.40104,0.24183
3199.32951,0.24271
3201.25797,0.24300
3203.18644,0.24409
3205.11491,0.24483
3207.04338,0.24375
3208.97185,0.24369
3210.90032,0.24555
3212.82879,0.24589
3214.75725,0.24289
3216.68572,0.23859
3218.61419,0.23786
3220.54266,0.23801
3222.47113,0.23384
3224.39960,0.23199
3226.32807,0.23631
3228.25654,0.23992
3230.18500,0.23855
3232.11347,0.23591
3234.04194,0.23451
3235.97041,0.23045
3237.89888,0.22762
3239.82735,0.23259
3241.75582,0.24122
3243.68428,0.24857
3245.61275,0.25354
3247.54122,0.25632
3249.46969,0.25559
3251.39816,0.24996
3253.32663,0.24308
3255.25510,0.23775
3257.18357,0.23485
3259.11203,0.23760
3261.04050,0.24310
3262.96897,0.24347
3264.89744,0.24097
3266.82591,0.24019
3268.75438,0.24066
3270.68285,0.24025
3272.61131,0.23577
3274.53978,0.23218
3276.46825,0.23261
3278.39672,0.23389
3280.32519,0.23652
3282.25366,0.23876
3284.18213,0.23912
3286.11060,0.23857
3288.03906,0.23771
3289.96753,0.23730
3291.89600,0.23722
3293.82447,0.23470
3295.75294,0.22771
3297.68141,0.22349
3299.60988,0.22825
3301.53834,0.23530
3303.46681,0.23978
3305.39528,0.24439
3307.32375,0.24558
3309.25222,0.23881
3311.18069,0.22899
3313.10916,0.22312
3315.03763,0.22424
3316.96609,0.22951
3318.89456,0.23474
3320.82303,0.23815
3322.75150,0.23683
3324.67997,0.23201
3326.60844,0.23109
3328.53691,0.23528
3330.46537,0.23865
3332.39384,0.24011
3334.32231,0.24331
3336.25078,0.24799
3338.17925,0.24906
3340.10772,0.24485
3342.03619,0.24049
3343.96466,0.24001
3345.89312,0.24077
3347.82159,0.24088
3349.75006,0.24182
3351.67853,0.24185
3353.60700,0.24095
3355.53547,0.24067
3357.46394,0.24123
3359.39240,0.24452
3361.32087,0.24795
3363.24934,0.24712
3365.17781,0.24269
3367.10628,0.23841
3369.03475,0.24012
3370.96322,0.24850
3372.89168,0.25537
3374.82015,0.25498
3376.74862,0.24926
3378.67709,0.24256
3380.60556,0.23719
3382.53403,0.23535
3384.46250,0.24289
3386.39097,0.25715
3388.31943,0.26304
3390.24790,0.25600
3392.17637,0.24610
3394.10484,0.23938
3396.03331,0.23496
3397.96178,0.23234
3399.89025,0.22940
3401.81871,0.22506
3403.74718,0.22432
3405.67565,0.23079
3407.60412,0.24050
3409.53259,0.24450
3411.46106,0.23933
3413.38953,0.23358
3415.31800,0.23125
3417.24646,0.22772
3419.17493,0.22637
3421.10340,0.22892
3423.03187,0.22669
3424.96034,0.22130
3426.88881,0.22298
3428.81728,0.22996
3430.74574,0.23199
3432.67421,0.22548
3434.60268,0.21864
3436.53115,0.22127
3438.45962,0.23068
3440.38809,0.23719
3442.31656,0.23823
3444.24503,0.23983
3446.17349,0.24198
3448.10196,0.23708
3450.03043,0.23021
3451.95890,0.23112
3453.88737,0.23445
3455.81584,0.23393
3457.74431,0.23199
3459.67277,0.22891
3461.60124,0.22655
3463.52971,0.22660
3465.45818,0.22470
3467.38665,0.22083
3469.31512,0.22030
3471.24359,0.22249
3473.17206,0.22127
3475.10052,0.21996
3477.02899,0.22147
3478.95746,0.22146
3480.88593,0.22235
3482.81440,0.22476
3484.74287,0.22460
3486.67134,0.22034
3488.59980,0.21419
3490.52827,0.21037
3492.45674,0.20863
3494.38521,0.20787
3496.31368,0.20912
3498.24215,0.21322
3500.17062,0.21732
3502.09909,0.21517
3504.02755,0.20587
3505.95602,0.19921
3507.88449,0.19947
3509.81296,0.20005
3511.74143,0.19964
3513.66990,0.20062
3515.59837,0.20128
3517.52683,0.20020
3519.45530,0.19777
3521.38377,0.19988
3523.31224,0.20699
3525.24071,0.20882
3527.16918,0.20588
3529.09765,0.20300
3531.02611,0.19736
3532.95458,0.19172
3534.88305,0.19010
3536.81152,0.19083
3538.73999,0.19148
3540.66846,0.19153
3542.59693,0.19201
3544.52540,0.19329
3546.45386,0.19427
3548.38233,0.19443
3550.31080,0.19561
3552.23927,0.19947
3554.16774,0.20033
3556.09621,0.19369
3558.02468,0.18574
3559.95314,0.18319
3561.88161,0.18689
3563.81008,0.19591
3565.73855,0.20807
3567.66702,0.20755
3569.59549,0.18853
3571.52396,0.17340
3573.45243,0.17084
3575.38089,0.17461
3577.30936,0.17710
3579.23783,0.17691
3581.16630,0.17592
3583.09477,0.17618
3585.02324,0.17888
3586.95171,0.18069
3588.88017,0.17529
3590.80864,0.17066
3592.73711,0.17128
3594.66558,0.17139
3596.59405,0.17324
3598.52252,0.17836
3600.45099,0.17727
3602.37946,0.16942
3604.30792,0.16420
3606.23639,0.16630
3608.16486,0.17482
3610.09333,0.18131
3612.02180,0.17989
3613.95027,0.17693
3615.87874,0.17890
3617.80720,0.18108
3619.73567,0.17700
3621.66414,0.16898
3623.59261,0.16290
3625.52108,0.16323
3627.44955,0.17240
3629.37802,0.17774
3631.30649,0.16909
3633.23495,0.16162
3635.16342,0.15726
3637.09189,0.15385
3639.02036,0.15226
3640.94883,0.15257
3642.87730,0.15538
3644.80577,0.16172
3646.73423,0.16790
3648.66270,0.17033
3650.59117,0.17267
3652.51964,0.17132
3654.44811,0.16555
3656.37658,0.15963
3658.30505,0.15825
3660.23352,0.15768
3662.16198,0.15411
3664.09045,0.15200
3666.01892,0.15445
3667.94739,0.16183
3669.87586,0.16884
3671.80433,0.16576
3673.73280,0.16462
3675.66126,0.16922
3677.58973,0.16340
3679.51820,0.15214
3681.44667,0.14540
3683.37514,0.14312
3685.30361,0.14294
3687.23208,0.14665
3689.16055,0.15313
3691.08901,0.14891
3693.01748,0.13951
3694.94595,0.13774
3696.87442,0.14173
3698.80289,0.14709
3700.73136,0.15262
3702.65983,0.15397
3704.58829,0.14983
3706.51676,0.14652
3708.44523,0.14909
3710.37370,0.15719
3712.30217,0.15887
3714.23064,0.15170
3716.15911,0.14551
3718.08757,0.14183
3720.01604,0.14184
3721.94451,0.14956
3723.87298,0.16057
3725.80145,0.16105
3727.72992,0.15265
3729.65839,0.14973
3731.58686,0.15448
3733.51532,0.16380
3735.44379,0.17593
3737.37226,0.17968
3739.30073,0.17060
3741.22920,0.15708
3743.15767,0.14931
3745.08614,0.15548
3747.01460,0.16119
3748.94307,0.16006
3750.87154,0.15765
3752.80001,0.15288
3754.72848,0.15056
3756.65695,0.15460
3758.58542,0.15584
3760.51389,0.14420
3762.44235,0.13542
3764.37082,0.13910
3766.29929,0.14601
3768.22776,0.14933
3770.15623,0.14824
3772.08470,0.14324
3774.01317,0.14197
3775.94163,0.14654
3777.87010,0.15286
3779.79857,0.15424
3781.72704,0.14716
3783.65551,0.13976
3785.58398,0.13885
3787.51245,0.13933
3789.44092,0.13704
3791.36938,0.13600
3793.29785,0.13611
3795.22632,0.13766
3797.15479,0.14316
3799.08326,0.15178
3801.01173,0.16422
3802.94020,0.16816
3804.86866,0.15958
3806.79713,0.14891
3808.72560,0.14200
3810.65407,0.14059
3812.58254,0.14136
3814.51101,0.14376
3816.43948,0.14944
3818.36795,0.15851
3820.29641,0.16765
3822.22488,0.16400
3824.15335,0.15172
3826.08182,0.14252
3828.01029,0.13623
3829.93876,0.13336
3831.86723,0.13425
3833.79569,0.13786
3835.72416,0.14349
3837.65263,0.14896
3839.58110,0.14905
3841.50957,0.14572
3843.43804,0.14442
3845.36651,0.14181
3847.29498,0.13772
3849.22344,0.14066
3851.15191,0.15118
3853.08038,0.15592
3855.00885,0.14739
3856.93732,0.14026
3858.86579,0.13592
3860.79426,0.13574
3862.72272,0.14057
3864.65119,0.14226
3866.57966,0.13795
3868.50813,0.14013
3870.43660,0.15140
3872.36507,0.15403
3874.29354,0.14706
3876.22200,0.14488
3878.15047,0.15083
3880.07894,0.15731
3882.00741,0.15204
3883.93588,0.14007
3885.86435,0.13529
3887.79282,0.13684
3889.72129,0.13656
3891.64975,0.13531
3893.57822,0.13135
3895.50669,0.12377
3897.43516,0.12270
3899.36363,0.13383
3901.29210,0.14241
3903.22057,0.13985
3905.14903,0.13414
3907.07750,0.12850
3909.00597,0.12458
3910.93444,0.12371
3912.86291,0.12436
3914.79138,0.12398
3916.71985,0.12454
3918.64832,0.12769
3920.57678,0.13008
3922.50525,0.13006
3924.43372,0.12914
3926.36219,0.13219
3928.29066,0.13702
3930.21913,0.13555
3932.14760,0.12902
3934.07606,0.12650
3936.00453,0.12840
3937.93300,0.12872
3939.86147,0.12562
3941.78994,0.12321
3943.71841,0.12356
3945.64688,0.12266
3947.57535,0.12317
3949.50381,0.12899
3951.43228,0.13366
3953.36075,0.13252
3955.28922,0.12704
3957.21769,0.12144
3959.14616,0.12068
3961.07463,0.12377
3963.00309,0.12329
3964.93156,0.11696
3966.86003,0.11403
3968.78850,0.11752
3970.71697,0.11915
3972.64544,0.11752
3974.57391,0.11588
3976.50238,0.11371
3978.43084,0.11137
3980.35931,0.11068
3982.28778,0.11392
3984.21625,0.11986
3986.14472,0.12282
3988.07319,0.12092
3990.00166,0.12167
3991.93012,0.12622
3993.85859,0.12657
3995.78706,0.12650
3997.71553,0.12624
3999.64400,0.11949
4001.57247,0.11086
4003.50094,0.10649
4005.42941,0.10918
4007.35787,0.11376
4009.28634,0.11289
4011.21481,0.11223
4013.14328,0.11657
4015.07175,0.11875
4017.00022,0.11717
4018.92869,0.11783
4020.85715,0.11844
4022.78562,0.11599
4024.71409,0.11390
4026.64256,0.11342
4028.57103,0.11298
4030.49950,0.11271
4032.42797,0.11182
4034.35644,0.11019
4036.28490,0.11165
4038.21337,0.11315
4040.14184,0.10858
4042.07031,0.10336
4043.99878,0.10275
4045.92725,0.10339
4047.85572,0.10540
4049.78418,0.10959
4051.71265,0.11225
4053.64112,0.11180
4055.56959,0.10815
4057.49806,0.10545
4059.42653,0.10815
4061.35500,0.11218
4063.28346,0.11294
4065.21193,0.10962
4067.14040,0.10358
4069.06887,0.10213
4070.99734,0.10838
4072.92581,0.11432
4074.85428,0.11421
4076.78275,0.10678
4078.71121,0.09777
4080.63968,0.09820
4082.56815,0.10518
4084.49662,0.11004
4086.42509,0.11214
4088.35356,0.11238
4090.28203,0.11108
4092.21049,0.11027
4094.13896,0.10970
4096.06743,0.10794
4097.99590,0.10731
4099.92437,0.10553
4101.85284,0.09889
4103.78131,0.09576
4105.70978,0.10219
4107.63824,0.10799
4109.56671,0.10628
4111.49518,0.10309
4113.42365,0.10193
4115.35212,0.09997
4117.28059,0.09832
4119.20906,0.10037
4121.13752,0.10276
4123.06599,0.10249
4124.99446,0.10195
4126.92293,0.10462
4128.85140,0.10958
4130.77987,0.11000
4132.70834,0.10539
4134.63681,0.10218
4136.56527,0.10104
4138.49374,0.09960
4140.42221,0.09941
4142.35068,0.09946
4144.27915,0.09835
4146.20762,0.09656
4148.13609,0.09253
4150.06455,0.09054
4151.99302,0.09289
4153.92149,0.09311
4155.84996,0.09113
4157.77843,0.09272
4159.70690,0.09334
4161.63537,0.08665
4163.56384,0.08008
4165.49230,0.07845
4167.42077,0.07902
4169.34924,0.08344
4171.27771,0.09083
4173.20618,0.09515
4175.13465,0.09370
4177.06312,0.08813
4178.99158,0.08359
4180.92005,0.08360
4182.84852,0.08304
4184.77699,0.08085
4186.70546,0.08434
4188.63393,0.08974
4190.56240,0.08868
4192.49087,0.08855
4194.41933,0.09303
4196.34780,0.09149
4198.27627,0.08566
4200.20474,0.08403
4202.13321,0.08236
4204.06168,0.07851
4205.99015,0.07857
4207.91861,0.08399
4209.84708,0.08899
4211.77555,0.08975
4213.70402,0.08636
4215.63249,0.07907
4217.56096,0.07295
4219.48943,0.07328
4221.41789,0.07461
4223.34636,0.07364
4225.27483,0.07804
4227.20330,0.08720
4229.13177,0.08996
4231.06024,0.08303
4232.98871,0.07497
4234.91718,0.07485
4236.84564,0.08078
4238.77411,0.08281
4240.70258,0.07565
4242.63105,0.06405
4244.55952,0.05889
4246.48799,0.06515
4248.41646,0.07421
4250.34492,0.07999
4252.27339,0.08388
4254.20186,0.08185
4256.13033,0.07696
4258.05880,0.07576
4259.98727,0.07315
4261.91574,0.07017
4263.84421,0.07349
4265.77267,0.07931
4267.70114,0.08016
4269.62961,0.07574
4271.55808,0.07238
4273.48655,0.07229
4275.41502,0.07039
4277.34349,0.06466
4279.27195,0.05976
4281.20042,0.05933
4283.12889,0.06091
4285.05736,0.05985
4286.98583,0.05889
4288.91430,0.06372
4290.84277,0.07026
4292.77124,0.07284
4294.69970,0.06953
4296.62817,0.06501
4298.55664,0.06794
4300.48511,0.07195
4302.41358,0.06807
4304.34205,0.06008
4306.27052,0.05624
4308.19898,0.06185
4310.12745,0.07140
4312.05592,0.07561
4313.98439,0.06932
4315.91286,0.05980
4317.84133,0.05918
4319.76980,0.05960
4321.69827,0.05656
4323.62673,0.05878
4325.55520,0.06207
4327.48367,0.06111
4329.41214,0.05883
4331.34061,0.05792
4333.26908,0.05980
4335.19755,0.06175
4337.12601,0.05750
4339.05448,0.04856
4340.98295,0.04712
4342.91142,0.05572
4344.83989,0.06072
4346.76836,0.05681
4348.69683,0.05738
4350.62530,0.06711
4352.55376,0.07032
4354.48223,0.06436
4356.41070,0.06170
4358.33917,0.05882
4360.26764,0.05163
4362.19611,0.04964
4364.12458,0.05364
4366.05304,0.05812
4367.98151,0.06227
4369.90998,0.06411
4371.83845,0.06352
4373.76692,0.06211
4375.69539,0.05736
4377.62386,0.05003
4379.55232,0.04602
4381.48079,0.04725
4383.40926,0.04880
4385.33773,0.04625
4387.26620,0.04642
4389.19467,0.04869
4391.12314,0.04045
4393.05161,0.03271
4394.98007,0.03960
4396.90854,0.04789
4398.83701,0.04788
4400.76548,0.04401
4402.69395,0.04029
4404.62242,0.04024
4406.55089,0.04261
4408.47935,0.04117
4410.40782,0.03851
4412.33629,0.04362
4414.26476,0.05186
4416.19323,0.05370
4418.12170,0.05461
4420.05017,0.05671
4421.97864,0.05350
4423.90710,0.04985
4425.83557,0.05122
4427.76404,0.05496
4429.69251,0.05479
4431.62098,0.04383
4433.54945,0.02834
4435.47792,0.02383
4437.40638,0.03182
4439.33485,0.04021
4441.26332,0.04575
4443.19179,0.04877
4445.12026,0.04172
4447.04873,0.02879
4448.97720,0.02435
4450.90567,0.03279
4452.83413,0.04045
4454.76260,0.03259
4456.69107,0.02091
4458.61954,0.01738
4460.54801,0.01521
4462.47648,0.01850
4464.40495,0.03020
4466.33341,0.03491
4468.26188,0.02828
4470.19035,0.02246
4472.11882,0.02768
4474.04729,0.03797
4475.97576,0.03633
4477.90423,0.02279
4479.83270,0.01198
4481.76116,0.00993
4483.68963,0.01380
4485.61810,0.01907
4487.54657,0.02416
4489.47504,0.02790
4491.40351,0.02467
4493.33198,0.01450
4495.26044,0.00859
4497.18891,0.01220
4499.11738,0.02030
4501.04585,0.02661
4502.97432,0.02676
4504.90279,0.02528
4506.83126,0.02721
4508.75973,0.02456
4510.68819,0.01141
4512.61666,-0.00262
4514.54513,-0.00297
4516.47360,0.00819
4518.40207,0.01477
4520.33054,0.01541
4522.25901,0.02078
4524.18747,0.02898
4526.11594,0.02929
4528.04441,0.02026
4529.97288,0.01522
4531.90135,0.02151
4533.82982,0.02379
4535.75829,0.01449
4537.68676,0.00740
4539.61522,0.01057
4541.54369,0.02039
4543.47216,0.02795
4545.40063,0.02742
4547.32910,0.02084
4549.25757,0.00989
4551.18604,0.00107
4553.11450,0.00242
4555.04297,0.01150
4556.97144,0.01659
4558.89991,0.01165
4560.82838,0.00949
4562.75685,0.01707
4564.68532,0.02434
4566.61378,0.02571
4568.54225,0.02640
4570.47072,0.03097
4572.39919,0.03248
4574.32766,0.02734
4576.25613,0.02548
4578.18460,0.02816
4580.11307,0.02461
4582.04153,0.01581
4583.97000,0.01178
4585.89847,0.01224
4587.82694,0.01391
4589.75541,0.01730
4591.68388,0.02246
4593.61235,0.02513
4595.54081,0.01964
4597.46928,0.00995
4599.39775,0.00468
4601.32622,0.00637
4603.25469,0.01156
4605.18316,0.01735
4607.11163,0.02259
4609.04010,0.02476
4610.96856,0.02348
4612.89703,0.01624
4614.82550,0.00437
4616.75397,-0.00078
4618.68244,0.00586
4620.61091,0.01607
4622.53938,0.02174
4624.46784,0.02253
4626.39631,0.01939
4628.32478,0.01567
4630.25325,0.01406
4632.18172,0.01324
4634.11019,0.01582
4636.03866,0.02231
4637.96713,0.02523
4639.89559,0.01968
4641.82406,0.01225
4643.75253,0.00831
4645.68100,0.00206
4647.60947,-0.00689
4649.53794,-0.00802
4651.46641,0.00121
4653.39487,0.00944
4655.32334,0.00861
4657.25181,0.00509
4659.18028,0.00635
4661.10875,0.00531
4663.03722,0.00075
4664.96569,0.00188
4666.89416,0.00733
4668.82262,0.01439
4670.75109,0.01835
4672.67956,0.01563
4674.60803,0.01118
4676.53650,0.00775
4678.46497,0.01053
4680.39344,0.01782
4682.32190,0.01893
4684.25037,0.01564
4686.17884,0.01181
4688.10731,0.00639
4690.03578,0.00357
4691.96425,0.00261
4693.89272,0.00203
4695.82119,0.00719
4697.74965,0.01608
4699.67812,0.02136
4701.60659,0.02202
4703.53506,0.02203
4705.46353,0.02509
4707.39200,0.02996
4709.32047,0.02732
4711.24893,0.01694
4713.17740,0.01313
4715.10587,0.01828
4717.03434,0.01736
4718.96281,0.00537
4720.89128,-0.00219
4722.81975,-0.00021
4724.74821,0.00310
4726.67668,0.00967
4728.60515,0.01821
4730.53362,0.01892
4732.46209,0.01242
4734.39056,0.00927
4736.31903,0.00741
4738.24750,0.00033
4740.17596,-0.00291
4742.10443,0.00163
4744.03290,0.00984
4745.96137,0.02001
4747.88984,0.02542
4749.81831,0.02607
4751.74678,0.02525
4753.67524,0.01993
4755.60371,0.01350
4757.53218,0.01016
4759.46065,0.01089
4761.38912,0.01686
4763.31759,0.02159
4765.24606,0.01547
4767.17453,0.00555
4769.10299,0.00749
4771.03146,0.01137
4772.95993,0.00410
4774.88840,0.00009
4776.81687,0.00543
4778.74534,0.00935
4780.67381,0.01407
4782.60227,0.02047
4784.53074,0.01461
4786.45921,0.00018
4788.38768,0.00229
4790.31615,0.02390
4792.24462,0.03700
4794.17309,0.02723
4796.10156,0.00915
4798.03002,-0.00291
4799.95849,-0.00731
4801.88696,-0.00514
4803.81543,-0.00050
4805.74390,0.00128
4807.67237,0.00136
4809.60084,0.00586
4811.52930,0.01931
4813.45777,0.03075
4815.38624,0.02274
4817.31471,0.00428
4819.24318,0.00150
4821.17165,0.01564
4823.10012,0.02634
4825.02859,0.02896
4826.95705,0.02612
4828.88552,0.01355
4830.81399,0.00295
4832.74246,0.00795
4834.67093,0.01640
4836.59940,0.01278
4838.52787,0.00099
4840.45633,-0.00518
4842.38480,0.00363
4844.31327,0.01269
4846.24174,0.00632
4848.17021,-0.00155
4850.09868,0.00066
4852.02715,0.00335
4853.95562,0.00289
4855.88408,0.00213
4857.81255,0.00461
4859.74102,0.01052
4861.66949,0.01213
4863.59796,0.00911
4865.52643,0.01148
4867.45490,0.01751
4869.38336,0.01248
4871.31183,-0.00111
4873.24030,-0.00668
4875.16877,-0.00444
4877.09724,-0.00598
4879.02571,-0.01049
4880.95418,-0.00349
4882.88265,0.01597
4884.81111,0.02841
4886.73958,0.02220
4888.66805,0.00584
4890.59652,-0.00427
4892.52499,-0.00236
4894.45346,0.00456
4896.38193,0.00769
4898.31039,0.00788
4900.23886,0.01198
4902.16733,0.01511
4904.09580,0.01349
4906.02427,0.01399
4907.95274,0.01245
4909.88121,0.00220
4911.80967,-0.00539
4913.73814,-0.00395
4915.66661,0.00361
4917.59508,0.01562
4919.52355,0.01813
4921.45202,0.01041
4923.38049,0.01062
4925.30896,0.01798
4927.23742,0.02389
4929.16589,0.02617
4931.09436,0.02072
4933.02283,0.00319
4934.95130,-0.01569
4936.87977,-0.02044
4938.80824,-0.01511
4940.73670,-0.00546
4942.66517,0.00563
4944.59364,0.01026
4946.52211,0.00758
4948.45058,0.00422
4950.37905,0.00343
4952.30752,-0.00060
4954.23599,-0.00316
4956.16445,0.00555
4958.09292,0.01346
4960.02139,0.00894
4961.94986,0.00874
4963.87833,0.02238
4965.80680,0.02247
4967.73527,0.00667
4969.66373,0.00462
4971.59220,0.00842
4973.52067,0.00063
4975.44914,-0.01023
4977.37761,-0.01618
4979.30608,-0.00805
4981.23455,0.00062
4983.16302,-0.01046
4985.09148,-0.01319
4987.01995,0.00757
4988.94842,0.02456
4990.87689,0.01985
4992.80536,0.00154
4994.73383,-0.00209
4996.66230,0.01280
4998.59076,0.01815
5000.51923,0.01347
5002.44770,0.01428
5004.37617,0.01904
5006.30464,0.02021
5008.23311,0.01748
5010.16158,0.01888
5012.09005,0.03028
5014.01851,0.04285
5015.94698,0.04443
5017.87545,0.03425
5019.80392,0.02002
5021.73239,0.00979
5023.66086,0.00499
5025.58933,0.00256
5027.51779,-0.00074
5029.44626,-0.00435
5031.37473,-0.00179
5033.30320,0.00394
5035.23167,0.00237
5037.16014,-0.00212
5039.08861,0.00118
5041.01708,0.00882
5042.94554,0.01490
5044.87401,0.02563
5046.80248,0.04163
5048.73095,0.04656
5050.65942,0.03248
5052.58789,0.01906
5054.51636,0.02490
5056.44482,0.03833
5058.37329,0.04153
5060.30176,0.03216
5062.23023,0.01896
5064.15870,0.01599
5066.08717,0.01837
5068.01564,0.01468
5069.94410,0.01125
5071.87257,0.00520
5073.80104,-0.00279
5075.72951,0.00660
5077.65798,0.02303
5079.58645,0.02070
5081.51492,0.01342
5083.44339,0.01553
5085.37185,0.01673
5087.30032,0.01757
5089.22879,0.02396
5091.15726,0.03342
5093.08573,0.04139
5095.01420,0.03902
5096.94267,0.02270
5098.87113,0.00959
5100.79960,0.00830
5102.72807,0.00722
5104.65654,0.01016
5106.58501,0.02689
5108.51348,0.04320
5110.44195,0.03885
5112.37042,0.02873
5114.29888,0.03508
5116.22735,0.04212
5118.15582,0.03338
5120.08429,0.02253
5122.01276,0.02288
5123.94123,0.02584
5125.86970,0.02418
5127.79816,0.01711
5129.72663,0.00943
5131.65510,0.01376
5133.58357,0.02564
5135.51204,0.03195
5137.44051,0.03256
5139.36898,0.02750
5141.29745,0.01998
5143.22591,0.02243
5145.15438,0.03597
5147.08285,0.04884
5149.01132,0.04752
5150.93979,0.04333
5152.86826,0.05199
5154.79673,0.04517
5156.72519,0.02102
5158.65366,0.01957
5160.58213,0.02953
5162.51060,0.02310
5164.43907,0.01942
5166.36754,0.03727
5168.29601,0.05940
5170.22448,0.07618
5172.15294,0.08180
5174.08141,0.06921
5176.00988,0.06171
5177.93835,0.07335
5179.86682,0.07608
5181.79529,0.05567
5183.72376,0.03649
5185.65222,0.03622
5187.58069,0.04553
5189.50916,0.04610
5191.43763,0.03420
5193.36610,0.02702
5195.29457,0.03632
5197.22304,0.04395
5199.15151,0.03557
5201.07997,0.03342
5203.00844,0.04900
5204.93691,0.06512
5206.86538,0.06600
5208.79385,0.05436
5210.72232,0.04613
5212.65079,0.04389
5214.57925,0.04117
5216.50772,0.04284
5218.43619,0.05435
5220.36466,0.06356
5222.29313,0.05987
5224.22160,0.05157
5226.15007,0.03979
5228.07854,0.01993
5230.00700,0.01173
5231.93547,0.02832
5233.86394,0.05349
5235.79241,0.06012
5237.72088,0.04017
5239.64935,0.02128
5241.57782,0.02348
5243.50628,0.02801
5245.43475,0.01387
5247.36322,0.00135
5249.29169,0.01730
5251.22016,0.04105
5253.14863,0.04212
5255.07710,0.01898
5257.00556,0.00588
5258.93403,0.02370
5260.86250,0.03239
5262.79097,0.01095
5264.71944,0.00195
5266.64791,0.01191
5268.57638,0.01220
5270.50485,0.00936
5272.43331,0.01998
5274.36178,0.04049
5276.29025,0.06087
5278.21872,0.07401
5280.14719,0.06936
5282.07566,0.05719
5284.00413,0.05568
5285.93259,0.05945
5287.86106,0.06335
5289.78953,0.06344
5291.71800,0.05643
5293.64647,0.04188
5295.57494,0.02409
5297.50341,0.02338
5299.43188,0.03841
5301.36034,0.04477
5303.28881,0.03840
5305.21728,0.02843
5307.14575,0.02348
5309.07422,0.03601
5311.00269,0.06064
5312.93116,0.07610
5314.85962,0.07185
5316.78809,0.05657
5318.71656,0.05024
5320.64503,0.05641
5322.57350,0.06386
5324.50197,0.07128
5326.43044,0.07897
5328.35891,0.07918
5330.28737,0.07716
5332.21584,0.08200
5334.14431,0.08647
5336.07278,0.08614
5338.00125,0.08219
5339.92972,0.07678
5341.85819,0.08264
5343.78665,0.09321
5345.71512,0.07997
5347.64359,0.05896
5349.57206,0.05820
5351.50053,0.06311
5353.42900,0.06446
5355.35747,0.06910
5357.28594,0.06895
5359.21440,0.07344
5361.14287,0.09271
5363.07134,0.10396
5364.99981,0.09698
5366.92828,0.09120
5368.85675,0.09283
5370.78522,0.09925
5372.71368,0.11197
5374.64215,0.11892
5376.57062,0.10685
5378.49909,0.08225
5380.42756,0.05314
5382.35603,0.04181
5384.28450,0.07596
5386.21297,0.12065
5388.14143,0.11295
5390.06990,0.07970
5391.99837,0.06402
5393.92684,0.05547
5395.85531,0.04362
5397.78378,0.04249
5399.71225,0.05165
5401.64071,0.05653
5403.56918,0.04159
5405.49765,0.02711
5407.42612,0.04652
5409.35459,0.08036
5411.28306,0.09106
5413.21153,0.08413
5415.13999,0.07772
5417.06846,0.06924
5418.99693,0.06723
5420.92540,0.07802
5422.85387,0.08263
5424.78234,0.06709
5426.71081,0.04543
5428.63928,0.05138
5430.56774,0.08793
5432.49621,0.10902
5434.42468,0.09585
5436.35315,0.07870
5438.28162,0.08581
5440.21009,0.10164
5442.13856,0.08836
5444.06702,0.05232
5445.99549,0.03529
5447.92396,0.03797
5449.85243,0.04195
5451.78090,0.05563
5453.70937,0.07342
5455.63784,0.06875
5457.56631,0.05003
5459.49477,0.05468
5461.42324,0.06975
5463.35171,0.06192
5465.28018,0.04108
5467.20865,0.04065
5469.13712,0.06003
5471.06559,0.06870
5472.99405,0.07182
5474.92252,0.08496
5476.85099,0.09766
5478.77946,0.11051
5480.70793,0.11615
5482.63640,0.10017
5484.56487,0.09077
5486.49334,0.10350
5488.42180,0.10800
5490.35027,0.09785
5492.27874,0.09539
5494.20721,0.10571
5496.13568,0.12359
5498.06415,0.14007
5499.99262,0.13296
5501.92108,0.10128
5503.84955,0.07784
5505.77802,0.08067
5507.70649,0.09098
5509.63496,0.09368
5511.56343,0.09436
5513.49190,0.09068
5515.42037,0.08838
5517.34883,0.08986
5519.27730,0.08979
5521.20577,0.09814
5523.13424,0.11077
5525.06271,0.10949
5526.99118,0.09819
5528.91965,0.09087
5530.84811,0.08953
5532.77658,0.10024
5534.70505,0.11140
5536.63352,0.09119
5538.56199,0.06442
5540.49046,0.07082
5542.41893,0.08040
5544.34740,0.07353
5546.27586,0.07938
5548.20433,0.09492
5550.13280,0.10676
5552.06127,0.11817
5553.98974,0.11847
5555.91821,0.10728
5557.84668,0.10128
5559.77514,0.10479
5561.70361,0.09955
5563.63208,0.08535
5565.56055,0.09148
5567.48902,0.10716
5569.41749,0.10367
5571.34596,0.09654
5573.27443,0.09789
5575.20289,0.09785
5577.13136,0.08783
5579.05983,0.06343
5580.98830,0.05043
5582.91677,0.06731
5584.84524,0.07616
5586.77371,0.07151
5588.70217,0.09828
5590.63064,0.13592
5592.55911,0.12567
5594.48758,0.09480
5596.41605,0.08402
5598.34452,0.08447
5600.27299,0.08759
5602.20145,0.08574
5604.12992,0.08093
5606.05839,0.08517
5607.98686,0.09914
5609.91533,0.11394
5611.84380,0.10988
5613.77227,0.08292
5615.70074,0.06216
5617.62920,0.06516
5619.55767,0.07884
5621.48614,0.08364
5623.41461,0.07642
5625.34308,0.08912
5627.27155,0.12985
5629.20002,0.13969
5631.12848,0.11128
5633.05695,0.08560
5634.98542,0.06305
5636.91389,0.04968
5638.84236,0.06283
5640.77083,0.08561
5642.69930,0.10282
5644.62777,0.10443
5646.55623,0.08553
5648.48470,0.07929
5650.41317,0.09963
5652.34164,0.11348
5654.27011,0.10866
5656.19858,0.09926
5658.12705,0.09505
5660.05551,0.09697
5661.98398,0.09777
5663.91245,0.09737
5665.84092,0.09954
5667.76939,0.09627
5669.69786,0.07674
5671.62633,0.06324
5673.55480,0.08654
5675.48326,0.11768
5677.41173,0.13491
5679.34020,0.15949
5681.26867,0.18147
5683.19714,0.17953
5685.12561,0.14708
5687.05408,0.09163
5688.98254,0.04920
5690.91101,0.04471
5692.83948,0.05449
5694.76795,0.07000
5696.69642,0.10098
5698.62489,0.11827
5700.55336,0.11122
5702.48183,0.11099
5704.41029,0.12103
5706.33876,0.10933
5708.26723,0.06886
5710.19570,0.04733
5712.12417,0.07415
5714.05264,0.09644
5715.98111,0.07599
5717.90957,0.06026
5719.83804,0.07625
5721.76651,0.10327
5723.69498,0.12052
5725.62345,0.11179
5727.55192,0.08270
5729.48039,0.06636
5731.40886,0.08305
5733.33732,0.10390
5735.26579,0.09540
5737.19426,0.07706
5739.12273,0.07123
5741.05120,0.05718
5742.97967,0.05983
5744.90814,0.09722
5746.83660,0.11265
5748.76507,0.08989
5750.69354,0.06195
5752.62201,0.06066
5754.55048,0.08750
5756.47895,0.09698
5758.40742,0.08701
5760.33588,0.08110
5762.26435,0.06278
5764.19282,0.02530
5766.12129,0.00899
5768.04976,0.03497
5769.97823,0.07055
5771.90670,0.08607
5773.83517,0.08506
5775.76363,0.08589
5777.69210,0.09203
5779.62057,0.10393
5781.54904,0.14311
5783.47751,0.19100
5785.40598,0.19303
5787.33445,0.15392
5789.26291,0.12298
5791.19138,0.12028
5793.11985,0.12871
5795.04832,0.12295
5796.97679,0.11111
5798.90526,0.11753
5800.83373,0.11234
5802.76220,0.07102
5804.69066,0.05552
5806.61913,0.08691
5808.54760,0.08237
5810.47607,0.03273
5812.40454,0.03727
5814.33301,0.10232
5816.26148,0.12676
5818.18994,0.11250
5820.11841,0.11987
5822.04688,0.12968
5823.97535,0.11194
5825.90382,0.08419
5827.83229,0.08585
5829.76076,0.13110
5831.68923,0.17158
5833.61769,0.15559
5835.54616,0.10812
5837.47463,0.08929
5839.40310,0.10459
5841.33157,0.12184
5843.26004,0.11248
5845.18851,0.08451
5847.11697,0.07353
5849.04544,0.08915
5850.97391,0.11797
5852.90238,0.13250
5854.83085,0.10863
5856.75932,0.08170
5858.68779,0.08259
5860.61626,0.08984
5862.54472,0.10592
5864.47319,0.13036
5866.40166,0.13976
5868.33013,0.13179
5870.25860,0.11522
5872.18707,0.09658
5874.11554,0.07404
5876.04400,0.05499
5877.97247,0.05175
5879.90094,0.06756
5881.82941,0.11451
5883.75788,0.17375
5885.68635,0.20678
5887.61482,0.19842
5889.54329,0.14701
5891.47175,0.09392
5893.40022,0.09205
5895.32869,0.12511
5897.25716,0.13130
5899.18563,0.09586
5901.11410,0.06476
5903.04257,0.05935
5904.97103,0.05846
5906.89950,0.06102
5908.82797,0.08394
5910.75644,0.11604
5912.68491,0.14462
5914.61338,0.15584
5916.54185,0.12284
5918.47032,0.07563
5920.39878,0.06162
5922.32725,0.06656
5924.25572,0.06416
5926.18419,0.04629
5928.11266,0.02507
5930.04113,0.02468
5931.96960,0.05309
5933.89806,0.09879
5935.82653,0.13148
5937.75500,0.13845
5939.68347,0.13125
5941.61194,0.11371
5943.54041,0.09709
5945.46888,0.09942
5947.39734,0.13044
5949.32581,0.16601
5951.25428,0.15808
5953.18275,0.11210
5955.11122,0.06556
5957.03969,0.04170
5958.96816,0.05954
5960.89663,0.09170
5962.82509,0.08137
5964.75356,0.06367
5966.68203,0.08287
5968.61050,0.10099
5970.53897,0.11202
5972.46744,0.12525
5974.39591,0.12012
5976.32437,0.11369
5978.25284,0.10791
5980.18131,0.07940
5982.10978,0.04209
5984.03825,0.04346
5985.96672,0.08196
5987.89519,0.09065
5989.82366,0.06112
5991.75212,0.05303
5993.68059,0.08999
5995.60906,0.12522
5997.53753,0.12010
5999.46600,0.11403
6001.39447,0.11183
6003.32294,0.09188
6005.25140,0.08701
6007.17987,0.08550
6009.10834,0.05670
6011.03681,0.03779
6012.96528,0.06307
6014.89375,0.11514
6016.82222,0.13215
6018.75069,0.09816
6020.67915,0.08321
6022.60762,0.09982
6024.53609,0.10114
6026.46456,0.09617
6028.39303,0.10861
6030.32150,0.12271
6032.24997,0.13254
6034.17843,0.13828
6036.10690,0.12809
6038.03537,0.10326
6039.96384,0.07475
6041.89231,0.05755
6043.82078,0.05144
6045.74925,0.05750
6047.67772,0.09700
6049.60618,0.12240
6051.53465,0.08290
6053.46312,0.04473
6055.39159,0.05694
6057.32006,0.10210
6059.24853,0.13842
6061.17700,0.13273
6063.10546,0.11877
6065.03393,0.12887
6066.96240,0.11826
6068.89087,0.07090
6070.81934,0.05080
6072.74781,0.06524
6074.67628,0.06489
6076.60475,0.07256
6078.53321,0.09807
6080.46168,0.12435
6082.39015,0.17883
6084.31862,0.23037
6086.24709,0.21344
6088.17556,0.16273
6090.10403,0.13869
6092.03249,0.11780
6093.96096,0.07694
6095.88943,0.04825
6097.81790,0.04115
6099.74637,0.03922
6101.67484,0.02619
6103.60331,-0.00124
6105.53177,-0.00690
6107.46024,0.02706
6109.38871,0.07003
6111.31718,0.08246
6113.24565,0.06686
6115.17412,0.07475
6117.10259,0.11974
6119.03106,0.14335
6120.95952,0.11653
6122.88799,0.09998
6124.81646,0.12831
6126.74493,0.16028
6128.67340,0.14727
6130.60187,0.09345
6132.53034,0.06099
6134.45880,0.08785
6136.38727,0.13761
6138.31574,0.17090
6140.24421,0.15965
6142.17268,0.10792
6144.10115,0.09404
6146.02962,0.12955
6147.95809,0.12238
6149.88655,0.04448
6151.81502,-0.01220
6153.74349,0.01767
6155.67196,0.07399
6157.60043,0.08205
6159.52890,0.04324
6161.45737,0.01034
6163.38583,-0.01460
6165.31430,-0.02572
6167.24277,0.00554
6169.17124,0.02667
6171.09971,0.01984
6173.02818,0.05364
6174.95665,0.10841
6176.88512,0.11435
6178.81358,0.12058
6180.74205,0.16829
6182.67052,0.19138
6184.59899,0.16399
6186.52746,0.10813
6188.45593,0.05892
6190.38440,0.04983
6192.31286,0.03836
6194.24133,0.02964
6196.16980,0.07117
6198.09827,0.10516
6200.02674,0.09594
6201.95521,0.09891
6203.88368,0.11476
6205.81215,0.08852
6207.74061,0.05337
6209.66908,0.05740
6211.59755,0.05588
6213.52602,0.03499
6215.45449,-0.00176
6217.38296,-0.04245
6219.31143,-0.02453
6221.23989,0.02787
6223.16836,0.05340
6225.09683,0.05910
6227.02530,0.07380
6228.95377,0.07743
6230.88224,0.05159
6232.81071,0.02731
6234.73918,0.00799
6236.66764,0.00361
6238.59611,0.04812
6240.52458,0.11528
6242.45305,0.14779
6244.38152,0.12921
6246.30999,0.09803
6248.23846,0.06303
6250.16692,-0.01183
6252.09539,-0.07317
6254.02386,-0.04585
6255.95233,0.02366
6257.88080,0.06090
6259.80927,0.06564
6261.73774,0.09866
6263.66621,0.16527
6265.59467,0.17175
6267.52314,0.09722
6269.45161,0.02801
6271.38008,-0.00317
6273.30855,0.01652
6275.23702,0.07819
6277.16549,0.10960
6279.09395,0.10637
6281.02242,0.11307
6282.95089,0.13695
6284.87936,0.19606
6286.80783,0.25607
6288.73630,0.24992
6290.66477,0.17773
6292.59323,0.07508
6294.52170,0.00976
6296.45017,0.02487
6298.37864,0.06423
6300.30711,0.09352
6302.23558,0.13629
6304.16405,0.16793
6306.09252,0.13395
6308.02098,0.06376
6309.94945,0.05411
6311.87792,0.10385
6313.80639,0.15358
6315.73486,0.18380
6317.66333,0.16245
6319.59180,0.09752
6321.52026,0.05229
6323.44873,0.06746
6325.37720,0.09537
6327.30567,0.07743
6329.23414,0.06685
6331.16261,0.09331
6333.09108,0.08267
6335.01955,0.04836
6336.94801,0.06319
6338.87648,0.10540
6340.80495,0.11269
6342.73342,0.10850
6344.66189,0.15084
6346.59036,0.20488
6348.51883,0.20890
6350.44729,0.16978
6352.37576,0.11268
6354.30423,0.06189
6356.23270,0.05324
6358.16117,0.08736
6360.08964,0.08575
6362.01811,0.05282
6363.94658,0.05728
6365.87504,0.07020
6367.80351,0.06967
6369.73198,0.06858
6371.66045,0.06710
6373.58892,0.06393
6375.51739,0.06749
6377.44586,0.10150
6379.37432,0.14054
6381.30279,0.14766
6383.23126,0.11902
6385.15973,0.06230
6387.08820,0.03735
6389.01667,0.09618
6390.94514,0.18070
6392.87361,0.21870
6394.80207,0.20913
6396.73054,0.16986
6398.65901,0.12216
6400.58748,0.08473
6402.51595,0.06766
6404.44442,0.05272
6406.37289,0.03026
6408.30135,0.05664
6410.22982,0.11645
6412.15829,0.09165
6414.08676,0.02788
6416.01523,0.06253
6417.94370,0.16421
6419.87217,0.17604
6421.80064,0.10758
6423.72910,0.09327
6425.65757,0.10421
6427.58604,0.06324
6429.51451,0.06074
6431.44298,0.13897
6433.37145,0.18606
6435.29992,0.17268
6437.22838,0.16554
6439.15685,0.17916
6441.08532,0.16290
6443.01379,0.09117
6444.94226,0.02756
6446.87073,0.01071
6448.79920,-0.00877
6450.72766,-0.03290
6452.65613,-0.01239
6454.58460,0.04821
6456.51307,0.08110
6458.44154,0.05985
6460.37001,0.03846
6462.29848,0.05416
6464.22695,0.09240
6466.15541,0.11554
6468.08388,0.10224
6470.01235,0.09907
6471.94082,0.15826
6473.86929,0.21284
6475.79776,0.23071
6477.72623,0.20985
6479.65469,0.11412
6481.58316,0.03871
6483.51163,0.05305
6485.44010,0.08108
6487.36857,0.07382
6489.29704,0.00568
6491.22551,-0.11376
6493.15398,-0.17480
6495.08244,-0.10364
6497.01091,0.00332
6498.93938,0.05412
6500.86785,0.08496
6502.79632,0.12434
6504.72479,0.10476
6506.65326,0.03629
6508.58172,0.01453
6510.51019,0.02626
6512.43866,-0.00722
6514.36713,-0.03691
6516.29560,0.00490
6518.22407,0.07045
6520.15254,0.08141
6522.08101,0.04628
6524.00947,0.04564
6525.93794,0.12556
6527.86641,0.18283
6529.79488,0.12741
6531.72335,0.02557
6533.65182,-0.03134
6535.58029,-0.01672
6537.50875,0.02528
6539.43722,0.05960
6541.36569,0.11474
6543.29416,0.15846
6545.22263,0.15999
6547.15110,0.17239
6549.07957,0.18242
6551.00804,0.12417
6552.93650,0.06552
6554.86497,0.06705
6556.79344,0.04488
6558.72191,0.00550
6560.65038,0.00663
6562.57885,0.01624
6564.50732,0.06157
6566.43578,0.15690
6568.36425,0.19680
6570.29272,0.19130
6572.22119,0.20821
6574.14966,0.20616
6576.07813,0.15532
6578.00660,0.09416
6579.93507,0.08264
6581.86353,0.06703
6583.79200,-0.01736
6585.72047,-0.03820
6587.64894,0.01764
6589.57741,0.04999
6591.50588,0.08799
6593.43435,0.09487
6595.36281,0.04009
6597.29128,0.08469
6599.21975,0.23344
6601.14822,0.30487
6603.07669,0.25269
6605.00516,0.17646
6606.93363,0.10638
6608.86210,0.07881
6610.79056,0.08129
6612.71903,0.02807
6614.64750,-0.01882
6616.57597,0.01359
6618.50444,0.04153
6620.43291,0.04232
6622.36138,0.06763
6624.28984,0.10043
6626.21831,0.09581
6628.14678,0.05031
6630.07525,0.00021
6632.00372,0.00553
6633.93219,0.05397
6635.86066,0.08113
6637.78912,0.06571
6639.71759,0.03603
6641.64606,0.03786
6643.57453,0.07428
6645.50300,0.11077
6647.43147,0.10293
6649.35994,0.01958
6651.28841,-0.08802
6653.21687,-0.14240
6655.14534,-0.11722
6657.07381,-0.00257
6659.00228,0.15810
6660.93075,0.20048
6662.85922,0.09020
6664.78769,0.02487
6666.71615,0.13365
6668.64462,0.27151
6670.57309,0.24596
6672.50156,0.10570
6674.43003,-0.00224
6676.35850,-0.05618
6678.28697,-0.05361
6680.21544,0.01015
6682.14390,0.03305
6684.07237,-0.02997
6686.00084,-0.07407
6687.92931,-0.09921
6689.85778,-0.13139
6691.78625,-0.10801
6693.71472,-0.06481
6695.64318,-0.04845
6697.57165,-0.03355
6699.50012,0.01259
6701.42859,0.07851
6703.35706,0.10867
6705.28553,0.03230
6707.21400,-0.03100
6709.14247,0.07984
6711.07093,0.18133
6712.99940,0.15742
6714.92787,0.14976
6716.85634,0.16688
6718.78481,0.11455
6720.71328,0.06486
6722.64175,0.08315
6724.57021,0.09328
6726.49868,0.05780
6728.42715,0.02615
6730.35562,0.03869
6732.28409,0.05074
6734.21256,0.01485
6736.14103,0.00816
6738.06950,0.12112
6739.99796,0.24923
6741.92643,0.21373
6743.85490,0.08257
6745.78337,-0.00289
6747.71184,-0.03499
6749.64031,-0.01109
6751.56878,0.00704
6753.49724,-0.02030
6755.42571,-0.02369
6757.35418,-0.00870
6759.28265,-0.00312
6761.21112,0.02705
6763.13959,0.02401
6765.06806,-0.04424
6766.99653,-0.06046
6768.92499,0.01378
6770.85346,0.08026
6772.78193,0.06887
6774.71040,-0.02138
6776.63887,-0.07643
6778.56734,0.00081
6780.49581,0.11480
6782.42427,0.15781
6784.35274,0.10350
6786.28121,0.01858
6788.20968,-0.00349
6790.13815,0.02212
6792.06662,0.03211
6793.99509,0.01388
6795.92355,-0.01832
6797.85202,-0.01611
6799.78049,0.06288
6801.70896,0.15843
6803.63743,0.20792
6805.56590,0.24674
6807.49437,0.22116
6809.42284,0.10018
6811.35130,0.01829
6813.27977,0.02733
6815.20824,0.02860
6817.13671,0.04141
6819.06518,0.10002
6820.99365,0.16237
6822.92212,0.13131
6824.85058,-0.00890
6826.77905,-0.10428
6828.70752,-0.07825
6830.63599,0.03973
6832.56446,0.12876
6834.49293,0.09098
6836.42140,-0.00223
6838.34987,0.01317
6840.27833,0.10860
6842.20680,0.17404
6844.13527,0.14483
6846.06374,0.06466
6847.99221,0.04952
6849.92068,0.04134
6851.84915,0.02838
6853.77761,0.13940
6855.70608,0.29838
6857.63455,0.34200
6859.56302,0.29077
6861.49149,0.22371
6863.41996,0.17644
6865.34843,0.10153
6867.27690,-0.01759
6869.20536,-0.04356
6871.13383,0.06427
6873.06230,0.18018
6874.99077,0.20929
6876.91924,0.17264
6878.84771,0.13699
6880.77618,0.13535
6882.70464,0.13757
6884.63311,0.13786
6886.56158,0.12389
6888.49005,0.08444
6890.41852,0.03609
6892.34699,0.04009
6894.27546,0.06966
6896.20393,0.01845
6898.13239,-0.03771
6900.06086,0.02310
6901.98933,0.10922
6903.91780,0.16017
6905.84627,0.20365
6907.77474,0.24431
6909.70321,0.29006
6911.63167,0.29168
6913.56014,0.22194
6915.48861,0.18907
6917.41708,0.22318
6919.34555,0.22499
6921.27402,0.15777
6923.20249,0.09904
6925.13096,0.05289
6927.05942,-0.00155
6928.98789,-0.01871
6930.91636,0.02460
6932.84483,0.07643
6934.77330,0.07613
6936.70177,0.03459
6938.63024,-0.02787
6940.55870,-0.09870
6942.48717,-0.14169
6944.41564,-0.15184
6946.34411,-0.10937
6948.27258,-0.02542
6950.20105,0.02751
6952.12952,0.05535
6954.05799,0.09860
6955.98645,0.14182
6957.91492,0.14778
6959.84339,0.15885
6961.77186,0.22889
6963.70033,0.25826
6965.62880,0.16782
6967.55727,0.06345
6969.48573,0.06783
6971.41420,0.12587
6973.34267,0.12062
6975.27114,0.05112
6977.19961,0.00894
6979.12808,0.00191
6981.05655,-0.03060
6982.98501,-0.06384
6984.91348,-0.01698
6986.84195,0.06507
6988.77042,0.09834
6990.69889,0.07343
6992.62736,0.04758
6994.55583,0.10966
6996.48430,0.18037
6998.41276,0.11660
7000.34123,0.05887
7002.26970,0.07732
7004.19817,0.10867
7006.12664,0.13742
7008.05511,0.09315
7009.98358,0.02831
7011.91204,0.00506
7013.84051,-0.00337
7015.76898,0.07561
7017.69745,0.21209
7019.62592,0.21046
7021.55439,0.10365
7023.48286,0.06073
7025.41133,0.05681
7027.33979,0.05188
7029.26826,0.03670
7031.19673,0.01377
7033.12520,0.10330
7035.05367,0.20390
7036.98214,0.10052
7038.91061,-0.02475
7040.83907,0.01044
7042.76754,0.14379
7044.69601,0.20209
7046.62448,0.17404
7048.55295,0.17766
7050.48142,0.24072
7052.40989,0.28314
7054.33836,0.30924
7056.26682,0.38089
7058.19529,0.35637
7060.12376,0.19583
7062.05223,0.06353
7063.98070,-0.03583
7065.90917,-0.12393
7067.83764,-0.16231
7069.76610,-0.09615
7071.69457,0.00572
7073.62304,-0.02029
7075.55151,-0.11473
7077.47998,-0.16269
7079.40845,-0.17418
7081.33692,-0.16772
7083.26539,-0.14566
7085.19385,-0.13922
7087.12232,-0.12975
7089.05079,-0.13288
7090.97926,-0.09633
7092.90773,0.03593
7094.83620,0.12580
7096.76467,0.10278
7098.69313,0.06462
7100.62160,0.11142
7102.55007,0.20362
7104.47854,0.25227
7106.40701,0.23604
7108.33548,0.19011
7110.26395,0.11369
7112.19242,0.01772
7114.12088,-0.04700
7116.04935,-0.11782
7117.97782,-0.12751
7119.90629,0.05128
7121.83476,0.21430
7123.76323,0.25965
7125.69170,0.29031
7127.62016,0.27635
7129.54863,0.16426
7131.47710,0.08423
7133.40557,0.07404
7135.33404,0.01194
7137.26251,-0.08165
7139.19098,-0.10930
7141.11944,-0.10755
7143.04791,-0.09186
7144.97638,-0.03566
7146.90485,-0.03237
7148.83332,0.02195
7150.76179,0.21516
7152.69026,0.28797
7154.61873,0.11514
7156.54719,-0.02259
7158.47566,-0.02515
7160.40413,-0.02453
7162.33260,-0.10488
7164.26107,-0.16797
7166.18954,-0.05844
7168.11801,0.10526
7170.04647,0.14497
7171.97494,0.11677
7173.90341,0.10176
7175.83188,0.03582
7177.76035,-0.03838
7179.68882,-0.07954
7181.61729,-0.08972
7183.54576,0.06432
7185.47422,0.18579
7187.40269,0.11074
7189.33116,0.03981
7191.25963,-0.01666
7193.18810,-0.14179
7195.11657,-0.18431
7197.04504,-0.14289
7198.97350,-0.09359
7200.90197,-0.04349
7202.83044,-0.02567
7204.75891,0.02745
7206.68738,0.13590
7208.61585,0.12712
7210.54432,0.01787
7212.47279,-0.06963
7214.40125,-0.05563
7216.32972,0.09814
7218.25819,0.25861
7220.18666,0.18058
7222.11513,0.03645
7224.04360,0.03404
7225.97207,0.17865
7227.90053,0.25766
7229.82900,0.20681
7231.75747,0.16029
7233.68594,0.14700
7235.61441,0.12765
7237.54288,0.11751
7239.47135,0.11402
7241.39982,0.07482
7243.32828,-0.03349
7245.25675,-0.08017
7247.18522,0.02682
7249.11369,0.12305
7251.04216,0.07324
7252.97063,0.00812
7254.89910,0.03547
7256.82756,0.10213
7258.75603,0.20145
7260.68450,0.24420
7262.61297,0.14142
7264.54144,0.03222
7266.46991,0.03428
7268.39838,0.03791
7270.32685,-0.03386
7272.25531,-0.05199
7274.18378,0.09138
7276.11225,0.19966
7278.04072,0.12179
7279.96919,-0.13500
7281.89766,-0.26377
7283.82613,-0.13933
7285.75459,0.01758
7287.68306,0.05653
7289.61153,0.00590
7291.54000,-0.06603
7293.46847,-0.14709
7295.39694,-0.15903
7297.32541,0.00368
7299.25387,0.22886
7301.18234,0.36608
7303.11081,0.36033
7305.03928,0.22127
7306.96775,0.02472
7308.89622,-0.05535
7310.82469,0.11917
7312.75316,0.37712
7314.68162,0.55403
7316.61009,0.46470
7318.53856,0.18978
7320.46703,0.07001
7322.39550,0.10489
7324.32397,0.13670
7326.25244,0.04285
7328.18090,-0.14179
7330.10937,-0.15082
7332.03784,0.09081
7333.96631,0.26418
7335.89478,0.19589
7337.82325,0.02408
7339.75172,-0.06412
7341.68019,-0.05785
7343.60865,-0.10326
7345.53712,-0.21229
7347.46559,-0.29486
7349.39406,-0.14610
7351.32253,0.08381
7353.25100,0.11859
7355.17947,0.10973
7357.10793,0.20894
7359.03640,0.17355
7360.96487,-0.00948
7362.89334,-0.04730
7364.82181,-0.00090
7366.75028,0.07383
7368.67875,0.16851
7370.60722,0.17167
7372.53568,0.09711
7374.46415,-0.01518
7376.39262,-0.15458
7378.32109,-0.33122
7380.24956,-0.41665
7382.17803,-0.19076
7384.10650,0.13633
7386.03496,0.31164
7387.96343,0.34061
7389.89190,0.25930
7391.82037,0.26317
7393.74884,0.43765
7395.67731,0.52045
7397.60578,0.43813
7399.53425,0.36417
7401.46271,0.33386
7403.39118,0.35514
7405.31965,0.36935
7407.24812,0.33700
7409.17659,0.27630
7411.10506,0.14321
7413.03353,0.00147
7414.96199,-0.11469
7416.89046,-0.22961
7418.81893,-0.19864
7420.74740,-0.05214
7422.67587,-0.05645
7424.60434,-0.09656
7426.53281,-0.06439
7428.46128,0.04824
7430.38974,0.19932
7432.31821,0.23008
7434.24668,0.17494
7436.17515,0.13670
7438.10362,0.02762
7440.03209,-0.14474
7441.96056,-0.12205
7443.88902,0.03808
7445.81749,0.06732
7447.74596,0.10990
7449.67443,0.28239
7451.60290,0.25656
7453.53137,0.03535
7455.45984,-0.09930
7457.38831,-0.21109
7459.31677,-0.16337
7461.24524,0.14540
7463.17371,0.32184
7465.10218,0.38223
7467.03065,0.45499
7468.95912,0.34959
7470.88759,0.06921
7472.81605,-0.12055
7474.74452,-0.15008
7476.67299,-0.05332
7478.60146,0.14759
7480.52993,0.22553
7482.45840,0.12273
7484.38687,0.07769
7486.31533,0.21234
7488.24380,0.38879
7490.17227,0.39167
7492.10074,0.26298
7494.02921,0.12769
7495.95768,0.04150
7497.88615,0.06999
