399.19301,0.43891
401.12148,0.91276
403.04995,0.90152
404.97842,1.17517
406.90689,1.31285
408.83536,1.39337
410.76382,1.84820
412.69229,1.88139
414.62076,2.20115
416.54923,4.71021
418.47770,6.52795
420.40617,3.48084
422.33464,1.10525
424.26311,0.50966
426.19157,0.13735
428.12004,-0.15174
430.04851,-0.42025
431.97698,-0.43225
433.90545,-0.14426
435.83392,0.10390
437.76239,0.22910
439.69085,0.20651
441.61932,0.06670
443.54779,0.01006
445.47626,0.07102
447.40473,0.12809
449.33320,0.11632
451.26167,0.05946
453.19013,0.01833
455.11860,-0.02260
457.04707,-0.05073
458.97554,-0.00036
460.90401,0.06841
462.83248,0.05850
464.76095,0.00956
466.68942,0.03334
468.61788,0.11767
470.54635,0.14173
472.47482,0.14798
474.40329,0.27483
476.33176,0.28058
478.26023,0.19680
480.18870,0.16059
482.11716,0.14676
484.04563,0.12276
485.97410,0.10576
487.90257,0.07797
489.83104,0.04207
491.75951,0.03065
493.68798,0.05715
495.61645,0.11773
497.54491,0.12130
499.47338,0.03623
501.40185,-0.01266
503.33032,0.05856
505.25879,0.15168
507.18726,0.17617
509.11573,0.16639
511.04419,0.16249
512.97266,0.15574
514.90113,0.13276
516.82960,0.09290
518.75807,0.05773
520.68654,0.05283
522.61501,0.07353
524.54348,0.08353
526.47194,0.07165
528.40041,0.08074
530.32888,0.10397
532.25735,0.11312
534.18582,0.12112
536.11429,0.11732
538.04276,0.10291
539.97122,0.11895
541.89969,0.14764
543.82816,0.14915
545.75663,0.13353
547.68510,0.10721
549.61357,0.07780
551.54204,0.03110
553.47051,-0.02155
555.39897,0.00325
557.32744,0.07240
559.25591,0.09885
561.18438,0.09920
563.11285,0.10857
565.04132,0.11936
566.96979,0.11435
568.89825,0.11944
570.82672,0.13436
572.75519,0.13483
574.68366,0.13059
576.61213,0.13163
578.54060,0.12707
580.46907,0.12234
582.39754,0.13351
584.32600,0.13529
586.25447,0.10885
588.18294,0.09619
590.11141,0.12054
592.03988,0.13754
593.96835,0.12286
595.89682,0.10658
597.82528,0.12003
599.75375,0.14112
601.68222,0.13433
603.61069,0.12562
605.53916,0.12666
607.46763,0.12060
609.39610,0.12063
611.32456,0.14008
613.25303,0.15308
615.18150,0.13698
617.10997,0.11521
619.03844,0.10893
620.96691,0.10348
622.89538,0.08488
624.82385,0.07137
626.75231,0.08460
628.68078,0.09885
630.60925,0.03684
632.53772,-0.04535
634.46619,0.00279
636.39466,0.09059
638.32313,0.11007
640.25159,0.12193
642.18006,0.14602
644.10853,0.16541
646.03700,0.17445
647.96547,0.15736
649.89394,0.13334
651.82241,0.13169
653.75088,0.13310
655.67934,0.11891
657.60781,0.10648
659.53628,0.10390
661.46475,0.11042
663.39322,0.12405
665.32169,0.13464
667.25016,0.14963
669.17862,0.17613
671.10709,0.17871
673.03556,0.16898
674.96403,0.16627
676.89250,0.16531
678.82097,0.15208
680.74944,0.13311
682.67791,0.13305
684.60637,0.15042
686.53484,0.15612
688.46331,0.13595
690.39178,0.11439
692.32025,0.12126
694.24872,0.14303
696.17719,0.15395
698.10565,0.15597
700.03412,0.15862
701.96259,0.16088
703.89106,0.15858
705.81953,0.14669
707.74800,0.15489
709.67647,0.23397
711.60494,0.31025
713.53340,0.27352
715.46187,0.19277
717.39034,0.16393
719.31881,0.16168
721.24728,0.15704
723.17575,0.15356
725.10422,0.14869
727.03268,0.14148
728.96115,0.13666
730.88962,0.13740
732.81809,0.14121
734.74656,0.13917
736.67503,0.13461
738.60350,0.14076
740.53197,0.15216
742.46043,0.15552
744.38890,0.15339
746.31737,0.14944
748.24584,0.13475
750.17431,0.11725
752.10278,0.11960
754.03125,0.13807
755.95971,0.15517
757.88818,0.16397
759.81665,0.16268
761.74512,0.15526
763.67359,0.15263
765.60206,0.15102
767.53053,0.14094
769.45900,0.13447
771.38746,0.14435
773.31593,0.16492
775.24440,0.17716
777.17287,0.16998
779.10134,0.15856
781.02981,0.15918
782.95828,0.16244
784.88674,0.15732
786.81521,0.15192
788.74368,0.15382
790.67215,0.16211
792.60062,0.16711
794.52909,0.16214
796.45756,0.15385
798.38602,0.14182
800.31449,0.12814
802.24296,0.13104
804.17143,0.14861
806.09990,0.15707
808.02837,0.15014
809.95684,0.13801
811.88531,0.13404
813.81377,0.14006
815.74224,0.14058
817.67071,0.13599
819.59918,0.14148
821.52765,0.15819
823.45612,0.17339
825.38459,0.17356
827.31305,0.16231
829.24152,0.16001
831.16999,0.17090
833.09846,0.17677
835.02693,0.16856
836.95540,0.15225
838.88387,0.13522
840.81234,0.13067
842.74080,0.14443
844.66927,0.15841
846.59774,0.15568
848.52621,0.14833
850.45468,0.15493
852.38315,0.16702
854.31162,0.16214
856.24008,0.14715
858.16855,0.14844
860.09702,0.16024
862.02549,0.16054
863.95396,0.15391
865.88243,0.14896
867.81090,0.13427
869.73937,0.11558
871.66783,0.11956
873.59630,0.13882
875.52477,0.15056
877.45324,0.15641
879.38171,0.16078
881.31018,0.16099
883.23865,0.15868
885.16711,0.15511
887.09558,0.14727
889.02405,0.14099
890.95252,0.14564
892.88099,0.15496
894.80946,0.15763
896.73793,0.15530
898.66640,0.15221
900.59486,0.15086
902.52333,0.15449
904.45180,0.15766
906.38027,0.15688
908.30874,0.15821
910.23721,0.16479
912.16568,0.16783
914.09414,0.16425
916.02261,0.16300
917.95108,0.16013
919.87955,0.15117
921.80802,0.14724
923.73649,0.15013
925.66496,0.15309
927.59343,0.15888
929.52189,0.16342
931.45036,0.15977
933.37883,0.15517
935.30730,0.15471
937.23577,0.15564
939.16424,0.15665
941.09271,0.15673
943.02117,0.15426
944.94964,0.15508
946.87811,0.15785
948.80658,0.14985
950.73505,0.14049
952.66352,0.14420
954.59199,0.15191
956.52045,0.15500
958.44892,0.15586
960.37739,0.15766
962.30586,0.16233
964.23433,0.16291
966.16280,0.15587
968.09127,0.15348
970.01974,0.16291
971.94820,0.17132
973.87667,0.16513
975.80514,0.15295
977.73361,0.14987
979.66208,0.15551
981.59055,0.16056
983.51902,0.16173
985.44748,0.16290
987.37595,0.16462
989.30442,0.16165
991.23289,0.15729
993.16136,0.16303
995.08983,0.17362
997.01830,0.17296
998.94677,0.16122
1000.87523,0.15432
1002.80370,0.16333
1004.73217,0.17733
1006.66064,0.18082
1008.58911,0.17926
1010.51758,0.18184
1012.44605,0.18130
1014.37451,0.17297
1016.30298,0.16636
1018.23145,0.16892
1020.15992,0.17388
1022.08839,0.17210
1024.01686,0.16944
1025.94533,0.16877
1027.87380,0.16341
1029.80226,0.16233
1031.73073,0.17117
1033.65920,0.17721
1035.58767,0.17968
1037.51614,0.18902
1039.44461,0.20176
1041.37308,0.20357
1043.30154,0.19206
1045.23001,0.17837
1047.15848,0.16930
1049.08695,0.16731
1051.01542,0.17324
1052.94389,0.17732
1054.87236,0.17089
1056.80083,0.16436
1058.72929,0.16616
1060.65776,0.17182
1062.58623,0.17668
1064.51470,0.17455
1066.44317,0.16724
1068.37164,0.16440
1070.30011,0.16577
1072.22857,0.16591
1074.15704,0.16732
1076.08551,0.17851
1078.01398,0.19335
1079.94245,0.19299
1081.87092,0.17643
1083.79939,0.16000
1085.72786,0.15739
1087.65632,0.16807
1089.58479,0.17864
1091.51326,0.17788
1093.44173,0.17081
1095.37020,0.16937
1097.29867,0.16984
1099.22714,0.16698
1101.15560,0.17082
1103.08407,0.18542
1105.01254,0.19768
1106.94101,0.19551
1108.86948,0.18546
1110.79795,0.18105
1112.72642,0.18433
1114.65489,0.18789
1116.58335,0.18513
1118.51182,0.17940
1120.44029,0.17606
1122.36876,0.17274
1124.29723,0.16773
1126.22570,0.16574
1128.15417,0.16957
1130.08263,0.17022
1132.01110,0.16406
1133.93957,0.16247
1135.86804,0.16829
1137.79651,0.17314
1139.72498,0.17241
1141.65345,0.16900
1143.58191,0.16712
1145.51038,0.16709
1147.43885,0.17011
1149.36732,0.17489
1151.29579,0.17588
1153.22426,0.17491
1155.15273,0.17980
1157.08120,0.18970
1159.00966,0.19361
1160.93813,0.18728
1162.86660,0.17886
1164.79507,0.17534
1166.72354,0.17735
1168.65201,0.18202
1170.58048,0.18527
1172.50894,0.18681
1174.43741,0.18554
1176.36588,0.17960
1178.29435,0.17291
1180.22282,0.16940
1182.15129,0.16902
1184.07976,0.16953
1186.00823,0.16827
1187.93669,0.16631
1189.86516,0.16781
1191.79363,0.17069
1193.72210,0.16913
1195.65057,0.16600
1197.57904,0.16933
1199.50751,0.17671
1201.43597,0.18032
1203.36444,0.18244
1205.29291,0.18352
1207.22138,0.18057
1209.14985,0.17814
1211.07832,0.17708
1213.00679,0.17762
1214.93526,0.18411
1216.86372,0.19198
1218.79219,0.19403
1220.72066,0.19079
1222.64913,0.18504
1224.57760,0.18022
1226.50607,0.17897
1228.43454,0.18077
1230.36300,0.18252
1232.29147,0.18094
1234.21994,0.17650
1236.14841,0.17363
1238.07688,0.17620
1240.00535,0.18039
1241.93382,0.18091
1243.86229,0.17837
1245.79075,0.17516
1247.71922,0.17537
1249.64769,0.17761
1251.57616,0.17572
1253.50463,0.17179
1255.43310,0.17249
1257.36157,0.17732
1259.29003,0.18211
1261.21850,0.18463
1263.14697,0.18397
1265.07544,0.18261
1267.00391,0.17979
1268.93238,0.17710
1270.86085,0.17988
1272.78932,0.18351
1274.71778,0.18430
1276.64625,0.18591
1278.57472,0.18952
1280.50319,0.19180
1282.43166,0.19238
1284.36013,0.19408
1286.28860,0.19527
1288.21706,0.19401
1290.14553,0.19148
1292.07400,0.18811
1294.00247,0.18565
1295.93094,0.18626
1297.85941,0.18668
1299.78788,0.18252
1301.71634,0.17438
1303.64481,0.16740
1305.57328,0.16706
1307.50175,0.17401
1309.43022,0.18230
1311.35869,0.18653
1313.28716,0.18902
1315.21563,0.19266
1317.14409,0.19566
1319.07256,0.19412
1321.00103,0.18875
1322.92950,0.18510
1324.85797,0.18317
1326.78644,0.17998
1328.71491,0.17649
1330.64337,0.17433
1332.57184,0.17393
1334.50031,0.17560
1336.42878,0.17854
1338.35725,0.17986
1340.28572,0.17053
1342.21419,0.16509
1344.14266,0.17351
1346.07112,0.17115
1347.99959,0.16886
1349.92806,0.18303
1351.85653,0.18900
1353.78500,0.18500
1355.71347,0.18356
1357.64194,0.18496
1359.57040,0.18860
1361.49887,0.19383
1363.42734,0.19486
1365.35581,0.18870
1367.28428,0.18427
1369.21275,0.18440
1371.14122,0.18763
1373.06969,0.19405
1374.99815,0.19748
1376.92662,0.19237
1378.85509,0.18741
1380.78356,0.18914
1382.71203,0.19382
1384.64050,0.19760
1386.56897,0.19774
1388.49743,0.19370
1390.42590,0.19160
1392.35437,0.19496
1394.28284,0.20017
1396.21131,0.20280
1398.13978,0.20517
1400.06825,0.20366
1401.99672,0.19564
1403.92518,0.19116
1405.85365,0.19558
1407.78212,0.19927
1409.71059,0.19845
1411.63906,0.19807
1413.56753,0.20027
1415.49600,0.20444
1417.42446,0.20747
1419.35293,0.20416
1421.28140,0.20079
1423.20987,0.20292
1425.13834,0.20365
1427.06681,0.20189
1428.99528,0.20325
1430.92375,0.20749
1432.85221,0.20974
1434.78068,0.21136
1436.70915,0.21027
1438.63762,0.20032
1440.56609,0.19322
1442.49456,0.19276
1444.42303,0.19394
1446.35149,0.19907
1448.27996,0.20965
1450.20843,0.21641
1452.13690,0.21703
1454.06537,0.21946
1455.99384,0.22998
1457.92231,0.23236
1459.85077,0.21551
1461.77924,0.20512
1463.70771,0.20391
1465.63618,0.20208
1467.56465,0.19730
1469.49312,0.20039
1471.42159,0.21722
1473.35006,0.23177
1475.27852,0.22468
1477.20699,0.21416
1479.13546,0.21077
1481.06393,0.21108
1482.99240,0.20985
1484.92087,0.20900
1486.84934,0.21499
1488.77780,0.22616
1490.70627,0.22640
1492.63474,0.21953
1494.56321,0.21970
1496.49168,0.22480
1498.42015,0.22000
1500.34862,0.21401
1502.27709,0.22177
1504.20555,0.23094
1506.13402,0.23135
1508.06249,0.23217
1509.99096,0.22819
1511.91943,0.22018
1513.84790,0.21784
1515.77637,0.22219
1517.70483,0.22608
1519.63330,0.23122
1521.56177,0.23904
1523.49024,0.23357
1525.41871,0.22468
1527.34718,0.21805
1529.27565,0.21093
1531.20412,0.21007
1533.13258,0.21663
1535.06105,0.22424
1536.98952,0.23287
1538.91799,0.24752
1540.84646,0.26104
1542.77493,0.25439
1544.70340,0.23436
1546.63186,0.21726
1548.56033,0.21116
1550.48880,0.20853
1552.41727,0.20641
1554.34574,0.21157
1556.27421,0.22736
1558.20268,0.24826
1560.13115,0.23475
1562.05961,0.21431
1563.98808,0.20705
1565.91655,0.20562
1567.84502,0.20968
1569.77349,0.21290
1571.70196,0.20954
1573.63043,0.20840
1575.55889,0.20876
1577.48736,0.20266
1579.41583,0.19555
1581.34430,0.19189
1583.27277,0.19195
1585.20124,0.19369
1587.12971,0.19342
1589.05818,0.19307
1590.98664,0.19467
1592.91511,0.19560
1594.84358,0.19524
1596.77205,0.19615
1598.70052,0.19897
1600.62899,0.20088
1602.55746,0.19970
1604.48592,0.19793
1606.41439,0.19881
1608.34286,0.20101
1610.27133,0.20124
1612.19980,0.20127
1614.12827,0.20668
1616.05674,0.21436
1617.98521,0.21323
1619.91367,0.21312
1621.84214,0.21999
1623.77061,0.22314
1625.69908,0.21927
1627.62755,0.21671
1629.55602,0.21525
1631.48449,0.21480
1633.41295,0.21939
1635.34142,0.23098
1637.26989,0.23307
1639.19836,0.22294
1641.12683,0.21578
1643.05530,0.21736
1644.98377,0.23222
1646.91223,0.25081
1648.84070,0.24670
1650.76917,0.24125
1652.69764,0.25097
1654.62611,0.24601
1656.55458,0.23059
1658.48305,0.23093
1660.41152,0.24318
1662.33998,0.24660
1664.26845,0.23005
1666.19692,0.21900
1668.12539,0.22478
1670.05386,0.23080
1671.98233,0.22557
1673.91080,0.22347
1675.83926,0.22551
1677.76773,0.22726
1679.69620,0.23172
1681.62467,0.23908
1683.55314,0.24297
1685.48161,0.23656
1687.41008,0.22885
1689.33855,0.22159
1691.26701,0.21472
1693.19548,0.21375
1695.12395,0.22102
1697.05242,0.23439
1698.98089,0.24680
1700.90936,0.24354
1702.83783,0.23071
1704.76629,0.22552
1706.69476,0.22429
1708.62323,0.22102
1710.55170,0.21772
1712.48017,0.21843
1714.40864,0.22569
1716.33711,0.23450
1718.26558,0.22837
1720.19404,0.21497
1722.12251,0.20806
1724.05098,0.20605
1725.97945,0.20755
1727.90792,0.21237
1729.83639,0.21863
1731.76486,0.22621
1733.69332,0.23313
1735.62179,0.23051
1737.55026,0.22453
1739.47873,0.21927
1741.40720,0.21661
1743.33567,0.21856
1745.26414,0.22114
1747.19261,0.22371
1749.12107,0.22548
1751.04954,0.21984
1752.97801,0.21225
1754.90648,0.21103
1756.83495,0.21258
1758.76342,0.21356
1760.69189,0.21701
1762.62035,0.21773
1764.54882,0.21210
1766.47729,0.20991
1768.40576,0.21523
1770.33423,0.22401
1772.26270,0.22622
1774.19117,0.21716
1776.11964,0.21028
1778.04810,0.21075
1779.97657,0.21349
1781.90504,0.21169
1783.83351,0.20716
1785.76198,0.20536
1787.69045,0.20698
1789.61892,0.21182
1791.54738,0.21795
1793.47585,0.21733
1795.40432,0.21101
1797.33279,0.20623
1799.26126,0.20407
1801.18973,0.20257
1803.11820,0.20271
1805.04666,0.20539
1806.97513,0.20787
1808.90360,0.20928
1810.83207,0.20874
1812.76054,0.20759
1814.68901,0.20118
1816.61748,0.18570
1818.54595,0.17840
1820.47441,0.18544
1822.40288,0.19708
1824.33135,0.21068
1826.25982,0.22076
1828.18829,0.22630
1830.11676,0.22537
1832.04523,0.21767
1833.97369,0.21235
1835.90216,0.20923
1837.83063,0.20590
1839.75910,0.20595
1841.68757,0.21183
1843.61604,0.21779
1845.54451,0.21579
1847.47298,0.20993
1849.40144,0.20649
1851.32991,0.20603
1853.25838,0.20599
1855.18685,0.20465
1857.11532,0.20365
1859.04379,0.20354
1860.97226,0.20376
1862.90072,0.20594
1864.82919,0.21015
1866.75766,0.21555
1868.68613,0.21821
1870.61460,0.21335
1872.54307,0.20665
1874.47154,0.20341
1876.40001,0.20322
1878.32847,0.20343
1880.25694,0.20362
1882.18541,0.20460
1884.11388,0.20546
1886.04235,0.20556
1887.97082,0.20720
1889.89929,0.20973
1891.82775,0.20920
1893.75622,0.20745
1895.68469,0.20612
1897.61316,0.20498
1899.54163,0.20408
1901.47010,0.20310
1903.39857,0.20391
1905.32704,0.20624
1907.25550,0.20788
1909.18397,0.20859
1911.11244,0.20705
1913.04091,0.20494
1914.96938,0.20660
1916.89785,0.21075
1918.82632,0.21217
1920.75478,0.21127
1922.68325,0.21034
1924.61172,0.20754
1926.54019,0.20494
1928.46866,0.20595
1930.39713,0.20890
1932.32560,0.21056
1934.25407,0.20932
1936.18253,0.20768
1938.11100,0.20924
1940.03947,0.21273
1941.96794,0.21362
1943.89641,0.21113
1945.82488,0.20878
1947.75335,0.20664
1949.68181,0.20467
1951.61028,0.20483
1953.53875,0.20725
1955.46722,0.20988
1957.39569,0.21120
1959.32416,0.21096
1961.25263,0.20840
1963.18110,0.20558
1965.10956,0.20661
1967.03803,0.20828
1968.96650,0.20611
1970.89497,0.20423
1972.82344,0.20701
1974.75191,0.21229
1976.68038,0.21559
1978.60884,0.21714
1980.53731,0.21464
1982.46578,0.20694
1984.39425,0.20373
1986.32272,0.20711
1988.25119,0.21023
1990.17966,0.21211
1992.10812,0.21306
1994.03659,0.21239
1995.96506,0.21156
1997.89353,0.21069
1999.82200,0.20893
2001.75047,0.20819
2003.67894,0.20872
2005.60741,0.20795
2007.53587,0.20651
2009.46434,0.20667
2011.39281,0.20869
2013.32128,0.21160
2015.24975,0.21308
2017.17822,0.21160
2019.10669,0.20931
2021.03515,0.20754
2022.96362,0.20569
2024.89209,0.20466
2026.82056,0.20589
2028.74903,0.20901
2030.67750,0.21231
2032.60597,0.21357
2034.53444,0.21118
2036.46290,0.20823
2038.39137,0.20846
2040.31984,0.20950
2042.24831,0.20844
2044.17678,0.20754
2046.10525,0.20920
2048.03372,0.21077
2049.96218,0.20939
2051.89065,0.20755
2053.81912,0.20851
2055.74759,0.20990
2057.67606,0.20924
2059.60453,0.20949
2061.53300,0.21125
2063.46147,0.21237
2065.38993,0.21220
2067.31840,0.21025
2069.24687,0.20799
2071.17534,0.20782
2073.10381,0.20999
2075.03228,0.21176
2076.96075,0.21107
2078.88921,0.20982
2080.81768,0.20950
2082.74615,0.20943
2084.67462,0.20796
2086.60309,0.20627
2088.53156,0.20740
2090.46003,0.20904
2092.38850,0.20858
2094.31696,0.20815
2096.24543,0.20982
2098.17390,0.21318
2100.10237,0.21387
2102.03084,0.21021
2103.95931,0.20786
2105.88778,0.20884
2107.81624,0.20998
2109.74471,0.21044
2111.67318,0.21038
2113.60165,0.21101
2115.53012,0.21301
2117.45859,0.21241
2119.38706,0.20909
2121.31553,0.20850
2123.24399,0.21016
2125.17246,0.21109
2127.10093,0.21138
2129.02940,0.21062
2130.95787,0.20944
2132.88634,0.20976
2134.81481,0.21128
2136.74327,0.21127
2138.67174,0.20866
2140.60021,0.20528
2142.52868,0.20331
2144.45715,0.20431
2146.38562,0.20664
2148.31409,0.20754
2150.24255,0.20790
2152.17102,0.20862
2154.09949,0.20803
2156.02796,0.20619
2157.95643,0.20531
2159.88490,0.20639
2161.81337,0.20785
2163.74184,0.20756
2165.67030,0.20671
2167.59877,0.20732
2169.52724,0.20886
2171.45571,0.21070
2173.38418,0.21250
2175.31265,0.21408
2177.24112,0.21449
2179.16958,0.21161
2181.09805,0.20648
2183.02652,0.20302
2184.95499,0.20307
2186.88346,0.20579
2188.81193,0.20864
2190.74040,0.20915
2192.66887,0.20908
2194.59733,0.21193
2196.52580,0.21449
2198.45427,0.21176
2200.38274,0.20801
2202.31121,0.20898
2204.23968,0.21127
2206.16815,0.20980
2208.09661,0.20660
2210.02508,0.20600
2211.95355,0.20719
2213.88202,0.20792
2215.81049,0.20818
2217.73896,0.20770
2219.66743,0.20774
2221.59590,0.20936
2223.52436,0.21062
2225.45283,0.21107
2227.38130,0.21123
2229.30977,0.21083
2231.23824,0.20958
2233.16671,0.20667
2235.09518,0.20475
2237.02364,0.20600
2238.95211,0.20717
2240.88058,0.20779
2242.80905,0.21003
2244.73752,0.21263
2246.66599,0.21304
2248.59446,0.21117
2250.52293,0.20869
2252.45139,0.20680
2254.37986,0.20614
2256.30833,0.20652
2258.23680,0.20900
2260.16527,0.21218
2262.09374,0.21119
2264.02221,0.20811
2265.95067,0.20707
2267.87914,0.20584
2269.80761,0.20314
2271.73608,0.20162
2273.66455,0.20338
2275.59302,0.20619
2277.52149,0.20703
2279.44996,0.20863
2281.37842,0.21303
2283.30689,0.21590
2285.23536,0.21498
2287.16383,0.21302
2289.09230,0.21132
2291.02077,0.20864
2292.94924,0.20613
2294.87770,0.20743
2296.80617,0.21062
2298.73464,0.21000
2300.66311,0.20704
2302.59158,0.20624
2304.52005,0.20672
2306.44852,0.20619
2308.37699,0.20629
2310.30545,0.20986
2312.23392,0.21488
2314.16239,0.21564
2316.09086,0.21309
2318.01933,0.21499
2319.94780,0.22034
2321.87627,0.22096
2323.80473,0.21524
2325.73320,0.20903
2327.66167,0.21327
2329.59014,0.22955
2331.51861,0.23873
2333.44708,0.22854
2335.37555,0.21487
2337.30401,0.21018
2339.23248,0.21217
2341.16095,0.21981
2343.08942,0.22732
2345.01789,0.22594
2346.94636,0.22004
2348.87483,0.21600
2350.80330,0.21061
2352.73176,0.20307
2354.66023,0.20646
2356.58870,0.22820
2358.51717,0.25108
2360.44564,0.25349
2362.37411,0.24102
2364.30258,0.23503
2366.23104,0.23375
2368.15951,0.23156
2370.08798,0.23474
2372.01645,0.23554
2373.94492,0.22413
2375.87339,0.21262
2377.80186,0.21152
2379.73033,0.21402
2381.65879,0.21234
2383.58726,0.20787
2385.51573,0.20576
2387.44420,0.20725
2389.37267,0.20976
2391.30114,0.21130
2393.22961,0.21232
2395.15807,0.21371
2397.08654,0.21407
2399.01501,0.21246
2400.94348,0.21090
2402.87195,0.21127
2404.80042,0.21182
2406.72889,0.21032
2408.65736,0.20997
2410.58582,0.21213
2412.51429,0.21210
2414.44276,0.20989
2416.37123,0.20795
2418.29970,0.20552
2420.22817,0.20436
2422.15664,0.20570
2424.08510,0.20783
2426.01357,0.21075
2427.94204,0.21343
2429.87051,0.21396
2431.79898,0.21351
2433.72745,0.21221
2435.65592,0.20917
2437.58439,0.20732
2439.51285,0.20732
2441.44132,0.20738
2443.36979,0.20947
2445.29826,0.21306
2447.22673,0.21525
2449.15520,0.21169
2451.08367,0.20095
2453.01213,0.19583
2454.94060,0.20257
2456.86907,0.20795
2458.79754,0.20681
2460.72601,0.20764
2462.65448,0.21168
2464.58295,0.21277
2466.51142,0.21121
2468.43988,0.21063
2470.36835,0.21042
2472.29682,0.21054
2474.22529,0.21228
2476.15376,0.21475
2478.08223,0.21575
2480.01070,0.21362
2481.93916,0.21088
2483.86763,0.21047
2485.79610,0.20973
2487.72457,0.20830
2489.65304,0.20934
2491.58151,0.21146
2493.50998,0.21211
2495.43844,0.21171
2497.36691,0.21157
2499.29538,0.21290
2501.22385,0.21494
2503.15232,0.21475
2505.08079,0.21223
2507.00926,0.21047
2508.93773,0.20994
2510.86619,0.20923
2512.79466,0.20876
2514.72313,0.20747
2516.65160,0.20418
2518.58007,0.20355
2520.50854,0.20728
2522.43701,0.20995
2524.36547,0.20987
2526.29394,0.20966
2528.22241,0.21117
2530.15088,0.21363
2532.07935,0.21397
2534.00782,0.21192
2535.93629,0.20993
2537.86476,0.20969
2539.79322,0.21103
2541.72169,0.21124
2543.65016,0.21017
2545.57863,0.21064
2547.50710,0.21207
2549.43557,0.21402
2551.36404,0.21597
2553.29250,0.21586
2555.22097,0.21469
2557.14944,0.21284
2559.07791,0.21142
2561.00638,0.21267
2562.93485,0.21421
2564.86332,0.21399
2566.79179,0.21339
2568.72025,0.21208
2570.64872,0.21013
2572.57719,0.21119
2574.50566,0.21435
2576.43413,0.21385
2578.36260,0.21004
2580.29107,0.21018
2582.21953,0.21537
2584.14800,0.21754
2586.07647,0.21470
2588.00494,0.21215
2589.93341,0.21224
2591.86188,0.21364
2593.79035,0.21417
2595.71882,0.21346
2597.64728,0.21224
2599.57575,0.21105
2601.50422,0.21029
2603.43269,0.21086
2605.36116,0.21145
2607.28963,0.20948
2609.21810,0.20858
2611.14656,0.21189
2613.07503,0.21515
2615.00350,0.21513
2616.93197,0.21356
2618.86044,0.21348
2620.78891,0.21566
2622.71738,0.21702
2624.64585,0.21480
2626.57431,0.21262
2628.50278,0.21426
2630.43125,0.21586
2632.35972,0.21466
2634.28819,0.21357
2636.21666,0.21366
2638.14513,0.21545
2640.07359,0.21892
2642.00206,0.22012
2643.93053,0.21912
2645.85900,0.21924
2647.78747,0.22022
2649.71594,0.22116
2651.64441,0.22212
2653.57288,0.22185
2655.50134,0.21808
2657.42981,0.21348
2659.35828,0.21326
2661.28675,0.21631
2663.21522,0.21765
2665.14369,0.21685
2667.07216,0.21806
2669.00062,0.22142
2670.92909,0.22256
2672.85756,0.22168
2674.78603,0.22246
2676.71450,0.22403
2678.64297,0.22372
2680.57144,0.22238
2682.49990,0.22115
2684.42837,0.22034
2686.35684,0.22000
2688.28531,0.21908
2690.21378,0.21795
2692.14225,0.21773
2694.07072,0.21845
2695.99919,0.21969
2697.92765,0.22000
2699.85612,0.22020
2701.78459,0.22263
2703.71306,0.22509
2705.64153,0.22488
2707.57000,0.22283
2709.49847,0.22123
2711.42693,0.22160
2713.35540,0.22299
2715.28387,0.22441
2717.21234,0.22730
2719.14081,0.23114
2721.06928,0.23106
2722.99775,0.22743
2724.92622,0.22525
2726.85468,0.22365
2728.78315,0.22178
2730.71162,0.22105
2732.64009,0.22108
2734.56856,0.22229
2736.49703,0.22348
2738.42550,0.22259
2740.35396,0.22109
2742.28243,0.22066
2744.21090,0.21985
2746.13937,0.21835
2748.06784,0.21824
2749.99631,0.21971
2751.92478,0.22113
2753.85325,0.22120
2755.78171,0.22089
2757.71018,0.22278
2759.63865,0.22445
2761.56712,0.22249
2763.49559,0.22271
2765.42406,0.22715
2767.35253,0.22754
2769.28099,0.22285
2771.20946,0.21967
2773.13793,0.22051
2775.06640,0.22474
2776.99487,0.23011
2778.92334,0.23260
2780.85181,0.23249
2782.78028,0.23344
2784.70874,0.23507
2786.63721,0.23486
2788.56568,0.23283
2790.49415,0.23122
2792.42262,0.23054
2794.35109,0.22902
2796.27956,0.22724
2798.20802,0.22697
2800.13649,0.22710
2802.06496,0.22643
2803.99343,0.22463
2805.92190,0.22186
2807.85037,0.22231
2809.77884,0.22784
2811.70731,0.23233
2813.63577,0.23049
2815.56424,0.22484
2817.49271,0.22143
2819.42118,0.22252
2821.34965,0.22471
2823.27812,0.22563
2825.20659,0.22714
2827.13505,0.22958
2829.06352,0.23060
2830.99199,0.22901
2832.92046,0.22733
2834.84893,0.22823
2836.77740,0.22950
2838.70587,0.22921
2840.63433,0.22977
2842.56280,0.23169
2844.49127,0.23231
2846.41974,0.23063
2848.34821,0.22857
2850.27668,0.22880
2852.20515,0.23121
2854.13362,0.23378
2856.06208,0.23389
2857.99055,0.23134
2859.91902,0.23044
2861.84749,0.23218
2863.77596,0.23168
2865.70443,0.22715
2867.63290,0.22407
2869.56136,0.22559
2871.48983,0.22791
2873.41830,0.22888
2875.34677,0.23078
2877.27524,0.23363
2879.20371,0.23415
2881.13218,0.23338
2883.06065,0.23259
2884.98911,0.22964
2886.91758,0.22566
2888.84605,0.22379
2890.77452,0.22477
2892.70299,0.22638
2894.63146,0.22721
2896.55993,0.22822
2898.48839,0.23021
2900.41686,0.23333
2902.34533,0.23603
2904.27380,0.23390
2906.20227,0.22743
2908.13074,0.22317
2910.05921,0.22209
2911.98768,0.22287
2913.91614,0.22418
2915.84461,0.22326
2917.77308,0.22084
2919.70155,0.21897
2921.63002,0.21837
2923.55849,0.21524
2925.48696,0.20785
2927.41542,0.20706
2929.34389,0.21692
2931.27236,0.22364
2933.20083,0.22389
2935.12930,0.22571
2937.05777,0.22616
2938.98624,0.22468
2940.91471,0.22599
2942.84317,0.22887
2944.77164,0.22924
2946.70011,0.22343
2948.62858,0.21820
2950.55705,0.22278
2952.48552,0.23092
2954.41399,0.23190
2956.34245,0.22531
2958.27092,0.22059
2960.19939,0.22213
2962.12786,0.22500
2964.05633,0.22970
2965.98480,0.23533
2967.91327,0.23415
2969.84174,0.22891
2971.77020,0.22837
2973.69867,0.23150
2975.62714,0.23040
2977.55561,0.22591
2979.48408,0.22772
2981.41255,0.23468
2983.34102,0.23730
2985.26948,0.23421
2987.19795,0.23107
2989.12642,0.23221
2991.05489,0.23670
2992.98336,0.23966
2994.91183,0.23757
2996.84030,0.23239
2998.76877,0.23048
3000.69723,0.23451
3002.62570,0.23875
3004.55417,0.23814
3006.48264,0.23459
3008.41111,0.23103
3010.33958,0.22544
3012.26805,0.21438
3014.19651,0.19786
3016.12498,0.18274
3018.05345,0.18686
3019.98192,0.21236
3021.91039,0.23193
3023.83886,0.23365
3025.76733,0.23002
3027.69579,0.22739
3029.62426,0.22617
3031.55273,0.22712
3033.48120,0.22954
3035.40967,0.23188
3037.33814,0.23308
3039.26661,0.23586
3041.19508,0.23886
3043.12354,0.23710
3045.05201,0.23334
3046.98048,0.23127
3048.90895,0.23062
3050.83742,0.23157
3052.76589,0.23365
3054.69436,0.23301
3056.62282,0.22975
3058.55129,0.23154
3060.47976,0.23764
3062.40823,0.24046
3064.33670,0.23711
3066.26517,0.22974
3068.19364,0.22854
3070.12211,0.23649
3072.05057,0.24145
3073.97904,0.23577
3075.90751,0.22494
3077.83598,0.22106
3079.76445,0.22539
3081.69292,0.22158
3083.62139,0.20534
3085.54985,0.19720
3087.47832,0.20921
3089.40679,0.22856
3091.33526,0.23824
3093.26373,0.23653
3095.19220,0.23325
3097.12067,0.23350
3099.04914,0.23578
3100.97760,0.23644
3102.90607,0.23367
3104.83454,0.23049
3106.76301,0.22877
3108.69148,0.23190
3110.61995,0.23763
3112.54842,0.23603
3114.47688,0.22996
3116.40535,0.22926
3118.33382,0.23328
3120.26229,0.23505
3122.19076,0.23387
3124.11923,0.23693
3126.04770,0.24526
3127.97617,0.24847
3129.90463,0.24245
3131.83310,0.23554
3133.76157,0.23323
3135.69004,0.23498
3137.61851,0.23583
3139.54698,0.23237
3141.47545,0.23134
3143.40391,0.23578
3145.33238,0.23810
3147.26085,0.23717
3149.18932,0.23828
3151.11779,0.23985
3153.04626,0.24122
3154.97473,0.24497
3156.90320,0.24765
3158.83166,0.24604
3160.76013,0.24203
3162.68860,0.23882
3164.61707,0.23658
3166.54554,0.23525
3168.47401,0.23752
3170.40248,0.24220
3172.33094,0.24518
3174.25941,0.24686
3176.18788,0.24843
3178.11635,0.24738
3180.04482,0.24397
3181.97329,0.24166
3183.90176,0.23979
3185.83022,0.23659
3187.75869,0.23440
3189.68716,0.23403
3191.61563,0.23399
3193.54410,0.23564
3195.47257,0.23971
3197.40104,0.24394
3199.32951,0.24433
3201.25797,0.24092
3203.18644,0.24059
3205.11491,0.24578
3207.04338,0.24888
3208.97185,0.24540
3210.90032,0.24184
3212.82879,0.24250
3214.75725,0.24216
3216.68572,0.23799
3218.61419,0.23640
3220.54266,0.24112
3222.47113,0.24482
3224.39960,0.24182
3226.32807,0.23647
3228.25654,0.23338
3230.18500,0.23184
3232.11347,0.23151
3234.04194,0.23431
3235.97041,0.23892
3237.89888,0.24140
3239.82735,0.24378
3241.75582,0.24884
3243.68428,0.25218
3245.61275,0.25056
3247.54122,0.24412
3249.46969,0.23562
3251.39816,0.23361
3253.32663,0.23857
3255.25510,0.23898
3257.18357,0.23324
3259.11203,0.22832
3261.04050,0.22767
3262.96897,0.23385
3264.89744,0.24219
3266.82591,0.24357
3268.75438,0.23751
3270.68285,0.23150
3272.61131,0.23204
3274.53978,0.23835
3276.46825,0.24430
3278.39672,0.24468
3280.32519,0.24007
3282.25366,0.23587
3284.18213,0.23624
3286.11060,0.23717
3288.03906,0.23377
3289.96753,0.23002
3291.89600,0.23177
3293.82447,0.23807
3295.75294,0.24063
3297.68141,0.23531
3299.60988,0.22832
3301.53834,0.22712
3303.46681,0.23190
3305.39528,0.23729
3307.32375,0.24097
3309.25222,0.24251
3311.18069,0.23995
3313.10916,0.23606
3315.03763,0.23509
3316.96609,0.23413
3318.89456,0.23227
3320.82303,0.23529
3322.75150,0.24089
3324.67997,0.24180
3326.60844,0.23996
3328.53691,0.23872
3330.46537,0.23529
3332.39384,0.23034
3334.32231,0.22919
3336.25078,0.23317
3338.17925,0.24106
3340.10772,0.25031
3342.03619,0.25261
3343.96466,0.24420
3345.89312,0.23509
3347.82159,0.23442
3349.75006,0.24053
3351.67853,0.24708
3353.60700,0.24934
3355.53547,0.24533
3357.46394,0.23699
3359.39240,0.23162
3361.32087,0.23316
3363.24934,0.24010
3365.17781,0.24609
3367.10628,0.24493
3369.03475,0.24379
3370.96322,0.24532
3372.89168,0.24179
3374.82015,0.23789
3376.74862,0.24001
3378.67709,0.24466
3380.60556,0.24812
3382.53403,0.24923
3384.46250,0.24692
3386.39097,0.23873
3388.31943,0.22941
3390.24790,0.22938
3392.17637,0.23732
3394.10484,0.24420
3396.03331,0.24869
3397.96178,0.25157
3399.89025,0.25067
3401.81871,0.24759
3403.74718,0.24563
3405.67565,0.24517
3407.60412,0.24596
3409.53259,0.24809
3411.46106,0.24668
3413.38953,0.23851
3415.31800,0.23154
3417.24646,0.23077
3419.17493,0.23367
3421.10340,0.23870
3423.03187,0.23912
3424.96034,0.23242
3426.88881,0.23143
3428.81728,0.23997
3430.74574,0.24653
3432.67421,0.24695
3434.60268,0.24243
3436.53115,0.23865
3438.45962,0.24016
3440.38809,0.23958
3442.31656,0.23768
3444.24503,0.24002
3446.17349,0.24169
3448.10196,0.23969
3450.03043,0.23556
3451.95890,0.22870
3453.88737,0.22160
3455.81584,0.22017
3457.74431,0.22277
3459.67277,0.22347
3461.60124,0.22206
3463.52971,0.22223
3465.45818,0.22370
3467.38665,0.22537
3469.31512,0.22795
3471.24359,0.22730
3473.17206,0.22318
3475.10052,0.22101
3477.02899,0.22252
3478.95746,0.22660
3480.88593,0.22901
3482.81440,0.22678
3484.74287,0.22219
3486.67134,0.21711
3488.59980,0.21013
3490.52827,0.20280
3492.45674,0.20096
3494.38521,0.20457
3496.31368,0.20887
3498.24215,0.21026
3500.17062,0.20933
3502.09909,0.21183
3504.02755,0.21593
3505.95602,0.21239
3507.88449,0.20486
3509.81296,0.20343
3511.74143,0.20599
3513.66990,0.20441
3515.59837,0.20061
3517.52683,0.19877
3519.45530,0.19828
3521.38377,0.20111
3523.31224,0.20808
3525.24071,0.21198
3527.16918,0.20910
3529.09765,0.20219
3531.02611,0.19643
3532.95458,0.19408
3534.88305,0.19209
3536.81152,0.19177
3538.73999,0.19405
3540.66846,0.19407
3542.59693,0.19260
3544.52540,0.19299
3546.45386,0.19183
3548.38233,0.18625
3550.31080,0.18169
3552.23927,0.18289
3554.16774,0.18697
3556.09621,0.18770
3558.02468,0.18530
3559.95314,0.18399
3561.88161,0.18695
3563.81008,0.19394
3565.73855,0.20167
3567.66702,0.20230
3569.59549,0.19182
3571.52396,0.18290
3573.45243,0.18021
3575.38089,0.17612
3577.30936,0.17015
3579.23783,0.16925
3581.16630,0.17154
3583.09477,0.17338
3585.02324,0.17663
3586.95171,0.17729
3588.88017,0.17387
3590.80864,0.17556
3592.73711,0.17933
3594.66558,0.17984
3596.59405,0.17672
3598.52252,0.17212
3600.45099,0.16877
3602.37946,0.16750
3604.30792,0.16718
3606.23639,0.16615
3608.16486,0.16719
3610.09333,0.17466
3612.02180,0.18190
3613.95027,0.17950
3615.87874,0.16866
3617.80720,0.16181
3619.73567,0.16333
3621.66414,0.16025
3623.59261,0.15505
3625.52108,0.15811
3627.44955,0.16755
3629.37802,0.17050
3631.30649,0.16400
3633.23495,0.16049
3635.16342,0.16035
3637.09189,0.16021
3639.02036,0.15946
3640.94883,0.15795
3642.87730,0.15432
3644.80577,0.15133
3646.73423,0.15838
3648.66270,0.18096
3650.59117,0.18871
3652.51964,0.17336
3654.44811,0.15948
3656.37658,0.15055
3658.30505,0.14488
3660.23352,0.14101
3662.16198,0.13982
3664.09045,0.14281
3666.01892,0.14963
3667.94739,0.16216
3669.87586,0.17140
3671.80433,0.16663
3673.73280,0.16729
3675.66126,0.17479
3677.58973,0.16929
3679.51820,0.15612
3681.44667,0.14541
3683.37514,0.14256
3685.30361,0.14792
3687.23208,0.15889
3689.16055,0.17134
3691.08901,0.16856
3693.01748,0.15642
3694.94595,0.15224
3696.87442,0.15223
3698.80289,0.15070
3700.73136,0.15137
3702.65983,0.15431
3704.58829,0.15614
3706.51676,0.15929
3708.44523,0.16618
3710.37370,0.17458
3712.30217,0.17145
3714.23064,0.15873
3716.15911,0.15406
3718.08757,0.16013
3720.01604,0.16994
3721.94451,0.17222
3723.87298,0.16524
3725.80145,0.15808
3727.72992,0.15337
3729.65839,0.15255
3731.58686,0.15716
3733.51532,0.16708
3735.44379,0.17751
3737.37226,0.17643
3739.30073,0.16782
3741.22920,0.16079
3743.15767,0.16155
3745.08614,0.16836
3747.01460,0.16804
3748.94307,0.16909
3750.87154,0.17167
3752.80001,0.16144
3754.72848,0.15280
3756.65695,0.15297
3758.58542,0.15418
3760.51389,0.14911
3762.44235,0.14328
3764.37082,0.14246
3766.29929,0.14594
3768.22776,0.15013
3770.15623,0.14995
3772.08470,0.14486
3774.01317,0.14147
3775.94163,0.14338
3777.87010,0.14894
3779.79857,0.15102
3781.72704,0.14869
3783.65551,0.14825
3785.58398,0.14710
3787.51245,0.14318
3789.44092,0.14090
3791.36938,0.13888
3793.29785,0.13725
3795.22632,0.14093
3797.15479,0.14540
3799.08326,0.14659
3801.01173,0.14754
3802.94020,0.14505
3804.86866,0.14629
3806.79713,0.15334
3808.72560,0.15239
3810.65407,0.14517
3812.58254,0.14315
3814.51101,0.14958
3816.43948,0.15983
3818.36795,0.16482
3820.29641,0.16519
3822.22488,0.15762
3824.15335,0.14908
3826.08182,0.14771
3828.01029,0.14719
3829.93876,0.14299
3831.86723,0.13854
3833.79569,0.13776
3835.72416,0.14374
3837.65263,0.15509
3839.58110,0.15916
3841.50957,0.15096
3843.43804,0.14315
3845.36651,0.13875
3847.29498,0.13306
3849.22344,0.12958
3851.15191,0.13524
3853.08038,0.15340
3855.00885,0.15794
3856.93732,0.14326
3858.86579,0.13117
3860.79426,0.13029
3862.72272,0.14053
3864.65119,0.14680
3866.57966,0.14276
3868.50813,0.14358
3870.43660,0.15398
3872.36507,0.15783
3874.29354,0.14893
3876.22200,0.13965
3878.15047,0.14000
3880.07894,0.14651
3882.00741,0.14585
3883.93588,0.13732
3885.86435,0.13002
3887.79282,0.12878
3889.72129,0.13222
3891.64975,0.13328
3893.57822,0.12925
3895.50669,0.13016
3897.43516,0.13765
3899.36363,0.14653
3901.29210,0.15372
3903.22057,0.15511
3905.14903,0.14598
3907.07750,0.13563
3909.00597,0.13140
3910.93444,0.12846
3912.86291,0.12513
3914.79138,0.12444
3916.71985,0.12384
3918.64832,0.12176
3920.57678,0.12239
3922.50525,0.12811
3924.43372,0.13232
3926.36219,0.12775
3928.29066,0.12275
3930.21913,0.12435
3932.14760,0.12903
3934.07606,0.13056
3936.00453,0.12914
3937.93300,0.12820
3939.86147,0.12781
3941.78994,0.12789
3943.71841,0.12776
3945.64688,0.12677
3947.57535,0.12406
3949.50381,0.11947
3951.43228,0.11836
3953.36075,0.12319
3955.28922,0.12998
3957.21769,0.13148
3959.14616,0.12490
3961.07463,0.11781
3963.00309,0.11705
3964.93156,0.11989
3966.86003,0.12154
3968.78850,0.12373
3970.71697,0.12645
3972.64544,0.12525
3974.57391,0.12304
3976.50238,0.12122
3978.43084,0.11360
3980.35931,0.10470
3982.28778,0.10492
3984.21625,0.11255
3986.14472,0.11979
3988.07319,0.12311
3990.00166,0.12210
3991.93012,0.11766
3993.85859,0.11456
3995.78706,0.11792
3997.71553,0.12360
3999.64400,0.12488
4001.57247,0.12290
4003.50094,0.11977
4005.42941,0.11661
4007.35787,0.11541
4009.28634,0.11394
4011.21481,0.11153
4013.14328,0.10951
4015.07175,0.10826
4017.00022,0.11126
4018.92869,0.11640
4020.85715,0.11747
4022.78562,0.11505
4024.71409,0.11158
4026.64256,0.10844
4028.57103,0.10581
4030.49950,0.10328
4032.42797,0.10397
4034.35644,0.10778
4036.28490,0.11091
4038.21337,0.11278
4040.14184,0.11085
4042.07031,0.10692
4043.99878,0.10813
4045.92725,0.10985
4047.85572,0.10557
4049.78418,0.10163
4051.71265,0.10306
4053.64112,0.10403
4055.56959,0.10086
4057.49806,0.09844
4059.42653,0.10132
4061.35500,0.11013
4063.28346,0.11899
4065.21193,0.11921
4067.14040,0.11269
4069.06887,0.10941
4070.99734,0.11017
4072.92581,0.10939
4074.85428,0.10535
4076.78275,0.09988
4078.71121,0.09729
4080.63968,0.09818
4082.56815,0.10163
4084.49662,0.10488
4086.42509,0.10301
4088.35356,0.10089
4090.28203,0.10260
4092.21049,0.10231
4094.13896,0.10013
4096.06743,0.10261
4097.99590,0.10788
4099.92437,0.10983
4101.85284,0.10797
4103.78131,0.10585
4105.70978,0.10612
4107.63824,0.10687
4109.56671,0.10811
4111.49518,0.10771
4113.42365,0.10209
4115.35212,0.09618
4117.28059,0.09424
4119.20906,0.09662
4121.13752,0.09855
4123.06599,0.09568
4124.99446,0.09452
4126.92293,0.09896
4128.85140,0.10290
4130.77987,0.10049
4132.70834,0.09404
4134.63681,0.09068
4136.56527,0.09125
4138.49374,0.09171
4140.42221,0.09220
4142.35068,0.09466
4144.27915,0.09843
4146.20762,0.10208
4148.13609,0.10250
4150.06455,0.09617
4151.99302,0.08694
4153.92149,0.08266
4155.84996,0.08263
4157.77843,0.08138
4159.70690,0.08035
4161.63537,0.08386
4163.56384,0.08871
4165.49230,0.08951
4167.42077,0.08749
4169.34924,0.08808
4171.27771,0.09169
4173.20618,0.09247
4175.13465,0.09108
4177.06312,0.09153
4178.99158,0.09162
4180.92005,0.08863
4182.84852,0.08303
4184.77699,0.07943
4186.70546,0.08032
4188.63393,0.08335
4190.56240,0.08697
4192.49087,0.08593
4194.41933,0.07877
4196.34780,0.07913
4198.27627,0.09288
4200.20474,0.10117
4202.13321,0.09288
4204.06168,0.08061
4205.99015,0.07491
4207.91861,0.07885
4209.84708,0.08913
4211.77555,0.09421
4213.70402,0.08804
4215.63249,0.07939
4217.56096,0.07960
4219.48943,0.08390
4221.41789,0.08687
4223.34636,0.09144
4225.27483,0.09376
4227.20330,0.09261
4229.13177,0.09222
4231.06024,0.09040
4232.98871,0.08518
4234.91718,0.08070
4236.84564,0.07947
4238.77411,0.08181
4240.70258,0.08631
4242.63105,0.08670
4244.55952,0.08035
4246.48799,0.07126
4248.41646,0.06542
4250.34492,0.06638
4252.27339,0.06808
4254.20186,0.06560
4256.13033,0.06656
4258.05880,0.07436
4259.98727,0.08194
4261.91574,0.08426
4263.84421,0.08069
4265.77267,0.07327
4267.70114,0.06735
4269.62961,0.06746
4271.55808,0.06897
4273.48655,0.06741
4275.41502,0.06705
4277.34349,0.06927
4279.27195,0.07018
4281.20042,0.06802
4283.12889,0.06656
4285.05736,0.06947
4286.98583,0.07186
4288.91430,0.06783
4290.84277,0.06358
4292.77124,0.06411
4294.69970,0.06463
4296.62817,0.06528
4298.55664,0.06657
4300.48511,0.06668
4302.41358,0.06844
4304.34205,0.06944
4306.27052,0.06447
4308.19898,0.06007
4310.12745,0.06234
4312.05592,0.06638
4313.98439,0.07065
4315.91286,0.07536
4317.84133,0.07347
4319.76980,0.06073
4321.69827,0.04826
4323.62673,0.04735
4325.55520,0.05117
4327.48367,0.05175
4329.41214,0.05247
4331.34061,0.05688
4333.26908,0.06231
4335.19755,0.06387
4337.12601,0.06242
4339.05448,0.06253
4340.98295,0.06348
4342.91142,0.06650
4344.83989,0.07611
4346.76836,0.08279
4348.69683,0.07473
4350.62530,0.06411
4352.55376,0.06762
4354.48223,0.07370
4356.41070,0.06470
4358.33917,0.05183
4360.26764,0.05101
4362.19611,0.05707
4364.12458,0.05948
4366.05304,0.05698
4367.98151,0.05564
4369.90998,0.05804
4371.83845,0.05805
4373.76692,0.05245
4375.69539,0.04459
4377.62386,0.03707
4379.55232,0.03520
4381.48079,0.04146
4383.40926,0.04900
4385.33773,0.05591
4387.26620,0.06213
4389.19467,0.05927
4391.12314,0.04657
4393.05161,0.03715
4394.98007,0.03628
4396.90854,0.03723
4398.83701,0.03815
4400.76548,0.04004
4402.69395,0.04414
4404.62242,0.05384
4406.55089,0.06205
4408.47935,0.05399
4410.40782,0.03478
4412.33629,0.02964
4414.26476,0.04023
4416.19323,0.04499
4418.12170,0.04087
4420.05017,0.03974
4421.97864,0.04316
4423.90710,0.04556
4425.83557,0.04298
4427.76404,0.03593
4429.69251,0.03412
4431.62098,0.03819
4433.54945,0.03765
4435.47792,0.03568
4437.40638,0.03657
4439.33485,0.03843
4441.26332,0.04014
4443.19179,0.03540
4445.12026,0.02690
4447.04873,0.02543
4448.97720,0.03170
4450.90567,0.04039
4452.83413,0.04476
4454.76260,0.03958
4456.69107,0.02653
4458.61954,0.01689
4460.54801,0.02001
4462.47648,0.02828
4464.40495,0.02689
4466.33341,0.01940
4468.26188,0.02786
4470.19035,0.04493
4472.11882,0.04243
4474.04729,0.02821
4475.97576,0.02059
4477.90423,0.01932
4479.83270,0.02152
4481.76116,0.02443
4483.68963,0.02644
4485.61810,0.02754
4487.54657,0.02716
4489.47504,0.02759
4491.40351,0.03117
4493.33198,0.03368
4495.26044,0.02879
4497.18891,0.02336
4499.11738,0.02372
4501.04585,0.02010
4502.97432,0.01617
4504.90279,0.01743
4506.83126,0.01473
4508.75973,0.01106
4510.68819,0.00824
4512.61666,0.00419
4514.54513,0.00780
4516.47360,0.01942
4518.40207,0.02728
4520.33054,0.02619
4522.25901,0.02370
4524.18747,0.02657
4526.11594,0.02964
4528.04441,0.02390
4529.97288,0.01166
4531.90135,0.00562
4533.82982,0.00656
4535.75829,0.00519
4537.68676,0.00687
4539.61522,0.01585
4541.54369,0.01953
4543.47216,0.01520
4545.40063,0.01058
4547.32910,0.00776
4549.25757,0.00626
4551.18604,0.00807
4553.11450,0.01716
4555.04297,0.02861
4556.97144,0.03221
4558.89991,0.03061
4560.82838,0.03066
4562.75685,0.03012
4564.68532,0.02360
4566.61378,0.01232
4568.54225,0.00605
4570.47072,0.00625
4572.39919,0.00781
4574.32766,0.01038
4576.25613,0.01058
4578.18460,0.00806
4580.11307,0.00883
4582.04153,0.01334
4583.97000,0.01411
4585.89847,0.01235
4587.82694,0.01508
4589.75541,0.01409
4591.68388,0.00970
4593.61235,0.01381
4595.54081,0.02058
4597.46928,0.02186
4599.39775,0.02019
4601.32622,0.01838
4603.25469,0.01384
4605.18316,0.00864
4607.11163,0.01272
4609.04010,0.02045
4610.96856,0.01853
4612.89703,0.00962
4614.82550,0.00495
4616.75397,0.00980
4618.68244,0.01532
4620.61091,0.01074
4622.53938,0.00247
4624.46784,-0.00082
4626.39631,0.00081
4628.32478,0.00994
4630.25325,0.02380
4632.18172,0.02761
4634.11019,0.01547
4636.03866,0.00269
4637.96713,-0.00073
4639.89559,-0.00388
4641.82406,-0.00695
4643.75253,-0.00090
4645.68100,0.00878
4647.60947,0.01361
4649.53794,0.01887
4651.46641,0.02740
4653.39487,0.03169
4655.32334,0.02908
4657.25181,0.01993
4659.18028,0.00752
4661.10875,0.00199
4663.03722,0.00672
4664.96569,0.01304
4666.89416,0.01472
4668.82262,0.01087
4670.75109,0.00297
4672.67956,0.00431
4674.60803,0.01597
4676.53650,0.01944
4678.46497,0.01650
4680.39344,0.01887
4682.32190,0.02124
4684.25037,0.01800
4686.17884,0.01066
4688.10731,0.00330
4690.03578,0.00271
4691.96425,0.00799
4693.89272,0.01312
4695.82119,0.02005
4697.74965,0.03033
4699.67812,0.03433
4701.60659,0.02691
4703.53506,0.02130
4705.46353,0.02590
4707.39200,0.03128
4709.32047,0.02981
4711.24893,0.02043
4713.17740,0.00584
4715.10587,-0.00492
4717.03434,-0.00796
4718.96281,-0.00460
4720.89128,0.00452
4722.81975,0.01221
4724.74821,0.01018
4726.67668,-0.00171
4728.60515,-0.00761
4730.53362,0.00130
4732.46209,0.00930
4734.39056,0.00664
4736.31903,0.00207
4738.24750,0.00750
4740.17596,0.01504
4742.10443,0.01057
4744.03290,0.00117
4745.96137,-0.00471
4747.88984,-0.00833
4749.81831,-0.00929
4751.74678,-0.00374
4753.67524,0.00350
4755.60371,0.00613
4757.53218,0.00416
4759.46065,-0.00023
4761.38912,0.00213
4763.31759,0.00965
4765.24606,0.00816
4767.17453,0.00157
4769.10299,0.00572
4771.03146,0.01655
4772.95993,0.02013
4774.88840,0.01445
4776.81687,0.00426
4778.74534,-0.00523
4780.67381,-0.01019
4782.60227,-0.00585
4784.53074,0.00605
4786.45921,0.01804
4788.38768,0.02672
4790.31615,0.02743
4792.24462,0.02332
4794.17309,0.02432
4796.10156,0.02382
4798.03002,0.01402
4799.95849,0.00402
4801.88696,0.00025
4803.81543,0.00199
4805.74390,-0.00268
4807.67237,-0.01381
4809.60084,-0.00364
4811.52930,0.01951
4813.45777,0.02497
4815.38624,0.01789
4817.31471,0.01076
4819.24318,0.00230
4821.17165,-0.00126
4823.10012,0.00739
4825.02859,0.01329
4826.95705,0.00646
4828.88552,0.00206
4830.81399,0.00285
4832.74246,0.00608
4834.67093,0.01546
4836.59940,0.01517
4838.52787,0.00103
4840.45633,-0.00553
4842.38480,-0.00069
4844.31327,0.00691
4846.24174,0.00939
4848.17021,0.00052
4850.09868,-0.00879
4852.02715,-0.00413
4853.95562,0.00952
4855.88408,0.02004
4857.81255,0.02304
4859.74102,0.01469
4861.66949,0.00287
4863.59796,0.00587
4865.52643,0.01656
4867.45490,0.01515
4869.38336,0.00364
4871.31183,-0.00333
4873.24030,0.00027
4875.16877,0.01165
4877.09724,0.02187
4879.02571,0.01916
4880.95418,0.01084
4882.88265,0.01165
4884.81111,0.01297
4886.73958,0.01095
4888.66805,0.01373
4890.59652,0.01227
4892.52499,-0.00131
4894.45346,-0.01303
4896.38193,-0.01086
4898.31039,0.00083
4900.23886,0.01142
4902.16733,0.01515
4904.09580,0.01330
4906.02427,0.01017
4907.95274,0.00821
4909.88121,0.00678
4911.80967,0.00648
4913.73814,0.00728
4915.66661,0.00782
4917.59508,0.00734
4919.52355,0.00145
4921.45202,-0.00306
4923.38049,0.00754
4925.30896,0.02672
4927.23742,0.03529
4929.16589,0.02515
4931.09436,0.00985
4933.02283,0.00130
4934.95130,-0.00300
4936.87977,0.00168
4938.80824,0.01266
4940.73670,0.01763
4942.66517,0.01376
4944.59364,0.00064
4946.52211,-0.01091
4948.45058,-0.00917
4950.37905,-0.00195
4952.30752,0.01023
4954.23599,0.02198
4956.16445,0.01234
4958.09292,-0.00659
4960.02139,-0.01374
4961.94986,-0.01174
4963.87833,0.00030
4965.80680,0.01780
4967.73527,0.02704
4969.66373,0.02538
4971.59220,0.01772
4973.52067,0.01269
4975.44914,0.00947
4977.37761,0.00357
4979.30608,0.00109
4981.23455,-0.00474
4983.16302,-0.02075
4985.09148,-0.03289
4987.01995,-0.03363
4988.94842,-0.02304
4990.87689,-0.00488
4992.80536,0.00838
4994.73383,0.01583
4996.66230,0.02344
4998.59076,0.02954
5000.51923,0.03626
5002.44770,0.03967
5004.37617,0.02785
5006.30464,0.00687
5008.23311,-0.00839
5010.16158,-0.01457
5012.09005,-0.00967
5014.01851,0.00307
5015.94698,0.00565
5017.87545,-0.00312
5019.80392,-0.00531
5021.73239,0.00306
5023.66086,0.01523
5025.58933,0.02549
5027.51779,0.03431
5029.44626,0.03467
5031.37473,0.01805
5033.30320,0.00439
5035.23167,0.00858
5037.16014,0.01749
5039.08861,0.01757
5041.01708,0.01157
5042.94554,0.00980
5044.87401,0.01190
5046.80248,0.01939
5048.73095,0.03139
5050.65942,0.03500
5052.58789,0.02861
5054.51636,0.02420
5056.44482,0.02844
5058.37329,0.03877
5060.30176,0.04885
5062.23023,0.05116
5064.15870,0.05149
5066.08717,0.05783
5068.01564,0.05683
5069.94410,0.04208
5071.87257,0.02802
5073.80104,0.01641
5075.72951,0.00063
5077.65798,-0.00642
5079.58645,-0.00392
5081.51492,-0.00076
5083.44339,0.01097
5085.37185,0.02357
5087.30032,0.02943
5089.22879,0.03820
5091.15726,0.04743
5093.08573,0.04885
5095.01420,0.04095
5096.94267,0.02848
5098.87113,0.02357
5100.79960,0.03356
5102.72807,0.04529
5104.65654,0.03861
5106.58501,0.01955
5108.51348,0.01180
5110.44195,0.01786
5112.37042,0.02484
5114.29888,0.02516
5116.22735,0.02529
5118.15582,0.03675
5120.08429,0.04750
5122.01276,0.04799
5123.94123,0.05152
5125.86970,0.05258
5127.79816,0.03713
5129.72663,0.02043
5131.65510,0.01748
5133.58357,0.02652
5135.51204,0.04082
5137.44051,0.04872
5139.36898,0.05666
5141.29745,0.06701
5143.22591,0.05672
5145.15438,0.03567
5147.08285,0.03088
5149.01132,0.03105
5150.93979,0.02732
5152.86826,0.03419
5154.79673,0.05103
5156.72519,0.06248
5158.65366,0.05775
5160.58213,0.04580
5162.51060,0.04978
5164.43907,0.06283
5166.36754,0.05578
5168.29601,0.03315
5170.22448,0.02737
5172.15294,0.05350
5174.08141,0.07694
5176.00988,0.06268
5177.93835,0.03381
5179.86682,0.02513
5181.79529,0.02772
5183.72376,0.02350
5185.65222,0.01738
5187.58069,0.01478
5189.50916,0.01630
5191.43763,0.02326
5193.36610,0.02919
5195.29457,0.03066
5197.22304,0.03003
5199.15151,0.02984
5201.07997,0.02688
5203.00844,0.01651
5204.93691,0.00216
5206.86538,-0.00199
5208.79385,0.02589
5210.72232,0.06379
5212.65079,0.06956
5214.57925,0.04044
5216.50772,0.00628
5218.43619,-0.00362
5220.36466,0.01028
5222.29313,0.02621
5224.22160,0.03375
5226.15007,0.03559
5228.07854,0.03383
5230.00700,0.03169
5231.93547,0.03649
5233.86394,0.04540
5235.79241,0.05028
5237.72088,0.04949
5239.64935,0.04801
5241.57782,0.04392
5243.50628,0.03265
5245.43475,0.02662
5247.36322,0.03472
5249.29169,0.04582
5251.22016,0.04658
5253.14863,0.03667
5255.07710,0.02261
5257.00556,0.01528
5258.93403,0.02445
5260.86250,0.04556
5262.79097,0.06033
5264.71944,0.06359
5266.64791,0.06210
5268.57638,0.05720
5270.50485,0.06243
5272.43331,0.08136
5274.36178,0.08857
5276.29025,0.07399
5278.21872,0.06353
5280.14719,0.07206
5282.07566,0.08121
5284.00413,0.08644
5285.93259,0.09056
5287.86106,0.08396
5289.78953,0.07412
5291.71800,0.06596
5293.64647,0.05292
5295.57494,0.04673
5297.50341,0.04629
5299.43188,0.03816
5301.36034,0.02756
5303.28881,0.02371
5305.21728,0.03646
5307.14575,0.05833
5309.07422,0.05969
5311.00269,0.04043
5312.93116,0.02305
5314.85962,0.02209
5316.78809,0.03853
5318.71656,0.05224
5320.64503,0.04736
5322.57350,0.03470
5324.50197,0.03311
5326.43044,0.04001
5328.35891,0.03928
5330.28737,0.03802
5332.21584,0.05161
5334.14431,0.06929
5336.07278,0.07130
5338.00125,0.06379
5339.92972,0.06555
5341.85819,0.06992
5343.78665,0.06916
5345.71512,0.07463
5347.64359,0.07981
5349.57206,0.06826
5351.50053,0.04938
5353.42900,0.03855
5355.35747,0.03625
5357.28594,0.04451
5359.21440,0.06357
5361.14287,0.07697
5363.07134,0.07152
5364.99981,0.05274
5366.92828,0.03551
5368.85675,0.03789
5370.78522,0.05719
5372.71368,0.06780
5374.64215,0.05973
5376.57062,0.04941
5378.49909,0.05641
5380.42756,0.07666
5382.35603,0.09977
5384.28450,0.11354
5386.21297,0.10394
5388.14143,0.08989
5390.06990,0.08957
5391.99837,0.07860
5393.92684,0.04643
5395.85531,0.04211
5397.78378,0.06952
5399.71225,0.07560
5401.64071,0.06710
5403.56918,0.07749
5405.49765,0.08963
5407.42612,0.07787
5409.35459,0.06349
5411.28306,0.06979
5413.21153,0.07058
5415.13999,0.06286
5417.06846,0.06261
5418.99693,0.05106
5420.92540,0.03416
5422.85387,0.03240
5424.78234,0.04882
5426.71081,0.08032
5428.63928,0.10420
5430.56774,0.10003
5432.49621,0.07853
5434.42468,0.05594
5436.35315,0.05236
5438.28162,0.06996
5440.21009,0.08300
5442.13856,0.06897
5444.06702,0.04702
5445.99549,0.05337
5447.92396,0.07230
5449.85243,0.06431
5451.78090,0.04082
5453.70937,0.03038
5455.63784,0.04660
5457.56631,0.07802
5459.49477,0.10263
5461.42324,0.11057
5463.35171,0.09519
5465.28018,0.07782
5467.20865,0.07220
5469.13712,0.07341
5471.06559,0.08208
5472.99405,0.08413
5474.92252,0.07025
5476.85099,0.05232
5478.77946,0.04100
5480.70793,0.03950
5482.63640,0.04391
5484.56487,0.04649
5486.49334,0.05810
5488.42180,0.08581
5490.35027,0.10809
5492.27874,0.11086
5494.20721,0.09773
5496.13568,0.07970
5498.06415,0.07371
5499.99262,0.07579
5501.92108,0.06818
5503.84955,0.06250
5505.77802,0.06392
5507.70649,0.05323
5509.63496,0.03236
5511.56343,0.01860
5513.49190,0.02693
5515.42037,0.06234
5517.34883,0.09239
5519.27730,0.08454
5521.20577,0.06819
5523.13424,0.06838
5525.06271,0.06250
5526.99118,0.06336
5528.91965,0.09724
5530.84811,0.12555
5532.77658,0.10508
5534.70505,0.06386
5536.63352,0.05107
5538.56199,0.05434
5540.49046,0.04903
5542.41893,0.06549
5544.34740,0.09999
5546.27586,0.09897
5548.20433,0.06516
5550.13280,0.03858
5552.06127,0.03720
5553.98974,0.06724
5555.91821,0.10554
5557.84668,0.11617
5559.77514,0.10198
5561.70361,0.08231
5563.63208,0.06994
5565.56055,0.07074
5567.48902,0.06591
5569.41749,0.06031
5571.34596,0.07800
5573.27443,0.08619
5575.20289,0.06266
5577.13136,0.05353
5579.05983,0.08062
5580.98830,0.10138
5582.91677,0.08724
5584.84524,0.08036
5586.77371,0.08661
5588.70217,0.07936
5590.63064,0.07766
5592.55911,0.09157
5594.48758,0.11001
5596.41605,0.12498
5598.34452,0.12340
5600.27299,0.10609
5602.20145,0.08214
5604.12992,0.05438
5606.05839,0.03691
5607.98686,0.04822
5609.91533,0.08324
5611.84380,0.10939
5613.77227,0.11040
5615.70074,0.11719
5617.62920,0.13244
5619.55767,0.12184
5621.48614,0.08867
5623.41461,0.06861
5625.34308,0.07256
5627.27155,0.07076
5629.20002,0.05770
5631.12848,0.05074
5633.05695,0.05462
5634.98542,0.07769
5636.91389,0.10335
5638.84236,0.11696
5640.77083,0.13066
5642.69930,0.14034
5644.62777,0.12675
5646.55623,0.09115
5648.48470,0.06418
5650.41317,0.06030
5652.34164,0.06867
5654.27011,0.08038
5656.19858,0.09245
5658.12705,0.08696
5660.05551,0.05713
5661.98398,0.04175
5663.91245,0.06020
5665.84092,0.08688
5667.76939,0.10078
5669.69786,0.09787
5671.62633,0.08050
5673.55480,0.05927
5675.48326,0.03868
5677.41173,0.02008
5679.34020,0.02770
5681.26867,0.06147
5683.19714,0.09306
5685.12561,0.10545
5687.05408,0.09679
5688.98254,0.08762
5690.91101,0.08593
5692.83948,0.08240
5694.76795,0.08629
5696.69642,0.10485
5698.62489,0.11253
5700.55336,0.08899
5702.48183,0.06296
5704.41029,0.06414
5706.33876,0.09463
5708.26723,0.13003
5710.19570,0.13436
5712.12417,0.11719
5714.05264,0.11123
5715.98111,0.11088
5717.90957,0.10972
5719.83804,0.13215
5721.76651,0.16407
5723.69498,0.15451
5725.62345,0.10883
5727.55192,0.07323
5729.48039,0.06769
5731.40886,0.06532
5733.33732,0.03432
5735.26579,0.00355
5737.19426,0.02260
5739.12273,0.06331
5741.05120,0.07411
5742.97967,0.05806
5744.90814,0.04799
5746.83660,0.07103
5748.76507,0.12727
5750.69354,0.17199
5752.62201,0.16841
5754.55048,0.14299
5756.47895,0.11582
5758.40742,0.09296
5760.33588,0.09317
5762.26435,0.10985
5764.19282,0.12434
5766.12129,0.12206
5768.04976,0.10691
5769.97823,0.09880
5771.90670,0.08055
5773.83517,0.05031
5775.76363,0.03977
5777.69210,0.04687
5779.62057,0.05703
5781.54904,0.06606
5783.47751,0.08036
5785.40598,0.10044
5787.33445,0.10064
5789.26291,0.08895
5791.19138,0.09924
5793.11985,0.11551
5795.04832,0.10964
5796.97679,0.08363
5798.90526,0.06837
5800.83373,0.09635
5802.76220,0.14429
5804.69066,0.14637
5806.61913,0.09646
5808.54760,0.06157
5810.47607,0.06434
5812.40454,0.07965
5814.33301,0.08122
5816.26148,0.06019
5818.18994,0.04798
5820.11841,0.05237
5822.04688,0.05855
5823.97535,0.07855
5825.90382,0.09670
5827.83229,0.10904
5829.76076,0.13365
5831.68923,0.14567
5833.61769,0.12466
5835.54616,0.09058
5837.47463,0.05993
5839.40310,0.04412
5841.33157,0.05422
5843.26004,0.07268
5845.18851,0.08784
5847.11697,0.10320
5849.04544,0.10440
5850.97391,0.08911
5852.90238,0.08210
5854.83085,0.09842
5856.75932,0.11663
5858.68779,0.11034
5860.61626,0.09836
5862.54472,0.09870
5864.47319,0.09828
5866.40166,0.08503
5868.33013,0.06169
5870.25860,0.05265
5872.18707,0.07871
5874.11554,0.10800
5876.04400,0.10798
5877.97247,0.11387
5879.90094,0.13680
5881.82941,0.14307
5883.75788,0.14286
5885.68635,0.16243
5887.61482,0.16439
5889.54329,0.10030
5891.47175,0.03804
5893.40022,0.04590
5895.32869,0.07593
5897.25716,0.08544
5899.18563,0.08470
5901.11410,0.07304
5903.04257,0.05738
5904.97103,0.07426
5906.89950,0.12670
5908.82797,0.16030
5910.75644,0.13314
5912.68491,0.08740
5914.61338,0.07066
5916.54185,0.07218
5918.47032,0.07865
5920.39878,0.07772
5922.32725,0.07053
5924.25572,0.06784
5926.18419,0.06368
5928.11266,0.06411
5930.04113,0.06449
5931.96960,0.07574
5933.89806,0.11092
5935.82653,0.12125
5937.75500,0.09377
5939.68347,0.06966
5941.61194,0.06833
5943.54041,0.08809
5945.46888,0.10968
5947.39734,0.12052
5949.32581,0.11315
5951.25428,0.07860
5953.18275,0.03805
5955.11122,0.03051
5957.03969,0.07747
5958.96816,0.14965
5960.89663,0.17270
5962.82509,0.13467
5964.75356,0.09796
5966.68203,0.08510
5968.61050,0.07850
5970.53897,0.09136
5972.46744,0.10365
5974.39591,0.07678
5976.32437,0.04411
5978.25284,0.01571
5980.18131,-0.00738
5982.10978,0.00709
5984.03825,0.05024
5985.96672,0.08934
5987.89519,0.10059
5989.82366,0.08631
5991.75212,0.08850
5993.68059,0.12691
5995.60906,0.13766
5997.53753,0.08685
5999.46600,0.05192
6001.39447,0.05887
6003.32294,0.07896
6005.25140,0.09085
6007.17987,0.08283
6009.10834,0.08438
6011.03681,0.08552
6012.96528,0.05728
6014.89375,0.04938
6016.82222,0.08408
6018.75069,0.09832
6020.67915,0.06226
6022.60762,0.02514
6024.53609,0.02335
6026.46456,0.04881
6028.39303,0.10044
6030.32150,0.16361
6032.24997,0.18579
6034.17843,0.15266
6036.10690,0.08334
6038.03537,0.02697
6039.96384,0.02287
6041.89231,0.02876
6043.82078,0.02878
6045.74925,0.03433
6047.67772,0.02881
6049.60618,0.02595
6051.53465,0.04837
6053.46312,0.09068
6055.39159,0.11504
6057.32006,0.09990
6059.24853,0.08283
6061.17700,0.06287
6063.10546,0.02838
6065.03393,0.00657
6066.96240,0.00579
6068.89087,0.02944
6070.81934,0.06591
6072.74781,0.08191
6074.67628,0.07101
6076.60475,0.05978
6078.53321,0.07681
6080.46168,0.09131
6082.39015,0.05514
6084.31862,0.02283
6086.24709,0.05891
6088.17556,0.11372
6090.10403,0.12997
6092.03249,0.12571
6093.96096,0.13928
6095.88943,0.15984
6097.81790,0.13987
6099.74637,0.07141
6101.67484,0.00933
6103.60331,0.01402
6105.53177,0.07808
6107.46024,0.13820
6109.38871,0.14243
6111.31718,0.11751
6113.24565,0.10934
6115.17412,0.11353
6117.10259,0.11808
6119.03106,0.10692
6120.95952,0.08145
6122.88799,0.06173
6124.81646,0.04905
6126.74493,0.06350
6128.67340,0.10173
6130.60187,0.10518
6132.53034,0.08359
6134.45880,0.08965
6136.38727,0.11432
6138.31574,0.12776
6140.24421,0.13517
6142.17268,0.13783
6144.10115,0.11058
6146.02962,0.08480
6147.95809,0.09497
6149.88655,0.10201
6151.81502,0.08802
6153.74349,0.07770
6155.67196,0.06500
6157.60043,0.04931
6159.52890,0.06100
6161.45737,0.10098
6163.38583,0.14413
6165.31430,0.15728
6167.24277,0.11676
6169.17124,0.07733
6171.09971,0.09351
6173.02818,0.12593
6174.95665,0.13295
6176.88512,0.13224
6178.81358,0.12933
6180.74205,0.10446
6182.67052,0.07428
6184.59899,0.07870
6186.52746,0.11892
6188.45593,0.16182
6190.38440,0.17047
6192.31286,0.12796
6194.24133,0.08973
6196.16980,0.12299
6198.09827,0.14608
6200.02674,0.08025
6201.95521,0.02020
6203.88368,0.05128
6205.81215,0.11080
6207.74061,0.12705
6209.66908,0.11655
6211.59755,0.09445
6213.52602,0.06234
6215.45449,0.03644
6217.38296,0.03213
6219.31143,0.03824
6221.23989,0.04113
6223.16836,0.06931
6225.09683,0.11424
6227.02530,0.12012
6228.95377,0.09814
6230.88224,0.06777
6232.81071,0.03659
6234.73918,0.05516
6236.66764,0.10712
6238.59611,0.11892
6240.52458,0.09433
6242.45305,0.06736
6244.38152,0.05534
6246.30999,0.09049
6248.23846,0.12758
6250.16692,0.10444
6252.09539,0.07704
6254.02386,0.08874
6255.95233,0.11102
6257.88080,0.14371
6259.80927,0.15198
6261.73774,0.09927
6263.66621,0.06259
6265.59467,0.06871
6267.52314,0.04545
6269.45161,0.02128
6271.38008,0.02615
6273.30855,0.02985
6275.23702,0.01955
6277.16549,0.02721
6279.09395,0.08202
6281.02242,0.13401
6282.95089,0.13225
6284.87936,0.11317
6286.80783,0.11519
6288.73630,0.11268
6290.66477,0.11864
6292.59323,0.14638
6294.52170,0.13697
6296.45017,0.12501
6298.37864,0.16350
6300.30711,0.19407
6302.23558,0.19612
6304.16405,0.20742
6306.09252,0.21076
6308.02098,0.17689
6309.94945,0.15422
6311.87792,0.18768
6313.80639,0.17910
6315.73486,0.09070
6317.66333,0.06426
6319.59180,0.14847
6321.52026,0.21383
6323.44873,0.16742
6325.37720,0.08424
6327.30567,0.06311
6329.23414,0.08417
6331.16261,0.07768
6333.09108,0.06132
6335.01955,0.06846
6336.94801,0.07839
6338.87648,0.08206
6340.80495,0.06748
6342.73342,0.05850
6344.66189,0.09694
6346.59036,0.13691
6348.51883,0.14506
6350.44729,0.15028
6352.37576,0.15003
6354.30423,0.13233
6356.23270,0.10488
6358.16117,0.07352
6360.08964,0.04511
6362.01811,0.02630
6363.94658,0.02077
6365.87504,0.07351
6367.80351,0.15440
6369.73198,0.13900
6371.66045,0.07571
6373.58892,0.08306
6375.51739,0.11159
6377.44586,0.10140
6379.37432,0.09330
6381.30279,0.10404
6383.23126,0.12284
6385.15973,0.13431
6387.08820,0.09441
6389.01667,0.00979
6390.94514,-0.05177
6392.87361,-0.02619
6394.80207,0.05015
6396.73054,0.07608
6398.65901,0.06990
6400.58748,0.07280
6402.51595,0.06970
6404.44442,0.06866
6406.37289,0.05989
6408.30135,0.02858
6410.22982,0.02871
6412.15829,0.05431
6414.08676,0.06848
6416.01523,0.08329
6417.94370,0.07670
6419.87217,0.08144
6421.80064,0.13672
6423.72910,0.15887
6425.65757,0.12386
6427.58604,0.09937
6429.51451,0.10473
6431.44298,0.13722
6433.37145,0.15479
6435.29992,0.13023
6437.22838,0.11688
6439.15685,0.11631
6441.08532,0.09750
6443.01379,0.09085
6444.94226,0.10595
6446.87073,0.11914
6448.79920,0.12370
6450.72766,0.11230
6452.65613,0.06441
6454.58460,0.00755
6456.51307,0.02707
6458.44154,0.10954
6460.37001,0.13483
6462.29848,0.10299
6464.22695,0.09758
6466.15541,0.10239
6468.08388,0.10009
6470.01235,0.13201
6471.94082,0.16042
6473.86929,0.13776
6475.79776,0.11377
6477.72623,0.13161
6479.65469,0.14412
6481.58316,0.10975
6483.51163,0.05695
6485.44010,0.04894
6487.36857,0.08285
6489.29704,0.10048
6491.22551,0.07669
6493.15398,0.03091
6495.08244,0.04055
6497.01091,0.11365
6498.93938,0.18397
6500.86785,0.22055
6502.79632,0.19688
6504.72479,0.15196
6506.65326,0.15550
6508.58172,0.18984
6510.51019,0.16971
6512.43866,0.08599
6514.36713,0.03717
6516.29560,0.04368
6518.22407,0.05286
6520.15254,0.07521
6522.08101,0.13292
6524.00947,0.17231
6525.93794,0.15046
6527.86641,0.11514
6529.79488,0.08926
6531.72335,0.05416
6533.65182,0.06061
6535.58029,0.11891
6537.50875,0.13621
6539.43722,0.09701
6541.36569,0.06308
6543.29416,0.08595
6545.22263,0.13081
6547.15110,0.09702
6549.07957,-0.00739
6551.00804,-0.05689
6552.93650,-0.03258
6554.86497,-0.04724
6556.79344,-0.08923
6558.72191,-0.10954
6560.65038,-0.12962
6562.57885,-0.11913
6564.50732,-0.02584
6566.43578,0.08292
6568.36425,0.10474
6570.29272,0.05375
6572.22119,0.01332
6574.14966,0.08766
6576.07813,0.24459
6578.00660,0.29202
6579.93507,0.22831
6581.86353,0.20555
6583.79200,0.17628
6585.72047,0.09558
6587.64894,0.03887
6589.57741,0.02864
6591.50588,0.06092
6593.43435,0.08450
6595.36281,0.05071
6597.29128,0.03561
6599.21975,0.06343
6601.14822,0.07220
6603.07669,0.04470
6605.00516,0.00424
6606.93363,-0.02130
6608.86210,0.02127
6610.79056,0.12031
6612.71903,0.15632
6614.64750,0.09069
6616.57597,0.02740
6618.50444,0.02052
6620.43291,0.03094
6622.36138,0.02661
6624.28984,0.01422
6626.21831,0.02433
6628.14678,0.07670
6630.07525,0.15720
6632.00372,0.19168
6633.93219,0.15175
6635.86066,0.07498
6637.78912,0.01205
6639.71759,0.03495
6641.64606,0.09603
6643.57453,0.06592
6645.50300,-0.00886
6647.43147,-0.04037
6649.35994,-0.07273
6651.28841,-0.07219
6653.21687,-0.02485
6655.14534,-0.02508
6657.07381,-0.00876
6659.00228,0.10950
6660.93075,0.16310
6662.85922,0.12000
6664.78769,0.07560
6666.71615,0.01253
6668.64462,-0.06621
6670.57309,-0.08047
6672.50156,0.00713
6674.43003,0.09966
6676.35850,0.08455
6678.28697,0.02062
6680.21544,0.01054
6682.14390,0.04684
6684.07237,0.11676
6686.00084,0.19487
6687.92931,0.18916
6689.85778,0.09399
6691.78625,0.03186
6693.71472,0.05438
6695.64318,0.13133
6697.57165,0.22016
6699.50012,0.27197
6701.42859,0.21538
6703.35706,0.04445
6705.28553,-0.08366
6707.21400,-0.04291
6709.14247,0.05453
6711.07093,0.09528
6712.99940,0.09295
6714.92787,0.08055
6716.85634,0.11491
6718.78481,0.18152
6720.71328,0.26724
6722.64175,0.32950
6724.57021,0.24418
6726.49868,0.13391
6728.42715,0.14102
6730.35562,0.14601
6732.28409,0.04833
6734.21256,-0.05206
6736.14103,-0.04595
6738.06950,0.02221
6739.99796,0.06521
6741.92643,0.09390
6743.85490,0.12643
6745.78337,0.09595
6747.71184,0.02807
6749.64031,0.08915
6751.56878,0.25727
6753.49724,0.29492
6755.42571,0.16367
6757.35418,0.07440
6759.28265,0.08757
6761.21112,0.08834
6763.13959,0.04747
6765.06806,0.01227
6766.99653,0.00853
6768.92499,0.04974
6770.85346,0.11270
6772.78193,0.15824
6774.71040,0.19179
6776.63887,0.21239
6778.56734,0.19138
6780.49581,0.13756
6782.42427,0.10370
6784.35274,0.13447
6786.28121,0.17459
6788.20968,0.15238
6790.13815,0.08635
6792.06662,0.05770
6793.99509,0.10023
6795.92355,0.15955
6797.85202,0.19021
6799.78049,0.13466
6801.70896,-0.00508
6803.63743,-0.05957
6805.56590,0.04200
6807.49437,0.17353
6809.42284,0.23751
6811.35130,0.19911
6813.27977,0.10534
6815.20824,0.02143
6817.13671,-0.01789
6819.06518,0.02231
6820.99365,0.12274
6822.92212,0.22213
6824.85058,0.22412
6826.77905,0.15469
6828.70752,0.04697
6830.63599,-0.09258
6832.56446,-0.15600
6834.49293,-0.18068
6836.42140,-0.22464
6838.34987,-0.14907
6840.27833,0.00970
6842.20680,0.07847
6844.13527,0.06861
6846.06374,0.10588
6847.99221,0.17896
6849.92068,0.15321
6851.84915,0.12671
6853.77761,0.22124
6855.70608,0.26508
6857.63455,0.15138
6859.56302,0.06224
6861.49149,0.05269
6863.41996,0.05756
6865.34843,0.04782
6867.27690,0.02998
6869.20536,0.01484
6871.13383,-0.03401
6873.06230,-0.08741
6874.99077,-0.04503
6876.91924,0.06392
6878.84771,0.14452
6880.77618,0.16958
6882.70464,0.20102
6884.63311,0.23627
6886.56158,0.21807
6888.49005,0.12546
6890.41852,0.02369
6892.34699,0.01004
6894.27546,0.03789
6896.20393,0.04119
6898.13239,0.06740
6900.06086,0.13122
6901.98933,0.19572
6903.91780,0.22354
6905.84627,0.19430
6907.77474,0.17570
6909.70321,0.18079
6911.63167,0.15981
6913.56014,0.16145
6915.48861,0.18545
6917.41708,0.10975
6919.34555,-0.01445
6921.27402,0.02299
6923.20249,0.14759
6925.13096,0.16982
6927.05942,0.11552
6928.98789,0.10864
6930.91636,0.16112
6932.84483,0.16243
6934.77330,0.08271
6936.70177,0.01178
6938.63024,0.01678
6940.55870,0.08704
6942.48717,0.09642
6944.41564,0.00847
6946.34411,-0.07457
6948.27258,-0.05146
6950.20105,0.04887
6952.12952,0.11227
6954.05799,0.08864
6955.98645,0.00240
6957.91492,-0.06810
6959.84339,-0.05550
6961.77186,0.01103
6963.70033,0.06713
6965.62880,0.09528
6967.55727,0.09175
6969.48573,0.07281
6971.41420,0.06385
6973.34267,0.08464
6975.27114,0.11418
6977.19961,0.11506
6979.12808,0.12504
6981.05655,0.14210
6982.98501,0.10162
6984.91348,0.00150
6986.84195,-0.08699
6988.77042,-0.09094
6990.69889,0.01513
6992.62736,0.11482
6994.55583,0.11894
6996.48430,0.08314
6998.41276,0.03014
7000.34123,-0.02501
7002.26970,0.01561
7004.19817,0.09778
7006.12664,0.08804
7008.05511,-0.00085
7009.98358,0.00000
7011.91204,0.09863
7013.84051,0.13759
7015.76898,0.13169
7017.69745,0.16082
7019.62592,0.15380
7021.55439,0.13037
7023.48286,0.15972
7025.41133,0.22442
7027.33979,0.26799
7029.26826,0.23785
7031.19673,0.18627
7033.12520,0.12525
7035.05367,-0.00191
7036.98214,-0.07956
7038.91061,-0.04086
7040.83907,0.01981
7042.76754,0.07408
7044.69601,0.18665
7046.62448,0.27973
7048.55295,0.21293
7050.48142,0.10142
7052.40989,0.12436
7054.33836,0.24970
7056.26682,0.29997
7058.19529,0.21371
7060.12376,0.15319
7062.05223,0.15449
7063.98070,0.16333
7065.90917,0.18469
7067.83764,0.15383
7069.76610,0.10270
7071.69457,0.13587
7073.62304,0.13568
7075.55151,0.06190
7077.47998,-0.01634
7079.40845,-0.06378
7081.33692,-0.06375
7083.26539,-0.10662
7085.19385,-0.14895
7087.12232,-0.08486
7089.05079,-0.01783
7090.97926,-0.03136
7092.90773,-0.02086
7094.83620,0.08770
7096.76467,0.18893
7098.69313,0.12690
7100.62160,0.03715
7102.55007,0.13643
7104.47854,0.31378
7106.40701,0.31667
7108.33548,0.14094
7110.26395,-0.06951
7112.19242,-0.20000
7114.12088,-0.17720
7116.04935,-0.06009
7117.97782,0.07591
7119.90629,0.06817
7121.83476,-0.05944
7123.76323,-0.09891
7125.69170,-0.05052
7127.62016,-0.02811
7129.54863,-0.03675
7131.47710,-0.04573
7133.40557,-0.04269
7135.33404,0.00090
7137.26251,0.08247
7139.19098,0.13998
7141.11944,0.14297
7143.04791,0.21660
7144.97638,0.37216
7146.90485,0.30849
7148.83332,0.07762
7150.76179,-0.02374
7152.69026,0.04444
7154.61873,0.21791
7156.54719,0.32338
7158.47566,0.23351
7160.40413,0.06027
7162.33260,-0.01692
7164.26107,0.04209
7166.18954,0.15787
7168.11801,0.29270
7170.04647,0.39880
7171.97494,0.38080
7173.90341,0.36946
7175.83188,0.42741
7177.76035,0.34807
7179.68882,0.14623
7181.61729,0.05347
7183.54576,0.09159
7185.47422,0.05285
7187.40269,-0.02914
7189.33116,0.02785
7191.25963,0.11396
7193.18810,0.00267
7195.11657,-0.13076
7197.04504,-0.11047
7198.97350,-0.01088
7200.90197,0.07575
7202.83044,0.12097
7204.75891,0.04908
7206.68738,-0.09013
7208.61585,-0.11496
7210.54432,-0.04070
7212.47279,0.01205
7214.40125,-0.00621
7216.32972,-0.06044
7218.25819,-0.10303
7220.18666,0.01871
7222.11513,0.23524
7224.04360,0.29551
7225.97207,0.12022
7227.90053,-0.06547
7229.82900,-0.09329
7231.75747,-0.01607
7233.68594,0.00630
7235.61441,-0.06093
7237.54288,-0.14058
7239.47135,-0.16104
7241.39982,-0.12464
7243.32828,-0.04606
7245.25675,-0.00844
7247.18522,-0.09338
7249.11369,-0.20132
7251.04216,-0.17749
7252.97063,-0.03350
7254.89910,0.03276
7256.82756,-0.01348
7258.75603,-0.00783
7260.68450,0.22223
7262.61297,0.42246
7264.54144,0.21974
7266.46991,-0.08720
7268.39838,-0.16351
7270.32685,-0.09064
7272.25531,-0.03232
7274.18378,0.04350
7276.11225,0.14030
7278.04072,0.19461
7279.96919,0.25636
7281.89766,0.38295
7283.82613,0.45718
7285.75459,0.34459
7287.68306,0.13446
7289.61153,-0.01545
7291.54000,-0.08048
7293.46847,-0.04074
7295.39694,0.14555
7297.32541,0.36123
7299.25387,0.43092
7301.18234,0.34494
7303.11081,0.19773
7305.03928,0.11734
7306.96775,0.10069
7308.89622,0.07190
7310.82469,0.03888
7312.75316,-0.02611
7314.68162,-0.00193
7316.61009,0.19712
7318.53856,0.23465
7320.46703,0.04469
7322.39550,-0.07092
7324.32397,-0.03690
7326.25244,0.02476
7328.18090,0.04618
7330.10937,-0.03411
7332.03784,-0.07890
7333.96631,0.02880
7335.89478,0.13882
7337.82325,0.07051
7339.75172,-0.14290
7341.68019,-0.02415
7343.60865,0.25041
7345.53712,0.25330
7347.46559,0.09103
7349.39406,0.11668
7351.32253,0.21258
7353.25100,0.14494
7355.17947,0.15749
7357.10793,0.40498
7359.03640,0.57266
7360.96487,0.49235
7362.89334,0.37641
7364.82181,0.28593
7366.75028,0.11952
7368.67875,-0.08145
7370.60722,-0.09261
7372.53568,0.03882
7374.46415,0.15423
7376.39262,0.15703
7378.32109,0.02331
7380.24956,-0.03592
7382.17803,0.16519
7384.10650,0.35370
7386.03496,0.21693
7387.96343,-0.05805
7389.89190,-0.13661
7391.82037,-0.04843
7393.74884,0.03727
7395.67731,0.07586
7397.60578,0.10495
7399.53425,0.10575
7401.46271,0.07495
7403.39118,-0.00297
7405.31965,-0.17235
7407.24812,-0.24405
7409.17659,-0.08492
7411.10506,0.09283
7413.03353,0.07948
7414.96199,-0.05826
7416.89046,-0.16209
7418.81893,-0.10211
7420.74740,0.00963
7422.67587,0.01245
7424.60434,-0.02697
7426.53281,-0.03887
7428.46128,-0.01072
7430.38974,0.01756
7432.31821,0.05404
7434.24668,0.16127
7436.17515,0.28680
7438.10362,0.29126
7440.03209,0.17613
7441.96056,0.13693
7443.88902,0.19269
7445.81749,0.21943
7447.74596,0.25490
7449.67443,0.31904
7451.60290,0.33348
7453.53137,0.24957
7455.45984,0.10438
7457.38831,-0.00673
7459.31677,-0.00148
7461.24524,0.14323
7463.17371,0.31447
7465.10218,0.37835
7467.03065,0.33715
7468.95912,0.28240
7470.88759,0.22694
7472.81605,0.13466
7474.74452,0.06323
7476.67299,0.11346
7478.60146,0.15215
7480.52993,0.03060
7482.45840,-0.02066
7484.38687,0.07587
7486.31533,0.14629
7488.24380,0.28363
7490.17227,0.49005
7492.10074,0.45392
7494.02921,0.30395
7495.95768,0.24074
7497.88615,0.15903
