399.19301,4.29164
401.12148,1.41006
403.04995,-0.29537
404.97842,-0.34133
406.90689,0.40639
408.83536,1.29591
410.76382,1.63219
412.69229,0.81878
414.62076,0.47159
416.54923,1.92643
418.47770,3.16714
420.40617,1.75200
422.33464,0.73917
424.26311,0.74622
426.19157,0.80916
428.12004,0.74962
430.04851,0.38152
431.97698,-0.00020
433.90545,0.09893
435.83392,0.27240
437.76239,0.23872
439.69085,0.16165
441.61932,0.23054
443.54779,0.38023
445.47626,0.43271
447.40473,0.32745
449.33320,0.14167
451.26167,0.06594
453.19013,0.10570
455.11860,0.11137
457.04707,0.06444
458.97554,0.09604
460.90401,0.19457
462.83248,0.25380
464.76095,0.23916
466.68942,0.16831
468.61788,0.08297
470.54635,-0.00426
472.47482,-0.19490
474.40329,-0.34768
476.33176,-0.12182
478.26023,0.07109
480.18870,0.10508
482.11716,0.12397
484.04563,0.15573
485.97410,0.13701
487.90257,0.10892
489.83104,0.12177
491.75951,0.10992
493.68798,0.05452
495.61645,0.06960
497.54491,0.16691
499.47338,0.21690
501.40185,0.18556
503.33032,0.13799
505.25879,0.10956
507.18726,0.10580
509.11573,0.12354
511.04419,0.13017
512.97266,0.10625
514.90113,0.07399
516.82960,0.10013
518.75807,0.15021
520.68654,0.11435
522.61501,0.03327
524.54348,0.01176
526.47194,0.08111
528.40041,0.15421
530.32888,0.15701
532.25735,0.10701
534.18582,0.06778
536.11429,0.07918
538.04276,0.11986
539.97122,0.15081
541.89969,0.15071
543.82816,0.12458
545.75663,0.09672
547.68510,0.06902
549.61357,0.21437
551.54204,0.87907
553.47051,1.56635
555.39897,1.33264
557.32744,0.54801
559.25591,0.15439
561.18438,0.08947
563.11285,0.05869
565.04132,0.03236
566.96979,0.04641
568.89825,0.09893
570.82672,0.14368
572.75519,0.15625
574.68366,0.15256
576.61213,0.14164
578.54060,0.11416
580.46907,0.08091
582.39754,0.05491
584.32600,0.05798
586.25447,0.08813
588.18294,0.10562
590.11141,0.09525
592.03988,0.09036
593.96835,0.12406
595.89682,0.15842
597.82528,0.15922
599.75375,0.15082
601.68222,0.13874
603.61069,0.11564
605.53916,0.11597
607.46763,0.13987
609.39610,0.14621
611.32456,0.12746
613.25303,0.10256
615.18150,0.09612
617.10997,0.11544
619.03844,0.13778
620.96691,0.13935
622.89538,0.12164
624.82385,0.10058
626.75231,0.08906
628.68078,0.08524
630.60925,0.05869
632.53772,0.01668
634.46619,0.02380
636.39466,0.07853
638.32313,0.12372
640.25159,0.13995
642.18006,0.13864
644.10853,0.13502
646.03700,0.13517
647.96547,0.13115
649.89394,0.11974
651.82241,0.11064
653.75088,0.10786
655.67934,0.10720
657.60781,0.11414
659.53628,0.12889
661.46475,0.14190
663.39322,0.15867
665.32169,0.18030
667.25016,0.19575
669.17862,0.18854
671.10709,0.17415
673.03556,0.15740
674.96403,0.12982
676.89250,0.11850
678.82097,0.12627
680.74944,0.11964
682.67791,0.11386
684.60637,0.12779
686.53484,0.13182
688.46331,0.11893
690.39178,0.11607
692.32025,0.13258
694.24872,0.15308
696.17719,0.15414
698.10565,0.14105
700.03412,0.14183
701.96259,0.15711
703.89106,0.16365
705.81953,0.15052
707.74800,0.12889
709.67647,0.11830
711.60494,0.12616
713.53340,0.14348
715.46187,0.16304
717.39034,0.17232
719.31881,0.15880
721.24728,0.14062
723.17575,0.13410
725.10422,0.13455
727.03268,0.14645
728.96115,0.16233
730.88962,0.16155
732.81809,0.15230
734.74656,0.15501
736.67503,0.16135
738.60350,0.15520
740.53197,0.14478
742.46043,0.14215
744.38890,0.14245
746.31737,0.13898
748.24584,0.13219
750.17431,0.12811
752.10278,0.13585
754.03125,0.15652
755.95971,0.17413
757.88818,0.17391
759.81665,0.16614
761.74512,0.16498
763.67359,0.16276
765.60206,0.14690
767.53053,0.13035
769.45900,0.13293
771.38746,0.14072
773.31593,0.13630
775.24440,0.13662
777.17287,0.15471
779.10134,0.17054
781.02981,0.16208
782.95828,0.14416
784.88674,0.14586
786.81521,0.15793
788.74368,0.15528
790.67215,0.14429
792.60062,0.14302
794.52909,0.14615
796.45756,0.14420
798.38602,0.14359
800.31449,0.14223
802.24296,0.13257
804.17143,0.12524
806.09990,0.13233
808.02837,0.14359
809.95684,0.14667
811.88531,0.14465
813.81377,0.14416
815.74224,0.14346
817.67071,0.13824
819.59918,0.13545
821.52765,0.13955
823.45612,0.14935
825.38459,0.16082
827.31305,0.16440
829.24152,0.16031
831.16999,0.15553
833.09846,0.15386
835.02693,0.15600
836.95540,0.15350
838.88387,0.14212
840.81234,0.13167
842.74080,0.12778
844.66927,0.13337
846.59774,0.14292
848.52621,0.14160
850.45468,0.13711
852.38315,0.14725
854.31162,0.16463
856.24008,0.16913
858.16855,0.16056
860.09702,0.15522
862.02549,0.15946
863.95396,0.16135
865.88243,0.15465
867.81090,0.16161
869.73937,0.18690
871.66783,0.19141
873.59630,0.16601
875.52477,0.14421
877.45324,0.13590
879.38171,0.13294
881.31018,0.13708
883.23865,0.14437
885.16711,0.14788
887.09558,0.14992
889.02405,0.15047
890.95252,0.14887
892.88099,0.15178
894.80946,0.16185
896.73793,0.16976
898.66640,0.16481
900.59486,0.15678
902.52333,0.15897
904.45180,0.16457
906.38027,0.16558
908.30874,0.16135
910.23721,0.15753
912.16568,0.16178
914.09414,0.17111
916.02261,0.17406
917.95108,0.16764
919.87955,0.15794
921.80802,0.14754
923.73649,0.14177
925.66496,0.14270
927.59343,0.14206
929.52189,0.14203
931.45036,0.15297
933.37883,0.16445
935.30730,0.16236
937.23577,0.15657
939.16424,0.15523
941.09271,0.15458
943.02117,0.15378
944.94964,0.15588
946.87811,0.16011
948.80658,0.16193
950.73505,0.16553
952.66352,0.17114
954.59199,0.16977
956.52045,0.16527
958.44892,0.16542
960.37739,0.16384
962.30586,0.15498
964.23433,0.14600
966.16280,0.14180
968.09127,0.14115
970.01974,0.14431
971.94820,0.14906
973.87667,0.15638
975.80514,0.16516
977.73361,0.16818
979.66208,0.16926
981.59055,0.17162
983.51902,0.17215
985.44748,0.17212
987.37595,0.16882
989.30442,0.16401
991.23289,0.16631
993.16136,0.17185
995.08983,0.17229
997.01830,0.17029
998.94677,0.16747
1000.87523,0.15952
1002.80370,0.14997
1004.73217,0.15215
1006.66064,0.16901
1008.58911,0.18210
1010.51758,0.17785
1012.44605,0.16510
1014.37451,0.15886
1016.30298,0.16271
1018.23145,0.16890
1020.15992,0.17306
1022.08839,0.17185
1024.01686,0.16536
1025.94533,0.18164
1027.87380,0.22881
1029.80226,0.24315
1031.73073,0.19797
1033.65920,0.15936
1035.58767,0.15691
1037.51614,0.16268
1039.44461,0.16949
1041.37308,0.17792
1043.30154,0.17871
1045.23001,0.17514
1047.15848,0.17059
1049.08695,0.16875
1051.01542,0.17624
1052.94389,0.17999
1054.87236,0.17151
1056.80083,0.16645
1058.72929,0.17263
1060.65776,0.17910
1062.58623,0.17928
1064.51470,0.17920
1066.44317,0.18280
1068.37164,0.18657
1070.30011,0.18541
1072.22857,0.18002
1074.15704,0.17747
1076.08551,0.17887
1078.01398,0.17937
1079.94245,0.17691
1081.87092,0.17030
1083.79939,0.16249
1085.72786,0.15938
1087.65632,0.16437
1089.58479,0.17497
1091.51326,0.17692
1093.44173,0.17117
1095.37020,0.17411
1097.29867,0.18101
1099.22714,0.18278
1101.15560,0.18396
1103.08407,0.18833
1105.01254,0.19651
1106.94101,0.20354
1108.86948,0.20366
1110.79795,0.20217
1112.72642,0.20059
1114.65489,0.19232
1116.58335,0.18070
1118.51182,0.17242
1120.44029,0.16819
1122.36876,0.16778
1124.29723,0.17019
1126.22570,0.17173
1128.15417,0.17145
1130.08263,0.17088
1132.01110,0.16793
1133.93957,0.16460
1135.86804,0.16522
1137.79651,0.16830
1139.72498,0.17257
1141.65345,0.17694
1143.58191,0.17766
1145.51038,0.17492
1147.43885,0.17295
1149.36732,0.17462
1151.29579,0.18120
1153.22426,0.18577
1155.15273,0.18120
1157.08120,0.17591
1159.00966,0.17721
1160.93813,0.17851
1162.86660,0.17678
1164.79507,0.17870
1166.72354,0.18219
1168.65201,0.18119
1170.58048,0.18234
1172.50894,0.18518
1174.43741,0.18221
1176.36588,0.17982
1178.29435,0.18238
1180.22282,0.18161
1182.15129,0.17403
1184.07976,0.16165
1186.00823,0.14895
1187.93669,0.15019
1189.86516,0.16439
1191.79363,0.17155
1193.72210,0.17085
1195.65057,0.17286
1197.57904,0.17544
1199.50751,0.17437
1201.43597,0.17258
1203.36444,0.17269
1205.29291,0.17297
1207.22138,0.17370
1209.14985,0.17685
1211.07832,0.17808
1213.00679,0.17362
1214.93526,0.17044
1216.86372,0.17356
1218.79219,0.17779
1220.72066,0.17790
1222.64913,0.17580
1224.57760,0.17638
1226.50607,0.17871
1228.43454,0.17962
1230.36300,0.17828
1232.29147,0.17470
1234.21994,0.17309
1236.14841,0.17631
1238.07688,0.17874
1240.00535,0.17692
1241.93382,0.17378
1243.86229,0.17184
1245.79075,0.17234
1247.71922,0.17303
1249.64769,0.17268
1251.57616,0.17450
1253.50463,0.17840
1255.43310,0.18106
1257.36157,0.18152
1259.29003,0.18172
1261.21850,0.18262
1263.14697,0.18302
1265.07544,0.18347
1267.00391,0.18516
1268.93238,0.18700
1270.86085,0.18851
1272.78932,0.18864
1274.71778,0.18501
1276.64625,0.18199
1278.57472,0.18307
1280.50319,0.18114
1282.43166,0.17666
1284.36013,0.17783
1286.28860,0.18146
1288.21706,0.18218
1290.14553,0.18288
1292.07400,0.18649
1294.00247,0.18965
1295.93094,0.18813
1297.85941,0.18451
1299.78788,0.17971
1301.71634,0.16989
1303.64481,0.15988
1305.57328,0.16305
1307.50175,0.17848
1309.43022,0.18811
1311.35869,0.18713
1313.28716,0.18576
1315.21563,0.18661
1317.14409,0.18733
1319.07256,0.18860
1321.00103,0.19038
1322.92950,0.19061
1324.85797,0.18641
1326.78644,0.18080
1328.71491,0.18003
1330.64337,0.18031
1332.57184,0.17824
1334.50031,0.17755
1336.42878,0.17931
1338.35725,0.18321
1340.28572,0.18571
1342.21419,0.17707
1344.14266,0.15984
1346.07112,0.15619
1347.99959,0.17031
1349.92806,0.17885
1351.85653,0.17934
1353.78500,0.18030
1355.71347,0.17975
1357.64194,0.18050
1359.57040,0.18543
1361.49887,0.19191
1363.42734,0.19305
1365.35581,0.18876
1367.28428,0.18605
1369.21275,0.18592
1371.14122,0.19008
1373.06969,0.19919
1374.99815,0.20341
1376.92662,0.19962
1378.85509,0.19573
1380.78356,0.19115
1382.71203,0.18842
1384.64050,0.19380
1386.56897,0.20275
1388.49743,0.20579
1390.42590,0.20378
1392.35437,0.20406
1394.28284,0.20922
1396.21131,0.21127
1398.13978,0.20550
1400.06825,0.19902
1401.99672,0.19525
1403.92518,0.19355
1405.85365,0.19310
1407.78212,0.19210
1409.71059,0.19082
1411.63906,0.19109
1413.56753,0.19465
1415.49600,0.20351
1417.42446,0.21783
1419.35293,0.22511
1421.28140,0.21720
1423.20987,0.20941
1425.13834,0.20558
1427.06681,0.20177
1428.99528,0.19736
1430.92375,0.19470
1432.85221,0.19736
1434.78068,0.20472
1436.70915,0.20829
1438.63762,0.20325
1440.56609,0.20097
1442.49456,0.20395
1444.42303,0.20729
1446.35149,0.20858
1448.27996,0.20703
1450.20843,0.20532
1452.13690,0.20792
1454.06537,0.21620
1455.99384,0.23038
1457.92231,0.23043
1459.85077,0.21339
1461.77924,0.20705
1463.70771,0.20985
1465.63618,0.21060
1467.56465,0.20696
1469.49312,0.20917
1471.42159,0.21931
1473.35006,0.22426
1475.27852,0.21635
1477.20699,0.20816
1479.13546,0.20609
1481.06393,0.20808
1482.99240,0.20940
1484.92087,0.21265
1486.84934,0.22252
1488.77780,0.23159
1490.70627,0.22428
1492.63474,0.21270
1494.56321,0.21203
1496.49168,0.21813
1498.42015,0.21953
1500.34862,0.22055
1502.27709,0.23008
1504.20555,0.24707
1506.13402,0.26047
1508.06249,0.24597
1509.99096,0.23172
1511.91943,0.22760
1513.84790,0.22936
1515.77637,0.23620
1517.70483,0.24039
1519.63330,0.24153
1521.56177,0.24007
1523.49024,0.23049
1525.41871,0.22377
1527.34718,0.21989
1529.27565,0.21604
1531.20412,0.21631
1533.13258,0.22121
1535.06105,0.22740
1536.98952,0.23759
1538.91799,0.25997
1540.84646,0.27556
1542.77493,0.25443
1544.70340,0.22850
1546.63186,0.21427
1548.56033,0.21226
1550.48880,0.21318
1552.41727,0.21290
1554.34574,0.21609
1556.27421,0.22611
1558.20268,0.24242
1560.13115,0.23490
1562.05961,0.21755
1563.98808,0.21030
1565.91655,0.21070
1567.84502,0.21875
1569.77349,0.22498
1571.70196,0.21967
1573.63043,0.21708
1575.55889,0.22088
1577.48736,0.21675
1579.41583,0.20528
1581.34430,0.19454
1583.27277,0.18753
1585.20124,0.18717
1587.12971,0.19005
1589.05818,0.19215
1590.98664,0.19326
1592.91511,0.19456
1594.84358,0.19682
1596.77205,0.19744
1598.70052,0.19687
1600.62899,0.19824
1602.55746,0.19819
1604.48592,0.19676
1606.41439,0.19925
1608.34286,0.20241
1610.27133,0.20182
1612.19980,0.20128
1614.12827,0.20533
1616.05674,0.21257
1617.98521,0.21285
1619.91367,0.20897
1621.84214,0.20884
1623.77061,0.21124
1625.69908,0.21523
1627.62755,0.21729
1629.55602,0.21339
1631.48449,0.21209
1633.41295,0.22169
1635.34142,0.23759
1637.26989,0.23555
1639.19836,0.22180
1641.12683,0.21443
1643.05530,0.21698
1644.98377,0.22891
1646.91223,0.23980
1648.84070,0.23706
1650.76917,0.23950
1652.69764,0.25148
1654.62611,0.24186
1656.55458,0.22644
1658.48305,0.22390
1660.41152,0.23101
1662.33998,0.23447
1664.26845,0.22531
1666.19692,0.22289
1668.12539,0.23560
1670.05386,0.24466
1671.98233,0.23852
1673.91080,0.23601
1675.83926,0.23446
1677.76773,0.22822
1679.69620,0.22772
1681.62467,0.23734
1683.55314,0.24748
1685.48161,0.23725
1687.41008,0.22419
1689.33855,0.21875
1691.26701,0.21569
1693.19548,0.21665
1695.12395,0.22355
1697.05242,0.23056
1698.98089,0.23223
1700.90936,0.22860
1702.83783,0.22601
1704.76629,0.22569
1706.69476,0.22119
1708.62323,0.21567
1710.55170,0.21459
1712.48017,0.21761
1714.40864,0.22573
1716.33711,0.23595
1718.26558,0.22999
1720.19404,0.21629
1722.12251,0.21153
1724.05098,0.20953
1725.97945,0.20500
1727.90792,0.20320
1729.83639,0.20914
1731.76486,0.22260
1733.69332,0.23301
1735.62179,0.22611
1737.55026,0.21854
1739.47873,0.21698
1741.40720,0.21801
1743.33567,0.22036
1745.26414,0.22302
1747.19261,0.22623
1749.12107,0.22684
1751.04954,0.21875
1752.97801,0.20924
1754.90648,0.20739
1756.83495,0.21046
1758.76342,0.21099
1760.69189,0.21117
1762.62035,0.21341
1764.54882,0.21181
1766.47729,0.21007
1768.40576,0.21396
1770.33423,0.22150
1772.26270,0.22686
1774.19117,0.22403
1776.11964,0.21797
1778.04810,0.21505
1779.97657,0.21609
1781.90504,0.21854
1783.83351,0.22034
1785.76198,0.21925
1787.69045,0.21648
1789.61892,0.21769
1791.54738,0.22238
1793.47585,0.22216
1795.40432,0.21646
1797.33279,0.21162
1799.26126,0.21027
1801.18973,0.21161
1803.11820,0.21378
1805.04666,0.21449
1806.97513,0.21237
1808.90360,0.21048
1810.83207,0.20997
1812.76054,0.20776
1814.68901,0.20522
1816.61748,0.20397
1818.54595,0.20501
1820.47441,0.20695
1822.40288,0.20823
1824.33135,0.21123
1826.25982,0.21356
1828.18829,0.21448
1830.11676,0.21441
1832.04523,0.21019
1833.97369,0.20752
1835.90216,0.20855
1837.83063,0.20925
1839.75910,0.21041
1841.68757,0.21406
1843.61604,0.21797
1845.54451,0.21807
1847.47298,0.21329
1849.40144,0.20669
1851.32991,0.20234
1853.25838,0.20225
1855.18685,0.20430
1857.11532,0.20567
1859.04379,0.20694
1860.97226,0.20727
1862.90072,0.20553
1864.82919,0.20710
1866.75766,0.21547
1868.68613,0.22240
1870.61460,0.21857
1872.54307,0.21091
1874.47154,0.20689
1876.40001,0.20660
1878.32847,0.20634
1880.25694,0.20478
1882.18541,0.20453
1884.11388,0.20555
1886.04235,0.20558
1887.97082,0.20623
1889.89929,0.20763
1891.82775,0.20662
1893.75622,0.20594
1895.68469,0.20768
1897.61316,0.20847
1899.54163,0.20881
1901.47010,0.21074
1903.39857,0.21041
1905.32704,0.20696
1907.25550,0.20649
1909.18397,0.20944
1911.11244,0.21085
1913.04091,0.21257
1914.96938,0.21715
1916.89785,0.21986
1918.82632,0.21773
1920.75478,0.21646
1922.68325,0.21711
1924.61172,0.21377
1926.54019,0.20817
1928.46866,0.20567
1930.39713,0.20485
1932.32560,0.20403
1934.25407,0.20468
1936.18253,0.20528
1938.11100,0.20431
1940.03947,0.20500
1941.96794,0.20733
1943.89641,0.20615
1945.82488,0.20360
1947.75335,0.20472
1949.68181,0.20738
1951.61028,0.20777
1953.53875,0.20612
1955.46722,0.20434
1957.39569,0.20373
1959.32416,0.20546
1961.25263,0.20839
1963.18110,0.21054
1965.10956,0.21276
1967.03803,0.21315
1968.96650,0.21001
1970.89497,0.20747
1972.82344,0.20749
1974.75191,0.20998
1976.68038,0.21221
1978.60884,0.21237
1980.53731,0.21272
1982.46578,0.21045
1984.39425,0.20665
1986.32272,0.20752
1988.25119,0.21114
1990.17966,0.21353
1992.10812,0.21253
1994.03659,0.20859
1995.96506,0.20615
1997.89353,0.20652
1999.82200,0.20718
2001.75047,0.20648
2003.67894,0.20498
2005.60741,0.20446
2007.53587,0.20613
2009.46434,0.20875
2011.39281,0.21043
2013.32128,0.21108
2015.24975,0.21278
2017.17822,0.21527
2019.10669,0.21434
2021.03515,0.21124
2022.96362,0.21070
2024.89209,0.21087
2026.82056,0.20936
2028.74903,0.20901
2030.67750,0.21016
2032.60597,0.21083
2034.53444,0.21124
2036.46290,0.21093
2038.39137,0.20928
2040.31984,0.20861
2042.24831,0.21010
2044.17678,0.21117
2046.10525,0.20951
2048.03372,0.20535
2049.96218,0.20176
2051.89065,0.20195
2053.81912,0.20669
2055.74759,0.21227
2057.67606,0.21272
2059.60453,0.20994
2061.53300,0.21016
2063.46147,0.21264
2065.38993,0.21303
2067.31840,0.21122
2069.24687,0.20988
2071.17534,0.21023
2073.10381,0.21130
2075.03228,0.21119
2076.96075,0.21071
2078.88921,0.21195
2080.81768,0.21295
2082.74615,0.21176
2084.67462,0.21112
2086.60309,0.21159
2088.53156,0.21004
2090.46003,0.20683
2092.38850,0.20452
2094.31696,0.20403
2096.24543,0.20637
2098.17390,0.21050
2100.10237,0.21227
2102.03084,0.21187
2103.95931,0.21188
2105.88778,0.21232
2107.81624,0.21336
2109.74471,0.21345
2111.67318,0.20918
2113.60165,0.20255
2115.53012,0.20119
2117.45859,0.20445
2119.38706,0.20628
2121.31553,0.20793
2123.24399,0.21107
2125.17246,0.21345
2127.10093,0.21347
2129.02940,0.21163
2130.95787,0.21193
2132.88634,0.21962
2134.81481,0.22824
2136.74327,0.22972
2138.67174,0.22771
2140.60021,0.21970
2142.52868,0.20878
2144.45715,0.20561
2146.38562,0.20611
2148.31409,0.20689
2150.24255,0.20915
2152.17102,0.21012
2154.09949,0.20868
2156.02796,0.20549
2157.95643,0.20361
2159.88490,0.20464
2161.81337,0.20542
2163.74184,0.20577
2165.67030,0.20791
2167.59877,0.20992
2169.52724,0.21115
2171.45571,0.21194
2173.38418,0.21096
2175.31265,0.20978
2177.24112,0.20941
2179.16958,0.20798
2181.09805,0.20488
2183.02652,0.20210
2184.95499,0.20132
2186.88346,0.20311
2188.81193,0.20709
2190.74040,0.20961
2192.66887,0.20897
2194.59733,0.20973
2196.52580,0.21353
2198.45427,0.21527
2200.38274,0.21386
2202.31121,0.21285
2204.23968,0.21197
2206.16815,0.20970
2208.09661,0.20631
2210.02508,0.20324
2211.95355,0.20321
2213.88202,0.20569
2215.81049,0.20727
2217.73896,0.20842
2219.66743,0.21069
2221.59590,0.21107
2223.52436,0.20863
2225.45283,0.20759
2227.38130,0.20884
2229.30977,0.20990
2231.23824,0.21148
2233.16671,0.21331
2235.09518,0.21235
2237.02364,0.21006
2238.95211,0.20930
2240.88058,0.20972
2242.80905,0.21223
2244.73752,0.21578
2246.66599,0.21486
2248.59446,0.20980
2250.52293,0.20822
2252.45139,0.21043
2254.37986,0.21033
2256.30833,0.20903
2258.23680,0.20910
2260.16527,0.20913
2262.09374,0.20939
2264.02221,0.21047
2265.95067,0.21243
2267.87914,0.21414
2269.80761,0.21305
2271.73608,0.21062
2273.66455,0.20945
2275.59302,0.20873
2277.52149,0.20847
2279.44996,0.20865
2281.37842,0.20696
2283.30689,0.20451
2285.23536,0.20643
2287.16383,0.21173
2289.09230,0.21368
2291.02077,0.21462
2292.94924,0.22218
2294.87770,0.22838
2296.80617,0.22158
2298.73464,0.21110
2300.66311,0.20788
2302.59158,0.20897
2304.52005,0.21224
2306.44852,0.21471
2308.37699,0.21283
2310.30545,0.21239
2312.23392,0.21584
2314.16239,0.21647
2316.09086,0.21510
2318.01933,0.21647
2319.94780,0.21684
2321.87627,0.21367
2323.80473,0.21008
2325.73320,0.20677
2327.66167,0.20785
2329.59014,0.21717
2331.51861,0.22179
2333.44708,0.21214
2335.37555,0.20404
2337.30401,0.20610
2339.23248,0.20358
2341.16095,0.19526
2343.08942,0.19629
2345.01789,0.20404
2346.94636,0.21184
2348.87483,0.21999
2350.80330,0.22785
2352.73176,0.23242
2354.66023,0.23004
2356.58870,0.22603
2358.51717,0.22513
2360.44564,0.22419
2362.37411,0.22421
2364.30258,0.22633
2366.23104,0.22528
2368.15951,0.21762
2370.08798,0.21226
2372.01645,0.21140
2373.94492,0.20733
2375.87339,0.20147
2377.80186,0.19809
2379.73033,0.19768
2381.65879,0.20099
2383.58726,0.20570
2385.51573,0.20867
2387.44420,0.20990
2389.37267,0.20986
2391.30114,0.20993
2393.22961,0.21037
2395.15807,0.20952
2397.08654,0.20935
2399.01501,0.21129
2400.94348,0.21241
2402.87195,0.21229
2404.80042,0.21272
2406.72889,0.21352
2408.65736,0.21261
2410.58582,0.21024
2412.51429,0.20946
2414.44276,0.20912
2416.37123,0.20786
2418.29970,0.20903
2420.22817,0.21197
2422.15664,0.21200
2424.08510,0.20895
2426.01357,0.20637
2427.94204,0.20622
2429.87051,0.20757
2431.79898,0.20955
2433.72745,0.21114
2435.65592,0.21041
2437.58439,0.20891
2439.51285,0.20791
2441.44132,0.20686
2443.36979,0.20845
2445.29826,0.21191
2447.22673,0.21152
2449.15520,0.20647
2451.08367,0.20226
2453.01213,0.20251
2454.94060,0.20643
2456.86907,0.21110
2458.79754,0.21255
2460.72601,0.21118
2462.65448,0.21062
2464.58295,0.21082
2466.51142,0.20979
2468.43988,0.20784
2470.36835,0.20715
2472.29682,0.20813
2474.22529,0.20888
2476.15376,0.20784
2478.08223,0.20646
2480.01070,0.20734
2481.93916,0.20940
2483.86763,0.21127
2485.79610,0.21285
2487.72457,0.21236
2489.65304,0.21057
2491.58151,0.21023
2493.50998,0.21103
2495.43844,0.21154
2497.36691,0.21124
2499.29538,0.21024
2501.22385,0.20846
2503.15232,0.20724
2505.08079,0.20864
2507.00926,0.21115
2508.93773,0.21235
2510.86619,0.21214
2512.79466,0.21270
2514.72313,0.21453
2516.65160,0.21434
2518.58007,0.21217
2520.50854,0.21006
2522.43701,0.20830
2524.36547,0.20859
2526.29394,0.20962
2528.22241,0.20901
2530.15088,0.20929
2532.07935,0.21076
2534.00782,0.21046
2535.93629,0.20910
2537.86476,0.20875
2539.79322,0.20931
2541.72169,0.21096
2543.65016,0.21387
2545.57863,0.21558
2547.50710,0.21413
2549.43557,0.21287
2551.36404,0.21412
2553.29250,0.21361
2555.22097,0.21189
2557.14944,0.21367
2559.07791,0.21546
2561.00638,0.21426
2562.93485,0.21330
2564.86332,0.21365
2566.79179,0.21337
2568.72025,0.21127
2570.64872,0.20951
2572.57719,0.21124
2574.50566,0.21481
2576.43413,0.21777
2578.36260,0.21987
2580.29107,0.21899
2582.21953,0.21529
2584.14800,0.21298
2586.07647,0.21410
2588.00494,0.21604
2589.93341,0.21431
2591.86188,0.20944
2593.79035,0.20695
2595.71882,0.20926
2597.64728,0.21412
2599.57575,0.21879
2601.50422,0.22155
2603.43269,0.22209
2605.36116,0.22145
2607.28963,0.21930
2609.21810,0.21497
2611.14656,0.21254
2613.07503,0.21584
2615.00350,0.21955
2616.93197,0.21869
2618.86044,0.21703
2620.78891,0.21704
2622.71738,0.21546
2624.64585,0.21180
2626.57431,0.21174
2628.50278,0.21624
2630.43125,0.21853
2632.35972,0.21689
2634.28819,0.21565
2636.21666,0.21665
2638.14513,0.21762
2640.07359,0.21704
2642.00206,0.21687
2643.93053,0.21856
2645.85900,0.22109
2647.78747,0.22167
2649.71594,0.21932
2651.64441,0.21694
2653.57288,0.21523
2655.50134,0.21333
2657.42981,0.21334
2659.35828,0.21471
2661.28675,0.21405
2663.21522,0.21158
2665.14369,0.21082
2667.07216,0.21434
2669.00062,0.21873
2670.92909,0.21793
2672.85756,0.21380
2674.78603,0.21260
2676.71450,0.21384
2678.64297,0.21451
2680.57144,0.21664
2682.49990,0.22095
2684.42837,0.22393
2686.35684,0.22424
2688.28531,0.22211
2690.21378,0.21691
2692.14225,0.21175
2694.07072,0.21122
2695.99919,0.21429
2697.92765,0.21773
2699.85612,0.22008
2701.78459,0.22101
2703.71306,0.22136
2705.64153,0.22272
2707.57000,0.22498
2709.49847,0.22547
2711.42693,0.22354
2713.35540,0.22173
2715.28387,0.22155
2717.21234,0.22241
2719.14081,0.22253
2721.06928,0.22114
2722.99775,0.22060
2724.92622,0.22203
2726.85468,0.22417
2728.78315,0.22655
2730.71162,0.22687
2732.64009,0.22454
2734.56856,0.22274
2736.49703,0.22139
2738.42550,0.21967
2740.35396,0.22016
2742.28243,0.22336
2744.21090,0.22604
2746.13937,0.22601
2748.06784,0.22403
2749.99631,0.22171
2751.92478,0.22050
2753.85325,0.22104
2755.78171,0.22328
2757.71018,0.22590
2759.63865,0.22529
2761.56712,0.22217
2763.49559,0.22204
2765.42406,0.22572
2767.35253,0.22894
2769.28099,0.22758
2771.20946,0.22509
2773.13793,0.22701
2775.06640,0.22886
2776.99487,0.22821
2778.92334,0.22748
2780.85181,0.22581
2782.78028,0.22418
2784.70874,0.22415
2786.63721,0.22545
2788.56568,0.22697
2790.49415,0.22735
2792.42262,0.22759
2794.35109,0.22894
2796.27956,0.22951
2798.20802,0.22884
2800.13649,0.23024
2802.06496,0.23319
2803.99343,0.23426
2805.92190,0.23367
2807.85037,0.23341
2809.77884,0.23288
2811.70731,0.23157
2813.63577,0.23363
2815.56424,0.23909
2817.49271,0.24053
2819.42118,0.23565
2821.34965,0.23047
2823.27812,0.22848
2825.20659,0.22767
2827.13505,0.22729
2829.06352,0.22806
2830.99199,0.22921
2832.92046,0.22842
2834.84893,0.22760
2836.77740,0.22963
2838.70587,0.23010
2840.63433,0.22918
2842.56280,0.23184
2844.49127,0.23577
2846.41974,0.23745
2848.34821,0.23532
2850.27668,0.22930
2852.20515,0.22349
2854.13362,0.22118
2856.06208,0.22381
2857.99055,0.22951
2859.91902,0.23188
2861.84749,0.23069
2863.77596,0.22906
2865.70443,0.22666
2867.63290,0.22587
2869.56136,0.22923
2871.48983,0.23323
2873.41830,0.23232
2875.34677,0.22859
2877.27524,0.22747
2879.20371,0.22869
2881.13218,0.22980
2883.06065,0.22779
2884.98911,0.22315
2886.91758,0.22171
2888.84605,0.22469
2890.77452,0.22560
2892.70299,0.22182
2894.63146,0.22132
2896.55993,0.22677
2898.48839,0.22992
2900.41686,0.22854
2902.34533,0.22688
2904.27380,0.22462
2906.20227,0.22133
2908.13074,0.22099
2910.05921,0.22418
2911.98768,0.22730
2913.91614,0.22849
2915.84461,0.22737
2917.77308,0.22414
2919.70155,0.22134
2921.63002,0.22212
2923.55849,0.22853
2925.48696,0.24081
2927.41542,0.24899
2929.34389,0.24220
2931.27236,0.22891
2933.20083,0.22300
2935.12930,0.22156
2937.05777,0.21926
2938.98624,0.22171
2940.91471,0.22792
2942.84317,0.23063
2944.77164,0.22845
2946.70011,0.22484
2948.62858,0.22732
2950.55705,0.23394
2952.48552,0.23493
2954.41399,0.22976
2956.34245,0.22198
2958.27092,0.21628
2960.19939,0.21877
2962.12786,0.22782
2964.05633,0.23446
2965.98480,0.23292
2967.91327,0.22896
2969.84174,0.22839
2971.77020,0.22773
2973.69867,0.22969
2975.62714,0.23541
2977.55561,0.23707
2979.48408,0.23572
2981.41255,0.23570
2983.34102,0.23790
2985.26948,0.23951
2987.19795,0.23460
2989.12642,0.22787
2991.05489,0.22774
2992.98336,0.22992
2994.91183,0.22840
2996.84030,0.22752
2998.76877,0.23098
3000.69723,0.23427
3002.62570,0.23586
3004.55417,0.23903
3006.48264,0.23982
3008.41111,0.23339
3010.33958,0.22374
3012.26805,0.21467
3014.19651,0.20304
3016.12498,0.19189
3018.05345,0.19828
3019.98192,0.22152
3021.91039,0.23771
3023.83886,0.24009
3025.76733,0.23781
3027.69579,0.23507
3029.62426,0.23329
3031.55273,0.23316
3033.48120,0.23396
3035.40967,0.23525
3037.33814,0.23612
3039.26661,0.23654
3041.19508,0.23710
3043.12354,0.23709
3045.05201,0.23523
3046.98048,0.23077
3048.90895,0.22794
3050.83742,0.22997
3052.76589,0.23260
3054.69436,0.23150
3056.62282,0.22850
3058.55129,0.22964
3060.47976,0.23377
3062.40823,0.23491
3064.33670,0.23224
3066.26517,0.22955
3068.19364,0.23103
3070.12211,0.23422
3072.05057,0.23498
3073.97904,0.23285
3075.90751,0.22948
3077.83598,0.22922
3079.76445,0.23163
3081.69292,0.23193
3083.62139,0.22697
3085.54985,0.21808
3087.47832,0.21507
3089.40679,0.22200
3091.33526,0.22697
3093.26373,0.22279
3095.19220,0.22055
3097.12067,0.22758
3099.04914,0.23354
3100.97760,0.23075
3102.90607,0.22687
3104.83454,0.23183
3106.76301,0.23974
3108.69148,0.23928
3110.61995,0.23222
3112.54842,0.22705
3114.47688,0.22754
3116.40535,0.22881
3118.33382,0.22822
3120.26229,0.22952
3122.19076,0.23272
3124.11923,0.23537
3126.04770,0.23543
3127.97617,0.23293
3129.90463,0.23088
3131.83310,0.23072
3133.76157,0.23169
3135.69004,0.23400
3137.61851,0.23635
3139.54698,0.23560
3141.47545,0.23491
3143.40391,0.23924
3145.33238,0.24414
3147.26085,0.24547
3149.18932,0.24696
3151.11779,0.24870
3153.04626,0.24719
3154.97473,0.24301
3156.90320,0.23905
3158.83166,0.23753
3160.76013,0.23890
3162.68860,0.24108
3164.61707,0.24057
3166.54554,0.23867
3168.47401,0.23790
3170.40248,0.23554
3172.33094,0.23273
3174.25941,0.23408
3176.18788,0.23821
3178.11635,0.24095
3180.04482,0.24057
3181.97329,0.23834
3183.90176,0.23619
3185.83022,0.23555
3187.75869,0.23787
3189.68716,0.24131
3191.61563,0.24450
3193.54410,0.24740
3195.47257,0.24700
3197.40104,0.24327
3199.32951,0.23864
3201.25797,0.23651
3203.18644,0.24169
3205.11491,0.25075
3207.04338,0.25191
3208.97185,0.24125
3210.90032,0.23021
3212.82879,0.22706
3214.75725,0.22629
3216.68572,0.22614
3218.61419,0.23131
3220.54266,0.23909
3222.47113,0.24525
3224.39960,0.24841
3226.32807,0.24508
3228.25654,0.23816
3230.18500,0.23576
3232.11347,0.23993
3234.04194,0.24595
3235.97041,0.24645
3237.89888,0.24252
3239.82735,0.24333
3241.75582,0.24759
3243.68428,0.24673
3245.61275,0.24267
3247.54122,0.24138
3249.46969,0.24203
3251.39816,0.24288
3253.32663,0.24085
3255.25510,0.23309
3257.18357,0.22624
3259.11203,0.22651
3261.04050,0.23014
3262.96897,0.23365
3264.89744,0.23543
3266.82591,0.23391
3268.75438,0.23232
3270.68285,0.23285
3272.61131,0.23477
3274.53978,0.23805
3276.46825,0.23954
3278.39672,0.23961
3280.32519,0.24208
3282.25366,0.24368
3284.18213,0.24127
3286.11060,0.23788
3288.03906,0.23759
3289.96753,0.23945
3291.89600,0.24009
3293.82447,0.24057
3295.75294,0.24145
3297.68141,0.24054
3299.60988,0.23637
3301.53834,0.23038
3303.46681,0.22819
3305.39528,0.23098
3307.32375,0.23237
3309.25222,0.23251
3311.18069,0.23424
3313.10916,0.23346
3315.03763,0.23222
3316.96609,0.23481
3318.89456,0.23864
3320.82303,0.24166
3322.75150,0.24299
3324.67997,0.24227
3326.60844,0.24125
3328.53691,0.24167
3330.46537,0.24192
3332.39384,0.24065
3334.32231,0.24058
3336.25078,0.24140
3338.17925,0.23964
3340.10772,0.23826
3342.03619,0.24063
3343.96466,0.24380
3345.89312,0.24812
3347.82159,0.25169
3349.75006,0.24695
3351.67853,0.23661
3353.60700,0.22980
3355.53547,0.22881
3357.46394,0.23226
3359.39240,0.23684
3361.32087,0.23837
3363.24934,0.23830
3365.17781,0.23887
3367.10628,0.23669
3369.03475,0.23171
3370.96322,0.23032
3372.89168,0.23298
3374.82015,0.23324
3376.74862,0.23203
3378.67709,0.23489
3380.60556,0.23959
3382.53403,0.24021
3384.46250,0.23592
3386.39097,0.23192
3388.31943,0.23347
3390.24790,0.23752
3392.17637,0.23978
3394.10484,0.24152
3396.03331,0.24011
3397.96178,0.23325
3399.89025,0.22729
3401.81871,0.22835
3403.74718,0.23228
3405.67565,0.23376
3407.60412,0.23409
3409.53259,0.23181
3411.46106,0.22933
3413.38953,0.23004
3415.31800,0.23089
3417.24646,0.23455
3419.17493,0.24133
3421.10340,0.24346
3423.03187,0.23930
3424.96034,0.23763
3426.88881,0.24268
3428.81728,0.24401
3430.74574,0.23511
3432.67421,0.22871
3434.60268,0.23203
3436.53115,0.23315
3438.45962,0.22677
3440.38809,0.22054
3442.31656,0.22126
3444.24503,0.22751
3446.17349,0.23306
3448.10196,0.23520
3450.03043,0.23368
3451.95890,0.22966
3453.88737,0.22322
3455.81584,0.21768
3457.74431,0.21766
3459.67277,0.21869
3461.60124,0.21694
3463.52971,0.21341
3465.45818,0.21111
3467.38665,0.21379
3469.31512,0.21688
3471.24359,0.21495
3473.17206,0.21225
3475.10052,0.21050
3477.02899,0.20845
3478.95746,0.21255
3480.88593,0.22112
3482.81440,0.22314
3484.74287,0.21814
3486.67134,0.21297
3488.59980,0.21392
3490.52827,0.21785
3492.45674,0.21648
3494.38521,0.21357
3496.31368,0.21358
3498.24215,0.21143
3500.17062,0.20707
3502.09909,0.20367
3504.02755,0.19884
3505.95602,0.19506
3507.88449,0.19577
3509.81296,0.19716
3511.74143,0.19812
3513.66990,0.19960
3515.59837,0.19969
3517.52683,0.19983
3519.45530,0.20241
3521.38377,0.20534
3523.31224,0.20716
3525.24071,0.21038
3527.16918,0.21132
3529.09765,0.20409
3531.02611,0.19657
3532.95458,0.19655
3534.88305,0.19849
3536.81152,0.19476
3538.73999,0.18832
3540.66846,0.18634
3542.59693,0.18738
3544.52540,0.18712
3546.45386,0.18575
3548.38233,0.18711
3550.31080,0.19383
3552.23927,0.20022
3554.16774,0.19767
3556.09621,0.18949
3558.02468,0.18382
3559.95314,0.18490
3561.88161,0.19095
3563.81008,0.19725
3565.73855,0.20274
3567.66702,0.20175
3569.59549,0.19278
3571.52396,0.18542
3573.45243,0.18307
3575.38089,0.18543
3577.30936,0.18778
3579.23783,0.18524
3581.16630,0.18035
3583.09477,0.17905
3585.02324,0.18217
3586.95171,0.18292
3588.88017,0.17693
3590.80864,0.17153
3592.73711,0.16916
3594.66558,0.16931
3596.59405,0.17207
3598.52252,0.17281
3600.45099,0.16797
3602.37946,0.16442
3604.30792,0.16901
3606.23639,0.17793
3608.16486,0.18254
3610.09333,0.17988
3612.02180,0.17865
3613.95027,0.18128
3615.87874,0.18154
3617.80720,0.17837
3619.73567,0.17146
3621.66414,0.16454
3623.59261,0.16560
3625.52108,0.17369
3627.44955,0.18245
3629.37802,0.17963
3631.30649,0.16438
3633.23495,0.15221
3635.16342,0.14819
3637.09189,0.15114
3639.02036,0.15600
3640.94883,0.16126
3642.87730,0.16804
3644.80577,0.17550
3646.73423,0.18111
3648.66270,0.17700
3650.59117,0.16475
3652.51964,0.16107
3654.44811,0.16127
3656.37658,0.15956
3658.30505,0.15752
3660.23352,0.15721
3662.16198,0.15649
3664.09045,0.15434
3666.01892,0.15340
3667.94739,0.15588
3669.87586,0.15982
3671.80433,0.16427
3673.73280,0.17348
3675.66126,0.18125
3677.58973,0.17230
3679.51820,0.15943
3681.44667,0.15317
3683.37514,0.15280
3685.30361,0.15772
3687.23208,0.17102
3689.16055,0.18335
3691.08901,0.17524
3693.01748,0.16137
3694.94595,0.15413
3696.87442,0.15251
3698.80289,0.15457
3700.73136,0.15576
3702.65983,0.15258
3704.58829,0.14892
3706.51676,0.14982
3708.44523,0.15331
3710.37370,0.15308
3712.30217,0.15193
3714.23064,0.15099
3716.15911,0.14542
3718.08757,0.14322
3720.01604,0.14978
3721.94451,0.15478
3723.87298,0.15368
3725.80145,0.15164
3727.72992,0.14957
3729.65839,0.14855
3731.58686,0.14888
3733.51532,0.15332
3735.44379,0.16394
3737.37226,0.16832
3739.30073,0.16414
3741.22920,0.16052
3743.15767,0.16211
3745.08614,0.16435
3747.01460,0.16189
3748.94307,0.16305
3750.87154,0.16408
3752.80001,0.15661
3754.72848,0.15213
3756.65695,0.15245
3758.58542,0.15132
3760.51389,0.14594
3762.44235,0.14521
3764.37082,0.15161
3766.29929,0.15424
3768.22776,0.14798
3770.15623,0.14104
3772.08470,0.14056
3774.01317,0.14121
3775.94163,0.13806
3777.87010,0.13829
3779.79857,0.14618
3781.72704,0.15165
3783.65551,0.15068
3785.58398,0.14548
3787.51245,0.13996
3789.44092,0.13812
3791.36938,0.14009
3793.29785,0.14590
3795.22632,0.15234
3797.15479,0.15170
3799.08326,0.14866
3801.01173,0.15183
3802.94020,0.15447
3804.86866,0.15027
3806.79713,0.13900
3808.72560,0.12763
3810.65407,0.12515
3812.58254,0.12750
3814.51101,0.13301
3816.43948,0.14161
3818.36795,0.14642
3820.29641,0.14833
3822.22488,0.14855
3824.15335,0.14316
3826.08182,0.13567
3828.01029,0.13042
3829.93876,0.13090
3831.86723,0.13647
3833.79569,0.14182
3835.72416,0.14901
3837.65263,0.16055
3839.58110,0.16089
3841.50957,0.14931
3843.43804,0.14105
3845.36651,0.13996
3847.29498,0.14257
3849.22344,0.14746
3851.15191,0.15769
3853.08038,0.16781
3855.00885,0.15675
3856.93732,0.14412
3858.86579,0.13931
3860.79426,0.13917
3862.72272,0.14497
3864.65119,0.14984
3866.57966,0.14540
3868.50813,0.14080
3870.43660,0.14417
3872.36507,0.14927
3874.29354,0.14423
3876.22200,0.13469
3878.15047,0.13360
3880.07894,0.13804
3882.00741,0.13838
3883.93588,0.13776
3885.86435,0.13813
3887.79282,0.13583
3889.72129,0.13595
3891.64975,0.13746
3893.57822,0.13336
3895.50669,0.13037
3897.43516,0.13242
3899.36363,0.13721
3901.29210,0.14307
3903.22057,0.14902
3905.14903,0.14935
3907.07750,0.14111
3909.00597,0.13086
3910.93444,0.12247
3912.86291,0.11948
3914.79138,0.12461
3916.71985,0.13319
3918.64832,0.13529
3920.57678,0.13002
3922.50525,0.12684
3924.43372,0.12998
3926.36219,0.13321
3928.29066,0.12976
3930.21913,0.12285
3932.14760,0.11991
3934.07606,0.12116
3936.00453,0.12251
3937.93300,0.12206
3939.86147,0.12166
3941.78994,0.12342
3943.71841,0.12402
3945.64688,0.12508
3947.57535,0.12938
3949.50381,0.12912
3951.43228,0.12335
3953.36075,0.12148
3955.28922,0.12363
3957.21769,0.12544
3959.14616,0.12403
3961.07463,0.11754
3963.00309,0.11196
3964.93156,0.11442
3966.86003,0.11989
3968.78850,0.12050
3970.71697,0.11720
3972.64544,0.11590
3974.57391,0.12010
3976.50238,0.12636
3978.43084,0.12895
3980.35931,0.12648
3982.28778,0.12065
3984.21625,0.11700
3986.14472,0.11771
3988.07319,0.11782
3990.00166,0.11557
3991.93012,0.11412
3993.85859,0.11411
3995.78706,0.11244
3997.71553,0.11124
3999.64400,0.11519
4001.57247,0.12003
4003.50094,0.12013
4005.42941,0.11702
4007.35787,0.11465
4009.28634,0.11421
4011.21481,0.11316
4013.14328,0.11202
4015.07175,0.11386
4017.00022,0.11593
4018.92869,0.11451
4020.85715,0.11266
4022.78562,0.11310
4024.71409,0.11112
4026.64256,0.10631
4028.57103,0.10579
4030.49950,0.11051
4032.42797,0.11796
4034.35644,0.12342
4036.28490,0.12136
4038.21337,0.11735
4040.14184,0.11458
4042.07031,0.10870
4043.99878,0.10537
4045.92725,0.10835
4047.85572,0.10929
4049.78418,0.10602
4051.71265,0.10357
4053.64112,0.10272
4055.56959,0.10251
4057.49806,0.10422
4059.42653,0.10705
4061.35500,0.10912
4063.28346,0.11262
4065.21193,0.11613
4067.14040,0.11541
4069.06887,0.11069
4070.99734,0.10468
4072.92581,0.10190
4074.85428,0.10285
4076.78275,0.10280
4078.71121,0.09934
4080.63968,0.09429
4082.56815,0.09285
4084.49662,0.09658
4086.42509,0.10086
4088.35356,0.10381
4090.28203,0.10564
4092.21049,0.10356
4094.13896,0.09950
4096.06743,0.09702
4097.99590,0.09449
4099.92437,0.09441
4101.85284,0.09699
4103.78131,0.09730
4105.70978,0.09942
4107.63824,0.10505
4109.56671,0.10739
4111.49518,0.10660
4113.42365,0.10579
4115.35212,0.10294
4117.28059,0.09466
4119.20906,0.08414
4121.13752,0.08238
4123.06599,0.09120
4124.99446,0.09839
4126.92293,0.09731
4128.85140,0.09521
4130.77987,0.09763
4132.70834,0.09869
4134.63681,0.09754
4136.56527,0.10094
4138.49374,0.10423
4140.42221,0.10225
4142.35068,0.10262
4144.27915,0.10398
4146.20762,0.09865
4148.13609,0.09417
4150.06455,0.09510
4151.99302,0.09504
4153.92149,0.09480
4155.84996,0.09608
4157.77843,0.09582
4159.70690,0.09526
4161.63537,0.09444
4163.56384,0.09032
4165.49230,0.08709
4167.42077,0.08992
4169.34924,0.09360
4171.27771,0.09171
4173.20618,0.08867
4175.13465,0.09028
4177.06312,0.09607
4178.99158,0.10262
4180.92005,0.10426
4182.84852,0.09895
4184.77699,0.08860
4186.70546,0.07921
4188.63393,0.07915
4190.56240,0.09005
4192.49087,0.10463
4194.41933,0.10716
4196.34780,0.09421
4198.27627,0.08138
4200.20474,0.07886
4202.13321,0.08487
4204.06168,0.09104
4205.99015,0.09107
4207.91861,0.08638
4209.84708,0.08212
4211.77555,0.08492
4213.70402,0.09451
4215.63249,0.09718
4217.56096,0.08449
4219.48943,0.07174
4221.41789,0.07346
4223.34636,0.08123
4225.27483,0.08269
4227.20330,0.07998
4229.13177,0.08172
4231.06024,0.08643
4232.98871,0.08490
4234.91718,0.07983
4236.84564,0.07973
4238.77411,0.07957
4240.70258,0.07538
4242.63105,0.07512
4244.55952,0.08045
4246.48799,0.08227
4248.41646,0.07696
4250.34492,0.07274
4252.27339,0.07536
4254.20186,0.07909
4256.13033,0.07941
4258.05880,0.07677
4259.98727,0.07161
4261.91574,0.06903
4263.84421,0.06869
4265.77267,0.06727
4267.70114,0.06927
4269.62961,0.07019
4271.55808,0.06462
4273.48655,0.06266
4275.41502,0.06769
4277.34349,0.06846
4279.27195,0.06398
4281.20042,0.06666
4283.12889,0.07459
4285.05736,0.07503
4286.98583,0.07133
4288.91430,0.07164
4290.84277,0.07182
4292.77124,0.06730
4294.69970,0.06493
4296.62817,0.06948
4298.55664,0.07283
4300.48511,0.06994
4302.41358,0.06433
4304.34205,0.06074
4306.27052,0.05987
4308.19898,0.05978
4310.12745,0.06172
4312.05592,0.06280
4313.98439,0.05874
4315.91286,0.05298
4317.84133,0.05108
4319.76980,0.05585
4321.69827,0.06468
4323.62673,0.06698
4325.55520,0.06209
4327.48367,0.06147
4329.41214,0.06151
4331.34061,0.05461
4333.26908,0.04489
4335.19755,0.04205
4337.12601,0.05036
4339.05448,0.05919
4340.98295,0.06547
4342.91142,0.07188
4344.83989,0.06874
4346.76836,0.05566
4348.69683,0.04670
4350.62530,0.04580
4352.55376,0.04580
4354.48223,0.04206
4356.41070,0.03760
4358.33917,0.03974
4360.26764,0.04953
4362.19611,0.06068
4364.12458,0.06544
4366.05304,0.06430
4367.98151,0.06495
4369.90998,0.06770
4371.83845,0.06608
4373.76692,0.05810
4375.69539,0.05186
4377.62386,0.05119
4379.55232,0.04911
4381.48079,0.04609
4383.40926,0.04794
4385.33773,0.05274
4387.26620,0.05467
4389.19467,0.05180
4391.12314,0.04527
4393.05161,0.03926
4394.98007,0.04368
4396.90854,0.05628
4398.83701,0.06064
4400.76548,0.05630
4402.69395,0.05152
4404.62242,0.04658
4406.55089,0.04234
4408.47935,0.04022
4410.40782,0.04123
4412.33629,0.04424
4414.26476,0.04578
4416.19323,0.04189
4418.12170,0.03185
4420.05017,0.02459
4421.97864,0.02594
4423.90710,0.02798
4425.83557,0.02491
4427.76404,0.02539
4429.69251,0.03456
4431.62098,0.04418
4433.54945,0.04784
4435.47792,0.04605
4437.40638,0.04423
4439.33485,0.04659
4441.26332,0.04798
4443.19179,0.04174
4445.12026,0.03443
4447.04873,0.03556
4448.97720,0.03906
4450.90567,0.03678
4452.83413,0.02978
4454.76260,0.02325
4456.69107,0.02320
4458.61954,0.02663
4460.54801,0.02724
4462.47648,0.02671
4464.40495,0.02761
4466.33341,0.03064
4468.26188,0.03323
4470.19035,0.03412
4472.11882,0.03498
4474.04729,0.03415
4475.97576,0.03174
4477.90423,0.02954
4479.83270,0.02977
4481.76116,0.03366
4483.68963,0.03691
4485.61810,0.03828
4487.54657,0.03899
4489.47504,0.03670
4491.40351,0.03073
4493.33198,0.02259
4495.26044,0.01715
4497.18891,0.01705
4499.11738,0.01497
4501.04585,0.01153
4502.97432,0.01687
4504.90279,0.02735
4506.83126,0.03685
4508.75973,0.05066
4510.68819,0.05805
4512.61666,0.04119
4514.54513,0.01701
4516.47360,0.01028
4518.40207,0.01862
4520.33054,0.02835
4522.25901,0.02745
4524.18747,0.01948
4526.11594,0.01815
4528.04441,0.02009
4529.97288,0.01635
4531.90135,0.01372
4533.82982,0.01704
4535.75829,0.01821
4537.68676,0.01710
4539.61522,0.02152
4541.54369,0.02445
4543.47216,0.01869
4545.40063,0.01171
4547.32910,0.00720
4549.25757,0.00717
4551.18604,0.01539
4553.11450,0.02490
4555.04297,0.02267
4556.97144,0.01059
4558.89991,0.00511
4560.82838,0.00714
4562.75685,0.00610
4564.68532,0.00398
4566.61378,0.00714
4568.54225,0.01089
4570.47072,0.01094
4572.39919,0.01394
4574.32766,0.01746
4576.25613,0.01453
4578.18460,0.01307
4580.11307,0.01593
4582.04153,0.01545
4583.97000,0.01241
4585.89847,0.01152
4587.82694,0.00994
4589.75541,0.00409
4591.68388,-0.00026
4593.61235,0.00113
4595.54081,0.00586
4597.46928,0.01642
4599.39775,0.02906
4601.32622,0.02947
4603.25469,0.01697
4605.18316,0.00998
4607.11163,0.01464
4609.04010,0.01640
4610.96856,0.01546
4612.89703,0.02352
4614.82550,0.03261
4616.75397,0.03087
4618.68244,0.02634
4620.61091,0.02503
4622.53938,0.02336
4624.46784,0.02695
4626.39631,0.03419
4628.32478,0.03240
4630.25325,0.02107
4632.18172,0.01120
4634.11019,0.01115
4636.03866,0.01283
4637.96713,0.00830
4639.89559,0.00473
4641.82406,0.00873
4643.75253,0.02026
4645.68100,0.02856
4647.60947,0.02298
4649.53794,0.01299
4651.46641,0.01178
4653.39487,0.01935
4655.32334,0.02654
4657.25181,0.02714
4659.18028,0.02126
4661.10875,0.00726
4663.03722,-0.00395
4664.96569,-0.00061
4666.89416,0.00670
4668.82262,0.01529
4670.75109,0.02546
4672.67956,0.02541
4674.60803,0.02036
4676.53650,0.01428
4678.46497,0.00313
4680.39344,-0.00084
4682.32190,0.00552
4684.25037,0.00917
4686.17884,0.00395
4688.10731,-0.00427
4690.03578,-0.00135
4691.96425,0.00841
4693.89272,0.00797
4695.82119,0.00833
4697.74965,0.01932
4699.67812,0.02258
4701.60659,0.01002
4703.53506,-0.00229
4705.46353,-0.00338
4707.39200,0.00232
4709.32047,0.00996
4711.24893,0.01674
4713.17740,0.02355
4715.10587,0.03065
4717.03434,0.03132
4718.96281,0.02338
4720.89128,0.01257
4722.81975,0.00639
4724.74821,0.00631
4726.67668,0.00806
4728.60515,0.00914
4730.53362,0.01267
4732.46209,0.01745
4734.39056,0.01636
4736.31903,0.01420
4738.24750,0.01467
4740.17596,0.00792
4742.10443,-0.00368
4744.03290,-0.00132
4745.96137,0.01276
4747.88984,0.01607
4749.81831,0.00499
4751.74678,-0.00531
4753.67524,-0.00917
4755.60371,-0.01011
4757.53218,-0.00421
4759.46065,0.00203
4761.38912,0.00024
4763.31759,0.00161
4765.24606,0.00610
4767.17453,0.00563
4769.10299,0.00086
4771.03146,-0.00430
4772.95993,-0.00371
4774.88840,-0.00263
4776.81687,-0.00594
4778.74534,-0.00667
4780.67381,-0.00445
4782.60227,-0.00429
4784.53074,-0.00531
4786.45921,-0.00635
4788.38768,-0.00857
4790.31615,-0.01338
4792.24462,-0.01884
4794.17309,-0.01757
4796.10156,-0.01059
4798.03002,-0.00061
4799.95849,0.01294
4801.88696,0.01718
4803.81543,0.01002
4805.74390,0.00996
4807.67237,0.01962
4809.60084,0.02533
4811.52930,0.01904
4813.45777,0.00865
4815.38624,0.00722
4817.31471,0.00859
4819.24318,0.00627
4821.17165,0.00623
4823.10012,0.00672
4825.02859,0.01196
4826.95705,0.02932
4828.88552,0.03992
4830.81399,0.02947
4832.74246,0.01416
4834.67093,0.01076
4836.59940,0.01581
4838.52787,0.01441
4840.45633,0.00675
4842.38480,0.00917
4844.31327,0.02388
4846.24174,0.03491
4848.17021,0.02936
4850.09868,0.01202
4852.02715,-0.00264
4853.95562,-0.00693
4855.88408,-0.00234
4857.81255,0.00695
4859.74102,0.01512
4861.66949,0.01148
4863.59796,0.00034
4865.52643,-0.00491
4867.45490,-0.00783
4869.38336,-0.00689
4871.31183,0.00401
4873.24030,0.01088
4875.16877,0.00279
4877.09724,-0.00257
4879.02571,0.01108
4880.95418,0.02314
4882.88265,0.01179
4884.81111,-0.00490
4886.73958,-0.00663
4888.66805,0.00334
4890.59652,0.01503
4892.52499,0.01422
4894.45346,0.00281
4896.38193,0.00473
4898.31039,0.01943
4900.23886,0.02280
4902.16733,0.01574
4904.09580,0.01509
4906.02427,0.02167
4907.95274,0.03039
4909.88121,0.03738
4911.80967,0.03701
4913.73814,0.03675
4915.66661,0.04210
4917.59508,0.04375
4919.52355,0.03457
4921.45202,0.02142
4923.38049,0.01921
4925.30896,0.02194
4927.23742,0.00772
4929.16589,-0.01521
4931.09436,-0.01954
4933.02283,-0.00633
4934.95130,0.00555
4936.87977,0.00685
4938.80824,-0.00103
4940.73670,-0.00226
4942.66517,0.00894
4944.59364,0.01681
4946.52211,0.01195
4948.45058,0.00271
4950.37905,-0.00139
4952.30752,-0.00057
4954.23599,0.00321
4956.16445,0.00466
4958.09292,-0.00095
4960.02139,-0.00716
4961.94986,-0.00868
4963.87833,-0.00254
4965.80680,0.01768
4967.73527,0.03460
4969.66373,0.02965
4971.59220,0.02065
4973.52067,0.01461
4975.44914,0.00748
4977.37761,0.00912
4979.30608,0.01494
4981.23455,0.02402
4983.16302,0.03510
4985.09148,0.03581
4987.01995,0.03151
4988.94842,0.02281
4990.87689,0.00206
4992.80536,-0.01359
4994.73383,-0.00841
4996.66230,0.00044
4998.59076,0.00020
5000.51923,0.00445
5002.44770,0.01182
5004.37617,0.01213
5006.30464,0.01962
5008.23311,0.03147
5010.16158,0.02841
5012.09005,0.01488
5014.01851,0.00681
5015.94698,0.01319
5017.87545,0.01612
5019.80392,0.00360
5021.73239,-0.00045
5023.66086,0.01033
5025.58933,0.01869
5027.51779,0.01861
5029.44626,0.01081
5031.37473,-0.00129
5033.30320,-0.00189
5035.23167,0.01379
5037.16014,0.02809
5039.08861,0.02852
5041.01708,0.01477
5042.94554,0.00240
5044.87401,0.00026
5046.80248,-0.00463
5048.73095,-0.00931
5050.65942,-0.00204
5052.58789,0.00568
5054.51636,0.00292
5056.44482,0.00125
5058.37329,0.01100
5060.30176,0.02433
5062.23023,0.03412
5064.15870,0.03529
5066.08717,0.02208
5068.01564,0.00596
5069.94410,-0.00178
5071.87257,0.00053
5073.80104,0.01002
5075.72951,0.01179
5077.65798,0.00083
5079.58645,-0.01509
5081.51492,-0.02704
5083.44339,-0.02231
5085.37185,-0.00440
5087.30032,0.01129
5089.22879,0.01986
5091.15726,0.02225
5093.08573,0.02544
5095.01420,0.03025
5096.94267,0.02636
5098.87113,0.01740
5100.79960,0.01103
5102.72807,0.01177
5104.65654,0.02225
5106.58501,0.03324
5108.51348,0.03918
5110.44195,0.03258
5112.37042,0.00756
5114.29888,-0.00873
5116.22735,0.00381
5118.15582,0.02483
5120.08429,0.04230
5122.01276,0.05859
5123.94123,0.06103
5125.86970,0.04165
5127.79816,0.01786
5129.72663,0.01070
5131.65510,0.01820
5133.58357,0.02765
5135.51204,0.03144
5137.44051,0.03178
5139.36898,0.02575
5141.29745,0.01340
5143.22591,0.01396
5145.15438,0.02779
5147.08285,0.04261
5149.01132,0.04967
5150.93979,0.04528
5152.86826,0.04132
5154.79673,0.03753
5156.72519,0.02963
5158.65366,0.02046
5160.58213,0.01203
5162.51060,0.01161
5164.43907,0.01970
5166.36754,0.02528
5168.29601,0.02572
5170.22448,0.03258
5172.15294,0.03851
5174.08141,0.02961
5176.00988,0.02303
5177.93835,0.02457
5179.86682,0.02392
5181.79529,0.03273
5183.72376,0.05111
5185.65222,0.06053
5187.58069,0.05919
5189.50916,0.04934
5191.43763,0.03504
5193.36610,0.03642
5195.29457,0.06077
5197.22304,0.07823
5199.15151,0.06699
5201.07997,0.05206
5203.00844,0.04961
5204.93691,0.05161
5206.86538,0.04964
5208.79385,0.03658
5210.72232,0.02568
5212.65079,0.03438
5214.57925,0.05272
5216.50772,0.05865
5218.43619,0.05365
5220.36466,0.05325
5222.29313,0.06058
5224.22160,0.07623
5226.15007,0.08558
5228.07854,0.06825
5230.00700,0.04941
5231.93547,0.05096
5233.86394,0.04915
5235.79241,0.03759
5237.72088,0.03352
5239.64935,0.02957
5241.57782,0.02917
5243.50628,0.04388
5245.43475,0.05355
5247.36322,0.04676
5249.29169,0.03653
5251.22016,0.03309
5253.14863,0.03930
5255.07710,0.04510
5257.00556,0.04404
5258.93403,0.05301
5260.86250,0.06881
5262.79097,0.06652
5264.71944,0.05245
5266.64791,0.04627
5268.57638,0.05893
5270.50485,0.08578
5272.43331,0.09306
5274.36178,0.07318
5276.29025,0.04985
5278.21872,0.03861
5280.14719,0.03828
5282.07566,0.03764
5284.00413,0.03707
5285.93259,0.04057
5287.86106,0.03663
5289.78953,0.02417
5291.71800,0.02656
5293.64647,0.04508
5295.57494,0.05770
5297.50341,0.06085
5299.43188,0.06147
5301.36034,0.06809
5303.28881,0.07546
5305.21728,0.06718
5307.14575,0.05090
5309.07422,0.05137
5311.00269,0.07066
5312.93116,0.07746
5314.85962,0.05825
5316.78809,0.04523
5318.71656,0.05443
5320.64503,0.06508
5322.57350,0.06665
5324.50197,0.05812
5326.43044,0.04998
5328.35891,0.05641
5330.28737,0.05791
5332.21584,0.03994
5334.14431,0.01678
5336.07278,0.01284
5338.00125,0.04072
5339.92972,0.06644
5341.85819,0.06558
5343.78665,0.05393
5345.71512,0.04675
5347.64359,0.05416
5349.57206,0.05971
5351.50053,0.05061
5353.42900,0.04887
5355.35747,0.05992
5357.28594,0.06827
5359.21440,0.07776
5361.14287,0.07938
5363.07134,0.05914
5364.99981,0.03547
5366.92828,0.03716
5368.85675,0.05027
5370.78522,0.04913
5372.71368,0.05017
5374.64215,0.07175
5376.57062,0.08755
5378.49909,0.08122
5380.42756,0.06981
5382.35603,0.04566
5384.28450,0.01321
5386.21297,0.00708
5388.14143,0.03176
5390.06990,0.06933
5391.99837,0.09889
5393.92684,0.10897
5395.85531,0.11300
5397.78378,0.10079
5399.71225,0.07565
5401.64071,0.07412
5403.56918,0.08869
5405.49765,0.09631
5407.42612,0.10669
5409.35459,0.11062
5411.28306,0.08607
5413.21153,0.04481
5415.13999,0.02609
5417.06846,0.03901
5418.99693,0.05846
5420.92540,0.07221
5422.85387,0.08062
5424.78234,0.07183
5426.71081,0.04704
5428.63928,0.04093
5430.56774,0.06732
5432.49621,0.09328
5434.42468,0.09871
5436.35315,0.09350
5438.28162,0.09315
5440.21009,0.08687
5442.13856,0.06022
5444.06702,0.03700
5445.99549,0.04632
5447.92396,0.07894
5449.85243,0.10078
5451.78090,0.09808
5453.70937,0.08885
5455.63784,0.07865
5457.56631,0.06307
5459.49477,0.06301
5461.42324,0.08190
5463.35171,0.09125
5465.28018,0.08656
5467.20865,0.07857
5469.13712,0.06437
5471.06559,0.05478
5472.99405,0.05862
5474.92252,0.06786
5476.85099,0.07513
5478.77946,0.07594
5480.70793,0.08491
5482.63640,0.11142
5484.56487,0.12772
5486.49334,0.11510
5488.42180,0.09463
5490.35027,0.08370
5492.27874,0.08520
5494.20721,0.09400
5496.13568,0.08807
5498.06415,0.07052
5499.99262,0.07693
5501.92108,0.10819
5503.84955,0.10913
5505.77802,0.07366
5507.70649,0.05884
5509.63496,0.07381
5511.56343,0.08435
5513.49190,0.09028
5515.42037,0.10361
5517.34883,0.10885
5519.27730,0.09984
5521.20577,0.08883
5523.13424,0.06919
5525.06271,0.03808
5526.99118,0.02370
5528.91965,0.04456
5530.84811,0.07216
5532.77658,0.08262
5534.70505,0.08761
5536.63352,0.09552
5538.56199,0.10220
5540.49046,0.10058
5542.41893,0.09027
5544.34740,0.07522
5546.27586,0.06263
5548.20433,0.06655
5550.13280,0.08826
5552.06127,0.10581
5553.98974,0.10232
5555.91821,0.08074
5557.84668,0.05289
5559.77514,0.04424
5561.70361,0.06394
5563.63208,0.08430
5565.56055,0.08435
5567.48902,0.07385
5569.41749,0.07462
5571.34596,0.08966
5573.27443,0.09807
5575.20289,0.09608
5577.13136,0.09186
5579.05983,0.07247
5580.98830,0.03626
5582.91677,0.01690
5584.84524,0.03890
5586.77371,0.08025
5588.70217,0.10052
5590.63064,0.08322
5592.55911,0.04916
5594.48758,0.02182
5596.41605,0.01284
5598.34452,0.03793
5600.27299,0.08608
5602.20145,0.10784
5604.12992,0.08518
5606.05839,0.07046
5607.98686,0.08748
5609.91533,0.09111
5611.84380,0.06112
5613.77227,0.01760
5615.70074,0.01070
5617.62920,0.04897
5619.55767,0.06913
5621.48614,0.06122
5623.41461,0.06118
5625.34308,0.08155
5627.27155,0.11846
5629.20002,0.14787
5631.12848,0.14581
5633.05695,0.12268
5634.98542,0.11545
5636.91389,0.12400
5638.84236,0.11544
5640.77083,0.10460
5642.69930,0.11597
5644.62777,0.12670
5646.55623,0.11859
5648.48470,0.10801
5650.41317,0.10824
5652.34164,0.11894
5654.27011,0.14249
5656.19858,0.16501
5658.12705,0.15420
5660.05551,0.12181
5661.98398,0.10270
5663.91245,0.09201
5665.84092,0.08380
5667.76939,0.08917
5669.69786,0.10442
5671.62633,0.11655
5673.55480,0.12157
5675.48326,0.10964
5677.41173,0.07604
5679.34020,0.04804
5681.26867,0.04455
5683.19714,0.05078
5685.12561,0.05426
5687.05408,0.06219
5688.98254,0.08190
5690.91101,0.11292
5692.83948,0.13203
5694.76795,0.11398
5696.69642,0.08142
5698.62489,0.06723
5700.55336,0.05934
5702.48183,0.04874
5704.41029,0.06456
5706.33876,0.11259
5708.26723,0.15985
5710.19570,0.17690
5712.12417,0.15781
5714.05264,0.12980
5715.98111,0.12636
5717.90957,0.13552
5719.83804,0.11235
5721.76651,0.07521
5723.69498,0.09421
5725.62345,0.14019
5727.55192,0.13759
5729.48039,0.11825
5731.40886,0.12246
5733.33732,0.12308
5735.26579,0.11881
5737.19426,0.11380
5739.12273,0.10249
5741.05120,0.10501
5742.97967,0.12269
5744.90814,0.12364
5746.83660,0.11083
5748.76507,0.12810
5750.69354,0.15350
5752.62201,0.13496
5754.55048,0.09201
5756.47895,0.06851
5758.40742,0.08933
5760.33588,0.11202
5762.26435,0.08190
5764.19282,0.04218
5766.12129,0.03865
5768.04976,0.04248
5769.97823,0.05106
5771.90670,0.08381
5773.83517,0.11566
5775.76363,0.12757
5777.69210,0.12073
5779.62057,0.10196
5781.54904,0.09415
5783.47751,0.10894
5785.40598,0.13855
5787.33445,0.14884
5789.26291,0.11871
5791.19138,0.08213
5793.11985,0.07617
5795.04832,0.10825
5796.97679,0.14088
5798.90526,0.12424
5800.83373,0.07606
5802.76220,0.04452
5804.69066,0.04418
5806.61913,0.07247
5808.54760,0.11382
5810.47607,0.13352
5812.40454,0.11519
5814.33301,0.06602
5816.26148,0.02154
5818.18994,0.03064
5820.11841,0.05594
5822.04688,0.04383
5823.97535,0.05110
5825.90382,0.09146
5827.83229,0.10197
5829.76076,0.07805
5831.68923,0.04921
5833.61769,0.04508
5835.54616,0.08962
5837.47463,0.12393
5839.40310,0.09080
5841.33157,0.03693
5843.26004,0.03262
5845.18851,0.05899
5847.11697,0.06151
5849.04544,0.06060
5850.97391,0.07650
5852.90238,0.06690
5854.83085,0.02971
5856.75932,0.00172
5858.68779,0.00704
5860.61626,0.04044
5862.54472,0.05662
5864.47319,0.05656
5866.40166,0.08326
5868.33013,0.09824
5870.25860,0.08383
5872.18707,0.07168
5874.11554,0.05340
5876.04400,0.05379
5877.97247,0.07945
5879.90094,0.07783
5881.82941,0.06378
5883.75788,0.08108
5885.68635,0.12652
5887.61482,0.16240
5889.54329,0.15167
5891.47175,0.11376
5893.40022,0.09590
5895.32869,0.09180
5897.25716,0.08188
5899.18563,0.08838
5901.11410,0.10530
5903.04257,0.11195
5904.97103,0.11735
5906.89950,0.11359
5908.82797,0.09811
5910.75644,0.09675
5912.68491,0.12984
5914.61338,0.17386
5916.54185,0.17511
5918.47032,0.11978
5920.39878,0.05441
5922.32725,0.05559
5924.25572,0.11082
5926.18419,0.12985
5928.11266,0.11281
5930.04113,0.09724
5931.96960,0.07848
5933.89806,0.05832
5935.82653,0.03854
5937.75500,0.01706
5939.68347,0.00893
5941.61194,0.03965
5943.54041,0.07939
5945.46888,0.08844
5947.39734,0.09474
5949.32581,0.11318
5951.25428,0.12563
5953.18275,0.12969
5955.11122,0.14065
5957.03969,0.14268
5958.96816,0.11637
5960.89663,0.09419
5962.82509,0.09509
5964.75356,0.11783
5966.68203,0.15022
5968.61050,0.15760
5970.53897,0.11654
5972.46744,0.05166
5974.39591,0.04332
5976.32437,0.08484
5978.25284,0.08169
5980.18131,0.04122
5982.10978,0.02980
5984.03825,0.04374
5985.96672,0.05961
5987.89519,0.06476
5989.82366,0.04230
5991.75212,0.03391
5993.68059,0.07921
5995.60906,0.13079
5997.53753,0.16066
5999.46600,0.19298
6001.39447,0.19106
6003.32294,0.13298
6005.25140,0.08246
6007.17987,0.05868
6009.10834,0.01985
6011.03681,-0.01516
6012.96528,-0.00423
6014.89375,0.03758
6016.82222,0.08286
6018.75069,0.11056
6020.67915,0.10202
6022.60762,0.08099
6024.53609,0.07338
6026.46456,0.08166
6028.39303,0.11023
6030.32150,0.13191
6032.24997,0.11006
6034.17843,0.07677
6036.10690,0.08574
6038.03537,0.11030
6039.96384,0.08993
6041.89231,0.05097
6043.82078,0.05762
6045.74925,0.08911
6047.67772,0.08262
6049.60618,0.04381
6051.53465,0.04175
6053.46312,0.08357
6055.39159,0.11090
6057.32006,0.10544
6059.24853,0.08487
6061.17700,0.04105
6063.10546,-0.02202
6065.03393,-0.06312
6066.96240,-0.04692
6068.89087,0.01713
6070.81934,0.06348
6072.74781,0.06095
6074.67628,0.06967
6076.60475,0.11992
6078.53321,0.15965
6080.46168,0.16894
6082.39015,0.16679
6084.31862,0.15959
6086.24709,0.14016
6088.17556,0.10902
6090.10403,0.11649
6092.03249,0.15674
6093.96096,0.16097
6095.88943,0.13466
6097.81790,0.12708
6099.74637,0.13532
6101.67484,0.12120
6103.60331,0.09479
6105.53177,0.07711
6107.46024,0.08583
6109.38871,0.13070
6111.31718,0.17304
6113.24565,0.20229
6115.17412,0.18472
6117.10259,0.08919
6119.03106,-0.00251
6120.95952,-0.02112
6122.88799,-0.00636
6124.81646,0.00007
6126.74493,0.00330
6128.67340,0.03743
6130.60187,0.08460
6132.53034,0.11015
6134.45880,0.14224
6136.38727,0.16811
6138.31574,0.15193
6140.24421,0.14757
6142.17268,0.17337
6144.10115,0.14469
6146.02962,0.09080
6147.95809,0.11489
6149.88655,0.16088
6151.81502,0.11543
6153.74349,0.02556
6155.67196,-0.01014
6157.60043,0.02015
6159.52890,0.07358
6161.45737,0.08934
6163.38583,0.08503
6165.31430,0.10026
6167.24277,0.10399
6169.17124,0.08046
6171.09971,0.07215
6173.02818,0.10856
6174.95665,0.13563
6176.88512,0.10690
6178.81358,0.06126
6180.74205,0.06191
6182.67052,0.09906
6184.59899,0.10601
6186.52746,0.08246
6188.45593,0.08487
6190.38440,0.11296
6192.31286,0.11516
6194.24133,0.08901
6196.16980,0.07128
6198.09827,0.08688
6200.02674,0.12597
6201.95521,0.12617
6203.88368,0.06535
6205.81215,0.02901
6207.74061,0.05774
6209.66908,0.07977
6211.59755,0.06568
6213.52602,0.07361
6215.45449,0.10099
6217.38296,0.11105
6219.31143,0.11278
6221.23989,0.11784
6223.16836,0.10887
6225.09683,0.09741
6227.02530,0.11597
6228.95377,0.15016
6230.88224,0.18403
6232.81071,0.19729
6234.73918,0.15372
6236.66764,0.09128
6238.59611,0.08785
6240.52458,0.12187
6242.45305,0.11544
6244.38152,0.07357
6246.30999,0.02114
6248.23846,-0.02122
6250.16692,-0.02174
6252.09539,-0.00113
6254.02386,0.01408
6255.95233,0.04272
6257.88080,0.06385
6259.80927,0.03707
6261.73774,0.01173
6263.66621,0.01634
6265.59467,0.03399
6267.52314,0.08367
6269.45161,0.10819
6271.38008,0.10527
6273.30855,0.13707
6275.23702,0.13343
6277.16549,0.05954
6279.09395,0.01453
6281.02242,0.03531
6282.95089,0.08292
6284.87936,0.09772
6286.80783,0.06828
6288.73630,0.04115
6290.66477,0.04320
6292.59323,0.05076
6294.52170,0.05858
6296.45017,0.08931
6298.37864,0.12995
6300.30711,0.15207
6302.23558,0.15683
6304.16405,0.14581
6306.09252,0.11669
6308.02098,0.10335
6309.94945,0.11951
6311.87792,0.13708
6313.80639,0.13622
6315.73486,0.11680
6317.66333,0.10555
6319.59180,0.13870
6321.52026,0.19212
6323.44873,0.20741
6325.37720,0.21310
6327.30567,0.22717
6329.23414,0.20738
6331.16261,0.15493
6333.09108,0.09572
6335.01955,0.05604
6336.94801,0.06054
6338.87648,0.10894
6340.80495,0.13533
6342.73342,0.09479
6344.66189,0.06796
6346.59036,0.08938
6348.51883,0.07400
6350.44729,0.03450
6352.37576,0.07316
6354.30423,0.13012
6356.23270,0.13098
6358.16117,0.13103
6360.08964,0.12236
6362.01811,0.08059
6363.94658,0.08719
6365.87504,0.11785
6367.80351,0.07727
6369.73198,0.02547
6371.66045,0.04012
6373.58892,0.08817
6375.51739,0.09816
6377.44586,0.08977
6379.37432,0.09215
6381.30279,0.06889
6383.23126,0.01651
6385.15973,-0.02229
6387.08820,-0.01319
6389.01667,0.02345
6390.94514,0.02296
6392.87361,0.00866
6394.80207,0.04192
6396.73054,0.08363
6398.65901,0.11100
6400.58748,0.12341
6402.51595,0.10543
6404.44442,0.07449
6406.37289,0.06762
6408.30135,0.08786
6410.22982,0.08739
6412.15829,0.04785
6414.08676,0.00705
6416.01523,-0.01937
6417.94370,-0.00466
6419.87217,0.06854
6421.80064,0.12227
6423.72910,0.10530
6425.65757,0.04920
6427.58604,0.02773
6429.51451,0.08039
6431.44298,0.12439
6433.37145,0.09415
6435.29992,0.06241
6437.22838,0.03333
6439.15685,0.00522
6441.08532,0.03770
6443.01379,0.06075
6444.94226,0.02402
6446.87073,0.04267
6448.79920,0.11259
6450.72766,0.14374
6452.65613,0.13901
6454.58460,0.10480
6456.51307,0.04311
6458.44154,0.00941
6460.37001,0.04248
6462.29848,0.08838
6464.22695,0.05936
6466.15541,0.01880
6468.08388,0.06264
6470.01235,0.13093
6471.94082,0.17663
6473.86929,0.22171
6475.79776,0.22408
6477.72623,0.16083
6479.65469,0.07628
6481.58316,-0.02226
6483.51163,-0.09389
6485.44010,-0.08525
6487.36857,-0.03350
6489.29704,0.02156
6491.22551,0.05807
6493.15398,0.07093
6495.08244,0.12409
6497.01091,0.19436
6498.93938,0.21258
6500.86785,0.21981
6502.79632,0.18097
6504.72479,0.05715
6506.65326,-0.00567
6508.58172,0.02054
6510.51019,0.02103
6512.43866,0.01555
6514.36713,0.06016
6516.29560,0.09683
6518.22407,0.07052
6520.15254,0.04453
6522.08101,0.06640
6524.00947,0.07799
6525.93794,0.03947
6527.86641,-0.01677
6529.79488,-0.03972
6531.72335,-0.00482
6533.65182,0.04780
6535.58029,0.08236
6537.50875,0.11167
6539.43722,0.13257
6541.36569,0.11707
6543.29416,0.08386
6545.22263,0.06236
6547.15110,0.04702
6549.07957,0.04850
6551.00804,0.06920
6552.93650,0.07126
6554.86497,0.03926
6556.79344,-0.00728
6558.72191,-0.03370
6560.65038,0.02450
6562.57885,0.15534
6564.50732,0.21285
6566.43578,0.16521
6568.36425,0.15566
6570.29272,0.20449
6572.22119,0.20944
6574.14966,0.11138
6576.07813,-0.00054
6578.00660,0.01852
6579.93507,0.10666
6581.86353,0.12150
6583.79200,0.12243
6585.72047,0.14997
6587.64894,0.13937
6589.57741,0.11274
6591.50588,0.11206
6593.43435,0.09711
6595.36281,0.02225
6597.29128,-0.04956
6599.21975,-0.04774
6601.14822,-0.01932
6603.07669,-0.03161
6605.00516,-0.02068
6606.93363,0.04147
6608.86210,0.05864
6610.79056,0.01052
6612.71903,0.03188
6614.64750,0.16100
6616.57597,0.24087
6618.50444,0.17631
6620.43291,0.07714
6622.36138,0.04762
6624.28984,0.07283
6626.21831,0.08039
6628.14678,0.02874
6630.07525,-0.01557
6632.00372,0.04768
6633.93219,0.11222
6635.86066,0.06176
6637.78912,0.01940
6639.71759,0.03970
6641.64606,0.02340
6643.57453,-0.01037
6645.50300,0.00981
6647.43147,0.10083
6649.35994,0.20266
6651.28841,0.21712
6653.21687,0.15659
6655.14534,0.11485
6657.07381,0.14355
6659.00228,0.18678
6660.93075,0.16588
6662.85922,0.10862
6664.78769,0.04915
6666.71615,0.03520
6668.64462,0.12601
6670.57309,0.23570
6672.50156,0.25891
6674.43003,0.21368
6676.35850,0.16686
6678.28697,0.19481
6680.21544,0.27442
6682.14390,0.30666
6684.07237,0.27378
6686.00084,0.23012
6687.92931,0.21658
6689.85778,0.18558
6691.78625,0.12669
6693.71472,0.09069
6695.64318,0.06121
6697.57165,0.03352
6699.50012,0.00866
6701.42859,0.00008
6703.35706,0.05577
6705.28553,0.12149
6707.21400,0.11586
6709.14247,0.08660
6711.07093,0.09339
6712.99940,0.10389
6714.92787,0.11519
6716.85634,0.14708
6718.78481,0.16854
6720.71328,0.17365
6722.64175,0.19301
6724.57021,0.17878
6726.49868,0.10880
6728.42715,0.09405
6730.35562,0.15860
6732.28409,0.16556
6734.21256,0.08536
6736.14103,0.03110
6738.06950,0.03058
6739.99796,-0.00477
6741.92643,-0.07721
6743.85490,-0.09681
6745.78337,-0.05065
6747.71184,0.00274
6749.64031,0.00793
6751.56878,-0.01234
6753.49724,-0.00764
6755.42571,0.03954
6757.35418,0.09504
6759.28265,0.09315
6761.21112,0.03102
6763.13959,-0.00152
6765.06806,0.02005
6766.99653,0.07357
6768.92499,0.13622
6770.85346,0.14439
6772.78193,0.08621
6774.71040,0.06515
6776.63887,0.12493
6778.56734,0.18032
6780.49581,0.21827
6782.42427,0.21670
6784.35274,0.12025
6786.28121,0.01579
6788.20968,0.01389
6790.13815,0.09047
6792.06662,0.13395
6793.99509,0.13652
6795.92355,0.17085
6797.85202,0.21075
6799.78049,0.21810
6801.70896,0.17843
6803.63743,0.11803
6805.56590,0.06687
6807.49437,0.03642
6809.42284,0.06363
6811.35130,0.14022
6813.27977,0.17976
6815.20824,0.14251
6817.13671,0.09661
6819.06518,0.09018
6820.99365,0.12645
6822.92212,0.17483
6824.85058,0.12322
6826.77905,0.01731
6828.70752,-0.00846
6830.63599,0.04441
6832.56446,0.09870
6834.49293,0.10024
6836.42140,-0.00694
6838.34987,-0.08629
6840.27833,-0.03289
6842.20680,-0.00028
6844.13527,-0.01116
6846.06374,0.04592
6847.99221,0.13518
6849.92068,0.13667
6851.84915,0.06334
6853.77761,-0.00378
6855.70608,-0.03936
6857.63455,-0.01191
6859.56302,0.05918
6861.49149,0.07519
6863.41996,0.03418
6865.34843,0.02951
6867.27690,0.03887
6869.20536,0.03120
6871.13383,0.02594
6873.06230,-0.01028
6874.99077,-0.05885
6876.91924,-0.04619
6878.84771,0.02244
6880.77618,0.08051
6882.70464,0.09479
6884.63311,0.05570
6886.56158,0.00278
6888.49005,0.02973
6890.41852,0.07727
6892.34699,0.05002
6894.27546,0.02405
6896.20393,0.04270
6898.13239,0.06818
6900.06086,0.09948
6901.98933,0.13846
6903.91780,0.16316
6905.84627,0.12259
6907.77474,0.03462
6909.70321,0.04025
6911.63167,0.12513
6913.56014,0.14496
6915.48861,0.08998
6917.41708,-0.00193
6919.34555,-0.09377
6921.27402,-0.12187
6923.20249,-0.09971
6925.13096,-0.07113
6927.05942,-0.05185
6928.98789,-0.01495
6930.91636,0.00993
6932.84483,-0.03234
6934.77330,-0.07241
6936.70177,-0.03557
6938.63024,0.07896
6940.55870,0.14283
6942.48717,0.08248
6944.41564,0.04919
6946.34411,0.07168
6948.27258,0.08111
6950.20105,0.05524
6952.12952,0.01995
6954.05799,0.06283
6955.98645,0.15478
6957.91492,0.10449
6959.84339,-0.08318
6961.77186,-0.19745
6963.70033,-0.10200
6965.62880,0.11684
6967.55727,0.30219
6969.48573,0.31408
6971.41420,0.15129
6973.34267,-0.04199
6975.27114,-0.12339
6977.19961,-0.05230
6979.12808,0.07442
6981.05655,0.14183
6982.98501,0.08578
6984.91348,-0.04264
6986.84195,-0.08353
6988.77042,-0.00421
6990.69889,0.08957
6992.62736,0.12723
6994.55583,0.10895
6996.48430,0.09925
6998.41276,0.15216
7000.34123,0.20566
7002.26970,0.15374
7004.19817,0.05378
7006.12664,0.04733
7008.05511,0.10864
7009.98358,0.13462
7011.91204,0.12231
7013.84051,0.06347
7015.76898,-0.00744
7017.69745,-0.04657
7019.62592,-0.06437
7021.55439,-0.00881
7023.48286,0.12416
7025.41133,0.18595
7027.33979,0.10043
7029.26826,-0.02534
7031.19673,-0.03558
7033.12520,0.00795
7035.05367,0.00505
7036.98214,-0.02352
7038.91061,-0.01081
7040.83907,0.02671
7042.76754,-0.00337
7044.69601,0.01234
7046.62448,0.21768
7048.55295,0.34874
7050.48142,0.22541
7052.40989,0.01978
7054.33836,-0.11567
7056.26682,-0.13423
7058.19529,-0.04122
7060.12376,0.07877
7062.05223,0.18029
7063.98070,0.19825
7065.90917,0.09226
7067.83764,-0.00400
7069.76610,0.02390
7071.69457,0.11960
7073.62304,0.11864
7075.55151,0.01269
7077.47998,-0.03133
7079.40845,0.05699
7081.33692,0.15487
7083.26539,0.19554
7085.19385,0.22853
7087.12232,0.25044
7089.05079,0.18790
7090.97926,0.07445
7092.90773,0.04668
7094.83620,0.03604
7096.76467,-0.02801
7098.69313,-0.01880
7100.62160,0.10393
7102.55007,0.15750
7104.47854,0.07608
7106.40701,-0.00534
7108.33548,0.06929
7110.26395,0.16123
7112.19242,0.13522
7114.12088,0.05091
7116.04935,-0.08545
7117.97782,-0.30791
7119.90629,-0.40616
7121.83476,-0.27033
7123.76323,-0.11976
7125.69170,-0.06648
7127.62016,0.00264
7129.54863,0.12760
7131.47710,0.22486
7133.40557,0.25140
7135.33404,0.23325
7137.26251,0.18588
7139.19098,0.19373
7141.11944,0.28806
7143.04791,0.24443
7144.97638,0.03806
7146.90485,-0.04397
7148.83332,-0.07973
7150.76179,-0.11503
7152.69026,0.07198
7154.61873,0.29392
7156.54719,0.31702
7158.47566,0.31748
7160.40413,0.29253
7162.33260,0.17889
7164.26107,0.06089
7166.18954,-0.00549
7168.11801,0.04241
7170.04647,0.23446
7171.97494,0.35085
7173.90341,0.31419
7175.83188,0.26032
7177.76035,0.21346
7179.68882,0.16182
7181.61729,0.09643
7183.54576,0.07157
7185.47422,0.14261
7187.40269,0.17610
7189.33116,0.10196
7191.25963,0.01980
7193.18810,0.00813
7195.11657,-0.00199
7197.04504,-0.02366
7198.97350,0.02346
7200.90197,0.16656
7202.83044,0.32085
7204.75891,0.29618
7206.68738,0.06114
7208.61585,-0.12088
7210.54432,-0.15784
7212.47279,-0.10364
7214.40125,-0.05261
7216.32972,-0.02966
7218.25819,0.04223
7220.18666,0.17376
7222.11513,0.22294
7224.04360,0.12141
7225.97207,-0.02840
7227.90053,0.00363
7229.82900,0.16792
7231.75747,0.17030
7233.68594,0.05953
7235.61441,0.07973
7237.54288,0.24492
7239.47135,0.41004
7241.39982,0.37149
7243.32828,0.13842
7245.25675,0.05761
7247.18522,0.09207
7249.11369,0.05602
7251.04216,0.05483
7252.97063,0.14891
7254.89910,0.17578
7256.82756,0.16126
7258.75603,0.17723
7260.68450,0.24144
7262.61297,0.28034
7264.54144,0.16997
7266.46991,0.01027
7268.39838,-0.05197
7270.32685,-0.09007
7272.25531,-0.14122
7274.18378,-0.09021
7276.11225,-0.00362
7278.04072,0.04203
7279.96919,0.00848
7281.89766,0.01593
7283.82613,0.11878
7285.75459,0.11695
7287.68306,-0.00600
7289.61153,-0.05885
7291.54000,0.04899
7293.46847,0.12173
7295.39694,0.02589
7297.32541,-0.11010
7299.25387,-0.15418
7301.18234,-0.14055
7303.11081,-0.13830
7305.03928,-0.13140
7306.96775,-0.14337
7308.89622,-0.11982
7310.82469,0.04167
7312.75316,0.15073
7314.68162,0.16716
7316.61009,0.16855
7318.53856,0.16284
7320.46703,0.14345
7322.39550,-0.01824
7324.32397,-0.23565
7326.25244,-0.20802
7328.18090,0.02000
7330.10937,0.16302
7332.03784,0.09275
7333.96631,0.02330
7335.89478,0.08827
7337.82325,0.25039
7339.75172,0.39646
7341.68019,0.37122
7343.60865,0.32067
7345.53712,0.29200
7347.46559,0.22959
7349.39406,0.19667
7351.32253,0.20205
7353.25100,0.15627
7355.17947,0.05389
7357.10793,-0.08608
7359.03640,-0.15460
7360.96487,-0.08985
7362.89334,-0.00383
7364.82181,0.12886
7366.75028,0.22583
7368.67875,0.14947
7370.60722,0.00743
7372.53568,-0.00411
7374.46415,0.20185
7376.39262,0.40668
7378.32109,0.31047
7380.24956,0.05444
7382.17803,-0.10661
7384.10650,-0.08695
7386.03496,-0.01726
7387.96343,0.07249
7389.89190,0.15167
7391.82037,0.17766
7393.74884,0.14342
7395.67731,0.09749
7397.60578,0.09084
7399.53425,0.08486
7401.46271,0.06339
7403.39118,0.04715
7405.31965,0.00626
7407.24812,-0.03029
7409.17659,-0.01715
7411.10506,-0.01564
7413.03353,-0.02455
7414.96199,0.05011
7416.89046,0.24147
7418.81893,0.35021
7420.74740,0.18889
7422.67587,-0.02334
7424.60434,-0.12919
7426.53281,-0.02594
7428.46128,0.19503
7430.38974,0.19729
7432.31821,0.05598
7434.24668,0.11455
7436.17515,0.30149
7438.10362,0.44723
7440.03209,0.44224
7441.96056,0.32518
7443.88902,0.26782
7445.81749,0.24770
7447.74596,0.21773
7449.67443,0.20406
7451.60290,0.21025
7453.53137,0.18862
7455.45984,0.06874
7457.38831,-0.14223
7459.31677,-0.30114
7461.24524,-0.16435
7463.17371,0.16122
7465.10218,0.38657
7467.03065,0.36374
7468.95912,0.24220
7470.88759,0.13279
7472.81605,0.04826
7474.74452,-0.03193
7476.67299,-0.16845
7478.60146,-0.22473
7480.52993,-0.04321
7482.45840,0.20105
7484.38687,0.32330
7486.31533,0.33971
7488.24380,0.25871
7490.17227,0.10780
7492.10074,0.02401
7494.02921,0.07363
7495.95768,0.10341
7497.88615,0.00840
