399.19301,3.50296
401.12148,0.61804
403.04995,0.54197
404.97842,1.17900
406.90689,1.62529
408.83536,1.76832
410.76382,2.08189
412.69229,2.46036
414.62076,2.50602
416.54923,2.69593
418.47770,2.35580
420.40617,0.79058
422.33464,0.11227
424.26311,0.07036
426.19157,0.02596
428.12004,0.00298
430.04851,-0.03517
431.97698,0.06844
433.90545,0.06478
435.83392,-0.10859
437.76239,-0.11673
439.69085,0.05531
441.61932,0.20870
443.54779,0.12514
445.47626,-0.08310
447.40473,-0.14700
449.33320,-0.07363
451.26167,0.09359
453.19013,0.29328
455.11860,0.37871
457.04707,0.30900
458.97554,0.15721
460.90401,0.07242
462.83248,0.10335
464.76095,0.17003
466.68942,0.16129
468.61788,0.08445
470.54635,0.35204
472.47482,2.27344
474.40329,4.64514
476.33176,3.01125
478.26023,0.79971
480.18870,0.04856
482.11716,-0.02211
484.04563,-0.06428
485.97410,-0.07376
487.90257,-0.01047
489.83104,0.01140
491.75951,-0.03629
493.68798,-0.03888
495.61645,-0.01729
497.54491,0.00784
499.47338,0.06925
501.40185,0.11318
503.33032,0.09085
505.25879,0.06798
507.18726,0.09748
509.11573,0.12826
511.04419,0.09764
512.97266,0.06963
514.90113,0.11267
516.82960,0.14297
518.75807,0.09834
520.68654,0.06040
522.61501,0.07748
524.54348,0.10932
526.47194,0.12561
528.40041,0.12741
530.32888,0.11599
532.25735,0.09342
534.18582,0.07357
536.11429,0.09027
538.04276,0.11494
539.97122,0.11159
541.89969,0.08364
543.82816,0.05449
545.75663,0.08947
547.68510,0.17521
549.61357,0.20676
551.54204,0.16471
553.47051,0.11393
555.39897,0.07882
557.32744,0.07309
559.25591,0.08963
561.18438,0.08308
563.11285,0.06119
565.04132,0.07483
566.96979,0.11879
568.89825,0.14337
570.82672,0.13743
572.75519,0.12104
574.68366,0.10577
576.61213,0.09260
578.54060,0.09195
580.46907,0.09959
582.39754,0.10044
584.32600,0.10605
586.25447,0.12710
588.18294,0.14147
590.11141,0.13414
592.03988,0.12237
593.96835,0.10857
595.89682,0.08479
597.82528,0.07744
599.75375,0.10006
601.68222,0.11749
603.61069,0.11766
605.53916,0.12087
607.46763,0.12874
609.39610,0.13826
611.32456,0.14516
613.25303,0.14832
615.18150,0.14603
617.10997,0.12976
619.03844,0.11069
620.96691,0.10660
622.89538,0.11670
624.82385,0.12823
626.75231,0.12371
628.68078,0.10143
630.60925,0.07033
632.53772,0.04492
634.46619,0.06087
636.39466,0.10693
638.32313,0.13456
640.25159,0.14398
642.18006,0.15392
644.10853,0.15741
646.03700,0.15311
647.96547,0.15052
649.89394,0.15467
651.82241,0.15954
653.75088,0.15544
655.67934,0.14162
657.60781,0.13083
659.53628,0.14051
661.46475,0.15796
663.39322,0.16529
665.32169,0.17568
667.25016,0.20483
669.17862,0.21903
671.10709,0.19077
673.03556,0.16818
674.96403,0.16593
676.89250,0.17348
678.82097,0.17471
680.74944,0.16550
682.67791,0.15257
684.60637,0.14821
686.53484,0.15467
688.46331,0.15176
690.39178,0.13208
692.32025,0.11856
694.24872,0.12326
696.17719,0.13635
698.10565,0.14633
700.03412,0.14528
701.96259,0.14419
703.89106,0.15747
705.81953,0.17314
707.74800,0.17519
709.67647,0.17240
711.60494,0.17643
713.53340,0.17282
715.46187,0.15215
717.39034,0.13544
719.31881,0.14200
721.24728,0.16241
723.17575,0.17229
725.10422,0.16324
727.03268,0.14577
728.96115,0.13634
730.88962,0.14813
732.81809,0.17090
734.74656,0.17465
736.67503,0.15728
738.60350,0.13819
740.53197,0.13303
742.46043,0.14440
744.38890,0.15239
746.31737,0.14800
748.24584,0.14563
750.17431,0.15075
752.10278,0.15360
754.03125,0.15137
755.95971,0.15334
757.88818,0.16112
759.81665,0.16337
761.74512,0.15974
763.67359,0.15781
765.60206,0.14988
767.53053,0.13826
769.45900,0.14093
771.38746,0.15041
773.31593,0.15147
775.24440,0.15205
777.17287,0.15317
779.10134,0.15114
781.02981,0.15079
782.95828,0.14892
784.88674,0.14664
786.81521,0.15000
788.74368,0.15238
790.67215,0.14784
792.60062,0.14626
794.52909,0.15450
796.45756,0.16400
798.38602,0.16404
800.31449,0.15693
802.24296,0.15153
804.17143,0.14862
806.09990,0.14759
808.02837,0.14552
809.95684,0.14420
811.88531,0.14805
813.81377,0.14920
815.74224,0.14763
817.67071,0.15012
819.59918,0.14406
821.52765,0.12296
823.45612,0.11050
825.38459,0.12189
827.31305,0.14065
829.24152,0.15053
831.16999,0.15306
833.09846,0.14854
835.02693,0.14214
836.95540,0.14451
838.88387,0.15115
840.81234,0.15468
842.74080,0.15908
844.66927,0.16787
846.59774,0.17211
848.52621,0.16730
850.45468,0.15725
852.38315,0.14810
854.31162,0.15187
856.24008,0.16505
858.16855,0.16983
860.09702,0.16044
862.02549,0.14989
863.95396,0.14946
865.88243,0.14206
867.81090,0.11363
869.73937,0.09272
871.66783,0.10380
873.59630,0.12954
875.52477,0.14401
877.45324,0.14549
879.38171,0.14851
881.31018,0.15093
883.23865,0.15286
885.16711,0.16463
887.09558,0.17515
889.02405,0.17405
890.95252,0.16865
892.88099,0.16322
894.80946,0.15419
896.73793,0.14550
898.66640,0.14641
900.59486,0.15018
902.52333,0.15056
904.45180,0.15669
906.38027,0.16684
908.30874,0.16872
910.23721,0.15963
912.16568,0.14676
914.09414,0.14128
916.02261,0.14751
917.95108,0.15478
919.87955,0.15512
921.80802,0.15750
923.73649,0.16118
925.66496,0.15521
927.59343,0.14928
929.52189,0.15590
931.45036,0.16669
933.37883,0.16849
935.30730,0.16224
937.23577,0.15938
939.16424,0.16065
941.09271,0.15628
943.02117,0.14976
944.94964,0.15166
946.87811,0.15355
948.80658,0.14593
950.73505,0.14311
952.66352,0.15398
954.59199,0.16328
956.52045,0.16360
958.44892,0.16309
960.37739,0.16261
962.30586,0.16202
964.23433,0.16180
966.16280,0.16094
968.09127,0.16256
970.01974,0.16503
971.94820,0.16547
973.87667,0.16344
975.80514,0.16023
977.73361,0.16175
979.66208,0.16404
981.59055,0.16099
983.51902,0.16129
985.44748,0.16838
987.37595,0.17413
989.30442,0.17496
991.23289,0.17179
993.16136,0.16782
995.08983,0.16867
997.01830,0.17227
998.94677,0.17115
1000.87523,0.16648
1002.80370,0.16354
1004.73217,0.16254
1006.66064,0.16428
1008.58911,0.16947
1010.51758,0.17232
1012.44605,0.17051
1014.37451,0.17104
1016.30298,0.17456
1018.23145,0.17394
1020.15992,0.17092
1022.08839,0.16793
1024.01686,0.16470
1025.94533,0.18525
1027.87380,0.23016
1029.80226,0.23824
1031.73073,0.20203
1033.65920,0.18125
1035.58767,0.18589
1037.51614,0.19092
1039.44461,0.18834
1041.37308,0.18306
1043.30154,0.17898
1045.23001,0.17407
1047.15848,0.16836
1049.08695,0.16874
1051.01542,0.17990
1052.94389,0.19147
1054.87236,0.19068
1056.80083,0.18191
1058.72929,0.17606
1060.65776,0.17125
1062.58623,0.16698
1064.51470,0.17192
1066.44317,0.18184
1068.37164,0.18660
1070.30011,0.18783
1072.22857,0.18935
1074.15704,0.18753
1076.08551,0.18160
1078.01398,0.17800
1079.94245,0.17877
1081.87092,0.17914
1083.79939,0.17769
1085.72786,0.17641
1087.65632,0.17426
1089.58479,0.17343
1091.51326,0.17681
1093.44173,0.17986
1095.37020,0.17944
1097.29867,0.17985
1099.22714,0.18552
1101.15560,0.19215
1103.08407,0.18937
1105.01254,0.18060
1106.94101,0.17995
1108.86948,0.18525
1110.79795,0.18691
1112.72642,0.18579
1114.65489,0.18321
1116.58335,0.17979
1118.51182,0.17961
1120.44029,0.17908
1122.36876,0.17383
1124.29723,0.17114
1126.22570,0.17650
1128.15417,0.18290
1130.08263,0.18098
1132.01110,0.17644
1133.93957,0.17805
1135.86804,0.17985
1137.79651,0.17696
1139.72498,0.17285
1141.65345,0.16886
1143.58191,0.16809
1145.51038,0.17393
1147.43885,0.18039
1149.36732,0.18237
1151.29579,0.18286
1153.22426,0.18391
1155.15273,0.18483
1157.08120,0.18628
1159.00966,0.18878
1160.93813,0.18725
1162.86660,0.17894
1164.79507,0.17344
1166.72354,0.17924
1168.65201,0.18596
1170.58048,0.17982
1172.50894,0.17164
1174.43741,0.17513
1176.36588,0.18145
1178.29435,0.18162
1180.22282,0.17660
1182.15129,0.17194
1184.07976,0.17470
1186.00823,0.17948
1187.93669,0.17697
1189.86516,0.17114
1191.79363,0.16848
1193.72210,0.16976
1195.65057,0.17457
1197.57904,0.18098
1199.50751,0.18446
1201.43597,0.18110
1203.36444,0.17470
1205.29291,0.17347
1207.22138,0.17935
1209.14985,0.18554
1211.07832,0.18376
1213.00679,0.17727
1214.93526,0.17591
1216.86372,0.17940
1218.79219,0.18184
1220.72066,0.18161
1222.64913,0.18152
1224.57760,0.18315
1226.50607,0.18193
1228.43454,0.17775
1230.36300,0.17933
1232.29147,0.18563
1234.21994,0.18650
1236.14841,0.18203
1238.07688,0.17943
1240.00535,0.18133
1241.93382,0.18503
1243.86229,0.18529
1245.79075,0.18204
1247.71922,0.17899
1249.64769,0.17442
1251.57616,0.16946
1253.50463,0.17115
1255.43310,0.17744
1257.36157,0.17934
1259.29003,0.17673
1261.21850,0.17744
1263.14697,0.18263
1265.07544,0.18391
1267.00391,0.17854
1268.93238,0.17665
1270.86085,0.18248
1272.78932,0.18680
1274.71778,0.18418
1276.64625,0.18028
1278.57472,0.17933
1280.50319,0.17829
1282.43166,0.17764
1284.36013,0.18049
1286.28860,0.18413
1288.21706,0.18777
1290.14553,0.19269
1292.07400,0.19386
1294.00247,0.18904
1295.93094,0.18398
1297.85941,0.18245
1299.78788,0.18239
1301.71634,0.17978
1303.64481,0.17413
1305.57328,0.17091
1307.50175,0.17376
1309.43022,0.17985
1311.35869,0.18532
1313.28716,0.18701
1315.21563,0.18511
1317.14409,0.18213
1319.07256,0.17724
1321.00103,0.17568
1322.92950,0.18042
1324.85797,0.18214
1326.78644,0.18031
1328.71491,0.18147
1330.64337,0.18254
1332.57184,0.18221
1334.50031,0.18494
1336.42878,0.18972
1338.35725,0.19247
1340.28572,0.18843
1342.21419,0.18903
1344.14266,0.20889
1346.07112,0.22328
1347.99959,0.21018
1349.92806,0.19254
1351.85653,0.18653
1353.78500,0.18536
1355.71347,0.18470
1357.64194,0.18444
1359.57040,0.18617
1361.49887,0.18933
1363.42734,0.18975
1365.35581,0.18625
1367.28428,0.18392
1369.21275,0.18497
1371.14122,0.19022
1373.06969,0.19918
1374.99815,0.20141
1376.92662,0.19377
1378.85509,0.18798
1380.78356,0.18776
1382.71203,0.19008
1384.64050,0.19470
1386.56897,0.20008
1388.49743,0.20019
1390.42590,0.19828
1392.35437,0.20111
1394.28284,0.20761
1396.21131,0.21265
1398.13978,0.21095
1400.06825,0.20105
1401.99672,0.19341
1403.92518,0.19413
1405.85365,0.19686
1407.78212,0.19679
1409.71059,0.19464
1411.63906,0.19185
1413.56753,0.19179
1415.49600,0.19674
1417.42446,0.20651
1419.35293,0.21099
1421.28140,0.20687
1423.20987,0.20742
1425.13834,0.20658
1427.06681,0.19861
1428.99528,0.19481
1430.92375,0.19914
1432.85221,0.20321
1434.78068,0.20597
1436.70915,0.20829
1438.63762,0.20522
1440.56609,0.19862
1442.49456,0.19359
1444.42303,0.19399
1446.35149,0.19826
1448.27996,0.19862
1450.20843,0.19522
1452.13690,0.19835
1454.06537,0.20842
1455.99384,0.21692
1457.92231,0.21646
1459.85077,0.21076
1461.77924,0.20732
1463.70771,0.20605
1465.63618,0.20290
1467.56465,0.20290
1469.49312,0.21131
1471.42159,0.22175
1473.35006,0.22248
1475.27852,0.21555
1477.20699,0.21162
1479.13546,0.21259
1481.06393,0.21378
1482.99240,0.21113
1484.92087,0.21030
1486.84934,0.21693
1488.77780,0.22645
1490.70627,0.22449
1492.63474,0.21514
1494.56321,0.21252
1496.49168,0.21631
1498.42015,0.21469
1500.34862,0.21272
1502.27709,0.22469
1504.20555,0.24784
1506.13402,0.26509
1508.06249,0.24662
1509.99096,0.22635
1511.91943,0.21850
1513.84790,0.22039
1515.77637,0.23059
1517.70483,0.23859
1519.63330,0.24359
1521.56177,0.24549
1523.49024,0.23450
1525.41871,0.22614
1527.34718,0.22118
1529.27565,0.21357
1531.20412,0.21191
1533.13258,0.21960
1535.06105,0.22548
1536.98952,0.22837
1538.91799,0.23725
1540.84646,0.24430
1542.77493,0.23706
1544.70340,0.22641
1546.63186,0.21858
1548.56033,0.21761
1550.48880,0.21869
1552.41727,0.21713
1554.34574,0.21673
1556.27421,0.22292
1558.20268,0.23994
1560.13115,0.23666
1562.05961,0.21695
1563.98808,0.20718
1565.91655,0.20761
1567.84502,0.21514
1569.77349,0.21771
1571.70196,0.21006
1573.63043,0.20691
1575.55889,0.20972
1577.48736,0.20719
1579.41583,0.20030
1581.34430,0.19572
1583.27277,0.19313
1585.20124,0.19142
1587.12971,0.19101
1589.05818,0.19270
1590.98664,0.19481
1592.91511,0.19382
1594.84358,0.19191
1596.77205,0.19338
1598.70052,0.19467
1600.62899,0.19396
1602.55746,0.19603
1604.48592,0.20077
1606.41439,0.20416
1608.34286,0.20438
1610.27133,0.20088
1612.19980,0.19952
1614.12827,0.20674
1616.05674,0.21999
1617.98521,0.22321
1619.91367,0.21815
1621.84214,0.21635
1623.77061,0.21407
1625.69908,0.21070
1627.62755,0.21095
1629.55602,0.21339
1631.48449,0.21748
1633.41295,0.22533
1635.34142,0.23453
1637.26989,0.23048
1639.19836,0.21996
1641.12683,0.21492
1643.05530,0.21761
1644.98377,0.23064
1646.91223,0.24639
1648.84070,0.24464
1650.76917,0.24390
1652.69764,0.25394
1654.62611,0.24269
1656.55458,0.22456
1658.48305,0.22012
1660.41152,0.22776
1662.33998,0.23592
1664.26845,0.22966
1666.19692,0.22421
1668.12539,0.23202
1670.05386,0.23763
1671.98233,0.23189
1673.91080,0.23063
1675.83926,0.22955
1677.76773,0.22472
1679.69620,0.22658
1681.62467,0.23944
1683.55314,0.25389
1685.48161,0.24724
1687.41008,0.23479
1689.33855,0.22699
1691.26701,0.21987
1693.19548,0.21731
1695.12395,0.22580
1697.05242,0.24443
1698.98089,0.25582
1700.90936,0.24907
1702.83783,0.23794
1704.76629,0.23118
1706.69476,0.22281
1708.62323,0.21390
1710.55170,0.20995
1712.48017,0.21299
1714.40864,0.22324
1716.33711,0.23675
1718.26558,0.23389
1720.19404,0.21732
1722.12251,0.20805
1724.05098,0.20796
1725.97945,0.21036
1727.90792,0.21198
1729.83639,0.21566
1731.76486,0.22332
1733.69332,0.22802
1735.62179,0.22033
1737.55026,0.21462
1739.47873,0.21655
1741.40720,0.22163
1743.33567,0.22491
1745.26414,0.22703
1747.19261,0.22978
1749.12107,0.22968
1751.04954,0.22213
1752.97801,0.21400
1754.90648,0.21362
1756.83495,0.21638
1758.76342,0.21367
1760.69189,0.21033
1762.62035,0.21101
1764.54882,0.21064
1766.47729,0.20945
1768.40576,0.21374
1770.33423,0.22708
1772.26270,0.23688
1774.19117,0.22899
1776.11964,0.21856
1778.04810,0.21453
1779.97657,0.21261
1781.90504,0.20805
1783.83351,0.20461
1785.76198,0.20483
1787.69045,0.20743
1789.61892,0.21535
1791.54738,0.22576
1793.47585,0.22495
1795.40432,0.21603
1797.33279,0.21166
1799.26126,0.21260
1801.18973,0.21336
1803.11820,0.21058
1805.04666,0.20603
1806.97513,0.20389
1808.90360,0.20636
1810.83207,0.21002
1812.76054,0.20948
1814.68901,0.20517
1816.61748,0.19622
1818.54595,0.18346
1820.47441,0.17599
1822.40288,0.18068
1824.33135,0.19784
1826.25982,0.21394
1828.18829,0.21929
1830.11676,0.21791
1832.04523,0.21176
1833.97369,0.20823
1835.90216,0.20923
1837.83063,0.20878
1839.75910,0.20617
1841.68757,0.20724
1843.61604,0.21170
1845.54451,0.21087
1847.47298,0.20739
1849.40144,0.20696
1851.32991,0.20782
1853.25838,0.20691
1855.18685,0.20452
1857.11532,0.20338
1859.04379,0.20341
1860.97226,0.20430
1862.90072,0.20627
1864.82919,0.21008
1866.75766,0.21615
1868.68613,0.21893
1870.61460,0.21450
1872.54307,0.20801
1874.47154,0.20222
1876.40001,0.20024
1878.32847,0.20331
1880.25694,0.20739
1882.18541,0.21080
1884.11388,0.21302
1886.04235,0.21333
1887.97082,0.21271
1889.89929,0.21015
1891.82775,0.20715
1893.75622,0.20803
1895.68469,0.21079
1897.61316,0.21054
1899.54163,0.20841
1901.47010,0.20729
1903.39857,0.20568
1905.32704,0.20290
1907.25550,0.20314
1909.18397,0.20593
1911.11244,0.20671
1913.04091,0.20736
1914.96938,0.20916
1916.89785,0.20971
1918.82632,0.20938
1920.75478,0.20983
1922.68325,0.21032
1924.61172,0.21020
1926.54019,0.20909
1928.46866,0.20790
1930.39713,0.20774
1932.32560,0.20713
1934.25407,0.20543
1936.18253,0.20420
1938.11100,0.20574
1940.03947,0.21008
1941.96794,0.21305
1943.89641,0.21028
1945.82488,0.20460
1947.75335,0.20080
1949.68181,0.20034
1951.61028,0.20367
1953.53875,0.20658
1955.46722,0.20529
1957.39569,0.20219
1959.32416,0.20136
1961.25263,0.20384
1963.18110,0.20636
1965.10956,0.20829
1967.03803,0.21065
1968.96650,0.21090
1970.89497,0.20969
1972.82344,0.20814
1974.75191,0.20302
1976.68038,0.20303
1978.60884,0.21148
1980.53731,0.21020
1982.46578,0.20316
1984.39425,0.20419
1986.32272,0.20535
1988.25119,0.20523
1990.17966,0.20888
1992.10812,0.21130
1994.03659,0.20849
1995.96506,0.20518
1997.89353,0.20571
1999.82200,0.20798
2001.75047,0.20874
2003.67894,0.20812
2005.60741,0.20709
2007.53587,0.20616
2009.46434,0.20563
2011.39281,0.20507
2013.32128,0.20458
2015.24975,0.20388
2017.17822,0.20317
2019.10669,0.20381
2021.03515,0.20594
2022.96362,0.20943
2024.89209,0.21173
2026.82056,0.21044
2028.74903,0.20856
2030.67750,0.20882
2032.60597,0.20959
2034.53444,0.20813
2036.46290,0.20422
2038.39137,0.20142
2040.31984,0.20239
2042.24831,0.20598
2044.17678,0.20992
2046.10525,0.21154
2048.03372,0.21101
2049.96218,0.21070
2051.89065,0.20933
2053.81912,0.20710
2055.74759,0.20729
2057.67606,0.20836
2059.60453,0.20639
2061.53300,0.20294
2063.46147,0.20245
2065.38993,0.20462
2067.31840,0.20792
2069.24687,0.21176
2071.17534,0.21349
2073.10381,0.21330
2075.03228,0.21231
2076.96075,0.20909
2078.88921,0.20609
2080.81768,0.20662
2082.74615,0.20826
2084.67462,0.20807
2086.60309,0.20634
2088.53156,0.20530
2090.46003,0.20713
2092.38850,0.20963
2094.31696,0.20931
2096.24543,0.20752
2098.17390,0.20680
2100.10237,0.20730
2102.03084,0.20885
2103.95931,0.21052
2105.88778,0.21073
2107.81624,0.20910
2109.74471,0.20641
2111.67318,0.20447
2113.60165,0.20477
2115.53012,0.20702
2117.45859,0.20909
2119.38706,0.20978
2121.31553,0.21003
2123.24399,0.21022
2125.17246,0.21023
2127.10093,0.20983
2129.02940,0.20840
2130.95787,0.20712
2132.88634,0.21032
2134.81481,0.22018
2136.74327,0.22792
2138.67174,0.22254
2140.60021,0.21088
2142.52868,0.20634
2144.45715,0.20737
2146.38562,0.20821
2148.31409,0.20809
2150.24255,0.20736
2152.17102,0.20825
2154.09949,0.21087
2156.02796,0.21219
2157.95643,0.21138
2159.88490,0.21008
2161.81337,0.21036
2163.74184,0.21132
2165.67030,0.21002
2167.59877,0.20898
2169.52724,0.21195
2171.45571,0.21526
2173.38418,0.21515
2175.31265,0.21357
2177.24112,0.21320
2179.16958,0.21368
2181.09805,0.21177
2183.02652,0.20678
2184.95499,0.20342
2186.88346,0.20497
2188.81193,0.20798
2190.74040,0.20836
2192.66887,0.20748
2194.59733,0.20801
2196.52580,0.20889
2198.45427,0.20776
2200.38274,0.20615
2202.31121,0.20715
2204.23968,0.20955
2206.16815,0.21033
2208.09661,0.20964
2210.02508,0.20903
2211.95355,0.20941
2213.88202,0.20962
2215.81049,0.20873
2217.73896,0.20902
2219.66743,0.20999
2221.59590,0.20957
2223.52436,0.21036
2225.45283,0.21310
2227.38130,0.21487
2229.30977,0.21477
2231.23824,0.21219
2233.16671,0.20829
2235.09518,0.20799
2237.02364,0.21079
2238.95211,0.21126
2240.88058,0.20917
2242.80905,0.20788
2244.73752,0.20888
2246.66599,0.21125
2248.59446,0.21278
2250.52293,0.21257
2252.45139,0.21207
2254.37986,0.21311
2256.30833,0.21518
2258.23680,0.21509
2260.16527,0.21234
2262.09374,0.21024
2264.02221,0.20951
2265.95067,0.20850
2267.87914,0.20704
2269.80761,0.20609
2271.73608,0.20602
2273.66455,0.20607
2275.59302,0.20638
2277.52149,0.20789
2279.44996,0.20885
2281.37842,0.20798
2283.30689,0.20839
2285.23536,0.21063
2287.16383,0.21073
2289.09230,0.20853
2291.02077,0.20647
2292.94924,0.20563
2294.87770,0.20741
2296.80617,0.20905
2298.73464,0.20717
2300.66311,0.20546
2302.59158,0.20645
2304.52005,0.20839
2306.44852,0.21130
2308.37699,0.21567
2310.30545,0.21721
2312.23392,0.21319
2314.16239,0.21065
2316.09086,0.21238
2318.01933,0.21137
2319.94780,0.20606
2321.87627,0.20389
2323.80473,0.20891
2325.73320,0.21490
2327.66167,0.21597
2329.59014,0.21203
2331.51861,0.20634
2333.44708,0.20303
2335.37555,0.20262
2337.30401,0.20489
2339.23248,0.20696
2341.16095,0.20492
2343.08942,0.20608
2345.01789,0.21588
2346.94636,0.22546
2348.87483,0.22877
2350.80330,0.22454
2352.73176,0.21556
2354.66023,0.21354
2356.58870,0.22057
2358.51717,0.22525
2360.44564,0.21890
2362.37411,0.19899
2364.30258,0.19216
2366.23104,0.21459
2368.15951,0.23529
2370.08798,0.23728
2372.01645,0.22928
2373.94492,0.21923
2375.87339,0.21048
2377.80186,0.20462
2379.73033,0.20494
2381.65879,0.20965
2383.58726,0.21279
2385.51573,0.21230
2387.44420,0.21006
2389.37267,0.20806
2391.30114,0.20757
2393.22961,0.20962
2395.15807,0.21218
2397.08654,0.21189
2399.01501,0.20938
2400.94348,0.20827
2402.87195,0.20954
2404.80042,0.21082
2406.72889,0.21205
2408.65736,0.21355
2410.58582,0.21283
2412.51429,0.21106
2414.44276,0.21203
2416.37123,0.21412
2418.29970,0.21347
2420.22817,0.21070
2422.15664,0.20856
2424.08510,0.20806
2426.01357,0.20963
2427.94204,0.21229
2429.87051,0.21242
2431.79898,0.20934
2433.72745,0.20749
2435.65592,0.20893
2437.58439,0.21078
2439.51285,0.21126
2441.44132,0.21058
2443.36979,0.20998
2445.29826,0.21166
2447.22673,0.21441
2449.15520,0.21283
2451.08367,0.20514
2453.01213,0.19704
2454.94060,0.19568
2456.86907,0.20238
2458.79754,0.20953
2460.72601,0.21132
2462.65448,0.21103
2464.58295,0.21067
2466.51142,0.20881
2468.43988,0.20775
2470.36835,0.20962
2472.29682,0.21052
2474.22529,0.20750
2476.15376,0.20340
2478.08223,0.20255
2480.01070,0.20660
2481.93916,0.21246
2483.86763,0.21421
2485.79610,0.21022
2487.72457,0.20696
2489.65304,0.20737
2491.58151,0.20630
2493.50998,0.20429
2495.43844,0.20734
2497.36691,0.21266
2499.29538,0.21222
2501.22385,0.20922
2503.15232,0.21023
2505.08079,0.21287
2507.00926,0.21461
2508.93773,0.21418
2510.86619,0.21111
2512.79466,0.20926
2514.72313,0.20883
2516.65160,0.20770
2518.58007,0.20737
2520.50854,0.20818
2522.43701,0.20914
2524.36547,0.20883
2526.29394,0.20703
2528.22241,0.20658
2530.15088,0.20924
2532.07935,0.21197
2534.00782,0.21110
2535.93629,0.20942
2537.86476,0.20858
2539.79322,0.20642
2541.72169,0.20591
2543.65016,0.20923
2545.57863,0.21288
2547.50710,0.21452
2549.43557,0.21340
2551.36404,0.21020
2553.29250,0.20875
2555.22097,0.20975
2557.14944,0.21076
2559.07791,0.21151
2561.00638,0.21207
2562.93485,0.21360
2564.86332,0.21665
2566.79179,0.21796
2568.72025,0.21669
2570.64872,0.21589
2572.57719,0.21627
2574.50566,0.21602
2576.43413,0.21509
2578.36260,0.21522
2580.29107,0.21549
2582.21953,0.21309
2584.14800,0.20910
2586.07647,0.20722
2588.00494,0.20912
2589.93341,0.21450
2591.86188,0.22030
2593.79035,0.22207
2595.71882,0.22039
2597.64728,0.21883
2599.57575,0.21708
2601.50422,0.21399
2603.43269,0.21216
2605.36116,0.21370
2607.28963,0.21734
2609.21810,0.22125
2611.14656,0.22283
2613.07503,0.22018
2615.00350,0.21688
2616.93197,0.21583
2618.86044,0.21509
2620.78891,0.21398
2622.71738,0.21328
2624.64585,0.21334
2626.57431,0.21425
2628.50278,0.21558
2630.43125,0.21719
2632.35972,0.21895
2634.28819,0.22059
2636.21666,0.22085
2638.14513,0.21895
2640.07359,0.21775
2642.00206,0.21976
2643.93053,0.22166
2645.85900,0.21978
2647.78747,0.21677
2649.71594,0.21599
2651.64441,0.21663
2653.57288,0.21697
2655.50134,0.21659
2657.42981,0.21556
2659.35828,0.21398
2661.28675,0.21270
2663.21522,0.21293
2665.14369,0.21527
2667.07216,0.21798
2669.00062,0.21853
2670.92909,0.21826
2672.85756,0.21953
2674.78603,0.22077
2676.71450,0.22014
2678.64297,0.22022
2680.57144,0.22236
2682.49990,0.22385
2684.42837,0.22367
2686.35684,0.22244
2688.28531,0.22112
2690.21378,0.22118
2692.14225,0.22122
2694.07072,0.21981
2695.99919,0.21835
2697.92765,0.21753
2699.85612,0.21873
2701.78459,0.22177
2703.71306,0.22313
2705.64153,0.22213
2707.57000,0.21990
2709.49847,0.21849
2711.42693,0.22044
2713.35540,0.22228
2715.28387,0.22032
2717.21234,0.21849
2719.14081,0.21858
2721.06928,0.21764
2722.99775,0.21740
2724.92622,0.21948
2726.85468,0.22176
2728.78315,0.22378
2730.71162,0.22593
2732.64009,0.22685
2734.56856,0.22487
2736.49703,0.22245
2738.42550,0.22215
2740.35396,0.22154
2742.28243,0.22010
2744.21090,0.22063
2746.13937,0.22403
2748.06784,0.22761
2749.99631,0.22688
2751.92478,0.22329
2753.85325,0.22210
2755.78171,0.22259
2757.71018,0.22317
2759.63865,0.22448
2761.56712,0.22546
2763.49559,0.22539
2765.42406,0.22460
2767.35253,0.22626
2769.28099,0.23201
2771.20946,0.23513
2773.13793,0.23344
2775.06640,0.23184
2776.99487,0.22985
2778.92334,0.22632
2780.85181,0.22375
2782.78028,0.22458
2784.70874,0.22744
2786.63721,0.22725
2788.56568,0.22515
2790.49415,0.22754
2792.42262,0.23369
2794.35109,0.23562
2796.27956,0.23055
2798.20802,0.22539
2800.13649,0.22430
2802.06496,0.22479
2803.99343,0.22652
2805.92190,0.22791
2807.85037,0.22615
2809.77884,0.22340
2811.70731,0.22348
2813.63577,0.22705
2815.56424,0.23067
2817.49271,0.23185
2819.42118,0.23089
2821.34965,0.23055
2823.27812,0.23265
2825.20659,0.23507
2827.13505,0.23673
2829.06352,0.23799
2830.99199,0.23795
2832.92046,0.23618
2834.84893,0.23480
2836.77740,0.23348
2838.70587,0.23163
2840.63433,0.23159
2842.56280,0.23167
2844.49127,0.23022
2846.41974,0.22832
2848.34821,0.22700
2850.27668,0.22704
2852.20515,0.22806
2854.13362,0.22958
2856.06208,0.23185
2857.99055,0.23564
2859.91902,0.23722
2861.84749,0.23202
2863.77596,0.22647
2865.70443,0.22766
2867.63290,0.23065
2869.56136,0.23048
2871.48983,0.22810
2873.41830,0.22541
2875.34677,0.22443
2877.27524,0.22719
2879.20371,0.23371
2881.13218,0.23827
2883.06065,0.23686
2884.98911,0.23318
2886.91758,0.23070
2888.84605,0.22810
2890.77452,0.22508
2892.70299,0.22603
2894.63146,0.23020
2896.55993,0.23144
2898.48839,0.22980
2900.41686,0.22940
2902.34533,0.23085
2904.27380,0.23036
2906.20227,0.22624
2908.13074,0.22247
2910.05921,0.22053
2911.98768,0.22036
2913.91614,0.22260
2915.84461,0.22440
2917.77308,0.22582
2919.70155,0.22773
2921.63002,0.22714
2923.55849,0.22578
2925.48696,0.23561
2927.41542,0.25782
2929.34389,0.26722
2931.27236,0.25126
2933.20083,0.23055
2935.12930,0.22250
2937.05777,0.22348
2938.98624,0.22729
2940.91471,0.23202
2942.84317,0.23392
2944.77164,0.23114
2946.70011,0.22719
2948.62858,0.22835
2950.55705,0.23314
2952.48552,0.23338
2954.41399,0.22936
2956.34245,0.22584
2958.27092,0.22436
2960.19939,0.22647
2962.12786,0.23040
2964.05633,0.23081
2965.98480,0.22782
2967.91327,0.22613
2969.84174,0.22759
2971.77020,0.22979
2973.69867,0.22927
2975.62714,0.22567
2977.55561,0.22420
2979.48408,0.22848
2981.41255,0.23253
2983.34102,0.23080
2985.26948,0.22612
2987.19795,0.22427
2989.12642,0.22696
2991.05489,0.22955
2992.98336,0.22941
2994.91183,0.23005
2996.84030,0.23206
2998.76877,0.23299
3000.69723,0.23543
3002.62570,0.23930
3004.55417,0.23933
3006.48264,0.23635
3008.41111,0.23420
3010.33958,0.23129
3012.26805,0.22352
3014.19651,0.20826
3016.12498,0.19169
3018.05345,0.19329
3019.98192,0.21515
3021.91039,0.23255
3023.83886,0.23649
3025.76733,0.23649
3027.69579,0.23757
3029.62426,0.24083
3031.55273,0.24272
3033.48120,0.24035
3035.40967,0.23775
3037.33814,0.23638
3039.26661,0.23472
3041.19508,0.23318
3043.12354,0.23122
3045.05201,0.22898
3046.98048,0.22993
3048.90895,0.23430
3050.83742,0.23687
3052.76589,0.23717
3054.69436,0.23512
3056.62282,0.22802
3058.55129,0.22405
3060.47976,0.22888
3062.40823,0.23444
3064.33670,0.23424
3066.26517,0.22860
3068.19364,0.22542
3070.12211,0.23052
3072.05057,0.23466
3073.97904,0.22992
3075.90751,0.22438
3077.83598,0.22679
3079.76445,0.23265
3081.69292,0.23377
3083.62139,0.22818
3085.54985,0.22056
3087.47832,0.21959
3089.40679,0.22752
3091.33526,0.23235
3093.26373,0.22483
3095.19220,0.21858
3097.12067,0.22361
3099.04914,0.23013
3100.97760,0.23423
3102.90607,0.23406
3104.83454,0.22791
3106.76301,0.22230
3108.69148,0.22126
3110.61995,0.22169
3112.54842,0.22033
3114.47688,0.22262
3116.40535,0.22948
3118.33382,0.23281
3120.26229,0.23077
3122.19076,0.22765
3124.11923,0.22874
3126.04770,0.23539
3127.97617,0.24346
3129.90463,0.24697
3131.83310,0.24503
3133.76157,0.24288
3135.69004,0.24247
3137.61851,0.24100
3139.54698,0.24024
3141.47545,0.24231
3143.40391,0.24118
3145.33238,0.23611
3147.26085,0.23401
3149.18932,0.23526
3151.11779,0.23478
3153.04626,0.23238
3154.97473,0.23305
3156.90320,0.23715
3158.83166,0.24118
3160.76013,0.24316
3162.68860,0.24190
3164.61707,0.23807
3166.54554,0.23540
3168.47401,0.23593
3170.40248,0.23629
3172.33094,0.23541
3174.25941,0.23716
3176.18788,0.24149
3178.11635,0.24635
3180.04482,0.25208
3181.97329,0.25385
3183.90176,0.24867
3185.83022,0.24310
3187.75869,0.24101
3189.68716,0.24039
3191.61563,0.23943
3193.54410,0.23732
3195.47257,0.23551
3197.40104,0.23752
3199.32951,0.24213
3201.25797,0.24385
3203.18644,0.24084
3205.11491,0.23679
3207.04338,0.23560
3208.97185,0.23581
3210.90032,0.23616
3212.82879,0.23898
3214.75725,0.24377
3216.68572,0.24536
3218.61419,0.24451
3220.54266,0.24542
3222.47113,0.24353
3224.39960,0.23918
3226.32807,0.23924
3228.25654,0.24195
3230.18500,0.24246
3232.11347,0.24285
3234.04194,0.24842
3235.97041,0.25291
3237.89888,0.24659
3239.82735,0.23779
3241.75582,0.23620
3243.68428,0.23492
3245.61275,0.23207
3247.54122,0.23520
3249.46969,0.24031
3251.39816,0.24045
3253.32663,0.23838
3255.25510,0.23939
3257.18357,0.24407
3259.11203,0.24776
3261.04050,0.24750
3262.96897,0.24589
3264.89744,0.24229
3266.82591,0.23515
3268.75438,0.23002
3270.68285,0.22819
3272.61131,0.22697
3274.53978,0.22884
3276.46825,0.23508
3278.39672,0.24145
3280.32519,0.24170
3282.25366,0.23751
3284.18213,0.23559
3286.11060,0.23694
3288.03906,0.24016
3289.96753,0.24251
3291.89600,0.24107
3293.82447,0.23722
3295.75294,0.23463
3297.68141,0.23488
3299.60988,0.23379
3301.53834,0.23257
3303.46681,0.23740
3305.39528,0.24109
3307.32375,0.23700
3309.25222,0.23105
3311.18069,0.22760
3313.10916,0.22722
3315.03763,0.22932
3316.96609,0.23204
3318.89456,0.23459
3320.82303,0.23649
3322.75150,0.23747
3324.67997,0.23858
3326.60844,0.23990
3328.53691,0.23960
3330.46537,0.23637
3332.39384,0.23276
3334.32231,0.23313
3336.25078,0.23612
3338.17925,0.23743
3340.10772,0.23744
3342.03619,0.23880
3343.96466,0.24108
3345.89312,0.24087
3347.82159,0.23845
3349.75006,0.23976
3351.67853,0.24538
3353.60700,0.24731
3355.53547,0.24293
3357.46394,0.23854
3359.39240,0.23854
3361.32087,0.24150
3363.24934,0.24667
3365.17781,0.25277
3367.10628,0.25341
3369.03475,0.24737
3370.96322,0.24202
3372.89168,0.24097
3374.82015,0.24160
3376.74862,0.24187
3378.67709,0.24035
3380.60556,0.23805
3382.53403,0.23757
3384.46250,0.23723
3386.39097,0.23849
3388.31943,0.24233
3390.24790,0.24458
3392.17637,0.24526
3394.10484,0.24465
3396.03331,0.24114
3397.96178,0.23828
3399.89025,0.24631
3401.81871,0.26246
3403.74718,0.26937
3405.67565,0.26227
3407.60412,0.24685
3409.53259,0.23380
3411.46106,0.23188
3413.38953,0.23606
3415.31800,0.24214
3417.24646,0.24523
3419.17493,0.23946
3421.10340,0.23217
3423.03187,0.22979
3424.96034,0.22757
3426.88881,0.22255
3428.81728,0.21765
3430.74574,0.21832
3432.67421,0.22190
3434.60268,0.22186
3436.53115,0.22408
3438.45962,0.22920
3440.38809,0.22815
3442.31656,0.22492
3444.24503,0.22621
3446.17349,0.22913
3448.10196,0.23198
3450.03043,0.23423
3451.95890,0.23392
3453.88737,0.23223
3455.81584,0.23067
3457.74431,0.22953
3459.67277,0.22984
3461.60124,0.22735
3463.52971,0.21777
3465.45818,0.21016
3467.38665,0.21318
3469.31512,0.22124
3471.24359,0.22633
3473.17206,0.22379
3475.10052,0.21639
3477.02899,0.21573
3478.95746,0.22325
3480.88593,0.22778
3482.81440,0.22414
3484.74287,0.21845
3486.67134,0.21367
3488.59980,0.20886
3490.52827,0.20578
3492.45674,0.20493
3494.38521,0.20892
3496.31368,0.21497
3498.24215,0.21425
3500.17062,0.21166
3502.09909,0.21314
3504.02755,0.21377
3505.95602,0.21315
3507.88449,0.21468
3509.81296,0.21559
3511.74143,0.21212
3513.66990,0.20570
3515.59837,0.19986
3517.52683,0.19792
3519.45530,0.20029
3521.38377,0.20409
3523.31224,0.20714
3525.24071,0.20779
3527.16918,0.20420
3529.09765,0.19769
3531.02611,0.19297
3532.95458,0.19212
3534.88305,0.19269
3536.81152,0.19121
3538.73999,0.18898
3540.66846,0.18966
3542.59693,0.19248
3544.52540,0.19507
3546.45386,0.19796
3548.38233,0.20002
3550.31080,0.19725
3552.23927,0.19037
3554.16774,0.18410
3556.09621,0.18142
3558.02468,0.18370
3559.95314,0.18958
3561.88161,0.19421
3563.81008,0.19627
3565.73855,0.19587
3567.66702,0.18999
3569.59549,0.18318
3571.52396,0.17816
3573.45243,0.17280
3575.38089,0.16954
3577.30936,0.16837
3579.23783,0.16873
3581.16630,0.17267
3583.09477,0.17679
3585.02324,0.17899
3586.95171,0.17812
3588.88017,0.17235
3590.80864,0.16961
3592.73711,0.17139
3594.66558,0.17346
3596.59405,0.17370
3598.52252,0.17247
3600.45099,0.17153
3602.37946,0.17019
3604.30792,0.16888
3606.23639,0.17288
3608.16486,0.18147
3610.09333,0.18416
3612.02180,0.18027
3613.95027,0.17694
3615.87874,0.17757
3617.80720,0.18063
3619.73567,0.18189
3621.66414,0.17742
3623.59261,0.17064
3625.52108,0.16872
3627.44955,0.17432
3629.37802,0.17578
3631.30649,0.16896
3633.23495,0.16570
3635.16342,0.16392
3637.09189,0.16244
3639.02036,0.16374
3640.94883,0.16702
3642.87730,0.16848
3644.80577,0.16874
3646.73423,0.17379
3648.66270,0.18118
3650.59117,0.17580
3652.51964,0.16518
3654.44811,0.15947
3656.37658,0.15710
3658.30505,0.15141
3660.23352,0.14362
3662.16198,0.14152
3664.09045,0.14475
3666.01892,0.14806
3667.94739,0.15313
3669.87586,0.16033
3671.80433,0.16299
3673.73280,0.16292
3675.66126,0.16009
3677.58973,0.15871
3679.51820,0.16167
3681.44667,0.16166
3683.37514,0.15725
3685.30361,0.15335
3687.23208,0.15547
3689.16055,0.16439
3691.08901,0.16494
3693.01748,0.15584
3694.94595,0.14974
3696.87442,0.14847
3698.80289,0.14911
3700.73136,0.14993
3702.65983,0.15044
3704.58829,0.15072
3706.51676,0.15348
3708.44523,0.16205
3710.37370,0.17260
3712.30217,0.17150
3714.23064,0.15884
3716.15911,0.14905
3718.08757,0.14968
3720.01604,0.15624
3721.94451,0.16004
3723.87298,0.16201
3725.80145,0.16062
3727.72992,0.15576
3729.65839,0.15483
3731.58686,0.16238
3733.51532,0.17437
3735.44379,0.17291
3737.37226,0.16177
3739.30073,0.15957
3741.22920,0.16250
3743.15767,0.16474
3745.08614,0.16667
3747.01460,0.16876
3748.94307,0.16793
3750.87154,0.15768
3752.80001,0.14275
3754.72848,0.13740
3756.65695,0.14120
3758.58542,0.15188
3760.51389,0.15921
3762.44235,0.15594
3764.37082,0.14994
3766.29929,0.14720
3768.22776,0.14655
3770.15623,0.14391
3772.08470,0.13897
3774.01317,0.13563
3775.94163,0.13779
3777.87010,0.14440
3779.79857,0.14764
3781.72704,0.14510
3783.65551,0.14225
3785.58398,0.14053
3787.51245,0.13872
3789.44092,0.13862
3791.36938,0.14082
3793.29785,0.14353
3795.22632,0.14866
3797.15479,0.15397
3799.08326,0.15309
3801.01173,0.14850
3802.94020,0.14536
3804.86866,0.14507
3806.79713,0.14708
3808.72560,0.14735
3810.65407,0.14263
3812.58254,0.13848
3814.51101,0.14238
3816.43948,0.15377
3818.36795,0.16487
3820.29641,0.17320
3822.22488,0.16343
3824.15335,0.14606
3826.08182,0.14194
3828.01029,0.14575
3829.93876,0.14552
3831.86723,0.14191
3833.79569,0.14365
3835.72416,0.15178
3837.65263,0.15964
3839.58110,0.15822
3841.50957,0.14835
3843.43804,0.14029
3845.36651,0.13970
3847.29498,0.14390
3849.22344,0.14574
3851.15191,0.14345
3853.08038,0.14509
3855.00885,0.14517
3856.93732,0.13829
3858.86579,0.13674
3860.79426,0.14134
3862.72272,0.14611
3864.65119,0.14460
3866.57966,0.13920
3868.50813,0.14055
3870.43660,0.14735
3872.36507,0.14630
3874.29354,0.14199
3876.22200,0.14187
3878.15047,0.14424
3880.07894,0.14536
3882.00741,0.14175
3883.93588,0.13817
3885.86435,0.13635
3887.79282,0.13383
3889.72129,0.13346
3891.64975,0.13656
3893.57822,0.13967
3895.50669,0.14151
3897.43516,0.14275
3899.36363,0.14235
3901.29210,0.14027
3903.22057,0.14041
3905.14903,0.14168
3907.07750,0.13809
3909.00597,0.13187
3910.93444,0.12710
3912.86291,0.12322
3914.79138,0.11963
3916.71985,0.12114
3918.64832,0.12719
3920.57678,0.12839
3922.50525,0.12488
3924.43372,0.12513
3926.36219,0.13079
3928.29066,0.13389
3930.21913,0.13240
3932.14760,0.12998
3934.07606,0.12855
3936.00453,0.12775
3937.93300,0.12549
3939.86147,0.12506
3941.78994,0.13089
3943.71841,0.13675
3945.64688,0.13762
3947.57535,0.13492
3949.50381,0.12784
3951.43228,0.12076
3953.36075,0.11854
3955.28922,0.11999
3957.21769,0.12296
3959.14616,0.12534
3961.07463,0.12620
3963.00309,0.12429
3964.93156,0.12072
3966.86003,0.12013
3968.78850,0.12194
3970.71697,0.12444
3972.64544,0.12825
3974.57391,0.12921
3976.50238,0.12553
3978.43084,0.12291
3980.35931,0.12334
3982.28778,0.12405
3984.21625,0.12274
3986.14472,0.12027
3988.07319,0.12019
3990.00166,0.12083
3991.93012,0.11753
3993.85859,0.11344
3995.78706,0.11484
3997.71553,0.11927
3999.64400,0.12139
4001.57247,0.12072
4003.50094,0.11686
4005.42941,0.11345
4007.35787,0.11425
4009.28634,0.11442
4011.21481,0.11411
4013.14328,0.11683
4015.07175,0.11839
4017.00022,0.11816
4018.92869,0.11759
4020.85715,0.11369
4022.78562,0.10990
4024.71409,0.11103
4026.64256,0.11490
4028.57103,0.12015
4030.49950,0.12488
4032.42797,0.12307
4034.35644,0.11537
4036.28490,0.11011
4038.21337,0.10809
4040.14184,0.10379
4042.07031,0.09885
4043.99878,0.09747
4045.92725,0.10124
4047.85572,0.10892
4049.78418,0.11350
4051.71265,0.11268
4053.64112,0.11208
4055.56959,0.11240
4057.49806,0.10993
4059.42653,0.10551
4061.35500,0.10681
4063.28346,0.11526
4065.21193,0.11730
4067.14040,0.10846
4069.06887,0.10211
4070.99734,0.10361
4072.92581,0.10619
4074.85428,0.10684
4076.78275,0.10731
4078.71121,0.10662
4080.63968,0.10332
4082.56815,0.10157
4084.49662,0.10281
4086.42509,0.10284
4088.35356,0.10393
4090.28203,0.10721
4092.21049,0.10749
4094.13896,0.10553
4096.06743,0.10355
4097.99590,0.10348
4099.92437,0.10761
4101.85284,0.11080
4103.78131,0.10919
4105.70978,0.10705
4107.63824,0.10462
4109.56671,0.10001
4111.49518,0.09877
4113.42365,0.10219
4115.35212,0.10224
4117.28059,0.09663
4119.20906,0.09366
4121.13752,0.09593
4123.06599,0.09832
4124.99446,0.10098
4126.92293,0.10329
4128.85140,0.10278
4130.77987,0.09958
4132.70834,0.09536
4134.63681,0.09551
4136.56527,0.09949
4138.49374,0.10111
4140.42221,0.10070
4142.35068,0.09837
4144.27915,0.09328
4146.20762,0.09089
4148.13609,0.09121
4150.06455,0.09066
4151.99302,0.09276
4153.92149,0.09576
4155.84996,0.09281
4157.77843,0.08833
4159.70690,0.09250
4161.63537,0.10012
4163.56384,0.09769
4165.49230,0.08739
4167.42077,0.08173
4169.34924,0.08522
4171.27771,0.09220
4173.20618,0.09622
4175.13465,0.09560
4177.06312,0.09146
4178.99158,0.08668
4180.92005,0.08407
4182.84852,0.08469
4184.77699,0.08856
4186.70546,0.09366
4188.63393,0.09986
4190.56240,0.10456
4192.49087,0.09948
4194.41933,0.08816
4196.34780,0.08474
4198.27627,0.08934
4200.20474,0.08800
4202.13321,0.08172
4204.06168,0.08095
4205.99015,0.08303
4207.91861,0.08326
4209.84708,0.08050
4211.77555,0.07846
4213.70402,0.08346
4215.63249,0.08847
4217.56096,0.08473
4219.48943,0.07824
4221.41789,0.07606
4223.34636,0.07733
4225.27483,0.07869
4227.20330,0.07691
4229.13177,0.07067
4231.06024,0.06334
4232.98871,0.06158
4234.91718,0.06578
4236.84564,0.06999
4238.77411,0.07483
4240.70258,0.08046
4242.63105,0.07797
4244.55952,0.07127
4246.48799,0.07321
4248.41646,0.07922
4250.34492,0.08025
4252.27339,0.07835
4254.20186,0.07791
4256.13033,0.07762
4258.05880,0.07561
4259.98727,0.07498
4261.91574,0.07778
4263.84421,0.08329
4265.77267,0.08336
4267.70114,0.07317
4269.62961,0.06873
4271.55808,0.07570
4273.48655,0.07718
4275.41502,0.07300
4277.34349,0.07176
4279.27195,0.06850
4281.20042,0.06610
4283.12889,0.07001
4285.05736,0.07369
4286.98583,0.07121
4288.91430,0.06553
4290.84277,0.06395
4292.77124,0.06576
4294.69970,0.06357
4296.62817,0.05622
4298.55664,0.05096
4300.48511,0.05037
4302.41358,0.05192
4304.34205,0.05929
4306.27052,0.06929
4308.19898,0.07094
4310.12745,0.06443
4312.05592,0.05692
4313.98439,0.05348
4315.91286,0.05825
4317.84133,0.06790
4319.76980,0.07060
4321.69827,0.06576
4323.62673,0.06197
4325.55520,0.06034
4327.48367,0.05768
4329.41214,0.05294
4331.34061,0.05407
4333.26908,0.06277
4335.19755,0.06608
4337.12601,0.06131
4339.05448,0.05682
4340.98295,0.05786
4342.91142,0.06042
4344.83989,0.05735
4346.76836,0.05251
4348.69683,0.05384
4350.62530,0.05860
4352.55376,0.05696
4354.48223,0.05279
4356.41070,0.05680
4358.33917,0.05852
4360.26764,0.05151
4362.19611,0.05279
4364.12458,0.05824
4366.05304,0.05168
4367.98151,0.04267
4369.90998,0.03885
4371.83845,0.03931
4373.76692,0.04385
4375.69539,0.04881
4377.62386,0.05227
4379.55232,0.05035
4381.48079,0.04580
4383.40926,0.04764
4385.33773,0.05250
4387.26620,0.05156
4389.19467,0.04437
4391.12314,0.04214
4393.05161,0.05103
4394.98007,0.05635
4396.90854,0.05059
4398.83701,0.04295
4400.76548,0.03668
4402.69395,0.03563
4404.62242,0.04452
4406.55089,0.05591
4408.47935,0.05652
4410.40782,0.04270
4412.33629,0.02627
4414.26476,0.01777
4416.19323,0.01877
4418.12170,0.02502
4420.05017,0.02802
4421.97864,0.02738
4423.90710,0.02813
4425.83557,0.03119
4427.76404,0.03478
4429.69251,0.03226
4431.62098,0.02357
4433.54945,0.02016
4435.47792,0.02444
4437.40638,0.02908
4439.33485,0.03619
4441.26332,0.04702
4443.19179,0.05061
4445.12026,0.04606
4447.04873,0.04192
4448.97720,0.03936
4450.90567,0.03675
4452.83413,0.03522
4454.76260,0.03724
4456.69107,0.03739
4458.61954,0.03183
4460.54801,0.02962
4462.47648,0.03485
4464.40495,0.03784
4466.33341,0.03228
4468.26188,0.02711
4470.19035,0.02848
4472.11882,0.03128
4474.04729,0.03350
4475.97576,0.03105
4477.90423,0.02127
4479.83270,0.01463
4481.76116,0.01648
4483.68963,0.01906
4485.61810,0.01951
4487.54657,0.02336
4489.47504,0.02830
4491.40351,0.02612
4493.33198,0.01922
4495.26044,0.01891
4497.18891,0.03093
4499.11738,0.04326
4501.04585,0.03832
4502.97432,0.02197
4504.90279,0.01373
4506.83126,0.01570
4508.75973,0.01370
4510.68819,0.00794
4512.61666,0.01149
4514.54513,0.02215
4516.47360,0.02911
4518.40207,0.03116
4520.33054,0.03228
4522.25901,0.03197
4524.18747,0.02868
4526.11594,0.02490
4528.04441,0.02260
4529.97288,0.01835
4531.90135,0.01141
4533.82982,0.01241
4535.75829,0.02026
4537.68676,0.01986
4539.61522,0.01092
4541.54369,0.00311
4543.47216,0.00493
4545.40063,0.01678
4547.32910,0.02204
4549.25757,0.01170
4551.18604,0.00335
4553.11450,0.00949
4555.04297,0.01740
4556.97144,0.01700
4558.89991,0.01261
4560.82838,0.00867
4562.75685,0.00748
4564.68532,0.00922
4566.61378,0.01187
4568.54225,0.01417
4570.47072,0.01065
4572.39919,0.00068
4574.32766,-0.00323
4576.25613,0.00096
4578.18460,0.00186
4580.11307,-0.00049
4582.04153,0.00216
4583.97000,0.00997
4585.89847,0.01629
4587.82694,0.01223
4589.75541,0.00100
4591.68388,-0.00131
4593.61235,0.00493
4595.54081,0.00737
4597.46928,0.00811
4599.39775,0.01249
4601.32622,0.01264
4603.25469,0.00553
4605.18316,0.00364
4607.11163,0.00729
4609.04010,0.00625
4610.96856,0.00362
4612.89703,0.00509
4614.82550,0.01118
4616.75397,0.01812
4618.68244,0.01913
4620.61091,0.01480
4622.53938,0.01106
4624.46784,0.01340
4626.39631,0.01895
4628.32478,0.01914
4630.25325,0.01781
4632.18172,0.01645
4634.11019,0.00931
4636.03866,0.00047
4637.96713,-0.00352
4639.89559,-0.00156
4641.82406,0.00189
4643.75253,0.00001
4645.68100,-0.00256
4647.60947,0.00550
4649.53794,0.01328
4651.46641,0.00754
4653.39487,0.00266
4655.32334,0.00485
4657.25181,0.00678
4659.18028,0.00818
4661.10875,0.00823
4663.03722,0.00647
4664.96569,0.00775
4666.89416,0.01356
4668.82262,0.01268
4670.75109,0.00424
4672.67956,0.00526
4674.60803,0.01534
4676.53650,0.01721
4678.46497,0.00728
4680.39344,-0.00197
4682.32190,-0.00511
4684.25037,-0.00448
4686.17884,0.00073
4688.10731,0.00831
4690.03578,0.01724
4691.96425,0.02732
4693.89272,0.02953
4695.82119,0.02163
4697.74965,0.01529
4699.67812,0.01428
4701.60659,0.01133
4703.53506,0.00536
4705.46353,0.00344
4707.39200,0.00475
4709.32047,0.00330
4711.24893,-0.00017
4713.17740,-0.00687
4715.10587,-0.01456
4717.03434,-0.01204
4718.96281,0.00220
4720.89128,0.01757
4722.81975,0.02247
4724.74821,0.01713
4726.67668,0.01510
4728.60515,0.02179
4730.53362,0.02345
4732.46209,0.01078
4734.39056,0.00277
4736.31903,0.01179
4738.24750,0.01777
4740.17596,0.00959
4742.10443,0.00222
4744.03290,0.00775
4745.96137,0.01895
4747.88984,0.02204
4749.81831,0.01775
4751.74678,0.01682
4753.67524,0.01897
4755.60371,0.01846
4757.53218,0.01747
4759.46065,0.01705
4761.38912,0.01314
4763.31759,0.00796
4765.24606,0.00780
4767.17453,0.01124
4769.10299,0.01332
4771.03146,0.01578
4772.95993,0.02021
4774.88840,0.02101
4776.81687,0.01650
4778.74534,0.01181
4780.67381,0.01118
4782.60227,0.01303
4784.53074,0.01410
4786.45921,0.01792
4788.38768,0.02606
4790.31615,0.03616
4792.24462,0.03826
4794.17309,0.02062
4796.10156,0.00198
4798.03002,0.00419
4799.95849,0.01312
4801.88696,0.01047
4803.81543,-0.00002
4805.74390,-0.00640
4807.67237,-0.00642
4809.60084,-0.00626
4811.52930,-0.00964
4813.45777,-0.00775
4815.38624,0.00616
4817.31471,0.01654
4819.24318,0.01414
4821.17165,0.01296
4823.10012,0.01591
4825.02859,0.01703
4826.95705,0.01413
4828.88552,0.00235
4830.81399,-0.00611
4832.74246,-0.00280
4834.67093,-0.00540
4836.59940,-0.00955
4838.52787,0.00030
4840.45633,0.00698
4842.38480,0.00135
4844.31327,0.00071
4846.24174,0.01154
4848.17021,0.02073
4850.09868,0.01780
4852.02715,0.00939
4853.95562,0.00319
4855.88408,-0.00016
4857.81255,0.00132
4859.74102,0.00496
4861.66949,0.00267
4863.59796,-0.00316
4865.52643,-0.00307
4867.45490,0.00274
4869.38336,0.00576
4871.31183,0.00269
4873.24030,0.00394
4875.16877,0.01432
4877.09724,0.02253
4879.02571,0.02214
4880.95418,0.01447
4882.88265,0.00771
4884.81111,0.00579
4886.73958,0.00433
4888.66805,0.00784
4890.59652,0.02483
4892.52499,0.04396
4894.45346,0.04426
4896.38193,0.02606
4898.31039,0.00823
4900.23886,-0.00010
4902.16733,-0.00291
4904.09580,-0.00185
4906.02427,0.00480
4907.95274,0.01538
4909.88121,0.02047
4911.80967,0.01771
4913.73814,0.01112
4915.66661,0.00146
4917.59508,-0.00342
4919.52355,0.00215
4921.45202,0.01078
4923.38049,0.00908
4925.30896,0.00064
4927.23742,0.00316
4929.16589,0.01235
4931.09436,0.01580
4933.02283,0.01979
4934.95130,0.02534
4936.87977,0.01992
4938.80824,0.00494
4940.73670,-0.00453
4942.66517,-0.00189
4944.59364,-0.00071
4946.52211,-0.00753
4948.45058,-0.01060
4950.37905,-0.00449
4952.30752,0.01530
4954.23599,0.03548
4956.16445,0.03291
4958.09292,0.02000
4960.02139,0.01790
4961.94986,0.02337
4963.87833,0.02437
4965.80680,0.01998
4967.73527,0.01641
4969.66373,0.01184
4971.59220,0.00352
4973.52067,-0.00061
4975.44914,0.00799
4977.37761,0.02269
4979.30608,0.02537
4981.23455,0.01155
4983.16302,-0.00370
4985.09148,-0.00795
4987.01995,-0.00233
4988.94842,0.00750
4990.87689,0.01588
4992.80536,0.01724
4994.73383,0.01499
4996.66230,0.00907
4998.59076,-0.00277
5000.51923,-0.00515
5002.44770,0.00581
5004.37617,0.00730
5006.30464,-0.00321
5008.23311,0.00346
5010.16158,0.02605
5012.09005,0.03403
5014.01851,0.02395
5015.94698,0.00959
5017.87545,-0.00302
5019.80392,-0.00660
5021.73239,0.00215
5023.66086,0.01203
5025.58933,0.01193
5027.51779,0.00371
5029.44626,-0.00246
5031.37473,-0.00526
5033.30320,-0.00689
5035.23167,-0.00205
5037.16014,0.01025
5039.08861,0.02572
5041.01708,0.03266
5042.94554,0.02572
5044.87401,0.01641
5046.80248,0.01357
5048.73095,0.01182
5050.65942,0.00636
5052.58789,0.00241
5054.51636,-0.00154
5056.44482,-0.00835
5058.37329,-0.01119
5060.30176,0.00023
5062.23023,0.02119
5064.15870,0.02565
5066.08717,0.00937
5068.01564,0.00044
5069.94410,0.01073
5071.87257,0.02697
5073.80104,0.03665
5075.72951,0.04085
5077.65798,0.04671
5079.58645,0.04483
5081.51492,0.03320
5083.44339,0.03433
5085.37185,0.05475
5087.30032,0.07381
5089.22879,0.06194
5091.15726,0.02591
5093.08573,0.00768
5095.01420,0.01074
5096.94267,0.01208
5098.87113,0.01359
5100.79960,0.02177
5102.72807,0.02932
5104.65654,0.02872
5106.58501,0.02306
5108.51348,0.02568
5110.44195,0.03594
5112.37042,0.03392
5114.29888,0.01938
5116.22735,0.01525
5118.15582,0.01929
5120.08429,0.01479
5122.01276,0.00711
5123.94123,0.00759
5125.86970,0.02347
5127.79816,0.04812
5129.72663,0.05934
5131.65510,0.04818
5133.58357,0.02182
5135.51204,-0.00219
5137.44051,-0.00953
5139.36898,0.00004
5141.29745,0.02428
5143.22591,0.05350
5145.15438,0.07376
5147.08285,0.08132
5149.01132,0.07430
5150.93979,0.05575
5152.86826,0.03980
5154.79673,0.03736
5156.72519,0.04040
5158.65366,0.03684
5160.58213,0.03478
5162.51060,0.03398
5164.43907,0.02207
5166.36754,0.01524
5168.29601,0.02410
5170.22448,0.02928
5172.15294,0.04305
5174.08141,0.07447
5176.00988,0.08535
5177.93835,0.06953
5179.86682,0.05064
5181.79529,0.03450
5183.72376,0.02222
5185.65222,0.02465
5187.58069,0.04435
5189.50916,0.05469
5191.43763,0.04559
5193.36610,0.04294
5195.29457,0.05525
5197.22304,0.06394
5199.15151,0.06193
5201.07997,0.05448
5203.00844,0.04205
5204.93691,0.02583
5206.86538,0.01985
5208.79385,0.03512
5210.72232,0.05472
5212.65079,0.06833
5214.57925,0.07344
5216.50772,0.06209
5218.43619,0.03952
5220.36466,0.02883
5222.29313,0.03731
5224.22160,0.04537
5226.15007,0.04537
5228.07854,0.03830
5230.00700,0.02248
5231.93547,0.02274
5233.86394,0.04797
5235.79241,0.06682
5237.72088,0.06950
5239.64935,0.06777
5241.57782,0.06637
5243.50628,0.06223
5245.43475,0.04854
5247.36322,0.02458
5249.29169,-0.00213
5251.22016,-0.00574
5253.14863,0.02528
5255.07710,0.06045
5257.00556,0.06845
5258.93403,0.05584
5260.86250,0.04889
5262.79097,0.06025
5264.71944,0.07309
5266.64791,0.07904
5268.57638,0.08539
5270.50485,0.07806
5272.43331,0.05402
5274.36178,0.04120
5276.29025,0.05177
5278.21872,0.07672
5280.14719,0.10043
5282.07566,0.10201
5284.00413,0.08201
5285.93259,0.06582
5287.86106,0.06134
5289.78953,0.05977
5291.71800,0.05789
5293.64647,0.04688
5295.57494,0.02972
5297.50341,0.02857
5299.43188,0.04023
5301.36034,0.03793
5303.28881,0.02924
5305.21728,0.03464
5307.14575,0.04998
5309.07422,0.05547
5311.00269,0.04516
5312.93116,0.04498
5314.85962,0.05160
5316.78809,0.04573
5318.71656,0.04437
5320.64503,0.05389
5322.57350,0.06609
5324.50197,0.07535
5326.43044,0.06599
5328.35891,0.03932
5330.28737,0.03207
5332.21584,0.06265
5334.14431,0.09508
5336.07278,0.08921
5338.00125,0.05497
5339.92972,0.02667
5341.85819,0.02092
5343.78665,0.04875
5345.71512,0.09465
5347.64359,0.10846
5349.57206,0.09743
5351.50053,0.08832
5353.42900,0.08328
5355.35747,0.08148
5357.28594,0.07693
5359.21440,0.07437
5361.14287,0.08899
5363.07134,0.10402
5364.99981,0.10234
5366.92828,0.09178
5368.85675,0.07774
5370.78522,0.07218
5372.71368,0.07711
5374.64215,0.07316
5376.57062,0.05694
5378.49909,0.04288
5380.42756,0.03508
5382.35603,0.03756
5384.28450,0.04875
5386.21297,0.05647
5388.14143,0.05418
5390.06990,0.04645
5391.99837,0.04406
5393.92684,0.05347
5395.85531,0.07335
5397.78378,0.09034
5399.71225,0.09042
5401.64071,0.08199
5403.56918,0.07347
5405.49765,0.06146
5407.42612,0.05679
5409.35459,0.06733
5411.28306,0.07032
5413.21153,0.05968
5415.13999,0.06601
5417.06846,0.08171
5418.99693,0.07850
5420.92540,0.06479
5422.85387,0.07539
5424.78234,0.10302
5426.71081,0.10906
5428.63928,0.10038
5430.56774,0.10149
5432.49621,0.10516
5434.42468,0.09531
5436.35315,0.06716
5438.28162,0.04926
5440.21009,0.05270
5442.13856,0.05174
5444.06702,0.04531
5445.99549,0.05985
5447.92396,0.09240
5449.85243,0.12084
5451.78090,0.13426
5453.70937,0.12399
5455.63784,0.10131
5457.56631,0.09812
5459.49477,0.11165
5461.42324,0.11908
5463.35171,0.10774
5465.28018,0.07422
5467.20865,0.04825
5469.13712,0.05906
5471.06559,0.06982
5472.99405,0.04140
5474.92252,0.01923
5476.85099,0.04974
5478.77946,0.09602
5480.70793,0.12924
5482.63640,0.13699
5484.56487,0.11140
5486.49334,0.08097
5488.42180,0.08225
5490.35027,0.09267
5492.27874,0.06641
5494.20721,0.04488
5496.13568,0.06677
5498.06415,0.08805
5499.99262,0.08223
5501.92108,0.06446
5503.84955,0.05183
5505.77802,0.05015
5507.70649,0.05351
5509.63496,0.06215
5511.56343,0.08496
5513.49190,0.11401
5515.42037,0.12993
5517.34883,0.11569
5519.27730,0.07368
5521.20577,0.03390
5523.13424,0.02112
5525.06271,0.03105
5526.99118,0.03524
5528.91965,0.03363
5530.84811,0.04682
5532.77658,0.06281
5534.70505,0.07466
5536.63352,0.08660
5538.56199,0.09692
5540.49046,0.11054
5542.41893,0.12174
5544.34740,0.11819
5546.27586,0.09947
5548.20433,0.08486
5550.13280,0.08787
5552.06127,0.08592
5553.98974,0.06459
5555.91821,0.05060
5557.84668,0.06140
5559.77514,0.07707
5561.70361,0.08821
5563.63208,0.10061
5565.56055,0.11474
5567.48902,0.11578
5569.41749,0.09066
5571.34596,0.06961
5573.27443,0.07542
5575.20289,0.09014
5577.13136,0.10605
5579.05983,0.11449
5580.98830,0.09335
5582.91677,0.05868
5584.84524,0.04906
5586.77371,0.06284
5588.70217,0.08085
5590.63064,0.10124
5592.55911,0.11321
5594.48758,0.10685
5596.41605,0.10649
5598.34452,0.12309
5600.27299,0.11950
5602.20145,0.07617
5604.12992,0.04338
5606.05839,0.06152
5607.98686,0.10164
5609.91533,0.11987
5611.84380,0.09913
5613.77227,0.07418
5615.70074,0.07967
5617.62920,0.08529
5619.55767,0.06812
5621.48614,0.05479
5623.41461,0.07264
5625.34308,0.09855
5627.27155,0.09571
5629.20002,0.08007
5631.12848,0.07300
5633.05695,0.06468
5634.98542,0.04831
5636.91389,0.05048
5638.84236,0.07674
5640.77083,0.08080
5642.69930,0.07021
5644.62777,0.07753
5646.55623,0.09174
5648.48470,0.11796
5650.41317,0.14689
5652.34164,0.14250
5654.27011,0.12052
5656.19858,0.10643
5658.12705,0.09808
5660.05551,0.09995
5661.98398,0.11309
5663.91245,0.11921
5665.84092,0.11732
5667.76939,0.12134
5669.69786,0.12809
5671.62633,0.13392
5673.55480,0.13785
5675.48326,0.13932
5677.41173,0.13579
5679.34020,0.11751
5681.26867,0.08625
5683.19714,0.04860
5685.12561,0.03321
5687.05408,0.05401
5688.98254,0.06249
5690.91101,0.05501
5692.83948,0.08094
5694.76795,0.12327
5696.69642,0.13207
5698.62489,0.11235
5700.55336,0.10178
5702.48183,0.10549
5704.41029,0.11156
5706.33876,0.11417
5708.26723,0.10986
5710.19570,0.09726
5712.12417,0.07223
5714.05264,0.04733
5715.98111,0.04868
5717.90957,0.08097
5719.83804,0.12908
5721.76651,0.14513
5723.69498,0.09325
5725.62345,0.03953
5727.55192,0.05323
5729.48039,0.07755
5731.40886,0.04936
5733.33732,0.01934
5735.26579,0.03576
5737.19426,0.06301
5739.12273,0.07334
5741.05120,0.08776
5742.97967,0.11967
5744.90814,0.14314
5746.83660,0.13545
5748.76507,0.13467
5750.69354,0.14654
5752.62201,0.12074
5754.55048,0.08345
5756.47895,0.07880
5758.40742,0.08732
5760.33588,0.09671
5762.26435,0.10040
5764.19282,0.08264
5766.12129,0.07581
5768.04976,0.08945
5769.97823,0.09436
5771.90670,0.10715
5773.83517,0.11525
5775.76363,0.07947
5777.69210,0.03210
5779.62057,0.02875
5781.54904,0.06970
5783.47751,0.10554
5785.40598,0.09804
5787.33445,0.06904
5789.26291,0.07033
5791.19138,0.09977
5793.11985,0.11198
5795.04832,0.10237
5796.97679,0.11058
5798.90526,0.14183
5800.83373,0.15091
5802.76220,0.12917
5804.69066,0.11181
5806.61913,0.11336
5808.54760,0.12729
5810.47607,0.13537
5812.40454,0.12622
5814.33301,0.11988
5816.26148,0.11744
5818.18994,0.09599
5820.11841,0.06917
5822.04688,0.06918
5823.97535,0.10422
5825.90382,0.13727
5827.83229,0.12465
5829.76076,0.09995
5831.68923,0.10671
5833.61769,0.11923
5835.54616,0.11259
5837.47463,0.09411
5839.40310,0.06305
5841.33157,0.02793
5843.26004,0.03703
5845.18851,0.08529
5847.11697,0.10221
5849.04544,0.08109
5850.97391,0.07013
5852.90238,0.07829
5854.83085,0.10384
5856.75932,0.12852
5858.68779,0.10614
5860.61626,0.07174
5862.54472,0.07372
5864.47319,0.06572
5866.40166,0.05619
5868.33013,0.08100
5870.25860,0.09712
5872.18707,0.10793
5874.11554,0.12799
5876.04400,0.11528
5877.97247,0.07466
5879.90094,0.05948
5881.82941,0.07527
5883.75788,0.08674
5885.68635,0.09782
5887.61482,0.11778
5889.54329,0.11020
5891.47175,0.07805
5893.40022,0.08157
5895.32869,0.12817
5897.25716,0.15505
5899.18563,0.14376
5901.11410,0.13461
5903.04257,0.13941
5904.97103,0.12994
5906.89950,0.11267
5908.82797,0.13087
5910.75644,0.16856
5912.68491,0.19474
5914.61338,0.19460
5916.54185,0.14591
5918.47032,0.08043
5920.39878,0.05066
5922.32725,0.07270
5924.25572,0.11286
5926.18419,0.12062
5928.11266,0.09730
5930.04113,0.07745
5931.96960,0.08162
5933.89806,0.10264
5935.82653,0.12173
5937.75500,0.11790
5939.68347,0.06931
5941.61194,-0.00068
5943.54041,-0.02616
5945.46888,0.01045
5947.39734,0.06344
5949.32581,0.08788
5951.25428,0.07198
5953.18275,0.05636
5955.11122,0.09189
5957.03969,0.15749
5958.96816,0.18779
5960.89663,0.16776
5962.82509,0.13773
5964.75356,0.12159
5966.68203,0.11307
5968.61050,0.10079
5970.53897,0.09521
5972.46744,0.10923
5974.39591,0.12698
5976.32437,0.12874
5978.25284,0.12004
5980.18131,0.11937
5982.10978,0.12497
5984.03825,0.12018
5985.96672,0.09503
5987.89519,0.06636
5989.82366,0.07640
5991.75212,0.10422
5993.68059,0.10229
5995.60906,0.10112
5997.53753,0.11781
5999.46600,0.13228
6001.39447,0.15504
6003.32294,0.15468
6005.25140,0.10381
6007.17987,0.07349
6009.10834,0.08493
6011.03681,0.08503
6012.96528,0.08210
6014.89375,0.10321
6016.82222,0.13436
6018.75069,0.13532
6020.67915,0.08631
6022.60762,0.05187
6024.53609,0.07715
6026.46456,0.10554
6028.39303,0.10657
6030.32150,0.11110
6032.24997,0.11451
6034.17843,0.11685
6036.10690,0.12377
6038.03537,0.10341
6039.96384,0.08206
6041.89231,0.08727
6043.82078,0.08105
6045.74925,0.07825
6047.67772,0.11961
6049.60618,0.15454
6051.53465,0.13386
6053.46312,0.09528
6055.39159,0.07476
6057.32006,0.07224
6059.24853,0.06785
6061.17700,0.07832
6063.10546,0.11592
6065.03393,0.12312
6066.96240,0.09557
6068.89087,0.09188
6070.81934,0.12337
6072.74781,0.15723
6074.67628,0.17994
6076.60475,0.17302
6078.53321,0.12425
6080.46168,0.07777
6082.39015,0.05983
6084.31862,0.06618
6086.24709,0.09920
6088.17556,0.12431
6090.10403,0.09464
6092.03249,0.04262
6093.96096,0.05054
6095.88943,0.09308
6097.81790,0.10014
6099.74637,0.10139
6101.67484,0.11807
6103.60331,0.11735
6105.53177,0.09860
6107.46024,0.06912
6109.38871,0.04066
6111.31718,0.04056
6113.24565,0.05240
6115.17412,0.07884
6117.10259,0.15164
6119.03106,0.20919
6120.95952,0.17437
6122.88799,0.10748
6124.81646,0.08833
6126.74493,0.12534
6128.67340,0.14286
6130.60187,0.08298
6132.53034,0.02450
6134.45880,0.02476
6136.38727,0.06183
6138.31574,0.11300
6140.24421,0.11832
6142.17268,0.06459
6144.10115,0.03322
6146.02962,0.03709
6147.95809,0.05013
6149.88655,0.06080
6151.81502,0.03456
6153.74349,0.00932
6155.67196,0.06949
6157.60043,0.19056
6159.52890,0.27566
6161.45737,0.26559
6163.38583,0.19472
6165.31430,0.13257
6167.24277,0.11557
6169.17124,0.12462
6171.09971,0.09772
6173.02818,0.02924
6174.95665,-0.01864
6176.88512,-0.02079
6178.81358,0.00734
6180.74205,0.02188
6182.67052,-0.00067
6184.59899,-0.03590
6186.52746,-0.04380
6188.45593,0.00827
6190.38440,0.06649
6192.31286,0.07067
6194.24133,0.04719
6196.16980,0.03672
6198.09827,0.08115
6200.02674,0.15598
6201.95521,0.16895
6203.88368,0.12646
6205.81215,0.10491
6207.74061,0.12605
6209.66908,0.14439
6211.59755,0.08137
6213.52602,0.01854
6215.45449,0.04982
6217.38296,0.09377
6219.31143,0.11876
6221.23989,0.17102
6223.16836,0.20812
6225.09683,0.19997
6227.02530,0.22019
6228.95377,0.26651
6230.88224,0.25232
6232.81071,0.16016
6234.73918,0.04038
6236.66764,-0.04504
6238.59611,-0.04706
6240.52458,0.02852
6242.45305,0.11397
6244.38152,0.13798
6246.30999,0.09541
6248.23846,0.06369
6250.16692,0.10228
6252.09539,0.13337
6254.02386,0.08540
6255.95233,0.03017
6257.88080,0.04471
6259.80927,0.11766
6261.73774,0.17440
6263.66621,0.16117
6265.59467,0.10853
6267.52314,0.07312
6269.45161,0.06253
6271.38008,0.04587
6273.30855,0.02847
6275.23702,0.05518
6277.16549,0.09600
6279.09395,0.11538
6281.02242,0.13562
6282.95089,0.16002
6284.87936,0.17587
6286.80783,0.18059
6288.73630,0.16673
6290.66477,0.12602
6292.59323,0.10847
6294.52170,0.12958
6296.45017,0.13736
6298.37864,0.14249
6300.30711,0.17302
6302.23558,0.19027
6304.16405,0.13977
6306.09252,0.06235
6308.02098,0.03628
6309.94945,0.07696
6311.87792,0.17137
6313.80639,0.23352
6315.73486,0.18197
6317.66333,0.09828
6319.59180,0.07539
6321.52026,0.10086
6323.44873,0.15258
6325.37720,0.20715
6327.30567,0.22625
6329.23414,0.21091
6331.16261,0.18985
6333.09108,0.15429
6335.01955,0.11044
6336.94801,0.09093
6338.87648,0.06018
6340.80495,-0.00155
6342.73342,-0.00765
6344.66189,0.06680
6346.59036,0.13879
6348.51883,0.16047
6350.44729,0.12985
6352.37576,0.05808
6354.30423,-0.00037
6356.23270,0.01469
6358.16117,0.10353
6360.08964,0.16033
6362.01811,0.12853
6363.94658,0.07983
6365.87504,0.06247
6367.80351,0.05990
6369.73198,0.05376
6371.66045,0.03804
6373.58892,0.00260
6375.51739,-0.01892
6377.44586,0.03301
6379.37432,0.13111
6381.30279,0.19366
6383.23126,0.16384
6385.15973,0.08938
6387.08820,0.06374
6389.01667,0.05659
6390.94514,0.05471
6392.87361,0.07945
6394.80207,0.08820
6396.73054,0.10031
6398.65901,0.11754
6400.58748,0.09207
6402.51595,0.05938
6404.44442,0.06666
6406.37289,0.11432
6408.30135,0.14684
6410.22982,0.10633
6412.15829,0.05711
6414.08676,0.06144
6416.01523,0.08103
6417.94370,0.08611
6419.87217,0.08170
6421.80064,0.08290
6423.72910,0.09727
6425.65757,0.09154
6427.58604,0.05955
6429.51451,0.07324
6431.44298,0.11826
6433.37145,0.11914
6435.29992,0.10905
6437.22838,0.09480
6439.15685,0.07510
6441.08532,0.09858
6443.01379,0.14200
6444.94226,0.16222
6446.87073,0.12985
6448.79920,0.04382
6450.72766,-0.00471
6452.65613,0.01481
6454.58460,0.04950
6456.51307,0.10145
6458.44154,0.13102
6460.37001,0.08786
6462.29848,0.03729
6464.22695,0.03673
6466.15541,0.03953
6468.08388,0.05372
6470.01235,0.14091
6471.94082,0.19644
6473.86929,0.13615
6475.79776,0.06678
6477.72623,0.04898
6479.65469,0.06531
6481.58316,0.05928
6483.51163,-0.02677
6485.44010,-0.11387
6487.36857,-0.11694
6489.29704,-0.04839
6491.22551,0.05868
6493.15398,0.17179
6495.08244,0.21156
6497.01091,0.13355
6498.93938,0.00102
6500.86785,-0.04356
6502.79632,0.04292
6504.72479,0.09583
6506.65326,0.04519
6508.58172,-0.00457
6510.51019,0.02026
6512.43866,0.05623
6514.36713,0.04961
6516.29560,0.04163
6518.22407,0.04838
6520.15254,0.05833
6522.08101,0.04344
6524.00947,-0.00935
6525.93794,-0.03709
6527.86641,-0.01616
6529.79488,0.00322
6531.72335,0.03366
6533.65182,0.06664
6535.58029,0.01906
6537.50875,-0.03979
6539.43722,-0.00045
6541.36569,0.08514
6543.29416,0.17011
6545.22263,0.21548
6547.15110,0.17243
6549.07957,0.07041
6551.00804,0.01633
6552.93650,0.03685
6554.86497,0.04952
6556.79344,0.05591
6558.72191,0.06593
6560.65038,0.04421
6562.57885,0.03243
6564.50732,0.04786
6566.43578,0.01113
6568.36425,-0.03633
6570.29272,-0.01034
6572.22119,0.00633
6574.14966,-0.04374
6576.07813,-0.05905
6578.00660,0.00857
6579.93507,0.05512
6581.86353,0.01616
6583.79200,-0.02869
6585.72047,0.00928
6587.64894,0.09616
6589.57741,0.14237
6591.50588,0.11638
6593.43435,0.05635
6595.36281,0.01567
6597.29128,0.01143
6599.21975,0.03607
6601.14822,0.07048
6603.07669,0.09477
6605.00516,0.09815
6606.93363,0.06191
6608.86210,0.02332
6610.79056,0.05820
6612.71903,0.13261
6614.64750,0.12945
6616.57597,0.02824
6618.50444,-0.05147
6620.43291,-0.02872
6622.36138,0.04066
6624.28984,0.07979
6626.21831,0.06306
6628.14678,0.05071
6630.07525,0.11460
6632.00372,0.18108
6633.93219,0.17046
6635.86066,0.10072
6637.78912,0.04380
6639.71759,0.07059
6641.64606,0.16720
6643.57453,0.23502
6645.50300,0.19868
6647.43147,0.11252
6649.35994,0.05214
6651.28841,0.01486
6653.21687,-0.02954
6655.14534,-0.06256
6657.07381,-0.05893
6659.00228,-0.05501
6660.93075,-0.02871
6662.85922,0.03033
6664.78769,0.07314
6666.71615,0.07679
6668.64462,0.03712
6670.57309,-0.00275
6672.50156,-0.00413
6674.43003,-0.01048
6676.35850,-0.05771
6678.28697,-0.09127
6680.21544,-0.06029
6682.14390,0.03492
6684.07237,0.14992
6686.00084,0.20503
6687.92931,0.18950
6689.85778,0.15384
6691.78625,0.12624
6693.71472,0.09968
6695.64318,0.07933
6697.57165,0.08134
6699.50012,0.07621
6701.42859,0.07384
6703.35706,0.15022
6705.28553,0.20695
6707.21400,0.09436
6709.14247,-0.04910
6711.07093,-0.07168
6712.99940,-0.03111
6714.92787,-0.00048
6716.85634,0.01236
6718.78481,0.04871
6720.71328,0.06852
6722.64175,0.03588
6724.57021,0.06098
6726.49868,0.13384
6728.42715,0.12108
6730.35562,0.04716
6732.28409,0.01548
6734.21256,0.00738
6736.14103,0.00772
6738.06950,0.03722
6739.99796,0.09121
6741.92643,0.15445
6743.85490,0.20044
6745.78337,0.20200
6747.71184,0.17138
6749.64031,0.17941
6751.56878,0.17110
6753.49724,0.04079
6755.42571,-0.08030
6757.35418,-0.04852
6759.28265,0.05685
6761.21112,0.08804
6763.13959,0.04081
6765.06806,0.03779
6766.99653,0.12428
6768.92499,0.17952
6770.85346,0.12741
6772.78193,0.06388
6774.71040,0.03645
6776.63887,0.01257
6778.56734,0.00634
6780.49581,-0.00639
6782.42427,-0.09439
6784.35274,-0.18579
6786.28121,-0.13268
6788.20968,0.02742
6790.13815,0.16108
6792.06662,0.21538
6793.99509,0.17925
6795.92355,0.06195
6797.85202,-0.01484
6799.78049,0.04138
6801.70896,0.12364
6803.63743,0.09763
6805.56590,0.05852
6807.49437,0.08940
6809.42284,0.12251
6811.35130,0.14314
6813.27977,0.16793
6815.20824,0.16083
6817.13671,0.14006
6819.06518,0.16357
6820.99365,0.21293
6822.92212,0.19287
6824.85058,0.12866
6826.77905,0.14676
6828.70752,0.14918
6830.63599,0.06617
6832.56446,0.01986
6834.49293,-0.01067
6836.42140,-0.06610
6838.34987,-0.06661
6840.27833,-0.03300
6842.20680,-0.03447
6844.13527,-0.03262
6846.06374,0.03011
6847.99221,0.10192
6849.92068,0.07020
6851.84915,-0.02400
6853.77761,-0.05575
6855.70608,-0.00313
6857.63455,0.05720
6859.56302,0.10320
6861.49149,0.16842
6863.41996,0.19953
6865.34843,0.15074
6867.27690,0.08293
6869.20536,0.06882
6871.13383,0.10129
6873.06230,0.13004
6874.99077,0.11941
6876.91924,0.05060
6878.84771,-0.02980
6880.77618,0.00541
6882.70464,0.11274
6884.63311,0.16668
6886.56158,0.10303
6888.49005,-0.05726
6890.41852,-0.11463
6892.34699,-0.00430
6894.27546,0.05797
6896.20393,-0.02860
6898.13239,-0.15011
6900.06086,-0.14541
6901.98933,-0.02744
6903.91780,0.08722
6905.84627,0.14788
6907.77474,0.18093
6909.70321,0.19640
6911.63167,0.21177
6913.56014,0.20400
6915.48861,0.10334
6917.41708,-0.05491
6919.34555,-0.13175
6921.27402,-0.13072
6923.20249,-0.13451
6925.13096,-0.05137
6927.05942,0.10217
6928.98789,0.20824
6930.91636,0.26863
6932.84483,0.26808
6934.77330,0.18971
6936.70177,0.13365
6938.63024,0.11827
6940.55870,0.09451
6942.48717,0.06789
6944.41564,0.04784
6946.34411,0.03858
6948.27258,0.02535
6950.20105,-0.00031
6952.12952,0.00196
6954.05799,0.04920
6955.98645,0.13980
6957.91492,0.17681
6959.84339,0.09883
6961.77186,0.01813
6963.70033,0.03140
6965.62880,0.10052
6967.55727,0.14070
6969.48573,0.11748
6971.41420,0.10845
6973.34267,0.14317
6975.27114,0.15153
6977.19961,0.14523
6979.12808,0.14509
6981.05655,0.13056
6982.98501,0.11389
6984.91348,0.12246
6986.84195,0.15766
6988.77042,0.14648
6990.69889,0.09067
6992.62736,0.08465
6994.55583,0.09414
6996.48430,-0.00235
6998.41276,-0.18827
7000.34123,-0.24641
7002.26970,-0.09314
7004.19817,0.10080
7006.12664,0.16627
7008.05511,0.10105
7009.98358,0.06688
7011.91204,0.11760
7013.84051,0.11783
7015.76898,0.03452
7017.69745,0.02378
7019.62592,0.07341
7021.55439,0.08004
7023.48286,0.04916
7025.41133,0.05907
7027.33979,0.15120
7029.26826,0.19148
7031.19673,0.09654
7033.12520,0.00929
7035.05367,0.00236
7036.98214,0.00897
7038.91061,-0.02962
7040.83907,-0.04918
7042.76754,0.03847
7044.69601,0.13984
7046.62448,0.11826
7048.55295,0.01655
7050.48142,-0.02619
7052.40989,0.08206
7054.33836,0.24278
7056.26682,0.23141
7058.19529,0.08273
7060.12376,0.04307
7062.05223,0.06385
7063.98070,-0.00705
7065.90917,-0.10022
7067.83764,-0.07674
7069.76610,0.08575
7071.69457,0.27649
7073.62304,0.33207
7075.55151,0.24122
7077.47998,0.10320
7079.40845,0.01006
7081.33692,-0.00613
7083.26539,-0.00003
7085.19385,-0.00306
7087.12232,-0.01962
7089.05079,-0.05946
7090.97926,-0.05490
7092.90773,0.04097
7094.83620,0.12469
7096.76467,0.12654
7098.69313,0.11421
7100.62160,0.11198
7102.55007,0.07435
7104.47854,0.03111
7106.40701,0.05308
7108.33548,0.10135
7110.26395,0.09834
7112.19242,0.04392
7114.12088,-0.00406
7116.04935,-0.01329
7117.97782,-0.03071
7119.90629,-0.02023
7121.83476,0.04083
7123.76323,0.04721
7125.69170,0.01621
7127.62016,0.01234
7129.54863,0.00297
7131.47710,-0.01111
7133.40557,-0.00110
7135.33404,0.02850
7137.26251,0.08861
7139.19098,0.10983
7141.11944,0.06044
7143.04791,0.11791
7144.97638,0.28632
7146.90485,0.37044
7148.83332,0.30992
7150.76179,0.15337
7152.69026,0.05942
7154.61873,0.09184
7156.54719,0.03472
7158.47566,-0.10539
7160.40413,-0.14114
7162.33260,-0.03417
7164.26107,0.13841
7166.18954,0.27477
7168.11801,0.37263
7170.04647,0.44668
7171.97494,0.35207
7173.90341,0.16704
7175.83188,0.04470
7177.76035,0.01366
7179.68882,0.02686
7181.61729,0.03351
7183.54576,0.12969
7185.47422,0.26489
7187.40269,0.28312
7189.33116,0.20415
7191.25963,0.07593
7193.18810,0.03242
7195.11657,0.10658
7197.04504,0.16188
7198.97350,0.19996
7200.90197,0.21548
7202.83044,0.12012
7204.75891,-0.01754
7206.68738,-0.03213
7208.61585,0.03568
7210.54432,0.08468
7212.47279,0.13032
7214.40125,0.25880
7216.32972,0.35451
7218.25819,0.22181
7220.18666,0.05538
7222.11513,0.04939
7224.04360,0.09730
7225.97207,0.03077
7227.90053,-0.11611
7229.82900,-0.18928
7231.75747,-0.08257
7233.68594,0.15257
7235.61441,0.32681
7237.54288,0.32493
7239.47135,0.15614
7241.39982,-0.07458
7243.32828,-0.28144
7245.25675,-0.31879
7247.18522,-0.23082
7249.11369,-0.17075
7251.04216,-0.17194
7252.97063,-0.13381
7254.89910,-0.04821
7256.82756,-0.01937
7258.75603,-0.05268
7260.68450,-0.14096
7262.61297,-0.20350
7264.54144,-0.12374
7266.46991,-0.03034
7268.39838,0.02385
7270.32685,0.16150
7272.25531,0.27483
7274.18378,0.20414
7276.11225,0.13278
7278.04072,0.13402
7279.96919,0.16976
7281.89766,0.15829
7283.82613,0.09256
7285.75459,0.08963
7287.68306,0.11420
7289.61153,0.00971
7291.54000,-0.07034
7293.46847,0.13875
7295.39694,0.37984
7297.32541,0.35597
7299.25387,0.19648
7301.18234,0.07909
7303.11081,0.05159
7305.03928,0.10065
7306.96775,0.15324
7308.89622,0.12868
7310.82469,0.12115
7312.75316,0.18845
7314.68162,0.22439
7316.61009,0.18183
7318.53856,0.06361
7320.46703,-0.03685
7322.39550,-0.00808
7324.32397,0.07477
7326.25244,0.07799
7328.18090,0.01603
7330.10937,-0.01317
7332.03784,0.03872
7333.96631,0.09334
7335.89478,0.13477
7337.82325,0.19280
7339.75172,0.28390
7341.68019,0.41153
7343.60865,0.45935
7345.53712,0.33556
7347.46559,0.12404
7349.39406,0.02892
7351.32253,0.09031
7353.25100,0.19289
7355.17947,0.31740
7357.10793,0.46003
7359.03640,0.42625
7360.96487,0.21537
7362.89334,0.10469
7364.82181,0.14501
7366.75028,0.23494
7368.67875,0.35579
7370.60722,0.45596
7372.53568,0.46266
7374.46415,0.34742
7376.39262,0.12384
7378.32109,-0.10761
7380.24956,-0.28079
7382.17803,-0.23706
7384.10650,-0.04367
7386.03496,0.04982
7387.96343,0.04605
7389.89190,0.00303
7391.82037,-0.06423
7393.74884,-0.03248
7395.67731,0.12236
7397.60578,0.20890
7399.53425,0.15253
7401.46271,0.07359
7403.39118,0.09145
7405.31965,0.17057
7407.24812,0.17318
7409.17659,0.14160
7411.10506,0.10531
7413.03353,0.07061
7414.96199,0.15100
7416.89046,0.22458
7418.81893,-0.01163
7420.74740,-0.24303
7422.67587,-0.21152
7424.60434,-0.17081
7426.53281,-0.19459
7428.46128,-0.21199
7430.38974,-0.07428
7432.31821,0.10703
7434.24668,0.14569
7436.17515,0.08535
7438.10362,-0.00615
7440.03209,-0.02185
7441.96056,0.06564
7443.88902,0.14558
7445.81749,0.11651
7447.74596,0.01192
7449.67443,-0.01226
7451.60290,0.06096
7453.53137,0.07568
7455.45984,0.09111
7457.38831,0.24164
7459.31677,0.44984
7461.24524,0.39480
7463.17371,0.13772
7465.10218,0.04799
7467.03065,0.17891
7468.95912,0.25873
7470.88759,0.26314
7472.81605,0.35725
7474.74452,0.49020
7476.67299,0.47951
7478.60146,0.26787
7480.52993,0.01322
7482.45840,-0.12756
7484.38687,-0.10314
7486.31533,0.04525
7488.24380,0.24244
7490.17227,0.34368
7492.10074,0.26041
7494.02921,0.12133
7495.95768,0.02535
7497.88615,0.05792
