399.19301,14.28981
401.12148,0.41108
403.04995,-0.04000
404.97842,-0.07504
406.90689,-0.17044
408.83536,-0.04679
410.76382,0.02969
412.69229,0.17230
414.62076,1.29937
416.54923,2.97855
418.47770,3.55950
420.40617,2.13508
422.33464,0.88929
424.26311,0.26196
426.19157,-0.01040
428.12004,0.01432
430.04851,0.16398
431.97698,0.19894
433.90545,0.00162
435.83392,-0.11047
437.76239,-0.02196
439.69085,0.01692
441.61932,-0.03047
443.54779,0.02963
445.47626,0.03303
447.40473,-0.06215
449.33320,-0.03699
451.26167,0.03784
453.19013,-0.01076
455.11860,-0.11535
457.04707,-0.10025
458.97554,-0.02050
460.90401,0.01883
462.83248,0.08175
464.76095,0.13846
466.68942,0.11372
468.61788,0.08791
470.54635,0.08768
472.47482,-0.02635
474.40329,-0.25505
476.33176,-0.21128
478.26023,-0.00910
480.18870,0.10206
482.11716,0.11448
484.04563,0.13113
485.97410,0.14549
487.90257,0.11390
489.83104,0.07462
491.75951,0.04102
493.68798,0.01622
495.61645,0.03654
497.54491,0.07255
499.47338,0.10053
501.40185,0.12301
503.33032,0.10653
505.25879,0.07914
507.18726,0.06213
509.11573,0.04822
511.04419,0.06509
512.97266,0.10275
514.90113,0.14050
516.82960,0.16468
518.75807,0.13100
520.68654,0.07411
522.61501,0.09291
524.54348,0.18259
526.47194,0.21239
528.40041,0.17961
530.32888,0.15854
532.25735,0.13438
534.18582,0.10155
536.11429,0.07223
538.04276,0.05024
539.97122,0.05387
541.89969,0.09497
543.82816,0.14019
545.75663,0.14334
547.68510,0.13346
549.61357,0.14122
551.54204,0.14878
553.47051,0.16082
555.39897,0.17839
557.32744,0.16857
559.25591,0.12191
561.18438,0.07539
563.11285,0.07335
565.04132,0.10983
566.96979,0.12321
568.89825,0.11323
570.82672,0.12910
572.75519,0.15792
574.68366,0.17268
576.61213,0.16020
578.54060,0.13282
580.46907,0.12145
582.39754,0.11731
584.32600,0.10656
586.25447,0.10986
588.18294,0.12728
590.11141,0.14117
592.03988,0.15383
593.96835,0.14712
595.89682,0.11758
597.82528,0.10056
599.75375,0.09154
601.68222,0.08971
603.61069,0.12361
605.53916,0.16526
607.46763,0.16916
609.39610,0.14119
611.32456,0.12209
613.25303,0.12759
615.18150,0.12380
617.10997,0.11160
619.03844,0.11398
620.96691,0.11051
622.89538,0.10144
624.82385,0.10645
626.75231,0.12371
628.68078,0.14286
630.60925,0.14893
632.53772,0.13758
634.46619,0.12393
636.39466,0.12194
638.32313,0.13012
640.25159,0.13807
642.18006,0.13594
644.10853,0.13153
646.03700,0.14466
647.96547,0.16808
649.89394,0.17057
651.82241,0.14461
653.75088,0.11633
655.67934,0.11181
657.60781,0.12379
659.53628,0.13136
661.46475,0.13611
663.39322,0.14680
665.32169,0.15628
667.25016,0.15441
669.17862,0.15033
671.10709,0.15401
673.03556,0.15486
674.96403,0.15692
676.89250,0.15697
678.82097,0.14420
680.74944,0.13474
682.67791,0.14281
684.60637,0.15235
686.53484,0.15433
688.46331,0.15249
690.39178,0.14309
692.32025,0.12932
694.24872,0.12949
696.17719,0.14564
698.10565,0.15932
700.03412,0.16662
701.96259,0.17176
703.89106,0.17256
705.81953,0.17158
707.74800,0.17239
709.67647,0.18031
711.60494,0.19323
713.53340,0.18998
715.46187,0.16749
717.39034,0.14866
719.31881,0.13982
721.24728,0.13491
723.17575,0.12875
725.10422,0.11908
727.03268,0.11557
728.96115,0.12394
730.88962,0.14009
732.81809,0.15007
734.74656,0.14259
736.67503,0.13643
738.60350,0.14836
740.53197,0.16214
742.46043,0.15382
744.38890,0.13215
746.31737,0.12809
748.24584,0.14033
750.17431,0.14680
752.10278,0.14781
754.03125,0.14967
755.95971,0.14763
757.88818,0.14534
759.81665,0.14641
761.74512,0.14490
763.67359,0.14351
765.60206,0.14528
767.53053,0.14307
769.45900,0.13588
771.38746,0.13148
773.31593,0.13395
775.24440,0.14205
777.17287,0.15011
779.10134,0.15662
781.02981,0.16304
782.95828,0.16219
784.88674,0.15418
786.81521,0.14539
788.74368,0.14113
790.67215,0.14912
792.60062,0.15940
794.52909,0.15269
796.45756,0.13595
798.38602,0.13485
800.31449,0.14678
802.24296,0.14724
804.17143,0.14440
806.09990,0.15204
808.02837,0.15036
809.95684,0.13071
811.88531,0.11460
813.81377,0.11442
815.74224,0.12716
817.67071,0.14657
819.59918,0.15623
821.52765,0.15440
823.45612,0.15497
825.38459,0.15667
827.31305,0.15543
829.24152,0.15397
831.16999,0.15196
833.09846,0.15153
835.02693,0.15907
836.95540,0.16966
838.88387,0.17305
840.81234,0.16627
842.74080,0.15315
844.66927,0.14638
846.59774,0.15019
848.52621,0.15319
850.45468,0.15141
852.38315,0.15128
854.31162,0.14926
856.24008,0.14140
858.16855,0.13770
860.09702,0.14379
862.02549,0.14983
863.95396,0.14683
865.88243,0.13559
867.81090,0.11434
869.73937,0.09275
871.66783,0.09588
873.59630,0.12105
875.52477,0.13732
877.45324,0.13824
879.38171,0.13987
881.31018,0.14150
883.23865,0.14407
885.16711,0.15618
887.09558,0.16536
889.02405,0.16277
890.95252,0.16423
892.88099,0.16931
894.80946,0.16080
896.73793,0.14451
898.66640,0.14012
900.59486,0.15232
902.52333,0.16666
904.45180,0.17190
906.38027,0.16972
908.30874,0.16450
910.23721,0.16416
912.16568,0.17067
914.09414,0.17657
916.02261,0.17501
917.95108,0.16713
919.87955,0.16087
921.80802,0.15870
923.73649,0.15865
925.66496,0.16091
927.59343,0.16230
929.52189,0.15850
931.45036,0.15542
933.37883,0.15978
935.30730,0.16397
937.23577,0.16119
939.16424,0.15731
941.09271,0.15517
943.02117,0.15172
944.94964,0.15145
946.87811,0.15683
948.80658,0.15847
950.73505,0.15587
952.66352,0.15594
954.59199,0.15644
956.52045,0.15567
958.44892,0.15377
960.37739,0.14903
962.30586,0.14588
964.23433,0.14642
966.16280,0.14599
968.09127,0.14652
970.01974,0.15022
971.94820,0.15033
973.87667,0.14654
975.80514,0.14911
977.73361,0.15691
979.66208,0.15783
981.59055,0.15499
983.51902,0.15607
985.44748,0.15700
987.37595,0.15600
989.30442,0.15501
991.23289,0.15653
993.16136,0.16093
995.08983,0.16342
997.01830,0.16224
998.94677,0.16240
1000.87523,0.16712
1002.80370,0.17036
1004.73217,0.17025
1006.66064,0.17467
1008.58911,0.18044
1010.51758,0.18185
1012.44605,0.18411
1014.37451,0.18453
1016.30298,0.18000
1018.23145,0.17861
1020.15992,0.18296
1022.08839,0.18870
1024.01686,0.19237
1025.94533,0.19028
1027.87380,0.18418
1029.80226,0.17910
1031.73073,0.16935
1033.65920,0.15466
1035.58767,0.15192
1037.51614,0.16471
1039.44461,0.17536
1041.37308,0.17336
1043.30154,0.16797
1045.23001,0.17082
1047.15848,0.17559
1049.08695,0.17369
1051.01542,0.16949
1052.94389,0.16702
1054.87236,0.17007
1056.80083,0.17827
1058.72929,0.17935
1060.65776,0.17322
1062.58623,0.17410
1064.51470,0.18084
1066.44317,0.18438
1068.37164,0.18361
1070.30011,0.17837
1072.22857,0.17290
1074.15704,0.17317
1076.08551,0.17647
1078.01398,0.17763
1079.94245,0.17657
1081.87092,0.17434
1083.79939,0.17229
1085.72786,0.16987
1087.65632,0.16584
1089.58479,0.16515
1091.51326,0.17205
1093.44173,0.18538
1095.37020,0.19175
1097.29867,0.18008
1099.22714,0.16904
1101.15560,0.17472
1103.08407,0.18316
1105.01254,0.18564
1106.94101,0.18702
1108.86948,0.18166
1110.79795,0.17386
1112.72642,0.17345
1114.65489,0.17515
1116.58335,0.17595
1118.51182,0.17384
1120.44029,0.17087
1122.36876,0.17018
1124.29723,0.16940
1126.22570,0.16913
1128.15417,0.16827
1130.08263,0.16462
1132.01110,0.16046
1133.93957,0.16323
1135.86804,0.16967
1137.79651,0.17132
1139.72498,0.17388
1141.65345,0.17856
1143.58191,0.17926
1145.51038,0.17635
1147.43885,0.17448
1149.36732,0.17472
1151.29579,0.17486
1153.22426,0.17672
1155.15273,0.17960
1157.08120,0.18112
1159.00966,0.18537
1160.93813,0.19055
1162.86660,0.18969
1164.79507,0.18633
1166.72354,0.18552
1168.65201,0.18538
1170.58048,0.18428
1172.50894,0.18175
1174.43741,0.17703
1176.36588,0.17389
1178.29435,0.17593
1180.22282,0.17600
1182.15129,0.16932
1184.07976,0.16403
1186.00823,0.16692
1187.93669,0.17421
1189.86516,0.17920
1191.79363,0.18179
1193.72210,0.18326
1195.65057,0.18409
1197.57904,0.18479
1199.50751,0.18228
1201.43597,0.17902
1203.36444,0.18001
1205.29291,0.18140
1207.22138,0.18084
1209.14985,0.17933
1211.07832,0.17607
1213.00679,0.17534
1214.93526,0.17716
1216.86372,0.17595
1218.79219,0.17458
1220.72066,0.17382
1222.64913,0.17201
1224.57760,0.17562
1226.50607,0.18413
1228.43454,0.18861
1230.36300,0.18857
1232.29147,0.18750
1234.21994,0.18560
1236.14841,0.18208
1238.07688,0.17682
1240.00535,0.17381
1241.93382,0.17610
1243.86229,0.17974
1245.79075,0.18085
1247.71922,0.18022
1249.64769,0.17968
1251.57616,0.17962
1253.50463,0.17801
1255.43310,0.17604
1257.36157,0.17811
1259.29003,0.18141
1261.21850,0.18153
1263.14697,0.18290
1265.07544,0.18679
1267.00391,0.18693
1268.93238,0.18378
1270.86085,0.18205
1272.78932,0.18134
1274.71778,0.17952
1276.64625,0.17702
1278.57472,0.17685
1280.50319,0.17997
1282.43166,0.18298
1284.36013,0.18197
1286.28860,0.17871
1288.21706,0.17979
1290.14553,0.18532
1292.07400,0.18959
1294.00247,0.18977
1295.93094,0.18857
1297.85941,0.18988
1299.78788,0.18916
1301.71634,0.18101
1303.64481,0.17166
1305.57328,0.17177
1307.50175,0.18075
1309.43022,0.18667
1311.35869,0.18534
1313.28716,0.18229
1315.21563,0.18108
1317.14409,0.18227
1319.07256,0.18545
1321.00103,0.18853
1322.92950,0.18828
1324.85797,0.18558
1326.78644,0.18427
1328.71491,0.18411
1330.64337,0.18219
1332.57184,0.17924
1334.50031,0.17650
1336.42878,0.17455
1338.35725,0.17806
1340.28572,0.18416
1342.21419,0.18598
1344.14266,0.18698
1346.07112,0.18669
1347.99959,0.18273
1349.92806,0.17852
1351.85653,0.17779
1353.78500,0.18039
1355.71347,0.18408
1357.64194,0.18825
1359.57040,0.19290
1361.49887,0.19797
1363.42734,0.20059
1365.35581,0.19760
1367.28428,0.19192
1369.21275,0.18704
1371.14122,0.18642
1373.06969,0.19124
1374.99815,0.19601
1376.92662,0.19549
1378.85509,0.19370
1380.78356,0.19538
1382.71203,0.19912
1384.64050,0.20024
1386.56897,0.19817
1388.49743,0.19626
1390.42590,0.19686
1392.35437,0.19900
1394.28284,0.20105
1396.21131,0.20361
1398.13978,0.20473
1400.06825,0.19988
1401.99672,0.19539
1403.92518,0.19818
1405.85365,0.20239
1407.78212,0.20156
1409.71059,0.19827
1411.63906,0.19216
1413.56753,0.18505
1415.49600,0.18582
1417.42446,0.19756
1419.35293,0.20724
1421.28140,0.20462
1423.20987,0.19828
1425.13834,0.19161
1427.06681,0.19038
1428.99528,0.19697
1430.92375,0.20288
1432.85221,0.20196
1434.78068,0.19924
1436.70915,0.19831
1438.63762,0.19690
1440.56609,0.19550
1442.49456,0.19574
1444.42303,0.19730
1446.35149,0.19951
1448.27996,0.20023
1450.20843,0.20046
1452.13690,0.20507
1454.06537,0.21492
1455.99384,0.22603
1457.92231,0.22418
1459.85077,0.21259
1461.77924,0.20801
1463.70771,0.20849
1465.63618,0.20749
1467.56465,0.20584
1469.49312,0.21048
1471.42159,0.22202
1473.35006,0.23047
1475.27852,0.22687
1477.20699,0.21735
1479.13546,0.20848
1481.06393,0.20382
1482.99240,0.20328
1484.92087,0.20991
1486.84934,0.22479
1488.77780,0.23410
1490.70627,0.22256
1492.63474,0.20983
1494.56321,0.21072
1496.49168,0.21969
1498.42015,0.22162
1500.34862,0.21655
1502.27709,0.21634
1504.20555,0.22610
1506.13402,0.24823
1508.06249,0.25135
1509.99096,0.23129
1511.91943,0.21915
1513.84790,0.21668
1515.77637,0.22027
1517.70483,0.22577
1519.63330,0.23491
1521.56177,0.24231
1523.49024,0.23551
1525.41871,0.22897
1527.34718,0.22524
1529.27565,0.21970
1531.20412,0.21951
1533.13258,0.22545
1535.06105,0.22750
1536.98952,0.22878
1538.91799,0.23545
1540.84646,0.23831
1542.77493,0.23199
1544.70340,0.22455
1546.63186,0.21895
1548.56033,0.21774
1550.48880,0.21756
1552.41727,0.21407
1554.34574,0.21217
1556.27421,0.22390
1558.20268,0.24880
1560.13115,0.23960
1562.05961,0.21731
1563.98808,0.20850
1565.91655,0.20815
1567.84502,0.21197
1569.77349,0.21304
1571.70196,0.20986
1573.63043,0.21012
1575.55889,0.21416
1577.48736,0.21140
1579.41583,0.20399
1581.34430,0.20094
1583.27277,0.20047
1585.20124,0.19682
1587.12971,0.19110
1589.05818,0.18973
1590.98664,0.19306
1592.91511,0.19761
1594.84358,0.19948
1596.77205,0.19739
1598.70052,0.19661
1600.62899,0.19901
1602.55746,0.20057
1604.48592,0.19917
1606.41439,0.19882
1608.34286,0.20121
1610.27133,0.20187
1612.19980,0.20290
1614.12827,0.20930
1616.05674,0.21698
1617.98521,0.21597
1619.91367,0.21422
1621.84214,0.21913
1623.77061,0.22152
1625.69908,0.21594
1627.62755,0.21226
1629.55602,0.21079
1631.48449,0.21023
1633.41295,0.21714
1635.34142,0.23213
1637.26989,0.23287
1639.19836,0.22191
1641.12683,0.21625
1643.05530,0.21943
1644.98377,0.23175
1646.91223,0.24587
1648.84070,0.24861
1650.76917,0.25395
1652.69764,0.26326
1654.62611,0.24289
1656.55458,0.22219
1658.48305,0.20765
1660.41152,0.18536
1662.33998,0.16455
1664.26845,0.16997
1666.19692,0.19769
1668.12539,0.22919
1670.05386,0.23939
1671.98233,0.22959
1673.91080,0.22591
1675.83926,0.22502
1677.76773,0.22205
1679.69620,0.22368
1681.62467,0.23539
1683.55314,0.25287
1685.48161,0.24967
1687.41008,0.23397
1689.33855,0.22366
1691.26701,0.21796
1693.19548,0.22016
1695.12395,0.23169
1697.05242,0.24203
1698.98089,0.24440
1700.90936,0.23978
1702.83783,0.23336
1704.76629,0.23032
1706.69476,0.22468
1708.62323,0.21627
1710.55170,0.21079
1712.48017,0.21122
1714.40864,0.22002
1716.33711,0.23461
1718.26558,0.23505
1720.19404,0.22128
1722.12251,0.21145
1724.05098,0.20610
1725.97945,0.20267
1727.90792,0.20332
1729.83639,0.20981
1731.76486,0.21860
1733.69332,0.22218
1735.62179,0.21858
1737.55026,0.21784
1739.47873,0.21879
1741.40720,0.21782
1743.33567,0.21873
1745.26414,0.22127
1747.19261,0.21977
1749.12107,0.21576
1751.04954,0.21394
1752.97801,0.21176
1754.90648,0.20996
1756.83495,0.21074
1758.76342,0.21125
1760.69189,0.21013
1762.62035,0.20927
1764.54882,0.20976
1766.47729,0.21238
1768.40576,0.21785
1770.33423,0.22632
1772.26270,0.23008
1774.19117,0.22020
1776.11964,0.20783
1778.04810,0.20179
1779.97657,0.20212
1781.90504,0.20389
1783.83351,0.20576
1785.76198,0.20998
1787.69045,0.21527
1789.61892,0.21966
1791.54738,0.22097
1793.47585,0.21643
1795.40432,0.21127
1797.33279,0.21141
1799.26126,0.21493
1801.18973,0.21410
1803.11820,0.20969
1805.04666,0.20949
1806.97513,0.21169
1808.90360,0.21124
1810.83207,0.20794
1812.76054,0.20529
1814.68901,0.20543
1816.61748,0.21165
1818.54595,0.22175
1820.47441,0.22490
1822.40288,0.22418
1824.33135,0.22153
1826.25982,0.21459
1828.18829,0.21542
1830.11676,0.21937
1832.04523,0.21583
1833.97369,0.21249
1835.90216,0.21131
1837.83063,0.20948
1839.75910,0.21000
1841.68757,0.21578
1843.61604,0.22109
1845.54451,0.21879
1847.47298,0.21298
1849.40144,0.20925
1851.32991,0.20882
1853.25838,0.20964
1855.18685,0.20859
1857.11532,0.20579
1859.04379,0.20491
1860.97226,0.20661
1862.90072,0.20852
1864.82919,0.21183
1866.75766,0.21888
1868.68613,0.22392
1870.61460,0.21929
1872.54307,0.21155
1874.47154,0.20689
1876.40001,0.20441
1878.32847,0.20322
1880.25694,0.20498
1882.18541,0.20721
1884.11388,0.20666
1886.04235,0.20645
1887.97082,0.20887
1889.89929,0.20936
1891.82775,0.20742
1893.75622,0.20836
1895.68469,0.20883
1897.61316,0.20503
1899.54163,0.20310
1901.47010,0.20550
1903.39857,0.20759
1905.32704,0.20836
1907.25550,0.21061
1909.18397,0.21204
1911.11244,0.20837
1913.04091,0.20425
1914.96938,0.20604
1916.89785,0.21102
1918.82632,0.21230
1920.75478,0.21035
1922.68325,0.20834
1924.61172,0.20464
1926.54019,0.20188
1928.46866,0.20438
1930.39713,0.20913
1932.32560,0.21166
1934.25407,0.21161
1936.18253,0.20968
1938.11100,0.20601
1940.03947,0.20276
1941.96794,0.20464
1943.89641,0.21088
1945.82488,0.21385
1947.75335,0.21246
1949.68181,0.21116
1951.61028,0.21098
1953.53875,0.21079
1955.46722,0.21063
1957.39569,0.20942
1959.32416,0.20743
1961.25263,0.20667
1963.18110,0.20801
1965.10956,0.21135
1967.03803,0.21193
1968.96650,0.20728
1970.89497,0.20319
1972.82344,0.20253
1974.75191,0.20347
1976.68038,0.20281
1978.60884,0.20061
1980.53731,0.20146
1982.46578,0.20490
1984.39425,0.20648
1986.32272,0.20732
1988.25119,0.20997
1990.17966,0.21259
1992.10812,0.21252
1994.03659,0.20998
1995.96506,0.20775
1997.89353,0.20750
1999.82200,0.20836
2001.75047,0.20812
2003.67894,0.20639
2005.60741,0.20542
2007.53587,0.20571
2009.46434,0.20618
2011.39281,0.20647
2013.32128,0.20658
2015.24975,0.20799
2017.17822,0.21031
2019.10669,0.20998
2021.03515,0.20797
2022.96362,0.20827
2024.89209,0.20931
2026.82056,0.20759
2028.74903,0.20606
2030.67750,0.20824
2032.60597,0.21140
2034.53444,0.21177
2036.46290,0.20966
2038.39137,0.20807
2040.31984,0.20781
2042.24831,0.20723
2044.17678,0.20683
2046.10525,0.20818
2048.03372,0.21093
2049.96218,0.21249
2051.89065,0.21090
2053.81912,0.20889
2055.74759,0.20812
2057.67606,0.20621
2059.60453,0.20453
2061.53300,0.20486
2063.46147,0.20554
2065.38993,0.20581
2067.31840,0.20643
2069.24687,0.20772
2071.17534,0.20713
2073.10381,0.20523
2075.03228,0.20641
2076.96075,0.20909
2078.88921,0.21027
2080.81768,0.21033
2082.74615,0.20894
2084.67462,0.20688
2086.60309,0.20700
2088.53156,0.20826
2090.46003,0.20815
2092.38850,0.20820
2094.31696,0.20878
2096.24543,0.20813
2098.17390,0.20770
2100.10237,0.20912
2102.03084,0.20987
2103.95931,0.20892
2105.88778,0.20851
2107.81624,0.20823
2109.74471,0.20760
2111.67318,0.20873
2113.60165,0.21125
2115.53012,0.21253
2117.45859,0.21125
2119.38706,0.20880
2121.31553,0.20835
2123.24399,0.20967
2125.17246,0.21005
2127.10093,0.21002
2129.02940,0.21079
2130.95787,0.21028
2132.88634,0.20934
2134.81481,0.21416
2136.74327,0.22280
2138.67174,0.22572
2140.60021,0.22133
2142.52868,0.21532
2144.45715,0.21216
2146.38562,0.21194
2148.31409,0.21306
2150.24255,0.21405
2152.17102,0.21299
2154.09949,0.21028
2156.02796,0.20835
2157.95643,0.20760
2159.88490,0.20754
2161.81337,0.20988
2163.74184,0.21385
2165.67030,0.21515
2167.59877,0.21330
2169.52724,0.21186
2171.45571,0.21189
2173.38418,0.21024
2175.31265,0.20718
2177.24112,0.20710
2179.16958,0.20910
2181.09805,0.20939
2183.02652,0.20851
2184.95499,0.20815
2186.88346,0.20771
2188.81193,0.20679
2190.74040,0.20609
2192.66887,0.20603
2194.59733,0.20638
2196.52580,0.20680
2198.45427,0.20798
2200.38274,0.20930
2202.31121,0.21003
2204.23968,0.21068
2206.16815,0.20991
2208.09661,0.20812
2210.02508,0.20728
2211.95355,0.20761
2213.88202,0.20880
2215.81049,0.20998
2217.73896,0.21030
2219.66743,0.20945
2221.59590,0.20884
2223.52436,0.20877
2225.45283,0.20860
2227.38130,0.20954
2229.30977,0.21124
2231.23824,0.21220
2233.16671,0.21155
2235.09518,0.20882
2237.02364,0.20534
2238.95211,0.20455
2240.88058,0.20757
2242.80905,0.21033
2244.73752,0.20983
2246.66599,0.20761
2248.59446,0.20638
2250.52293,0.20698
2252.45139,0.20810
2254.37986,0.20896
2256.30833,0.20958
2258.23680,0.21026
2260.16527,0.21121
2262.09374,0.21083
2264.02221,0.20952
2265.95067,0.21033
2267.87914,0.21256
2269.80761,0.21307
2271.73608,0.21106
2273.66455,0.20784
2275.59302,0.20459
2277.52149,0.20305
2279.44996,0.20461
2281.37842,0.20746
2283.30689,0.20999
2285.23536,0.21234
2287.16383,0.21461
2289.09230,0.21525
2291.02077,0.21224
2292.94924,0.20924
2294.87770,0.21018
2296.80617,0.21141
2298.73464,0.20949
2300.66311,0.20751
2302.59158,0.20819
2304.52005,0.20848
2306.44852,0.20700
2308.37699,0.20611
2310.30545,0.20433
2312.23392,0.20087
2314.16239,0.20047
2316.09086,0.20558
2318.01933,0.21485
2319.94780,0.22598
2321.87627,0.23466
2323.80473,0.23732
2325.73320,0.23215
2327.66167,0.22237
2329.59014,0.22035
2331.51861,0.22702
2333.44708,0.22862
2335.37555,0.22587
2337.30401,0.22510
2339.23248,0.22467
2341.16095,0.22564
2343.08942,0.22668
2345.01789,0.21934
2346.94636,0.21138
2348.87483,0.21221
2350.80330,0.21829
2352.73176,0.22431
2354.66023,0.22829
2356.58870,0.23047
2358.51717,0.22369
2360.44564,0.21864
2362.37411,0.22939
2364.30258,0.23091
2366.23104,0.22006
2368.15951,0.21502
2370.08798,0.21457
2372.01645,0.21514
2373.94492,0.21392
2375.87339,0.21326
2377.80186,0.21566
2379.73033,0.21585
2381.65879,0.21215
2383.58726,0.20806
2385.51573,0.20530
2387.44420,0.20361
2389.37267,0.20276
2391.30114,0.20425
2393.22961,0.20856
2395.15807,0.21214
2397.08654,0.21214
2399.01501,0.20962
2400.94348,0.20737
2402.87195,0.20765
2404.80042,0.20937
2406.72889,0.20985
2408.65736,0.20927
2410.58582,0.20877
2412.51429,0.20841
2414.44276,0.20904
2416.37123,0.21150
2418.29970,0.21327
2420.22817,0.21262
2422.15664,0.21253
2424.08510,0.21490
2426.01357,0.21744
2427.94204,0.21642
2429.87051,0.21269
2431.79898,0.21155
2433.72745,0.21279
2435.65592,0.21292
2437.58439,0.21333
2439.51285,0.21450
2441.44132,0.21323
2443.36979,0.21216
2445.29826,0.21558
2447.22673,0.21843
2449.15520,0.21566
2451.08367,0.21423
2453.01213,0.22290
2454.94060,0.23114
2456.86907,0.22441
2458.79754,0.21428
2460.72601,0.21382
2462.65448,0.21590
2464.58295,0.21476
2466.51142,0.21315
2468.43988,0.21340
2470.36835,0.21473
2472.29682,0.21553
2474.22529,0.21542
2476.15376,0.21431
2478.08223,0.21342
2480.01070,0.21384
2481.93916,0.21480
2483.86763,0.21490
2485.79610,0.21370
2487.72457,0.21244
2489.65304,0.21169
2491.58151,0.21095
2493.50998,0.21063
2495.43844,0.21145
2497.36691,0.21227
2499.29538,0.21155
2501.22385,0.21016
2503.15232,0.20940
2505.08079,0.21013
2507.00926,0.21235
2508.93773,0.21379
2510.86619,0.21244
2512.79466,0.21069
2514.72313,0.21103
2516.65160,0.21126
2518.58007,0.21122
2520.50854,0.21157
2522.43701,0.21119
2524.36547,0.21173
2526.29394,0.21349
2528.22241,0.21506
2530.15088,0.21636
2532.07935,0.21596
2534.00782,0.21337
2535.93629,0.21014
2537.86476,0.20757
2539.79322,0.20766
2541.72169,0.21126
2543.65016,0.21464
2545.57863,0.21469
2547.50710,0.21522
2549.43557,0.21726
2551.36404,0.21614
2553.29250,0.21340
2555.22097,0.21212
2557.14944,0.20959
2559.07791,0.20586
2561.00638,0.20499
2562.93485,0.20728
2564.86332,0.20996
2566.79179,0.21141
2568.72025,0.21040
2570.64872,0.20788
2572.57719,0.20848
2574.50566,0.21223
2576.43413,0.21424
2578.36260,0.21465
2580.29107,0.21449
2582.21953,0.21391
2584.14800,0.21527
2586.07647,0.21656
2588.00494,0.21574
2589.93341,0.21528
2591.86188,0.21633
2593.79035,0.21642
2595.71882,0.21429
2597.64728,0.21347
2599.57575,0.21454
2601.50422,0.21372
2603.43269,0.21106
2605.36116,0.21095
2607.28963,0.21488
2609.21810,0.22105
2611.14656,0.22888
2613.07503,0.23361
2615.00350,0.22955
2616.93197,0.22218
2618.86044,0.21890
2620.78891,0.21778
2622.71738,0.21692
2624.64585,0.21701
2626.57431,0.21585
2628.50278,0.21393
2630.43125,0.21376
2632.35972,0.21416
2634.28819,0.21491
2636.21666,0.21681
2638.14513,0.21715
2640.07359,0.21560
2642.00206,0.21535
2643.93053,0.21519
2645.85900,0.21415
2647.78747,0.21597
2649.71594,0.21928
2651.64441,0.21845
2653.57288,0.21584
2655.50134,0.21596
2657.42981,0.21652
2659.35828,0.21610
2661.28675,0.21718
2663.21522,0.22036
2665.14369,0.22199
2667.07216,0.21949
2669.00062,0.21642
2670.92909,0.21693
2672.85756,0.21992
2674.78603,0.22192
2676.71450,0.22035
2678.64297,0.21608
2680.57144,0.21532
2682.49990,0.21893
2684.42837,0.22018
2686.35684,0.21833
2688.28531,0.21671
2690.21378,0.21611
2692.14225,0.21571
2694.07072,0.21648
2695.99919,0.22103
2697.92765,0.22589
2699.85612,0.22537
2701.78459,0.22159
2703.71306,0.21992
2705.64153,0.21905
2707.57000,0.21575
2709.49847,0.21412
2711.42693,0.21789
2713.35540,0.22263
2715.28387,0.22345
2717.21234,0.22177
2719.14081,0.22085
2721.06928,0.22266
2722.99775,0.22634
2724.92622,0.22897
2726.85468,0.22963
2728.78315,0.22720
2730.71162,0.22261
2732.64009,0.22128
2734.56856,0.22388
2736.49703,0.22521
2738.42550,0.22326
2740.35396,0.22094
2742.28243,0.21970
2744.21090,0.21879
2746.13937,0.21846
2748.06784,0.21912
2749.99631,0.22063
2751.92478,0.22180
2753.85325,0.22085
2755.78171,0.21908
2757.71018,0.22022
2759.63865,0.22357
2761.56712,0.22524
2763.49559,0.22464
2765.42406,0.22333
2767.35253,0.22388
2769.28099,0.22753
2771.20946,0.23159
2773.13793,0.23269
2775.06640,0.23050
2776.99487,0.22826
2778.92334,0.22820
2780.85181,0.22960
2782.78028,0.23198
2784.70874,0.23467
2786.63721,0.23585
2788.56568,0.23521
2790.49415,0.23408
2792.42262,0.23161
2794.35109,0.22840
2796.27956,0.22792
2798.20802,0.22899
2800.13649,0.22878
2802.06496,0.22805
2803.99343,0.22724
2805.92190,0.22726
2807.85037,0.22936
2809.77884,0.23058
2811.70731,0.22849
2813.63577,0.22531
2815.56424,0.22375
2817.49271,0.22356
2819.42118,0.22389
2821.34965,0.22638
2823.27812,0.22902
2825.20659,0.22871
2827.13505,0.22851
2829.06352,0.22963
2830.99199,0.23105
2832.92046,0.23447
2834.84893,0.23709
2836.77740,0.23551
2838.70587,0.23272
2840.63433,0.23021
2842.56280,0.22734
2844.49127,0.22660
2846.41974,0.22855
2848.34821,0.22849
2850.27668,0.22624
2852.20515,0.22882
2854.13362,0.23562
2856.06208,0.23842
2857.99055,0.23649
2859.91902,0.23403
2861.84749,0.23225
2863.77596,0.23183
2865.70443,0.23315
2867.63290,0.23527
2869.56136,0.23678
2871.48983,0.23580
2873.41830,0.23380
2875.34677,0.23335
2877.27524,0.23341
2879.20371,0.23373
2881.13218,0.23377
2883.06065,0.23060
2884.98911,0.22526
2886.91758,0.22197
2888.84605,0.22333
2890.77452,0.22922
2892.70299,0.23562
2894.63146,0.23786
2896.55993,0.23478
2898.48839,0.23029
2900.41686,0.22935
2902.34533,0.23085
2904.27380,0.23010
2906.20227,0.22658
2908.13074,0.22404
2910.05921,0.22316
2911.98768,0.22367
2913.91614,0.22578
2915.84461,0.22570
2917.77308,0.22404
2919.70155,0.22468
2921.63002,0.22707
2923.55849,0.22820
2925.48696,0.22756
2927.41542,0.23216
2929.34389,0.24028
2931.27236,0.23904
2933.20083,0.23135
2935.12930,0.22774
2937.05777,0.22446
2938.98624,0.22007
2940.91471,0.21904
2942.84317,0.22014
2944.77164,0.22246
2946.70011,0.22382
2948.62858,0.22357
2950.55705,0.22538
2952.48552,0.22753
2954.41399,0.22737
2956.34245,0.22457
2958.27092,0.22229
2960.19939,0.22726
2962.12786,0.23709
2964.05633,0.23931
2965.98480,0.22998
2967.91327,0.22309
2969.84174,0.22756
2971.77020,0.23422
2973.69867,0.23758
2975.62714,0.23511
2977.55561,0.22601
2979.48408,0.22289
2981.41255,0.22852
2983.34102,0.23264
2985.26948,0.23491
2987.19795,0.23743
2989.12642,0.23780
2991.05489,0.23633
2992.98336,0.23568
2994.91183,0.23601
2996.84030,0.23429
2998.76877,0.23189
3000.69723,0.23323
3002.62570,0.23432
3004.55417,0.23067
3006.48264,0.22875
3008.41111,0.23225
3010.33958,0.23306
3012.26805,0.22313
3014.19651,0.20204
3016.12498,0.18167
3018.05345,0.18325
3019.98192,0.20632
3021.91039,0.22737
3023.83886,0.23694
3025.76733,0.23867
3027.69579,0.23623
3029.62426,0.23598
3031.55273,0.23937
3033.48120,0.24144
3035.40967,0.24076
3037.33814,0.23888
3039.26661,0.23714
3041.19508,0.23631
3043.12354,0.23458
3045.05201,0.23181
3046.98048,0.23107
3048.90895,0.23385
3050.83742,0.23684
3052.76589,0.23635
3054.69436,0.23333
3056.62282,0.22911
3058.55129,0.22680
3060.47976,0.22861
3062.40823,0.23079
3064.33670,0.22933
3066.26517,0.22484
3068.19364,0.22382
3070.12211,0.22846
3072.05057,0.23271
3073.97904,0.23119
3075.90751,0.22643
3077.83598,0.22835
3079.76445,0.23638
3081.69292,0.23947
3083.62139,0.23438
3085.54985,0.22740
3087.47832,0.22690
3089.40679,0.23363
3091.33526,0.23637
3093.26373,0.22789
3095.19220,0.21968
3097.12067,0.22075
3099.04914,0.22610
3100.97760,0.22931
3102.90607,0.22646
3104.83454,0.22624
3106.76301,0.23240
3108.69148,0.23307
3110.61995,0.22684
3112.54842,0.22130
3114.47688,0.22158
3116.40535,0.22539
3118.33382,0.22536
3120.26229,0.22420
3122.19076,0.22699
3124.11923,0.22999
3126.04770,0.23311
3127.97617,0.23820
3129.90463,0.24037
3131.83310,0.24012
3133.76157,0.24187
3135.69004,0.24523
3137.61851,0.24659
3139.54698,0.24177
3141.47545,0.23397
3143.40391,0.23114
3145.33238,0.23376
3147.26085,0.23625
3149.18932,0.23682
3151.11779,0.23634
3153.04626,0.23677
3154.97473,0.23954
3156.90320,0.24133
3158.83166,0.24202
3160.76013,0.24447
3162.68860,0.24835
3164.61707,0.25102
3166.54554,0.25145
3168.47401,0.25206
3170.40248,0.25191
3172.33094,0.24814
3174.25941,0.24247
3176.18788,0.23822
3178.11635,0.23849
3180.04482,0.24293
3181.97329,0.24560
3183.90176,0.24567
3185.83022,0.24549
3187.75869,0.24295
3189.68716,0.23878
3191.61563,0.23589
3193.54410,0.23595
3195.47257,0.23616
3197.40104,0.23536
3199.32951,0.23898
3201.25797,0.24418
3203.18644,0.24517
3205.11491,0.24272
3207.04338,0.23902
3208.97185,0.23660
3210.90032,0.23667
3212.82879,0.23822
3214.75725,0.23921
3216.68572,0.23991
3218.61419,0.24172
3220.54266,0.24209
3222.47113,0.24203
3224.39960,0.24579
3226.32807,0.24928
3228.25654,0.24884
3230.18500,0.24705
3232.11347,0.24389
3234.04194,0.24080
3235.97041,0.24072
3237.89888,0.23882
3239.82735,0.23340
3241.75582,0.23284
3243.68428,0.23643
3245.61275,0.23660
3247.54122,0.23665
3249.46969,0.23956
3251.39816,0.23982
3253.32663,0.23801
3255.25510,0.24160
3257.18357,0.24726
3259.11203,0.24569
3261.04050,0.24209
3262.96897,0.24405
3264.89744,0.24303
3266.82591,0.23716
3268.75438,0.23800
3270.68285,0.24279
3272.61131,0.24256
3274.53978,0.24146
3276.46825,0.24349
3278.39672,0.24366
3280.32519,0.23969
3282.25366,0.23627
3284.18213,0.23518
3286.11060,0.23673
3288.03906,0.24101
3289.96753,0.24231
3291.89600,0.23833
3293.82447,0.23455
3295.75294,0.23563
3297.68141,0.23915
3299.60988,0.23835
3301.53834,0.23448
3303.46681,0.23215
3305.39528,0.22961
3307.32375,0.22813
3309.25222,0.23147
3311.18069,0.23621
3313.10916,0.23559
3315.03763,0.22972
3316.96609,0.22653
3318.89456,0.22955
3320.82303,0.23381
3322.75150,0.23676
3324.67997,0.23687
3326.60844,0.23303
3328.53691,0.23135
3330.46537,0.23636
3332.39384,0.24271
3334.32231,0.24427
3336.25078,0.24389
3338.17925,0.24398
3340.10772,0.24197
3342.03619,0.24120
3343.96466,0.24234
3345.89312,0.23877
3347.82159,0.23459
3349.75006,0.23712
3351.67853,0.24128
3353.60700,0.24383
3355.53547,0.24361
3357.46394,0.23901
3359.39240,0.23781
3361.32087,0.24075
3363.24934,0.23837
3365.17781,0.23304
3367.10628,0.23495
3369.03475,0.24192
3370.96322,0.24371
3372.89168,0.24048
3374.82015,0.24011
3376.74862,0.24362
3378.67709,0.24607
3380.60556,0.24451
3382.53403,0.24214
3384.46250,0.24471
3386.39097,0.25142
3388.31943,0.25376
3390.24790,0.24783
3392.17637,0.24235
3394.10484,0.24162
3396.03331,0.23886
3397.96178,0.23352
3399.89025,0.23147
3401.81871,0.23977
3403.74718,0.25551
3405.67565,0.25977
3407.60412,0.24503
3409.53259,0.22771
3411.46106,0.22204
3413.38953,0.22488
3415.31800,0.23038
3417.24646,0.23684
3419.17493,0.23997
3421.10340,0.23775
3423.03187,0.23512
3424.96034,0.23309
3426.88881,0.23017
3428.81728,0.22866
3430.74574,0.22838
3432.67421,0.22725
3434.60268,0.22618
3436.53115,0.22862
3438.45962,0.23538
3440.38809,0.23983
3442.31656,0.23460
3444.24503,0.22503
3446.17349,0.22228
3448.10196,0.22690
3450.03043,0.23122
3451.95890,0.22967
3453.88737,0.22607
3455.81584,0.22809
3457.74431,0.23091
3459.67277,0.22571
3461.60124,0.21802
3463.52971,0.21730
3465.45818,0.22143
3467.38665,0.22411
3469.31512,0.22294
3471.24359,0.21993
3473.17206,0.22021
3475.10052,0.22407
3477.02899,0.22634
3478.95746,0.22467
3480.88593,0.22098
3482.81440,0.22147
3484.74287,0.22697
3486.67134,0.22932
3488.59980,0.22535
3490.52827,0.21643
3492.45674,0.20796
3494.38521,0.20884
3496.31368,0.21673
3498.24215,0.21903
3500.17062,0.21351
3502.09909,0.20960
3504.02755,0.20601
3505.95602,0.19729
3507.88449,0.19367
3509.81296,0.19958
3511.74143,0.20414
3513.66990,0.20259
3515.59837,0.20009
3517.52683,0.20038
3519.45530,0.20344
3521.38377,0.20610
3523.31224,0.20575
3525.24071,0.20570
3527.16918,0.20713
3529.09765,0.20384
3531.02611,0.19728
3532.95458,0.19531
3534.88305,0.19555
3536.81152,0.19398
3538.73999,0.19430
3540.66846,0.19759
3542.59693,0.20164
3544.52540,0.20651
3546.45386,0.20746
3548.38233,0.19897
3550.31080,0.19063
3552.23927,0.18908
3554.16774,0.18813
3556.09621,0.18639
3558.02468,0.18561
3559.95314,0.18555
3561.88161,0.18889
3563.81008,0.19664
3565.73855,0.20684
3567.66702,0.21063
3569.59549,0.19962
3571.52396,0.18703
3573.45243,0.18250
3575.38089,0.18019
3577.30936,0.17623
3579.23783,0.17778
3581.16630,0.18426
3583.09477,0.18641
3585.02324,0.18370
3586.95171,0.18416
3588.88017,0.18566
3590.80864,0.18295
3592.73711,0.18228
3594.66558,0.18236
3596.59405,0.17801
3598.52252,0.17548
3600.45099,0.17729
3602.37946,0.17606
3604.30792,0.17246
3606.23639,0.17290
3608.16486,0.17497
3610.09333,0.17439
3612.02180,0.17608
3613.95027,0.17927
3615.87874,0.17970
3617.80720,0.18103
3619.73567,0.18338
3621.66414,0.18025
3623.59261,0.17427
3625.52108,0.17076
3627.44955,0.17070
3629.37802,0.17193
3631.30649,0.17094
3633.23495,0.16721
3635.16342,0.16219
3637.09189,0.15835
3639.02036,0.15672
3640.94883,0.15706
3642.87730,0.15840
3644.80577,0.16144
3646.73423,0.16538
3648.66270,0.16449
3650.59117,0.16078
3652.51964,0.15981
3654.44811,0.15964
3656.37658,0.15735
3658.30505,0.15104
3660.23352,0.14603
3662.16198,0.14587
3664.09045,0.14865
3666.01892,0.15227
3667.94739,0.16162
3669.87586,0.17713
3671.80433,0.17849
3673.73280,0.16761
3675.66126,0.15899
3677.58973,0.15624
3679.51820,0.15252
3681.44667,0.14846
3683.37514,0.14853
3685.30361,0.15365
3687.23208,0.16085
3689.16055,0.16146
3691.08901,0.15045
3693.01748,0.14298
3694.94595,0.14562
3696.87442,0.15204
3698.80289,0.15470
3700.73136,0.15301
3702.65983,0.14997
3704.58829,0.14630
3706.51676,0.14454
3708.44523,0.15107
3710.37370,0.16425
3712.30217,0.16708
3714.23064,0.16010
3716.15911,0.15532
3718.08757,0.15842
3720.01604,0.17191
3721.94451,0.17982
3723.87298,0.16764
3725.80145,0.15180
3727.72992,0.15136
3729.65839,0.15705
3731.58686,0.15307
3733.51532,0.14170
3735.44379,0.14333
3737.37226,0.15660
3739.30073,0.16078
3741.22920,0.15725
3743.15767,0.15386
3745.08614,0.15750
3747.01460,0.16792
3748.94307,0.17775
3750.87154,0.18067
3752.80001,0.16961
3754.72848,0.15777
3756.65695,0.15147
3758.58542,0.14465
3760.51389,0.13622
3762.44235,0.13533
3764.37082,0.14194
3766.29929,0.14655
3768.22776,0.14586
3770.15623,0.14459
3772.08470,0.14426
3774.01317,0.14581
3775.94163,0.14779
3777.87010,0.14786
3779.79857,0.14526
3781.72704,0.14245
3783.65551,0.14179
3785.58398,0.13898
3787.51245,0.13201
3789.44092,0.13025
3791.36938,0.13858
3793.29785,0.14634
3795.22632,0.14495
3797.15479,0.14290
3799.08326,0.14986
3801.01173,0.15764
3802.94020,0.15623
3804.86866,0.15370
3806.79713,0.15260
3808.72560,0.14822
3810.65407,0.14268
3812.58254,0.14033
3814.51101,0.13945
3816.43948,0.13604
3818.36795,0.13863
3820.29641,0.14858
3822.22488,0.14882
3824.15335,0.14209
3826.08182,0.14160
3828.01029,0.14489
3829.93876,0.14735
3831.86723,0.14798
3833.79569,0.14682
3835.72416,0.14874
3837.65263,0.15771
3839.58110,0.16403
3841.50957,0.16159
3843.43804,0.15722
3845.36651,0.14990
3847.29498,0.14192
3849.22344,0.14047
3851.15191,0.14537
3853.08038,0.15242
3855.00885,0.15079
3856.93732,0.14247
3858.86579,0.13846
3860.79426,0.14107
3862.72272,0.14393
3864.65119,0.13831
3866.57966,0.13407
3868.50813,0.14247
3870.43660,0.15454
3872.36507,0.15499
3874.29354,0.14757
3876.22200,0.14033
3878.15047,0.13798
3880.07894,0.13924
3882.00741,0.13918
3883.93588,0.13948
3885.86435,0.14393
3887.79282,0.14965
3889.72129,0.15440
3891.64975,0.15430
3893.57822,0.14437
3895.50669,0.13406
3897.43516,0.13022
3899.36363,0.13176
3901.29210,0.13376
3903.22057,0.13620
3905.14903,0.13982
3907.07750,0.13732
3909.00597,0.13155
3910.93444,0.12892
3912.86291,0.12699
3914.79138,0.12299
3916.71985,0.12160
3918.64832,0.12512
3920.57678,0.12754
3922.50525,0.12797
3924.43372,0.12802
3926.36219,0.12762
3928.29066,0.13064
3930.21913,0.13639
3932.14760,0.13558
3934.07606,0.12565
3936.00453,0.11759
3937.93300,0.11903
3939.86147,0.12547
3941.78994,0.12929
3943.71841,0.13046
3945.64688,0.13178
3947.57535,0.13105
3949.50381,0.12536
3951.43228,0.12209
3953.36075,0.12862
3955.28922,0.13610
3957.21769,0.13510
3959.14616,0.13186
3961.07463,0.13184
3963.00309,0.13071
3964.93156,0.12609
3966.86003,0.12213
3968.78850,0.12356
3970.71697,0.12437
3972.64544,0.11924
3974.57391,0.11372
3976.50238,0.11040
3978.43084,0.10972
3980.35931,0.11423
3982.28778,0.12197
3984.21625,0.12378
3986.14472,0.11866
3988.07319,0.11603
3990.00166,0.11596
3991.93012,0.11408
3993.85859,0.11141
3995.78706,0.11042
3997.71553,0.11354
3999.64400,0.11888
4001.57247,0.12019
4003.50094,0.11558
4005.42941,0.10960
4007.35787,0.10751
4009.28634,0.10948
4011.21481,0.11142
4013.14328,0.11138
4015.07175,0.11035
4017.00022,0.11144
4018.92869,0.11379
4020.85715,0.11293
4022.78562,0.11037
4024.71409,0.11216
4026.64256,0.11732
4028.57103,0.11859
4030.49950,0.11716
4032.42797,0.11558
4034.35644,0.11366
4036.28490,0.11257
4038.21337,0.11250
4040.14184,0.11334
4042.07031,0.11288
4043.99878,0.11317
4045.92725,0.11565
4047.85572,0.11469
4049.78418,0.10963
4051.71265,0.10822
4053.64112,0.11309
4055.56959,0.11832
4057.49806,0.12058
4059.42653,0.11893
4061.35500,0.11580
4063.28346,0.11465
4065.21193,0.11188
4067.14040,0.10683
4069.06887,0.10746
4070.99734,0.11298
4072.92581,0.11267
4074.85428,0.10732
4076.78275,0.10223
4078.71121,0.09689
4080.63968,0.09409
4082.56815,0.09611
4084.49662,0.09844
4086.42509,0.09730
4088.35356,0.09768
4090.28203,0.10231
4092.21049,0.10489
4094.13896,0.10380
4096.06743,0.10248
4097.99590,0.10207
4099.92437,0.10493
4101.85284,0.10813
4103.78131,0.10462
4105.70978,0.09957
4107.63824,0.10005
4109.56671,0.10331
4111.49518,0.10403
4113.42365,0.10062
4115.35212,0.09836
4117.28059,0.10004
4119.20906,0.10179
4121.13752,0.10016
4123.06599,0.09525
4124.99446,0.09245
4126.92293,0.09590
4128.85140,0.09996
4130.77987,0.09851
4132.70834,0.09623
4134.63681,0.09710
4136.56527,0.09596
4138.49374,0.09210
4140.42221,0.09316
4142.35068,0.09863
4144.27915,0.09681
4146.20762,0.08554
4148.13609,0.07730
4150.06455,0.08121
4151.99302,0.09083
4153.92149,0.09558
4155.84996,0.09831
4157.77843,0.09824
4159.70690,0.08915
4161.63537,0.08136
4163.56384,0.08423
4165.49230,0.09319
4167.42077,0.09977
4169.34924,0.09880
4171.27771,0.09381
4173.20618,0.09151
4175.13465,0.09298
4177.06312,0.09359
4178.99158,0.09174
4180.92005,0.09013
4182.84852,0.09088
4184.77699,0.09510
4186.70546,0.09861
4188.63393,0.09786
4190.56240,0.09590
4192.49087,0.09833
4194.41933,0.10810
4196.34780,0.11601
4198.27627,0.11057
4200.20474,0.09680
4202.13321,0.09071
4204.06168,0.09451
4205.99015,0.09472
4207.91861,0.08901
4209.84708,0.08227
4211.77555,0.07643
4213.70402,0.07577
4215.63249,0.07528
4217.56096,0.07132
4219.48943,0.07267
4221.41789,0.07972
4223.34636,0.08428
4225.27483,0.08457
4227.20330,0.08077
4229.13177,0.07369
4231.06024,0.07020
4232.98871,0.07293
4234.91718,0.07585
4236.84564,0.07694
4238.77411,0.07713
4240.70258,0.07500
4242.63105,0.07458
4244.55952,0.07788
4246.48799,0.08001
4248.41646,0.07897
4250.34492,0.07542
4252.27339,0.07571
4254.20186,0.08213
4256.13033,0.08439
4258.05880,0.08303
4259.98727,0.08591
4261.91574,0.08708
4263.84421,0.08263
4265.77267,0.08136
4267.70114,0.08514
4269.62961,0.08544
4271.55808,0.08172
4273.48655,0.07957
4275.41502,0.07733
4277.34349,0.07382
4279.27195,0.07241
4281.20042,0.07132
4283.12889,0.06931
4285.05736,0.07050
4286.98583,0.07389
4288.91430,0.07188
4290.84277,0.06684
4292.77124,0.06845
4294.69970,0.07029
4296.62817,0.06530
4298.55664,0.06164
4300.48511,0.06009
4302.41358,0.05682
4304.34205,0.05714
4306.27052,0.06069
4308.19898,0.06124
4310.12745,0.06074
4312.05592,0.06167
4313.98439,0.06048
4315.91286,0.05578
4317.84133,0.05166
4319.76980,0.05123
4321.69827,0.05175
4323.62673,0.05089
4325.55520,0.05108
4327.48367,0.05314
4329.41214,0.05590
4331.34061,0.05910
4333.26908,0.05883
4335.19755,0.05365
4337.12601,0.05233
4339.05448,0.05923
4340.98295,0.06671
4342.91142,0.06834
4344.83989,0.06556
4346.76836,0.06379
4348.69683,0.06540
4350.62530,0.06730
4352.55376,0.06741
4354.48223,0.06591
4356.41070,0.06062
4358.33917,0.05114
4360.26764,0.04426
4362.19611,0.04283
4364.12458,0.04347
4366.05304,0.04673
4367.98151,0.05069
4369.90998,0.05409
4371.83845,0.05615
4373.76692,0.05033
4375.69539,0.04078
4377.62386,0.03929
4379.55232,0.04442
4381.48079,0.04845
4383.40926,0.05260
4385.33773,0.05415
4387.26620,0.04521
4389.19467,0.03498
4391.12314,0.03720
4393.05161,0.04702
4394.98007,0.05197
4396.90854,0.04984
4398.83701,0.04679
4400.76548,0.04644
4402.69395,0.04486
4404.62242,0.03620
4406.55089,0.02728
4408.47935,0.03160
4410.40782,0.04462
4412.33629,0.04747
4414.26476,0.04125
4416.19323,0.04097
4418.12170,0.04219
4420.05017,0.03723
4421.97864,0.03334
4423.90710,0.03261
4425.83557,0.03161
4427.76404,0.03277
4429.69251,0.03847
4431.62098,0.04603
4433.54945,0.04958
4435.47792,0.04615
4437.40638,0.03831
4439.33485,0.03225
4441.26332,0.03170
4443.19179,0.03120
4445.12026,0.02573
4447.04873,0.02177
4448.97720,0.02849
4450.90567,0.03806
4452.83413,0.03578
4454.76260,0.02786
4456.69107,0.02663
4458.61954,0.03240
4460.54801,0.03769
4462.47648,0.03353
4464.40495,0.02567
4466.33341,0.02540
4468.26188,0.02994
4470.19035,0.03318
4472.11882,0.03516
4474.04729,0.03865
4475.97576,0.04170
4477.90423,0.03747
4479.83270,0.02573
4481.76116,0.01798
4483.68963,0.02153
4485.61810,0.02437
4487.54657,0.02067
4489.47504,0.01877
4491.40351,0.01480
4493.33198,0.00832
4495.26044,0.01117
4497.18891,0.01823
4499.11738,0.02100
4501.04585,0.02467
4502.97432,0.02796
4504.90279,0.02993
4506.83126,0.03316
4508.75973,0.03349
4510.68819,0.03421
4512.61666,0.03763
4514.54513,0.03422
4516.47360,0.02584
4518.40207,0.02707
4520.33054,0.03639
4522.25901,0.03840
4524.18747,0.03032
4526.11594,0.01885
4528.04441,0.01188
4529.97288,0.01395
4531.90135,0.01737
4533.82982,0.01875
4535.75829,0.02214
4537.68676,0.02561
4539.61522,0.02464
4541.54369,0.01745
4543.47216,0.01173
4545.40063,0.01807
4547.32910,0.02844
4549.25757,0.02482
4551.18604,0.01270
4553.11450,0.00954
4555.04297,0.01055
4556.97144,0.00605
4558.89991,0.00716
4560.82838,0.02128
4562.75685,0.02968
4564.68532,0.02219
4566.61378,0.01523
4568.54225,0.01751
4570.47072,0.02043
4572.39919,0.01627
4574.32766,0.01065
4576.25613,0.01354
4578.18460,0.02520
4580.11307,0.03563
4582.04153,0.03652
4583.97000,0.03132
4585.89847,0.02046
4587.82694,0.00822
4589.75541,0.00967
4591.68388,0.01997
4593.61235,0.02167
4595.54081,0.01852
4597.46928,0.01995
4599.39775,0.02112
4601.32622,0.01796
4603.25469,0.01615
4605.18316,0.01898
4607.11163,0.02258
4609.04010,0.02471
4610.96856,0.02326
4612.89703,0.01764
4614.82550,0.01027
4616.75397,0.00606
4618.68244,0.01248
4620.61091,0.02173
4622.53938,0.02112
4624.46784,0.01345
4626.39631,0.00775
4628.32478,0.00785
4630.25325,0.00850
4632.18172,0.00811
4634.11019,0.00998
4636.03866,0.01054
4637.96713,0.00878
4639.89559,0.01064
4641.82406,0.01651
4643.75253,0.01943
4645.68100,0.01608
4647.60947,0.01013
4649.53794,0.00556
4651.46641,0.00077
4653.39487,-0.00282
4655.32334,0.00319
4657.25181,0.01966
4659.18028,0.03343
4661.10875,0.02967
4663.03722,0.01638
4664.96569,0.01085
4666.89416,0.00970
4668.82262,0.00704
4670.75109,0.00463
4672.67956,0.00413
4674.60803,0.00635
4676.53650,0.00985
4678.46497,0.01509
4680.39344,0.01848
4682.32190,0.01749
4684.25037,0.01500
4686.17884,0.00657
4688.10731,-0.00456
4690.03578,-0.00129
4691.96425,0.01427
4693.89272,0.02326
4695.82119,0.02270
4697.74965,0.02125
4699.67812,0.01834
4701.60659,0.01197
4703.53506,0.00670
4705.46353,0.00105
4707.39200,-0.00296
4709.32047,0.00347
4711.24893,0.01482
4713.17740,0.01898
4715.10587,0.01677
4717.03434,0.01842
4718.96281,0.02245
4720.89128,0.01738
4722.81975,0.01120
4724.74821,0.01946
4726.67668,0.03245
4728.60515,0.03434
4730.53362,0.03051
4732.46209,0.02861
4734.39056,0.02369
4736.31903,0.01602
4738.24750,0.01617
4740.17596,0.02247
4742.10443,0.02483
4744.03290,0.02378
4745.96137,0.02065
4747.88984,0.01684
4749.81831,0.01682
4751.74678,0.01683
4753.67524,0.01084
4755.60371,0.00433
4757.53218,0.00626
4759.46065,0.01127
4761.38912,0.00953
4763.31759,0.00436
4765.24606,0.00197
4767.17453,0.00603
4769.10299,0.01727
4771.03146,0.02340
4772.95993,0.01837
4774.88840,0.01522
4776.81687,0.02038
4778.74534,0.02244
4780.67381,0.01167
4782.60227,-0.00115
4784.53074,-0.00089
4786.45921,0.00827
4788.38768,0.01279
4790.31615,0.00927
4792.24462,0.00402
4794.17309,0.00182
4796.10156,0.00060
4798.03002,-0.00281
4799.95849,-0.00589
4801.88696,-0.00819
4803.81543,-0.00694
4805.74390,-0.00026
4807.67237,0.00379
4809.60084,0.00923
4811.52930,0.01889
4813.45777,0.02003
4815.38624,0.01219
4817.31471,0.00438
4819.24318,-0.00064
4821.17165,-0.00199
4823.10012,-0.00057
4825.02859,0.00049
4826.95705,-0.00340
4828.88552,-0.00776
4830.81399,-0.00390
4832.74246,-0.00238
4834.67093,-0.00662
4836.59940,-0.00308
4838.52787,0.00501
4840.45633,0.01130
4842.38480,0.01391
4844.31327,0.00627
4846.24174,-0.00480
4848.17021,-0.00220
4850.09868,0.00933
4852.02715,0.00878
4853.95562,-0.00118
4855.88408,-0.00334
4857.81255,0.00332
4859.74102,0.00966
4861.66949,0.01158
4863.59796,0.01055
4865.52643,0.01167
4867.45490,0.01859
4869.38336,0.02223
4871.31183,0.01518
4873.24030,0.00637
4875.16877,0.00816
4877.09724,0.01979
4879.02571,0.02655
4880.95418,0.01972
4882.88265,0.01062
4884.81111,0.00898
4886.73958,0.00826
4888.66805,0.00473
4890.59652,-0.00020
4892.52499,-0.00323
4894.45346,0.00316
4896.38193,0.01336
4898.31039,0.01055
4900.23886,-0.00498
4902.16733,-0.01393
4904.09580,-0.00813
4906.02427,0.00283
4907.95274,0.00720
4909.88121,0.00407
4911.80967,0.00313
4913.73814,0.00360
4915.66661,0.00313
4917.59508,0.01049
4919.52355,0.01846
4921.45202,0.01430
4923.38049,0.00564
4925.30896,0.00344
4927.23742,0.00354
4929.16589,0.00414
4931.09436,0.01264
4933.02283,0.01686
4934.95130,0.00373
4936.87977,-0.01071
4938.80824,-0.01302
4940.73670,-0.00954
4942.66517,-0.00670
4944.59364,-0.00322
4946.52211,0.00071
4948.45058,0.00624
4950.37905,0.01718
4952.30752,0.02820
4954.23599,0.02848
4956.16445,0.01985
4958.09292,0.01806
4960.02139,0.02393
4961.94986,0.02500
4963.87833,0.02004
4965.80680,0.01414
4967.73527,0.01379
4969.66373,0.02182
4971.59220,0.02904
4973.52067,0.01865
4975.44914,0.00454
4977.37761,0.01586
4979.30608,0.03047
4981.23455,0.01953
4983.16302,0.00724
4985.09148,0.01907
4987.01995,0.03666
4988.94842,0.03944
4990.87689,0.03726
4992.80536,0.03558
4994.73383,0.02689
4996.66230,0.01384
4998.59076,0.00521
5000.51923,0.00661
5002.44770,0.01148
5004.37617,0.01113
5006.30464,0.01272
5008.23311,0.01363
5010.16158,0.00946
5012.09005,0.01555
5014.01851,0.02855
5015.94698,0.02622
5017.87545,0.00248
5019.80392,-0.02100
5021.73239,-0.02128
5023.66086,-0.00826
5025.58933,0.00825
5027.51779,0.02899
5029.44626,0.03887
5031.37473,0.03303
5033.30320,0.02588
5035.23167,0.01999
5037.16014,0.00953
5039.08861,0.00301
5041.01708,0.00352
5042.94554,0.00245
5044.87401,0.00393
5046.80248,0.01141
5048.73095,0.02186
5050.65942,0.02823
5052.58789,0.02792
5054.51636,0.03707
5056.44482,0.04687
5058.37329,0.03393
5060.30176,0.01459
5062.23023,0.01152
5064.15870,0.02144
5066.08717,0.02814
5068.01564,0.01884
5069.94410,0.01437
5071.87257,0.03591
5073.80104,0.05598
5075.72951,0.05841
5077.65798,0.05598
5079.58645,0.04024
5081.51492,0.01922
5083.44339,0.01512
5085.37185,0.01238
5087.30032,0.00531
5089.22879,0.02084
5091.15726,0.04942
5093.08573,0.05938
5095.01420,0.05572
5096.94267,0.04562
5098.87113,0.02850
5100.79960,0.01419
5102.72807,0.00602
5104.65654,0.00216
5106.58501,0.00115
5108.51348,0.00090
5110.44195,0.00211
5112.37042,0.01205
5114.29888,0.02615
5116.22735,0.02707
5118.15582,0.02361
5120.08429,0.02662
5122.01276,0.02621
5123.94123,0.02027
5125.86970,0.01452
5127.79816,0.01206
5129.72663,0.01629
5131.65510,0.02980
5133.58357,0.04299
5135.51204,0.04893
5137.44051,0.04926
5139.36898,0.03865
5141.29745,0.02710
5143.22591,0.02110
5145.15438,0.00521
5147.08285,-0.00198
5149.01132,0.02260
5150.93979,0.04703
5152.86826,0.04768
5154.79673,0.03855
5156.72519,0.03582
5158.65366,0.04612
5160.58213,0.05610
5162.51060,0.06620
5164.43907,0.08982
5166.36754,0.10182
5168.29601,0.07950
5170.22448,0.04771
5172.15294,0.03697
5174.08141,0.04532
5176.00988,0.05590
5177.93835,0.05526
5179.86682,0.04469
5181.79529,0.03403
5183.72376,0.02585
5185.65222,0.01929
5187.58069,0.01486
5189.50916,0.01398
5191.43763,0.01231
5193.36610,0.00716
5195.29457,0.00713
5197.22304,0.01914
5199.15151,0.03363
5201.07997,0.03969
5203.00844,0.04668
5204.93691,0.05518
5206.86538,0.05090
5208.79385,0.03698
5210.72232,0.02430
5212.65079,0.01836
5214.57925,0.01897
5216.50772,0.02459
5218.43619,0.03820
5220.36466,0.05204
5222.29313,0.06040
5224.22160,0.06716
5226.15007,0.06375
5228.07854,0.05260
5230.00700,0.05596
5231.93547,0.06500
5233.86394,0.05748
5235.79241,0.04728
5237.72088,0.05174
5239.64935,0.06331
5241.57782,0.07122
5243.50628,0.07522
5245.43475,0.08324
5247.36322,0.09110
5249.29169,0.07072
5251.22016,0.03673
5253.14863,0.03961
5255.07710,0.05935
5257.00556,0.06216
5258.93403,0.06587
5260.86250,0.06359
5262.79097,0.05312
5264.71944,0.05993
5266.64791,0.07869
5268.57638,0.09394
5270.50485,0.08624
5272.43331,0.05609
5274.36178,0.03736
5276.29025,0.04258
5278.21872,0.05932
5280.14719,0.06965
5282.07566,0.05890
5284.00413,0.03142
5285.93259,0.01874
5287.86106,0.03588
5289.78953,0.06111
5291.71800,0.07483
5293.64647,0.06303
5295.57494,0.04008
5297.50341,0.03932
5299.43188,0.04730
5301.36034,0.03680
5303.28881,0.02901
5305.21728,0.04042
5307.14575,0.05470
5309.07422,0.06133
5311.00269,0.06552
5312.93116,0.06866
5314.85962,0.06593
5316.78809,0.06591
5318.71656,0.07622
5320.64503,0.08583
5322.57350,0.08547
5324.50197,0.07913
5326.43044,0.07747
5328.35891,0.07991
5330.28737,0.07580
5332.21584,0.05602
5334.14431,0.02943
5336.07278,0.02392
5338.00125,0.04712
5339.92972,0.07021
5341.85819,0.07519
5343.78665,0.08252
5345.71512,0.09297
5347.64359,0.08502
5349.57206,0.06474
5351.50053,0.04780
5353.42900,0.05769
5355.35747,0.09421
5357.28594,0.11823
5359.21440,0.11707
5361.14287,0.09660
5363.07134,0.06547
5364.99981,0.04165
5366.92828,0.03595
5368.85675,0.04159
5370.78522,0.04998
5372.71368,0.05703
5374.64215,0.05758
5376.57062,0.04622
5378.49909,0.03815
5380.42756,0.05086
5382.35603,0.06867
5384.28450,0.07481
5386.21297,0.08055
5388.14143,0.08795
5390.06990,0.09116
5391.99837,0.08292
5393.92684,0.05648
5395.85531,0.04463
5397.78378,0.05165
5399.71225,0.05316
5401.64071,0.05784
5403.56918,0.07005
5405.49765,0.08080
5407.42612,0.08135
5409.35459,0.06702
5411.28306,0.04975
5413.21153,0.04411
5415.13999,0.04242
5417.06846,0.03874
5418.99693,0.04608
5420.92540,0.06945
5422.85387,0.09424
5424.78234,0.10184
5426.71081,0.09797
5428.63928,0.10030
5430.56774,0.10389
5432.49621,0.10162
5434.42468,0.09990
5436.35315,0.09661
5438.28162,0.08065
5440.21009,0.06030
5442.13856,0.05379
5444.06702,0.06350
5445.99549,0.08466
5447.92396,0.09498
5449.85243,0.08109
5451.78090,0.07313
5453.70937,0.08318
5455.63784,0.08270
5457.56631,0.06603
5459.49477,0.06634
5461.42324,0.08853
5463.35171,0.10787
5465.28018,0.10366
5467.20865,0.08234
5469.13712,0.06840
5471.06559,0.07916
5472.99405,0.09290
5474.92252,0.07518
5476.85099,0.06307
5478.77946,0.08321
5480.70793,0.09254
5482.63640,0.07971
5484.56487,0.06703
5486.49334,0.07489
5488.42180,0.09221
5490.35027,0.09454
5492.27874,0.09333
5494.20721,0.09511
5496.13568,0.08547
5498.06415,0.07555
5499.99262,0.08576
5501.92108,0.10895
5503.84955,0.11704
5505.77802,0.10424
5507.70649,0.09784
5509.63496,0.10183
5511.56343,0.09270
5513.49190,0.07302
5515.42037,0.06126
5517.34883,0.05720
5519.27730,0.05507
5521.20577,0.06093
5523.13424,0.06248
5525.06271,0.04721
5526.99118,0.03872
5528.91965,0.05211
5530.84811,0.07787
5532.77658,0.09181
5534.70505,0.06574
5536.63352,0.02751
5538.56199,0.03735
5540.49046,0.07312
5542.41893,0.07846
5544.34740,0.07678
5546.27586,0.10177
5548.20433,0.11728
5550.13280,0.11059
5552.06127,0.10725
5553.98974,0.10411
5555.91821,0.10058
5557.84668,0.10726
5559.77514,0.11454
5561.70361,0.11546
5563.63208,0.11723
5565.56055,0.10215
5567.48902,0.06358
5569.41749,0.04160
5571.34596,0.04327
5573.27443,0.05536
5575.20289,0.08047
5577.13136,0.09747
5579.05983,0.08872
5580.98830,0.07470
5582.91677,0.07517
5584.84524,0.07775
5586.77371,0.06859
5588.70217,0.05075
5590.63064,0.03837
5592.55911,0.03646
5594.48758,0.04677
5596.41605,0.06654
5598.34452,0.07970
5600.27299,0.08285
5602.20145,0.07844
5604.12992,0.07739
5606.05839,0.09378
5607.98686,0.10911
5609.91533,0.10613
5611.84380,0.09508
5613.77227,0.07929
5615.70074,0.06467
5617.62920,0.07021
5619.55767,0.08839
5621.48614,0.09264
5623.41461,0.07965
5625.34308,0.06861
5627.27155,0.08135
5629.20002,0.11365
5631.12848,0.11818
5633.05695,0.08598
5634.98542,0.07447
5636.91389,0.09342
5638.84236,0.10885
5640.77083,0.12702
5642.69930,0.14445
5644.62777,0.14525
5646.55623,0.13592
5648.48470,0.11280
5650.41317,0.08575
5652.34164,0.09215
5654.27011,0.12214
5656.19858,0.14464
5658.12705,0.14831
5660.05551,0.12241
5661.98398,0.08339
5663.91245,0.06170
5665.84092,0.06807
5667.76939,0.09333
5669.69786,0.11388
5671.62633,0.12085
5673.55480,0.10295
5675.48326,0.06493
5677.41173,0.05777
5679.34020,0.07654
5681.26867,0.08877
5683.19714,0.11208
5685.12561,0.14720
5687.05408,0.16533
5688.98254,0.15146
5690.91101,0.13187
5692.83948,0.12324
5694.76795,0.11342
5696.69642,0.10965
5698.62489,0.11729
5700.55336,0.13279
5702.48183,0.15215
5704.41029,0.15213
5706.33876,0.11361
5708.26723,0.05974
5710.19570,0.04295
5712.12417,0.06787
5714.05264,0.08220
5715.98111,0.06904
5717.90957,0.06242
5719.83804,0.08143
5721.76651,0.10791
5723.69498,0.11433
5725.62345,0.09848
5727.55192,0.08097
5729.48039,0.07257
5731.40886,0.06135
5733.33732,0.03868
5735.26579,0.02232
5737.19426,0.03860
5739.12273,0.07534
5741.05120,0.09234
5742.97967,0.07221
5744.90814,0.04558
5746.83660,0.04164
5748.76507,0.04737
5750.69354,0.05554
5752.62201,0.06581
5754.55048,0.07152
5756.47895,0.08595
5758.40742,0.10982
5760.33588,0.13438
5762.26435,0.14708
5764.19282,0.12330
5766.12129,0.09070
5768.04976,0.09612
5769.97823,0.10639
5771.90670,0.09246
5773.83517,0.09184
5775.76363,0.11528
5777.69210,0.14176
5779.62057,0.16472
5781.54904,0.16952
5783.47751,0.14733
5785.40598,0.12358
5787.33445,0.11389
5789.26291,0.10649
5791.19138,0.09517
5793.11985,0.08497
5795.04832,0.07669
5796.97679,0.06054
5798.90526,0.04916
5800.83373,0.06408
5802.76220,0.09713
5804.69066,0.13507
5806.61913,0.17020
5808.54760,0.17326
5810.47607,0.12020
5812.40454,0.05358
5814.33301,0.04179
5816.26148,0.06873
5818.18994,0.08142
5820.11841,0.08807
5822.04688,0.10731
5823.97535,0.11148
5825.90382,0.09768
5827.83229,0.10408
5829.76076,0.13402
5831.68923,0.14754
5833.61769,0.13620
5835.54616,0.11500
5837.47463,0.09913
5839.40310,0.10859
5841.33157,0.11580
5843.26004,0.08116
5845.18851,0.03876
5847.11697,0.03174
5849.04544,0.06111
5850.97391,0.09143
5852.90238,0.09695
5854.83085,0.09744
5856.75932,0.09023
5858.68779,0.08039
5860.61626,0.10454
5862.54472,0.12509
5864.47319,0.09360
5866.40166,0.06053
5868.33013,0.07559
5870.25860,0.10749
5872.18707,0.11876
5874.11554,0.10253
5876.04400,0.06643
5877.97247,0.03609
5879.90094,0.02437
5881.82941,0.04203
5883.75788,0.08899
5885.68635,0.12290
5887.61482,0.12477
5889.54329,0.09495
5891.47175,0.04548
5893.40022,0.03903
5895.32869,0.08033
5897.25716,0.09489
5899.18563,0.07288
5901.11410,0.07219
5903.04257,0.10898
5904.97103,0.13712
5906.89950,0.12488
5908.82797,0.09498
5910.75644,0.08692
5912.68491,0.09876
5914.61338,0.09555
5916.54185,0.06746
5918.47032,0.03407
5920.39878,0.03110
5922.32725,0.06989
5924.25572,0.09494
5926.18419,0.08920
5928.11266,0.09759
5930.04113,0.11271
5931.96960,0.11406
5933.89806,0.11870
5935.82653,0.13134
5937.75500,0.14022
5939.68347,0.14555
5941.61194,0.13865
5943.54041,0.11350
5945.46888,0.10191
5947.39734,0.12465
5949.32581,0.15206
5951.25428,0.13544
5953.18275,0.09884
5955.11122,0.09416
5957.03969,0.10031
5958.96816,0.10526
5960.89663,0.12003
5962.82509,0.12272
5964.75356,0.09623
5966.68203,0.06014
5968.61050,0.06066
5970.53897,0.08486
5972.46744,0.10023
5974.39591,0.13939
5976.32437,0.17954
5978.25284,0.16917
5980.18131,0.14630
5982.10978,0.13777
5984.03825,0.10395
5985.96672,0.04972
5987.89519,0.04496
5989.82366,0.08778
5991.75212,0.11339
5993.68059,0.11108
5995.60906,0.10389
5997.53753,0.09716
5999.46600,0.08843
6001.39447,0.09550
6003.32294,0.11891
6005.25140,0.11103
6007.17987,0.06606
6009.10834,0.04726
6011.03681,0.07561
6012.96528,0.11310
6014.89375,0.13542
6016.82222,0.11519
6018.75069,0.06748
6020.67915,0.06755
6022.60762,0.08142
6024.53609,0.05551
6026.46456,0.04405
6028.39303,0.06745
6030.32150,0.07450
6032.24997,0.07831
6034.17843,0.10932
6036.10690,0.10584
6038.03537,0.06812
6039.96384,0.07636
6041.89231,0.09432
6043.82078,0.06767
6045.74925,0.04825
6047.67772,0.06198
6049.60618,0.08163
6051.53465,0.10042
6053.46312,0.11187
6055.39159,0.12267
6057.32006,0.13345
6059.24853,0.11399
6061.17700,0.09826
6063.10546,0.10549
6065.03393,0.07668
6066.96240,0.02657
6068.89087,0.03026
6070.81934,0.08518
6072.74781,0.11218
6074.67628,0.09377
6076.60475,0.07445
6078.53321,0.06351
6080.46168,0.05227
6082.39015,0.05372
6084.31862,0.08615
6086.24709,0.12571
6088.17556,0.12957
6090.10403,0.12055
6092.03249,0.13313
6093.96096,0.13473
6095.88943,0.10940
6097.81790,0.09574
6099.74637,0.08851
6101.67484,0.07765
6103.60331,0.07786
6105.53177,0.06387
6107.46024,0.03979
6109.38871,0.05215
6111.31718,0.10221
6113.24565,0.15663
6115.17412,0.16620
6117.10259,0.13581
6119.03106,0.12577
6120.95952,0.13611
6122.88799,0.15879
6124.81646,0.18975
6126.74493,0.18589
6128.67340,0.15324
6130.60187,0.13960
6132.53034,0.14307
6134.45880,0.13540
6136.38727,0.12112
6138.31574,0.12210
6140.24421,0.12378
6142.17268,0.09993
6144.10115,0.06847
6146.02962,0.05543
6147.95809,0.07814
6149.88655,0.12638
6151.81502,0.13408
6153.74349,0.09617
6155.67196,0.10189
6157.60043,0.15781
6159.52890,0.17730
6161.45737,0.14869
6163.38583,0.13746
6165.31430,0.13996
6167.24277,0.12174
6169.17124,0.10287
6171.09971,0.10640
6173.02818,0.12816
6174.95665,0.16946
6176.88512,0.19974
6178.81358,0.17936
6180.74205,0.13402
6182.67052,0.10959
6184.59899,0.11776
6186.52746,0.10571
6188.45593,0.05472
6190.38440,0.06302
6192.31286,0.13916
6194.24133,0.17541
6196.16980,0.11020
6198.09827,-0.00598
6200.02674,-0.07788
6201.95521,-0.08721
6203.88368,-0.04171
6205.81215,0.03463
6207.74061,0.07110
6209.66908,0.05852
6211.59755,0.03539
6213.52602,0.01243
6215.45449,-0.01088
6217.38296,-0.01800
6219.31143,0.00472
6221.23989,0.03552
6223.16836,0.04055
6225.09683,0.03412
6227.02530,0.06263
6228.95377,0.09901
6230.88224,0.09464
6232.81071,0.06453
6234.73918,0.05260
6236.66764,0.08402
6238.59611,0.13628
6240.52458,0.17535
6242.45305,0.18532
6244.38152,0.15011
6246.30999,0.10462
6248.23846,0.10152
6250.16692,0.11180
6252.09539,0.10938
6254.02386,0.12443
6255.95233,0.11651
6257.88080,0.05810
6259.80927,0.02813
6261.73774,0.04221
6263.66621,0.04224
6265.59467,0.03296
6267.52314,0.04470
6269.45161,0.05241
6271.38008,0.05116
6273.30855,0.07094
6275.23702,0.12172
6277.16549,0.16546
6279.09395,0.16000
6281.02242,0.13255
6282.95089,0.13196
6284.87936,0.13386
6286.80783,0.10158
6288.73630,0.05196
6290.66477,0.01406
6292.59323,0.02396
6294.52170,0.05808
6296.45017,0.04639
6298.37864,0.03447
6300.30711,0.08972
6302.23558,0.12861
6304.16405,0.07327
6306.09252,0.01021
6308.02098,0.01521
6309.94945,0.03775
6311.87792,0.03227
6313.80639,0.03032
6315.73486,0.04527
6317.66333,0.08360
6319.59180,0.13340
6321.52026,0.12518
6323.44873,0.06000
6325.37720,0.02871
6327.30567,0.03904
6329.23414,0.04913
6331.16261,0.06318
6333.09108,0.06673
6335.01955,0.04012
6336.94801,0.03339
6338.87648,0.05958
6340.80495,0.07931
6342.73342,0.10932
6344.66189,0.14049
6346.59036,0.10228
6348.51883,0.01555
6350.44729,-0.01014
6352.37576,0.06182
6354.30423,0.13055
6356.23270,0.14758
6358.16117,0.14033
6360.08964,0.14114
6362.01811,0.18891
6363.94658,0.22904
6365.87504,0.18046
6367.80351,0.10303
6369.73198,0.06530
6371.66045,0.04284
6373.58892,0.02642
6375.51739,0.03519
6377.44586,0.03989
6379.37432,0.00995
6381.30279,-0.02946
6383.23126,-0.00641
6385.15973,0.08965
6387.08820,0.12700
6389.01667,0.09617
6390.94514,0.10845
6392.87361,0.14833
6394.80207,0.13701
6396.73054,0.11304
6398.65901,0.09341
6400.58748,0.05037
6402.51595,0.00866
6404.44442,0.01439
6406.37289,0.08145
6408.30135,0.14810
6410.22982,0.12358
6412.15829,0.05720
6414.08676,0.04930
6416.01523,0.05271
6417.94370,-0.00467
6419.87217,-0.04171
6421.80064,0.01288
6423.72910,0.08576
6425.65757,0.11981
6427.58604,0.12034
6429.51451,0.11609
6431.44298,0.12299
6433.37145,0.11871
6435.29992,0.10376
6437.22838,0.07419
6439.15685,0.02766
6441.08532,0.00516
6443.01379,0.03214
6444.94226,0.07945
6446.87073,0.08887
6448.79920,0.07562
6450.72766,0.05478
6452.65613,0.00152
6454.58460,-0.02239
6456.51307,0.04221
6458.44154,0.12321
6460.37001,0.15757
6462.29848,0.17522
6464.22695,0.18748
6466.15541,0.21279
6468.08388,0.26107
6470.01235,0.23788
6471.94082,0.11935
6473.86929,0.03419
6475.79776,0.06570
6477.72623,0.14859
6479.65469,0.17801
6481.58316,0.15999
6483.51163,0.09669
6485.44010,0.03904
6487.36857,0.06069
6489.29704,0.08901
6491.22551,0.03900
6493.15398,-0.00642
6495.08244,0.03572
6497.01091,0.05771
6498.93938,0.01452
6500.86785,0.04050
6502.79632,0.14577
6504.72479,0.18195
6506.65326,0.11934
6508.58172,0.04627
6510.51019,0.04603
6512.43866,0.08512
6514.36713,0.07492
6516.29560,0.00889
6518.22407,-0.03252
6520.15254,0.00888
6522.08101,0.08846
6524.00947,0.14251
6525.93794,0.15839
6527.86641,0.15099
6529.79488,0.12576
6531.72335,0.08743
6533.65182,0.07691
6535.58029,0.12151
6537.50875,0.16813
6539.43722,0.15852
6541.36569,0.09474
6543.29416,0.04779
6545.22263,0.06131
6547.15110,0.08546
6549.07957,0.10707
6551.00804,0.13292
6552.93650,0.15508
6554.86497,0.15762
6556.79344,0.08894
6558.72191,-0.00093
6560.65038,0.06264
6562.57885,0.28173
6564.50732,0.40075
6566.43578,0.28941
6568.36425,0.12752
6570.29272,0.03535
6572.22119,0.03356
6574.14966,0.10619
6576.07813,0.10256
6578.00660,-0.00553
6579.93507,-0.03757
6581.86353,-0.00860
6583.79200,-0.02606
6585.72047,-0.03013
6587.64894,0.01372
6589.57741,0.08341
6591.50588,0.10024
6593.43435,-0.00052
6595.36281,-0.11753
6597.29128,-0.15865
6599.21975,-0.12813
6601.14822,-0.03818
6603.07669,0.02672
6605.00516,0.06452
6606.93363,0.16218
6608.86210,0.24622
6610.79056,0.19767
6612.71903,0.11255
6614.64750,0.12082
6616.57597,0.15713
6618.50444,0.10461
6620.43291,0.01397
6622.36138,-0.00340
6624.28984,0.04585
6626.21831,0.09117
6628.14678,0.11372
6630.07525,0.12988
6632.00372,0.14052
6633.93219,0.13115
6635.86066,0.14466
6637.78912,0.21823
6639.71759,0.25036
6641.64606,0.21955
6643.57453,0.24632
6645.50300,0.31148
6647.43147,0.25517
6649.35994,0.10531
6651.28841,0.01743
6653.21687,0.03480
6655.14534,0.10162
6657.07381,0.15537
6659.00228,0.16372
6660.93075,0.15332
6662.85922,0.14460
6664.78769,0.13574
6666.71615,0.11583
6668.64462,0.07924
6670.57309,0.07309
6672.50156,0.10838
6674.43003,0.12521
6676.35850,0.10473
6678.28697,0.08691
6680.21544,0.09481
6682.14390,0.11519
6684.07237,0.15884
6686.00084,0.17276
6687.92931,0.07253
6689.85778,-0.03851
6691.78625,-0.05584
6693.71472,-0.05855
6695.64318,-0.07853
6697.57165,-0.06309
6699.50012,-0.00132
6701.42859,0.05067
6703.35706,0.06354
6705.28553,0.06736
6707.21400,0.05965
6709.14247,0.00811
6711.07093,-0.03928
6712.99940,-0.03705
6714.92787,0.00817
6716.85634,0.06520
6718.78481,0.07624
6720.71328,0.03762
6722.64175,-0.00090
6724.57021,-0.02252
6726.49868,-0.02536
6728.42715,-0.04066
6730.35562,-0.07209
6732.28409,-0.04590
6734.21256,0.03480
6736.14103,0.08796
6738.06950,0.10741
6739.99796,0.14010
6741.92643,0.17090
6743.85490,0.14399
6745.78337,0.08199
6747.71184,0.05711
6749.64031,0.05295
6751.56878,0.02392
6753.49724,0.03383
6755.42571,0.05256
6757.35418,-0.02182
6759.28265,-0.12208
6761.21112,-0.09191
6763.13959,0.07100
6765.06806,0.23212
6766.99653,0.28380
6768.92499,0.18504
6770.85346,0.01978
6772.78193,-0.05290
6774.71040,-0.04060
6776.63887,-0.02880
6778.56734,0.00069
6780.49581,0.05850
6782.42427,0.10292
6784.35274,0.10673
6786.28121,0.12000
6788.20968,0.14838
6790.13815,0.07161
6792.06662,-0.08425
6793.99509,-0.13219
6795.92355,-0.09185
6797.85202,-0.03352
6799.78049,0.03679
6801.70896,0.04275
6803.63743,-0.04264
6805.56590,-0.10212
6807.49437,-0.08235
6809.42284,-0.00345
6811.35130,0.07140
6813.27977,0.04319
6815.20824,-0.01701
6817.13671,0.00606
6819.06518,0.06187
6820.99365,0.07177
6822.92212,0.00400
6824.85058,-0.06335
6826.77905,-0.06794
6828.70752,-0.05680
6830.63599,-0.02191
6832.56446,0.01325
6834.49293,-0.03348
6836.42140,-0.13890
6838.34987,-0.12764
6840.27833,0.01183
6842.20680,0.07658
6844.13527,0.03474
6846.06374,0.04051
6847.99221,0.12119
6849.92068,0.15514
6851.84915,0.14796
6853.77761,0.15992
6855.70608,0.13396
6857.63455,0.09767
6859.56302,0.11190
6861.49149,0.13714
6863.41996,0.15671
6865.34843,0.17868
6867.27690,0.21057
6869.20536,0.24236
6871.13383,0.22987
6873.06230,0.14360
6874.99077,0.05578
6876.91924,0.05186
6878.84771,0.11933
6880.77618,0.16627
6882.70464,0.13254
6884.63311,0.10435
6886.56158,0.16697
6888.49005,0.26467
6890.41852,0.30199
6892.34699,0.27865
6894.27546,0.28295
6896.20393,0.35136
6898.13239,0.35443
6900.06086,0.18710
6901.98933,0.08201
6903.91780,0.20629
6905.84627,0.26175
6907.77474,0.07235
6909.70321,-0.08923
6911.63167,-0.08516
6913.56014,-0.01868
6915.48861,0.01281
6917.41708,0.06974
6919.34555,0.12458
6921.27402,0.06040
6923.20249,0.00414
6925.13096,0.03633
6927.05942,0.03463
6928.98789,-0.00537
6930.91636,0.04580
6932.84483,0.13365
6934.77330,0.14481
6936.70177,0.16913
6938.63024,0.24154
6940.55870,0.18479
6942.48717,0.00222
6944.41564,-0.09388
6946.34411,-0.06384
6948.27258,0.03017
6950.20105,0.07750
6952.12952,0.11677
6954.05799,0.17801
6955.98645,0.16553
6957.91492,0.12636
6959.84339,0.10116
6961.77186,0.08760
6963.70033,0.12830
6965.62880,0.16674
6967.55727,0.12441
6969.48573,0.02252
6971.41420,-0.04777
6973.34267,-0.01287
6975.27114,0.06081
6977.19961,0.03624
6979.12808,-0.08973
6981.05655,-0.18261
6982.98501,-0.08969
6984.91348,0.06562
6986.84195,0.12171
6988.77042,0.15815
6990.69889,0.23581
6992.62736,0.33655
6994.55583,0.42684
6996.48430,0.49507
6998.41276,0.48426
7000.34123,0.35385
7002.26970,0.19017
7004.19817,0.08847
7006.12664,0.05227
7008.05511,0.01819
7009.98358,0.01435
7011.91204,0.08973
7013.84051,0.17093
7015.76898,0.18433
7017.69745,0.20916
7019.62592,0.24126
7021.55439,0.15367
7023.48286,-0.02623
7025.41133,-0.12988
7027.33979,-0.10837
7029.26826,-0.01823
7031.19673,0.09276
7033.12520,0.15675
7035.05367,0.12174
7036.98214,0.05832
7038.91061,0.00859
7040.83907,-0.01637
7042.76754,0.03778
7044.69601,0.20298
7046.62448,0.36658
7048.55295,0.32089
7050.48142,0.12785
7052.40989,0.01532
7054.33836,0.00235
7056.26682,-0.07255
7058.19529,-0.19007
7060.12376,-0.15883
7062.05223,-0.04392
7063.98070,0.00007
7065.90917,-0.01235
7067.83764,-0.01018
7069.76610,-0.03243
7071.69457,-0.08072
7073.62304,-0.04275
7075.55151,0.04818
7077.47998,0.09253
7079.40845,0.07835
7081.33692,0.06265
7083.26539,0.08688
7085.19385,0.11735
7087.12232,0.13814
7089.05079,0.10328
7090.97926,0.04598
7092.90773,0.10224
7094.83620,0.22554
7096.76467,0.29116
7098.69313,0.25018
7100.62160,0.08544
7102.55007,-0.04916
7104.47854,0.04245
7106.40701,0.24115
7108.33548,0.22823
7110.26395,0.10584
7112.19242,0.09724
7114.12088,0.17116
7116.04935,0.17413
7117.97782,0.12588
7119.90629,0.14246
7121.83476,0.09395
7123.76323,-0.03697
7125.69170,-0.08777
7127.62016,-0.02142
7129.54863,0.07848
7131.47710,0.13103
7133.40557,0.12464
7135.33404,0.13974
7137.26251,0.21074
7139.19098,0.23395
7141.11944,0.10668
7143.04791,-0.06760
7144.97638,-0.08174
7146.90485,0.09186
7148.83332,0.18875
7150.76179,0.09628
7152.69026,-0.00714
7154.61873,-0.04986
7156.54719,-0.11985
7158.47566,-0.13011
7160.40413,-0.04803
7162.33260,0.05490
7164.26107,0.13593
7166.18954,0.19707
7168.11801,0.20546
7170.04647,0.09104
7171.97494,-0.07781
7173.90341,-0.11061
7175.83188,-0.00488
7177.76035,0.10152
7179.68882,0.17323
7181.61729,0.26214
7183.54576,0.31111
7185.47422,0.24003
7187.40269,0.13113
7189.33116,0.07520
7191.25963,0.03473
7193.18810,-0.04827
7195.11657,-0.09641
7197.04504,-0.09007
7198.97350,0.00368
7200.90197,0.17637
7202.83044,0.33755
7204.75891,0.32478
7206.68738,0.10055
7208.61585,-0.06229
7210.54432,-0.05831
7212.47279,0.03798
7214.40125,0.09912
7216.32972,0.16049
7218.25819,0.24066
7220.18666,0.17228
7222.11513,0.11194
7224.04360,0.14775
7225.97207,0.14031
7227.90053,0.01391
7229.82900,-0.06059
7231.75747,0.10872
7233.68594,0.22723
7235.61441,0.10915
7237.54288,0.01501
7239.47135,0.06324
7241.39982,0.11005
7243.32828,0.10818
7245.25675,0.06438
7247.18522,-0.03308
7249.11369,-0.13666
7251.04216,-0.18074
7252.97063,-0.08067
7254.89910,0.14993
7256.82756,0.35909
7258.75603,0.50163
7260.68450,0.48473
7262.61297,0.34483
7264.54144,0.24771
7266.46991,0.19228
7268.39838,0.17844
7270.32685,0.17307
7272.25531,0.14570
7274.18378,0.18303
7276.11225,0.24874
7278.04072,0.24047
7279.96919,0.10182
7281.89766,-0.05550
7283.82613,-0.08875
7285.75459,-0.03744
7287.68306,0.05423
7289.61153,0.14416
7291.54000,0.12125
7293.46847,-0.01511
7295.39694,-0.11005
7297.32541,-0.04614
7299.25387,0.12283
7301.18234,0.28223
7303.11081,0.30635
7305.03928,0.11875
7306.96775,-0.06627
7308.89622,-0.00069
7310.82469,0.09629
7312.75316,0.05445
7314.68162,0.05649
7316.61009,0.17715
7318.53856,0.27976
7320.46703,0.30881
7322.39550,0.31506
7324.32397,0.30584
7326.25244,0.19998
7328.18090,-0.08908
7330.10937,-0.35835
7332.03784,-0.27035
7333.96631,-0.01163
7335.89478,0.12165
7337.82325,0.09621
7339.75172,0.06821
7341.68019,0.13611
7343.60865,0.11605
7345.53712,0.06565
7347.46559,0.13544
7349.39406,0.24038
7351.32253,0.25281
7353.25100,0.18598
7355.17947,0.14865
7357.10793,0.12619
7359.03640,-0.08653
7360.96487,-0.28361
7362.89334,-0.14056
7364.82181,0.11229
7366.75028,0.19601
7368.67875,0.05476
7370.60722,-0.13689
7372.53568,-0.22689
7374.46415,-0.21608
7376.39262,-0.11313
7378.32109,-0.08166
7380.24956,-0.16742
7382.17803,-0.21170
7384.10650,-0.13420
7386.03496,-0.06060
7387.96343,-0.00000
7389.89190,0.08247
7391.82037,0.16413
7393.74884,0.33158
7395.67731,0.50569
7397.60578,0.41459
7399.53425,0.16827
7401.46271,-0.01273
7403.39118,-0.14392
7405.31965,-0.13569
7407.24812,0.07796
7409.17659,0.22028
7411.10506,0.10793
7413.03353,-0.02704
7414.96199,0.02680
7416.89046,0.17089
7418.81893,0.24626
7420.74740,0.23675
7422.67587,0.20086
7424.60434,0.17499
7426.53281,0.13813
7428.46128,0.01543
7430.38974,-0.10551
7432.31821,0.00229
7434.24668,0.22945
7436.17515,0.34475
7438.10362,0.34751
7440.03209,0.33457
7441.96056,0.19318
7443.88902,-0.02013
7445.81749,-0.08081
7447.74596,-0.03152
7449.67443,-0.01401
7451.60290,-0.03188
7453.53137,0.02896
7455.45984,0.12207
7457.38831,0.19610
7459.31677,0.23815
7461.24524,0.14298
7463.17371,0.01753
7465.10218,0.02033
7467.03065,0.04321
7468.95912,0.07222
7470.88759,0.24589
7472.81605,0.37435
7474.74452,0.22057
7476.67299,-0.02024
7478.60146,-0.02970
7480.52993,0.18153
7482.45840,0.25275
7484.38687,0.08156
7486.31533,-0.06785
7488.24380,-0.01426
7490.17227,0.08241
7492.10074,0.03793
7494.02921,-0.01950
7495.95768,0.01397
7497.88615,0.09000
