399.19301,0.69510
401.12148,-0.63515
403.04995,-0.64989
404.97842,0.03717
406.90689,0.66319
408.83536,0.85194
410.76382,1.11470
412.69229,1.35660
414.62076,2.38146
416.54923,5.21926
418.47770,6.00622
420.40617,2.16015
422.33464,0.52233
424.26311,0.48724
426.19157,0.06141
428.12004,-0.15388
430.04851,0.01993
431.97698,0.33736
433.90545,0.52923
435.83392,0.52536
437.76239,0.37564
439.69085,0.15876
441.61932,-0.00026
443.54779,0.09840
445.47626,0.30761
447.40473,0.27137
449.33320,0.13998
451.26167,0.14401
453.19013,0.18379
455.11860,0.14608
457.04707,0.05568
458.97554,-0.00987
460.90401,-0.01881
462.83248,0.03694
464.76095,0.13527
466.68942,0.14485
468.61788,0.04199
470.54635,-0.06388
472.47482,-0.10843
474.40329,0.05466
476.33176,0.26031
478.26023,0.27170
480.18870,0.20905
482.11716,0.13017
484.04563,0.02604
485.97410,0.00084
487.90257,0.07074
489.83104,0.08089
491.75951,-0.00015
493.68798,-0.05499
495.61645,-0.01917
497.54491,0.05049
499.47338,0.07731
501.40185,0.07189
503.33032,0.07819
505.25879,0.08384
507.18726,0.06356
509.11573,0.02648
511.04419,0.00475
512.97266,0.03841
514.90113,0.09845
516.82960,0.13055
518.75807,0.13904
520.68654,0.13000
522.61501,0.11525
524.54348,0.13427
526.47194,0.18900
528.40041,0.22736
530.32888,0.22872
532.25735,0.19444
534.18582,0.12887
536.11429,0.05783
538.04276,0.02213
539.97122,0.04623
541.89969,0.11059
543.82816,0.14781
545.75663,0.12563
547.68510,0.09476
549.61357,0.10897
551.54204,0.20458
553.47051,0.31553
555.39897,0.27696
557.32744,0.11615
559.25591,0.02673
561.18438,0.05183
563.11285,0.11433
565.04132,0.14131
566.96979,0.13011
568.89825,0.14546
570.82672,0.19664
572.75519,0.22087
574.68366,0.19645
576.61213,0.16246
578.54060,0.13012
580.46907,0.10804
582.39754,0.10902
584.32600,0.10840
586.25447,0.10146
588.18294,0.10267
590.11141,0.11702
592.03988,0.14455
593.96835,0.16207
595.89682,0.14501
597.82528,0.11699
599.75375,0.11771
601.68222,0.13916
603.61069,0.14330
605.53916,0.12184
607.46763,0.10257
609.39610,0.10269
611.32456,0.12339
613.25303,0.14641
615.18150,0.13950
617.10997,0.11516
619.03844,0.09924
620.96691,0.09092
622.89538,0.09494
624.82385,0.10584
626.75231,0.11567
628.68078,0.11066
630.60925,0.04048
632.53772,-0.03881
634.46619,0.01096
636.39466,0.11134
638.32313,0.13900
640.25159,0.12640
642.18006,0.11701
644.10853,0.12663
646.03700,0.14863
647.96547,0.15655
649.89394,0.15038
651.82241,0.13718
653.75088,0.12275
655.67934,0.12132
657.60781,0.13714
659.53628,0.15891
661.46475,0.16246
663.39322,0.14167
665.32169,0.12570
667.25016,0.12817
669.17862,0.14218
671.10709,0.15311
673.03556,0.14697
674.96403,0.14063
676.89250,0.14971
678.82097,0.15466
680.74944,0.14119
682.67791,0.11638
684.60637,0.10820
686.53484,0.12518
688.46331,0.13091
690.39178,0.11737
692.32025,0.11147
694.24872,0.12005
696.17719,0.13591
698.10565,0.15294
700.03412,0.16117
701.96259,0.15541
703.89106,0.14624
705.81953,0.14088
707.74800,0.13673
709.67647,0.13218
711.60494,0.12504
713.53340,0.12526
715.46187,0.13530
717.39034,0.13823
719.31881,0.12905
721.24728,0.12027
723.17575,0.12632
725.10422,0.14094
727.03268,0.15337
728.96115,0.16387
730.88962,0.16776
732.81809,0.16243
734.74656,0.15353
736.67503,0.14870
738.60350,0.14617
740.53197,0.14100
742.46043,0.13926
744.38890,0.14487
746.31737,0.15632
748.24584,0.16683
750.17431,0.16907
752.10278,0.16409
754.03125,0.14967
755.95971,0.12915
757.88818,0.12212
759.81665,0.13114
761.74512,0.13567
763.67359,0.12751
765.60206,0.12117
767.53053,0.12676
769.45900,0.13116
771.38746,0.13179
773.31593,0.14253
775.24440,0.15707
777.17287,0.16240
779.10134,0.16017
781.02981,0.15801
782.95828,0.15477
784.88674,0.14671
786.81521,0.15486
788.74368,0.20176
790.67215,0.23997
792.60062,0.21522
794.52909,0.17531
796.45756,0.17056
798.38602,0.16751
800.31449,0.14801
802.24296,0.13259
804.17143,0.13667
806.09990,0.15254
808.02837,0.15138
809.95684,0.12709
811.88531,0.11661
813.81377,0.13260
815.74224,0.14848
817.67071,0.15237
819.59918,0.15183
821.52765,0.15676
823.45612,0.16473
825.38459,0.16260
827.31305,0.14452
829.24152,0.12698
831.16999,0.13122
833.09846,0.15306
835.02693,0.17048
836.95540,0.16828
838.88387,0.15072
840.81234,0.13613
842.74080,0.14313
844.66927,0.15978
846.59774,0.16367
848.52621,0.16469
850.45468,0.16160
852.38315,0.14602
854.31162,0.13707
856.24008,0.14189
858.16855,0.14813
860.09702,0.15150
862.02549,0.15500
863.95396,0.16154
865.88243,0.16923
867.81090,0.17636
869.73937,0.18174
871.66783,0.17651
873.59630,0.16071
875.52477,0.14886
877.45324,0.14690
879.38171,0.14471
881.31018,0.13802
883.23865,0.13776
885.16711,0.14550
887.09558,0.15066
889.02405,0.14857
890.95252,0.14536
892.88099,0.14859
894.80946,0.15486
896.73793,0.16035
898.66640,0.16403
900.59486,0.16064
902.52333,0.15162
904.45180,0.14672
906.38027,0.14612
908.30874,0.14112
910.23721,0.13542
912.16568,0.13765
914.09414,0.14374
916.02261,0.14633
917.95108,0.14714
919.87955,0.15005
921.80802,0.15166
923.73649,0.14952
925.66496,0.14853
927.59343,0.15248
929.52189,0.15509
931.45036,0.15071
933.37883,0.14537
935.30730,0.14606
937.23577,0.15215
939.16424,0.15365
941.09271,0.14603
943.02117,0.13909
944.94964,0.13880
946.87811,0.14629
948.80658,0.15865
950.73505,0.16233
952.66352,0.15298
954.59199,0.14738
956.52045,0.15151
958.44892,0.15155
960.37739,0.14683
962.30586,0.14058
964.23433,0.13364
966.16280,0.13579
968.09127,0.14151
970.01974,0.13746
971.94820,0.13337
973.87667,0.14097
975.80514,0.15381
977.73361,0.16351
979.66208,0.16453
981.59055,0.15764
983.51902,0.15370
985.44748,0.15989
987.37595,0.17127
989.30442,0.17467
991.23289,0.16821
993.16136,0.16445
995.08983,0.16854
997.01830,0.17389
998.94677,0.17389
1000.87523,0.16968
1002.80370,0.16332
1004.73217,0.15502
1006.66064,0.14836
1008.58911,0.14539
1010.51758,0.14810
1012.44605,0.16047
1014.37451,0.17284
1016.30298,0.17659
1018.23145,0.17886
1020.15992,0.17982
1022.08839,0.17405
1024.01686,0.15853
1025.94533,0.14401
1027.87380,0.14896
1029.80226,0.16350
1031.73073,0.17021
1033.65920,0.17161
1035.58767,0.17330
1037.51614,0.17388
1039.44461,0.16996
1041.37308,0.16628
1043.30154,0.16552
1045.23001,0.16302
1047.15848,0.15939
1049.08695,0.15770
1051.01542,0.15946
1052.94389,0.16356
1054.87236,0.16726
1056.80083,0.16936
1058.72929,0.16795
1060.65776,0.16796
1062.58623,0.17572
1064.51470,0.18086
1066.44317,0.17443
1068.37164,0.17174
1070.30011,0.17747
1072.22857,0.17679
1074.15704,0.17609
1076.08551,0.17786
1078.01398,0.17048
1079.94245,0.16494
1081.87092,0.17125
1083.79939,0.18040
1085.72786,0.18263
1087.65632,0.17832
1089.58479,0.17813
1091.51326,0.18236
1093.44173,0.17437
1095.37020,0.15664
1097.29867,0.15524
1099.22714,0.17265
1101.15560,0.18613
1103.08407,0.18436
1105.01254,0.17877
1106.94101,0.18355
1108.86948,0.19445
1110.79795,0.19902
1112.72642,0.19345
1114.65489,0.18473
1116.58335,0.18004
1118.51182,0.17588
1120.44029,0.16963
1122.36876,0.16870
1124.29723,0.17294
1126.22570,0.17086
1128.15417,0.16387
1130.08263,0.16125
1132.01110,0.16111
1133.93957,0.16047
1135.86804,0.16084
1137.79651,0.16275
1139.72498,0.16335
1141.65345,0.16082
1143.58191,0.16100
1145.51038,0.16954
1147.43885,0.17962
1149.36732,0.18321
1151.29579,0.18442
1153.22426,0.18520
1155.15273,0.18275
1157.08120,0.17871
1159.00966,0.17431
1160.93813,0.17270
1162.86660,0.17745
1164.79507,0.18271
1166.72354,0.18210
1168.65201,0.17629
1170.58048,0.16806
1172.50894,0.16403
1174.43741,0.16827
1176.36588,0.17345
1178.29435,0.17262
1180.22282,0.16813
1182.15129,0.16425
1184.07976,0.16322
1186.00823,0.16717
1187.93669,0.17175
1189.86516,0.17233
1191.79363,0.17466
1193.72210,0.18039
1195.65057,0.18297
1197.57904,0.17964
1199.50751,0.17339
1201.43597,0.16952
1203.36444,0.16942
1205.29291,0.16913
1207.22138,0.16872
1209.14985,0.17085
1211.07832,0.17205
1213.00679,0.17182
1214.93526,0.17397
1216.86372,0.17745
1218.79219,0.17925
1220.72066,0.17765
1222.64913,0.17451
1224.57760,0.17339
1226.50607,0.17266
1228.43454,0.16999
1230.36300,0.16952
1232.29147,0.17331
1234.21994,0.17673
1236.14841,0.17726
1238.07688,0.17498
1240.00535,0.17200
1241.93382,0.17285
1243.86229,0.17805
1245.79075,0.18198
1247.71922,0.18023
1249.64769,0.17546
1251.57616,0.17056
1253.50463,0.16715
1255.43310,0.16861
1257.36157,0.17186
1259.29003,0.17102
1261.21850,0.16944
1263.14697,0.17258
1265.07544,0.17881
1267.00391,0.18371
1268.93238,0.18495
1270.86085,0.18155
1272.78932,0.17542
1274.71778,0.17419
1276.64625,0.17968
1278.57472,0.18392
1280.50319,0.18352
1282.43166,0.18207
1284.36013,0.18137
1286.28860,0.18148
1288.21706,0.18344
1290.14553,0.18466
1292.07400,0.18184
1294.00247,0.17735
1295.93094,0.17425
1297.85941,0.17375
1299.78788,0.17252
1301.71634,0.16475
1303.64481,0.15702
1305.57328,0.16117
1307.50175,0.17328
1309.43022,0.18041
1311.35869,0.17863
1313.28716,0.17357
1315.21563,0.17171
1317.14409,0.17454
1319.07256,0.17770
1321.00103,0.17715
1322.92950,0.17420
1324.85797,0.17089
1326.78644,0.16960
1328.71491,0.17256
1330.64337,0.17495
1332.57184,0.17190
1334.50031,0.16843
1336.42878,0.17192
1338.35725,0.17930
1340.28572,0.17870
1342.21419,0.18186
1344.14266,0.19599
1346.07112,0.19429
1347.99959,0.17794
1349.92806,0.17238
1351.85653,0.17271
1353.78500,0.17168
1355.71347,0.17458
1357.64194,0.18098
1359.57040,0.18722
1361.49887,0.18930
1363.42734,0.18492
1365.35581,0.18139
1367.28428,0.18298
1369.21275,0.18545
1371.14122,0.18778
1373.06969,0.19124
1374.99815,0.19308
1376.92662,0.19108
1378.85509,0.18644
1380.78356,0.18022
1382.71203,0.17605
1384.64050,0.17701
1386.56897,0.18208
1388.49743,0.18782
1390.42590,0.19321
1392.35437,0.20064
1394.28284,0.20601
1396.21131,0.20405
1398.13978,0.20007
1400.06825,0.19579
1401.99672,0.19186
1403.92518,0.19246
1405.85365,0.19555
1407.78212,0.19400
1409.71059,0.19040
1411.63906,0.19111
1413.56753,0.19525
1415.49600,0.19952
1417.42446,0.20317
1419.35293,0.20107
1421.28140,0.19412
1423.20987,0.18991
1425.13834,0.18707
1427.06681,0.18644
1428.99528,0.19040
1430.92375,0.19476
1432.85221,0.19554
1434.78068,0.19651
1436.70915,0.19757
1438.63762,0.19368
1440.56609,0.18940
1442.49456,0.18882
1444.42303,0.19265
1446.35149,0.19960
1448.27996,0.20302
1450.20843,0.19892
1452.13690,0.19679
1454.06537,0.20479
1455.99384,0.22088
1457.92231,0.22314
1459.85077,0.20678
1461.77924,0.20038
1463.70771,0.20499
1465.63618,0.20576
1467.56465,0.19966
1469.49312,0.19947
1471.42159,0.20747
1473.35006,0.21560
1475.27852,0.21355
1477.20699,0.20531
1479.13546,0.19914
1481.06393,0.19680
1482.99240,0.19538
1484.92087,0.19737
1486.84934,0.20371
1488.77780,0.20866
1490.70627,0.20786
1492.63474,0.20591
1494.56321,0.20959
1496.49168,0.21680
1498.42015,0.21399
1500.34862,0.20228
1502.27709,0.19527
1504.20555,0.20154
1506.13402,0.22683
1508.06249,0.23952
1509.99096,0.22452
1511.91943,0.21147
1513.84790,0.20644
1515.77637,0.21102
1517.70483,0.21937
1519.63330,0.22486
1521.56177,0.22538
1523.49024,0.22031
1525.41871,0.21639
1527.34718,0.21041
1529.27565,0.20495
1531.20412,0.20811
1533.13258,0.21451
1535.06105,0.21549
1536.98952,0.22060
1538.91799,0.23530
1540.84646,0.23796
1542.77493,0.22009
1544.70340,0.20792
1546.63186,0.20273
1548.56033,0.20390
1550.48880,0.20794
1552.41727,0.21104
1554.34574,0.21654
1556.27421,0.23031
1558.20268,0.25003
1560.13115,0.23393
1562.05961,0.20980
1563.98808,0.20130
1565.91655,0.20090
1567.84502,0.20606
1569.77349,0.20997
1571.70196,0.20609
1573.63043,0.20368
1575.55889,0.20560
1577.48736,0.20570
1579.41583,0.20179
1581.34430,0.19549
1583.27277,0.18999
1585.20124,0.18954
1587.12971,0.19246
1589.05818,0.19530
1590.98664,0.19703
1592.91511,0.19668
1594.84358,0.19395
1596.77205,0.19080
1598.70052,0.18950
1600.62899,0.18999
1602.55746,0.19093
1604.48592,0.19224
1606.41439,0.19298
1608.34286,0.19183
1610.27133,0.19058
1612.19980,0.19080
1614.12827,0.19343
1616.05674,0.19886
1617.98521,0.20255
1619.91367,0.20472
1621.84214,0.20764
1623.77061,0.20822
1625.69908,0.20826
1627.62755,0.20975
1629.55602,0.20864
1631.48449,0.20712
1633.41295,0.21113
1635.34142,0.22090
1637.26989,0.22195
1639.19836,0.21490
1641.12683,0.21141
1643.05530,0.21432
1644.98377,0.22375
1646.91223,0.23103
1648.84070,0.22786
1650.76917,0.23148
1652.69764,0.24503
1654.62611,0.23649
1656.55458,0.21732
1658.48305,0.20944
1660.41152,0.21183
1662.33998,0.21383
1664.26845,0.21067
1666.19692,0.21377
1668.12539,0.22269
1670.05386,0.22396
1671.98233,0.21952
1673.91080,0.22055
1675.83926,0.21837
1677.76773,0.21388
1679.69620,0.21772
1681.62467,0.22981
1683.55314,0.23994
1685.48161,0.23074
1687.41008,0.22068
1689.33855,0.21689
1691.26701,0.21324
1693.19548,0.21303
1695.12395,0.22055
1697.05242,0.23197
1698.98089,0.23718
1700.90936,0.23016
1702.83783,0.22281
1704.76629,0.22216
1706.69476,0.21844
1708.62323,0.20991
1710.55170,0.20400
1712.48017,0.20471
1714.40864,0.21430
1716.33711,0.22689
1718.26558,0.22206
1720.19404,0.20636
1722.12251,0.19830
1724.05098,0.19788
1725.97945,0.19978
1727.90792,0.20286
1729.83639,0.20917
1731.76486,0.21797
1733.69332,0.22130
1735.62179,0.21050
1737.55026,0.20296
1739.47873,0.20473
1741.40720,0.20734
1743.33567,0.20642
1745.26414,0.20765
1747.19261,0.21296
1749.12107,0.21824
1751.04954,0.21578
1752.97801,0.20688
1754.90648,0.20298
1756.83495,0.20568
1758.76342,0.20790
1760.69189,0.20772
1762.62035,0.20784
1764.54882,0.20889
1766.47729,0.20988
1768.40576,0.21169
1770.33423,0.21662
1772.26270,0.22057
1774.19117,0.21605
1776.11964,0.20783
1778.04810,0.20373
1779.97657,0.20440
1781.90504,0.20351
1783.83351,0.20136
1785.76198,0.20220
1787.69045,0.20482
1789.61892,0.20915
1791.54738,0.21548
1793.47585,0.21801
1795.40432,0.21532
1797.33279,0.21234
1799.26126,0.21090
1801.18973,0.21018
1803.11820,0.20877
1805.04666,0.20649
1806.97513,0.20421
1808.90360,0.20271
1810.83207,0.20053
1812.76054,0.19869
1814.68901,0.19948
1816.61748,0.20130
1818.54595,0.20376
1820.47441,0.20527
1822.40288,0.20457
1824.33135,0.20465
1826.25982,0.20721
1828.18829,0.21211
1830.11676,0.21595
1832.04523,0.21437
1833.97369,0.20981
1835.90216,0.20472
1837.83063,0.20157
1839.75910,0.20257
1841.68757,0.20834
1843.61604,0.21485
1845.54451,0.21344
1847.47298,0.20809
1849.40144,0.20464
1851.32991,0.20232
1853.25838,0.20061
1855.18685,0.19893
1857.11532,0.19794
1859.04379,0.19883
1860.97226,0.19953
1862.90072,0.19874
1864.82919,0.20010
1866.75766,0.20604
1868.68613,0.21115
1870.61460,0.20868
1872.54307,0.20362
1874.47154,0.20060
1876.40001,0.19903
1878.32847,0.19899
1880.25694,0.20124
1882.18541,0.20444
1884.11388,0.20592
1886.04235,0.20412
1887.97082,0.20278
1889.89929,0.20405
1891.82775,0.20446
1893.75622,0.20461
1895.68469,0.20364
1897.61316,0.20002
1899.54163,0.19922
1901.47010,0.20260
1903.39857,0.20476
1905.32704,0.20466
1907.25550,0.20415
1909.18397,0.20230
1911.11244,0.20052
1913.04091,0.20076
1914.96938,0.20208
1916.89785,0.20310
1918.82632,0.20267
1920.75478,0.20294
1922.68325,0.20460
1924.61172,0.20431
1926.54019,0.20294
1928.46866,0.20355
1930.39713,0.20408
1932.32560,0.20280
1934.25407,0.20296
1936.18253,0.20431
1938.11100,0.20414
1940.03947,0.20456
1941.96794,0.20714
1943.89641,0.20852
1945.82488,0.20679
1947.75335,0.20418
1949.68181,0.20259
1951.61028,0.20226
1953.53875,0.20395
1955.46722,0.20691
1957.39569,0.20722
1959.32416,0.20494
1961.25263,0.20390
1963.18110,0.20484
1965.10956,0.20628
1967.03803,0.20595
1968.96650,0.20308
1970.89497,0.20158
1972.82344,0.20199
1974.75191,0.20017
1976.68038,0.19782
1978.60884,0.19961
1980.53731,0.20304
1982.46578,0.20394
1984.39425,0.20413
1986.32272,0.20492
1988.25119,0.20476
1990.17966,0.20490
1992.10812,0.20655
1994.03659,0.20796
1995.96506,0.20792
1997.89353,0.20670
1999.82200,0.20481
2001.75047,0.20422
2003.67894,0.20433
2005.60741,0.20218
2007.53587,0.20094
2009.46434,0.20243
2011.39281,0.20216
2013.32128,0.20080
2015.24975,0.20216
2017.17822,0.20397
2019.10669,0.20264
2021.03515,0.20004
2022.96362,0.19920
2024.89209,0.20034
2026.82056,0.20173
2028.74903,0.20275
2030.67750,0.20367
2032.60597,0.20311
2034.53444,0.20150
2036.46290,0.20103
2038.39137,0.20212
2040.31984,0.20355
2042.24831,0.20323
2044.17678,0.20227
2046.10525,0.20260
2048.03372,0.20288
2049.96218,0.20299
2051.89065,0.20287
2053.81912,0.20206
2055.74759,0.20118
2057.67606,0.20182
2059.60453,0.20369
2061.53300,0.20288
2063.46147,0.20069
2065.38993,0.20092
2067.31840,0.20306
2069.24687,0.20536
2071.17534,0.20449
2073.10381,0.20035
2075.03228,0.19813
2076.96075,0.19933
2078.88921,0.20136
2080.81768,0.20379
2082.74615,0.20595
2084.67462,0.20605
2086.60309,0.20474
2088.53156,0.20322
2090.46003,0.20294
2092.38850,0.20448
2094.31696,0.20534
2096.24543,0.20460
2098.17390,0.20429
2100.10237,0.20441
2102.03084,0.20365
2103.95931,0.20293
2105.88778,0.20372
2107.81624,0.20480
2109.74471,0.20369
2111.67318,0.20124
2113.60165,0.20121
2115.53012,0.20470
2117.45859,0.20761
2119.38706,0.20760
2121.31553,0.20740
2123.24399,0.20884
2125.17246,0.20972
2127.10093,0.20556
2129.02940,0.19914
2130.95787,0.19796
2132.88634,0.19968
2134.81481,0.19912
2136.74327,0.19900
2138.67174,0.20230
2140.60021,0.20606
2142.52868,0.20776
2144.45715,0.20755
2146.38562,0.20593
2148.31409,0.20417
2150.24255,0.20204
2152.17102,0.20013
2154.09949,0.20051
2156.02796,0.20175
2157.95643,0.20091
2159.88490,0.19930
2161.81337,0.20063
2163.74184,0.20397
2165.67030,0.20515
2167.59877,0.20407
2169.52724,0.20411
2171.45571,0.20580
2173.38418,0.20719
2175.31265,0.20827
2177.24112,0.20869
2179.16958,0.20675
2181.09805,0.20342
2183.02652,0.20133
2184.95499,0.20163
2186.88346,0.20462
2188.81193,0.20784
2190.74040,0.20731
2192.66887,0.20487
2194.59733,0.20456
2196.52580,0.20434
2198.45427,0.20297
2200.38274,0.20429
2202.31121,0.20798
2204.23968,0.20941
2206.16815,0.20789
2208.09661,0.20590
2210.02508,0.20435
2211.95355,0.20359
2213.88202,0.20473
2215.81049,0.20579
2217.73896,0.20435
2219.66743,0.20354
2221.59590,0.20516
2223.52436,0.20654
2225.45283,0.20725
2227.38130,0.20790
2229.30977,0.20785
2231.23824,0.20657
2233.16671,0.20514
2235.09518,0.20511
2237.02364,0.20604
2238.95211,0.20717
2240.88058,0.20718
2242.80905,0.20618
2244.73752,0.20598
2246.66599,0.20586
2248.59446,0.20476
2250.52293,0.20347
2252.45139,0.20341
2254.37986,0.20401
2256.30833,0.20377
2258.23680,0.20263
2260.16527,0.20228
2262.09374,0.20387
2264.02221,0.20490
2265.95067,0.20398
2267.87914,0.20116
2269.80761,0.19855
2271.73608,0.20059
2273.66455,0.20446
2275.59302,0.20502
2277.52149,0.20391
2279.44996,0.20331
2281.37842,0.20195
2283.30689,0.20023
2285.23536,0.20186
2287.16383,0.20622
2289.09230,0.20702
2291.02077,0.20329
2292.94924,0.20138
2294.87770,0.20412
2296.80617,0.20690
2298.73464,0.20487
2300.66311,0.20054
2302.59158,0.19944
2304.52005,0.20241
2306.44852,0.20617
2308.37699,0.20757
2310.30545,0.20753
2312.23392,0.20515
2314.16239,0.19887
2316.09086,0.19680
2318.01933,0.20252
2319.94780,0.20637
2321.87627,0.20378
2323.80473,0.19962
2325.73320,0.19682
2327.66167,0.19936
2329.59014,0.20892
2331.51861,0.21418
2333.44708,0.21388
2335.37555,0.22316
2337.30401,0.23057
2339.23248,0.21630
2341.16095,0.19266
2343.08942,0.17996
2345.01789,0.18626
2346.94636,0.19875
2348.87483,0.20493
2350.80330,0.20754
2352.73176,0.21087
2354.66023,0.21402
2356.58870,0.20922
2358.51717,0.19604
2360.44564,0.19306
2362.37411,0.20716
2364.30258,0.21449
2366.23104,0.20799
2368.15951,0.20390
2370.08798,0.20392
2372.01645,0.20561
2373.94492,0.20990
2375.87339,0.21382
2377.80186,0.21303
2379.73033,0.20625
2381.65879,0.19881
2383.58726,0.19717
2385.51573,0.19977
2387.44420,0.20130
2389.37267,0.20062
2391.30114,0.20054
2393.22961,0.20403
2395.15807,0.20930
2397.08654,0.21102
2399.01501,0.20766
2400.94348,0.20293
2402.87195,0.20246
2404.80042,0.20705
2406.72889,0.21036
2408.65736,0.20984
2410.58582,0.20839
2412.51429,0.20675
2414.44276,0.20663
2416.37123,0.20910
2418.29970,0.20993
2420.22817,0.20650
2422.15664,0.20220
2424.08510,0.20057
2426.01357,0.20163
2427.94204,0.20513
2429.87051,0.20923
2431.79898,0.21117
2433.72745,0.21252
2435.65592,0.21375
2437.58439,0.21134
2439.51285,0.20719
2441.44132,0.20710
2443.36979,0.20885
2445.29826,0.20847
2447.22673,0.20818
2449.15520,0.20424
2451.08367,0.19282
2453.01213,0.18754
2454.94060,0.19666
2456.86907,0.20616
2458.79754,0.20725
2460.72601,0.20550
2462.65448,0.20353
2464.58295,0.20096
2466.51142,0.20007
2468.43988,0.20100
2470.36835,0.20260
2472.29682,0.20423
2474.22529,0.20435
2476.15376,0.20387
2478.08223,0.20566
2480.01070,0.20938
2481.93916,0.21217
2483.86763,0.21260
2485.79610,0.21026
2487.72457,0.20704
2489.65304,0.20693
2491.58151,0.20854
2493.50998,0.20845
2495.43844,0.20761
2497.36691,0.20719
2499.29538,0.20688
2501.22385,0.20539
2503.15232,0.20234
2505.08079,0.20100
2507.00926,0.20413
2508.93773,0.20913
2510.86619,0.21109
2512.79466,0.20930
2514.72313,0.20833
2516.65160,0.20986
2518.58007,0.20983
2520.50854,0.20806
2522.43701,0.20833
2524.36547,0.20743
2526.29394,0.20233
2528.22241,0.19980
2530.15088,0.20323
2532.07935,0.20704
2534.00782,0.20826
2535.93629,0.20795
2537.86476,0.20683
2539.79322,0.20505
2541.72169,0.20313
2543.65016,0.20393
2545.57863,0.20726
2547.50710,0.20787
2549.43557,0.20525
2551.36404,0.20329
2553.29250,0.20360
2555.22097,0.20476
2557.14944,0.20501
2559.07791,0.20443
2561.00638,0.20395
2562.93485,0.20433
2564.86332,0.20453
2566.79179,0.20395
2568.72025,0.20454
2570.64872,0.20597
2572.57719,0.20672
2574.50566,0.20863
2576.43413,0.21223
2578.36260,0.21350
2580.29107,0.21123
2582.21953,0.20808
2584.14800,0.20571
2586.07647,0.20495
2588.00494,0.20647
2589.93341,0.20869
2591.86188,0.20860
2593.79035,0.20753
2595.71882,0.20887
2597.64728,0.21024
2599.57575,0.20999
2601.50422,0.21077
2603.43269,0.21216
2605.36116,0.21162
2607.28963,0.20745
2609.21810,0.20333
2611.14656,0.20578
2613.07503,0.21079
2615.00350,0.21225
2616.93197,0.21193
2618.86044,0.21148
2620.78891,0.20901
2622.71738,0.20496
2624.64585,0.20484
2626.57431,0.20903
2628.50278,0.21227
2630.43125,0.21351
2632.35972,0.21331
2634.28819,0.21144
2636.21666,0.21011
2638.14513,0.21075
2640.07359,0.21202
2642.00206,0.21360
2643.93053,0.21452
2645.85900,0.21379
2647.78747,0.21316
2649.71594,0.21263
2651.64441,0.21157
2653.57288,0.21054
2655.50134,0.20915
2657.42981,0.20790
2659.35828,0.20756
2661.28675,0.20860
2663.21522,0.21086
2665.14369,0.21245
2667.07216,0.21301
2669.00062,0.21281
2670.92909,0.21253
2672.85756,0.21331
2674.78603,0.21424
2676.71450,0.21375
2678.64297,0.21149
2680.57144,0.21137
2682.49990,0.21576
2684.42837,0.21973
2686.35684,0.21832
2688.28531,0.21291
2690.21378,0.20895
2692.14225,0.20889
2694.07072,0.21101
2695.99919,0.21279
2697.92765,0.21411
2699.85612,0.21574
2701.78459,0.21644
2703.71306,0.21743
2705.64153,0.21962
2707.57000,0.22111
2709.49847,0.22135
2711.42693,0.22159
2713.35540,0.22294
2715.28387,0.22340
2717.21234,0.22047
2719.14081,0.21620
2721.06928,0.21475
2722.99775,0.21560
2724.92622,0.21600
2726.85468,0.21677
2728.78315,0.21777
2730.71162,0.21903
2732.64009,0.22120
2734.56856,0.22001
2736.49703,0.21559
2738.42550,0.21437
2740.35396,0.21603
2742.28243,0.21680
2744.21090,0.21739
2746.13937,0.21736
2748.06784,0.21593
2749.99631,0.21673
2751.92478,0.21969
2753.85325,0.22044
2755.78171,0.21904
2757.71018,0.21838
2759.63865,0.22024
2761.56712,0.22276
2763.49559,0.22365
2765.42406,0.22523
2767.35253,0.22683
2769.28099,0.22507
2771.20946,0.22240
2773.13793,0.22120
2775.06640,0.22054
2776.99487,0.22117
2778.92334,0.22360
2780.85181,0.22461
2782.78028,0.22228
2784.70874,0.21994
2786.63721,0.21827
2788.56568,0.21803
2790.49415,0.22278
2792.42262,0.22628
2794.35109,0.22255
2796.27956,0.21916
2798.20802,0.22095
2800.13649,0.22376
2802.06496,0.22547
2803.99343,0.22591
2805.92190,0.22493
2807.85037,0.22396
2809.77884,0.22249
2811.70731,0.22020
2813.63577,0.22001
2815.56424,0.22277
2817.49271,0.22591
2819.42118,0.22711
2821.34965,0.22597
2823.27812,0.22367
2825.20659,0.22192
2827.13505,0.22169
2829.06352,0.22177
2830.99199,0.22181
2832.92046,0.22351
2834.84893,0.22506
2836.77740,0.22457
2838.70587,0.22467
2840.63433,0.22584
2842.56280,0.22538
2844.49127,0.22289
2846.41974,0.22087
2848.34821,0.22246
2850.27668,0.22635
2852.20515,0.22755
2854.13362,0.22577
2856.06208,0.22378
2857.99055,0.22395
2859.91902,0.22740
2861.84749,0.23096
2863.77596,0.23090
2865.70443,0.22849
2867.63290,0.22868
2869.56136,0.23159
2871.48983,0.23154
2873.41830,0.22674
2875.34677,0.22212
2877.27524,0.22333
2879.20371,0.22842
2881.13218,0.22992
2883.06065,0.22760
2884.98911,0.22623
2886.91758,0.22510
2888.84605,0.22312
2890.77452,0.22164
2892.70299,0.22049
2894.63146,0.22040
2896.55993,0.22123
2898.48839,0.22186
2900.41686,0.22170
2902.34533,0.21942
2904.27380,0.21531
2906.20227,0.21175
2908.13074,0.21087
2910.05921,0.21361
2911.98768,0.21951
2913.91614,0.22204
2915.84461,0.21712
2917.77308,0.21203
2919.70155,0.21111
2921.63002,0.21265
2923.55849,0.21406
2925.48696,0.21360
2927.41542,0.21097
2929.34389,0.20792
2931.27236,0.21002
2933.20083,0.21609
2935.12930,0.21751
2937.05777,0.21307
2938.98624,0.21170
2940.91471,0.21681
2942.84317,0.22100
2944.77164,0.21985
2946.70011,0.21507
2948.62858,0.21395
2950.55705,0.22145
2952.48552,0.23007
2954.41399,0.23009
2956.34245,0.22096
2958.27092,0.21298
2960.19939,0.21425
2962.12786,0.22017
2964.05633,0.22374
2965.98480,0.22295
2967.91327,0.22336
2969.84174,0.23071
2971.77020,0.23539
2973.69867,0.23071
2975.62714,0.22356
2977.55561,0.21581
2979.48408,0.21068
2981.41255,0.21380
2983.34102,0.22039
2985.26948,0.22365
2987.19795,0.22249
2989.12642,0.22240
2991.05489,0.22820
2992.98336,0.23317
2994.91183,0.23046
2996.84030,0.22494
2998.76877,0.22398
3000.69723,0.22668
3002.62570,0.22761
3004.55417,0.22718
3006.48264,0.22575
3008.41111,0.22231
3010.33958,0.21864
3012.26805,0.20975
3014.19651,0.19159
3016.12498,0.17628
3018.05345,0.18267
3019.98192,0.20812
3021.91039,0.22794
3023.83886,0.23312
3025.76733,0.23151
3027.69579,0.22671
3029.62426,0.22435
3031.55273,0.22893
3033.48120,0.23361
3035.40967,0.23287
3037.33814,0.23090
3039.26661,0.23253
3041.19508,0.23542
3043.12354,0.23453
3045.05201,0.22964
3046.98048,0.22540
3048.90895,0.22600
3050.83742,0.22827
3052.76589,0.22806
3054.69436,0.22385
3056.62282,0.21664
3058.55129,0.21582
3060.47976,0.22197
3062.40823,0.22438
3064.33670,0.22153
3066.26517,0.21958
3068.19364,0.22385
3070.12211,0.23047
3072.05057,0.23191
3073.97904,0.22755
3075.90751,0.22101
3077.83598,0.22004
3079.76445,0.22674
3081.69292,0.23080
3083.62139,0.22541
3085.54985,0.21979
3087.47832,0.22144
3089.40679,0.22420
3091.33526,0.22542
3093.26373,0.22410
3095.19220,0.22292
3097.12067,0.23096
3099.04914,0.24140
3100.97760,0.24138
3102.90607,0.23391
3104.83454,0.22891
3106.76301,0.22698
3108.69148,0.22554
3110.61995,0.22594
3112.54842,0.22707
3114.47688,0.22779
3116.40535,0.22810
3118.33382,0.22779
3120.26229,0.22605
3122.19076,0.22355
3124.11923,0.22488
3126.04770,0.22944
3127.97617,0.23166
3129.90463,0.23194
3131.83310,0.23344
3133.76157,0.23367
3135.69004,0.23206
3137.61851,0.23161
3139.54698,0.23171
3141.47545,0.23049
3143.40391,0.22664
3145.33238,0.22416
3147.26085,0.22738
3149.18932,0.23279
3151.11779,0.23566
3153.04626,0.23332
3154.97473,0.22875
3156.90320,0.22930
3158.83166,0.23508
3160.76013,0.24129
3162.68860,0.24412
3164.61707,0.24218
3166.54554,0.23967
3168.47401,0.24008
3170.40248,0.24263
3172.33094,0.24278
3174.25941,0.23647
3176.18788,0.23077
3178.11635,0.23351
3180.04482,0.23666
3181.97329,0.23210
3183.90176,0.23018
3185.83022,0.23623
3187.75869,0.24120
3189.68716,0.24323
3191.61563,0.24280
3193.54410,0.23867
3195.47257,0.23554
3197.40104,0.23626
3199.32951,0.23651
3201.25797,0.23487
3203.18644,0.23289
3205.11491,0.22835
3207.04338,0.22469
3208.97185,0.22709
3210.90032,0.23246
3212.82879,0.23817
3214.75725,0.24167
3216.68572,0.23925
3218.61419,0.23603
3220.54266,0.23715
3222.47113,0.23832
3224.39960,0.23660
3226.32807,0.23377
3228.25654,0.23224
3230.18500,0.23307
3232.11347,0.23262
3234.04194,0.22778
3235.97041,0.22357
3237.89888,0.22428
3239.82735,0.22629
3241.75582,0.22782
3243.68428,0.23117
3245.61275,0.23578
3247.54122,0.23649
3249.46969,0.23398
3251.39816,0.23444
3253.32663,0.23517
3255.25510,0.23254
3257.18357,0.23265
3259.11203,0.23961
3261.04050,0.24615
3262.96897,0.24423
3264.89744,0.23700
3266.82591,0.23210
3268.75438,0.23058
3270.68285,0.23125
3272.61131,0.23502
3274.53978,0.23729
3276.46825,0.23405
3278.39672,0.22867
3280.32519,0.22634
3282.25366,0.22849
3284.18213,0.22882
3286.11060,0.22548
3288.03906,0.22550
3289.96753,0.22900
3291.89600,0.23022
3293.82447,0.22944
3295.75294,0.23153
3297.68141,0.23648
3299.60988,0.23764
3301.53834,0.23276
3303.46681,0.22820
3305.39528,0.22980
3307.32375,0.23644
3309.25222,0.24019
3311.18069,0.23725
3313.10916,0.23186
3315.03763,0.22842
3316.96609,0.23013
3318.89456,0.23471
3320.82303,0.23698
3322.75150,0.23564
3324.67997,0.23328
3326.60844,0.23265
3328.53691,0.23328
3330.46537,0.23452
3332.39384,0.23439
3334.32231,0.23299
3336.25078,0.23246
3338.17925,0.23212
3340.10772,0.23349
3342.03619,0.23630
3343.96466,0.23863
3345.89312,0.24141
3347.82159,0.24408
3349.75006,0.24610
3351.67853,0.24550
3353.60700,0.24064
3355.53547,0.23772
3357.46394,0.23878
3359.39240,0.23762
3361.32087,0.23672
3363.24934,0.24016
3365.17781,0.24154
3367.10628,0.23994
3369.03475,0.24121
3370.96322,0.24177
3372.89168,0.23632
3374.82015,0.23095
3376.74862,0.23327
3378.67709,0.24094
3380.60556,0.24518
3382.53403,0.24094
3384.46250,0.23409
3386.39097,0.23302
3388.31943,0.23659
3390.24790,0.23963
3392.17637,0.23848
3394.10484,0.23449
3396.03331,0.23378
3397.96178,0.23416
3399.89025,0.22905
3401.81871,0.22345
3403.74718,0.22555
3405.67565,0.23283
3407.60412,0.23739
3409.53259,0.23354
3411.46106,0.22467
3413.38953,0.22021
3415.31800,0.21980
3417.24646,0.22076
3419.17493,0.22414
3421.10340,0.22679
3423.03187,0.23190
3424.96034,0.24163
3426.88881,0.24596
3428.81728,0.24185
3430.74574,0.23640
3432.67421,0.23351
3434.60268,0.23263
3436.53115,0.23393
3438.45962,0.23690
3440.38809,0.23677
3442.31656,0.23081
3444.24503,0.22279
3446.17349,0.21772
3448.10196,0.21621
3450.03043,0.21669
3451.95890,0.21765
3453.88737,0.21733
3455.81584,0.21907
3457.74431,0.22305
3459.67277,0.22337
3461.60124,0.22111
3463.52971,0.21970
3465.45818,0.21939
3467.38665,0.21961
3469.31512,0.21912
3471.24359,0.21840
3473.17206,0.21864
3475.10052,0.22008
3477.02899,0.22149
3478.95746,0.22248
3480.88593,0.22180
3482.81440,0.21537
3484.74287,0.20819
3486.67134,0.20594
3488.59980,0.20371
3490.52827,0.20138
3492.45674,0.20280
3494.38521,0.20605
3496.31368,0.20941
3498.24215,0.21229
3500.17062,0.21187
3502.09909,0.20640
3504.02755,0.19686
3505.95602,0.18697
3507.88449,0.18464
3509.81296,0.19204
3511.74143,0.19859
3513.66990,0.19805
3515.59837,0.19437
3517.52683,0.19267
3519.45530,0.19383
3521.38377,0.19381
3523.31224,0.19169
3525.24071,0.19301
3527.16918,0.20007
3529.09765,0.20393
3531.02611,0.19900
3532.95458,0.19310
3534.88305,0.19041
3536.81152,0.19020
3538.73999,0.19096
3540.66846,0.18799
3542.59693,0.18286
3544.52540,0.18240
3546.45386,0.18492
3548.38233,0.18534
3550.31080,0.18772
3552.23927,0.19202
3554.16774,0.19136
3556.09621,0.18569
3558.02468,0.17788
3559.95314,0.17106
3561.88161,0.17238
3563.81008,0.18533
3565.73855,0.19981
3567.66702,0.19609
3569.59549,0.17867
3571.52396,0.16776
3573.45243,0.16791
3575.38089,0.17360
3577.30936,0.17645
3579.23783,0.17733
3581.16630,0.18112
3583.09477,0.18398
3585.02324,0.18176
3586.95171,0.17861
3588.88017,0.17537
3590.80864,0.17089
3592.73711,0.17023
3594.66558,0.17293
3596.59405,0.17294
3598.52252,0.16984
3600.45099,0.16514
3602.37946,0.16126
3604.30792,0.16317
3606.23639,0.16994
3608.16486,0.17298
3610.09333,0.16868
3612.02180,0.16728
3613.95027,0.17223
3615.87874,0.17730
3617.80720,0.17821
3619.73567,0.17179
3621.66414,0.16284
3623.59261,0.15837
3625.52108,0.15922
3627.44955,0.16709
3629.37802,0.17586
3631.30649,0.16999
3633.23495,0.15754
3635.16342,0.14800
3637.09189,0.14772
3639.02036,0.15612
3640.94883,0.16440
3642.87730,0.16936
3644.80577,0.17583
3646.73423,0.18721
3648.66270,0.19558
3650.59117,0.17889
3652.51964,0.16021
3654.44811,0.15710
3656.37658,0.15900
3658.30505,0.15461
3660.23352,0.14798
3662.16198,0.14388
3664.09045,0.14337
3666.01892,0.14702
3667.94739,0.15470
3669.87586,0.16425
3671.80433,0.16965
3673.73280,0.17299
3675.66126,0.16976
3677.58973,0.15751
3679.51820,0.15213
3681.44667,0.15166
3683.37514,0.15043
3685.30361,0.15221
3687.23208,0.15999
3689.16055,0.16457
3691.08901,0.15532
3693.01748,0.14475
3694.94595,0.13947
3696.87442,0.13647
3698.80289,0.13984
3700.73136,0.15104
3702.65983,0.15514
3704.58829,0.14691
3706.51676,0.14166
3708.44523,0.14948
3710.37370,0.16566
3712.30217,0.16803
3714.23064,0.15889
3716.15911,0.15543
3718.08757,0.15587
3720.01604,0.15549
3721.94451,0.15274
3723.87298,0.14963
3725.80145,0.14961
3727.72992,0.14880
3729.65839,0.14906
3731.58686,0.15443
3733.51532,0.15869
3735.44379,0.15991
3737.37226,0.16066
3739.30073,0.15641
3741.22920,0.15172
3743.15767,0.15442
3745.08614,0.15842
3747.01460,0.15359
3748.94307,0.15399
3750.87154,0.16204
3752.80001,0.16139
3754.72848,0.15702
3756.65695,0.15450
3758.58542,0.14869
3760.51389,0.14225
3762.44235,0.14058
3764.37082,0.14189
3766.29929,0.14698
3768.22776,0.15543
3770.15623,0.15653
3772.08470,0.14331
3774.01317,0.13138
3775.94163,0.12944
3777.87010,0.13406
3779.79857,0.14078
3781.72704,0.14383
3783.65551,0.14301
3785.58398,0.14143
3787.51245,0.14015
3789.44092,0.13926
3791.36938,0.13841
3793.29785,0.13812
3795.22632,0.14007
3797.15479,0.14318
3799.08326,0.14935
3801.01173,0.16252
3802.94020,0.16376
3804.86866,0.15288
3806.79713,0.14772
3808.72560,0.14559
3810.65407,0.14228
3812.58254,0.14261
3814.51101,0.14788
3816.43948,0.15316
3818.36795,0.15654
3820.29641,0.15823
3822.22488,0.15309
3824.15335,0.14842
3826.08182,0.14688
3828.01029,0.14435
3829.93876,0.14085
3831.86723,0.13783
3833.79569,0.13783
3835.72416,0.14570
3837.65263,0.15808
3839.58110,0.15639
3841.50957,0.14166
3843.43804,0.13301
3845.36651,0.13399
3847.29498,0.13471
3849.22344,0.13487
3851.15191,0.14284
3853.08038,0.15374
3855.00885,0.14748
3856.93732,0.13615
3858.86579,0.12926
3860.79426,0.12891
3862.72272,0.13089
3864.65119,0.12955
3866.57966,0.13056
3868.50813,0.13671
3870.43660,0.14249
3872.36507,0.13897
3874.29354,0.13012
3876.22200,0.12557
3878.15047,0.12765
3880.07894,0.13418
3882.00741,0.13709
3883.93588,0.13178
3885.86435,0.12654
3887.79282,0.12776
3889.72129,0.13372
3891.64975,0.14005
3893.57822,0.13645
3895.50669,0.13075
3897.43516,0.13509
3899.36363,0.14316
3901.29210,0.14061
3903.22057,0.13012
3905.14903,0.12440
3907.07750,0.12462
3909.00597,0.12401
3910.93444,0.12154
3912.86291,0.12188
3914.79138,0.12708
3916.71985,0.13445
3918.64832,0.14000
3920.57678,0.13926
3922.50525,0.13587
3924.43372,0.13429
3926.36219,0.12987
3928.29066,0.12375
3930.21913,0.12177
3932.14760,0.12281
3934.07606,0.12306
3936.00453,0.12075
3937.93300,0.11767
3939.86147,0.11913
3941.78994,0.12488
3943.71841,0.12915
3945.64688,0.13203
3947.57535,0.13504
3949.50381,0.13342
3951.43228,0.12815
3953.36075,0.12504
3955.28922,0.12120
3957.21769,0.11681
3959.14616,0.11772
3961.07463,0.12126
3963.00309,0.12212
3964.93156,0.12175
3966.86003,0.12053
3968.78850,0.11618
3970.71697,0.11368
3972.64544,0.11599
3974.57391,0.11758
3976.50238,0.11740
3978.43084,0.11743
3980.35931,0.11788
3982.28778,0.11964
3984.21625,0.12114
3986.14472,0.12012
3988.07319,0.11880
3990.00166,0.11910
3991.93012,0.11897
3993.85859,0.11568
3995.78706,0.11061
3997.71553,0.11032
3999.64400,0.11645
4001.57247,0.12267
4003.50094,0.12358
4005.42941,0.11913
4007.35787,0.11508
4009.28634,0.11430
4011.21481,0.10940
4013.14328,0.10162
4015.07175,0.10257
4017.00022,0.11099
4018.92869,0.11791
4020.85715,0.11883
4022.78562,0.11318
4024.71409,0.10660
4026.64256,0.10551
4028.57103,0.10928
4030.49950,0.11404
4032.42797,0.11733
4034.35644,0.11794
4036.28490,0.11660
4038.21337,0.11431
4040.14184,0.11068
4042.07031,0.10723
4043.99878,0.10862
4045.92725,0.11419
4047.85572,0.11648
4049.78418,0.11401
4051.71265,0.11250
4053.64112,0.11431
4055.56959,0.11380
4057.49806,0.10851
4059.42653,0.10580
4061.35500,0.10986
4063.28346,0.11636
4065.21193,0.11943
4067.14040,0.11623
4069.06887,0.10967
4070.99734,0.10595
4072.92581,0.10525
4074.85428,0.10495
4076.78275,0.10461
4078.71121,0.10297
4080.63968,0.10249
4082.56815,0.10442
4084.49662,0.10564
4086.42509,0.10370
4088.35356,0.09838
4090.28203,0.09320
4092.21049,0.09059
4094.13896,0.09360
4096.06743,0.10364
4097.99590,0.11216
4099.92437,0.11073
4101.85284,0.10325
4103.78131,0.09952
4105.70978,0.10241
4107.63824,0.10612
4109.56671,0.10398
4111.49518,0.09969
4113.42365,0.10079
4115.35212,0.10261
4117.28059,0.09989
4119.20906,0.09941
4121.13752,0.10389
4123.06599,0.10558
4124.99446,0.10005
4126.92293,0.09110
4128.85140,0.08738
4130.77987,0.09020
4132.70834,0.09187
4134.63681,0.09302
4136.56527,0.09688
4138.49374,0.09840
4140.42221,0.09770
4142.35068,0.09833
4144.27915,0.09723
4146.20762,0.09442
4148.13609,0.09393
4150.06455,0.09465
4151.99302,0.09032
4153.92149,0.08095
4155.84996,0.07534
4157.77843,0.07653
4159.70690,0.08103
4161.63537,0.08557
4163.56384,0.08733
4165.49230,0.08711
4167.42077,0.08865
4169.34924,0.09036
4171.27771,0.09106
4173.20618,0.09224
4175.13465,0.09021
4177.06312,0.08741
4178.99158,0.08723
4180.92005,0.08464
4182.84852,0.08211
4184.77699,0.08267
4186.70546,0.08086
4188.63393,0.08391
4190.56240,0.09814
4192.49087,0.10275
4194.41933,0.08878
4196.34780,0.07555
4198.27627,0.07603
4200.20474,0.08500
4202.13321,0.09173
4204.06168,0.09432
4205.99015,0.09477
4207.91861,0.09397
4209.84708,0.09412
4211.77555,0.09480
4213.70402,0.09158
4215.63249,0.08182
4217.56096,0.07374
4219.48943,0.07728
4221.41789,0.08608
4223.34636,0.08736
4225.27483,0.08251
4227.20330,0.07731
4229.13177,0.07352
4231.06024,0.07495
4232.98871,0.07775
4234.91718,0.07540
4236.84564,0.07334
4238.77411,0.07685
4240.70258,0.08184
4242.63105,0.08502
4244.55952,0.08585
4246.48799,0.08195
4248.41646,0.07461
4250.34492,0.07043
4252.27339,0.07198
4254.20186,0.07492
4256.13033,0.07544
4258.05880,0.07433
4259.98727,0.07311
4261.91574,0.06981
4263.84421,0.06246
4265.77267,0.05791
4267.70114,0.06262
4269.62961,0.07001
4271.55808,0.07532
4273.48655,0.07943
4275.41502,0.07777
4277.34349,0.06989
4279.27195,0.06334
4281.20042,0.06119
4283.12889,0.05995
4285.05736,0.05887
4286.98583,0.06237
4288.91430,0.07026
4290.84277,0.07309
4292.77124,0.06520
4294.69970,0.05526
4296.62817,0.05487
4298.55664,0.06147
4300.48511,0.06388
4302.41358,0.06273
4304.34205,0.06266
4306.27052,0.06123
4308.19898,0.05753
4310.12745,0.05562
4312.05592,0.06126
4313.98439,0.06881
4315.91286,0.06828
4317.84133,0.06251
4319.76980,0.05691
4321.69827,0.05606
4323.62673,0.06399
4325.55520,0.07025
4327.48367,0.06304
4329.41214,0.05537
4331.34061,0.05717
4333.26908,0.05719
4335.19755,0.05379
4337.12601,0.05398
4339.05448,0.05756
4340.98295,0.06067
4342.91142,0.05939
4344.83989,0.05370
4346.76836,0.05146
4348.69683,0.06113
4350.62530,0.07395
4352.55376,0.07436
4354.48223,0.06695
4356.41070,0.06392
4358.33917,0.06185
4360.26764,0.05563
4362.19611,0.05018
4364.12458,0.04815
4366.05304,0.04698
4367.98151,0.04519
4369.90998,0.04429
4371.83845,0.04445
4373.76692,0.04274
4375.69539,0.03975
4377.62386,0.04023
4379.55232,0.04474
4381.48079,0.04676
4383.40926,0.04283
4385.33773,0.03890
4387.26620,0.03873
4389.19467,0.03924
4391.12314,0.03943
4393.05161,0.04001
4394.98007,0.04110
4396.90854,0.04405
4398.83701,0.04882
4400.76548,0.05297
4402.69395,0.05074
4404.62242,0.04448
4406.55089,0.04323
4408.47935,0.04200
4410.40782,0.03564
4412.33629,0.03073
4414.26476,0.03081
4416.19323,0.03444
4418.12170,0.03946
4420.05017,0.03882
4421.97864,0.02984
4423.90710,0.02465
4425.83557,0.02781
4427.76404,0.03277
4429.69251,0.03915
4431.62098,0.04384
4433.54945,0.04056
4435.47792,0.03374
4437.40638,0.03011
4439.33485,0.02836
4441.26332,0.02825
4443.19179,0.03107
4445.12026,0.03481
4447.04873,0.03336
4448.97720,0.02432
4450.90567,0.01990
4452.83413,0.02540
4454.76260,0.02758
4456.69107,0.02358
4458.61954,0.01910
4460.54801,0.01265
4462.47648,0.00852
4464.40495,0.01153
4466.33341,0.02216
4468.26188,0.04056
4470.19035,0.05332
4472.11882,0.04922
4474.04729,0.03498
4475.97576,0.02511
4477.90423,0.02854
4479.83270,0.03272
4481.76116,0.02344
4483.68963,0.01028
4485.61810,0.01026
4487.54657,0.02102
4489.47504,0.02465
4491.40351,0.01824
4493.33198,0.01245
4495.26044,0.01113
4497.18891,0.01734
4499.11738,0.02619
4501.04585,0.02805
4502.97432,0.02707
4504.90279,0.02510
4506.83126,0.01761
4508.75973,0.00963
4510.68819,0.01177
4512.61666,0.02244
4514.54513,0.02289
4516.47360,0.00741
4518.40207,0.00261
4520.33054,0.02061
4522.25901,0.03605
4524.18747,0.03257
4526.11594,0.02215
4528.04441,0.02052
4529.97288,0.02467
4531.90135,0.02557
4533.82982,0.02390
4535.75829,0.01883
4537.68676,0.01032
4539.61522,0.00553
4541.54369,0.01308
4543.47216,0.02823
4545.40063,0.03383
4547.32910,0.02601
4549.25757,0.01765
4551.18604,0.01515
4553.11450,0.01489
4555.04297,0.01317
4556.97144,0.01036
4558.89991,0.01404
4560.82838,0.02240
4562.75685,0.02458
4564.68532,0.02140
4566.61378,0.02000
4568.54225,0.02187
4570.47072,0.02103
4572.39919,0.01770
4574.32766,0.01846
4576.25613,0.01991
4578.18460,0.02051
4580.11307,0.02297
4582.04153,0.02000
4583.97000,0.00819
4585.89847,-0.00411
4587.82694,-0.00960
4589.75541,-0.00645
4591.68388,0.00097
4593.61235,0.00447
4595.54081,0.00498
4597.46928,0.00852
4599.39775,0.01281
4601.32622,0.01515
4603.25469,0.01412
4605.18316,0.00790
4607.11163,-0.00037
4609.04010,-0.00581
4610.96856,-0.00439
4612.89703,0.00198
4614.82550,0.00554
4616.75397,0.00206
4618.68244,-0.00024
4620.61091,0.00761
4622.53938,0.01869
4624.46784,0.02196
4626.39631,0.01361
4628.32478,0.00077
4630.25325,-0.00653
4632.18172,-0.00369
4634.11019,0.00346
4636.03866,0.00298
4637.96713,-0.00025
4639.89559,-0.00090
4641.82406,-0.00518
4643.75253,-0.00711
4645.68100,0.00113
4647.60947,0.01304
4649.53794,0.02140
4651.46641,0.02530
4653.39487,0.02428
4655.32334,0.01755
4657.25181,0.00731
4659.18028,0.00252
4661.10875,0.00822
4663.03722,0.01036
4664.96569,0.00025
4666.89416,-0.00663
4668.82262,-0.00395
4670.75109,-0.00260
4672.67956,-0.00561
4674.60803,-0.00499
4676.53650,0.00307
4678.46497,0.00692
4680.39344,0.00036
4682.32190,-0.00328
4684.25037,-0.00120
4686.17884,-0.00065
4688.10731,0.00305
4690.03578,0.00858
4691.96425,0.00782
4693.89272,0.00519
4695.82119,0.00890
4697.74965,0.01719
4699.67812,0.02098
4701.60659,0.01592
4703.53506,0.01060
4705.46353,0.01656
4707.39200,0.02587
4709.32047,0.02266
4711.24893,0.01071
4713.17740,-0.00231
4715.10587,-0.01413
4717.03434,-0.01297
4718.96281,0.00304
4720.89128,0.01844
4722.81975,0.02006
4724.74821,0.00654
4726.67668,-0.00178
4728.60515,0.00800
4730.53362,0.01847
4732.46209,0.01721
4734.39056,0.01093
4736.31903,0.01034
4738.24750,0.01107
4740.17596,0.00417
4742.10443,-0.00507
4744.03290,-0.00963
4745.96137,-0.00731
4747.88984,-0.00058
4749.81831,0.00693
4751.74678,0.01578
4753.67524,0.01891
4755.60371,0.00561
4757.53218,-0.00864
4759.46065,0.00009
4761.38912,0.02200
4763.31759,0.02998
4765.24606,0.01981
4767.17453,0.00698
4769.10299,0.00333
4771.03146,0.01154
4772.95993,0.02102
4774.88840,0.02019
4776.81687,0.01747
4778.74534,0.01535
4780.67381,-0.00141
4782.60227,-0.02148
4784.53074,-0.01955
4786.45921,-0.00305
4788.38768,0.01502
4790.31615,0.03246
4792.24462,0.03969
4794.17309,0.03065
4796.10156,0.00741
4798.03002,-0.01728
4799.95849,-0.02313
4801.88696,-0.01201
4803.81543,-0.00120
4805.74390,0.00113
4807.67237,0.00049
4809.60084,0.00469
4811.52930,0.00142
4813.45777,-0.01066
4815.38624,-0.01104
4817.31471,0.00161
4819.24318,0.01897
4821.17165,0.03555
4823.10012,0.03684
4825.02859,0.01649
4826.95705,-0.00586
4828.88552,-0.01318
4830.81399,-0.00612
4832.74246,0.00837
4834.67093,0.01522
4836.59940,0.00960
4838.52787,0.00027
4840.45633,-0.00855
4842.38480,-0.01385
4844.31327,-0.00943
4846.24174,-0.00258
4848.17021,-0.00611
4850.09868,-0.00552
4852.02715,0.00888
4853.95562,0.02127
4855.88408,0.02256
4857.81255,0.01321
4859.74102,0.00113
4861.66949,-0.00130
4863.59796,0.00502
4865.52643,0.01059
4867.45490,0.01055
4869.38336,0.00602
4871.31183,0.00456
4873.24030,0.00779
4875.16877,0.00734
4877.09724,0.00337
4879.02571,0.00214
4880.95418,0.00760
4882.88265,0.01893
4884.81111,0.03078
4886.73958,0.03816
4888.66805,0.03509
4890.59652,0.02166
4892.52499,0.00832
4894.45346,0.00759
4896.38193,0.02218
4898.31039,0.03575
4900.23886,0.03352
4902.16733,0.02448
4904.09580,0.01827
4906.02427,0.01175
4907.95274,0.01050
4909.88121,0.01925
4911.80967,0.02420
4913.73814,0.02021
4915.66661,0.02026
4917.59508,0.02255
4919.52355,0.01208
4921.45202,0.00022
4923.38049,0.00289
4925.30896,0.00990
4927.23742,0.01398
4929.16589,0.01231
4931.09436,0.00629
4933.02283,0.00617
4934.95130,0.00817
4936.87977,0.00671
4938.80824,0.00403
4940.73670,0.00416
4942.66517,0.01171
4944.59364,0.01798
4946.52211,0.01670
4948.45058,0.01393
4950.37905,0.01019
4952.30752,0.00880
4954.23599,0.01797
4956.16445,0.03080
4958.09292,0.02826
4960.02139,0.00746
4961.94986,-0.01462
4963.87833,-0.02621
4965.80680,-0.02726
4967.73527,-0.01941
4969.66373,-0.00797
4971.59220,-0.00419
4973.52067,-0.00324
4975.44914,0.00267
4977.37761,-0.00184
4979.30608,-0.01295
4981.23455,-0.00897
4983.16302,0.00096
4985.09148,0.00281
4987.01995,0.00706
4988.94842,0.02030
4990.87689,0.03300
4992.80536,0.03276
4994.73383,0.01976
4996.66230,0.01611
4998.59076,0.02959
5000.51923,0.03417
5002.44770,0.02561
5004.37617,0.02946
5006.30464,0.03997
5008.23311,0.03255
5010.16158,0.01089
5012.09005,-0.00483
5014.01851,-0.00150
5015.94698,0.01492
5017.87545,0.02634
5019.80392,0.02358
5021.73239,0.01545
5023.66086,0.00854
5025.58933,-0.00268
5027.51779,-0.01008
5029.44626,-0.01122
5031.37473,-0.01896
5033.30320,-0.02112
5035.23167,-0.00366
5037.16014,0.02168
5039.08861,0.03789
5041.01708,0.03641
5042.94554,0.03039
5044.87401,0.02984
5046.80248,0.02822
5048.73095,0.02516
5050.65942,0.02113
5052.58789,0.02233
5054.51636,0.03164
5056.44482,0.03112
5058.37329,0.01618
5060.30176,0.00941
5062.23023,0.02254
5064.15870,0.03559
5066.08717,0.03388
5068.01564,0.02781
5069.94410,0.02227
5071.87257,0.01459
5073.80104,0.01148
5075.72951,0.01671
5077.65798,0.02421
5079.58645,0.03040
5081.51492,0.03645
5083.44339,0.03922
5085.37185,0.03509
5087.30032,0.03232
5089.22879,0.03446
5091.15726,0.03324
5093.08573,0.03057
5095.01420,0.03244
5096.94267,0.03761
5098.87113,0.03884
5100.79960,0.03614
5102.72807,0.03453
5104.65654,0.02988
5106.58501,0.02732
5108.51348,0.02798
5110.44195,0.02226
5112.37042,0.02200
5114.29888,0.03581
5116.22735,0.04073
5118.15582,0.02186
5120.08429,0.00206
5122.01276,0.00522
5123.94123,0.02056
5125.86970,0.03384
5127.79816,0.04134
5129.72663,0.03220
5131.65510,0.01794
5133.58357,0.02593
5135.51204,0.04781
5137.44051,0.06011
5139.36898,0.05498
5141.29745,0.03359
5143.22591,0.01276
5145.15438,0.01045
5147.08285,0.01827
5149.01132,0.02200
5150.93979,0.02474
5152.86826,0.03122
5154.79673,0.03819
5156.72519,0.03963
5158.65366,0.03243
5160.58213,0.01920
5162.51060,0.00643
5164.43907,0.00392
5166.36754,0.01106
5168.29601,0.01586
5170.22448,0.01543
5172.15294,0.02383
5174.08141,0.04492
5176.00988,0.05643
5177.93835,0.05259
5179.86682,0.04280
5181.79529,0.02752
5183.72376,0.02250
5185.65222,0.03106
5187.58069,0.03788
5189.50916,0.04538
5191.43763,0.05025
5193.36610,0.04637
5195.29457,0.04239
5197.22304,0.04140
5199.15151,0.04140
5201.07997,0.04787
5203.00844,0.05549
5204.93691,0.05049
5206.86538,0.03988
5208.79385,0.03856
5210.72232,0.04308
5212.65079,0.04588
5214.57925,0.04305
5216.50772,0.03649
5218.43619,0.03127
5220.36466,0.02949
5222.29313,0.03856
5224.22160,0.05618
5226.15007,0.05859
5228.07854,0.05005
5230.00700,0.04773
5231.93547,0.04734
5233.86394,0.05037
5235.79241,0.04784
5237.72088,0.03999
5239.64935,0.04590
5241.57782,0.05577
5243.50628,0.05882
5245.43475,0.06295
5247.36322,0.06615
5249.29169,0.07507
5251.22016,0.09469
5253.14863,0.10514
5255.07710,0.09164
5257.00556,0.06859
5258.93403,0.06435
5260.86250,0.07884
5262.79097,0.08418
5264.71944,0.06328
5266.64791,0.03006
5268.57638,0.01523
5270.50485,0.03201
5272.43331,0.05585
5274.36178,0.05947
5276.29025,0.05088
5278.21872,0.05503
5280.14719,0.06660
5282.07566,0.06280
5284.00413,0.04737
5285.93259,0.03668
5287.86106,0.04235
5289.78953,0.05468
5291.71800,0.04946
5293.64647,0.03063
5295.57494,0.02090
5297.50341,0.03306
5299.43188,0.05172
5301.36034,0.05157
5303.28881,0.03385
5305.21728,0.02364
5307.14575,0.03996
5309.07422,0.05826
5311.00269,0.05797
5312.93116,0.05749
5314.85962,0.05966
5316.78809,0.05664
5318.71656,0.04696
5320.64503,0.03746
5322.57350,0.04357
5324.50197,0.06288
5326.43044,0.07352
5328.35891,0.06357
5330.28737,0.04722
5332.21584,0.04305
5334.14431,0.04848
5336.07278,0.05336
5338.00125,0.07230
5339.92972,0.10071
5341.85819,0.09674
5343.78665,0.06415
5345.71512,0.04887
5347.64359,0.06266
5349.57206,0.07717
5351.50053,0.07293
5353.42900,0.05905
5355.35747,0.05083
5357.28594,0.04087
5359.21440,0.03697
5361.14287,0.04553
5363.07134,0.05376
5364.99981,0.07081
5366.92828,0.09513
5368.85675,0.09964
5370.78522,0.08216
5372.71368,0.05510
5374.64215,0.04392
5376.57062,0.06697
5378.49909,0.08537
5380.42756,0.07808
5382.35603,0.05604
5384.28450,0.03616
5386.21297,0.04449
5388.14143,0.06459
5390.06990,0.07085
5391.99837,0.06722
5393.92684,0.05862
5395.85531,0.05240
5397.78378,0.05339
5399.71225,0.05433
5401.64071,0.05323
5403.56918,0.05920
5405.49765,0.06188
5407.42612,0.05812
5409.35459,0.07399
5411.28306,0.09045
5413.21153,0.07310
5415.13999,0.05527
5417.06846,0.05728
5418.99693,0.05847
5420.92540,0.05756
5422.85387,0.06920
5424.78234,0.08937
5426.71081,0.10902
5428.63928,0.11908
5430.56774,0.10163
5432.49621,0.07046
5434.42468,0.05974
5436.35315,0.07736
5438.28162,0.09516
5440.21009,0.10241
5442.13856,0.10860
5444.06702,0.10615
5445.99549,0.08689
5447.92396,0.06386
5449.85243,0.05218
5451.78090,0.05394
5453.70937,0.05597
5455.63784,0.05464
5457.56631,0.06399
5459.49477,0.09145
5461.42324,0.12371
5463.35171,0.12182
5465.28018,0.08881
5467.20865,0.08122
5469.13712,0.09731
5471.06559,0.09522
5472.99405,0.07897
5474.92252,0.06360
5476.85099,0.05721
5478.77946,0.06369
5480.70793,0.07034
5482.63640,0.05780
5484.56487,0.03903
5486.49334,0.04912
5488.42180,0.06788
5490.35027,0.06578
5492.27874,0.07439
5494.20721,0.09583
5496.13568,0.09188
5498.06415,0.07510
5499.99262,0.07596
5501.92108,0.08727
5503.84955,0.09613
5505.77802,0.10759
5507.70649,0.11275
5509.63496,0.08852
5511.56343,0.03605
5513.49190,0.00195
5515.42037,0.01163
5517.34883,0.03582
5519.27730,0.06707
5521.20577,0.10544
5523.13424,0.12331
5525.06271,0.11860
5526.99118,0.11088
5528.91965,0.08838
5530.84811,0.05337
5532.77658,0.03675
5534.70505,0.04373
5536.63352,0.06201
5538.56199,0.08687
5540.49046,0.10878
5542.41893,0.10748
5544.34740,0.10116
5546.27586,0.11518
5548.20433,0.12255
5550.13280,0.10955
5552.06127,0.09663
5553.98974,0.09182
5555.91821,0.09041
5557.84668,0.09654
5559.77514,0.11872
5561.70361,0.15696
5563.63208,0.18014
5565.56055,0.15366
5567.48902,0.10691
5569.41749,0.07742
5571.34596,0.05638
5573.27443,0.04466
5575.20289,0.05236
5577.13136,0.06304
5579.05983,0.05606
5580.98830,0.02810
5582.91677,0.01716
5584.84524,0.05531
5586.77371,0.10038
5588.70217,0.10736
5590.63064,0.08564
5592.55911,0.06135
5594.48758,0.04803
5596.41605,0.05358
5598.34452,0.07902
5600.27299,0.10075
5602.20145,0.10326
5604.12992,0.09569
5606.05839,0.08207
5607.98686,0.07882
5609.91533,0.10434
5611.84380,0.13620
5613.77227,0.13849
5615.70074,0.10967
5617.62920,0.08256
5619.55767,0.09119
5621.48614,0.11421
5623.41461,0.11600
5625.34308,0.10953
5627.27155,0.10661
5629.20002,0.09756
5631.12848,0.08840
5633.05695,0.08457
5634.98542,0.07282
5636.91389,0.05396
5638.84236,0.03983
5640.77083,0.03333
5642.69930,0.04100
5644.62777,0.05800
5646.55623,0.06823
5648.48470,0.07625
5650.41317,0.09228
5652.34164,0.09852
5654.27011,0.08345
5656.19858,0.07369
5658.12705,0.09295
5660.05551,0.11564
5661.98398,0.10422
5663.91245,0.08208
5665.84092,0.08336
5667.76939,0.09258
5669.69786,0.09489
5671.62633,0.08891
5673.55480,0.08387
5675.48326,0.10113
5677.41173,0.11669
5679.34020,0.11443
5681.26867,0.12862
5683.19714,0.14890
5685.12561,0.14363
5687.05408,0.11710
5688.98254,0.08711
5690.91101,0.06175
5692.83948,0.05315
5694.76795,0.05968
5696.69642,0.06434
5698.62489,0.06780
5700.55336,0.05556
5702.48183,0.03311
5704.41029,0.03815
5706.33876,0.07001
5708.26723,0.08360
5710.19570,0.06255
5712.12417,0.06456
5714.05264,0.10187
5715.98111,0.11823
5717.90957,0.11282
5719.83804,0.11117
5721.76651,0.11424
5723.69498,0.11679
5725.62345,0.10259
5727.55192,0.06498
5729.48039,0.04619
5731.40886,0.07411
5733.33732,0.11055
5735.26579,0.11538
5737.19426,0.08845
5739.12273,0.07340
5741.05120,0.10423
5742.97967,0.13189
5744.90814,0.12403
5746.83660,0.11023
5748.76507,0.10105
5750.69354,0.10691
5752.62201,0.11309
5754.55048,0.08952
5756.47895,0.06371
5758.40742,0.06356
5760.33588,0.07214
5762.26435,0.05982
5764.19282,0.05886
5766.12129,0.10310
5768.04976,0.12996
5769.97823,0.10167
5771.90670,0.05915
5773.83517,0.02738
5775.76363,-0.00871
5777.69210,-0.02967
5779.62057,0.00961
5781.54904,0.08020
5783.47751,0.12246
5785.40598,0.13403
5787.33445,0.13447
5789.26291,0.13974
5791.19138,0.14247
5793.11985,0.11673
5795.04832,0.09058
5796.97679,0.09557
5798.90526,0.08871
5800.83373,0.06856
5802.76220,0.09445
5804.69066,0.13970
5806.61913,0.13727
5808.54760,0.11281
5810.47607,0.10124
5812.40454,0.08405
5814.33301,0.06246
5816.26148,0.06963
5818.18994,0.11231
5820.11841,0.14262
5822.04688,0.11860
5823.97535,0.07553
5825.90382,0.06222
5827.83229,0.08213
5829.76076,0.09185
5831.68923,0.06616
5833.61769,0.05617
5835.54616,0.09317
5837.47463,0.13137
5839.40310,0.12243
5841.33157,0.07355
5843.26004,0.03423
5845.18851,0.03030
5847.11697,0.04482
5849.04544,0.06697
5850.97391,0.10118
5852.90238,0.13357
5854.83085,0.13874
5856.75932,0.09690
5858.68779,0.03642
5860.61626,0.02344
5862.54472,0.06635
5864.47319,0.11146
5866.40166,0.12416
5868.33013,0.11777
5870.25860,0.11124
5872.18707,0.11486
5874.11554,0.13131
5876.04400,0.12812
5877.97247,0.09898
5879.90094,0.09221
5881.82941,0.11452
5883.75788,0.12882
5885.68635,0.11183
5887.61482,0.08347
5889.54329,0.08203
5891.47175,0.09336
5893.40022,0.08082
5895.32869,0.05983
5897.25716,0.06638
5899.18563,0.09839
5901.11410,0.12336
5903.04257,0.10096
5904.97103,0.05529
5906.89950,0.05280
5908.82797,0.08288
5910.75644,0.11494
5912.68491,0.14875
5914.61338,0.16656
5916.54185,0.17519
5918.47032,0.19324
5920.39878,0.18969
5922.32725,0.15186
5924.25572,0.13286
5926.18419,0.14592
5928.11266,0.13097
5930.04113,0.08119
5931.96960,0.05953
5933.89806,0.09974
5935.82653,0.17183
5937.75500,0.20330
5939.68347,0.17187
5941.61194,0.11527
5943.54041,0.06242
5945.46888,0.05165
5947.39734,0.07399
5949.32581,0.07065
5951.25428,0.06595
5953.18275,0.08225
5955.11122,0.08682
5957.03969,0.08767
5958.96816,0.08782
5960.89663,0.08215
5962.82509,0.07635
5964.75356,0.05682
5966.68203,0.04336
5968.61050,0.07295
5970.53897,0.11820
5972.46744,0.13156
5974.39591,0.11529
5976.32437,0.10030
5978.25284,0.08775
5980.18131,0.07495
5982.10978,0.07728
5984.03825,0.08165
5985.96672,0.06856
5987.89519,0.04563
5989.82366,0.02479
5991.75212,0.02692
5993.68059,0.05654
5995.60906,0.08112
5997.53753,0.08810
5999.46600,0.07585
6001.39447,0.03807
6003.32294,0.02996
6005.25140,0.08397
6007.17987,0.11025
6009.10834,0.07612
6011.03681,0.06773
6012.96528,0.09819
6014.89375,0.11828
6016.82222,0.13624
6018.75069,0.15315
6020.67915,0.14813
6022.60762,0.13394
6024.53609,0.11530
6026.46456,0.10346
6028.39303,0.11467
6030.32150,0.13729
6032.24997,0.14252
6034.17843,0.10445
6036.10690,0.05649
6038.03537,0.05932
6039.96384,0.08922
6041.89231,0.09850
6043.82078,0.08605
6045.74925,0.05381
6047.67772,0.00711
6049.60618,0.00143
6051.53465,0.05829
6053.46312,0.11455
6055.39159,0.13260
6057.32006,0.11981
6059.24853,0.09349
6061.17700,0.08816
6063.10546,0.09338
6065.03393,0.06312
6066.96240,0.03617
6068.89087,0.06299
6070.81934,0.11283
6072.74781,0.12216
6074.67628,0.08340
6076.60475,0.05844
6078.53321,0.08212
6080.46168,0.12168
6082.39015,0.12863
6084.31862,0.11323
6086.24709,0.11231
6088.17556,0.09612
6090.10403,0.07518
6092.03249,0.09346
6093.96096,0.10528
6095.88943,0.11478
6097.81790,0.15051
6099.74637,0.13550
6101.67484,0.07889
6103.60331,0.06793
6105.53177,0.07529
6107.46024,0.05700
6109.38871,0.04338
6111.31718,0.05615
6113.24565,0.06848
6115.17412,0.08217
6117.10259,0.11957
6119.03106,0.17069
6120.95952,0.21558
6122.88799,0.22497
6124.81646,0.18981
6126.74493,0.17262
6128.67340,0.20745
6130.60187,0.21614
6132.53034,0.16102
6134.45880,0.10851
6136.38727,0.09810
6138.31574,0.09421
6140.24421,0.06941
6142.17268,0.07050
6144.10115,0.11058
6146.02962,0.11653
6147.95809,0.09799
6149.88655,0.11409
6151.81502,0.12316
6153.74349,0.09532
6155.67196,0.09032
6157.60043,0.11907
6159.52890,0.15449
6161.45737,0.15141
6163.38583,0.10289
6165.31430,0.09088
6167.24277,0.12048
6169.17124,0.12558
6171.09971,0.10613
6173.02818,0.09538
6174.95665,0.11016
6176.88512,0.12983
6178.81358,0.11162
6180.74205,0.09318
6182.67052,0.11095
6184.59899,0.11781
6186.52746,0.10211
6188.45593,0.09096
6190.38440,0.09334
6192.31286,0.11627
6194.24133,0.15629
6196.16980,0.15225
6198.09827,0.07416
6200.02674,0.00610
6201.95521,0.01312
6203.88368,0.08521
6205.81215,0.14329
6207.74061,0.12073
6209.66908,0.07179
6211.59755,0.05472
6213.52602,0.03863
6215.45449,0.04248
6217.38296,0.09067
6219.31143,0.12637
6221.23989,0.11232
6223.16836,0.07801
6225.09683,0.11817
6227.02530,0.22126
6228.95377,0.25433
6230.88224,0.20793
6232.81071,0.15158
6234.73918,0.09974
6236.66764,0.04054
6238.59611,0.01296
6240.52458,0.05919
6242.45305,0.13933
6244.38152,0.20527
6246.30999,0.24796
6248.23846,0.24398
6250.16692,0.16617
6252.09539,0.04326
6254.02386,-0.03811
6255.95233,-0.01998
6257.88080,0.06233
6259.80927,0.11384
6261.73774,0.10114
6263.66621,0.05280
6265.59467,-0.00486
6267.52314,-0.05052
6269.45161,-0.04463
6271.38008,0.02788
6273.30855,0.13986
6275.23702,0.20952
6277.16549,0.17095
6279.09395,0.09595
6281.02242,0.05278
6282.95089,0.02762
6284.87936,0.00540
6286.80783,-0.00524
6288.73630,0.01701
6290.66477,0.04061
6292.59323,0.04780
6294.52170,0.07245
6296.45017,0.09643
6298.37864,0.10953
6300.30711,0.11419
6302.23558,0.10819
6304.16405,0.12668
6306.09252,0.15942
6308.02098,0.18166
6309.94945,0.18670
6311.87792,0.13458
6313.80639,0.06152
6315.73486,0.03227
6317.66333,0.03396
6319.59180,0.05725
6321.52026,0.07944
6323.44873,0.08191
6325.37720,0.07676
6327.30567,0.07545
6329.23414,0.11081
6331.16261,0.13698
6333.09108,0.08034
6335.01955,0.01381
6336.94801,0.01445
6338.87648,0.06101
6340.80495,0.11330
6342.73342,0.13333
6344.66189,0.12641
6346.59036,0.12740
6348.51883,0.14230
6350.44729,0.15978
6352.37576,0.15202
6354.30423,0.12426
6356.23270,0.10813
6358.16117,0.11126
6360.08964,0.12704
6362.01811,0.11741
6363.94658,0.08848
6365.87504,0.13840
6367.80351,0.23187
6369.73198,0.21083
6371.66045,0.11723
6373.58892,0.07090
6375.51739,0.06092
6377.44586,0.04904
6379.37432,0.05447
6381.30279,0.09820
6383.23126,0.15257
6385.15973,0.16897
6387.08820,0.16411
6389.01667,0.17157
6390.94514,0.15569
6392.87361,0.06688
6394.80207,-0.01262
6396.73054,0.00733
6398.65901,0.05971
6400.58748,0.07786
6402.51595,0.08282
6404.44442,0.09949
6406.37289,0.09009
6408.30135,0.05158
6410.22982,0.06030
6412.15829,0.11749
6414.08676,0.14503
6416.01523,0.13974
6417.94370,0.13799
6419.87217,0.11499
6421.80064,0.05510
6423.72910,0.04511
6425.65757,0.10516
6427.58604,0.11610
6429.51451,0.05121
6431.44298,0.01718
6433.37145,0.06653
6435.29992,0.11529
6437.22838,0.09493
6439.15685,0.05128
6441.08532,0.05503
6443.01379,0.09629
6444.94226,0.10817
6446.87073,0.08593
6448.79920,0.07980
6450.72766,0.08358
6452.65613,0.06276
6454.58460,0.03779
6456.51307,0.04384
6458.44154,0.04789
6460.37001,0.01999
6462.29848,0.00028
6464.22695,0.00500
6466.15541,0.02825
6468.08388,0.05188
6470.01235,0.03682
6471.94082,0.01256
6473.86929,0.01290
6475.79776,0.01514
6477.72623,0.00246
6479.65469,-0.01884
6481.58316,-0.05057
6483.51163,-0.07307
6485.44010,-0.01285
6487.36857,0.11618
6489.29704,0.21955
6491.22551,0.23082
6493.15398,0.13963
6495.08244,0.06691
6497.01091,0.05129
6498.93938,0.00958
6500.86785,-0.01327
6502.79632,0.03032
6504.72479,0.07478
6506.65326,0.11358
6508.58172,0.16448
6510.51019,0.17897
6512.43866,0.12076
6514.36713,0.05595
6516.29560,0.02647
6518.22407,0.02729
6520.15254,0.07273
6522.08101,0.13292
6524.00947,0.15657
6525.93794,0.13139
6527.86641,0.04566
6529.79488,-0.04117
6531.72335,-0.03979
6533.65182,0.04298
6535.58029,0.16901
6537.50875,0.25229
6539.43722,0.23764
6541.36569,0.19556
6543.29416,0.14207
6545.22263,0.06333
6547.15110,0.03386
6549.07957,0.04951
6551.00804,0.02107
6552.93650,-0.00457
6554.86497,0.04283
6556.79344,0.08923
6558.72191,0.09080
6560.65038,0.07411
6562.57885,0.04640
6564.50732,0.01910
6566.43578,0.05310
6568.36425,0.14155
6570.29272,0.17446
6572.22119,0.11642
6574.14966,0.05697
6576.07813,0.05562
6578.00660,0.06450
6579.93507,0.00337
6581.86353,-0.09889
6583.79200,-0.14809
6585.72047,-0.14086
6587.64894,-0.09333
6589.57741,-0.01260
6591.50588,0.05619
6593.43435,0.06992
6595.36281,0.02184
6597.29128,-0.02187
6599.21975,-0.01610
6601.14822,0.02005
6603.07669,0.05518
6605.00516,0.06899
6606.93363,0.03692
6608.86210,0.00693
6610.79056,0.06299
6612.71903,0.13692
6614.64750,0.12348
6616.57597,0.12300
6618.50444,0.20104
6620.43291,0.22543
6622.36138,0.17738
6624.28984,0.17128
6626.21831,0.22906
6628.14678,0.24662
6630.07525,0.17347
6632.00372,0.08150
6633.93219,0.02001
6635.86066,0.01306
6637.78912,0.03451
6639.71759,0.04435
6641.64606,0.05551
6643.57453,0.05266
6645.50300,0.00857
6647.43147,0.00741
6649.35994,0.10178
6651.28841,0.13920
6653.21687,0.07755
6655.14534,0.04213
6657.07381,0.07959
6659.00228,0.13076
6660.93075,0.10857
6662.85922,0.02809
6664.78769,-0.02352
6666.71615,0.00402
6668.64462,0.09668
6670.57309,0.16578
6672.50156,0.17536
6674.43003,0.13732
6676.35850,0.07384
6678.28697,0.02549
6680.21544,-0.01240
6682.14390,-0.05053
6684.07237,-0.05421
6686.00084,0.01717
6687.92931,0.09408
6689.85778,0.06919
6691.78625,0.03901
6693.71472,0.08413
6695.64318,0.13556
6697.57165,0.12325
6699.50012,0.10835
6701.42859,0.13904
6703.35706,0.09870
6705.28553,-0.00127
6707.21400,0.00539
6709.14247,0.08638
6711.07093,0.12782
6712.99940,0.13307
6714.92787,0.11190
6716.85634,0.08343
6718.78481,0.06670
6720.71328,0.05802
6722.64175,0.07602
6724.57021,0.11187
6726.49868,0.11726
6728.42715,0.06443
6730.35562,-0.00999
6732.28409,-0.02743
6734.21256,0.00928
6736.14103,0.04420
6738.06950,0.05922
6739.99796,0.07753
6741.92643,0.12953
6743.85490,0.14488
6745.78337,0.07058
6747.71184,0.02875
6749.64031,0.08410
6751.56878,0.08074
6753.49724,-0.04538
6755.42571,-0.10410
6757.35418,-0.02409
6759.28265,0.02523
6761.21112,-0.01865
6763.13959,-0.03864
6765.06806,0.01406
6766.99653,0.08989
6768.92499,0.13020
6770.85346,0.16953
6772.78193,0.20070
6774.71040,0.13297
6776.63887,0.02558
6778.56734,0.02047
6780.49581,0.07749
6782.42427,0.13309
6784.35274,0.15227
6786.28121,0.11636
6788.20968,0.06795
6790.13815,-0.00100
6792.06662,-0.08604
6793.99509,-0.11617
6795.92355,-0.08941
6797.85202,-0.04684
6799.78049,-0.01887
6801.70896,-0.00514
6803.63743,0.04615
6805.56590,0.14448
6807.49437,0.18740
6809.42284,0.14003
6811.35130,0.10332
6813.27977,0.13266
6815.20824,0.13089
6817.13671,0.06668
6819.06518,0.02909
6820.99365,0.06074
6822.92212,0.10124
6824.85058,0.05397
6826.77905,-0.03473
6828.70752,-0.05586
6830.63599,0.00457
6832.56446,0.07187
6834.49293,0.10686
6836.42140,0.10737
6838.34987,0.12350
6840.27833,0.16265
6842.20680,0.13984
6844.13527,0.08582
6846.06374,0.10807
6847.99221,0.17030
6849.92068,0.16428
6851.84915,0.11004
6853.77761,0.09213
6855.70608,0.11118
6857.63455,0.08908
6859.56302,0.03161
6861.49149,0.01935
6863.41996,0.09201
6865.34843,0.18936
6867.27690,0.23366
6869.20536,0.22860
6871.13383,0.17419
6873.06230,0.07414
6874.99077,0.04750
6876.91924,0.08658
6878.84771,0.08068
6880.77618,0.05002
6882.70464,0.06172
6884.63311,0.07557
6886.56158,0.06200
6888.49005,0.06609
6890.41852,0.11730
6892.34699,0.15310
6894.27546,0.14130
6896.20393,0.13155
6898.13239,0.12668
6900.06086,0.07531
6901.98933,0.00316
6903.91780,-0.03535
6905.84627,-0.05342
6907.77474,-0.05140
6909.70321,-0.01336
6911.63167,0.07585
6913.56014,0.20940
6915.48861,0.25515
6917.41708,0.18164
6919.34555,0.07412
6921.27402,-0.05368
6923.20249,-0.13236
6925.13096,-0.10896
6927.05942,-0.05347
6928.98789,0.01448
6930.91636,0.10761
6932.84483,0.14569
6934.77330,0.10971
6936.70177,0.07519
6938.63024,0.05726
6940.55870,0.07303
6942.48717,0.14902
6944.41564,0.18717
6946.34411,0.14094
6948.27258,0.12401
6950.20105,0.13315
6952.12952,0.10428
6954.05799,0.12128
6955.98645,0.18004
6957.91492,0.15167
6959.84339,0.06314
6961.77186,0.03184
6963.70033,0.07897
6965.62880,0.11542
6967.55727,0.10565
6969.48573,0.10888
6971.41420,0.13078
6973.34267,0.04146
6975.27114,-0.15246
6977.19961,-0.16354
6979.12808,0.03646
6981.05655,0.18033
6982.98501,0.15783
6984.91348,0.13604
6986.84195,0.19353
6988.77042,0.17995
6990.69889,0.08172
6992.62736,0.03791
6994.55583,0.04509
6996.48430,0.07816
6998.41276,0.18795
7000.34123,0.25880
7002.26970,0.19263
7004.19817,0.09458
7006.12664,0.04749
7008.05511,0.11813
7009.98358,0.21352
7011.91204,0.20053
7013.84051,0.10229
7015.76898,-0.03883
7017.69745,-0.14835
7019.62592,-0.09603
7021.55439,0.02374
7023.48286,0.02463
7025.41133,-0.00480
7027.33979,0.07538
7029.26826,0.11886
7031.19673,0.05786
7033.12520,0.08997
7035.05367,0.14948
7036.98214,0.08303
7038.91061,0.08032
7040.83907,0.17670
7042.76754,0.14596
7044.69601,0.03298
7046.62448,0.08510
7048.55295,0.17337
7050.48142,0.15475
7052.40989,0.14690
7054.33836,0.12279
7056.26682,0.00738
7058.19529,-0.02430
7060.12376,0.12103
7062.05223,0.26847
7063.98070,0.24704
7065.90917,0.12545
7067.83764,0.00961
7069.76610,-0.12401
7071.69457,-0.15070
7073.62304,-0.02338
7075.55151,0.08925
7077.47998,0.14280
7079.40845,0.15817
7081.33692,0.14975
7083.26539,0.15221
7085.19385,0.13077
7087.12232,0.08686
7089.05079,0.09254
7090.97926,0.13112
7092.90773,0.16501
7094.83620,0.14359
7096.76467,-0.00180
7098.69313,-0.15620
7100.62160,-0.10378
7102.55007,0.01895
7104.47854,0.03435
7106.40701,0.02918
7108.33548,0.07691
7110.26395,0.15034
7112.19242,0.23289
7114.12088,0.20831
7116.04935,0.08885
7117.97782,0.02943
7119.90629,0.04252
7121.83476,0.10457
7123.76323,0.21842
7125.69170,0.27644
7127.62016,0.18106
7129.54863,0.06502
7131.47710,0.10467
7133.40557,0.13494
7135.33404,0.02415
7137.26251,-0.03358
7139.19098,0.04380
7141.11944,0.08442
7143.04791,0.01588
7144.97638,-0.03811
7146.90485,0.03640
7148.83332,0.09858
7150.76179,0.03862
7152.69026,-0.02541
7154.61873,-0.00818
7156.54719,0.03466
7158.47566,-0.01865
7160.40413,-0.18502
7162.33260,-0.27390
7164.26107,-0.16273
7166.18954,0.00485
7168.11801,0.02266
7170.04647,-0.07248
7171.97494,-0.08482
7173.90341,0.03082
7175.83188,0.16438
7177.76035,0.25058
7179.68882,0.29677
7181.61729,0.27270
7183.54576,0.24670
7185.47422,0.27405
7187.40269,0.24401
7189.33116,0.18555
7191.25963,0.19868
7193.18810,0.23389
7195.11657,0.19352
7197.04504,0.09246
7198.97350,-0.00352
7200.90197,-0.01675
7202.83044,0.02004
7204.75891,-0.00884
7206.68738,-0.09266
7208.61585,-0.08760
7210.54432,-0.00615
7212.47279,0.03761
7214.40125,-0.00591
7216.32972,-0.07764
7218.25819,-0.06252
7220.18666,-0.03339
7222.11513,-0.06777
7224.04360,-0.05100
7225.97207,0.07561
7227.90053,0.19262
7229.82900,0.18747
7231.75747,0.14705
7233.68594,0.19066
7235.61441,0.22350
7237.54288,0.17552
7239.47135,0.10098
7241.39982,0.00762
7243.32828,-0.12017
7245.25675,-0.13722
7247.18522,-0.00972
7249.11369,0.12004
7251.04216,0.15778
7252.97063,0.14173
7254.89910,0.07896
7256.82756,0.02545
7258.75603,0.04006
7260.68450,0.06282
7262.61297,0.01739
7264.54144,0.03309
7266.46991,0.14352
7268.39838,0.21450
7270.32685,0.26765
7272.25531,0.26178
7274.18378,0.11237
7276.11225,0.01660
7278.04072,0.00820
7279.96919,0.00338
7281.89766,0.01059
7283.82613,0.05401
7285.75459,0.11965
7287.68306,0.18094
7289.61153,0.23602
7291.54000,0.32736
7293.46847,0.39898
7295.39694,0.31428
7297.32541,0.15571
7299.25387,0.10865
7301.18234,0.13868
7303.11081,0.15420
7305.03928,0.23201
7306.96775,0.44511
7308.89622,0.59531
7310.82469,0.53471
7312.75316,0.47176
7314.68162,0.37920
7316.61009,0.20193
7318.53856,0.18684
7320.46703,0.17490
7322.39550,-0.03422
7324.32397,-0.09115
7326.25244,0.06977
7328.18090,0.12703
7330.10937,0.13903
7332.03784,0.20302
7333.96631,0.13075
7335.89478,-0.00456
7337.82325,-0.07759
7339.75172,-0.03441
7341.68019,0.10479
7343.60865,0.13174
7345.53712,-0.01339
7347.46559,-0.16087
7349.39406,-0.07139
7351.32253,0.17251
7353.25100,0.26033
7355.17947,0.13729
7357.10793,0.04312
7359.03640,0.08748
7360.96487,0.06807
7362.89334,0.05421
7364.82181,0.16539
7366.75028,0.24023
7368.67875,0.21908
7370.60722,0.15155
7372.53568,-0.02146
7374.46415,-0.27823
7376.39262,-0.27849
7378.32109,-0.06732
7380.24956,0.08480
7382.17803,0.13286
7384.10650,0.06040
7386.03496,0.04292
7387.96343,0.23850
7389.89190,0.34694
7391.82037,0.27681
7393.74884,0.28918
7395.67731,0.41312
7397.60578,0.44024
7399.53425,0.32680
7401.46271,0.15475
7403.39118,-0.08937
7405.31965,-0.30011
7407.24812,-0.26685
7409.17659,-0.06159
7411.10506,0.12301
7413.03353,0.12891
7414.96199,0.02745
7416.89046,0.00655
7418.81893,0.13591
7420.74740,0.26680
7422.67587,0.30992
7424.60434,0.28908
7426.53281,0.22037
7428.46128,0.15132
7430.38974,0.03591
7432.31821,-0.15610
7434.24668,-0.20168
7436.17515,-0.03304
7438.10362,-0.00124
7440.03209,-0.22463
7441.96056,-0.32754
7443.88902,-0.23338
7445.81749,-0.19185
7447.74596,-0.22611
7449.67443,-0.28424
7451.60290,-0.30582
7453.53137,-0.17441
7455.45984,-0.03700
7457.38831,-0.00643
7459.31677,0.05017
7461.24524,0.16367
7463.17371,0.19358
7465.10218,0.20894
7467.03065,0.23169
7468.95912,0.22455
7470.88759,0.22695
7472.81605,0.24671
7474.74452,0.30610
7476.67299,0.43959
7478.60146,0.57340
7480.52993,0.52892
7482.45840,0.26020
7484.38687,0.03825
7486.31533,-0.01030
7488.24380,-0.04538
7490.17227,-0.15327
7492.10074,-0.19137
7494.02921,-0.16376
7495.95768,-0.14033
7497.88615,-0.00397
