399.19301,7.97954
401.12148,-0.35673
403.04995,-1.24980
404.97842,-0.77565
406.90689,-0.06782
408.83536,0.42406
410.76382,1.40811
412.69229,3.44019
414.62076,4.22492
416.54923,1.86399
418.47770,-0.75428
420.40617,0.43656
422.33464,1.22515
424.26311,0.33667
426.19157,-0.33144
428.12004,-0.29589
430.04851,0.06951
431.97698,0.28558
433.90545,0.06933
435.83392,-0.15295
437.76239,-0.07713
439.69085,0.11775
441.61932,0.15713
443.54779,0.00697
445.47626,-0.11340
447.40473,-0.12363
449.33320,-0.15488
451.26167,-0.15516
453.19013,-0.04777
455.11860,0.04027
457.04707,0.06181
458.97554,0.04591
460.90401,-0.01294
462.83248,-0.05305
464.76095,-0.04872
466.68942,-0.06383
468.61788,-0.05079
470.54635,0.00865
472.47482,0.27214
474.40329,0.75443
476.33176,0.64126
478.26023,0.27358
480.18870,0.10498
482.11716,0.07435
484.04563,0.07140
485.97410,0.08693
487.90257,0.12897
489.83104,0.15687
491.75951,0.14584
493.68798,0.12629
495.61645,0.09845
497.54491,0.08103
499.47338,0.09038
501.40185,0.08677
503.33032,0.04086
505.25879,-0.00446
507.18726,-0.02895
509.11573,-0.03945
511.04419,-0.00927
512.97266,0.04400
514.90113,0.08775
516.82960,0.11296
518.75807,0.10234
520.68654,0.07974
522.61501,0.08429
524.54348,0.09663
526.47194,0.09237
528.40041,0.07848
530.32888,0.06526
532.25735,0.07604
534.18582,0.09576
536.11429,0.11503
538.04276,0.13974
539.97122,0.15582
541.89969,0.17752
543.82816,0.20744
545.75663,0.21925
547.68510,0.19882
549.61357,0.16859
551.54204,0.15122
553.47051,0.12823
555.39897,0.10632
557.32744,0.11358
559.25591,0.12672
561.18438,0.13205
563.11285,0.14352
565.04132,0.13774
566.96979,0.11795
568.89825,0.12504
570.82672,0.15206
572.75519,0.18148
574.68366,0.20428
576.61213,0.19404
578.54060,0.16224
580.46907,0.14478
582.39754,0.14630
584.32600,0.14338
586.25447,0.11818
588.18294,0.08757
590.11141,0.07140
592.03988,0.06803
593.96835,0.07294
595.89682,0.09445
597.82528,0.13029
599.75375,0.14905
601.68222,0.14295
603.61069,0.13627
605.53916,0.13842
607.46763,0.13904
609.39610,0.13605
611.32456,0.14104
613.25303,0.15640
615.18150,0.17086
617.10997,0.17616
619.03844,0.17059
620.96691,0.15738
622.89538,0.14535
624.82385,0.13732
626.75231,0.13257
628.68078,0.12651
630.60925,0.10033
632.53772,0.06353
634.46619,0.06370
636.39466,0.09982
638.32313,0.14038
640.25159,0.16814
642.18006,0.16615
644.10853,0.16175
646.03700,0.18083
647.96547,0.18885
649.89394,0.16497
651.82241,0.13239
653.75088,0.10820
655.67934,0.09267
657.60781,0.08704
659.53628,0.08940
661.46475,0.09476
663.39322,0.10826
665.32169,0.13119
667.25016,0.15909
669.17862,0.16121
671.10709,0.13884
673.03556,0.12840
674.96403,0.12213
676.89250,0.11901
678.82097,0.11895
680.74944,0.11588
682.67791,0.12608
684.60637,0.14742
686.53484,0.16098
688.46331,0.16292
690.39178,0.15416
692.32025,0.14293
694.24872,0.13842
696.17719,0.14473
698.10565,0.15436
700.03412,0.16030
701.96259,0.16610
703.89106,0.16140
705.81953,0.14634
707.74800,0.13536
709.67647,0.12808
711.60494,0.13060
713.53340,0.14053
715.46187,0.14317
717.39034,0.14599
719.31881,0.14876
721.24728,0.13835
723.17575,0.12746
725.10422,0.13310
727.03268,0.14212
728.96115,0.13911
730.88962,0.13547
732.81809,0.13482
734.74656,0.12896
736.67503,0.12794
738.60350,0.13551
740.53197,0.14531
742.46043,0.16010
744.38890,0.17400
746.31737,0.17592
748.24584,0.17155
750.17431,0.16819
752.10278,0.16433
754.03125,0.16138
755.95971,0.15774
757.88818,0.14669
759.81665,0.13183
761.74512,0.12247
763.67359,0.12037
765.60206,0.12551
767.53053,0.13775
769.45900,0.14907
771.38746,0.15444
773.31593,0.15784
775.24440,0.15955
777.17287,0.15269
779.10134,0.13787
781.02981,0.12589
782.95828,0.12365
784.88674,0.12975
786.81521,0.13384
788.74368,0.12795
790.67215,0.12090
792.60062,0.13062
794.52909,0.15705
796.45756,0.17465
798.38602,0.17036
800.31449,0.15681
802.24296,0.15164
804.17143,0.14792
806.09990,0.13429
808.02837,0.12475
809.95684,0.12522
811.88531,0.12873
813.81377,0.12900
815.74224,0.12699
817.67071,0.13385
819.59918,0.14716
821.52765,0.15540
823.45612,0.15475
825.38459,0.14837
827.31305,0.14727
829.24152,0.15353
831.16999,0.15299
833.09846,0.14851
835.02693,0.15070
836.95540,0.14908
838.88387,0.14280
840.81234,0.14529
842.74080,0.15362
844.66927,0.15405
846.59774,0.15006
848.52621,0.15584
850.45468,0.16483
852.38315,0.16151
854.31162,0.15224
856.24008,0.15262
858.16855,0.16060
860.09702,0.16357
862.02549,0.16257
863.95396,0.16293
865.88243,0.15245
867.81090,0.13754
869.73937,0.13843
871.66783,0.14315
873.59630,0.14773
875.52477,0.15910
877.45324,0.16176
879.38171,0.15227
881.31018,0.14563
883.23865,0.14444
885.16711,0.14147
887.09558,0.14459
889.02405,0.15600
890.95252,0.15736
892.88099,0.14741
894.80946,0.14198
896.73793,0.14324
898.66640,0.14211
900.59486,0.14200
902.52333,0.14832
904.45180,0.15210
906.38027,0.15051
908.30874,0.15100
910.23721,0.15574
912.16568,0.16000
914.09414,0.16211
916.02261,0.16432
917.95108,0.16240
919.87955,0.15483
921.80802,0.15185
923.73649,0.15644
925.66496,0.15748
927.59343,0.14958
929.52189,0.14217
931.45036,0.14219
933.37883,0.14493
935.30730,0.15005
937.23577,0.15749
939.16424,0.15907
941.09271,0.15389
943.02117,0.15152
944.94964,0.15570
946.87811,0.15672
948.80658,0.14878
950.73505,0.14038
952.66352,0.13815
954.59199,0.13648
956.52045,0.13461
958.44892,0.14131
960.37739,0.15433
962.30586,0.16592
964.23433,0.16932
966.16280,0.16259
968.09127,0.15587
970.01974,0.15390
971.94820,0.15414
973.87667,0.15821
975.80514,0.16154
977.73361,0.15767
979.66208,0.15138
981.59055,0.14937
983.51902,0.15406
985.44748,0.16114
987.37595,0.16339
989.30442,0.15978
991.23289,0.15485
993.16136,0.15719
995.08983,0.16460
997.01830,0.16596
998.94677,0.16148
1000.87523,0.15866
1002.80370,0.15975
1004.73217,0.15868
1006.66064,0.15837
1008.58911,0.16700
1010.51758,0.17230
1012.44605,0.16560
1014.37451,0.15785
1016.30298,0.15293
1018.23145,0.15138
1020.15992,0.15627
1022.08839,0.16349
1024.01686,0.16782
1025.94533,0.16866
1027.87380,0.17018
1029.80226,0.17499
1031.73073,0.17959
1033.65920,0.18183
1035.58767,0.18033
1037.51614,0.17412
1039.44461,0.17075
1041.37308,0.17488
1043.30154,0.17578
1045.23001,0.16685
1047.15848,0.15716
1049.08695,0.15323
1051.01542,0.15676
1052.94389,0.16746
1054.87236,0.17425
1056.80083,0.17241
1058.72929,0.17205
1060.65776,0.17548
1062.58623,0.17472
1064.51470,0.17014
1066.44317,0.17118
1068.37164,0.17568
1070.30011,0.17689
1072.22857,0.17431
1074.15704,0.16454
1076.08551,0.15689
1078.01398,0.16658
1079.94245,0.18112
1081.87092,0.18264
1083.79939,0.17775
1085.72786,0.17268
1087.65632,0.16519
1089.58479,0.16209
1091.51326,0.16641
1093.44173,0.17179
1095.37020,0.17497
1097.29867,0.17627
1099.22714,0.18009
1101.15560,0.18783
1103.08407,0.18850
1105.01254,0.17737
1106.94101,0.16772
1108.86948,0.16837
1110.79795,0.17472
1112.72642,0.18090
1114.65489,0.18321
1116.58335,0.18063
1118.51182,0.17708
1120.44029,0.17503
1122.36876,0.17429
1124.29723,0.17461
1126.22570,0.17474
1128.15417,0.17438
1130.08263,0.17141
1132.01110,0.16715
1133.93957,0.16385
1135.86804,0.15896
1137.79651,0.15540
1139.72498,0.15413
1141.65345,0.15363
1143.58191,0.15803
1145.51038,0.16458
1147.43885,0.16639
1149.36732,0.16509
1151.29579,0.16648
1153.22426,0.17503
1155.15273,0.18626
1157.08120,0.18726
1159.00966,0.17900
1160.93813,0.17434
1162.86660,0.17588
1164.79507,0.17986
1166.72354,0.18390
1168.65201,0.18373
1170.58048,0.18016
1172.50894,0.17880
1174.43741,0.17731
1176.36588,0.17555
1178.29435,0.17818
1180.22282,0.18108
1182.15129,0.17897
1184.07976,0.17257
1186.00823,0.16751
1187.93669,0.16780
1189.86516,0.16959
1191.79363,0.17211
1193.72210,0.17711
1195.65057,0.18066
1197.57904,0.18122
1199.50751,0.18016
1201.43597,0.17529
1203.36444,0.16707
1205.29291,0.16294
1207.22138,0.16789
1209.14985,0.17635
1211.07832,0.17946
1213.00679,0.17739
1214.93526,0.17698
1216.86372,0.17744
1218.79219,0.17336
1220.72066,0.16727
1222.64913,0.16499
1224.57760,0.16721
1226.50607,0.16943
1228.43454,0.16880
1230.36300,0.16775
1232.29147,0.16941
1234.21994,0.17374
1236.14841,0.17663
1238.07688,0.17658
1240.00535,0.17859
1241.93382,0.18188
1243.86229,0.18030
1245.79075,0.17707
1247.71922,0.17623
1249.64769,0.17576
1251.57616,0.17609
1253.50463,0.17718
1255.43310,0.17571
1257.36157,0.17143
1259.29003,0.16964
1261.21850,0.17286
1263.14697,0.17518
1265.07544,0.17331
1267.00391,0.17318
1268.93238,0.17904
1270.86085,0.18564
1272.78932,0.18667
1274.71778,0.18438
1276.64625,0.18385
1278.57472,0.18367
1280.50319,0.18093
1282.43166,0.17820
1284.36013,0.17860
1286.28860,0.18121
1288.21706,0.18332
1290.14553,0.18222
1292.07400,0.18015
1294.00247,0.18163
1295.93094,0.18380
1297.85941,0.18251
1299.78788,0.17826
1301.71634,0.17113
1303.64481,0.16306
1305.57328,0.16242
1307.50175,0.17124
1309.43022,0.17926
1311.35869,0.18138
1313.28716,0.18106
1315.21563,0.18212
1317.14409,0.18569
1319.07256,0.19001
1321.00103,0.19291
1322.92950,0.19221
1324.85797,0.18780
1326.78644,0.18195
1328.71491,0.17684
1330.64337,0.17426
1332.57184,0.17574
1334.50031,0.17998
1336.42878,0.18348
1338.35725,0.18358
1340.28572,0.17827
1342.21419,0.17438
1344.14266,0.17779
1346.07112,0.18139
1347.99959,0.17952
1349.92806,0.17652
1351.85653,0.17644
1353.78500,0.17658
1355.71347,0.17563
1357.64194,0.17710
1359.57040,0.18006
1361.49887,0.18123
1363.42734,0.18317
1365.35581,0.18925
1367.28428,0.19444
1369.21275,0.19297
1371.14122,0.18933
1373.06969,0.18945
1374.99815,0.18989
1376.92662,0.18780
1378.85509,0.18653
1380.78356,0.18727
1382.71203,0.18782
1384.64050,0.18860
1386.56897,0.19244
1388.49743,0.19505
1390.42590,0.19417
1392.35437,0.19559
1394.28284,0.19830
1396.21131,0.19828
1398.13978,0.19784
1400.06825,0.19649
1401.99672,0.19282
1403.92518,0.18870
1405.85365,0.18606
1407.78212,0.18836
1409.71059,0.19443
1411.63906,0.19516
1413.56753,0.18938
1415.49600,0.18917
1417.42446,0.19944
1419.35293,0.20660
1421.28140,0.20134
1423.20987,0.19520
1425.13834,0.19245
1427.06681,0.19271
1428.99528,0.19463
1430.92375,0.19722
1432.85221,0.20072
1434.78068,0.20565
1436.70915,0.20898
1438.63762,0.20340
1440.56609,0.19586
1442.49456,0.19476
1444.42303,0.19743
1446.35149,0.19668
1448.27996,0.19398
1450.20843,0.19358
1452.13690,0.19493
1454.06537,0.20272
1455.99384,0.22098
1457.92231,0.22894
1459.85077,0.21442
1461.77924,0.20307
1463.70771,0.19989
1465.63618,0.20021
1467.56465,0.19971
1469.49312,0.20530
1471.42159,0.21963
1473.35006,0.22572
1475.27852,0.21512
1477.20699,0.20531
1479.13546,0.20007
1481.06393,0.19798
1482.99240,0.19930
1484.92087,0.20443
1486.84934,0.21267
1488.77780,0.21922
1490.70627,0.21470
1492.63474,0.20631
1494.56321,0.20584
1496.49168,0.21218
1498.42015,0.21246
1500.34862,0.20604
1502.27709,0.20768
1504.20555,0.22350
1506.13402,0.24594
1508.06249,0.23684
1509.99096,0.21583
1511.91943,0.20786
1513.84790,0.21158
1515.77637,0.22497
1517.70483,0.23588
1519.63330,0.23844
1521.56177,0.23484
1523.49024,0.22321
1525.41871,0.21431
1527.34718,0.21183
1529.27565,0.21132
1531.20412,0.20979
1533.13258,0.20699
1535.06105,0.20763
1536.98952,0.21877
1538.91799,0.24502
1540.84646,0.26901
1542.77493,0.25510
1544.70340,0.23014
1546.63186,0.21459
1548.56033,0.21141
1550.48880,0.21305
1552.41727,0.21496
1554.34574,0.22227
1556.27421,0.23872
1558.20268,0.25535
1560.13115,0.23856
1562.05961,0.21626
1563.98808,0.20484
1565.91655,0.20246
1567.84502,0.20797
1569.77349,0.20809
1571.70196,0.19996
1573.63043,0.20040
1575.55889,0.20912
1577.48736,0.20929
1579.41583,0.20303
1581.34430,0.19944
1583.27277,0.19707
1585.20124,0.19458
1587.12971,0.19186
1589.05818,0.19206
1590.98664,0.19453
1592.91511,0.19448
1594.84358,0.19252
1596.77205,0.18981
1598.70052,0.18830
1600.62899,0.19076
1602.55746,0.19436
1604.48592,0.19593
1606.41439,0.19754
1608.34286,0.19944
1610.27133,0.19997
1612.19980,0.20147
1614.12827,0.20618
1616.05674,0.21195
1617.98521,0.21079
1619.91367,0.20976
1621.84214,0.21702
1623.77061,0.22140
1625.69908,0.21637
1627.62755,0.21281
1629.55602,0.21106
1631.48449,0.21100
1633.41295,0.21820
1635.34142,0.23109
1637.26989,0.22825
1639.19836,0.21600
1641.12683,0.21160
1643.05530,0.21715
1644.98377,0.23059
1646.91223,0.24201
1648.84070,0.23825
1650.76917,0.23770
1652.69764,0.24833
1654.62611,0.23640
1656.55458,0.21585
1658.48305,0.21040
1660.41152,0.21872
1662.33998,0.22998
1664.26845,0.22788
1666.19692,0.22319
1668.12539,0.22864
1670.05386,0.23548
1671.98233,0.23317
1673.91080,0.22877
1675.83926,0.22219
1677.76773,0.21452
1679.69620,0.21290
1681.62467,0.22230
1683.55314,0.23913
1685.48161,0.23928
1687.41008,0.22934
1689.33855,0.22354
1691.26701,0.21999
1693.19548,0.22239
1695.12395,0.23308
1697.05242,0.24155
1698.98089,0.23896
1700.90936,0.23030
1702.83783,0.22408
1704.76629,0.22064
1706.69476,0.21520
1708.62323,0.20873
1710.55170,0.20486
1712.48017,0.20728
1714.40864,0.21821
1716.33711,0.22801
1718.26558,0.21870
1720.19404,0.20545
1722.12251,0.20127
1724.05098,0.20097
1725.97945,0.19908
1727.90792,0.19773
1729.83639,0.20159
1731.76486,0.21000
1733.69332,0.21638
1735.62179,0.21384
1737.55026,0.21191
1739.47873,0.21342
1741.40720,0.21440
1743.33567,0.21392
1745.26414,0.21355
1747.19261,0.21453
1749.12107,0.21638
1751.04954,0.21532
1752.97801,0.20957
1754.90648,0.20498
1756.83495,0.20524
1758.76342,0.20910
1760.69189,0.21288
1762.62035,0.20993
1764.54882,0.20331
1766.47729,0.20344
1768.40576,0.21080
1770.33423,0.21980
1772.26270,0.22397
1774.19117,0.21977
1776.11964,0.21367
1778.04810,0.20980
1779.97657,0.20862
1781.90504,0.20782
1783.83351,0.20411
1785.76198,0.19823
1787.69045,0.19598
1789.61892,0.20141
1791.54738,0.21199
1793.47585,0.21733
1795.40432,0.21439
1797.33279,0.21112
1799.26126,0.21198
1801.18973,0.21298
1803.11820,0.20895
1805.04666,0.20461
1806.97513,0.20417
1808.90360,0.20670
1810.83207,0.20826
1812.76054,0.20596
1814.68901,0.20400
1816.61748,0.20254
1818.54595,0.19448
1820.47441,0.18469
1822.40288,0.18715
1824.33135,0.19983
1826.25982,0.20923
1828.18829,0.21448
1830.11676,0.21577
1832.04523,0.21001
1833.97369,0.20523
1835.90216,0.20540
1837.83063,0.20616
1839.75910,0.20366
1841.68757,0.20253
1843.61604,0.20750
1845.54451,0.21115
1847.47298,0.20692
1849.40144,0.19969
1851.32991,0.19463
1853.25838,0.19442
1855.18685,0.19733
1857.11532,0.19953
1859.04379,0.20044
1860.97226,0.20211
1862.90072,0.20520
1864.82919,0.21087
1866.75766,0.21860
1868.68613,0.21926
1870.61460,0.20975
1872.54307,0.20252
1874.47154,0.20157
1876.40001,0.20305
1878.32847,0.20333
1880.25694,0.20272
1882.18541,0.20405
1884.11388,0.20755
1886.04235,0.21112
1887.97082,0.21405
1889.89929,0.21364
1891.82775,0.20944
1893.75622,0.20704
1895.68469,0.20560
1897.61316,0.20301
1899.54163,0.20341
1901.47010,0.20670
1903.39857,0.20875
1905.32704,0.20831
1907.25550,0.20633
1909.18397,0.20476
1911.11244,0.20415
1913.04091,0.20383
1914.96938,0.20471
1916.89785,0.20605
1918.82632,0.20501
1920.75478,0.20345
1922.68325,0.20346
1924.61172,0.20262
1926.54019,0.20122
1928.46866,0.20148
1930.39713,0.20236
1932.32560,0.20187
1934.25407,0.20075
1936.18253,0.20069
1938.11100,0.20224
1940.03947,0.20507
1941.96794,0.20729
1943.89641,0.20727
1945.82488,0.20623
1947.75335,0.20514
1949.68181,0.20425
1951.61028,0.20394
1953.53875,0.20397
1955.46722,0.20399
1957.39569,0.20352
1959.32416,0.20290
1961.25263,0.20321
1963.18110,0.20398
1965.10956,0.20579
1967.03803,0.20904
1968.96650,0.21054
1970.89497,0.20936
1972.82344,0.20696
1974.75191,0.20528
1976.68038,0.20543
1978.60884,0.20426
1980.53731,0.20199
1982.46578,0.20193
1984.39425,0.20317
1986.32272,0.20478
1988.25119,0.20646
1990.17966,0.20733
1992.10812,0.20733
1994.03659,0.20666
1995.96506,0.20538
1997.89353,0.20394
1999.82200,0.20286
2001.75047,0.20079
2003.67894,0.19836
2005.60741,0.19910
2007.53587,0.20347
2009.46434,0.20784
2011.39281,0.20852
2013.32128,0.20639
2015.24975,0.20594
2017.17822,0.20803
2019.10669,0.20788
2021.03515,0.20427
2022.96362,0.20073
2024.89209,0.19881
2026.82056,0.19892
2028.74903,0.20038
2030.67750,0.20161
2032.60597,0.20263
2034.53444,0.20390
2036.46290,0.20494
2038.39137,0.20588
2040.31984,0.20638
2042.24831,0.20348
2044.17678,0.19793
2046.10525,0.19588
2048.03372,0.19901
2049.96218,0.20264
2051.89065,0.20377
2053.81912,0.20436
2055.74759,0.20529
2057.67606,0.20349
2059.60453,0.20090
2061.53300,0.20253
2063.46147,0.20496
2065.38993,0.20440
2067.31840,0.20337
2069.24687,0.20196
2071.17534,0.20007
2073.10381,0.20092
2075.03228,0.20454
2076.96075,0.20705
2078.88921,0.20603
2080.81768,0.20368
2082.74615,0.20331
2084.67462,0.20445
2086.60309,0.20417
2088.53156,0.20226
2090.46003,0.20081
2092.38850,0.19988
2094.31696,0.19948
2096.24543,0.20120
2098.17390,0.20452
2100.10237,0.20613
2102.03084,0.20527
2103.95931,0.20378
2105.88778,0.20243
2107.81624,0.20260
2109.74471,0.20497
2111.67318,0.20768
2113.60165,0.20852
2115.53012,0.20712
2117.45859,0.20584
2119.38706,0.20615
2121.31553,0.20657
2123.24399,0.20624
2125.17246,0.20609
2127.10093,0.20592
2129.02940,0.20592
2130.95787,0.20727
2132.88634,0.20809
2134.81481,0.20703
2136.74327,0.20661
2138.67174,0.20795
2140.60021,0.20769
2142.52868,0.20526
2144.45715,0.20499
2146.38562,0.20628
2148.31409,0.20655
2150.24255,0.20539
2152.17102,0.20228
2154.09949,0.20073
2156.02796,0.20284
2157.95643,0.20445
2159.88490,0.20379
2161.81337,0.20330
2163.74184,0.20368
2165.67030,0.20555
2167.59877,0.20855
2169.52724,0.20846
2171.45571,0.20554
2173.38418,0.20499
2175.31265,0.20683
2177.24112,0.20730
2179.16958,0.20620
2181.09805,0.20505
2183.02652,0.20538
2184.95499,0.20848
2186.88346,0.21153
2188.81193,0.21124
2190.74040,0.20772
2192.66887,0.20373
2194.59733,0.20297
2196.52580,0.20584
2198.45427,0.20877
2200.38274,0.20873
2202.31121,0.20588
2204.23968,0.20266
2206.16815,0.20285
2208.09661,0.20568
2210.02508,0.20561
2211.95355,0.20302
2213.88202,0.20161
2215.81049,0.20086
2217.73896,0.20090
2219.66743,0.20211
2221.59590,0.20199
2223.52436,0.20133
2225.45283,0.20284
2227.38130,0.20484
2229.30977,0.20536
2231.23824,0.20527
2233.16671,0.20500
2235.09518,0.20452
2237.02364,0.20529
2238.95211,0.20813
2240.88058,0.21154
2242.80905,0.21273
2244.73752,0.21032
2246.66599,0.20648
2248.59446,0.20499
2250.52293,0.20579
2252.45139,0.20559
2254.37986,0.20472
2256.30833,0.20391
2258.23680,0.20186
2260.16527,0.20203
2262.09374,0.20492
2264.02221,0.20496
2265.95067,0.20381
2267.87914,0.20531
2269.80761,0.20685
2271.73608,0.20691
2273.66455,0.20604
2275.59302,0.20466
2277.52149,0.20352
2279.44996,0.20367
2281.37842,0.20599
2283.30689,0.20783
2285.23536,0.20665
2287.16383,0.20530
2289.09230,0.20684
2291.02077,0.20938
2292.94924,0.20908
2294.87770,0.20610
2296.80617,0.20249
2298.73464,0.19995
2300.66311,0.20099
2302.59158,0.20327
2304.52005,0.20489
2306.44852,0.20715
2308.37699,0.20596
2310.30545,0.19968
2312.23392,0.19471
2314.16239,0.19563
2316.09086,0.20011
2318.01933,0.20455
2319.94780,0.20837
2321.87627,0.21085
2323.80473,0.20910
2325.73320,0.20182
2327.66167,0.19476
2329.59014,0.19375
2331.51861,0.19579
2333.44708,0.19042
2335.37555,0.17982
2337.30401,0.18344
2339.23248,0.20236
2341.16095,0.21071
2343.08942,0.19877
2345.01789,0.19235
2346.94636,0.19772
2348.87483,0.19877
2350.80330,0.19743
2352.73176,0.20193
2354.66023,0.21621
2356.58870,0.23488
2358.51717,0.23146
2360.44564,0.20858
2362.37411,0.20661
2364.30258,0.21743
2366.23104,0.22284
2368.15951,0.22508
2370.08798,0.21982
2372.01645,0.21016
2373.94492,0.20440
2375.87339,0.20300
2377.80186,0.20287
2379.73033,0.20379
2381.65879,0.20438
2383.58726,0.20402
2385.51573,0.20460
2387.44420,0.20645
2389.37267,0.20883
2391.30114,0.20967
2393.22961,0.20754
2395.15807,0.20407
2397.08654,0.20110
2399.01501,0.20119
2400.94348,0.20573
2402.87195,0.21018
2404.80042,0.21007
2406.72889,0.20747
2408.65736,0.20649
2410.58582,0.20817
2412.51429,0.21019
2414.44276,0.21133
2416.37123,0.21233
2418.29970,0.21232
2420.22817,0.21106
2422.15664,0.20972
2424.08510,0.20717
2426.01357,0.20305
2427.94204,0.20142
2429.87051,0.20382
2431.79898,0.20625
2433.72745,0.20693
2435.65592,0.20845
2437.58439,0.21063
2439.51285,0.21077
2441.44132,0.20904
2443.36979,0.20717
2445.29826,0.20591
2447.22673,0.20555
2449.15520,0.20479
2451.08367,0.19335
2453.01213,0.16843
2454.94060,0.15665
2456.86907,0.17497
2458.79754,0.19938
2460.72601,0.20781
2462.65448,0.20784
2464.58295,0.20849
2466.51142,0.20828
2468.43988,0.20672
2470.36835,0.20550
2472.29682,0.20647
2474.22529,0.20856
2476.15376,0.20929
2478.08223,0.20823
2480.01070,0.20699
2481.93916,0.20752
2483.86763,0.20972
2485.79610,0.21260
2487.72457,0.21428
2489.65304,0.21332
2491.58151,0.21047
2493.50998,0.20877
2495.43844,0.21039
2497.36691,0.21187
2499.29538,0.21108
2501.22385,0.21129
2503.15232,0.21205
2505.08079,0.21087
2507.00926,0.20975
2508.93773,0.21023
2510.86619,0.21020
2512.79466,0.20904
2514.72313,0.20781
2516.65160,0.20583
2518.58007,0.20646
2520.50854,0.21197
2522.43701,0.21474
2524.36547,0.21188
2526.29394,0.20988
2528.22241,0.21126
2530.15088,0.21182
2532.07935,0.20895
2534.00782,0.20576
2535.93629,0.20595
2537.86476,0.20898
2539.79322,0.21056
2541.72169,0.20956
2543.65016,0.20915
2545.57863,0.20949
2547.50710,0.20936
2549.43557,0.21051
2551.36404,0.21241
2553.29250,0.21177
2555.22097,0.20911
2557.14944,0.20808
2559.07791,0.20890
2561.00638,0.20899
2562.93485,0.21042
2564.86332,0.21467
2566.79179,0.21606
2568.72025,0.21174
2570.64872,0.20739
2572.57719,0.20709
2574.50566,0.20818
2576.43413,0.20982
2578.36260,0.21286
2580.29107,0.21497
2582.21953,0.21421
2584.14800,0.21256
2586.07647,0.21247
2588.00494,0.21226
2589.93341,0.21072
2591.86188,0.20900
2593.79035,0.20844
2595.71882,0.21025
2597.64728,0.21343
2599.57575,0.21564
2601.50422,0.21533
2603.43269,0.21264
2605.36116,0.21028
2607.28963,0.21008
2609.21810,0.20942
2611.14656,0.20706
2613.07503,0.20612
2615.00350,0.20824
2616.93197,0.21036
2618.86044,0.20899
2620.78891,0.20644
2622.71738,0.20594
2624.64585,0.20670
2626.57431,0.20796
2628.50278,0.20905
2630.43125,0.20730
2632.35972,0.20431
2634.28819,0.20631
2636.21666,0.21143
2638.14513,0.21345
2640.07359,0.21331
2642.00206,0.21430
2643.93053,0.21632
2645.85900,0.21759
2647.78747,0.21742
2649.71594,0.21603
2651.64441,0.21397
2653.57288,0.21285
2655.50134,0.21364
2657.42981,0.21513
2659.35828,0.21548
2661.28675,0.21405
2663.21522,0.21279
2665.14369,0.21268
2667.07216,0.21184
2669.00062,0.21005
2670.92909,0.20998
2672.85756,0.21321
2674.78603,0.21628
2676.71450,0.21532
2678.64297,0.21258
2680.57144,0.21214
2682.49990,0.21360
2684.42837,0.21521
2686.35684,0.21827
2688.28531,0.22095
2690.21378,0.21899
2692.14225,0.21583
2694.07072,0.21627
2695.99919,0.21722
2697.92765,0.21624
2699.85612,0.21581
2701.78459,0.21676
2703.71306,0.21808
2705.64153,0.21796
2707.57000,0.21485
2709.49847,0.21158
2711.42693,0.21204
2713.35540,0.21574
2715.28387,0.21944
2717.21234,0.21969
2719.14081,0.21688
2721.06928,0.21611
2722.99775,0.21786
2724.92622,0.21851
2726.85468,0.21758
2728.78315,0.21578
2730.71162,0.21382
2732.64009,0.21232
2734.56856,0.21206
2736.49703,0.21339
2738.42550,0.21399
2740.35396,0.21350
2742.28243,0.21438
2744.21090,0.21620
2746.13937,0.21765
2748.06784,0.21915
2749.99631,0.22026
2751.92478,0.22114
2753.85325,0.22234
2755.78171,0.22236
2757.71018,0.22197
2759.63865,0.22381
2761.56712,0.22661
2763.49559,0.22709
2765.42406,0.22476
2767.35253,0.22238
2769.28099,0.22295
2771.20946,0.22506
2773.13793,0.22380
2775.06640,0.22075
2776.99487,0.22119
2778.92334,0.22278
2780.85181,0.22272
2782.78028,0.22286
2784.70874,0.22308
2786.63721,0.22178
2788.56568,0.22053
2790.49415,0.22133
2792.42262,0.22188
2794.35109,0.22027
2796.27956,0.21941
2798.20802,0.22187
2800.13649,0.22360
2802.06496,0.22306
2803.99343,0.22529
2805.92190,0.22951
2807.85037,0.23097
2809.77884,0.22780
2811.70731,0.22425
2813.63577,0.22539
2815.56424,0.22687
2817.49271,0.22674
2819.42118,0.22826
2821.34965,0.22886
2823.27812,0.22641
2825.20659,0.22423
2827.13505,0.22528
2829.06352,0.22820
2830.99199,0.22897
2832.92046,0.22617
2834.84893,0.22397
2836.77740,0.22500
2838.70587,0.22652
2840.63433,0.22757
2842.56280,0.22821
2844.49127,0.22699
2846.41974,0.22536
2848.34821,0.22536
2850.27668,0.22549
2852.20515,0.22545
2854.13362,0.22683
2856.06208,0.22834
2857.99055,0.22741
2859.91902,0.22346
2861.84749,0.22012
2863.77596,0.22117
2865.70443,0.22471
2867.63290,0.22736
2869.56136,0.22695
2871.48983,0.22629
2873.41830,0.22936
2875.34677,0.22965
2877.27524,0.22270
2879.20371,0.21649
2881.13218,0.21548
2883.06065,0.21524
2884.98911,0.21584
2886.91758,0.21971
2888.84605,0.22245
2890.77452,0.22204
2892.70299,0.22175
2894.63146,0.22207
2896.55993,0.22208
2898.48839,0.22122
2900.41686,0.22011
2902.34533,0.22137
2904.27380,0.22375
2906.20227,0.22471
2908.13074,0.22680
2910.05921,0.22900
2911.98768,0.22592
2913.91614,0.21896
2915.84461,0.21663
2917.77308,0.22257
2919.70155,0.22927
2921.63002,0.23012
2923.55849,0.22514
2925.48696,0.21731
2927.41542,0.21251
2929.34389,0.21282
2931.27236,0.21390
2933.20083,0.21443
2935.12930,0.21707
2937.05777,0.22033
2938.98624,0.22191
2940.91471,0.22404
2942.84317,0.22679
2944.77164,0.22644
2946.70011,0.22328
2948.62858,0.22124
2950.55705,0.22210
2952.48552,0.22618
2954.41399,0.22976
2956.34245,0.22516
2958.27092,0.21918
2960.19939,0.22304
2962.12786,0.22750
2964.05633,0.22579
2965.98480,0.22369
2967.91327,0.22227
2969.84174,0.22210
2971.77020,0.22398
2973.69867,0.22589
2975.62714,0.22420
2977.55561,0.21806
2979.48408,0.21444
2981.41255,0.21938
2983.34102,0.22828
2985.26948,0.23269
2987.19795,0.23282
2989.12642,0.23424
2991.05489,0.23699
2992.98336,0.23639
2994.91183,0.23164
2996.84030,0.22877
2998.76877,0.23062
3000.69723,0.23141
3002.62570,0.22949
3004.55417,0.23043
3006.48264,0.23351
3008.41111,0.23209
3010.33958,0.22098
3012.26805,0.20183
3014.19651,0.18214
3016.12498,0.17151
3018.05345,0.18354
3019.98192,0.21226
3021.91039,0.23032
3023.83886,0.23135
3025.76733,0.22862
3027.69579,0.22873
3029.62426,0.23170
3031.55273,0.23428
3033.48120,0.23407
3035.40967,0.23222
3037.33814,0.23049
3039.26661,0.23336
3041.19508,0.23918
3043.12354,0.23933
3045.05201,0.23481
3046.98048,0.23234
3048.90895,0.23272
3050.83742,0.23289
3052.76589,0.23195
3054.69436,0.22974
3056.62282,0.22697
3058.55129,0.22879
3060.47976,0.23127
3062.40823,0.22787
3064.33670,0.22499
3066.26517,0.22820
3068.19364,0.23689
3070.12211,0.24340
3072.05057,0.23895
3073.97904,0.22704
3075.90751,0.21697
3077.83598,0.21409
3079.76445,0.21847
3081.69292,0.22335
3083.62139,0.21773
3085.54985,0.20879
3087.47832,0.21215
3089.40679,0.21991
3091.33526,0.22048
3093.26373,0.21544
3095.19220,0.21425
3097.12067,0.22188
3099.04914,0.22782
3100.97760,0.22593
3102.90607,0.22149
3104.83454,0.22192
3106.76301,0.22968
3108.69148,0.23712
3110.61995,0.23516
3112.54842,0.22635
3114.47688,0.22170
3116.40535,0.22338
3118.33382,0.22728
3120.26229,0.23064
3122.19076,0.23158
3124.11923,0.23247
3126.04770,0.23247
3127.97617,0.22829
3129.90463,0.22403
3131.83310,0.22582
3133.76157,0.23234
3135.69004,0.23605
3137.61851,0.23448
3139.54698,0.23330
3141.47545,0.23411
3143.40391,0.23530
3145.33238,0.23839
3147.26085,0.24049
3149.18932,0.23906
3151.11779,0.23914
3153.04626,0.24347
3154.97473,0.24577
3156.90320,0.24166
3158.83166,0.23907
3160.76013,0.24259
3162.68860,0.24442
3164.61707,0.24175
3166.54554,0.23824
3168.47401,0.23423
3170.40248,0.23098
3172.33094,0.23060
3174.25941,0.23459
3176.18788,0.24210
3178.11635,0.24768
3180.04482,0.24819
3181.97329,0.24516
3183.90176,0.24111
3185.83022,0.23750
3187.75869,0.23810
3189.68716,0.24381
3191.61563,0.24466
3193.54410,0.23793
3195.47257,0.23586
3197.40104,0.24144
3199.32951,0.24300
3201.25797,0.23605
3203.18644,0.22855
3205.11491,0.22770
3207.04338,0.23188
3208.97185,0.23760
3210.90032,0.24344
3212.82879,0.24512
3214.75725,0.24092
3216.68572,0.23654
3218.61419,0.23796
3220.54266,0.24138
3222.47113,0.24184
3224.39960,0.24271
3226.32807,0.24271
3228.25654,0.23922
3230.18500,0.23715
3232.11347,0.23730
3234.04194,0.23724
3235.97041,0.23621
3237.89888,0.23247
3239.82735,0.22892
3241.75582,0.23054
3243.68428,0.23958
3245.61275,0.25129
3247.54122,0.24979
3249.46969,0.23399
3251.39816,0.22488
3253.32663,0.22728
3255.25510,0.22890
3257.18357,0.22855
3259.11203,0.22784
3261.04050,0.22873
3262.96897,0.23369
3264.89744,0.23671
3266.82591,0.23794
3268.75438,0.23941
3270.68285,0.23747
3272.61131,0.23417
3274.53978,0.23481
3276.46825,0.23940
3278.39672,0.24254
3280.32519,0.24096
3282.25366,0.23497
3284.18213,0.22937
3286.11060,0.22867
3288.03906,0.22914
3289.96753,0.22855
3291.89600,0.22880
3293.82447,0.23004
3295.75294,0.23313
3297.68141,0.23685
3299.60988,0.23638
3301.53834,0.23435
3303.46681,0.23716
3305.39528,0.24170
3307.32375,0.24149
3309.25222,0.23587
3311.18069,0.22783
3313.10916,0.22182
3315.03763,0.22250
3316.96609,0.22668
3318.89456,0.22784
3320.82303,0.22854
3322.75150,0.23058
3324.67997,0.23185
3326.60844,0.23413
3328.53691,0.23625
3330.46537,0.23563
3332.39384,0.23511
3334.32231,0.23671
3336.25078,0.23497
3338.17925,0.22820
3340.10772,0.22640
3342.03619,0.23104
3343.96466,0.23334
3345.89312,0.23261
3347.82159,0.23270
3349.75006,0.23488
3351.67853,0.23773
3353.60700,0.23774
3355.53547,0.23604
3357.46394,0.23757
3359.39240,0.24016
3361.32087,0.24009
3363.24934,0.23705
3365.17781,0.22969
3367.10628,0.22337
3369.03475,0.22616
3370.96322,0.23485
3372.89168,0.24051
3374.82015,0.24099
3376.74862,0.23982
3378.67709,0.24014
3380.60556,0.24158
3382.53403,0.24171
3384.46250,0.24158
3386.39097,0.24105
3388.31943,0.23738
3390.24790,0.23161
3392.17637,0.22740
3394.10484,0.22770
3396.03331,0.23275
3397.96178,0.23808
3399.89025,0.23713
3401.81871,0.23165
3403.74718,0.22768
3405.67565,0.22588
3407.60412,0.22822
3409.53259,0.23211
3411.46106,0.22843
3413.38953,0.22255
3415.31800,0.22546
3417.24646,0.23165
3419.17493,0.23186
3421.10340,0.22889
3423.03187,0.22852
3424.96034,0.22895
3426.88881,0.22870
3428.81728,0.23004
3430.74574,0.23092
3432.67421,0.22747
3434.60268,0.22281
3436.53115,0.22121
3438.45962,0.22114
3440.38809,0.22122
3442.31656,0.22096
3444.24503,0.22214
3446.17349,0.22572
3448.10196,0.22448
3450.03043,0.21757
3451.95890,0.21498
3453.88737,0.21879
3455.81584,0.22137
3457.74431,0.22237
3459.67277,0.22559
3461.60124,0.22655
3463.52971,0.22363
3465.45818,0.22061
3467.38665,0.21796
3469.31512,0.21699
3471.24359,0.21779
3473.17206,0.21394
3475.10052,0.20674
3477.02899,0.20673
3478.95746,0.21319
3480.88593,0.21737
3482.81440,0.21690
3484.74287,0.21559
3486.67134,0.21580
3488.59980,0.21529
3490.52827,0.21205
3492.45674,0.20850
3494.38521,0.20840
3496.31368,0.20932
3498.24215,0.20831
3500.17062,0.20919
3502.09909,0.20942
3504.02755,0.20409
3505.95602,0.20060
3507.88449,0.20281
3509.81296,0.20387
3511.74143,0.20140
3513.66990,0.20009
3515.59837,0.19892
3517.52683,0.19657
3519.45530,0.19718
3521.38377,0.19781
3523.31224,0.19469
3525.24071,0.19514
3527.16918,0.19845
3529.09765,0.19462
3531.02611,0.18710
3532.95458,0.18473
3534.88305,0.18697
3536.81152,0.18821
3538.73999,0.18732
3540.66846,0.18800
3542.59693,0.19150
3544.52540,0.19738
3546.45386,0.19954
3548.38233,0.19456
3550.31080,0.19303
3552.23927,0.19443
3554.16774,0.18854
3556.09621,0.18097
3558.02468,0.17872
3559.95314,0.18275
3561.88161,0.19064
3563.81008,0.19312
3565.73855,0.18917
3567.66702,0.18367
3569.59549,0.17706
3571.52396,0.17477
3573.45243,0.17975
3575.38089,0.18489
3577.30936,0.18274
3579.23783,0.17778
3581.16630,0.17705
3583.09477,0.18092
3585.02324,0.18573
3586.95171,0.18482
3588.88017,0.17504
3590.80864,0.16674
3592.73711,0.16574
3594.66558,0.17035
3596.59405,0.17679
3598.52252,0.18210
3600.45099,0.18108
3602.37946,0.17168
3604.30792,0.16406
3606.23639,0.16583
3608.16486,0.17090
3610.09333,0.17091
3612.02180,0.17008
3613.95027,0.17136
3615.87874,0.17269
3617.80720,0.17505
3619.73567,0.17603
3621.66414,0.17013
3623.59261,0.16388
3625.52108,0.16425
3627.44955,0.16976
3629.37802,0.17049
3631.30649,0.16512
3633.23495,0.16288
3635.16342,0.16273
3637.09189,0.16169
3639.02036,0.15971
3640.94883,0.15786
3642.87730,0.15767
3644.80577,0.16113
3646.73423,0.17030
3648.66270,0.17908
3650.59117,0.17052
3652.51964,0.15746
3654.44811,0.15080
3656.37658,0.14907
3658.30505,0.15000
3660.23352,0.14959
3662.16198,0.14812
3664.09045,0.14902
3666.01892,0.15308
3667.94739,0.15973
3669.87586,0.16477
3671.80433,0.16205
3673.73280,0.16454
3675.66126,0.17512
3677.58973,0.17082
3679.51820,0.15810
3681.44667,0.15022
3683.37514,0.14839
3685.30361,0.15116
3687.23208,0.15536
3689.16055,0.15603
3691.08901,0.15176
3693.01748,0.14835
3694.94595,0.14803
3696.87442,0.14942
3698.80289,0.15234
3700.73136,0.15491
3702.65983,0.15071
3704.58829,0.14428
3706.51676,0.14443
3708.44523,0.14982
3710.37370,0.15351
3712.30217,0.14962
3714.23064,0.14595
3716.15911,0.14844
3718.08757,0.15204
3720.01604,0.15308
3721.94451,0.15773
3723.87298,0.16237
3725.80145,0.15415
3727.72992,0.14649
3729.65839,0.15492
3731.58686,0.16937
3733.51532,0.17425
3735.44379,0.16767
3737.37226,0.15822
3739.30073,0.15281
3741.22920,0.15287
3743.15767,0.15545
3745.08614,0.15517
3747.01460,0.15575
3748.94307,0.16416
3750.87154,0.17162
3752.80001,0.16589
3754.72848,0.15738
3756.65695,0.15290
3758.58542,0.15198
3760.51389,0.14972
3762.44235,0.14815
3764.37082,0.14844
3766.29929,0.14503
3768.22776,0.14206
3770.15623,0.14338
3772.08470,0.14230
3774.01317,0.13967
3775.94163,0.13884
3777.87010,0.14026
3779.79857,0.14184
3781.72704,0.14117
3783.65551,0.14103
3785.58398,0.14070
3787.51245,0.13851
3789.44092,0.13676
3791.36938,0.13793
3793.29785,0.14241
3795.22632,0.14559
3797.15479,0.14421
3799.08326,0.14670
3801.01173,0.15657
3802.94020,0.15470
3804.86866,0.14461
3806.79713,0.14195
3808.72560,0.14199
3810.65407,0.14304
3812.58254,0.14815
3814.51101,0.15340
3816.43948,0.15601
3818.36795,0.15865
3820.29641,0.15963
3822.22488,0.15153
3824.15335,0.14271
3826.08182,0.14095
3828.01029,0.14441
3829.93876,0.14846
3831.86723,0.14893
3833.79569,0.14763
3835.72416,0.15291
3837.65263,0.16426
3839.58110,0.16429
3841.50957,0.15035
3843.43804,0.13685
3845.36651,0.12959
3847.29498,0.12721
3849.22344,0.12743
3851.15191,0.13293
3853.08038,0.14750
3855.00885,0.14851
3856.93732,0.13972
3858.86579,0.13688
3860.79426,0.13791
3862.72272,0.14132
3864.65119,0.14083
3866.57966,0.13466
3868.50813,0.13409
3870.43660,0.14158
3872.36507,0.14707
3874.29354,0.14526
3876.22200,0.13648
3878.15047,0.12870
3880.07894,0.12912
3882.00741,0.13408
3883.93588,0.13970
3885.86435,0.14323
3887.79282,0.13915
3889.72129,0.13700
3891.64975,0.13944
3893.57822,0.13483
3895.50669,0.12729
3897.43516,0.12837
3899.36363,0.13823
3901.29210,0.14827
3903.22057,0.15024
3905.14903,0.13560
3907.07750,0.11733
3909.00597,0.11670
3910.93444,0.12899
3912.86291,0.13616
3914.79138,0.13617
3916.71985,0.13509
3918.64832,0.13234
3920.57678,0.13040
3922.50525,0.12877
3924.43372,0.12272
3926.36219,0.11737
3928.29066,0.11902
3930.21913,0.12333
3932.14760,0.12573
3934.07606,0.12694
3936.00453,0.12787
3937.93300,0.12776
3939.86147,0.12684
3941.78994,0.12471
3943.71841,0.12164
3945.64688,0.11936
3947.57535,0.11830
3949.50381,0.12144
3951.43228,0.12644
3953.36075,0.12648
3955.28922,0.12306
3957.21769,0.12110
3959.14616,0.12075
3961.07463,0.11987
3963.00309,0.11861
3964.93156,0.11772
3966.86003,0.11763
3968.78850,0.11752
3970.71697,0.11856
3972.64544,0.12223
3974.57391,0.12494
3976.50238,0.12421
3978.43084,0.12031
3980.35931,0.11610
3982.28778,0.11499
3984.21625,0.11603
3986.14472,0.11730
3988.07319,0.11858
3990.00166,0.12019
3991.93012,0.12057
3993.85859,0.11749
3995.78706,0.11313
3997.71553,0.11159
3999.64400,0.11106
4001.57247,0.10956
4003.50094,0.10998
4005.42941,0.11170
4007.35787,0.11124
4009.28634,0.10853
4011.21481,0.10701
4013.14328,0.10910
4015.07175,0.11175
4017.00022,0.11137
4018.92869,0.11044
4020.85715,0.11177
4022.78562,0.11266
4024.71409,0.11148
4026.64256,0.11078
4028.57103,0.11126
4030.49950,0.11140
4032.42797,0.10943
4034.35644,0.10478
4036.28490,0.10224
4038.21337,0.10429
4040.14184,0.10689
4042.07031,0.10775
4043.99878,0.10654
4045.92725,0.10354
4047.85572,0.10075
4049.78418,0.09998
4051.71265,0.10070
4053.64112,0.10114
4055.56959,0.10355
4057.49806,0.11137
4059.42653,0.11802
4061.35500,0.11513
4063.28346,0.10866
4065.21193,0.10765
4067.14040,0.11228
4069.06887,0.11832
4070.99734,0.12061
4072.92581,0.11658
4074.85428,0.10893
4076.78275,0.10233
4078.71121,0.10040
4080.63968,0.10227
4082.56815,0.10326
4084.49662,0.10321
4086.42509,0.10345
4088.35356,0.10332
4090.28203,0.10291
4092.21049,0.10031
4094.13896,0.09508
4096.06743,0.09133
4097.99590,0.09072
4099.92437,0.09131
4101.85284,0.09336
4103.78131,0.09435
4105.70978,0.09086
4107.63824,0.09004
4109.56671,0.09597
4111.49518,0.10104
4113.42365,0.10322
4115.35212,0.10555
4117.28059,0.10548
4119.20906,0.10228
4121.13752,0.09906
4123.06599,0.09632
4124.99446,0.09600
4126.92293,0.10093
4128.85140,0.10569
4130.77987,0.10557
4132.70834,0.10301
4134.63681,0.09838
4136.56527,0.09518
4138.49374,0.09460
4140.42221,0.09222
4142.35068,0.09034
4144.27915,0.09039
4146.20762,0.09181
4148.13609,0.09447
4150.06455,0.09402
4151.99302,0.08961
4153.92149,0.08665
4155.84996,0.08993
4157.77843,0.09533
4159.70690,0.09430
4161.63537,0.08844
4163.56384,0.08569
4165.49230,0.08943
4167.42077,0.09772
4169.34924,0.10287
4171.27771,0.09900
4173.20618,0.09260
4175.13465,0.09011
4177.06312,0.08800
4178.99158,0.08570
4180.92005,0.08499
4182.84852,0.08270
4184.77699,0.07905
4186.70546,0.08000
4188.63393,0.08744
4190.56240,0.09025
4192.49087,0.08180
4194.41933,0.07475
4196.34780,0.07673
4198.27627,0.08132
4200.20474,0.08290
4202.13321,0.08031
4204.06168,0.07529
4205.99015,0.07223
4207.91861,0.07456
4209.84708,0.08178
4211.77555,0.08978
4213.70402,0.09210
4215.63249,0.08503
4217.56096,0.07688
4219.48943,0.07679
4221.41789,0.08060
4223.34636,0.08367
4225.27483,0.08490
4227.20330,0.08425
4229.13177,0.08386
4231.06024,0.08481
4232.98871,0.08806
4234.91718,0.08819
4236.84564,0.08470
4238.77411,0.08583
4240.70258,0.08559
4242.63105,0.07572
4244.55952,0.06533
4246.48799,0.06456
4248.41646,0.07054
4250.34492,0.07710
4252.27339,0.08103
4254.20186,0.07830
4256.13033,0.07145
4258.05880,0.07020
4259.98727,0.07558
4261.91574,0.07987
4263.84421,0.07911
4265.77267,0.07374
4267.70114,0.06707
4269.62961,0.06415
4271.55808,0.06710
4273.48655,0.07227
4275.41502,0.07674
4277.34349,0.08223
4279.27195,0.08084
4281.20042,0.06877
4283.12889,0.06307
4285.05736,0.06915
4286.98583,0.07376
4288.91430,0.07331
4290.84277,0.07233
4292.77124,0.06886
4294.69970,0.06447
4296.62817,0.06759
4298.55664,0.07402
4300.48511,0.07249
4302.41358,0.06323
4304.34205,0.05471
4306.27052,0.05163
4308.19898,0.05246
4310.12745,0.05741
4312.05592,0.06491
4313.98439,0.06970
4315.91286,0.06917
4317.84133,0.06518
4319.76980,0.06378
4321.69827,0.06436
4323.62673,0.06237
4325.55520,0.05891
4327.48367,0.05331
4329.41214,0.04926
4331.34061,0.05313
4333.26908,0.05724
4335.19755,0.05367
4337.12601,0.05014
4339.05448,0.05315
4340.98295,0.05721
4342.91142,0.05793
4344.83989,0.05579
4346.76836,0.05138
4348.69683,0.04873
4350.62530,0.05141
4352.55376,0.05820
4354.48223,0.06310
4356.41070,0.05952
4358.33917,0.05321
4360.26764,0.05132
4362.19611,0.04825
4364.12458,0.04240
4366.05304,0.03953
4367.98151,0.03993
4369.90998,0.04232
4371.83845,0.04516
4373.76692,0.04635
4375.69539,0.04693
4377.62386,0.04514
4379.55232,0.04050
4381.48079,0.04063
4383.40926,0.04988
4385.33773,0.05917
4387.26620,0.05713
4389.19467,0.04734
4391.12314,0.03994
4393.05161,0.04065
4394.98007,0.04839
4396.90854,0.05234
4398.83701,0.05041
4400.76548,0.05052
4402.69395,0.05105
4404.62242,0.04887
4406.55089,0.04302
4408.47935,0.03363
4410.40782,0.03010
4412.33629,0.03433
4414.26476,0.03812
4416.19323,0.04223
4418.12170,0.04692
4420.05017,0.04739
4421.97864,0.04519
4423.90710,0.04576
4425.83557,0.05018
4427.76404,0.05251
4429.69251,0.05159
4431.62098,0.05158
4433.54945,0.04618
4435.47792,0.03019
4437.40638,0.01497
4439.33485,0.01334
4441.26332,0.02124
4443.19179,0.02686
4445.12026,0.03104
4447.04873,0.03826
4448.97720,0.04157
4450.90567,0.03734
4452.83413,0.03326
4454.76260,0.03532
4456.69107,0.04259
4458.61954,0.05027
4460.54801,0.05095
4462.47648,0.04171
4464.40495,0.03253
4466.33341,0.03191
4468.26188,0.03403
4470.19035,0.03170
4472.11882,0.02638
4474.04729,0.02700
4475.97576,0.03144
4477.90423,0.02742
4479.83270,0.02086
4481.76116,0.02322
4483.68963,0.03258
4485.61810,0.04173
4487.54657,0.04342
4489.47504,0.03490
4491.40351,0.02745
4493.33198,0.03322
4495.26044,0.04028
4497.18891,0.03623
4499.11738,0.03067
4501.04585,0.03125
4502.97432,0.02979
4504.90279,0.01995
4506.83126,0.01100
4508.75973,0.01561
4510.68819,0.02442
4512.61666,0.02267
4514.54513,0.02303
4516.47360,0.03157
4518.40207,0.02920
4520.33054,0.01794
4522.25901,0.01798
4524.18747,0.02384
4526.11594,0.01968
4528.04441,0.01063
4529.97288,0.00444
4531.90135,0.00523
4533.82982,0.01706
4535.75829,0.03006
4537.68676,0.03067
4539.61522,0.01959
4541.54369,0.00899
4543.47216,0.00825
4545.40063,0.01292
4547.32910,0.01377
4549.25757,0.01528
4551.18604,0.02036
4553.11450,0.01681
4555.04297,0.00648
4556.97144,0.00657
4558.89991,0.01546
4560.82838,0.01627
4562.75685,0.00804
4564.68532,0.00298
4566.61378,0.00726
4568.54225,0.01659
4570.47072,0.02211
4572.39919,0.02090
4574.32766,0.01452
4576.25613,0.00967
4578.18460,0.01273
4580.11307,0.01803
4582.04153,0.01746
4583.97000,0.00799
4585.89847,-0.00298
4587.82694,-0.00267
4589.75541,0.00821
4591.68388,0.01563
4593.61235,0.01347
4595.54081,0.01083
4597.46928,0.01192
4599.39775,0.01351
4601.32622,0.01430
4603.25469,0.01568
4605.18316,0.01764
4607.11163,0.01177
4609.04010,0.00064
4610.96856,0.00045
4612.89703,0.00691
4614.82550,0.00328
4616.75397,-0.00702
4618.68244,-0.00853
4620.61091,0.00072
4622.53938,0.00764
4624.46784,0.00586
4626.39631,0.00473
4628.32478,0.00899
4630.25325,0.00757
4632.18172,-0.00349
4634.11019,-0.00807
4636.03866,-0.00118
4637.96713,0.00317
4639.89559,0.00486
4641.82406,0.01039
4643.75253,0.01430
4645.68100,0.01378
4647.60947,0.01483
4649.53794,0.01861
4651.46641,0.02005
4653.39487,0.02165
4655.32334,0.02371
4657.25181,0.01845
4659.18028,0.01132
4661.10875,0.00654
4663.03722,0.00073
4664.96569,0.00349
4666.89416,0.01082
4668.82262,0.00791
4670.75109,0.00085
4672.67956,-0.00711
4674.60803,-0.01449
4676.53650,-0.00854
4678.46497,0.00498
4680.39344,0.01350
4682.32190,0.02023
4684.25037,0.01900
4686.17884,0.00602
4688.10731,0.00088
4690.03578,0.00761
4691.96425,0.00886
4693.89272,0.00378
4695.82119,0.00266
4697.74965,0.00670
4699.67812,0.01213
4701.60659,0.01655
4703.53506,0.01756
4705.46353,0.01538
4707.39200,0.01200
4709.32047,0.00310
4711.24893,-0.00899
4713.17740,-0.00899
4715.10587,0.00316
4717.03434,0.00957
4718.96281,0.00390
4720.89128,-0.00308
4722.81975,-0.00001
4724.74821,0.01137
4726.67668,0.01381
4728.60515,0.00051
4730.53362,-0.00903
4732.46209,-0.00244
4734.39056,0.00601
4736.31903,0.00336
4738.24750,-0.00051
4740.17596,0.00403
4742.10443,0.00907
4744.03290,0.01084
4745.96137,0.01272
4747.88984,0.01253
4749.81831,0.01557
4751.74678,0.03099
4753.67524,0.04095
4755.60371,0.02542
4757.53218,-0.00176
4759.46065,-0.02161
4761.38912,-0.02306
4763.31759,-0.00558
4765.24606,0.00945
4767.17453,0.01283
4769.10299,0.01552
4771.03146,0.01646
4772.95993,0.01067
4774.88840,0.00611
4776.81687,0.00558
4778.74534,0.00421
4780.67381,0.00124
4782.60227,-0.00178
4784.53074,0.00006
4786.45921,0.00608
4788.38768,0.00890
4790.31615,0.00768
4792.24462,0.00475
4794.17309,0.00112
4796.10156,-0.00054
4798.03002,-0.00175
4799.95849,-0.00267
4801.88696,0.00640
4803.81543,0.01987
4805.74390,0.01902
4807.67237,0.00896
4809.60084,0.00131
4811.52930,-0.00588
4813.45777,-0.01030
4815.38624,-0.00592
4817.31471,0.00591
4819.24318,0.01795
4821.17165,0.02121
4823.10012,0.01738
4825.02859,0.01511
4826.95705,0.01481
4828.88552,0.01452
4830.81399,0.01132
4832.74246,0.00538
4834.67093,0.00113
4836.59940,-0.00090
4838.52787,0.00127
4840.45633,0.00966
4842.38480,0.02080
4844.31327,0.02948
4846.24174,0.02994
4848.17021,0.01902
4850.09868,0.00654
4852.02715,0.00475
4853.95562,0.00932
4855.88408,0.01197
4857.81255,0.01525
4859.74102,0.02314
4861.66949,0.02803
4863.59796,0.02009
4865.52643,0.00286
4867.45490,-0.00680
4869.38336,0.00501
4871.31183,0.02713
4873.24030,0.02849
4875.16877,0.00290
4877.09724,-0.02111
4879.02571,-0.03427
4880.95418,-0.03859
4882.88265,-0.02245
4884.81111,0.00422
4886.73958,0.01624
4888.66805,0.00863
4890.59652,-0.00180
4892.52499,0.00170
4894.45346,0.01300
4896.38193,0.01760
4898.31039,0.01335
4900.23886,0.00632
4902.16733,0.00568
4904.09580,0.01002
4906.02427,0.01009
4907.95274,0.01059
4909.88121,0.01378
4911.80967,0.00552
4913.73814,-0.01626
4915.66661,-0.02670
4917.59508,-0.01530
4919.52355,-0.00008
4921.45202,0.00638
4923.38049,0.00532
4925.30896,0.00624
4927.23742,0.01220
4929.16589,0.02310
4931.09436,0.03262
4933.02283,0.02148
4934.95130,0.00198
4936.87977,-0.00287
4938.80824,0.00010
4940.73670,0.00562
4942.66517,0.01225
4944.59364,0.00778
4946.52211,-0.00420
4948.45058,-0.00315
4950.37905,0.01005
4952.30752,0.01517
4954.23599,0.00703
4956.16445,0.00300
4958.09292,0.00916
4960.02139,0.01748
4961.94986,0.02587
4963.87833,0.02233
4965.80680,0.00806
4967.73527,0.01060
4969.66373,0.02693
4971.59220,0.02938
4973.52067,0.01643
4975.44914,0.00717
4977.37761,0.00953
4979.30608,0.01623
4981.23455,0.02093
4983.16302,0.02337
4985.09148,0.02248
4987.01995,0.02026
4988.94842,0.01934
4990.87689,0.01320
4992.80536,0.00114
4994.73383,-0.00289
4996.66230,0.01039
4998.59076,0.02902
5000.51923,0.03447
5002.44770,0.02654
5004.37617,0.01290
5006.30464,0.00103
5008.23311,0.00378
5010.16158,0.01656
5012.09005,0.01831
5014.01851,0.01141
5015.94698,0.01649
5017.87545,0.03279
5019.80392,0.03608
5021.73239,0.01749
5023.66086,-0.00121
5025.58933,-0.00288
5027.51779,0.00757
5029.44626,0.01459
5031.37473,0.00992
5033.30320,0.00851
5035.23167,0.01951
5037.16014,0.02908
5039.08861,0.02883
5041.01708,0.02752
5042.94554,0.02943
5044.87401,0.02635
5046.80248,0.02034
5048.73095,0.01953
5050.65942,0.02526
5052.58789,0.03607
5054.51636,0.04742
5056.44482,0.04711
5058.37329,0.03349
5060.30176,0.02893
5062.23023,0.03989
5064.15870,0.04705
5066.08717,0.03787
5068.01564,0.02404
5069.94410,0.02179
5071.87257,0.02423
5073.80104,0.01632
5075.72951,-0.00219
5077.65798,-0.00611
5079.58645,0.01414
5081.51492,0.03055
5083.44339,0.03125
5085.37185,0.02791
5087.30032,0.03030
5089.22879,0.03719
5091.15726,0.03902
5093.08573,0.03738
5095.01420,0.03691
5096.94267,0.03611
5098.87113,0.03822
5100.79960,0.04621
5102.72807,0.06237
5104.65654,0.07070
5106.58501,0.05284
5108.51348,0.03589
5110.44195,0.04166
5112.37042,0.04986
5114.29888,0.04206
5116.22735,0.02955
5118.15582,0.03499
5120.08429,0.05382
5122.01276,0.06003
5123.94123,0.04818
5125.86970,0.03587
5127.79816,0.02793
5129.72663,0.02199
5131.65510,0.02224
5133.58357,0.02160
5135.51204,0.01595
5137.44051,0.01596
5139.36898,0.02369
5141.29745,0.02989
5143.22591,0.03835
5145.15438,0.05237
5147.08285,0.05682
5149.01132,0.04763
5150.93979,0.02544
5152.86826,-0.00835
5154.79673,-0.02216
5156.72519,0.00102
5158.65366,0.02964
5160.58213,0.04422
5162.51060,0.04937
5164.43907,0.04893
5166.36754,0.04130
5168.29601,0.03163
5170.22448,0.03454
5172.15294,0.04317
5174.08141,0.04649
5176.00988,0.05499
5177.93835,0.07065
5179.86682,0.07471
5181.79529,0.06494
5183.72376,0.05898
5185.65222,0.05045
5187.58069,0.02813
5189.50916,0.00683
5191.43763,0.00336
5193.36610,0.02066
5195.29457,0.04896
5197.22304,0.06974
5199.15151,0.06952
5201.07997,0.05804
5203.00844,0.05723
5204.93691,0.07051
5206.86538,0.06638
5208.79385,0.03741
5210.72232,0.02055
5212.65079,0.02288
5214.57925,0.02849
5216.50772,0.02998
5218.43619,0.03758
5220.36466,0.05812
5222.29313,0.07319
5224.22160,0.06469
5226.15007,0.04344
5228.07854,0.03993
5230.00700,0.05410
5231.93547,0.05765
5233.86394,0.03634
5235.79241,0.01588
5237.72088,0.02489
5239.64935,0.04987
5241.57782,0.06442
5243.50628,0.05976
5245.43475,0.04322
5247.36322,0.03859
5249.29169,0.04819
5251.22016,0.04693
5253.14863,0.03901
5255.07710,0.04147
5257.00556,0.04960
5258.93403,0.05150
5260.86250,0.03682
5262.79097,0.02359
5264.71944,0.04229
5266.64791,0.07074
5268.57638,0.08403
5270.50485,0.08157
5272.43331,0.06977
5274.36178,0.06725
5276.29025,0.07070
5278.21872,0.06784
5280.14719,0.06135
5282.07566,0.04933
5284.00413,0.04260
5285.93259,0.05191
5287.86106,0.06363
5289.78953,0.06743
5291.71800,0.06175
5293.64647,0.05597
5295.57494,0.05384
5297.50341,0.04679
5299.43188,0.04258
5301.36034,0.05893
5303.28881,0.08402
5305.21728,0.08684
5307.14575,0.07240
5309.07422,0.06099
5311.00269,0.05171
5312.93116,0.04913
5314.85962,0.05468
5316.78809,0.06176
5318.71656,0.07121
5320.64503,0.06843
5322.57350,0.04288
5324.50197,0.02619
5326.43044,0.04243
5328.35891,0.06408
5330.28737,0.06984
5332.21584,0.07066
5334.14431,0.07355
5336.07278,0.07450
5338.00125,0.06361
5339.92972,0.04303
5341.85819,0.02841
5343.78665,0.03217
5345.71512,0.05015
5347.64359,0.05117
5349.57206,0.04077
5351.50053,0.04346
5353.42900,0.05412
5355.35747,0.05816
5357.28594,0.05108
5359.21440,0.03882
5361.14287,0.03275
5363.07134,0.04031
5364.99981,0.06168
5366.92828,0.08077
5368.85675,0.08947
5370.78522,0.09375
5372.71368,0.09729
5374.64215,0.10895
5376.57062,0.11631
5378.49909,0.10503
5380.42756,0.10547
5382.35603,0.11989
5384.28450,0.12233
5386.21297,0.10814
5388.14143,0.08567
5390.06990,0.06884
5391.99837,0.07216
5393.92684,0.08426
5395.85531,0.08221
5397.78378,0.06509
5399.71225,0.04073
5401.64071,0.03424
5403.56918,0.05701
5405.49765,0.07146
5407.42612,0.06061
5409.35459,0.04409
5411.28306,0.03903
5413.21153,0.06333
5415.13999,0.09201
5417.06846,0.08413
5418.99693,0.07030
5420.92540,0.08458
5422.85387,0.09444
5424.78234,0.07619
5426.71081,0.05586
5428.63928,0.06179
5430.56774,0.09008
5432.49621,0.10808
5434.42468,0.09520
5436.35315,0.05519
5438.28162,0.02384
5440.21009,0.02503
5442.13856,0.04376
5444.06702,0.06007
5445.99549,0.06971
5447.92396,0.07186
5449.85243,0.07113
5451.78090,0.06985
5453.70937,0.06787
5455.63784,0.06300
5457.56631,0.05530
5459.49477,0.06054
5461.42324,0.08142
5463.35171,0.09442
5465.28018,0.09641
5467.20865,0.09778
5469.13712,0.09893
5471.06559,0.10148
5472.99405,0.10044
5474.92252,0.08457
5476.85099,0.05823
5478.77946,0.04409
5480.70793,0.04103
5482.63640,0.03887
5484.56487,0.04579
5486.49334,0.05905
5488.42180,0.05815
5490.35027,0.04849
5492.27874,0.06396
5494.20721,0.08471
5496.13568,0.07896
5498.06415,0.07989
5499.99262,0.09498
5501.92108,0.10089
5503.84955,0.09873
5505.77802,0.09157
5507.70649,0.07972
5509.63496,0.06835
5511.56343,0.05111
5513.49190,0.02646
5515.42037,0.02975
5517.34883,0.06264
5519.27730,0.07215
5521.20577,0.05308
5523.13424,0.03951
5525.06271,0.04244
5526.99118,0.05470
5528.91965,0.07565
5530.84811,0.09887
5532.77658,0.10509
5534.70505,0.08606
5536.63352,0.05527
5538.56199,0.04507
5540.49046,0.05901
5542.41893,0.06989
5544.34740,0.07044
5546.27586,0.07119
5548.20433,0.08017
5550.13280,0.09098
5552.06127,0.10232
5553.98974,0.12389
5555.91821,0.14005
5557.84668,0.13047
5559.77514,0.11204
5561.70361,0.10962
5563.63208,0.11801
5565.56055,0.11715
5567.48902,0.10886
5569.41749,0.10005
5571.34596,0.08239
5573.27443,0.07281
5575.20289,0.08833
5577.13136,0.10105
5579.05983,0.09537
5580.98830,0.08407
5582.91677,0.08038
5584.84524,0.08764
5586.77371,0.09495
5588.70217,0.08095
5590.63064,0.05215
5592.55911,0.03559
5594.48758,0.03143
5596.41605,0.04205
5598.34452,0.06644
5600.27299,0.08765
5602.20145,0.09120
5604.12992,0.06934
5606.05839,0.05088
5607.98686,0.06746
5609.91533,0.09778
5611.84380,0.10694
5613.77227,0.10088
5615.70074,0.09700
5617.62920,0.09114
5619.55767,0.07365
5621.48614,0.04567
5623.41461,0.03647
5625.34308,0.06519
5627.27155,0.10365
5629.20002,0.10974
5631.12848,0.07522
5633.05695,0.02855
5634.98542,0.00107
5636.91389,0.00391
5638.84236,0.02700
5640.77083,0.05791
5642.69930,0.08811
5644.62777,0.09270
5646.55623,0.06395
5648.48470,0.04984
5650.41317,0.07069
5652.34164,0.08679
5654.27011,0.08016
5656.19858,0.08336
5658.12705,0.11885
5660.05551,0.14959
5661.98398,0.13396
5663.91245,0.09834
5665.84092,0.08315
5667.76939,0.08259
5669.69786,0.09704
5671.62633,0.12694
5673.55480,0.14157
5675.48326,0.13890
5677.41173,0.12513
5679.34020,0.09286
5681.26867,0.07503
5683.19714,0.08639
5685.12561,0.09131
5687.05408,0.08396
5688.98254,0.08263
5690.91101,0.09195
5692.83948,0.10092
5694.76795,0.09494
5696.69642,0.09147
5698.62489,0.09278
5700.55336,0.07684
5702.48183,0.06992
5704.41029,0.08707
5706.33876,0.10242
5708.26723,0.10635
5710.19570,0.09526
5712.12417,0.07443
5714.05264,0.07424
5715.98111,0.09512
5717.90957,0.10224
5719.83804,0.08463
5721.76651,0.07183
5723.69498,0.08985
5725.62345,0.11250
5727.55192,0.09807
5729.48039,0.06651
5731.40886,0.06595
5733.33732,0.08651
5735.26579,0.09839
5737.19426,0.10393
5739.12273,0.11226
5741.05120,0.10976
5742.97967,0.09766
5744.90814,0.09359
5746.83660,0.09768
5748.76507,0.11008
5750.69354,0.11832
5752.62201,0.09297
5754.55048,0.04762
5756.47895,0.03596
5758.40742,0.06846
5760.33588,0.09636
5762.26435,0.09176
5764.19282,0.07435
5766.12129,0.06135
5768.04976,0.04906
5769.97823,0.03908
5771.90670,0.02919
5773.83517,0.02677
5775.76363,0.06105
5777.69210,0.10325
5779.62057,0.11311
5781.54904,0.11138
5783.47751,0.09543
5785.40598,0.05779
5787.33445,0.03408
5789.26291,0.03557
5791.19138,0.04373
5793.11985,0.04859
5795.04832,0.06528
5796.97679,0.10173
5798.90526,0.12268
5800.83373,0.12341
5802.76220,0.12963
5804.69066,0.12896
5806.61913,0.09227
5808.54760,0.04194
5810.47607,0.01889
5812.40454,0.01732
5814.33301,0.03297
5816.26148,0.07445
5818.18994,0.12036
5820.11841,0.14999
5822.04688,0.16767
5823.97535,0.18545
5825.90382,0.18803
5827.83229,0.15243
5829.76076,0.10218
5831.68923,0.06804
5833.61769,0.06568
5835.54616,0.09449
5837.47463,0.09960
5839.40310,0.09109
5841.33157,0.12185
5843.26004,0.14863
5845.18851,0.14520
5847.11697,0.13911
5849.04544,0.12538
5850.97391,0.11259
5852.90238,0.12469
5854.83085,0.12008
5856.75932,0.07154
5858.68779,0.03687
5860.61626,0.04751
5862.54472,0.08096
5864.47319,0.08102
5866.40166,0.03625
5868.33013,0.03172
5870.25860,0.06401
5872.18707,0.07449
5874.11554,0.09498
5876.04400,0.14355
5877.97247,0.18096
5879.90094,0.17440
5881.82941,0.10519
5883.75788,0.01703
5885.68635,-0.01512
5887.61482,0.00448
5889.54329,0.03278
5891.47175,0.05321
5893.40022,0.04942
5895.32869,0.05034
5897.25716,0.08679
5899.18563,0.10961
5901.11410,0.09945
5903.04257,0.08547
5904.97103,0.06718
5906.89950,0.05245
5908.82797,0.06621
5910.75644,0.07626
5912.68491,0.04946
5914.61338,0.02805
5916.54185,0.03710
5918.47032,0.06217
5920.39878,0.08716
5922.32725,0.10554
5924.25572,0.11844
5926.18419,0.11540
5928.11266,0.09602
5930.04113,0.06587
5931.96960,0.03912
5933.89806,0.03866
5935.82653,0.06092
5937.75500,0.08628
5939.68347,0.11987
5941.61194,0.16146
5943.54041,0.17072
5945.46888,0.13350
5947.39734,0.10434
5949.32581,0.13330
5951.25428,0.17387
5953.18275,0.16554
5955.11122,0.13721
5957.03969,0.11012
5958.96816,0.09249
5960.89663,0.12278
5962.82509,0.17050
5964.75356,0.16982
5966.68203,0.12401
5968.61050,0.08502
5970.53897,0.09380
5972.46744,0.10730
5974.39591,0.06878
5976.32437,0.03763
5978.25284,0.06333
5980.18131,0.07809
5982.10978,0.03302
5984.03825,-0.00167
5985.96672,0.02152
5987.89519,0.04762
5989.82366,0.04944
5991.75212,0.04300
5993.68059,0.04146
5995.60906,0.05241
5997.53753,0.07403
5999.46600,0.10828
6001.39447,0.13269
6003.32294,0.10772
6005.25140,0.05154
6007.17987,0.03158
6009.10834,0.06788
6011.03681,0.11271
6012.96528,0.13487
6014.89375,0.14182
6016.82222,0.12889
6018.75069,0.10795
6020.67915,0.10226
6022.60762,0.09963
6024.53609,0.07717
6026.46456,0.03388
6028.39303,0.01704
6030.32150,0.05320
6032.24997,0.08403
6034.17843,0.07210
6036.10690,0.04402
6038.03537,0.04439
6039.96384,0.07903
6041.89231,0.09306
6043.82078,0.06549
6045.74925,0.03620
6047.67772,0.02267
6049.60618,0.04511
6051.53465,0.10261
6053.46312,0.12768
6055.39159,0.09000
6057.32006,0.06486
6059.24853,0.09702
6061.17700,0.11467
6063.10546,0.08628
6065.03393,0.07871
6066.96240,0.10013
6068.89087,0.09342
6070.81934,0.06737
6072.74781,0.07636
6074.67628,0.11019
6076.60475,0.10624
6078.53321,0.05655
6080.46168,0.01403
6082.39015,0.01467
6084.31862,0.07623
6086.24709,0.15268
6088.17556,0.13254
6090.10403,0.04417
6092.03249,0.00691
6093.96096,0.01867
6095.88943,0.02875
6097.81790,0.06498
6099.74637,0.12025
6101.67484,0.13766
6103.60331,0.12950
6105.53177,0.12232
6107.46024,0.12031
6109.38871,0.14327
6111.31718,0.15467
6113.24565,0.11305
6115.17412,0.05894
6117.10259,0.01939
6119.03106,-0.00653
6120.95952,-0.01247
6122.88799,0.01585
6124.81646,0.06625
6126.74493,0.09437
6128.67340,0.11047
6130.60187,0.14623
6132.53034,0.16912
6134.45880,0.14849
6136.38727,0.11643
6138.31574,0.10612
6140.24421,0.10677
6142.17268,0.10279
6144.10115,0.06796
6146.02962,0.01625
6147.95809,0.01489
6149.88655,0.06563
6151.81502,0.11792
6153.74349,0.15953
6155.67196,0.16363
6157.60043,0.10465
6159.52890,0.04754
6161.45737,0.04919
6163.38583,0.08406
6165.31430,0.12367
6167.24277,0.16037
6169.17124,0.17009
6171.09971,0.14076
6173.02818,0.12706
6174.95665,0.16000
6176.88512,0.19033
6178.81358,0.19047
6180.74205,0.17832
6182.67052,0.16411
6184.59899,0.15600
6186.52746,0.13448
6188.45593,0.07783
6190.38440,0.04421
6192.31286,0.08137
6194.24133,0.15466
6196.16980,0.19852
6198.09827,0.18149
6200.02674,0.12787
6201.95521,0.08530
6203.88368,0.08894
6205.81215,0.09811
6207.74061,0.04746
6209.66908,-0.00186
6211.59755,0.02750
6213.52602,0.06387
6215.45449,0.07513
6217.38296,0.09552
6219.31143,0.12664
6221.23989,0.15719
6223.16836,0.14631
6225.09683,0.08811
6227.02530,0.06657
6228.95377,0.11047
6230.88224,0.16020
6232.81071,0.16693
6234.73918,0.12029
6236.66764,0.05766
6238.59611,0.03631
6240.52458,0.05502
6242.45305,0.08003
6244.38152,0.11070
6246.30999,0.13130
6248.23846,0.12784
6250.16692,0.12075
6252.09539,0.10713
6254.02386,0.08978
6255.95233,0.07775
6257.88080,0.07495
6259.80927,0.08929
6261.73774,0.08131
6263.66621,0.03673
6265.59467,0.02969
6267.52314,0.09405
6269.45161,0.14392
6271.38008,0.13310
6273.30855,0.09605
6275.23702,0.05041
6277.16549,0.02064
6279.09395,0.04332
6281.02242,0.08366
6282.95089,0.08866
6284.87936,0.04512
6286.80783,-0.00151
6288.73630,-0.00615
6290.66477,-0.00495
6292.59323,-0.01600
6294.52170,-0.01197
6296.45017,-0.00638
6298.37864,0.04035
6300.30711,0.15142
6302.23558,0.20157
6304.16405,0.15290
6306.09252,0.12552
6308.02098,0.12170
6309.94945,0.08989
6311.87792,0.08949
6313.80639,0.15351
6315.73486,0.19083
6317.66333,0.16364
6319.59180,0.13180
6321.52026,0.10089
6323.44873,0.03568
6325.37720,-0.03158
6327.30567,-0.02897
6329.23414,0.02906
6331.16261,0.06257
6333.09108,0.08942
6335.01955,0.11160
6336.94801,0.11898
6338.87648,0.16142
6340.80495,0.19120
6342.73342,0.15304
6344.66189,0.11912
6346.59036,0.15152
6348.51883,0.18248
6350.44729,0.16517
6352.37576,0.17159
6354.30423,0.19832
6356.23270,0.18393
6358.16117,0.14740
6360.08964,0.12772
6362.01811,0.12189
6363.94658,0.11635
6365.87504,0.12308
6367.80351,0.15826
6369.73198,0.17832
6371.66045,0.16685
6373.58892,0.15657
6375.51739,0.12943
6377.44586,0.09966
6379.37432,0.12686
6381.30279,0.19189
6383.23126,0.19577
6385.15973,0.11790
6387.08820,0.05699
6389.01667,0.03213
6390.94514,0.01332
6392.87361,0.00561
6394.80207,0.03953
6396.73054,0.10896
6398.65901,0.16134
6400.58748,0.16180
6402.51595,0.11659
6404.44442,0.04983
6406.37289,0.04345
6408.30135,0.12429
6410.22982,0.14575
6412.15829,0.06625
6414.08676,-0.00961
6416.01523,-0.01457
6417.94370,0.06549
6419.87217,0.13499
6421.80064,0.13851
6423.72910,0.14462
6425.65757,0.16392
6427.58604,0.15127
6429.51451,0.12569
6431.44298,0.12761
6433.37145,0.14636
6435.29992,0.16129
6437.22838,0.16721
6439.15685,0.14605
6441.08532,0.09406
6443.01379,0.07021
6444.94226,0.11382
6446.87073,0.14424
6448.79920,0.11691
6450.72766,0.06609
6452.65613,0.00699
6454.58460,-0.01472
6456.51307,0.03174
6458.44154,0.06614
6460.37001,0.06809
6462.29848,0.10637
6464.22695,0.16194
6466.15541,0.13429
6468.08388,0.05623
6470.01235,0.08473
6471.94082,0.15408
6473.86929,0.13101
6475.79776,0.08746
6477.72623,0.09569
6479.65469,0.10851
6481.58316,0.07261
6483.51163,0.05157
6485.44010,0.08860
6487.36857,0.11318
6489.29704,0.06562
6491.22551,-0.02930
6493.15398,-0.09513
6495.08244,-0.07291
6497.01091,0.01382
6498.93938,0.07188
6500.86785,0.08313
6502.79632,0.10024
6504.72479,0.10690
6506.65326,0.10008
6508.58172,0.10171
6510.51019,0.08708
6512.43866,0.04572
6514.36713,0.03503
6516.29560,0.09116
6518.22407,0.17604
6520.15254,0.21383
6522.08101,0.17476
6524.00947,0.12844
6525.93794,0.14050
6527.86641,0.17047
6529.79488,0.18638
6531.72335,0.17931
6533.65182,0.13675
6535.58029,0.08192
6537.50875,0.03478
6539.43722,-0.02073
6541.36569,-0.05703
6543.29416,-0.02765
6545.22263,0.02541
6547.15110,0.04574
6549.07957,0.02046
6551.00804,-0.03944
6552.93650,-0.04254
6554.86497,0.06300
6556.79344,0.16468
6558.72191,0.15270
6560.65038,0.10398
6562.57885,0.12389
6564.50732,0.12528
6566.43578,0.05194
6568.36425,0.01057
6570.29272,0.04378
6572.22119,0.07372
6574.14966,0.01247
6576.07813,-0.04670
6578.00660,-0.00108
6579.93507,0.04926
6581.86353,0.04572
6583.79200,0.03992
6585.72047,0.04639
6587.64894,0.08407
6589.57741,0.16032
6591.50588,0.20111
6593.43435,0.17260
6595.36281,0.15229
6597.29128,0.14821
6599.21975,0.09683
6601.14822,0.02658
6603.07669,0.00288
6605.00516,0.02268
6606.93363,0.10256
6608.86210,0.20858
6610.79056,0.22363
6612.71903,0.16457
6614.64750,0.12480
6616.57597,0.06049
6618.50444,-0.03753
6620.43291,-0.07587
6622.36138,-0.01777
6624.28984,0.08829
6626.21831,0.15060
6628.14678,0.14213
6630.07525,0.10531
6632.00372,0.09921
6633.93219,0.14011
6635.86066,0.18101
6637.78912,0.14816
6639.71759,0.06379
6641.64606,0.03126
6643.57453,0.09473
6645.50300,0.15403
6647.43147,0.09912
6649.35994,0.01165
6651.28841,0.00810
6653.21687,0.06586
6655.14534,0.09672
6657.07381,0.06389
6659.00228,0.03261
6660.93075,0.05614
6662.85922,0.10769
6664.78769,0.12379
6666.71615,0.07929
6668.64462,0.00668
6670.57309,-0.03252
6672.50156,0.01663
6674.43003,0.07938
6676.35850,0.05834
6678.28697,-0.02988
6680.21544,-0.10870
6682.14390,-0.09236
6684.07237,0.01355
6686.00084,0.11156
6687.92931,0.12956
6689.85778,0.09419
6691.78625,0.06965
6693.71472,0.07753
6695.64318,0.13305
6697.57165,0.17035
6699.50012,0.13428
6701.42859,0.09388
6703.35706,0.09542
6705.28553,0.12120
6707.21400,0.14610
6709.14247,0.16243
6711.07093,0.13209
6712.99940,0.06501
6714.92787,0.03885
6716.85634,0.04334
6718.78481,0.04011
6720.71328,0.07673
6722.64175,0.11901
6724.57021,0.07093
6726.49868,-0.00534
6728.42715,-0.00674
6730.35562,0.04585
6732.28409,0.07660
6734.21256,0.07045
6736.14103,0.06273
6738.06950,0.05962
6739.99796,0.02917
6741.92643,-0.01318
6743.85490,-0.02993
6745.78337,-0.01680
6747.71184,0.01544
6749.64031,0.03481
6751.56878,0.05477
6753.49724,0.10110
6755.42571,0.12767
6757.35418,0.10968
6759.28265,0.09942
6761.21112,0.10335
6763.13959,0.07566
6765.06806,0.05554
6766.99653,0.05193
6768.92499,0.04083
6770.85346,0.03017
6772.78193,0.03666
6774.71040,0.09493
6776.63887,0.15365
6778.56734,0.14056
6780.49581,0.09839
6782.42427,0.11119
6784.35274,0.18749
6786.28121,0.20551
6788.20968,0.15733
6790.13815,0.13572
6792.06662,0.10927
6793.99509,0.08106
6795.92355,0.11720
6797.85202,0.13851
6799.78049,0.08480
6801.70896,0.05115
6803.63743,0.12388
6805.56590,0.22361
6807.49437,0.23862
6809.42284,0.18418
6811.35130,0.10416
6813.27977,0.01245
6815.20824,-0.03565
6817.13671,0.00778
6819.06518,0.04783
6820.99365,0.00774
6822.92212,-0.04509
6824.85058,-0.02258
6826.77905,0.07300
6828.70752,0.16801
6830.63599,0.15941
6832.56446,0.10562
6834.49293,0.11547
6836.42140,0.18453
6838.34987,0.22181
6840.27833,0.19572
6842.20680,0.15217
6844.13527,0.08541
6846.06374,0.00492
6847.99221,-0.00167
6849.92068,0.05530
6851.84915,0.08750
6853.77761,0.12254
6855.70608,0.15375
6857.63455,0.13197
6859.56302,0.12476
6861.49149,0.17074
6863.41996,0.18105
6865.34843,0.14790
6867.27690,0.16753
6869.20536,0.21982
6871.13383,0.20211
6873.06230,0.12471
6874.99077,0.14814
6876.91924,0.27479
6878.84771,0.27399
6880.77618,0.04862
6882.70464,-0.13688
6884.63311,-0.16220
6886.56158,-0.12036
6888.49005,-0.07213
6890.41852,-0.01896
6892.34699,0.06485
6894.27546,0.12139
6896.20393,0.05383
6898.13239,-0.07190
6900.06086,-0.09086
6901.98933,-0.01905
6903.91780,0.03806
6905.84627,0.02973
6907.77474,0.06986
6909.70321,0.21558
6911.63167,0.28630
6913.56014,0.16810
6915.48861,0.02384
6917.41708,0.00570
6919.34555,0.07534
6921.27402,0.15431
6923.20249,0.23811
6925.13096,0.28018
6927.05942,0.22451
6928.98789,0.16582
6930.91636,0.24785
6932.84483,0.30238
6934.77330,0.16799
6936.70177,0.05547
6938.63024,0.02967
6940.55870,-0.04571
6942.48717,-0.04531
6944.41564,0.12280
6946.34411,0.23184
6948.27258,0.19865
6950.20105,0.12593
6952.12952,0.05976
6954.05799,0.03147
6955.98645,0.02830
6957.91492,-0.00192
6959.84339,-0.04596
6961.77186,-0.06387
6963.70033,-0.04131
6965.62880,0.03186
6967.55727,0.10075
6969.48573,0.12227
6971.41420,0.20095
6973.34267,0.29008
6975.27114,0.23866
6977.19961,0.14691
6979.12808,0.06725
6981.05655,-0.04788
6982.98501,-0.13388
6984.91348,-0.09959
6986.84195,0.04666
6988.77042,0.14763
6990.69889,0.10740
6992.62736,0.08798
6994.55583,0.19228
6996.48430,0.32705
6998.41276,0.28450
7000.34123,0.08799
7002.26970,0.00085
7004.19817,0.00089
7006.12664,0.01902
7008.05511,0.11614
7009.98358,0.17714
7011.91204,0.07065
7013.84051,-0.12592
7015.76898,-0.16960
7017.69745,-0.02497
7019.62592,0.13384
7021.55439,0.14140
7023.48286,0.01783
7025.41133,-0.03823
7027.33979,0.06527
7029.26826,0.22571
7031.19673,0.31595
7033.12520,0.34075
7035.05367,0.27998
7036.98214,0.13722
7038.91061,0.04500
7040.83907,0.04723
7042.76754,0.08888
7044.69601,0.08352
7046.62448,0.00489
7048.55295,-0.00667
7050.48142,0.08888
7052.40989,0.11934
7054.33836,0.04422
7056.26682,-0.00747
7058.19529,-0.00043
7060.12376,0.00088
7062.05223,0.01740
7063.98070,0.11210
7065.90917,0.19233
7067.83764,0.19787
7069.76610,0.22565
7071.69457,0.20816
7073.62304,0.04597
7075.55151,-0.04690
7077.47998,0.02066
7079.40845,0.12252
7081.33692,0.13038
7083.26539,0.05588
7085.19385,0.00554
7087.12232,0.03220
7089.05079,0.12145
7090.97926,0.17148
7092.90773,0.07546
7094.83620,-0.02489
7096.76467,0.06023
7098.69313,0.14100
7100.62160,0.08161
7102.55007,0.06544
7104.47854,0.12401
7106.40701,0.16690
7108.33548,0.13348
7110.26395,-0.00557
7112.19242,-0.17446
7114.12088,-0.21725
7116.04935,-0.12347
7117.97782,0.05699
7119.90629,0.26828
7121.83476,0.38537
7123.76323,0.30751
7125.69170,0.11899
7127.62016,0.02609
7129.54863,0.05319
7131.47710,0.10551
7133.40557,0.14112
7135.33404,0.13397
7137.26251,0.11192
7139.19098,0.15611
7141.11944,0.25934
7143.04791,0.30572
7144.97638,0.27054
7146.90485,0.23517
7148.83332,0.25664
7150.76179,0.33806
7152.69026,0.40790
7154.61873,0.32043
7156.54719,0.14180
7158.47566,0.04925
7160.40413,0.03885
7162.33260,0.03240
7164.26107,-0.02584
7166.18954,-0.06817
7168.11801,0.02049
7170.04647,0.10017
7171.97494,0.09311
7173.90341,0.13925
7175.83188,0.17977
7177.76035,0.11989
7179.68882,0.10647
7181.61729,0.23694
7183.54576,0.30585
7185.47422,0.14486
7187.40269,-0.00652
7189.33116,-0.00986
7191.25963,0.01107
7193.18810,-0.04489
7195.11657,-0.11160
7197.04504,-0.12927
7198.97350,-0.10659
7200.90197,-0.11023
7202.83044,-0.12596
7204.75891,-0.03170
7206.68738,0.08589
7208.61585,0.04762
7210.54432,-0.03216
7212.47279,-0.01055
7214.40125,0.10646
7216.32972,0.23103
7218.25819,0.20326
7220.18666,0.09968
7222.11513,0.13857
7224.04360,0.24636
7225.97207,0.28326
7227.90053,0.24426
7229.82900,0.26597
7231.75747,0.31489
7233.68594,0.22330
7235.61441,0.12210
7237.54288,0.14255
7239.47135,0.21297
7241.39982,0.20772
7243.32828,0.12920
7245.25675,0.13936
7247.18522,0.14340
7249.11369,0.07535
7251.04216,0.14730
7252.97063,0.31202
7254.89910,0.22469
7256.82756,0.02824
7258.75603,-0.11518
7260.68450,-0.10844
7262.61297,0.01402
7264.54144,0.04371
7266.46991,0.07732
7268.39838,0.16426
7270.32685,0.10976
7272.25531,-0.06309
7274.18378,-0.06806
7276.11225,0.00458
7278.04072,0.05461
7279.96919,0.10763
7281.89766,0.12744
7283.82613,0.11431
7285.75459,0.07729
7287.68306,0.03424
7289.61153,0.11351
7291.54000,0.31134
7293.46847,0.32775
7295.39694,0.16641
7297.32541,0.07115
7299.25387,0.02960
7301.18234,-0.03799
7303.11081,-0.11044
7305.03928,-0.09371
7306.96775,0.03086
7308.89622,0.10986
7310.82469,0.13575
7312.75316,0.23891
7314.68162,0.38509
7316.61009,0.41889
7318.53856,0.28206
7320.46703,0.09668
7322.39550,-0.06629
7324.32397,-0.11996
7326.25244,0.01886
7328.18090,0.31098
7330.10937,0.47714
7332.03784,0.29784
7333.96631,0.08327
7335.89478,-0.00139
7337.82325,-0.06963
7339.75172,-0.18084
7341.68019,-0.20868
7343.60865,-0.03561
7345.53712,0.21068
7347.46559,0.27924
7349.39406,0.14649
7351.32253,0.03642
7353.25100,0.05618
7355.17947,0.09422
7357.10793,-0.00455
7359.03640,-0.12326
7360.96487,0.05207
7362.89334,0.30446
7364.82181,0.38775
7366.75028,0.37364
7368.67875,0.28497
7370.60722,0.16077
7372.53568,0.05140
7374.46415,-0.04978
7376.39262,-0.00474
7378.32109,0.13214
7380.24956,0.19348
7382.17803,0.18267
7384.10650,0.11346
7386.03496,0.01380
7387.96343,0.00766
7389.89190,0.00565
7391.82037,-0.11818
7393.74884,-0.15767
7395.67731,-0.06230
7397.60578,-0.10219
7399.53425,-0.18645
7401.46271,-0.18669
7403.39118,-0.14278
7405.31965,-0.02807
7407.24812,0.05068
7409.17659,0.01686
7411.10506,-0.02271
7413.03353,0.04421
7414.96199,0.21267
7416.89046,0.37365
7418.81893,0.35620
7420.74740,0.20155
7422.67587,0.10575
7424.60434,0.01513
7426.53281,-0.05457
7428.46128,0.02447
7430.38974,0.18238
7432.31821,0.21663
7434.24668,0.30601
7436.17515,0.49406
7438.10362,0.44655
7440.03209,0.14817
7441.96056,-0.06346
7443.88902,-0.08129
7445.81749,-0.02974
7447.74596,0.00124
7449.67443,0.02453
7451.60290,-0.01011
7453.53137,-0.10229
7455.45984,-0.08565
7457.38831,0.05227
7459.31677,0.18305
7461.24524,0.20954
7463.17371,0.25895
7465.10218,0.29293
7467.03065,0.21592
7468.95912,0.16380
7470.88759,0.21729
7472.81605,0.29885
7474.74452,0.24249
7476.67299,0.06039
7478.60146,-0.09290
7480.52993,-0.15854
7482.45840,-0.14890
7484.38687,-0.10745
7486.31533,-0.05428
7488.24380,0.04128
7490.17227,0.11232
7492.10074,0.08365
7494.02921,0.05854
7495.95768,0.10344
7497.88615,0.17116
