399.19301,0.52040
401.12148,0.10790
403.04995,-0.06327
404.97842,0.53432
406.90689,0.83925
408.83536,0.59901
410.76382,0.60361
412.69229,1.31076
414.62076,2.94702
416.54923,5.20823
418.47770,5.53426
420.40617,2.59618
422.33464,0.87868
424.26311,0.75046
426.19157,0.80324
428.12004,0.51395
430.04851,0.06902
431.97698,-0.05627
433.90545,0.03117
435.83392,-0.10533
437.76239,-0.27046
439.69085,-0.18565
441.61932,0.01075
443.54779,0.01025
445.47626,-0.10066
447.40473,-0.07133
449.33320,0.04052
451.26167,0.05245
453.19013,0.01667
455.11860,0.04130
457.04707,0.03487
458.97554,-0.04137
460.90401,-0.04948
462.83248,0.05599
464.76095,0.21855
466.68942,0.25892
468.61788,0.14137
470.54635,0.08397
472.47482,0.39189
474.40329,0.78748
476.33176,0.52875
478.26023,0.23282
480.18870,0.17598
482.11716,0.19506
484.04563,0.15176
485.97410,0.09988
487.90257,0.12523
489.83104,0.15563
491.75951,0.14145
493.68798,0.13271
495.61645,0.14494
497.54491,0.15604
499.47338,0.16124
501.40185,0.14279
503.33032,0.09266
505.25879,0.07563
507.18726,0.11174
509.11573,0.12625
511.04419,0.10523
512.97266,0.10008
514.90113,0.10934
516.82960,0.11292
518.75807,0.10131
520.68654,0.08563
522.61501,0.08263
524.54348,0.07100
526.47194,0.06886
528.40041,0.09532
530.32888,0.11099
532.25735,0.11518
534.18582,0.13108
536.11429,0.13063
538.04276,0.10355
539.97122,0.09840
541.89969,0.10243
543.82816,0.08304
545.75663,0.05693
547.68510,0.05191
549.61357,0.07578
551.54204,0.07403
553.47051,0.04152
555.39897,0.04963
557.32744,0.09624
559.25591,0.12492
561.18438,0.12057
563.11285,0.08516
565.04132,0.04268
566.96979,0.04943
568.89825,0.10588
570.82672,0.13425
572.75519,0.10765
574.68366,0.07516
576.61213,0.06774
578.54060,0.07606
580.46907,0.08963
582.39754,0.10351
584.32600,0.11612
586.25447,0.12962
588.18294,0.13625
590.11141,0.11848
592.03988,0.09181
593.96835,0.09389
595.89682,0.12539
597.82528,0.15541
599.75375,0.16245
601.68222,0.15790
603.61069,0.16024
605.53916,0.16205
607.46763,0.14859
609.39610,0.13430
611.32456,0.12924
613.25303,0.11790
615.18150,0.10332
617.10997,0.10249
619.03844,0.11334
620.96691,0.12563
622.89538,0.12547
624.82385,0.10731
626.75231,0.09197
628.68078,0.11502
630.60925,0.21036
632.53772,0.30392
634.46619,0.26732
636.39466,0.17230
638.32313,0.12106
640.25159,0.09969
642.18006,0.10165
644.10853,0.11674
646.03700,0.12037
647.96547,0.11403
649.89394,0.12215
651.82241,0.14411
653.75088,0.15084
655.67934,0.15051
657.60781,0.15374
659.53628,0.14161
661.46475,0.12041
663.39322,0.11140
665.32169,0.11460
667.25016,0.12183
669.17862,0.12333
671.10709,0.11516
673.03556,0.10594
674.96403,0.10333
676.89250,0.11085
678.82097,0.12869
680.74944,0.14575
682.67791,0.15346
684.60637,0.15696
686.53484,0.14880
688.46331,0.13773
690.39178,0.14355
692.32025,0.15526
694.24872,0.15557
696.17719,0.15250
698.10565,0.16187
700.03412,0.16849
701.96259,0.15651
703.89106,0.14374
705.81953,0.14515
707.74800,0.16507
709.67647,0.22344
711.60494,0.27608
713.53340,0.24177
715.46187,0.17168
717.39034,0.15271
719.31881,0.17033
721.24728,0.18216
723.17575,0.17120
725.10422,0.15130
727.03268,0.14149
728.96115,0.14181
730.88962,0.14751
732.81809,0.15477
734.74656,0.15583
736.67503,0.15459
738.60350,0.15705
740.53197,0.15642
742.46043,0.15082
744.38890,0.14498
746.31737,0.14590
748.24584,0.15099
750.17431,0.15050
752.10278,0.15649
754.03125,0.17524
755.95971,0.18194
757.88818,0.16922
759.81665,0.15763
761.74512,0.15569
763.67359,0.15865
765.60206,0.16017
767.53053,0.16046
769.45900,0.16410
771.38746,0.16460
773.31593,0.16076
775.24440,0.15985
777.17287,0.15529
779.10134,0.14931
781.02981,0.15279
782.95828,0.15490
784.88674,0.14863
786.81521,0.13536
788.74368,0.09780
790.67215,0.05437
792.60062,0.06278
794.52909,0.11367
796.45756,0.14777
798.38602,0.16007
800.31449,0.16759
802.24296,0.17136
804.17143,0.16869
806.09990,0.15565
808.02837,0.14028
809.95684,0.13312
811.88531,0.13616
813.81377,0.15196
815.74224,0.16739
817.67071,0.17105
819.59918,0.17043
821.52765,0.16312
823.45612,0.15364
825.38459,0.15367
827.31305,0.15374
829.24152,0.14876
831.16999,0.14719
833.09846,0.14923
835.02693,0.14939
836.95540,0.14589
838.88387,0.14511
840.81234,0.15020
842.74080,0.14820
844.66927,0.13448
846.59774,0.12711
848.52621,0.13845
850.45468,0.15845
852.38315,0.16964
854.31162,0.16862
856.24008,0.16196
858.16855,0.15533
860.09702,0.15296
862.02549,0.14971
863.95396,0.13895
865.88243,0.13463
867.81090,0.14947
869.73937,0.16648
871.66783,0.16869
873.59630,0.16488
875.52477,0.16241
877.45324,0.15955
879.38171,0.15938
881.31018,0.16060
883.23865,0.15882
885.16711,0.15672
887.09558,0.16128
889.02405,0.16962
890.95252,0.17019
892.88099,0.16390
894.80946,0.15877
896.73793,0.15817
898.66640,0.15958
900.59486,0.15780
902.52333,0.15537
904.45180,0.15778
906.38027,0.16429
908.30874,0.16954
910.23721,0.16847
912.16568,0.16100
914.09414,0.15141
916.02261,0.14646
917.95108,0.15126
919.87955,0.15966
921.80802,0.16316
923.73649,0.16589
925.66496,0.16886
927.59343,0.16525
929.52189,0.15870
931.45036,0.15621
933.37883,0.15622
935.30730,0.15688
937.23577,0.15593
939.16424,0.15128
941.09271,0.14855
943.02117,0.15055
944.94964,0.15311
946.87811,0.15417
948.80658,0.15365
950.73505,0.15235
952.66352,0.15104
954.59199,0.15033
956.52045,0.14934
958.44892,0.14487
960.37739,0.14079
962.30586,0.14593
964.23433,0.15788
966.16280,0.16665
968.09127,0.16879
970.01974,0.16623
971.94820,0.16270
973.87667,0.16109
975.80514,0.15982
977.73361,0.15789
979.66208,0.15850
981.59055,0.15925
983.51902,0.15444
985.44748,0.15035
987.37595,0.15424
989.30442,0.16209
991.23289,0.16994
993.16136,0.17425
995.08983,0.16887
997.01830,0.15949
998.94677,0.15804
1000.87523,0.16351
1002.80370,0.17137
1004.73217,0.17799
1006.66064,0.17686
1008.58911,0.17141
1010.51758,0.16857
1012.44605,0.16776
1014.37451,0.16774
1016.30298,0.16773
1018.23145,0.16760
1020.15992,0.16950
1022.08839,0.17233
1024.01686,0.17132
1025.94533,0.16732
1027.87380,0.16212
1029.80226,0.15787
1031.73073,0.15927
1033.65920,0.16187
1035.58767,0.16379
1037.51614,0.16615
1039.44461,0.16273
1041.37308,0.15630
1043.30154,0.15367
1045.23001,0.15572
1047.15848,0.16718
1049.08695,0.18619
1051.01542,0.19957
1052.94389,0.20072
1054.87236,0.18961
1056.80083,0.17337
1058.72929,0.16135
1060.65776,0.15626
1062.58623,0.16103
1064.51470,0.16986
1066.44317,0.17349
1068.37164,0.17038
1070.30011,0.16316
1072.22857,0.16297
1074.15704,0.17213
1076.08551,0.17935
1078.01398,0.17862
1079.94245,0.17629
1081.87092,0.17968
1083.79939,0.17949
1085.72786,0.16737
1087.65632,0.15722
1089.58479,0.15869
1091.51326,0.16335
1093.44173,0.16421
1095.37020,0.16451
1097.29867,0.17240
1099.22714,0.18467
1101.15560,0.18976
1103.08407,0.18395
1105.01254,0.17333
1106.94101,0.17040
1108.86948,0.17842
1110.79795,0.18750
1112.72642,0.19154
1114.65489,0.19235
1116.58335,0.18848
1118.51182,0.17820
1120.44029,0.17056
1122.36876,0.17187
1124.29723,0.17428
1126.22570,0.17208
1128.15417,0.16882
1130.08263,0.16617
1132.01110,0.16388
1133.93957,0.16058
1135.86804,0.15655
1137.79651,0.15777
1139.72498,0.16512
1141.65345,0.17182
1143.58191,0.17221
1145.51038,0.16989
1147.43885,0.17100
1149.36732,0.17272
1151.29579,0.17296
1153.22426,0.17450
1155.15273,0.17640
1157.08120,0.17604
1159.00966,0.17361
1160.93813,0.16963
1162.86660,0.16595
1164.79507,0.16637
1166.72354,0.17155
1168.65201,0.17715
1170.58048,0.18082
1172.50894,0.18194
1174.43741,0.17746
1176.36588,0.17176
1178.29435,0.17173
1180.22282,0.17363
1182.15129,0.17063
1184.07976,0.16431
1186.00823,0.16303
1187.93669,0.16690
1189.86516,0.16939
1191.79363,0.17188
1193.72210,0.17581
1195.65057,0.17676
1197.57904,0.17500
1199.50751,0.17389
1201.43597,0.17224
1203.36444,0.17016
1205.29291,0.17066
1207.22138,0.17164
1209.14985,0.17109
1211.07832,0.17248
1213.00679,0.17427
1214.93526,0.17306
1216.86372,0.17228
1218.79219,0.17282
1220.72066,0.17045
1222.64913,0.16755
1224.57760,0.17149
1226.50607,0.17976
1228.43454,0.18415
1230.36300,0.18363
1232.29147,0.18194
1234.21994,0.18095
1236.14841,0.17952
1238.07688,0.17816
1240.00535,0.17927
1241.93382,0.18253
1243.86229,0.18424
1245.79075,0.18251
1247.71922,0.17897
1249.64769,0.17535
1251.57616,0.17374
1253.50463,0.17581
1255.43310,0.17908
1257.36157,0.17957
1259.29003,0.17901
1261.21850,0.18096
1263.14697,0.18324
1265.07544,0.18341
1267.00391,0.18354
1268.93238,0.18455
1270.86085,0.18397
1272.78932,0.18113
1274.71778,0.17806
1276.64625,0.17830
1278.57472,0.18212
1280.50319,0.18282
1282.43166,0.18159
1284.36013,0.18574
1286.28860,0.18917
1288.21706,0.18666
1290.14553,0.18529
1292.07400,0.18650
1294.00247,0.18517
1295.93094,0.18056
1297.85941,0.17512
1299.78788,0.17029
1301.71634,0.16714
1303.64481,0.16586
1305.57328,0.16737
1307.50175,0.17367
1309.43022,0.18072
1311.35869,0.18182
1313.28716,0.17788
1315.21563,0.17540
1317.14409,0.17760
1319.07256,0.18198
1321.00103,0.18481
1322.92950,0.18442
1324.85797,0.18080
1326.78644,0.17533
1328.71491,0.17069
1330.64337,0.17098
1332.57184,0.17698
1334.50031,0.18146
1336.42878,0.18224
1338.35725,0.18399
1340.28572,0.18341
1342.21419,0.17645
1344.14266,0.16755
1346.07112,0.16758
1347.99959,0.17780
1349.92806,0.18248
1351.85653,0.18012
1353.78500,0.17971
1355.71347,0.17943
1357.64194,0.17888
1359.57040,0.18241
1361.49887,0.18913
1363.42734,0.19002
1365.35581,0.18235
1367.28428,0.17587
1369.21275,0.17660
1371.14122,0.18132
1373.06969,0.18857
1374.99815,0.19742
1376.92662,0.19760
1378.85509,0.18993
1380.78356,0.18416
1382.71203,0.18323
1384.64050,0.18607
1386.56897,0.19148
1388.49743,0.19299
1390.42590,0.19044
1392.35437,0.19524
1394.28284,0.20822
1396.21131,0.21179
1398.13978,0.20144
1400.06825,0.19224
1401.99672,0.19132
1403.92518,0.19415
1405.85365,0.19457
1407.78212,0.19260
1409.71059,0.19085
1411.63906,0.18998
1413.56753,0.19079
1415.49600,0.19119
1417.42446,0.19192
1419.35293,0.19400
1421.28140,0.19202
1423.20987,0.18844
1425.13834,0.18777
1427.06681,0.19278
1428.99528,0.20019
1430.92375,0.20228
1432.85221,0.20231
1434.78068,0.20634
1436.70915,0.20649
1438.63762,0.19729
1440.56609,0.18991
1442.49456,0.18759
1444.42303,0.19144
1446.35149,0.19980
1448.27996,0.20377
1450.20843,0.20201
1452.13690,0.20222
1454.06537,0.20783
1455.99384,0.21700
1457.92231,0.21349
1459.85077,0.19976
1461.77924,0.19604
1463.70771,0.20093
1465.63618,0.20475
1467.56465,0.20306
1469.49312,0.20473
1471.42159,0.21401
1473.35006,0.22280
1475.27852,0.21936
1477.20699,0.21052
1479.13546,0.20459
1481.06393,0.20175
1482.99240,0.20064
1484.92087,0.20477
1486.84934,0.21343
1488.77780,0.21558
1490.70627,0.20457
1492.63474,0.19712
1494.56321,0.20138
1496.49168,0.21049
1498.42015,0.20844
1500.34862,0.19679
1502.27709,0.18899
1504.20555,0.18990
1506.13402,0.20726
1508.06249,0.22623
1509.99096,0.22200
1511.91943,0.21591
1513.84790,0.21460
1515.77637,0.21868
1517.70483,0.22420
1519.63330,0.23000
1521.56177,0.23589
1523.49024,0.23044
1525.41871,0.22132
1527.34718,0.21689
1529.27565,0.21432
1531.20412,0.21393
1533.13258,0.21712
1535.06105,0.21995
1536.98952,0.22535
1538.91799,0.24346
1540.84646,0.26102
1542.77493,0.24431
1544.70340,0.22116
1546.63186,0.20870
1548.56033,0.20567
1550.48880,0.20443
1552.41727,0.20271
1554.34574,0.20518
1556.27421,0.21721
1558.20268,0.24055
1560.13115,0.23378
1562.05961,0.21103
1563.98808,0.19938
1565.91655,0.19570
1567.84502,0.20140
1569.77349,0.21006
1571.70196,0.21190
1573.63043,0.21400
1575.55889,0.21761
1577.48736,0.21123
1579.41583,0.19993
1581.34430,0.19281
1583.27277,0.18983
1585.20124,0.18916
1587.12971,0.18790
1589.05818,0.18617
1590.98664,0.18805
1592.91511,0.19236
1594.84358,0.19278
1596.77205,0.18855
1598.70052,0.18632
1600.62899,0.19015
1602.55746,0.19378
1604.48592,0.19227
1606.41439,0.19113
1608.34286,0.19196
1610.27133,0.19136
1612.19980,0.18976
1614.12827,0.19124
1616.05674,0.19961
1617.98521,0.20629
1619.91367,0.20798
1621.84214,0.21313
1623.77061,0.21720
1625.69908,0.21571
1627.62755,0.21293
1629.55602,0.21121
1631.48449,0.21522
1633.41295,0.22584
1635.34142,0.23575
1637.26989,0.23064
1639.19836,0.22108
1641.12683,0.21652
1643.05530,0.21783
1644.98377,0.22619
1646.91223,0.23582
1648.84070,0.23449
1650.76917,0.23479
1652.69764,0.24542
1654.62611,0.24208
1656.55458,0.22701
1658.48305,0.21712
1660.41152,0.21417
1662.33998,0.21704
1664.26845,0.21702
1666.19692,0.21693
1668.12539,0.22516
1670.05386,0.23331
1671.98233,0.22897
1673.91080,0.22029
1675.83926,0.21226
1677.76773,0.20969
1679.69620,0.21251
1681.62467,0.21888
1683.55314,0.22966
1685.48161,0.23384
1687.41008,0.22630
1689.33855,0.21610
1691.26701,0.20881
1693.19548,0.21041
1695.12395,0.22052
1697.05242,0.23015
1698.98089,0.23264
1700.90936,0.22919
1702.83783,0.22553
1704.76629,0.22452
1706.69476,0.22074
1708.62323,0.21433
1710.55170,0.20904
1712.48017,0.20777
1714.40864,0.21285
1716.33711,0.21909
1718.26558,0.21684
1720.19404,0.21182
1722.12251,0.21076
1724.05098,0.21032
1725.97945,0.20637
1727.90792,0.20300
1729.83639,0.20615
1731.76486,0.21579
1733.69332,0.22298
1735.62179,0.21747
1737.55026,0.21210
1739.47873,0.21229
1741.40720,0.21450
1743.33567,0.21664
1745.26414,0.21907
1747.19261,0.22293
1749.12107,0.22604
1751.04954,0.22097
1752.97801,0.21227
1754.90648,0.20844
1756.83495,0.20662
1758.76342,0.20463
1760.69189,0.20667
1762.62035,0.20961
1764.54882,0.20755
1766.47729,0.20539
1768.40576,0.20870
1770.33423,0.21799
1772.26270,0.22356
1774.19117,0.21683
1776.11964,0.20883
1778.04810,0.20540
1779.97657,0.20603
1781.90504,0.20919
1783.83351,0.21081
1785.76198,0.20746
1787.69045,0.20287
1789.61892,0.20339
1791.54738,0.21019
1793.47585,0.21619
1795.40432,0.21573
1797.33279,0.21313
1799.26126,0.21088
1801.18973,0.20972
1803.11820,0.20887
1805.04666,0.20634
1806.97513,0.20375
1808.90360,0.20354
1810.83207,0.20382
1812.76054,0.20290
1814.68901,0.20205
1816.61748,0.19752
1818.54595,0.19017
1820.47441,0.19169
1822.40288,0.20149
1824.33135,0.20686
1826.25982,0.20709
1828.18829,0.20984
1830.11676,0.21140
1832.04523,0.20910
1833.97369,0.20816
1835.90216,0.20791
1837.83063,0.20579
1839.75910,0.20461
1841.68757,0.20889
1843.61604,0.21637
1845.54451,0.21732
1847.47298,0.21362
1849.40144,0.21142
1851.32991,0.20827
1853.25838,0.20312
1855.18685,0.20001
1857.11532,0.20087
1859.04379,0.20271
1860.97226,0.20340
1862.90072,0.20341
1864.82919,0.20418
1866.75766,0.20860
1868.68613,0.21381
1870.61460,0.21137
1872.54307,0.20552
1874.47154,0.20185
1876.40001,0.19910
1878.32847,0.19668
1880.25694,0.19610
1882.18541,0.19661
1884.11388,0.19755
1886.04235,0.20107
1887.97082,0.20616
1889.89929,0.20757
1891.82775,0.20451
1893.75622,0.20188
1895.68469,0.20157
1897.61316,0.20166
1899.54163,0.20161
1901.47010,0.20229
1903.39857,0.20374
1905.32704,0.20552
1907.25550,0.20675
1909.18397,0.20640
1911.11244,0.20306
1913.04091,0.19865
1914.96938,0.19779
1916.89785,0.19955
1918.82632,0.20144
1920.75478,0.20560
1922.68325,0.20852
1924.61172,0.20552
1926.54019,0.20243
1928.46866,0.20307
1930.39713,0.20364
1932.32560,0.20212
1934.25407,0.20065
1936.18253,0.20022
1938.11100,0.20060
1940.03947,0.20328
1941.96794,0.20768
1943.89641,0.20943
1945.82488,0.20880
1947.75335,0.20852
1949.68181,0.20679
1951.61028,0.20354
1953.53875,0.20171
1955.46722,0.20234
1957.39569,0.20370
1959.32416,0.20341
1961.25263,0.20288
1963.18110,0.20393
1965.10956,0.20497
1967.03803,0.20514
1968.96650,0.20495
1970.89497,0.20527
1972.82344,0.20759
1974.75191,0.20974
1976.68038,0.20702
1978.60884,0.20353
1980.53731,0.20545
1982.46578,0.20842
1984.39425,0.20792
1986.32272,0.20572
1988.25119,0.20433
1990.17966,0.20435
1992.10812,0.20332
1994.03659,0.20038
1995.96506,0.19851
1997.89353,0.19851
1999.82200,0.19846
2001.75047,0.19888
2003.67894,0.20173
2005.60741,0.20512
2007.53587,0.20626
2009.46434,0.20504
2011.39281,0.20306
2013.32128,0.20248
2015.24975,0.20332
2017.17822,0.20459
2019.10669,0.20707
2021.03515,0.20948
2022.96362,0.20915
2024.89209,0.20674
2026.82056,0.20412
2028.74903,0.20249
2030.67750,0.20216
2032.60597,0.20163
2034.53444,0.20071
2036.46290,0.20227
2038.39137,0.20525
2040.31984,0.20437
2042.24831,0.20140
2044.17678,0.20104
2046.10525,0.20257
2048.03372,0.20525
2049.96218,0.20892
2051.89065,0.21132
2053.81912,0.21010
2055.74759,0.20659
2057.67606,0.20474
2059.60453,0.20582
2061.53300,0.20702
2063.46147,0.20652
2065.38993,0.20617
2067.31840,0.20607
2069.24687,0.20429
2071.17534,0.20291
2073.10381,0.20357
2075.03228,0.20458
2076.96075,0.20647
2078.88921,0.20794
2080.81768,0.20694
2082.74615,0.20705
2084.67462,0.20904
2086.60309,0.20933
2088.53156,0.20808
2090.46003,0.20687
2092.38850,0.20531
2094.31696,0.20312
2096.24543,0.20195
2098.17390,0.20388
2100.10237,0.20704
2102.03084,0.20805
2103.95931,0.20685
2105.88778,0.20402
2107.81624,0.20099
2109.74471,0.20102
2111.67318,0.20339
2113.60165,0.20474
2115.53012,0.20543
2117.45859,0.20682
2119.38706,0.20685
2121.31553,0.20412
2123.24399,0.20227
2125.17246,0.20346
2127.10093,0.20479
2129.02940,0.20479
2130.95787,0.20373
2132.88634,0.20183
2134.81481,0.20057
2136.74327,0.20138
2138.67174,0.20315
2140.60021,0.20415
2142.52868,0.20561
2144.45715,0.20738
2146.38562,0.20816
2148.31409,0.20819
2150.24255,0.20637
2152.17102,0.20285
2154.09949,0.20039
2156.02796,0.20022
2157.95643,0.20030
2159.88490,0.19972
2161.81337,0.20089
2163.74184,0.20400
2165.67030,0.20652
2167.59877,0.20710
2169.52724,0.20583
2171.45571,0.20443
2173.38418,0.20519
2175.31265,0.20732
2177.24112,0.20920
2179.16958,0.21074
2181.09805,0.20941
2183.02652,0.20532
2184.95499,0.20435
2186.88346,0.20670
2188.81193,0.20721
2190.74040,0.20625
2192.66887,0.20616
2194.59733,0.20576
2196.52580,0.20523
2198.45427,0.20527
2200.38274,0.20455
2202.31121,0.20380
2204.23968,0.20489
2206.16815,0.20720
2208.09661,0.20829
2210.02508,0.20679
2211.95355,0.20450
2213.88202,0.20430
2215.81049,0.20644
2217.73896,0.20743
2219.66743,0.20497
2221.59590,0.20184
2223.52436,0.20021
2225.45283,0.20015
2227.38130,0.20243
2229.30977,0.20490
2231.23824,0.20521
2233.16671,0.20560
2235.09518,0.20726
2237.02364,0.20865
2238.95211,0.20824
2240.88058,0.20583
2242.80905,0.20473
2244.73752,0.20735
2246.66599,0.21090
2248.59446,0.21164
2250.52293,0.20964
2252.45139,0.20738
2254.37986,0.20623
2256.30833,0.20574
2258.23680,0.20547
2260.16527,0.20653
2262.09374,0.20721
2264.02221,0.20527
2265.95067,0.20491
2267.87914,0.20702
2269.80761,0.20676
2271.73608,0.20506
2273.66455,0.20591
2275.59302,0.20835
2277.52149,0.20722
2279.44996,0.20195
2281.37842,0.19942
2283.30689,0.20174
2285.23536,0.20327
2287.16383,0.20197
2289.09230,0.20136
2291.02077,0.20225
2292.94924,0.20183
2294.87770,0.20044
2296.80617,0.20056
2298.73464,0.20174
2300.66311,0.20187
2302.59158,0.20096
2304.52005,0.20046
2306.44852,0.20072
2308.37699,0.20392
2310.30545,0.21045
2312.23392,0.21321
2314.16239,0.21058
2316.09086,0.20847
2318.01933,0.20934
2319.94780,0.21509
2321.87627,0.22186
2323.80473,0.22001
2325.73320,0.21539
2327.66167,0.21832
2329.59014,0.22159
2331.51861,0.21751
2333.44708,0.21029
2335.37555,0.20502
2337.30401,0.20584
2339.23248,0.21089
2341.16095,0.21035
2343.08942,0.20290
2345.01789,0.20002
2346.94636,0.20530
2348.87483,0.21113
2350.80330,0.21522
2352.73176,0.22509
2354.66023,0.24417
2356.58870,0.24515
2358.51717,0.22284
2360.44564,0.21445
2362.37411,0.22255
2364.30258,0.22636
2366.23104,0.21491
2368.15951,0.20179
2370.08798,0.20165
2372.01645,0.20582
2373.94492,0.20831
2375.87339,0.21112
2377.80186,0.21372
2379.73033,0.21342
2381.65879,0.20950
2383.58726,0.20551
2385.51573,0.20426
2387.44420,0.20393
2389.37267,0.20262
2391.30114,0.20147
2393.22961,0.20141
2395.15807,0.20247
2397.08654,0.20430
2399.01501,0.20503
2400.94348,0.20444
2402.87195,0.20397
2404.80042,0.20474
2406.72889,0.20709
2408.65736,0.20925
2410.58582,0.20942
2412.51429,0.20741
2414.44276,0.20600
2416.37123,0.20753
2418.29970,0.20994
2420.22817,0.21088
2422.15664,0.21050
2424.08510,0.20963
2426.01357,0.20793
2427.94204,0.20607
2429.87051,0.20541
2431.79898,0.20576
2433.72745,0.20697
2435.65592,0.20928
2437.58439,0.21161
2439.51285,0.21107
2441.44132,0.20853
2443.36979,0.20661
2445.29826,0.20469
2447.22673,0.20292
2449.15520,0.20123
2451.08367,0.19947
2453.01213,0.19959
2454.94060,0.20179
2456.86907,0.20443
2458.79754,0.20611
2460.72601,0.20697
2462.65448,0.20873
2464.58295,0.21032
2466.51142,0.20901
2468.43988,0.20674
2470.36835,0.20719
2472.29682,0.20846
2474.22529,0.20756
2476.15376,0.20632
2478.08223,0.20615
2480.01070,0.20691
2481.93916,0.20837
2483.86763,0.20947
2485.79610,0.20930
2487.72457,0.20806
2489.65304,0.20844
2491.58151,0.20947
2493.50998,0.20808
2495.43844,0.20739
2497.36691,0.20933
2499.29538,0.21095
2501.22385,0.21178
2503.15232,0.21290
2505.08079,0.21257
2507.00926,0.21120
2508.93773,0.21166
2510.86619,0.21256
2512.79466,0.21134
2514.72313,0.20866
2516.65160,0.20649
2518.58007,0.20622
2520.50854,0.20721
2522.43701,0.20822
2524.36547,0.20897
2526.29394,0.20904
2528.22241,0.20934
2530.15088,0.21075
2532.07935,0.21074
2534.00782,0.20878
2535.93629,0.20723
2537.86476,0.20648
2539.79322,0.20627
2541.72169,0.20706
2543.65016,0.20934
2545.57863,0.21214
2547.50710,0.21375
2549.43557,0.21330
2551.36404,0.21007
2553.29250,0.20646
2555.22097,0.20628
2557.14944,0.20806
2559.07791,0.20808
2561.00638,0.20718
2562.93485,0.20822
2564.86332,0.21119
2566.79179,0.21318
2568.72025,0.21235
2570.64872,0.21093
2572.57719,0.21027
2574.50566,0.21020
2576.43413,0.21151
2578.36260,0.21172
2580.29107,0.20995
2582.21953,0.20978
2584.14800,0.21151
2586.07647,0.21343
2588.00494,0.21530
2589.93341,0.21628
2591.86188,0.21481
2593.79035,0.21111
2595.71882,0.20831
2597.64728,0.20895
2599.57575,0.21192
2601.50422,0.21384
2603.43269,0.21223
2605.36116,0.20857
2607.28963,0.20544
2609.21810,0.20385
2611.14656,0.20397
2613.07503,0.20467
2615.00350,0.20722
2616.93197,0.21273
2618.86044,0.21751
2620.78891,0.21740
2622.71738,0.21343
2624.64585,0.21290
2626.57431,0.21783
2628.50278,0.22020
2630.43125,0.21748
2632.35972,0.21563
2634.28819,0.21538
2636.21666,0.21354
2638.14513,0.21253
2640.07359,0.21440
2642.00206,0.21633
2643.93053,0.21446
2645.85900,0.20962
2647.78747,0.20807
2649.71594,0.21024
2651.64441,0.21195
2653.57288,0.21366
2655.50134,0.21587
2657.42981,0.21612
2659.35828,0.21440
2661.28675,0.21269
2663.21522,0.21178
2665.14369,0.21318
2667.07216,0.21712
2669.00062,0.22066
2670.92909,0.22075
2672.85756,0.21759
2674.78603,0.21479
2676.71450,0.21367
2678.64297,0.21272
2680.57144,0.21170
2682.49990,0.21168
2684.42837,0.21389
2686.35684,0.21709
2688.28531,0.21703
2690.21378,0.21364
2692.14225,0.21232
2694.07072,0.21415
2695.99919,0.21552
2697.92765,0.21540
2699.85612,0.21590
2701.78459,0.21727
2703.71306,0.21716
2705.64153,0.21596
2707.57000,0.21548
2709.49847,0.21617
2711.42693,0.21861
2713.35540,0.22109
2715.28387,0.21958
2717.21234,0.21502
2719.14081,0.21232
2721.06928,0.21321
2722.99775,0.21609
2724.92622,0.21767
2726.85468,0.21729
2728.78315,0.21757
2730.71162,0.21777
2732.64009,0.21502
2734.56856,0.21163
2736.49703,0.21367
2738.42550,0.22132
2740.35396,0.22710
2742.28243,0.22474
2744.21090,0.21836
2746.13937,0.21624
2748.06784,0.21717
2749.99631,0.21954
2751.92478,0.22501
2753.85325,0.22759
2755.78171,0.22357
2757.71018,0.21846
2759.63865,0.21706
2761.56712,0.21851
2763.49559,0.21906
2765.42406,0.21782
2767.35253,0.21698
2769.28099,0.21657
2771.20946,0.21638
2773.13793,0.21806
2775.06640,0.21958
2776.99487,0.21943
2778.92334,0.22005
2780.85181,0.22153
2782.78028,0.22235
2784.70874,0.22203
2786.63721,0.22096
2788.56568,0.21956
2790.49415,0.21906
2792.42262,0.22081
2794.35109,0.22116
2796.27956,0.21853
2798.20802,0.21752
2800.13649,0.21974
2802.06496,0.22401
2803.99343,0.22910
2805.92190,0.23181
2807.85037,0.23058
2809.77884,0.22767
2811.70731,0.22567
2813.63577,0.22540
2815.56424,0.22643
2817.49271,0.22791
2819.42118,0.22806
2821.34965,0.22516
2823.27812,0.22171
2825.20659,0.22164
2827.13505,0.22293
2829.06352,0.22348
2830.99199,0.22518
2832.92046,0.22714
2834.84893,0.22974
2836.77740,0.23357
2838.70587,0.23284
2840.63433,0.22691
2842.56280,0.22382
2844.49127,0.22541
2846.41974,0.22713
2848.34821,0.22846
2850.27668,0.22922
2852.20515,0.22784
2854.13362,0.22737
2856.06208,0.22942
2857.99055,0.23044
2859.91902,0.22929
2861.84749,0.22705
2863.77596,0.22373
2865.70443,0.22094
2867.63290,0.21988
2869.56136,0.22032
2871.48983,0.22156
2873.41830,0.22261
2875.34677,0.22517
2877.27524,0.22853
2879.20371,0.23015
2881.13218,0.23024
2883.06065,0.22841
2884.98911,0.22634
2886.91758,0.22577
2888.84605,0.22624
2890.77452,0.22844
2892.70299,0.22886
2894.63146,0.22331
2896.55993,0.21777
2898.48839,0.21771
2900.41686,0.22045
2902.34533,0.22281
2904.27380,0.22237
2906.20227,0.22069
2908.13074,0.22224
2910.05921,0.22545
2911.98768,0.22655
2913.91614,0.22608
2915.84461,0.22469
2917.77308,0.22471
2919.70155,0.22829
2921.63002,0.23413
2923.55849,0.24498
2925.48696,0.25555
2927.41542,0.25526
2929.34389,0.24665
2931.27236,0.23639
2933.20083,0.22954
2935.12930,0.22360
2937.05777,0.21680
2938.98624,0.21656
2940.91471,0.22007
2942.84317,0.22063
2944.77164,0.21931
2946.70011,0.21810
2948.62858,0.22032
2950.55705,0.22463
2952.48552,0.22581
2954.41399,0.22403
2956.34245,0.22004
2958.27092,0.21812
2960.19939,0.22289
2962.12786,0.22932
2964.05633,0.23349
2965.98480,0.23284
2967.91327,0.22637
2969.84174,0.22065
2971.77020,0.21832
2973.69867,0.21840
2975.62714,0.21959
2977.55561,0.21984
2979.48408,0.22342
2981.41255,0.23086
2983.34102,0.23374
2985.26948,0.23007
2987.19795,0.22579
2989.12642,0.22710
2991.05489,0.23266
2992.98336,0.23594
2994.91183,0.23675
2996.84030,0.23506
2998.76877,0.23076
3000.69723,0.22863
3002.62570,0.22869
3004.55417,0.22768
3006.48264,0.22672
3008.41111,0.22765
3010.33958,0.22428
3012.26805,0.20904
3014.19651,0.18617
3016.12498,0.17156
3018.05345,0.18295
3019.98192,0.21238
3021.91039,0.23137
3023.83886,0.23451
3025.76733,0.23190
3027.69579,0.22686
3029.62426,0.22332
3031.55273,0.22432
3033.48120,0.22735
3035.40967,0.22916
3037.33814,0.22925
3039.26661,0.22921
3041.19508,0.23095
3043.12354,0.23401
3045.05201,0.23544
3046.98048,0.23539
3048.90895,0.23696
3050.83742,0.23810
3052.76589,0.23486
3054.69436,0.22837
3056.62282,0.22390
3058.55129,0.22665
3060.47976,0.23298
3062.40823,0.23576
3064.33670,0.23155
3066.26517,0.22326
3068.19364,0.22308
3070.12211,0.23195
3072.05057,0.23805
3073.97904,0.23423
3075.90751,0.22338
3077.83598,0.21932
3079.76445,0.22808
3081.69292,0.23976
3083.62139,0.24102
3085.54985,0.23020
3087.47832,0.22167
3089.40679,0.22450
3091.33526,0.22971
3093.26373,0.22480
3095.19220,0.21677
3097.12067,0.22117
3099.04914,0.23266
3100.97760,0.23666
3102.90607,0.22977
3104.83454,0.22303
3106.76301,0.22412
3108.69148,0.22392
3110.61995,0.21807
3112.54842,0.21515
3114.47688,0.22024
3116.40535,0.22765
3118.33382,0.22948
3120.26229,0.22701
3122.19076,0.22684
3124.11923,0.22922
3126.04770,0.23104
3127.97617,0.23401
3129.90463,0.23580
3131.83310,0.23409
3133.76157,0.23467
3135.69004,0.23735
3137.61851,0.23536
3139.54698,0.23024
3141.47545,0.22991
3143.40391,0.23403
3145.33238,0.23716
3147.26085,0.23874
3149.18932,0.23932
3151.11779,0.23903
3153.04626,0.23928
3154.97473,0.23687
3156.90320,0.22937
3158.83166,0.22660
3160.76013,0.23272
3162.68860,0.23677
3164.61707,0.23538
3166.54554,0.23557
3168.47401,0.23798
3170.40248,0.23924
3172.33094,0.24044
3174.25941,0.24119
3176.18788,0.23894
3178.11635,0.23473
3180.04482,0.23405
3181.97329,0.23834
3183.90176,0.24169
3185.83022,0.24249
3187.75869,0.24264
3189.68716,0.24159
3191.61563,0.23935
3193.54410,0.23879
3195.47257,0.24151
3197.40104,0.24236
3199.32951,0.23865
3201.25797,0.23569
3203.18644,0.23462
3205.11491,0.23220
3207.04338,0.23078
3208.97185,0.23413
3210.90032,0.23862
3212.82879,0.23939
3214.75725,0.23977
3216.68572,0.24221
3218.61419,0.24205
3220.54266,0.23864
3222.47113,0.23779
3224.39960,0.24108
3226.32807,0.24107
3228.25654,0.23489
3230.18500,0.22920
3232.11347,0.22765
3234.04194,0.22926
3235.97041,0.23073
3237.89888,0.23025
3239.82735,0.23182
3241.75582,0.23474
3243.68428,0.23367
3245.61275,0.23211
3247.54122,0.23541
3249.46969,0.23962
3251.39816,0.24008
3253.32663,0.23986
3255.25510,0.24160
3257.18357,0.24263
3259.11203,0.24230
3261.04050,0.23898
3262.96897,0.23108
3264.89744,0.22382
3266.82591,0.22349
3268.75438,0.22928
3270.68285,0.23305
3272.61131,0.23271
3274.53978,0.23226
3276.46825,0.23053
3278.39672,0.22998
3280.32519,0.23321
3282.25366,0.23383
3284.18213,0.23083
3286.11060,0.22868
3288.03906,0.22826
3289.96753,0.23128
3291.89600,0.23658
3293.82447,0.24055
3295.75294,0.24107
3297.68141,0.23450
3299.60988,0.22546
3301.53834,0.22381
3303.46681,0.22852
3305.39528,0.23302
3307.32375,0.23345
3309.25222,0.23317
3311.18069,0.23530
3313.10916,0.23360
3315.03763,0.23090
3316.96609,0.23427
3318.89456,0.23670
3320.82303,0.23520
3322.75150,0.23449
3324.67997,0.23298
3326.60844,0.23175
3328.53691,0.23575
3330.46537,0.23958
3332.39384,0.23684
3334.32231,0.23693
3336.25078,0.24438
3338.17925,0.24507
3340.10772,0.23729
3342.03619,0.23725
3343.96466,0.24574
3345.89312,0.24958
3347.82159,0.24839
3349.75006,0.24606
3351.67853,0.24021
3353.60700,0.23444
3355.53547,0.23200
3357.46394,0.23094
3359.39240,0.23166
3361.32087,0.23413
3363.24934,0.23614
3365.17781,0.23716
3367.10628,0.23933
3369.03475,0.24316
3370.96322,0.24634
3372.89168,0.24617
3374.82015,0.24237
3376.74862,0.23662
3378.67709,0.22958
3380.60556,0.22401
3382.53403,0.22371
3384.46250,0.22906
3386.39097,0.23793
3388.31943,0.24444
3390.24790,0.24225
3392.17637,0.23322
3394.10484,0.22751
3396.03331,0.23145
3397.96178,0.23790
3399.89025,0.23947
3401.81871,0.23752
3403.74718,0.23270
3405.67565,0.22843
3407.60412,0.22838
3409.53259,0.22994
3411.46106,0.23312
3413.38953,0.23805
3415.31800,0.24113
3417.24646,0.24303
3419.17493,0.24402
3421.10340,0.23996
3423.03187,0.23385
3424.96034,0.22981
3426.88881,0.22589
3428.81728,0.22244
3430.74574,0.22062
3432.67421,0.22155
3434.60268,0.22496
3436.53115,0.22600
3438.45962,0.22546
3440.38809,0.22896
3442.31656,0.23128
3444.24503,0.22838
3446.17349,0.22967
3448.10196,0.23356
3450.03043,0.22954
3451.95890,0.22206
3453.88737,0.21738
3455.81584,0.21571
3457.74431,0.21635
3459.67277,0.21629
3461.60124,0.21540
3463.52971,0.21654
3465.45818,0.21623
3467.38665,0.21228
3469.31512,0.20987
3471.24359,0.20978
3473.17206,0.20912
3475.10052,0.20909
3477.02899,0.21242
3478.95746,0.21948
3480.88593,0.22508
3482.81440,0.22192
3484.74287,0.21234
3486.67134,0.20647
3488.59980,0.20692
3490.52827,0.20701
3492.45674,0.20517
3494.38521,0.20635
3496.31368,0.20973
3498.24215,0.20929
3500.17062,0.20616
3502.09909,0.20576
3504.02755,0.20824
3505.95602,0.20907
3507.88449,0.20471
3509.81296,0.19726
3511.74143,0.19393
3513.66990,0.19511
3515.59837,0.19729
3517.52683,0.19983
3519.45530,0.20001
3521.38377,0.19775
3523.31224,0.19478
3525.24071,0.19228
3527.16918,0.19287
3529.09765,0.19447
3531.02611,0.19370
3532.95458,0.19281
3534.88305,0.19436
3536.81152,0.19494
3538.73999,0.19478
3540.66846,0.19713
3542.59693,0.19743
3544.52540,0.19470
3546.45386,0.19228
3548.38233,0.19003
3550.31080,0.18857
3552.23927,0.18805
3554.16774,0.18787
3556.09621,0.18698
3558.02468,0.18445
3559.95314,0.18187
3561.88161,0.17971
3563.81008,0.17732
3565.73855,0.17834
3567.66702,0.18351
3569.59549,0.18504
3571.52396,0.18285
3573.45243,0.17933
3575.38089,0.17477
3577.30936,0.17172
3579.23783,0.17203
3581.16630,0.17292
3583.09477,0.17324
3585.02324,0.17745
3586.95171,0.18513
3588.88017,0.18620
3590.80864,0.18458
3592.73711,0.18675
3594.66558,0.18619
3596.59405,0.18102
3598.52252,0.17676
3600.45099,0.17218
3602.37946,0.16684
3604.30792,0.16545
3606.23639,0.16994
3608.16486,0.17582
3610.09333,0.17790
3612.02180,0.17991
3613.95027,0.18283
3615.87874,0.18383
3617.80720,0.18384
3619.73567,0.18028
3621.66414,0.17207
3623.59261,0.16539
3625.52108,0.16522
3627.44955,0.17335
3629.37802,0.17835
3631.30649,0.17143
3633.23495,0.16464
3635.16342,0.15796
3637.09189,0.15187
3639.02036,0.15177
3640.94883,0.15509
3642.87730,0.15608
3644.80577,0.15915
3646.73423,0.17045
3648.66270,0.18159
3650.59117,0.17255
3652.51964,0.16188
3654.44811,0.16100
3656.37658,0.16039
3658.30505,0.15474
3660.23352,0.15170
3662.16198,0.15393
3664.09045,0.15607
3666.01892,0.15506
3667.94739,0.15428
3669.87586,0.15488
3671.80433,0.15418
3673.73280,0.15461
3675.66126,0.15283
3677.58973,0.14762
3679.51820,0.14641
3681.44667,0.14739
3683.37514,0.15174
3685.30361,0.16073
3687.23208,0.17105
3689.16055,0.17589
3691.08901,0.16459
3693.01748,0.14915
3694.94595,0.14243
3696.87442,0.14235
3698.80289,0.14446
3700.73136,0.14800
3702.65983,0.15075
3704.58829,0.15083
3706.51676,0.15405
3708.44523,0.16383
3710.37370,0.17325
3712.30217,0.16892
3714.23064,0.16048
3716.15911,0.15824
3718.08757,0.15723
3720.01604,0.15487
3721.94451,0.15336
3723.87298,0.15331
3725.80145,0.15126
3727.72992,0.14774
3729.65839,0.14725
3731.58686,0.15096
3733.51532,0.15728
3735.44379,0.16052
3737.37226,0.15553
3739.30073,0.14789
3741.22920,0.14652
3743.15767,0.15451
3745.08614,0.16512
3747.01460,0.16841
3748.94307,0.17063
3750.87154,0.16931
3752.80001,0.15696
3754.72848,0.14828
3756.65695,0.14612
3758.58542,0.14277
3760.51389,0.13769
3762.44235,0.13921
3764.37082,0.14611
3766.29929,0.15203
3768.22776,0.15731
3770.15623,0.15783
3772.08470,0.14715
3774.01317,0.13713
3775.94163,0.13783
3777.87010,0.14519
3779.79857,0.14714
3781.72704,0.14616
3783.65551,0.14926
3785.58398,0.14974
3787.51245,0.14447
3789.44092,0.13878
3791.36938,0.13644
3793.29785,0.13751
3795.22632,0.13970
3797.15479,0.14210
3799.08326,0.14609
3801.01173,0.14880
3802.94020,0.14518
3804.86866,0.14484
3806.79713,0.14633
3808.72560,0.13967
3810.65407,0.13313
3812.58254,0.13211
3814.51101,0.13600
3816.43948,0.14683
3818.36795,0.15890
3820.29641,0.16193
3822.22488,0.15019
3824.15335,0.13996
3826.08182,0.13577
3828.01029,0.13213
3829.93876,0.13240
3831.86723,0.13713
3833.79569,0.14241
3835.72416,0.14816
3837.65263,0.15004
3839.58110,0.14777
3841.50957,0.15160
3843.43804,0.15434
3845.36651,0.14822
3847.29498,0.14352
3849.22344,0.14890
3851.15191,0.16042
3853.08038,0.16612
3855.00885,0.15337
3856.93732,0.14010
3858.86579,0.13596
3860.79426,0.13865
3862.72272,0.14134
3864.65119,0.13933
3866.57966,0.13964
3868.50813,0.14359
3870.43660,0.14642
3872.36507,0.15552
3874.29354,0.16700
3876.22200,0.16552
3878.15047,0.15624
3880.07894,0.14615
3882.00741,0.13818
3883.93588,0.13711
3885.86435,0.13853
3887.79282,0.13844
3889.72129,0.14264
3891.64975,0.14783
3893.57822,0.14058
3895.50669,0.13074
3897.43516,0.12784
3899.36363,0.12655
3901.29210,0.12327
3903.22057,0.12099
3905.14903,0.12008
3907.07750,0.11973
3909.00597,0.12116
3910.93444,0.12335
3912.86291,0.12572
3914.79138,0.12926
3916.71985,0.13200
3918.64832,0.13250
3920.57678,0.13267
3922.50525,0.13632
3924.43372,0.14056
3926.36219,0.13872
3928.29066,0.13631
3930.21913,0.13642
3932.14760,0.13209
3934.07606,0.12654
3936.00453,0.12935
3937.93300,0.13310
3939.86147,0.12920
3941.78994,0.12472
3943.71841,0.12410
3945.64688,0.12211
3947.57535,0.11965
3949.50381,0.11856
3951.43228,0.11669
3953.36075,0.11711
3955.28922,0.12084
3957.21769,0.12183
3959.14616,0.11880
3961.07463,0.11750
3963.00309,0.12099
3964.93156,0.12486
3966.86003,0.12387
3968.78850,0.11922
3970.71697,0.11594
3972.64544,0.11743
3974.57391,0.12413
3976.50238,0.12859
3978.43084,0.12458
3980.35931,0.11944
3982.28778,0.11877
3984.21625,0.11758
3986.14472,0.11423
3988.07319,0.11406
3990.00166,0.11643
3991.93012,0.11709
3993.85859,0.11625
3995.78706,0.11264
3997.71553,0.10669
3999.64400,0.10477
4001.57247,0.11024
4003.50094,0.11819
4005.42941,0.12069
4007.35787,0.11681
4009.28634,0.11291
4011.21481,0.11124
4013.14328,0.11224
4015.07175,0.11604
4017.00022,0.11571
4018.92869,0.10950
4020.85715,0.10338
4022.78562,0.10361
4024.71409,0.11005
4026.64256,0.11366
4028.57103,0.11275
4030.49950,0.11045
4032.42797,0.10648
4034.35644,0.10451
4036.28490,0.10703
4038.21337,0.11006
4040.14184,0.11017
4042.07031,0.10851
4043.99878,0.10806
4045.92725,0.11141
4047.85572,0.11418
4049.78418,0.11153
4051.71265,0.10776
4053.64112,0.10322
4055.56959,0.09788
4057.49806,0.09768
4059.42653,0.10126
4061.35500,0.10536
4063.28346,0.11036
4065.21193,0.11448
4067.14040,0.11560
4069.06887,0.11396
4070.99734,0.11282
4072.92581,0.11091
4074.85428,0.10655
4076.78275,0.10446
4078.71121,0.10347
4080.63968,0.10066
4082.56815,0.09945
4084.49662,0.10113
4086.42509,0.10146
4088.35356,0.09646
4090.28203,0.09138
4092.21049,0.09430
4094.13896,0.10034
4096.06743,0.10129
4097.99590,0.10102
4099.92437,0.10468
4101.85284,0.10804
4103.78131,0.10207
4105.70978,0.09080
4107.63824,0.08937
4109.56671,0.09571
4111.49518,0.10031
4113.42365,0.10203
4115.35212,0.10116
4117.28059,0.09810
4119.20906,0.09339
4121.13752,0.09155
4123.06599,0.09405
4124.99446,0.09491
4126.92293,0.09339
4128.85140,0.09149
4130.77987,0.08739
4132.70834,0.08383
4134.63681,0.08551
4136.56527,0.09027
4138.49374,0.09627
4140.42221,0.10101
4142.35068,0.10028
4144.27915,0.10006
4146.20762,0.10316
4148.13609,0.09908
4150.06455,0.08901
4151.99302,0.08569
4153.92149,0.08842
4155.84996,0.08915
4157.77843,0.09158
4159.70690,0.09931
4161.63537,0.10344
4163.56384,0.09838
4165.49230,0.08991
4167.42077,0.08668
4169.34924,0.08990
4171.27771,0.09138
4173.20618,0.08899
4175.13465,0.08773
4177.06312,0.08725
4178.99158,0.08835
4180.92005,0.09309
4182.84852,0.09605
4184.77699,0.09118
4186.70546,0.08079
4188.63393,0.07773
4190.56240,0.08535
4192.49087,0.09149
4194.41933,0.09176
4196.34780,0.08852
4198.27627,0.08609
4200.20474,0.08662
4202.13321,0.08802
4204.06168,0.08935
4205.99015,0.08813
4207.91861,0.08495
4209.84708,0.08051
4211.77555,0.07647
4213.70402,0.07888
4215.63249,0.08562
4217.56096,0.08661
4219.48943,0.08193
4221.41789,0.08134
4223.34636,0.08508
4225.27483,0.08750
4227.20330,0.08538
4229.13177,0.08020
4231.06024,0.08031
4232.98871,0.08541
4234.91718,0.08647
4236.84564,0.08351
4238.77411,0.08346
4240.70258,0.08604
4242.63105,0.08716
4244.55952,0.08897
4246.48799,0.09124
4248.41646,0.08728
4250.34492,0.07945
4252.27339,0.07515
4254.20186,0.07356
4256.13033,0.07426
4258.05880,0.07586
4259.98727,0.07364
4261.91574,0.06718
4263.84421,0.06041
4265.77267,0.06039
4267.70114,0.06743
4269.62961,0.07297
4271.55808,0.07359
4273.48655,0.07400
4275.41502,0.07667
4277.34349,0.07665
4279.27195,0.07382
4281.20042,0.07373
4283.12889,0.07346
4285.05736,0.06902
4286.98583,0.06263
4288.91430,0.05643
4290.84277,0.05581
4292.77124,0.06177
4294.69970,0.06197
4296.62817,0.05656
4298.55664,0.06229
4300.48511,0.07405
4302.41358,0.07183
4304.34205,0.06324
4306.27052,0.06467
4308.19898,0.06517
4310.12745,0.05676
4312.05592,0.05248
4313.98439,0.05620
4315.91286,0.06043
4317.84133,0.06299
4319.76980,0.06686
4321.69827,0.07227
4323.62673,0.07564
4325.55520,0.07463
4327.48367,0.06955
4329.41214,0.06251
4331.34061,0.05713
4333.26908,0.05649
4335.19755,0.05731
4337.12601,0.05558
4339.05448,0.05477
4340.98295,0.05720
4342.91142,0.05982
4344.83989,0.06188
4346.76836,0.06325
4348.69683,0.05956
4350.62530,0.05469
4352.55376,0.05484
4354.48223,0.05360
4356.41070,0.05149
4358.33917,0.05355
4360.26764,0.05218
4362.19611,0.04770
4364.12458,0.04953
4366.05304,0.05287
4367.98151,0.04888
4369.90998,0.04453
4371.83845,0.04745
4373.76692,0.05035
4375.69539,0.04715
4377.62386,0.04298
4379.55232,0.04385
4381.48079,0.04831
4383.40926,0.05052
4385.33773,0.05044
4387.26620,0.05380
4389.19467,0.06023
4391.12314,0.06098
4393.05161,0.05422
4394.98007,0.04696
4396.90854,0.04308
4398.83701,0.04606
4400.76548,0.05331
4402.69395,0.05368
4404.62242,0.04618
4406.55089,0.04111
4408.47935,0.04381
4410.40782,0.04633
4412.33629,0.04105
4414.26476,0.03667
4416.19323,0.04124
4418.12170,0.04974
4420.05017,0.05248
4421.97864,0.04408
4423.90710,0.03516
4425.83557,0.03447
4427.76404,0.03435
4429.69251,0.03378
4431.62098,0.03934
4433.54945,0.04763
4435.47792,0.04997
4437.40638,0.04894
4439.33485,0.05267
4441.26332,0.05963
4443.19179,0.06124
4445.12026,0.05138
4447.04873,0.03862
4448.97720,0.03390
4450.90567,0.03459
4452.83413,0.03656
4454.76260,0.03675
4456.69107,0.03258
4458.61954,0.02714
4460.54801,0.02572
4462.47648,0.02955
4464.40495,0.03347
4466.33341,0.03320
4468.26188,0.02828
4470.19035,0.01866
4472.11882,0.01333
4474.04729,0.01934
4475.97576,0.02364
4477.90423,0.01851
4479.83270,0.01704
4481.76116,0.02519
4483.68963,0.03035
4485.61810,0.02647
4487.54657,0.02506
4489.47504,0.03134
4491.40351,0.03383
4493.33198,0.02426
4495.26044,0.01309
4497.18891,0.01152
4499.11738,0.01706
4501.04585,0.02482
4502.97432,0.03190
4504.90279,0.03246
4506.83126,0.02538
4508.75973,0.01720
4510.68819,0.01584
4512.61666,0.02300
4514.54513,0.02614
4516.47360,0.02114
4518.40207,0.02000
4520.33054,0.02214
4522.25901,0.01876
4524.18747,0.01264
4526.11594,0.01166
4528.04441,0.01217
4529.97288,0.01106
4531.90135,0.01567
4533.82982,0.02419
4535.75829,0.03023
4537.68676,0.03406
4539.61522,0.03211
4541.54369,0.02031
4543.47216,0.00813
4545.40063,0.00616
4547.32910,0.01271
4549.25757,0.01941
4551.18604,0.01924
4553.11450,0.01515
4555.04297,0.01524
4556.97144,0.01904
4558.89991,0.01987
4560.82838,0.01800
4562.75685,0.01673
4564.68532,0.01781
4566.61378,0.02299
4568.54225,0.02305
4570.47072,0.01207
4572.39919,0.00619
4574.32766,0.01602
4576.25613,0.02462
4578.18460,0.01948
4580.11307,0.01076
4582.04153,0.00582
4583.97000,0.00672
4585.89847,0.01313
4587.82694,0.01668
4589.75541,0.01566
4591.68388,0.01400
4593.61235,0.01039
4595.54081,0.00654
4597.46928,0.01143
4599.39775,0.02561
4601.32622,0.03386
4603.25469,0.02573
4605.18316,0.01135
4607.11163,0.00649
4609.04010,0.01111
4610.96856,0.01592
4612.89703,0.01668
4614.82550,0.01618
4616.75397,0.01584
4618.68244,0.01127
4620.61091,0.00413
4622.53938,0.00234
4624.46784,0.00531
4626.39631,0.00458
4628.32478,-0.00416
4630.25325,-0.01092
4632.18172,-0.00547
4634.11019,0.00371
4636.03866,0.00956
4637.96713,0.01135
4639.89559,0.00592
4641.82406,0.00370
4643.75253,0.00988
4645.68100,0.01413
4647.60947,0.01517
4649.53794,0.02055
4651.46641,0.03107
4653.39487,0.03429
4655.32334,0.02243
4657.25181,0.00621
4659.18028,0.00247
4661.10875,0.00852
4663.03722,0.00191
4664.96569,-0.01525
4666.89416,-0.01986
4668.82262,-0.00822
4670.75109,0.00789
4672.67956,0.01333
4674.60803,0.00361
4676.53650,-0.00493
4678.46497,-0.00390
4680.39344,0.00048
4682.32190,0.00759
4684.25037,0.01646
4686.17884,0.02558
4688.10731,0.03248
4690.03578,0.02973
4691.96425,0.01616
4693.89272,0.00326
4695.82119,0.00335
4697.74965,0.01251
4699.67812,0.01729
4701.60659,0.01331
4703.53506,0.00858
4705.46353,0.00937
4707.39200,0.01276
4709.32047,0.01788
4711.24893,0.02764
4713.17740,0.03789
4715.10587,0.04094
4717.03434,0.03591
4718.96281,0.02618
4720.89128,0.01829
4722.81975,0.01761
4724.74821,0.02275
4726.67668,0.02968
4728.60515,0.02927
4730.53362,0.01838
4732.46209,0.01118
4734.39056,0.01179
4736.31903,0.00736
4738.24750,0.00215
4740.17596,0.00769
4742.10443,0.01752
4744.03290,0.01852
4745.96137,0.00875
4747.88984,-0.00077
4749.81831,-0.00299
4751.74678,-0.00287
4753.67524,-0.00465
4755.60371,-0.00020
4757.53218,0.01308
4759.46065,0.02157
4761.38912,0.02327
4763.31759,0.02568
4765.24606,0.02757
4767.17453,0.02448
4769.10299,0.01474
4771.03146,0.00679
4772.95993,0.01057
4774.88840,0.01803
4776.81687,0.01775
4778.74534,0.01298
4780.67381,0.00899
4782.60227,0.00510
4784.53074,0.00477
4786.45921,0.01142
4788.38768,0.01417
4790.31615,0.00808
4792.24462,0.00551
4794.17309,0.00815
4796.10156,0.01067
4798.03002,0.01504
4799.95849,0.01895
4801.88696,0.02419
4803.81543,0.03610
4805.74390,0.04120
4807.67237,0.02710
4809.60084,0.00516
4811.52930,-0.00362
4813.45777,0.00415
4815.38624,0.00725
4817.31471,0.00182
4819.24318,0.00584
4821.17165,0.01100
4823.10012,0.00155
4825.02859,-0.00853
4826.95705,-0.00471
4828.88552,0.00474
4830.81399,0.00772
4832.74246,0.00007
4834.67093,-0.01370
4836.59940,-0.01989
4838.52787,-0.01028
4840.45633,0.00059
4842.38480,0.00325
4844.31327,0.00758
4846.24174,0.01255
4848.17021,0.01322
4850.09868,0.01149
4852.02715,0.00550
4853.95562,-0.00085
4855.88408,0.00277
4857.81255,0.01280
4859.74102,0.01770
4861.66949,0.01719
4863.59796,0.01311
4865.52643,0.00746
4867.45490,0.00818
4869.38336,0.01327
4871.31183,0.01247
4873.24030,0.00618
4875.16877,0.00696
4877.09724,0.01895
4879.02571,0.02577
4880.95418,0.01509
4882.88265,0.00096
4884.81111,0.00003
4886.73958,0.00764
4888.66805,0.01407
4890.59652,0.01582
4892.52499,0.01273
4894.45346,0.00802
4896.38193,-0.00252
4898.31039,-0.01543
4900.23886,-0.01322
4902.16733,0.00262
4904.09580,0.01562
4906.02427,0.01785
4907.95274,0.00823
4909.88121,-0.01252
4911.80967,-0.02965
4913.73814,-0.02181
4915.66661,0.00370
4917.59508,0.01837
4919.52355,0.01175
4921.45202,0.00078
4923.38049,-0.00276
4925.30896,-0.00356
4927.23742,0.00173
4929.16589,0.00983
4931.09436,0.01663
4933.02283,0.03122
4934.95130,0.03974
4936.87977,0.03466
4938.80824,0.03436
4940.73670,0.03204
4942.66517,0.01644
4944.59364,0.00756
4946.52211,0.01007
4948.45058,0.00709
4950.37905,-0.00369
4952.30752,-0.00835
4954.23599,-0.00331
4956.16445,-0.00212
4958.09292,-0.00796
4960.02139,-0.01284
4961.94986,-0.01184
4963.87833,-0.00943
4965.80680,-0.00886
4967.73527,0.00036
4969.66373,0.01668
4971.59220,0.02441
4973.52067,0.02053
4975.44914,0.01891
4977.37761,0.02316
4979.30608,0.01743
4981.23455,0.00117
4983.16302,-0.00890
4985.09148,-0.00897
4987.01995,-0.00360
4988.94842,0.00504
4990.87689,0.01392
4992.80536,0.02243
4994.73383,0.03364
4996.66230,0.04216
4998.59076,0.04051
5000.51923,0.03200
5002.44770,0.01899
5004.37617,0.00995
5006.30464,0.01825
5008.23311,0.03070
5010.16158,0.02942
5012.09005,0.02746
5014.01851,0.03344
5015.94698,0.03842
5017.87545,0.04097
5019.80392,0.03685
5021.73239,0.01906
5023.66086,-0.00101
5025.58933,-0.00349
5027.51779,0.00655
5029.44626,0.01427
5031.37473,0.02338
5033.30320,0.03486
5035.23167,0.03760
5037.16014,0.02783
5039.08861,0.02154
5041.01708,0.02883
5042.94554,0.03606
5044.87401,0.03386
5046.80248,0.02406
5048.73095,0.01253
5050.65942,0.01025
5052.58789,0.01737
5054.51636,0.02165
5056.44482,0.02202
5058.37329,0.02107
5060.30176,0.01821
5062.23023,0.02006
5064.15870,0.02299
5066.08717,0.01549
5068.01564,0.00651
5069.94410,0.00925
5071.87257,0.01793
5073.80104,0.02482
5075.72951,0.02525
5077.65798,0.02167
5079.58645,0.02671
5081.51492,0.03667
5083.44339,0.04079
5085.37185,0.03920
5087.30032,0.02955
5089.22879,0.02042
5091.15726,0.02982
5093.08573,0.04895
5095.01420,0.05499
5096.94267,0.04151
5098.87113,0.01876
5100.79960,0.00393
5102.72807,0.00502
5104.65654,0.01540
5106.58501,0.02148
5108.51348,0.02072
5110.44195,0.02134
5112.37042,0.01747
5114.29888,0.01250
5116.22735,0.02516
5118.15582,0.03915
5120.08429,0.03210
5122.01276,0.02013
5123.94123,0.02158
5125.86970,0.03082
5127.79816,0.03370
5129.72663,0.02734
5131.65510,0.01888
5133.58357,0.01504
5135.51204,0.01711
5137.44051,0.02076
5139.36898,0.02001
5141.29745,0.01315
5143.22591,0.01526
5145.15438,0.02951
5147.08285,0.03204
5149.01132,0.02694
5150.93979,0.03390
5152.86826,0.03936
5154.79673,0.03086
5156.72519,0.02031
5158.65366,0.01949
5160.58213,0.03089
5162.51060,0.05131
5164.43907,0.07554
5166.36754,0.08995
5168.29601,0.07891
5170.22448,0.05395
5172.15294,0.03720
5174.08141,0.02915
5176.00988,0.02823
5177.93835,0.04043
5179.86682,0.05868
5181.79529,0.06748
5183.72376,0.06417
5185.65222,0.05508
5187.58069,0.04987
5189.50916,0.04843
5191.43763,0.04229
5193.36610,0.04007
5195.29457,0.04812
5197.22304,0.05089
5199.15151,0.04091
5201.07997,0.03298
5203.00844,0.03322
5204.93691,0.03421
5206.86538,0.03946
5208.79385,0.05602
5210.72232,0.07506
5212.65079,0.08433
5214.57925,0.08298
5216.50772,0.07043
5218.43619,0.04704
5220.36466,0.04170
5222.29313,0.06615
5224.22160,0.08499
5226.15007,0.06748
5228.07854,0.03366
5230.00700,0.02482
5231.93547,0.04111
5233.86394,0.05262
5235.79241,0.04259
5237.72088,0.02809
5239.64935,0.03407
5241.57782,0.04706
5243.50628,0.03664
5245.43475,0.02139
5247.36322,0.04374
5249.29169,0.07626
5251.22016,0.07808
5253.14863,0.07149
5255.07710,0.07223
5257.00556,0.07551
5258.93403,0.07087
5260.86250,0.04809
5262.79097,0.02732
5264.71944,0.03456
5266.64791,0.05646
5268.57638,0.06595
5270.50485,0.05524
5272.43331,0.03941
5274.36178,0.04300
5276.29025,0.06555
5278.21872,0.07444
5280.14719,0.06063
5282.07566,0.04569
5284.00413,0.03375
5285.93259,0.02562
5287.86106,0.01927
5289.78953,0.01610
5291.71800,0.03641
5293.64647,0.06646
5295.57494,0.08092
5297.50341,0.08258
5299.43188,0.07938
5301.36034,0.07341
5303.28881,0.06906
5305.21728,0.06916
5307.14575,0.06193
5309.07422,0.04710
5311.00269,0.03952
5312.93116,0.03814
5314.85962,0.04085
5316.78809,0.05065
5318.71656,0.06043
5320.64503,0.06068
5322.57350,0.05588
5324.50197,0.05372
5326.43044,0.06162
5328.35891,0.08015
5330.28737,0.08186
5332.21584,0.06301
5334.14431,0.05595
5336.07278,0.06118
5338.00125,0.06347
5339.92972,0.06857
5341.85819,0.07811
5343.78665,0.08211
5345.71512,0.06938
5347.64359,0.06050
5349.57206,0.06965
5351.50053,0.07431
5353.42900,0.06910
5355.35747,0.07230
5357.28594,0.08181
5359.21440,0.08349
5361.14287,0.07173
5363.07134,0.06607
5364.99981,0.08369
5366.92828,0.10038
5368.85675,0.09707
5370.78522,0.07656
5372.71368,0.04635
5374.64215,0.03035
5376.57062,0.03625
5378.49909,0.04495
5380.42756,0.05692
5382.35603,0.07010
5384.28450,0.06917
5386.21297,0.05664
5388.14143,0.06450
5390.06990,0.09445
5391.99837,0.10840
5393.92684,0.08872
5395.85531,0.06702
5397.78378,0.06521
5399.71225,0.07357
5401.64071,0.08415
5403.56918,0.08385
5405.49765,0.06749
5407.42612,0.05259
5409.35459,0.04125
5411.28306,0.03779
5413.21153,0.05632
5415.13999,0.06734
5417.06846,0.06397
5418.99693,0.06479
5420.92540,0.06078
5422.85387,0.05602
5424.78234,0.06101
5426.71081,0.05819
5428.63928,0.03846
5430.56774,0.02887
5432.49621,0.03883
5434.42468,0.04575
5436.35315,0.04805
5438.28162,0.06473
5440.21009,0.08848
5442.13856,0.08686
5444.06702,0.06368
5445.99549,0.06410
5447.92396,0.08675
5449.85243,0.09685
5451.78090,0.10561
5453.70937,0.11575
5455.63784,0.10456
5457.56631,0.08318
5459.49477,0.08318
5461.42324,0.11231
5463.35171,0.14107
5465.28018,0.12795
5467.20865,0.09000
5469.13712,0.07573
5471.06559,0.08330
5472.99405,0.07219
5474.92252,0.04547
5476.85099,0.04603
5478.77946,0.06321
5480.70793,0.06965
5482.63640,0.08324
5484.56487,0.11672
5486.49334,0.13372
5488.42180,0.10747
5490.35027,0.08264
5492.27874,0.10167
5494.20721,0.13502
5496.13568,0.12900
5498.06415,0.08391
5499.99262,0.04989
5501.92108,0.04596
5503.84955,0.04685
5505.77802,0.04896
5507.70649,0.06062
5509.63496,0.07611
5511.56343,0.09061
5513.49190,0.10960
5515.42037,0.12405
5517.34883,0.11019
5519.27730,0.07477
5521.20577,0.05564
5523.13424,0.07401
5525.06271,0.10780
5526.99118,0.11492
5528.91965,0.09054
5530.84811,0.05515
5532.77658,0.03117
5534.70505,0.04309
5536.63352,0.07739
5538.56199,0.09872
5540.49046,0.09881
5542.41893,0.08980
5544.34740,0.08241
5546.27586,0.07198
5548.20433,0.06097
5550.13280,0.05854
5552.06127,0.06015
5553.98974,0.05756
5555.91821,0.05700
5557.84668,0.06649
5559.77514,0.07789
5561.70361,0.08731
5563.63208,0.09644
5565.56055,0.10133
5567.48902,0.08965
5569.41749,0.07542
5571.34596,0.08504
5573.27443,0.10324
5575.20289,0.11779
5577.13136,0.12935
5579.05983,0.12058
5580.98830,0.09130
5582.91677,0.06798
5584.84524,0.07632
5586.77371,0.11191
5588.70217,0.12865
5590.63064,0.09889
5592.55911,0.05949
5594.48758,0.04017
5596.41605,0.02846
5598.34452,0.02489
5600.27299,0.04339
5602.20145,0.06123
5604.12992,0.05997
5606.05839,0.06074
5607.98686,0.08010
5609.91533,0.11304
5611.84380,0.12236
5613.77227,0.07866
5615.70074,0.02436
5617.62920,0.00304
5619.55767,0.01797
5621.48614,0.04595
5623.41461,0.06004
5625.34308,0.07212
5627.27155,0.08772
5629.20002,0.09047
5631.12848,0.08235
5633.05695,0.07614
5634.98542,0.08622
5636.91389,0.10606
5638.84236,0.11959
5640.77083,0.11709
5642.69930,0.10115
5644.62777,0.10006
5646.55623,0.11539
5648.48470,0.11420
5650.41317,0.09124
5652.34164,0.06730
5654.27011,0.06449
5656.19858,0.08133
5658.12705,0.08869
5660.05551,0.08087
5661.98398,0.07904
5663.91245,0.07681
5665.84092,0.07312
5667.76939,0.09323
5669.69786,0.12126
5671.62633,0.13529
5673.55480,0.15683
5675.48326,0.18071
5677.41173,0.17437
5679.34020,0.14459
5681.26867,0.11798
5683.19714,0.10637
5685.12561,0.10652
5687.05408,0.11105
5688.98254,0.10908
5690.91101,0.09211
5692.83948,0.08666
5694.76795,0.10428
5696.69642,0.10469
5698.62489,0.09258
5700.55336,0.11243
5702.48183,0.13586
5704.41029,0.11568
5706.33876,0.07910
5708.26723,0.06971
5710.19570,0.07934
5712.12417,0.09269
5714.05264,0.11491
5715.98111,0.12140
5717.90957,0.08488
5719.83804,0.04672
5721.76651,0.05778
5723.69498,0.08476
5725.62345,0.07605
5727.55192,0.05632
5729.48039,0.06657
5731.40886,0.08857
5733.33732,0.09744
5735.26579,0.09663
5737.19426,0.09858
5739.12273,0.09482
5741.05120,0.07307
5742.97967,0.06313
5744.90814,0.07876
5746.83660,0.08515
5748.76507,0.08135
5750.69354,0.09690
5752.62201,0.11069
5754.55048,0.09154
5756.47895,0.07152
5758.40742,0.08909
5760.33588,0.13878
5762.26435,0.19012
5764.19282,0.18605
5766.12129,0.12225
5768.04976,0.07124
5769.97823,0.05266
5771.90670,0.05232
5773.83517,0.07315
5775.76363,0.08420
5777.69210,0.05010
5779.62057,0.02373
5781.54904,0.05473
5783.47751,0.09614
5785.40598,0.12831
5787.33445,0.15289
5789.26291,0.13910
5791.19138,0.11598
5793.11985,0.12061
5795.04832,0.11504
5796.97679,0.09393
5798.90526,0.09259
5800.83373,0.10041
5802.76220,0.11202
5804.69066,0.12566
5806.61913,0.11414
5808.54760,0.09306
5810.47607,0.09623
5812.40454,0.09602
5814.33301,0.05271
5816.26148,0.00345
5818.18994,0.01614
5820.11841,0.07207
5822.04688,0.09502
5823.97535,0.08569
5825.90382,0.09073
5827.83229,0.12359
5829.76076,0.15847
5831.68923,0.17290
5833.61769,0.16246
5835.54616,0.12760
5837.47463,0.10127
5839.40310,0.10150
5841.33157,0.10458
5843.26004,0.08431
5845.18851,0.06046
5847.11697,0.06573
5849.04544,0.06672
5850.97391,0.04168
5852.90238,0.04420
5854.83085,0.08542
5856.75932,0.11955
5858.68779,0.13372
5860.61626,0.13432
5862.54472,0.12305
5864.47319,0.11763
5866.40166,0.11423
5868.33013,0.09273
5870.25860,0.07650
5872.18707,0.09822
5874.11554,0.12849
5876.04400,0.13617
5877.97247,0.14267
5879.90094,0.16328
5881.82941,0.15461
5883.75788,0.07802
5885.68635,0.00478
5887.61482,0.01830
5889.54329,0.07805
5891.47175,0.10080
5893.40022,0.10431
5895.32869,0.12243
5897.25716,0.11262
5899.18563,0.08063
5901.11410,0.08179
5903.04257,0.10211
5904.97103,0.10351
5906.89950,0.09640
5908.82797,0.09371
5910.75644,0.08767
5912.68491,0.08451
5914.61338,0.10016
5916.54185,0.13167
5918.47032,0.13790
5920.39878,0.10484
5922.32725,0.09037
5924.25572,0.09575
5926.18419,0.07465
5928.11266,0.05462
5930.04113,0.05843
5931.96960,0.07778
5933.89806,0.11064
5935.82653,0.11799
5937.75500,0.09226
5939.68347,0.07586
5941.61194,0.08456
5943.54041,0.09072
5945.46888,0.07859
5947.39734,0.06268
5949.32581,0.03696
5951.25428,0.01978
5953.18275,0.05333
5955.11122,0.11640
5957.03969,0.15010
5958.96816,0.12678
5960.89663,0.08476
5962.82509,0.08866
5964.75356,0.12581
5966.68203,0.14334
5968.61050,0.14391
5970.53897,0.14478
5972.46744,0.14833
5974.39591,0.15106
5976.32437,0.13663
5978.25284,0.12528
5980.18131,0.11438
5982.10978,0.07840
5984.03825,0.05228
5985.96672,0.05210
5987.89519,0.04160
5989.82366,0.04021
5991.75212,0.08190
5993.68059,0.11727
5995.60906,0.09564
5997.53753,0.06855
5999.46600,0.08633
6001.39447,0.11540
6003.32294,0.12375
6005.25140,0.11784
6007.17987,0.10604
6009.10834,0.11018
6011.03681,0.13133
6012.96528,0.12800
6014.89375,0.11134
6016.82222,0.12130
6018.75069,0.12143
6020.67915,0.08516
6022.60762,0.07802
6024.53609,0.10208
6026.46456,0.10971
6028.39303,0.11176
6030.32150,0.09422
6032.24997,0.04619
6034.17843,0.04086
6036.10690,0.08316
6038.03537,0.08449
6039.96384,0.06397
6041.89231,0.08037
6043.82078,0.11022
6045.74925,0.12329
6047.67772,0.10649
6049.60618,0.06727
6051.53465,0.05089
6053.46312,0.07438
6055.39159,0.11646
6057.32006,0.13867
6059.24853,0.14121
6061.17700,0.14924
6063.10546,0.12707
6065.03393,0.07338
6066.96240,0.05295
6068.89087,0.06912
6070.81934,0.09822
6072.74781,0.11876
6074.67628,0.09966
6076.60475,0.06522
6078.53321,0.05839
6080.46168,0.06641
6082.39015,0.08751
6084.31862,0.13590
6086.24709,0.15137
6088.17556,0.10278
6090.10403,0.07369
6092.03249,0.08783
6093.96096,0.10672
6095.88943,0.11050
6097.81790,0.07909
6099.74637,0.05651
6101.67484,0.09150
6103.60331,0.14419
6105.53177,0.18933
6107.46024,0.19368
6109.38871,0.14749
6111.31718,0.12959
6113.24565,0.13811
6115.17412,0.12609
6117.10259,0.10957
6119.03106,0.11283
6120.95952,0.12413
6122.88799,0.11609
6124.81646,0.09100
6126.74493,0.07244
6128.67340,0.06496
6130.60187,0.04895
6132.53034,0.03092
6134.45880,0.02416
6136.38727,0.03126
6138.31574,0.07612
6140.24421,0.12715
6142.17268,0.10116
6144.10115,0.05239
6146.02962,0.06343
6147.95809,0.07701
6149.88655,0.07511
6151.81502,0.08898
6153.74349,0.08691
6155.67196,0.07211
6157.60043,0.08461
6159.52890,0.10808
6161.45737,0.12027
6163.38583,0.11628
6165.31430,0.10573
6167.24277,0.13201
6169.17124,0.18731
6171.09971,0.21067
6173.02818,0.20386
6174.95665,0.20664
6176.88512,0.17777
6178.81358,0.10164
6180.74205,0.05964
6182.67052,0.07850
6184.59899,0.11339
6186.52746,0.12571
6188.45593,0.08998
6190.38440,0.04268
6192.31286,0.04308
6194.24133,0.07311
6196.16980,0.08390
6198.09827,0.07790
6200.02674,0.08974
6201.95521,0.12433
6203.88368,0.12347
6205.81215,0.07407
6207.74061,0.08127
6209.66908,0.17134
6211.59755,0.23539
6213.52602,0.21656
6215.45449,0.15965
6217.38296,0.12191
6219.31143,0.11406
6221.23989,0.09512
6223.16836,0.05428
6225.09683,0.02219
6227.02530,0.00261
6228.95377,0.00626
6230.88224,0.06171
6232.81071,0.12518
6234.73918,0.14872
6236.66764,0.15060
6238.59611,0.14489
6240.52458,0.13277
6242.45305,0.11401
6244.38152,0.09667
6246.30999,0.07898
6248.23846,0.07279
6250.16692,0.07838
6252.09539,0.04176
6254.02386,-0.01243
6255.95233,-0.01874
6257.88080,0.00894
6259.80927,0.04953
6261.73774,0.10142
6263.66621,0.10858
6265.59467,0.03680
6267.52314,-0.01032
6269.45161,0.03096
6271.38008,0.08380
6273.30855,0.07686
6275.23702,0.03498
6277.16549,0.02275
6279.09395,0.01373
6281.02242,0.01296
6282.95089,0.08466
6284.87936,0.15952
6286.80783,0.15573
6288.73630,0.13415
6290.66477,0.14494
6292.59323,0.17856
6294.52170,0.20319
6296.45017,0.18285
6298.37864,0.13576
6300.30711,0.11544
6302.23558,0.14928
6304.16405,0.20474
6306.09252,0.24022
6308.02098,0.21961
6309.94945,0.13304
6311.87792,0.05822
6313.80639,0.06458
6315.73486,0.12273
6317.66333,0.14755
6319.59180,0.12327
6321.52026,0.12288
6323.44873,0.13005
6325.37720,0.08700
6327.30567,0.02022
6329.23414,-0.02787
6331.16261,-0.03656
6333.09108,-0.00301
6335.01955,0.03743
6336.94801,0.07976
6338.87648,0.15138
6340.80495,0.16660
6342.73342,0.09056
6344.66189,0.04630
6346.59036,0.05112
6348.51883,0.02621
6350.44729,0.00710
6352.37576,0.04091
6354.30423,0.07676
6356.23270,0.09665
6358.16117,0.11769
6360.08964,0.12180
6362.01811,0.10143
6363.94658,0.07742
6365.87504,0.05411
6367.80351,0.04371
6369.73198,0.05586
6371.66045,0.09032
6373.58892,0.14918
6375.51739,0.16450
6377.44586,0.12074
6379.37432,0.09961
6381.30279,0.10763
6383.23126,0.09453
6385.15973,0.05306
6387.08820,0.02322
6389.01667,0.00466
6390.94514,-0.04207
6392.87361,-0.05942
6394.80207,0.01073
6396.73054,0.05235
6398.65901,0.03490
6400.58748,0.03477
6402.51595,0.02897
6404.44442,-0.01083
6406.37289,-0.01655
6408.30135,0.03959
6410.22982,0.14160
6412.15829,0.22915
6414.08676,0.25042
6416.01523,0.24673
6417.94370,0.21508
6419.87217,0.14552
6421.80064,0.08020
6423.72910,0.03606
6425.65757,0.04519
6427.58604,0.11295
6429.51451,0.16990
6431.44298,0.18787
6433.37145,0.18427
6435.29992,0.12402
6437.22838,0.03752
6439.15685,0.03173
6441.08532,0.05956
6443.01379,0.01887
6444.94226,-0.03888
6446.87073,-0.01682
6448.79920,0.03493
6450.72766,0.03251
6452.65613,-0.00163
6454.58460,-0.04279
6456.51307,-0.07937
6458.44154,-0.03987
6460.37001,0.06307
6462.29848,0.16102
6464.22695,0.24089
6466.15541,0.26934
6468.08388,0.22094
6470.01235,0.15552
6471.94082,0.09361
6473.86929,0.03841
6475.79776,0.06116
6477.72623,0.14593
6479.65469,0.20860
6481.58316,0.21175
6483.51163,0.14445
6485.44010,0.06562
6487.36857,0.04963
6489.29704,0.09446
6491.22551,0.11686
6493.15398,0.09470
6495.08244,0.05569
6497.01091,0.01424
6498.93938,0.04861
6500.86785,0.12715
6502.79632,0.12058
6504.72479,0.06382
6506.65326,0.05576
6508.58172,0.12365
6510.51019,0.19370
6512.43866,0.19450
6514.36713,0.14928
6516.29560,0.10072
6518.22407,0.08957
6520.15254,0.10858
6522.08101,0.12291
6524.00947,0.14429
6525.93794,0.18923
6527.86641,0.22872
6529.79488,0.23751
6531.72335,0.21564
6533.65182,0.15380
6535.58029,0.08015
6537.50875,0.06261
6539.43722,0.09627
6541.36569,0.11727
6543.29416,0.06172
6545.22263,-0.03379
6547.15110,-0.04647
6549.07957,0.01106
6551.00804,0.04894
6552.93650,0.08379
6554.86497,0.17017
6556.79344,0.23390
6558.72191,0.18695
6560.65038,0.10803
6562.57885,0.10534
6564.50732,0.13666
6566.43578,0.12283
6568.36425,0.10249
6570.29272,0.10517
6572.22119,0.10402
6574.14966,0.13604
6576.07813,0.16610
6578.00660,0.11667
6579.93507,0.06043
6581.86353,0.06040
6583.79200,0.04019
6585.72047,-0.01231
6587.64894,-0.00404
6589.57741,0.07082
6591.50588,0.15028
6593.43435,0.21168
6595.36281,0.25710
6597.29128,0.27217
6599.21975,0.22343
6601.14822,0.13574
6603.07669,0.09923
6605.00516,0.10467
6606.93363,0.07222
6608.86210,0.02124
6610.79056,-0.00683
6612.71903,-0.03051
6614.64750,-0.01898
6616.57597,0.03214
6618.50444,0.04856
6620.43291,-0.01491
6622.36138,-0.09075
6624.28984,-0.07635
6626.21831,0.00121
6628.14678,0.08352
6630.07525,0.15375
6632.00372,0.17725
6633.93219,0.17000
6635.86066,0.18300
6637.78912,0.17023
6639.71759,0.12848
6641.64606,0.13635
6643.57453,0.15521
6645.50300,0.15208
6647.43147,0.15467
6649.35994,0.12143
6651.28841,0.08017
6653.21687,0.08842
6655.14534,0.07697
6657.07381,-0.00501
6659.00228,-0.02804
6660.93075,0.07293
6662.85922,0.11527
6664.78769,0.02638
6666.71615,-0.01121
6668.64462,0.07176
6670.57309,0.17589
6672.50156,0.22650
6674.43003,0.19701
6676.35850,0.15485
6678.28697,0.11191
6680.21544,0.03115
6682.14390,-0.04562
6684.07237,-0.06637
6686.00084,-0.07615
6687.92931,-0.11167
6689.85778,-0.10940
6691.78625,-0.07688
6693.71472,-0.07230
6695.64318,-0.08912
6697.57165,-0.07637
6699.50012,-0.04353
6701.42859,-0.06843
6703.35706,-0.12316
6705.28553,-0.09081
6707.21400,0.04219
6709.14247,0.16418
6711.07093,0.20000
6712.99940,0.15072
6714.92787,0.06051
6716.85634,0.00827
6718.78481,0.05429
6720.71328,0.18678
6722.64175,0.24916
6724.57021,0.13650
6726.49868,-0.01612
6728.42715,-0.05987
6730.35562,-0.02338
6732.28409,0.00248
6734.21256,0.02098
6736.14103,0.01933
6738.06950,-0.01342
6739.99796,-0.01337
6741.92643,0.05161
6743.85490,0.13599
6745.78337,0.18091
6747.71184,0.13428
6749.64031,0.03253
6751.56878,-0.01798
6753.49724,-0.01664
6755.42571,0.01904
6757.35418,0.08627
6759.28265,0.12625
6761.21112,0.12199
6763.13959,0.13594
6765.06806,0.14597
6766.99653,0.09417
6768.92499,0.05198
6770.85346,0.09244
6772.78193,0.12455
6774.71040,0.06348
6776.63887,-0.02975
6778.56734,-0.05946
6780.49581,-0.01887
6782.42427,0.03104
6784.35274,0.01671
6786.28121,0.00300
6788.20968,0.06689
6790.13815,0.11718
6792.06662,0.08871
6793.99509,0.06939
6795.92355,0.09278
6797.85202,0.11315
6799.78049,0.11579
6801.70896,0.08602
6803.63743,0.02502
6805.56590,-0.02886
6807.49437,-0.05791
6809.42284,-0.01453
6811.35130,0.09934
6813.27977,0.18308
6815.20824,0.19552
6817.13671,0.15615
6819.06518,0.10741
6820.99365,0.06399
6822.92212,0.05057
6824.85058,0.12061
6826.77905,0.24406
6828.70752,0.32784
6830.63599,0.28721
6832.56446,0.16766
6834.49293,0.03696
6836.42140,-0.05830
6838.34987,-0.09339
6840.27833,-0.09856
6842.20680,-0.05066
6844.13527,0.05909
6846.06374,0.17566
6847.99221,0.21414
6849.92068,0.13186
6851.84915,0.05646
6853.77761,0.04352
6855.70608,0.07586
6857.63455,0.15934
6859.56302,0.19368
6861.49149,0.13517
6863.41996,0.06683
6865.34843,0.04307
6867.27690,0.05840
6869.20536,0.03809
6871.13383,-0.01079
6873.06230,0.00294
6874.99077,0.06503
6876.91924,0.15033
6878.84771,0.21583
6880.77618,0.18399
6882.70464,0.14319
6884.63311,0.15929
6886.56158,0.17024
6888.49005,0.10582
6890.41852,-0.05588
6892.34699,-0.16101
6894.27546,-0.04830
6896.20393,0.12226
6898.13239,0.12195
6900.06086,0.04788
6901.98933,0.06909
6903.91780,0.13807
6905.84627,0.13717
6907.77474,0.04225
6909.70321,-0.02858
6911.63167,0.01800
6913.56014,0.12241
6915.48861,0.15514
6917.41708,0.09592
6919.34555,0.05156
6921.27402,0.06867
6923.20249,0.07479
6925.13096,0.04477
6927.05942,-0.00568
6928.98789,-0.05600
6930.91636,-0.15515
6932.84483,-0.22115
6934.77330,-0.10134
6936.70177,0.04341
6938.63024,0.07612
6940.55870,0.05260
6942.48717,0.07213
6944.41564,0.09821
6946.34411,0.10537
6948.27258,0.11875
6950.20105,0.10318
6952.12952,0.07768
6954.05799,0.06758
6955.98645,0.05565
6957.91492,0.04161
6959.84339,0.00677
6961.77186,0.03405
6963.70033,0.10184
6965.62880,0.08197
6967.55727,0.04861
6969.48573,0.10475
6971.41420,0.19352
6973.34267,0.15680
6975.27114,-0.03380
6977.19961,-0.10877
6979.12808,-0.03938
6981.05655,0.02220
6982.98501,0.09213
6984.91348,0.21548
6986.84195,0.30703
6988.77042,0.25406
6990.69889,0.10254
6992.62736,-0.01731
6994.55583,-0.08112
6996.48430,-0.10789
6998.41276,-0.08734
7000.34123,-0.04219
7002.26970,0.00878
7004.19817,0.07142
7006.12664,0.09324
7008.05511,0.04439
7009.98358,0.02102
7011.91204,0.04074
7013.84051,0.06022
7015.76898,0.16066
7017.69745,0.26642
7019.62592,0.13944
7021.55439,-0.09847
7023.48286,-0.16046
7025.41133,-0.07615
7027.33979,-0.05298
7029.26826,-0.10271
7031.19673,-0.09472
7033.12520,-0.04433
7035.05367,0.04672
7036.98214,0.18308
7038.91061,0.23887
7040.83907,0.18076
7042.76754,0.07213
7044.69601,-0.01886
7046.62448,-0.01872
7048.55295,0.03353
7050.48142,0.09256
7052.40989,0.18935
7054.33836,0.18856
7056.26682,0.05337
7058.19529,0.02902
7060.12376,0.12060
7062.05223,0.13484
7063.98070,0.05528
7065.90917,-0.00472
7067.83764,0.03916
7069.76610,0.13700
7071.69457,0.18086
7073.62304,0.15821
7075.55151,0.09930
7077.47998,0.05237
7079.40845,0.05959
7081.33692,0.10279
7083.26539,0.09116
7085.19385,0.02674
7087.12232,0.00865
7089.05079,0.09114
7090.97926,0.21395
7092.90773,0.25479
7094.83620,0.14665
7096.76467,-0.00933
7098.69313,-0.03503
7100.62160,0.05001
7102.55007,0.05068
7104.47854,-0.01427
7106.40701,-0.04975
7108.33548,-0.02406
7110.26395,0.08666
7112.19242,0.18770
7114.12088,0.15866
7116.04935,0.01787
7117.97782,-0.13312
7119.90629,-0.20031
7121.83476,-0.21574
7123.76323,-0.14112
7125.69170,0.03829
7127.62016,0.18928
7129.54863,0.21801
7131.47710,0.14922
7133.40557,0.03085
7135.33404,-0.02024
7137.26251,0.05861
7139.19098,0.13091
7141.11944,0.04668
7143.04791,-0.13697
7144.97638,-0.26019
7146.90485,-0.17136
7148.83332,0.01975
7150.76179,0.06248
7152.69026,-0.09757
7154.61873,-0.24083
7156.54719,-0.20047
7158.47566,-0.08310
7160.40413,-0.00196
7162.33260,0.02467
7164.26107,0.02486
7166.18954,0.06362
7168.11801,0.16145
7170.04647,0.22257
7171.97494,0.24024
7173.90341,0.28954
7175.83188,0.28278
7177.76035,0.21191
7179.68882,0.21545
7181.61729,0.22508
7183.54576,0.12905
7185.47422,0.03251
7187.40269,0.04869
7189.33116,0.14807
7191.25963,0.18296
7193.18810,0.05817
7195.11657,-0.14125
7197.04504,-0.24526
7198.97350,-0.14705
7200.90197,0.00847
7202.83044,0.11571
7204.75891,0.21119
7206.68738,0.21492
7208.61585,0.12397
7210.54432,0.07687
7212.47279,0.04571
7214.40125,-0.03195
7216.32972,-0.03354
7218.25819,0.12463
7220.18666,0.24727
7222.11513,0.24162
7224.04360,0.15170
7225.97207,0.10843
7227.90053,0.20285
7229.82900,0.24121
7231.75747,0.11806
7233.68594,0.06363
7235.61441,0.13893
7237.54288,0.23090
7239.47135,0.29060
7241.39982,0.34808
7243.32828,0.33216
7245.25675,0.19865
7247.18522,0.08646
7249.11369,0.06312
7251.04216,0.17884
7252.97063,0.40105
7254.89910,0.44728
7256.82756,0.29156
7258.75603,0.10567
7260.68450,0.07922
7262.61297,0.22936
7264.54144,0.25386
7266.46991,0.15883
7268.39838,0.12291
7270.32685,0.10047
7272.25531,0.04154
7274.18378,0.07424
7276.11225,0.13483
7278.04072,0.09356
7279.96919,-0.00823
7281.89766,-0.07920
7283.82613,-0.09128
7285.75459,0.00027
7287.68306,0.11678
7289.61153,0.12900
7291.54000,0.05546
7293.46847,0.03839
7295.39694,0.10685
7297.32541,0.17303
7299.25387,0.21152
7301.18234,0.31165
7303.11081,0.40857
7305.03928,0.29931
7306.96775,0.10709
7308.89622,0.05578
7310.82469,0.05717
7312.75316,0.04077
7314.68162,0.01863
7316.61009,-0.04041
7318.53856,-0.06251
7320.46703,0.05093
7322.39550,0.17383
7324.32397,0.16618
7326.25244,0.12932
7328.18090,0.06095
7330.10937,-0.02487
7332.03784,0.08552
7333.96631,0.18503
7335.89478,0.07807
7337.82325,-0.09729
7339.75172,-0.20002
7341.68019,-0.20896
7343.60865,-0.25756
7345.53712,-0.27024
7347.46559,-0.11641
7349.39406,0.06585
7351.32253,0.16116
7353.25100,0.18822
7355.17947,0.16240
7357.10793,0.09286
7359.03640,0.08735
7360.96487,0.09810
7362.89334,-0.01446
7364.82181,-0.05220
7366.75028,0.02944
7368.67875,0.05814
7370.60722,-0.00908
7372.53568,-0.13752
7374.46415,-0.22908
7376.39262,-0.19167
7378.32109,-0.20446
7380.24956,-0.26415
7382.17803,-0.17136
7384.10650,0.12070
7386.03496,0.37750
7387.96343,0.34824
7389.89190,0.22519
7391.82037,0.25658
7393.74884,0.31223
7395.67731,0.23241
7397.60578,0.15267
7399.53425,0.15641
7401.46271,0.18858
7403.39118,0.22738
7405.31965,0.26704
7407.24812,0.34416
7409.17659,0.40580
7411.10506,0.32909
7413.03353,0.18531
7414.96199,0.08751
7416.89046,-0.04714
7418.81893,-0.24566
7420.74740,-0.26482
7422.67587,-0.11977
7424.60434,0.02397
7426.53281,0.11860
7428.46128,0.18332
7430.38974,0.21930
7432.31821,0.20862
7434.24668,0.20452
7436.17515,0.14051
7438.10362,-0.02389
7440.03209,-0.04996
7441.96056,0.12459
7443.88902,0.24848
7445.81749,0.23303
7447.74596,0.18588
7449.67443,0.21963
7451.60290,0.25362
7453.53137,0.08225
7455.45984,-0.07483
7457.38831,-0.01345
7459.31677,0.14817
7461.24524,0.15682
7463.17371,-0.00678
7465.10218,-0.15311
7467.03065,-0.07383
7468.95912,0.12986
7470.88759,0.23224
7472.81605,0.22724
7474.74452,0.13435
7476.67299,-0.07447
7478.60146,-0.21560
7480.52993,-0.05377
7482.45840,0.21600
7484.38687,0.28510
7486.31533,0.27539
7488.24380,0.25985
7490.17227,0.20477
7492.10074,0.17492
7494.02921,0.15231
7495.95768,0.15767
7497.88615,0.21246
