399.19301,3.10257
401.12148,2.25358
403.04995,1.05185
404.97842,0.38118
406.90689,-0.35226
408.83536,-1.10100
410.76382,-1.77490
412.69229,-1.24845
414.62076,2.06989
416.54923,5.89434
418.47770,5.71773
420.40617,1.74531
422.33464,-0.05504
424.26311,0.09473
426.19157,0.39611
428.12004,0.19119
430.04851,-0.00174
431.97698,0.04989
433.90545,0.06581
435.83392,0.07995
437.76239,0.10929
439.69085,0.10351
441.61932,0.03350
443.54779,0.01093
445.47626,0.17621
447.40473,0.25613
449.33320,0.07473
451.26167,-0.06223
453.19013,-0.04856
455.11860,-0.06371
457.04707,-0.11453
458.97554,-0.11145
460.90401,-0.07104
462.83248,0.01541
464.76095,0.07342
466.68942,0.03195
468.61788,-0.00323
470.54635,-0.03454
472.47482,-0.06788
474.40329,0.06721
476.33176,0.19343
478.26023,0.20157
480.18870,0.19700
482.11716,0.16625
484.04563,0.12344
485.97410,0.13767
487.90257,0.16348
489.83104,0.15638
491.75951,0.13878
493.68798,0.13599
495.61645,0.14246
497.54491,0.12589
499.47338,0.11697
501.40185,0.11625
503.33032,0.09713
505.25879,0.12061
507.18726,0.18414
509.11573,0.20202
511.04419,0.17097
512.97266,0.14148
514.90113,0.12778
516.82960,0.11369
518.75807,0.11658
520.68654,0.14525
522.61501,0.16887
524.54348,0.16871
526.47194,0.14497
528.40041,0.11016
530.32888,0.07091
532.25735,0.04246
534.18582,0.07033
536.11429,0.15083
538.04276,0.19660
539.97122,0.17595
541.89969,0.12548
543.82816,0.08527
545.75663,0.08508
547.68510,0.10095
549.61357,0.10478
551.54204,0.09969
553.47051,0.08846
555.39897,0.10089
557.32744,0.14014
559.25591,0.15140
561.18438,0.13479
563.11285,0.12528
565.04132,0.12839
566.96979,0.14278
568.89825,0.14552
570.82672,0.11417
572.75519,0.08297
574.68366,0.09534
576.61213,0.11670
578.54060,0.10545
580.46907,0.09831
582.39754,0.10803
584.32600,0.08472
586.25447,0.04087
588.18294,0.04744
590.11141,0.09777
592.03988,0.13410
593.96835,0.13904
595.89682,0.13165
597.82528,0.13257
599.75375,0.13394
601.68222,0.11895
603.61069,0.09889
605.53916,0.08919
607.46763,0.09041
609.39610,0.09885
611.32456,0.11263
613.25303,0.13162
615.18150,0.14186
617.10997,0.12918
619.03844,0.10994
620.96691,0.10964
622.89538,0.12565
624.82385,0.12218
626.75231,0.09411
628.68078,0.07528
630.60925,0.04786
632.53772,0.02076
634.46619,0.06285
636.39466,0.12661
638.32313,0.14649
640.25159,0.15334
642.18006,0.16361
644.10853,0.16439
646.03700,0.15376
647.96547,0.13912
649.89394,0.13615
651.82241,0.14100
653.75088,0.14763
655.67934,0.15328
657.60781,0.14729
659.53628,0.13905
661.46475,0.14442
663.39322,0.15018
665.32169,0.13629
667.25016,0.11163
669.17862,0.10797
671.10709,0.11231
673.03556,0.11309
674.96403,0.11806
676.89250,0.11974
678.82097,0.11905
680.74944,0.12294
682.67791,0.13115
684.60637,0.14753
686.53484,0.16291
688.46331,0.15417
690.39178,0.13158
692.32025,0.12692
694.24872,0.13823
696.17719,0.14095
698.10565,0.13736
700.03412,0.14378
701.96259,0.14797
703.89106,0.13469
705.81953,0.11294
707.74800,0.11611
709.67647,0.18434
711.60494,0.25865
713.53340,0.23417
715.46187,0.15817
717.39034,0.12444
719.31881,0.12288
721.24728,0.12745
723.17575,0.13500
725.10422,0.14111
727.03268,0.14010
728.96115,0.13212
730.88962,0.12751
732.81809,0.13624
734.74656,0.15322
736.67503,0.16210
738.60350,0.15886
740.53197,0.14683
742.46043,0.12938
744.38890,0.12032
746.31737,0.12522
748.24584,0.13223
750.17431,0.13750
752.10278,0.13987
754.03125,0.14080
755.95971,0.14870
757.88818,0.15508
759.81665,0.14652
761.74512,0.12829
763.67359,0.12208
765.60206,0.13600
767.53053,0.15038
769.45900,0.15174
771.38746,0.14502
773.31593,0.13895
775.24440,0.13560
777.17287,0.13624
779.10134,0.13979
781.02981,0.13607
782.95828,0.12573
784.88674,0.12381
786.81521,0.13623
788.74368,0.15133
790.67215,0.15689
792.60062,0.15356
794.52909,0.15185
796.45756,0.15267
798.38602,0.14543
800.31449,0.13462
802.24296,0.13580
804.17143,0.15375
806.09990,0.16892
808.02837,0.16073
809.95684,0.14099
811.88531,0.12812
813.81377,0.12681
815.74224,0.13758
817.67071,0.14826
819.59918,0.14585
821.52765,0.14160
823.45612,0.15195
825.38459,0.16924
827.31305,0.17344
829.24152,0.16960
831.16999,0.17190
833.09846,0.17296
835.02693,0.16601
836.95540,0.15132
838.88387,0.13772
840.81234,0.13643
842.74080,0.14197
844.66927,0.14646
846.59774,0.14692
848.52621,0.14702
850.45468,0.14851
852.38315,0.14641
854.31162,0.14530
856.24008,0.14987
858.16855,0.15182
860.09702,0.14730
862.02549,0.14848
863.95396,0.15934
865.88243,0.15848
867.81090,0.12352
869.73937,0.08342
871.66783,0.09213
873.59630,0.13308
875.52477,0.15391
877.45324,0.15076
879.38171,0.14886
881.31018,0.15190
883.23865,0.14990
885.16711,0.14779
887.09558,0.14677
889.02405,0.14286
890.95252,0.14781
892.88099,0.16340
894.80946,0.16669
896.73793,0.15281
898.66640,0.14313
900.59486,0.14270
902.52333,0.14343
904.45180,0.14301
906.38027,0.14602
908.30874,0.15706
910.23721,0.16563
912.16568,0.16437
914.09414,0.16266
916.02261,0.16520
917.95108,0.16885
919.87955,0.16896
921.80802,0.16668
923.73649,0.16750
925.66496,0.16585
927.59343,0.16057
929.52189,0.15908
931.45036,0.15915
933.37883,0.15494
935.30730,0.14676
937.23577,0.14566
939.16424,0.15404
941.09271,0.16043
943.02117,0.16129
944.94964,0.15900
946.87811,0.16038
948.80658,0.16379
950.73505,0.15959
952.66352,0.15127
954.59199,0.14434
956.52045,0.14256
958.44892,0.14743
960.37739,0.15199
962.30586,0.15119
964.23433,0.14671
966.16280,0.14348
968.09127,0.14146
970.01974,0.13982
971.94820,0.14240
973.87667,0.14611
975.80514,0.14947
977.73361,0.15725
979.66208,0.16207
981.59055,0.15535
983.51902,0.14538
985.44748,0.14335
987.37595,0.14894
989.30442,0.15494
991.23289,0.15877
993.16136,0.16067
995.08983,0.15884
997.01830,0.15624
998.94677,0.15799
1000.87523,0.16312
1002.80370,0.17028
1004.73217,0.17648
1006.66064,0.17547
1008.58911,0.16599
1010.51758,0.15406
1012.44605,0.15111
1014.37451,0.15577
1016.30298,0.15633
1018.23145,0.15642
1020.15992,0.16364
1022.08839,0.17293
1024.01686,0.17465
1025.94533,0.16600
1027.87380,0.15201
1029.80226,0.14256
1031.73073,0.14615
1033.65920,0.15882
1035.58767,0.16759
1037.51614,0.16721
1039.44461,0.16811
1041.37308,0.18038
1043.30154,0.19201
1045.23001,0.18835
1047.15848,0.17918
1049.08695,0.17265
1051.01542,0.16730
1052.94389,0.16481
1054.87236,0.16121
1056.80083,0.16034
1058.72929,0.16913
1060.65776,0.17915
1062.58623,0.18336
1064.51470,0.18365
1066.44317,0.18098
1068.37164,0.17606
1070.30011,0.17377
1072.22857,0.17507
1074.15704,0.17636
1076.08551,0.17684
1078.01398,0.17145
1079.94245,0.15857
1081.87092,0.15070
1083.79939,0.15229
1085.72786,0.15668
1087.65632,0.16231
1089.58479,0.16502
1091.51326,0.15908
1093.44173,0.15415
1095.37020,0.16387
1097.29867,0.17903
1099.22714,0.18600
1101.15560,0.18990
1103.08407,0.19442
1105.01254,0.19349
1106.94101,0.18501
1108.86948,0.17827
1110.79795,0.17741
1112.72642,0.17354
1114.65489,0.16635
1116.58335,0.16627
1118.51182,0.17450
1120.44029,0.17991
1122.36876,0.17597
1124.29723,0.16920
1126.22570,0.16741
1128.15417,0.16745
1130.08263,0.16484
1132.01110,0.16348
1133.93957,0.16774
1135.86804,0.17411
1137.79651,0.17388
1139.72498,0.16935
1141.65345,0.17085
1143.58191,0.17655
1145.51038,0.17941
1147.43885,0.17986
1149.36732,0.17856
1151.29579,0.17517
1153.22426,0.17225
1155.15273,0.17111
1157.08120,0.17013
1159.00966,0.17021
1160.93813,0.17497
1162.86660,0.17892
1164.79507,0.17382
1166.72354,0.16768
1168.65201,0.17088
1170.58048,0.17695
1172.50894,0.17689
1174.43741,0.17303
1176.36588,0.17039
1178.29435,0.16902
1180.22282,0.16755
1182.15129,0.16499
1184.07976,0.16116
1186.00823,0.16110
1187.93669,0.16713
1189.86516,0.17106
1191.79363,0.16993
1193.72210,0.16914
1195.65057,0.17124
1197.57904,0.17624
1199.50751,0.18005
1201.43597,0.17875
1203.36444,0.17734
1205.29291,0.18059
1207.22138,0.18502
1209.14985,0.18741
1211.07832,0.18592
1213.00679,0.17988
1214.93526,0.17494
1216.86372,0.17403
1218.79219,0.17370
1220.72066,0.17177
1222.64913,0.17006
1224.57760,0.17259
1226.50607,0.17793
1228.43454,0.18101
1230.36300,0.18130
1232.29147,0.17971
1234.21994,0.17578
1236.14841,0.17122
1238.07688,0.16897
1240.00535,0.16871
1241.93382,0.16907
1243.86229,0.17123
1245.79075,0.17593
1247.71922,0.17840
1249.64769,0.17489
1251.57616,0.17088
1253.50463,0.17080
1255.43310,0.17204
1257.36157,0.17262
1259.29003,0.17442
1261.21850,0.17923
1263.14697,0.18418
1265.07544,0.18502
1267.00391,0.18137
1268.93238,0.17769
1270.86085,0.17754
1272.78932,0.17899
1274.71778,0.18047
1276.64625,0.18265
1278.57472,0.18357
1280.50319,0.18058
1282.43166,0.17746
1284.36013,0.17966
1286.28860,0.18346
1288.21706,0.18363
1290.14553,0.18273
1292.07400,0.18283
1294.00247,0.18089
1295.93094,0.17563
1297.85941,0.17044
1299.78788,0.16744
1301.71634,0.16486
1303.64481,0.16178
1305.57328,0.16375
1307.50175,0.17452
1309.43022,0.18353
1311.35869,0.18404
1313.28716,0.18186
1315.21563,0.17945
1317.14409,0.17861
1319.07256,0.17987
1321.00103,0.18055
1322.92950,0.18173
1324.85797,0.18200
1326.78644,0.18120
1328.71491,0.18322
1330.64337,0.18324
1332.57184,0.17904
1334.50031,0.17685
1336.42878,0.17770
1338.35725,0.18078
1340.28572,0.17963
1342.21419,0.17970
1344.14266,0.19065
1346.07112,0.19301
1347.99959,0.18189
1349.92806,0.17563
1351.85653,0.17344
1353.78500,0.17213
1355.71347,0.17489
1357.64194,0.17711
1359.57040,0.17822
1361.49887,0.18458
1363.42734,0.19104
1365.35581,0.19154
1367.28428,0.19144
1369.21275,0.19020
1371.14122,0.18853
1373.06969,0.18879
1374.99815,0.18935
1376.92662,0.18931
1378.85509,0.18926
1380.78356,0.19064
1382.71203,0.19221
1384.64050,0.19394
1386.56897,0.19705
1388.49743,0.19572
1390.42590,0.19125
1392.35437,0.19278
1394.28284,0.19894
1396.21131,0.20033
1398.13978,0.19484
1400.06825,0.18892
1401.99672,0.18838
1403.92518,0.19090
1405.85365,0.19127
1407.78212,0.19142
1409.71059,0.19478
1411.63906,0.19770
1413.56753,0.19826
1415.49600,0.20141
1417.42446,0.20767
1419.35293,0.20743
1421.28140,0.20059
1423.20987,0.19437
1425.13834,0.18718
1427.06681,0.18324
1428.99528,0.18749
1430.92375,0.19557
1432.85221,0.20088
1434.78068,0.20460
1436.70915,0.20476
1438.63762,0.20121
1440.56609,0.20106
1442.49456,0.20290
1444.42303,0.20470
1446.35149,0.20643
1448.27996,0.20526
1450.20843,0.20129
1452.13690,0.19980
1454.06537,0.20413
1455.99384,0.21465
1457.92231,0.21880
1459.85077,0.20835
1461.77924,0.20386
1463.70771,0.20899
1465.63618,0.21045
1467.56465,0.20264
1469.49312,0.19853
1471.42159,0.20400
1473.35006,0.21301
1475.27852,0.21195
1477.20699,0.20572
1479.13546,0.20102
1481.06393,0.19722
1482.99240,0.19607
1484.92087,0.20264
1486.84934,0.21550
1488.77780,0.22363
1490.70627,0.21763
1492.63474,0.20968
1494.56321,0.20880
1496.49168,0.21162
1498.42015,0.21395
1500.34862,0.22048
1502.27709,0.23171
1504.20555,0.24505
1506.13402,0.25863
1508.06249,0.24940
1509.99096,0.22665
1511.91943,0.21181
1513.84790,0.20762
1515.77637,0.21384
1517.70483,0.21977
1519.63330,0.21905
1521.56177,0.22079
1523.49024,0.22055
1525.41871,0.21476
1527.34718,0.20921
1529.27565,0.20563
1531.20412,0.20680
1533.13258,0.21512
1535.06105,0.22304
1536.98952,0.23161
1538.91799,0.25363
1540.84646,0.27144
1542.77493,0.25307
1544.70340,0.22928
1546.63186,0.21419
1548.56033,0.20854
1550.48880,0.20783
1552.41727,0.21103
1554.34574,0.21880
1556.27421,0.23115
1558.20268,0.24071
1560.13115,0.21869
1562.05961,0.20376
1563.98808,0.20506
1565.91655,0.20841
1567.84502,0.20933
1569.77349,0.20911
1571.70196,0.20580
1573.63043,0.20227
1575.55889,0.19953
1577.48736,0.19668
1579.41583,0.19413
1581.34430,0.19128
1583.27277,0.18990
1585.20124,0.19081
1587.12971,0.19216
1589.05818,0.19265
1590.98664,0.19186
1592.91511,0.19149
1594.84358,0.19321
1596.77205,0.19394
1598.70052,0.19184
1600.62899,0.19006
1602.55746,0.19112
1604.48592,0.19358
1606.41439,0.19459
1608.34286,0.19423
1610.27133,0.19338
1612.19980,0.19577
1614.12827,0.20588
1616.05674,0.21792
1617.98521,0.21414
1619.91367,0.20383
1621.84214,0.20274
1623.77061,0.20732
1625.69908,0.20699
1627.62755,0.20318
1629.55602,0.20262
1631.48449,0.20803
1633.41295,0.21886
1635.34142,0.23035
1637.26989,0.22376
1639.19836,0.20915
1641.12683,0.20305
1643.05530,0.20850
1644.98377,0.22473
1646.91223,0.24021
1648.84070,0.23797
1650.76917,0.23572
1652.69764,0.24132
1654.62611,0.23417
1656.55458,0.22000
1658.48305,0.21292
1660.41152,0.21612
1662.33998,0.22217
1664.26845,0.21881
1666.19692,0.21670
1668.12539,0.22367
1670.05386,0.23069
1671.98233,0.22926
1673.91080,0.22744
1675.83926,0.22427
1677.76773,0.21957
1679.69620,0.22010
1681.62467,0.22593
1683.55314,0.23145
1685.48161,0.22524
1687.41008,0.21691
1689.33855,0.21376
1691.26701,0.21284
1693.19548,0.21631
1695.12395,0.22787
1697.05242,0.23891
1698.98089,0.23940
1700.90936,0.23434
1702.83783,0.22927
1704.76629,0.22481
1706.69476,0.21628
1708.62323,0.20644
1710.55170,0.20435
1712.48017,0.21120
1714.40864,0.22093
1716.33711,0.22675
1718.26558,0.22041
1720.19404,0.20925
1722.12251,0.20371
1724.05098,0.20191
1725.97945,0.20135
1727.90792,0.20321
1729.83639,0.20856
1731.76486,0.21863
1733.69332,0.22874
1735.62179,0.22327
1737.55026,0.21537
1739.47873,0.21487
1741.40720,0.21477
1743.33567,0.21255
1745.26414,0.21399
1747.19261,0.22047
1749.12107,0.22462
1751.04954,0.21892
1752.97801,0.21123
1754.90648,0.20815
1756.83495,0.20715
1758.76342,0.20617
1760.69189,0.20645
1762.62035,0.20631
1764.54882,0.20557
1766.47729,0.20813
1768.40576,0.21410
1770.33423,0.22138
1772.26270,0.22199
1774.19117,0.21136
1776.11964,0.20384
1778.04810,0.20360
1779.97657,0.20482
1781.90504,0.20396
1783.83351,0.20436
1785.76198,0.20616
1787.69045,0.20693
1789.61892,0.21016
1791.54738,0.21764
1793.47585,0.21979
1795.40432,0.21379
1797.33279,0.20975
1799.26126,0.21173
1801.18973,0.21277
1803.11820,0.20824
1805.04666,0.20412
1806.97513,0.20257
1808.90360,0.20289
1810.83207,0.20588
1812.76054,0.20957
1814.68901,0.20509
1816.61748,0.19010
1818.54595,0.17759
1820.47441,0.17743
1822.40288,0.18930
1824.33135,0.20402
1826.25982,0.20874
1828.18829,0.21005
1830.11676,0.21225
1832.04523,0.20766
1833.97369,0.20134
1835.90216,0.19913
1837.83063,0.19974
1839.75910,0.20167
1841.68757,0.20594
1843.61604,0.21022
1845.54451,0.21040
1847.47298,0.20970
1849.40144,0.20837
1851.32991,0.20459
1853.25838,0.20237
1855.18685,0.20315
1857.11532,0.20442
1859.04379,0.20537
1860.97226,0.20525
1862.90072,0.20517
1864.82919,0.20781
1866.75766,0.21337
1868.68613,0.21580
1870.61460,0.20819
1872.54307,0.19977
1874.47154,0.19809
1876.40001,0.19917
1878.32847,0.20006
1880.25694,0.20271
1882.18541,0.20656
1884.11388,0.20823
1886.04235,0.20758
1887.97082,0.20827
1889.89929,0.20959
1891.82775,0.20949
1893.75622,0.20819
1895.68469,0.20504
1897.61316,0.20229
1899.54163,0.20056
1901.47010,0.19815
1903.39857,0.19729
1905.32704,0.20010
1907.25550,0.20430
1909.18397,0.20678
1911.11244,0.20683
1913.04091,0.20635
1914.96938,0.20700
1916.89785,0.20799
1918.82632,0.20860
1920.75478,0.20980
1922.68325,0.21049
1924.61172,0.20763
1926.54019,0.20400
1928.46866,0.20385
1930.39713,0.20552
1932.32560,0.20646
1934.25407,0.20665
1936.18253,0.20649
1938.11100,0.20576
1940.03947,0.20530
1941.96794,0.20582
1943.89641,0.20530
1945.82488,0.20337
1947.75335,0.20232
1949.68181,0.20298
1951.61028,0.20469
1953.53875,0.20631
1955.46722,0.20706
1957.39569,0.20746
1959.32416,0.20814
1961.25263,0.20807
1963.18110,0.20739
1965.10956,0.20832
1967.03803,0.20881
1968.96650,0.20669
1970.89497,0.20464
1972.82344,0.20419
1974.75191,0.20950
1976.68038,0.21762
1978.60884,0.21645
1980.53731,0.20920
1982.46578,0.20572
1984.39425,0.20465
1986.32272,0.20414
1988.25119,0.20499
1990.17966,0.20556
1992.10812,0.20393
1994.03659,0.20157
1995.96506,0.20200
1997.89353,0.20494
1999.82200,0.20665
2001.75047,0.20563
2003.67894,0.20322
2005.60741,0.20113
2007.53587,0.20048
2009.46434,0.20140
2011.39281,0.20287
2013.32128,0.20366
2015.24975,0.20385
2017.17822,0.20370
2019.10669,0.20377
2021.03515,0.20457
2022.96362,0.20495
2024.89209,0.20434
2026.82056,0.20437
2028.74903,0.20487
2030.67750,0.20434
2032.60597,0.20313
2034.53444,0.20112
2036.46290,0.20046
2038.39137,0.20404
2040.31984,0.20874
2042.24831,0.21146
2044.17678,0.21174
2046.10525,0.20881
2048.03372,0.20538
2049.96218,0.20373
2051.89065,0.20230
2053.81912,0.20161
2055.74759,0.20235
2057.67606,0.20303
2059.60453,0.20329
2061.53300,0.20360
2063.46147,0.20420
2065.38993,0.20367
2067.31840,0.20180
2069.24687,0.20233
2071.17534,0.20577
2073.10381,0.20889
2075.03228,0.20954
2076.96075,0.20680
2078.88921,0.20399
2080.81768,0.20480
2082.74615,0.20609
2084.67462,0.20376
2086.60309,0.20018
2088.53156,0.19850
2090.46003,0.19709
2092.38850,0.19620
2094.31696,0.19863
2096.24543,0.20349
2098.17390,0.20856
2100.10237,0.21153
2102.03084,0.21096
2103.95931,0.20940
2105.88778,0.20837
2107.81624,0.20758
2109.74471,0.20851
2111.67318,0.20978
2113.60165,0.20858
2115.53012,0.20586
2117.45859,0.20363
2119.38706,0.20286
2121.31553,0.20411
2123.24399,0.20675
2125.17246,0.20779
2127.10093,0.20557
2129.02940,0.20314
2130.95787,0.20288
2132.88634,0.20114
2134.81481,0.19670
2136.74327,0.19642
2138.67174,0.20109
2140.60021,0.20362
2142.52868,0.20355
2144.45715,0.20450
2146.38562,0.20548
2148.31409,0.20430
2150.24255,0.20301
2152.17102,0.20461
2154.09949,0.20645
2156.02796,0.20535
2157.95643,0.20376
2159.88490,0.20373
2161.81337,0.20542
2163.74184,0.20721
2165.67030,0.20705
2167.59877,0.20675
2169.52724,0.20713
2171.45571,0.20607
2173.38418,0.20340
2175.31265,0.20155
2177.24112,0.20188
2179.16958,0.20383
2181.09805,0.20589
2183.02652,0.20753
2184.95499,0.20950
2186.88346,0.20970
2188.81193,0.20716
2190.74040,0.20372
2192.66887,0.20124
2194.59733,0.20195
2196.52580,0.20412
2198.45427,0.20485
2200.38274,0.20574
2202.31121,0.20737
2204.23968,0.20696
2206.16815,0.20478
2208.09661,0.20388
2210.02508,0.20444
2211.95355,0.20519
2213.88202,0.20630
2215.81049,0.20742
2217.73896,0.20784
2219.66743,0.20837
2221.59590,0.20857
2223.52436,0.20621
2225.45283,0.20245
2227.38130,0.20050
2229.30977,0.20136
2231.23824,0.20346
2233.16671,0.20461
2235.09518,0.20487
2237.02364,0.20499
2238.95211,0.20471
2240.88058,0.20440
2242.80905,0.20557
2244.73752,0.20761
2246.66599,0.20738
2248.59446,0.20617
2250.52293,0.20773
2252.45139,0.20927
2254.37986,0.20698
2256.30833,0.20555
2258.23680,0.20892
2260.16527,0.21238
2262.09374,0.21237
2264.02221,0.20884
2265.95067,0.20368
2267.87914,0.20176
2269.80761,0.20355
2271.73608,0.20466
2273.66455,0.20421
2275.59302,0.20390
2277.52149,0.20435
2279.44996,0.20572
2281.37842,0.20671
2283.30689,0.20571
2285.23536,0.20438
2287.16383,0.20532
2289.09230,0.20754
2291.02077,0.20761
2292.94924,0.20507
2294.87770,0.20310
2296.80617,0.20341
2298.73464,0.20432
2300.66311,0.20375
2302.59158,0.20255
2304.52005,0.20300
2306.44852,0.20557
2308.37699,0.20997
2310.30545,0.21633
2312.23392,0.22195
2314.16239,0.22018
2316.09086,0.21061
2318.01933,0.20269
2319.94780,0.20276
2321.87627,0.20807
2323.80473,0.21352
2325.73320,0.21610
2327.66167,0.21565
2329.59014,0.21692
2331.51861,0.22240
2333.44708,0.22506
2335.37555,0.22301
2337.30401,0.22023
2339.23248,0.21245
2341.16095,0.20221
2343.08942,0.20326
2345.01789,0.20640
2346.94636,0.20116
2348.87483,0.19863
2350.80330,0.20244
2352.73176,0.20936
2354.66023,0.21276
2356.58870,0.20948
2358.51717,0.21507
2360.44564,0.23028
2362.37411,0.23291
2364.30258,0.22482
2366.23104,0.21906
2368.15951,0.22148
2370.08798,0.22771
2372.01645,0.22477
2373.94492,0.21455
2375.87339,0.20983
2377.80186,0.21014
2379.73033,0.20890
2381.65879,0.20764
2383.58726,0.20894
2385.51573,0.20997
2387.44420,0.20819
2389.37267,0.20617
2391.30114,0.20667
2393.22961,0.20813
2395.15807,0.20781
2397.08654,0.20594
2399.01501,0.20585
2400.94348,0.20821
2402.87195,0.21034
2404.80042,0.21103
2406.72889,0.21076
2408.65736,0.21052
2410.58582,0.20980
2412.51429,0.20691
2414.44276,0.20280
2416.37123,0.20118
2418.29970,0.20366
2420.22817,0.20678
2422.15664,0.20704
2424.08510,0.20639
2426.01357,0.20759
2427.94204,0.20898
2429.87051,0.20886
2431.79898,0.20757
2433.72745,0.20507
2435.65592,0.20362
2437.58439,0.20568
2439.51285,0.20824
2441.44132,0.20739
2443.36979,0.20446
2445.29826,0.20505
2447.22673,0.20882
2449.15520,0.20711
2451.08367,0.20013
2453.01213,0.19889
2454.94060,0.20481
2456.86907,0.20708
2458.79754,0.20371
2460.72601,0.20146
2462.65448,0.20114
2464.58295,0.20295
2466.51142,0.20685
2468.43988,0.20942
2470.36835,0.20978
2472.29682,0.21074
2474.22529,0.21313
2476.15376,0.21360
2478.08223,0.21152
2480.01070,0.20890
2481.93916,0.20775
2483.86763,0.20957
2485.79610,0.21059
2487.72457,0.20799
2489.65304,0.20529
2491.58151,0.20422
2493.50998,0.20363
2495.43844,0.20438
2497.36691,0.20652
2499.29538,0.20800
2501.22385,0.20884
2503.15232,0.21015
2505.08079,0.21062
2507.00926,0.20950
2508.93773,0.20780
2510.86619,0.20564
2512.79466,0.20400
2514.72313,0.20430
2516.65160,0.20561
2518.58007,0.20684
2520.50854,0.20790
2522.43701,0.20861
2524.36547,0.20914
2526.29394,0.20849
2528.22241,0.20577
2530.15088,0.20411
2532.07935,0.20769
2534.00782,0.21442
2535.93629,0.21774
2537.86476,0.21557
2539.79322,0.21108
2541.72169,0.20863
2543.65016,0.20872
2545.57863,0.20807
2547.50710,0.20570
2549.43557,0.20338
2551.36404,0.20444
2553.29250,0.21004
2555.22097,0.21635
2557.14944,0.21845
2559.07791,0.21449
2561.00638,0.20774
2562.93485,0.20428
2564.86332,0.20522
2566.79179,0.20818
2568.72025,0.21254
2570.64872,0.21325
2572.57719,0.20915
2574.50566,0.20734
2576.43413,0.20812
2578.36260,0.20803
2580.29107,0.20762
2582.21953,0.20769
2584.14800,0.20789
2586.07647,0.20895
2588.00494,0.21064
2589.93341,0.20944
2591.86188,0.20492
2593.79035,0.20217
2595.71882,0.20285
2597.64728,0.20378
2599.57575,0.20367
2601.50422,0.20391
2603.43269,0.20715
2605.36116,0.21294
2607.28963,0.21746
2609.21810,0.21868
2611.14656,0.21831
2613.07503,0.21728
2615.00350,0.21418
2616.93197,0.21163
2618.86044,0.21156
2620.78891,0.21280
2622.71738,0.21307
2624.64585,0.21097
2626.57431,0.21061
2628.50278,0.21305
2630.43125,0.21432
2632.35972,0.21213
2634.28819,0.20830
2636.21666,0.20762
2638.14513,0.20900
2640.07359,0.20762
2642.00206,0.20480
2643.93053,0.20427
2645.85900,0.20618
2647.78747,0.20890
2649.71594,0.21160
2651.64441,0.21495
2653.57288,0.21655
2655.50134,0.21356
2657.42981,0.21015
2659.35828,0.21094
2661.28675,0.21289
2663.21522,0.21175
2665.14369,0.21066
2667.07216,0.21191
2669.00062,0.21243
2670.92909,0.21174
2672.85756,0.21249
2674.78603,0.21498
2676.71450,0.21610
2678.64297,0.21504
2680.57144,0.21352
2682.49990,0.21234
2684.42837,0.21204
2686.35684,0.21338
2688.28531,0.21656
2690.21378,0.21889
2692.14225,0.21795
2694.07072,0.21516
2695.99919,0.21270
2697.92765,0.21185
2699.85612,0.21329
2701.78459,0.21617
2703.71306,0.21885
2705.64153,0.21979
2707.57000,0.21926
2709.49847,0.21822
2711.42693,0.21666
2713.35540,0.21702
2715.28387,0.22004
2717.21234,0.22227
2719.14081,0.22157
2721.06928,0.21886
2722.99775,0.21684
2724.92622,0.21678
2726.85468,0.21849
2728.78315,0.22113
2730.71162,0.22262
2732.64009,0.22167
2734.56856,0.22040
2736.49703,0.22171
2738.42550,0.22350
2740.35396,0.22224
2742.28243,0.21875
2744.21090,0.21485
2746.13937,0.21215
2748.06784,0.21272
2749.99631,0.21736
2751.92478,0.22416
2753.85325,0.22632
2755.78171,0.22131
2757.71018,0.21669
2759.63865,0.21747
2761.56712,0.22075
2763.49559,0.22482
2765.42406,0.23430
2767.35253,0.24607
2769.28099,0.24573
2771.20946,0.23408
2773.13793,0.22621
2775.06640,0.22399
2776.99487,0.22102
2778.92334,0.21950
2780.85181,0.22206
2782.78028,0.22634
2784.70874,0.22887
2786.63721,0.22697
2788.56568,0.22368
2790.49415,0.22214
2792.42262,0.22034
2794.35109,0.21940
2796.27956,0.22315
2798.20802,0.22845
2800.13649,0.23052
2802.06496,0.23121
2803.99343,0.23086
2805.92190,0.22851
2807.85037,0.22632
2809.77884,0.22591
2811.70731,0.22835
2813.63577,0.23032
2815.56424,0.22893
2817.49271,0.22781
2819.42118,0.22601
2821.34965,0.22097
2823.27812,0.21776
2825.20659,0.21910
2827.13505,0.22230
2829.06352,0.22521
2830.99199,0.22680
2832.92046,0.22796
2834.84893,0.22901
2836.77740,0.22878
2838.70587,0.22834
2840.63433,0.22870
2842.56280,0.22828
2844.49127,0.22653
2846.41974,0.22545
2848.34821,0.22566
2850.27668,0.22579
2852.20515,0.22483
2854.13362,0.22304
2856.06208,0.22344
2857.99055,0.22625
2859.91902,0.22823
2861.84749,0.22910
2863.77596,0.22813
2865.70443,0.22675
2867.63290,0.22874
2869.56136,0.23110
2871.48983,0.23006
2873.41830,0.22712
2875.34677,0.22466
2877.27524,0.22426
2879.20371,0.22397
2881.13218,0.22243
2883.06065,0.22333
2884.98911,0.22512
2886.91758,0.22323
2888.84605,0.22136
2890.77452,0.22414
2892.70299,0.22937
2894.63146,0.23099
2896.55993,0.22641
2898.48839,0.22157
2900.41686,0.22171
2902.34533,0.22138
2904.27380,0.21620
2906.20227,0.21354
2908.13074,0.21684
2910.05921,0.21803
2911.98768,0.21593
2913.91614,0.21564
2915.84461,0.21414
2917.77308,0.21325
2919.70155,0.21946
2921.63002,0.22457
2923.55849,0.21404
2925.48696,0.19436
2927.41542,0.19512
2929.34389,0.21722
2931.27236,0.22649
2933.20083,0.21931
2935.12930,0.21573
2937.05777,0.21585
2938.98624,0.21804
2940.91471,0.22460
2942.84317,0.22976
2944.77164,0.22831
2946.70011,0.22177
2948.62858,0.21779
2950.55705,0.21979
2952.48552,0.22353
2954.41399,0.22291
2956.34245,0.21515
2958.27092,0.20912
2960.19939,0.21165
2962.12786,0.21653
2964.05633,0.22026
2965.98480,0.22299
2967.91327,0.22195
2969.84174,0.21976
2971.77020,0.22110
2973.69867,0.22569
2975.62714,0.22951
2977.55561,0.22839
2979.48408,0.22692
2981.41255,0.22943
2983.34102,0.23048
2985.26948,0.22745
2987.19795,0.22381
2989.12642,0.22207
2991.05489,0.22285
2992.98336,0.22452
2994.91183,0.22419
2996.84030,0.22191
2998.76877,0.21984
3000.69723,0.21956
3002.62570,0.22230
3004.55417,0.22583
3006.48264,0.22553
3008.41111,0.22326
3010.33958,0.22074
3012.26805,0.21230
3014.19651,0.19481
3016.12498,0.17724
3018.05345,0.18102
3019.98192,0.20811
3021.91039,0.22955
3023.83886,0.23263
3025.76733,0.22834
3027.69579,0.22458
3029.62426,0.22563
3031.55273,0.22916
3033.48120,0.22925
3035.40967,0.22929
3037.33814,0.23221
3039.26661,0.23337
3041.19508,0.22938
3043.12354,0.22474
3045.05201,0.22579
3046.98048,0.23140
3048.90895,0.23632
3050.83742,0.23534
3052.76589,0.23004
3054.69436,0.22363
3056.62282,0.21627
3058.55129,0.21609
3060.47976,0.22447
3062.40823,0.22704
3064.33670,0.21768
3066.26517,0.20878
3068.19364,0.21220
3070.12211,0.22195
3072.05057,0.22832
3073.97904,0.22854
3075.90751,0.22505
3077.83598,0.22436
3079.76445,0.22668
3081.69292,0.22886
3083.62139,0.22770
3085.54985,0.22281
3087.47832,0.22147
3089.40679,0.22425
3091.33526,0.22522
3093.26373,0.22138
3095.19220,0.21970
3097.12067,0.22843
3099.04914,0.23607
3100.97760,0.23123
3102.90607,0.22046
3104.83454,0.21733
3106.76301,0.22475
3108.69148,0.23302
3110.61995,0.23506
3112.54842,0.22979
3114.47688,0.22422
3116.40535,0.22459
3118.33382,0.22544
3120.26229,0.22346
3122.19076,0.22504
3124.11923,0.23190
3126.04770,0.23699
3127.97617,0.23713
3129.90463,0.23453
3131.83310,0.23153
3133.76157,0.22882
3135.69004,0.22749
3137.61851,0.22934
3139.54698,0.23396
3141.47545,0.23827
3143.40391,0.23881
3145.33238,0.23512
3147.26085,0.23053
3149.18932,0.23019
3151.11779,0.23357
3153.04626,0.23580
3154.97473,0.23507
3156.90320,0.23349
3158.83166,0.23388
3160.76013,0.23439
3162.68860,0.23252
3164.61707,0.22961
3166.54554,0.22910
3168.47401,0.23276
3170.40248,0.23802
3172.33094,0.24216
3174.25941,0.24403
3176.18788,0.24433
3178.11635,0.24435
3180.04482,0.24214
3181.97329,0.23754
3183.90176,0.23738
3185.83022,0.24351
3187.75869,0.24583
3189.68716,0.23937
3191.61563,0.23196
3193.54410,0.23002
3195.47257,0.23172
3197.40104,0.23276
3199.32951,0.23156
3201.25797,0.22993
3203.18644,0.23077
3205.11491,0.23409
3207.04338,0.23579
3208.97185,0.23419
3210.90032,0.23289
3212.82879,0.23460
3214.75725,0.23761
3216.68572,0.23819
3218.61419,0.23590
3220.54266,0.23238
3222.47113,0.22835
3224.39960,0.22681
3226.32807,0.22921
3228.25654,0.23135
3230.18500,0.23090
3232.11347,0.22955
3234.04194,0.22945
3235.97041,0.23152
3237.89888,0.23439
3239.82735,0.23483
3241.75582,0.23044
3243.68428,0.22750
3245.61275,0.23216
3247.54122,0.23779
3249.46969,0.23870
3251.39816,0.23700
3253.32663,0.23661
3255.25510,0.23826
3257.18357,0.23909
3259.11203,0.23983
3261.04050,0.24028
3262.96897,0.23584
3264.89744,0.22940
3266.82591,0.22634
3268.75438,0.22525
3270.68285,0.22818
3272.61131,0.23633
3274.53978,0.24120
3276.46825,0.24029
3278.39672,0.24078
3280.32519,0.24152
3282.25366,0.23808
3284.18213,0.23683
3286.11060,0.24065
3288.03906,0.24235
3289.96753,0.23957
3291.89600,0.23491
3293.82447,0.22876
3295.75294,0.22537
3297.68141,0.22942
3299.60988,0.23386
3301.53834,0.23446
3303.46681,0.23762
3305.39528,0.24128
3307.32375,0.23901
3309.25222,0.23386
3311.18069,0.23027
3313.10916,0.22847
3315.03763,0.22721
3316.96609,0.22537
3318.89456,0.22729
3320.82303,0.23524
3322.75150,0.24210
3324.67997,0.24402
3326.60844,0.24184
3328.53691,0.23702
3330.46537,0.23472
3332.39384,0.23773
3334.32231,0.24105
3336.25078,0.23857
3338.17925,0.23364
3340.10772,0.23244
3342.03619,0.23586
3343.96466,0.24094
3345.89312,0.24083
3347.82159,0.23818
3349.75006,0.24045
3351.67853,0.24187
3353.60700,0.23963
3355.53547,0.23943
3357.46394,0.24002
3359.39240,0.23862
3361.32087,0.23900
3363.24934,0.24267
3365.17781,0.24408
3367.10628,0.24206
3369.03475,0.24103
3370.96322,0.24039
3372.89168,0.23683
3374.82015,0.23236
3376.74862,0.23256
3378.67709,0.23606
3380.60556,0.23631
3382.53403,0.23341
3384.46250,0.23130
3386.39097,0.23025
3388.31943,0.22734
3390.24790,0.22384
3392.17637,0.22629
3394.10484,0.23379
3396.03331,0.23781
3397.96178,0.23315
3399.89025,0.22531
3401.81871,0.22559
3403.74718,0.23215
3405.67565,0.23580
3407.60412,0.23488
3409.53259,0.23215
3411.46106,0.23060
3413.38953,0.22926
3415.31800,0.22868
3417.24646,0.23307
3419.17493,0.23915
3421.10340,0.23856
3423.03187,0.23145
3424.96034,0.22669
3426.88881,0.22842
3428.81728,0.23169
3430.74574,0.23062
3432.67421,0.22627
3434.60268,0.22145
3436.53115,0.21794
3438.45962,0.22111
3440.38809,0.22945
3442.31656,0.23335
3444.24503,0.23145
3446.17349,0.22883
3448.10196,0.22797
3450.03043,0.22810
3451.95890,0.22529
3453.88737,0.21841
3455.81584,0.21342
3457.74431,0.21355
3459.67277,0.21689
3461.60124,0.22221
3463.52971,0.22410
3465.45818,0.21874
3467.38665,0.21555
3469.31512,0.22115
3471.24359,0.22675
3473.17206,0.22593
3475.10052,0.22119
3477.02899,0.21582
3478.95746,0.21353
3480.88593,0.21238
3482.81440,0.20826
3484.74287,0.20650
3486.67134,0.20772
3488.59980,0.20663
3490.52827,0.20462
3492.45674,0.20371
3494.38521,0.20277
3496.31368,0.20156
3498.24215,0.20225
3500.17062,0.20445
3502.09909,0.20656
3504.02755,0.20737
3505.95602,0.20341
3507.88449,0.19899
3509.81296,0.20049
3511.74143,0.20526
3513.66990,0.20904
3515.59837,0.20994
3517.52683,0.20472
3519.45530,0.19479
3521.38377,0.18901
3523.31224,0.19082
3525.24071,0.19536
3527.16918,0.19739
3529.09765,0.19465
3531.02611,0.18998
3532.95458,0.18660
3534.88305,0.18642
3536.81152,0.18807
3538.73999,0.18827
3540.66846,0.19000
3542.59693,0.19313
3544.52540,0.19374
3546.45386,0.19177
3548.38233,0.18739
3550.31080,0.18440
3552.23927,0.18500
3554.16774,0.18397
3556.09621,0.18004
3558.02468,0.17771
3559.95314,0.17926
3561.88161,0.18357
3563.81008,0.19017
3565.73855,0.19740
3567.66702,0.19851
3569.59549,0.19205
3571.52396,0.18252
3573.45243,0.17365
3575.38089,0.17101
3577.30936,0.17199
3579.23783,0.17136
3581.16630,0.17166
3583.09477,0.17432
3585.02324,0.17911
3586.95171,0.18103
3588.88017,0.17353
3590.80864,0.16846
3592.73711,0.17077
3594.66558,0.17507
3596.59405,0.17822
3598.52252,0.17952
3600.45099,0.17689
3602.37946,0.17085
3604.30792,0.16599
3606.23639,0.16598
3608.16486,0.16971
3610.09333,0.17125
3612.02180,0.17179
3613.95027,0.17574
3615.87874,0.18125
3617.80720,0.18428
3619.73567,0.18189
3621.66414,0.17433
3623.59261,0.16878
3625.52108,0.17266
3627.44955,0.18599
3629.37802,0.19257
3631.30649,0.17968
3633.23495,0.16549
3635.16342,0.15870
3637.09189,0.15467
3639.02036,0.14940
3640.94883,0.14861
3642.87730,0.15543
3644.80577,0.16612
3646.73423,0.17777
3648.66270,0.18492
3650.59117,0.17555
3652.51964,0.16364
3654.44811,0.16187
3656.37658,0.16373
3658.30505,0.16288
3660.23352,0.16158
3662.16198,0.15673
3664.09045,0.14941
3666.01892,0.14724
3667.94739,0.15236
3669.87586,0.15908
3671.80433,0.15761
3673.73280,0.15659
3675.66126,0.16242
3677.58973,0.15913
3679.51820,0.14914
3681.44667,0.14705
3683.37514,0.15152
3685.30361,0.15281
3687.23208,0.15122
3689.16055,0.15460
3691.08901,0.15625
3693.01748,0.15192
3694.94595,0.14848
3696.87442,0.14474
3698.80289,0.14162
3700.73136,0.14236
3702.65983,0.14490
3704.58829,0.14582
3706.51676,0.14673
3708.44523,0.15179
3710.37370,0.16074
3712.30217,0.15923
3714.23064,0.14809
3716.15911,0.14477
3718.08757,0.14840
3720.01604,0.15245
3721.94451,0.15598
3723.87298,0.15556
3725.80145,0.15028
3727.72992,0.14606
3729.65839,0.14738
3731.58686,0.15570
3733.51532,0.16438
3735.44379,0.16465
3737.37226,0.16041
3739.30073,0.15472
3741.22920,0.15121
3743.15767,0.15587
3745.08614,0.16438
3747.01460,0.16268
3748.94307,0.15906
3750.87154,0.15768
3752.80001,0.15146
3754.72848,0.15001
3756.65695,0.15548
3758.58542,0.15690
3760.51389,0.14910
3762.44235,0.14090
3764.37082,0.13704
3766.29929,0.13819
3768.22776,0.14431
3770.15623,0.15001
3772.08470,0.14809
3774.01317,0.14190
3775.94163,0.13904
3777.87010,0.14063
3779.79857,0.14088
3781.72704,0.14189
3783.65551,0.14514
3785.58398,0.14368
3787.51245,0.13883
3789.44092,0.13443
3791.36938,0.13093
3793.29785,0.13017
3795.22632,0.13186
3797.15479,0.13482
3799.08326,0.14156
3801.01173,0.15260
3802.94020,0.15244
3804.86866,0.14471
3806.79713,0.14269
3808.72560,0.13804
3810.65407,0.13121
3812.58254,0.13311
3814.51101,0.14293
3816.43948,0.15024
3818.36795,0.15183
3820.29641,0.15324
3822.22488,0.15220
3824.15335,0.14971
3826.08182,0.14513
3828.01029,0.13740
3829.93876,0.13356
3831.86723,0.13698
3833.79569,0.14403
3835.72416,0.14990
3837.65263,0.14814
3839.58110,0.13833
3841.50957,0.13500
3843.43804,0.13967
3845.36651,0.14313
3847.29498,0.14219
3849.22344,0.14173
3851.15191,0.14998
3853.08038,0.16790
3855.00885,0.16584
3856.93732,0.15070
3858.86579,0.14249
3860.79426,0.14272
3862.72272,0.14729
3864.65119,0.14763
3866.57966,0.14577
3868.50813,0.14911
3870.43660,0.15733
3872.36507,0.16134
3874.29354,0.15310
3876.22200,0.14262
3878.15047,0.14306
3880.07894,0.15183
3882.00741,0.16012
3883.93588,0.16173
3885.86435,0.15081
3887.79282,0.13633
3889.72129,0.13258
3891.64975,0.13494
3893.57822,0.13492
3895.50669,0.13681
3897.43516,0.14598
3899.36363,0.15782
3901.29210,0.16005
3903.22057,0.15104
3905.14903,0.13684
3907.07750,0.12604
3909.00597,0.12570
3910.93444,0.12968
3912.86291,0.12969
3914.79138,0.13013
3916.71985,0.13229
3918.64832,0.13085
3920.57678,0.12909
3922.50525,0.12841
3924.43372,0.12539
3926.36219,0.12131
3928.29066,0.12026
3930.21913,0.12402
3932.14760,0.12925
3934.07606,0.12766
3936.00453,0.12246
3937.93300,0.12218
3939.86147,0.12418
3941.78994,0.12377
3943.71841,0.12280
3945.64688,0.12165
3947.57535,0.11832
3949.50381,0.11541
3951.43228,0.11765
3953.36075,0.12471
3955.28922,0.13037
3957.21769,0.12889
3959.14616,0.12341
3961.07463,0.12097
3963.00309,0.12507
3964.93156,0.13069
3966.86003,0.13053
3968.78850,0.12703
3970.71697,0.12501
3972.64544,0.12425
3974.57391,0.12217
3976.50238,0.11970
3978.43084,0.11888
3980.35931,0.11824
3982.28778,0.11783
3984.21625,0.11751
3986.14472,0.11768
3988.07319,0.11885
3990.00166,0.11823
3991.93012,0.11806
3993.85859,0.11999
3995.78706,0.11865
3997.71553,0.11389
3999.64400,0.11084
4001.57247,0.11141
4003.50094,0.11252
4005.42941,0.11218
4007.35787,0.11177
4009.28634,0.11065
4011.21481,0.11035
4013.14328,0.11317
4015.07175,0.11758
4017.00022,0.12123
4018.92869,0.12046
4020.85715,0.11723
4022.78562,0.11752
4024.71409,0.12029
4026.64256,0.12119
4028.57103,0.11647
4030.49950,0.10806
4032.42797,0.10443
4034.35644,0.10723
4036.28490,0.10974
4038.21337,0.10861
4040.14184,0.10613
4042.07031,0.10604
4043.99878,0.10867
4045.92725,0.11298
4047.85572,0.11839
4049.78418,0.12139
4051.71265,0.12013
4053.64112,0.11579
4055.56959,0.11066
4057.49806,0.10474
4059.42653,0.09427
4061.35500,0.08408
4063.28346,0.08404
4065.21193,0.09122
4067.14040,0.09555
4069.06887,0.09546
4070.99734,0.09671
4072.92581,0.10131
4074.85428,0.10512
4076.78275,0.10541
4078.71121,0.10591
4080.63968,0.11057
4082.56815,0.11508
4084.49662,0.11425
4086.42509,0.11115
4088.35356,0.10898
4090.28203,0.10941
4092.21049,0.11125
4094.13896,0.11047
4096.06743,0.10856
4097.99590,0.10580
4099.92437,0.10219
4101.85284,0.10191
4103.78131,0.10458
4105.70978,0.10601
4107.63824,0.10584
4109.56671,0.10571
4111.49518,0.10249
4113.42365,0.09420
4115.35212,0.08612
4117.28059,0.08362
4119.20906,0.08726
4121.13752,0.09425
4123.06599,0.09789
4124.99446,0.09444
4126.92293,0.09289
4128.85140,0.10331
4130.77987,0.11550
4132.70834,0.11089
4134.63681,0.09830
4136.56527,0.09733
4138.49374,0.10045
4140.42221,0.09626
4142.35068,0.09083
4144.27915,0.09025
4146.20762,0.09400
4148.13609,0.10122
4150.06455,0.10976
4151.99302,0.11410
4153.92149,0.11290
4155.84996,0.11086
4157.77843,0.10799
4159.70690,0.10209
4161.63537,0.09509
4163.56384,0.09164
4165.49230,0.09430
4167.42077,0.09510
4169.34924,0.08934
4171.27771,0.08594
4173.20618,0.08714
4175.13465,0.08707
4177.06312,0.08747
4178.99158,0.09070
4180.92005,0.09172
4182.84852,0.09071
4184.77699,0.09555
4186.70546,0.10388
4188.63393,0.10339
4190.56240,0.09646
4192.49087,0.09721
4194.41933,0.10335
4196.34780,0.09976
4198.27627,0.08718
4200.20474,0.08397
4202.13321,0.09064
4204.06168,0.08927
4205.99015,0.07881
4207.91861,0.07060
4209.84708,0.06694
4211.77555,0.06907
4213.70402,0.07888
4215.63249,0.08792
4217.56096,0.08834
4219.48943,0.08356
4221.41789,0.07986
4223.34636,0.07819
4225.27483,0.07918
4227.20330,0.08343
4229.13177,0.08282
4231.06024,0.07493
4232.98871,0.07233
4234.91718,0.07884
4236.84564,0.08222
4238.77411,0.07896
4240.70258,0.07721
4242.63105,0.07900
4244.55952,0.08010
4246.48799,0.07787
4248.41646,0.07467
4250.34492,0.07473
4252.27339,0.07735
4254.20186,0.07817
4256.13033,0.07845
4258.05880,0.07897
4259.98727,0.07665
4261.91574,0.07457
4263.84421,0.07422
4265.77267,0.07306
4267.70114,0.06880
4269.62961,0.06158
4271.55808,0.05721
4273.48655,0.05854
4275.41502,0.06174
4277.34349,0.06331
4279.27195,0.06340
4281.20042,0.06516
4283.12889,0.06910
4285.05736,0.07023
4286.98583,0.06946
4288.91430,0.07072
4290.84277,0.07093
4292.77124,0.06921
4294.69970,0.06746
4296.62817,0.06575
4298.55664,0.06625
4300.48511,0.07187
4302.41358,0.07735
4304.34205,0.07622
4306.27052,0.07041
4308.19898,0.06421
4310.12745,0.06158
4312.05592,0.06206
4313.98439,0.06328
4315.91286,0.06589
4317.84133,0.06728
4319.76980,0.06059
4321.69827,0.04945
4323.62673,0.04747
4325.55520,0.05238
4327.48367,0.05359
4329.41214,0.05425
4331.34061,0.05755
4333.26908,0.05758
4335.19755,0.05457
4337.12601,0.05563
4339.05448,0.06052
4340.98295,0.06089
4342.91142,0.05401
4344.83989,0.05007
4346.76836,0.05079
4348.69683,0.04661
4350.62530,0.04359
4352.55376,0.05241
4354.48223,0.06218
4356.41070,0.05839
4358.33917,0.05089
4360.26764,0.04957
4362.19611,0.04972
4364.12458,0.05358
4366.05304,0.06105
4367.98151,0.06274
4369.90998,0.05842
4371.83845,0.05656
4373.76692,0.05823
4375.69539,0.05498
4377.62386,0.04796
4379.55232,0.04676
4381.48079,0.04810
4383.40926,0.04517
4385.33773,0.03964
4387.26620,0.03588
4389.19467,0.03725
4391.12314,0.04139
4393.05161,0.04292
4394.98007,0.04058
4396.90854,0.03798
4398.83701,0.04070
4400.76548,0.04744
4402.69395,0.04891
4404.62242,0.04404
4406.55089,0.04159
4408.47935,0.04650
4410.40782,0.05389
4412.33629,0.05318
4414.26476,0.04457
4416.19323,0.03515
4418.12170,0.02916
4420.05017,0.03180
4421.97864,0.04064
4423.90710,0.04468
4425.83557,0.03878
4427.76404,0.03164
4429.69251,0.03338
4431.62098,0.04126
4433.54945,0.04370
4435.47792,0.03569
4437.40638,0.02589
4439.33485,0.02153
4441.26332,0.02528
4443.19179,0.03641
4445.12026,0.04360
4447.04873,0.04022
4448.97720,0.03179
4450.90567,0.02528
4452.83413,0.02800
4454.76260,0.03771
4456.69107,0.04117
4458.61954,0.03468
4460.54801,0.02609
4462.47648,0.02333
4464.40495,0.02639
4466.33341,0.02667
4468.26188,0.02291
4470.19035,0.02135
4472.11882,0.02101
4474.04729,0.02057
4475.97576,0.02337
4477.90423,0.02920
4479.83270,0.03544
4481.76116,0.03917
4483.68963,0.03776
4485.61810,0.03408
4487.54657,0.03296
4489.47504,0.03549
4491.40351,0.04088
4493.33198,0.04471
4495.26044,0.04327
4497.18891,0.03542
4499.11738,0.02152
4501.04585,0.01135
4502.97432,0.01055
4504.90279,0.01648
4506.83126,0.02467
4508.75973,0.02484
4510.68819,0.01971
4512.61666,0.02081
4514.54513,0.02654
4516.47360,0.02964
4518.40207,0.02660
4520.33054,0.02156
4522.25901,0.02164
4524.18747,0.02512
4526.11594,0.02681
4528.04441,0.02666
4529.97288,0.02624
4531.90135,0.02796
4533.82982,0.03013
4535.75829,0.02852
4537.68676,0.02695
4539.61522,0.02630
4541.54369,0.01952
4543.47216,0.00993
4545.40063,0.00574
4547.32910,0.00443
4549.25757,0.00654
4551.18604,0.01628
4553.11450,0.02631
4555.04297,0.02281
4556.97144,0.00467
4558.89991,-0.00576
4560.82838,0.00086
4562.75685,0.00535
4564.68532,0.00576
4566.61378,0.01395
4568.54225,0.02376
4570.47072,0.03089
4572.39919,0.03420
4574.32766,0.02956
4576.25613,0.02599
4578.18460,0.02569
4580.11307,0.02045
4582.04153,0.01247
4583.97000,0.00867
4585.89847,0.01279
4587.82694,0.01914
4589.75541,0.01966
4591.68388,0.01437
4593.61235,0.00914
4595.54081,0.01170
4597.46928,0.01758
4599.39775,0.01550
4601.32622,0.01116
4603.25469,0.01729
4605.18316,0.02783
4607.11163,0.02736
4609.04010,0.01691
4610.96856,0.00970
4612.89703,0.01206
4614.82550,0.01683
4616.75397,0.01515
4618.68244,0.00831
4620.61091,0.00313
4622.53938,0.00144
4624.46784,0.00255
4626.39631,0.00942
4628.32478,0.01860
4630.25325,0.02299
4632.18172,0.02366
4634.11019,0.02240
4636.03866,0.02086
4637.96713,0.02086
4639.89559,0.02130
4641.82406,0.02254
4643.75253,0.02510
4645.68100,0.02833
4647.60947,0.03110
4649.53794,0.03187
4651.46641,0.03223
4653.39487,0.03232
4655.32334,0.02388
4657.25181,0.00862
4659.18028,0.00293
4661.10875,0.01375
4663.03722,0.02737
4664.96569,0.02348
4666.89416,0.01116
4668.82262,0.01133
4670.75109,0.01789
4672.67956,0.02184
4674.60803,0.01756
4676.53650,0.00858
4678.46497,0.01102
4680.39344,0.01214
4682.32190,0.00035
4684.25037,-0.00279
4686.17884,0.00539
4688.10731,0.01024
4690.03578,0.01789
4691.96425,0.02992
4693.89272,0.02950
4695.82119,0.01885
4697.74965,0.00826
4699.67812,-0.00716
4701.60659,-0.01625
4703.53506,-0.00967
4705.46353,-0.00213
4707.39200,0.00283
4709.32047,0.00898
4711.24893,0.01015
4713.17740,0.00663
4715.10587,0.00677
4717.03434,0.01502
4718.96281,0.02628
4720.89128,0.02865
4722.81975,0.02289
4724.74821,0.02076
4726.67668,0.01866
4728.60515,0.01293
4730.53362,0.01367
4732.46209,0.01672
4734.39056,0.01261
4736.31903,0.00640
4738.24750,0.00092
4740.17596,0.00205
4742.10443,0.01125
4744.03290,0.01394
4745.96137,0.00839
4747.88984,0.00751
4749.81831,0.01228
4751.74678,0.01379
4753.67524,0.01197
4755.60371,0.00823
4757.53218,0.00025
4759.46065,-0.00710
4761.38912,-0.00308
4763.31759,0.00741
4765.24606,0.00728
4767.17453,0.00057
4769.10299,0.00172
4771.03146,0.00636
4772.95993,0.00542
4774.88840,0.00189
4776.81687,-0.00127
4778.74534,-0.00553
4780.67381,-0.00432
4782.60227,0.00562
4784.53074,0.01037
4786.45921,0.00647
4788.38768,0.00422
4790.31615,0.00314
4792.24462,0.00035
4794.17309,-0.00522
4796.10156,-0.01005
4798.03002,-0.00441
4799.95849,0.00689
4801.88696,0.00731
4803.81543,-0.00476
4805.74390,-0.01201
4807.67237,-0.01059
4809.60084,-0.00509
4811.52930,0.00582
4813.45777,0.01256
4815.38624,0.01156
4817.31471,0.00906
4819.24318,0.00268
4821.17165,-0.00529
4823.10012,-0.00406
4825.02859,0.00001
4826.95705,-0.00703
4828.88552,-0.01520
4830.81399,-0.00890
4832.74246,0.00599
4834.67093,0.01784
4836.59940,0.02162
4838.52787,0.01537
4840.45633,0.00153
4842.38480,-0.00909
4844.31327,-0.00470
4846.24174,0.00682
4848.17021,0.01604
4850.09868,0.02459
4852.02715,0.02346
4853.95562,0.01458
4855.88408,0.01209
4857.81255,0.01794
4859.74102,0.02692
4861.66949,0.02807
4863.59796,0.01901
4865.52643,0.01041
4867.45490,0.00600
4869.38336,0.00542
4871.31183,0.00954
4873.24030,0.01242
4875.16877,0.00997
4877.09724,0.00407
4879.02571,-0.00166
4880.95418,0.00130
4882.88265,0.01206
4884.81111,0.01476
4886.73958,0.00411
4888.66805,-0.00224
4890.59652,0.00553
4892.52499,0.01044
4894.45346,0.00686
4896.38193,0.00810
4898.31039,0.01362
4900.23886,0.01741
4902.16733,0.01848
4904.09580,0.01206
4906.02427,0.00224
4907.95274,-0.00243
4909.88121,-0.00503
4911.80967,-0.00338
4913.73814,0.01302
4915.66661,0.03010
4917.59508,0.02448
4919.52355,0.00867
4921.45202,0.00448
4923.38049,0.00674
4925.30896,0.01060
4927.23742,0.02113
4929.16589,0.02939
4931.09436,0.02162
4933.02283,0.00081
4934.95130,-0.01613
4936.87977,-0.01694
4938.80824,-0.01001
4940.73670,-0.00615
4942.66517,0.00332
4944.59364,0.02430
4946.52211,0.04444
4948.45058,0.05050
4950.37905,0.03793
4952.30752,0.01566
4954.23599,0.00528
4956.16445,0.01204
4958.09292,0.01944
4960.02139,0.01323
4961.94986,0.00200
4963.87833,0.00574
4965.80680,0.01662
4967.73527,0.01624
4969.66373,0.00654
4971.59220,0.00064
4973.52067,0.00957
4975.44914,0.02752
4977.37761,0.03436
4979.30608,0.01642
4981.23455,-0.01588
4983.16302,-0.03297
4985.09148,-0.02043
4987.01995,0.00171
4988.94842,0.00601
4990.87689,-0.00058
4992.80536,0.00142
4994.73383,0.00585
4996.66230,0.00852
4998.59076,0.01168
5000.51923,0.01617
5002.44770,0.03052
5004.37617,0.04347
5006.30464,0.03864
5008.23311,0.02816
5010.16158,0.02351
5012.09005,0.02147
5014.01851,0.02073
5015.94698,0.01838
5017.87545,0.01443
5019.80392,0.01123
5021.73239,0.00486
5023.66086,0.00706
5025.58933,0.02366
5027.51779,0.02919
5029.44626,0.01453
5031.37473,0.00627
5033.30320,0.01956
5035.23167,0.03332
5037.16014,0.03875
5039.08861,0.04582
5041.01708,0.04340
5042.94554,0.02691
5044.87401,0.01389
5046.80248,0.01121
5048.73095,0.01328
5050.65942,0.01111
5052.58789,0.00477
5054.51636,0.01034
5056.44482,0.02304
5058.37329,0.02830
5060.30176,0.03370
5062.23023,0.04087
5064.15870,0.04156
5066.08717,0.03583
5068.01564,0.03126
5069.94410,0.03165
5071.87257,0.03697
5073.80104,0.04654
5075.72951,0.04512
5077.65798,0.02732
5079.58645,0.01384
5081.51492,0.01622
5083.44339,0.02054
5085.37185,0.01716
5087.30032,0.02234
5089.22879,0.03548
5091.15726,0.03428
5093.08573,0.02419
5095.01420,0.02215
5096.94267,0.03120
5098.87113,0.03818
5100.79960,0.03457
5102.72807,0.04108
5104.65654,0.06216
5106.58501,0.06684
5108.51348,0.04476
5110.44195,0.02596
5112.37042,0.02738
5114.29888,0.03653
5116.22735,0.04124
5118.15582,0.03326
5120.08429,0.02455
5122.01276,0.02870
5123.94123,0.03286
5125.86970,0.03076
5127.79816,0.03263
5129.72663,0.03885
5131.65510,0.03216
5133.58357,0.01550
5135.51204,0.00879
5137.44051,0.00532
5139.36898,0.00253
5141.29745,0.02096
5143.22591,0.05502
5145.15438,0.07315
5147.08285,0.06801
5149.01132,0.04963
5150.93979,0.02929
5152.86826,0.02178
5154.79673,0.02252
5156.72519,0.02187
5158.65366,0.02477
5160.58213,0.03910
5162.51060,0.06090
5164.43907,0.06935
5166.36754,0.05840
5168.29601,0.04520
5170.22448,0.04292
5172.15294,0.04369
5174.08141,0.03401
5176.00988,0.02275
5177.93835,0.01954
5179.86682,0.02469
5181.79529,0.04076
5183.72376,0.05880
5185.65222,0.06810
5187.58069,0.06915
5189.50916,0.06493
5191.43763,0.05837
5193.36610,0.04497
5195.29457,0.03429
5197.22304,0.04446
5199.15151,0.05467
5201.07997,0.04860
5203.00844,0.04411
5204.93691,0.04954
5206.86538,0.05595
5208.79385,0.05247
5210.72232,0.04736
5212.65079,0.05552
5214.57925,0.07652
5216.50772,0.09043
5218.43619,0.08269
5220.36466,0.06483
5222.29313,0.05503
5224.22160,0.05557
5226.15007,0.05337
5228.07854,0.04342
5230.00700,0.04105
5231.93547,0.05456
5233.86394,0.06223
5235.79241,0.04757
5237.72088,0.02760
5239.64935,0.01234
5241.57782,0.01097
5243.50628,0.03005
5245.43475,0.04053
5247.36322,0.03457
5249.29169,0.03645
5251.22016,0.03713
5253.14863,0.03102
5255.07710,0.03688
5257.00556,0.04431
5258.93403,0.03513
5260.86250,0.02320
5262.79097,0.03082
5264.71944,0.05497
5266.64791,0.06695
5268.57638,0.06231
5270.50485,0.05545
5272.43331,0.04362
5274.36178,0.03260
5276.29025,0.03561
5278.21872,0.04383
5280.14719,0.05453
5282.07566,0.06672
5284.00413,0.07347
5285.93259,0.08310
5287.86106,0.09027
5289.78953,0.08270
5291.71800,0.06578
5293.64647,0.04903
5295.57494,0.04544
5297.50341,0.05875
5299.43188,0.07102
5301.36034,0.07950
5303.28881,0.08859
5305.21728,0.08055
5307.14575,0.05286
5309.07422,0.02660
5311.00269,0.01536
5312.93116,0.02354
5314.85962,0.05335
5316.78809,0.07870
5318.71656,0.07384
5320.64503,0.06276
5322.57350,0.05987
5324.50197,0.05076
5326.43044,0.03526
5328.35891,0.03122
5330.28737,0.04117
5332.21584,0.04518
5334.14431,0.04046
5336.07278,0.03702
5338.00125,0.04115
5339.92972,0.04627
5341.85819,0.03542
5343.78665,0.02156
5345.71512,0.03225
5347.64359,0.06052
5349.57206,0.08144
5351.50053,0.08957
5353.42900,0.08818
5355.35747,0.07027
5357.28594,0.04791
5359.21440,0.03506
5361.14287,0.02698
5363.07134,0.02132
5364.99981,0.01491
5366.92828,0.01423
5368.85675,0.03837
5370.78522,0.07264
5372.71368,0.08426
5374.64215,0.07291
5376.57062,0.06186
5378.49909,0.07087
5380.42756,0.08667
5382.35603,0.08717
5384.28450,0.08040
5386.21297,0.07319
5388.14143,0.05393
5390.06990,0.04054
5391.99837,0.04960
5393.92684,0.06905
5395.85531,0.08261
5397.78378,0.08436
5399.71225,0.06976
5401.64071,0.04564
5403.56918,0.03088
5405.49765,0.03515
5407.42612,0.05057
5409.35459,0.06207
5411.28306,0.06750
5413.21153,0.07755
5415.13999,0.08538
5417.06846,0.08407
5418.99693,0.08141
5420.92540,0.07503
5422.85387,0.06278
5424.78234,0.05470
5426.71081,0.05477
5428.63928,0.06256
5430.56774,0.07718
5432.49621,0.08204
5434.42468,0.06865
5436.35315,0.06876
5438.28162,0.09557
5440.21009,0.11297
5442.13856,0.10122
5444.06702,0.07317
5445.99549,0.03390
5447.92396,-0.00051
5449.85243,-0.00067
5451.78090,0.02832
5453.70937,0.05748
5455.63784,0.07128
5457.56631,0.07575
5459.49477,0.08876
5461.42324,0.10362
5463.35171,0.10560
5465.28018,0.11028
5467.20865,0.12010
5469.13712,0.11541
5471.06559,0.10234
5472.99405,0.09004
5474.92252,0.06562
5476.85099,0.03816
5478.77946,0.04050
5480.70793,0.06758
5482.63640,0.09050
5484.56487,0.09989
5486.49334,0.09351
5488.42180,0.06873
5490.35027,0.04062
5492.27874,0.02524
5494.20721,0.03976
5496.13568,0.08228
5498.06415,0.10686
5499.99262,0.08854
5501.92108,0.06675
5503.84955,0.06554
5505.77802,0.06263
5507.70649,0.05364
5509.63496,0.07090
5511.56343,0.10409
5513.49190,0.09891
5515.42037,0.05677
5517.34883,0.03091
5519.27730,0.05163
5521.20577,0.08458
5523.13424,0.07894
5525.06271,0.05703
5526.99118,0.05650
5528.91965,0.05514
5530.84811,0.04600
5532.77658,0.05717
5534.70505,0.07282
5536.63352,0.06704
5538.56199,0.06495
5540.49046,0.07825
5542.41893,0.08199
5544.34740,0.06753
5546.27586,0.04311
5548.20433,0.02885
5550.13280,0.04280
5552.06127,0.06212
5553.98974,0.06511
5555.91821,0.06941
5557.84668,0.07656
5559.77514,0.06424
5561.70361,0.03359
5563.63208,0.02206
5565.56055,0.05580
5567.48902,0.09513
5569.41749,0.10123
5571.34596,0.08589
5573.27443,0.07082
5575.20289,0.07465
5577.13136,0.09676
5579.05983,0.11566
5580.98830,0.10748
5582.91677,0.07607
5584.84524,0.05916
5586.77371,0.07034
5588.70217,0.09687
5590.63064,0.12100
5592.55911,0.11591
5594.48758,0.09152
5596.41605,0.08133
5598.34452,0.07551
5600.27299,0.06336
5602.20145,0.05310
5604.12992,0.04810
5606.05839,0.06139
5607.98686,0.07860
5609.91533,0.08107
5611.84380,0.08414
5613.77227,0.07541
5615.70074,0.05183
5617.62920,0.04427
5619.55767,0.05162
5621.48614,0.06535
5623.41461,0.08099
5625.34308,0.10629
5627.27155,0.13880
5629.20002,0.12666
5631.12848,0.08657
5633.05695,0.07010
5634.98542,0.05626
5636.91389,0.03562
5638.84236,0.04508
5640.77083,0.07474
5642.69930,0.08403
5644.62777,0.07555
5646.55623,0.06037
5648.48470,0.04416
5650.41317,0.06310
5652.34164,0.10958
5654.27011,0.11524
5656.19858,0.08003
5658.12705,0.05684
5660.05551,0.05410
5661.98398,0.06698
5663.91245,0.08832
5665.84092,0.09694
5667.76939,0.09526
5669.69786,0.08481
5671.62633,0.06415
5673.55480,0.04844
5675.48326,0.04171
5677.41173,0.05190
5679.34020,0.07939
5681.26867,0.08776
5683.19714,0.07531
5685.12561,0.08775
5687.05408,0.11799
5688.98254,0.12104
5690.91101,0.10395
5692.83948,0.09588
5694.76795,0.09985
5696.69642,0.10025
5698.62489,0.08877
5700.55336,0.08494
5702.48183,0.08524
5704.41029,0.07153
5706.33876,0.06448
5708.26723,0.07643
5710.19570,0.09059
5712.12417,0.09467
5714.05264,0.08055
5715.98111,0.06950
5717.90957,0.08906
5719.83804,0.11728
5721.76651,0.12356
5723.69498,0.10203
5725.62345,0.07470
5727.55192,0.06447
5729.48039,0.07598
5731.40886,0.10059
5733.33732,0.09930
5735.26579,0.06996
5737.19426,0.05378
5739.12273,0.05112
5741.05120,0.06284
5742.97967,0.07908
5744.90814,0.07674
5746.83660,0.06715
5748.76507,0.07008
5750.69354,0.08673
5752.62201,0.09033
5754.55048,0.07440
5756.47895,0.07016
5758.40742,0.08838
5760.33588,0.10628
5762.26435,0.10876
5764.19282,0.10627
5766.12129,0.10218
5768.04976,0.10621
5769.97823,0.12855
5771.90670,0.14274
5773.83517,0.12946
5775.76363,0.10842
5777.69210,0.09484
5779.62057,0.08588
5781.54904,0.08216
5783.47751,0.08417
5785.40598,0.09733
5787.33445,0.12011
5789.26291,0.13157
5791.19138,0.12649
5793.11985,0.11322
5795.04832,0.11020
5796.97679,0.12823
5798.90526,0.13906
5800.83373,0.13063
5802.76220,0.12178
5804.69066,0.12274
5806.61913,0.14299
5808.54760,0.16144
5810.47607,0.13513
5812.40454,0.08716
5814.33301,0.06338
5816.26148,0.06308
5818.18994,0.06979
5820.11841,0.07456
5822.04688,0.09827
5823.97535,0.11724
5825.90382,0.09770
5827.83229,0.08728
5829.76076,0.10358
5831.68923,0.11348
5833.61769,0.10923
5835.54616,0.09688
5837.47463,0.07488
5839.40310,0.05446
5841.33157,0.06502
5843.26004,0.08353
5845.18851,0.07381
5847.11697,0.06464
5849.04544,0.07982
5850.97391,0.09150
5852.90238,0.09189
5854.83085,0.10748
5856.75932,0.13124
5858.68779,0.13878
5860.61626,0.13402
5862.54472,0.12321
5864.47319,0.09765
5866.40166,0.08323
5868.33013,0.09691
5870.25860,0.09554
5872.18707,0.08386
5874.11554,0.09401
5876.04400,0.11774
5877.97247,0.13709
5879.90094,0.13937
5881.82941,0.13073
5883.75788,0.11195
5885.68635,0.09286
5887.61482,0.09650
5889.54329,0.09575
5891.47175,0.07653
5893.40022,0.07391
5895.32869,0.09023
5897.25716,0.09392
5899.18563,0.08217
5901.11410,0.09124
5903.04257,0.11878
5904.97103,0.11045
5906.89950,0.06981
5908.82797,0.05663
5910.75644,0.07336
5912.68491,0.06343
5914.61338,0.04896
5916.54185,0.07542
5918.47032,0.08464
5920.39878,0.06256
5922.32725,0.06450
5924.25572,0.07341
5926.18419,0.06985
5928.11266,0.08043
5930.04113,0.10537
5931.96960,0.10231
5933.89806,0.04374
5935.82653,-0.01678
5937.75500,-0.01526
5939.68347,0.04088
5941.61194,0.10473
5943.54041,0.11515
5945.46888,0.08109
5947.39734,0.05789
5949.32581,0.05494
5951.25428,0.06883
5953.18275,0.09514
5955.11122,0.12120
5957.03969,0.13303
5958.96816,0.12315
5960.89663,0.11568
5962.82509,0.12973
5964.75356,0.14336
5966.68203,0.13862
5968.61050,0.13998
5970.53897,0.15955
5972.46744,0.16894
5974.39591,0.15756
5976.32437,0.13501
5978.25284,0.11698
5980.18131,0.12372
5982.10978,0.13462
5984.03825,0.09685
5985.96672,0.03149
5987.89519,0.02212
5989.82366,0.06532
5991.75212,0.09134
5993.68059,0.07919
5995.60906,0.04453
5997.53753,0.02470
5999.46600,0.03798
6001.39447,0.04161
6003.32294,0.02697
6005.25140,0.04484
6007.17987,0.09315
6009.10834,0.12025
6011.03681,0.11387
6012.96528,0.08185
6014.89375,0.02998
6016.82222,0.00232
6018.75069,0.03106
6020.67915,0.08438
6022.60762,0.12276
6024.53609,0.12456
6026.46456,0.09814
6028.39303,0.09090
6030.32150,0.12352
6032.24997,0.13961
6034.17843,0.12093
6036.10690,0.10819
6038.03537,0.08591
6039.96384,0.04835
6041.89231,0.04437
6043.82078,0.07682
6045.74925,0.10258
6047.67772,0.10994
6049.60618,0.11889
6051.53465,0.13712
6053.46312,0.13101
6055.39159,0.07396
6057.32006,0.01303
6059.24853,0.01603
6061.17700,0.06499
6063.10546,0.08448
6065.03393,0.06927
6066.96240,0.06523
6068.89087,0.07253
6070.81934,0.06622
6072.74781,0.03294
6074.67628,0.00615
6076.60475,0.01221
6078.53321,0.01199
6080.46168,0.01513
6082.39015,0.05235
6084.31862,0.08509
6086.24709,0.11477
6088.17556,0.15521
6090.10403,0.16272
6092.03249,0.14196
6093.96096,0.12777
6095.88943,0.11750
6097.81790,0.07925
6099.74637,0.01167
6101.67484,-0.01093
6103.60331,0.03225
6105.53177,0.07070
6107.46024,0.07991
6109.38871,0.10285
6111.31718,0.14958
6113.24565,0.16647
6115.17412,0.15361
6117.10259,0.15107
6119.03106,0.16042
6120.95952,0.17191
6122.88799,0.15522
6124.81646,0.10232
6126.74493,0.06104
6128.67340,0.05718
6130.60187,0.06462
6132.53034,0.07644
6134.45880,0.10404
6136.38727,0.11085
6138.31574,0.08420
6140.24421,0.06355
6142.17268,0.04404
6144.10115,0.01261
6146.02962,0.01019
6147.95809,0.04529
6149.88655,0.08314
6151.81502,0.11669
6153.74349,0.12613
6155.67196,0.08002
6157.60043,0.02185
6159.52890,0.00307
6161.45737,0.01568
6163.38583,0.03523
6165.31430,0.07425
6167.24277,0.15011
6169.17124,0.20812
6171.09971,0.16955
6173.02818,0.08205
6174.95665,0.04546
6176.88512,0.05105
6178.81358,0.07531
6180.74205,0.11543
6182.67052,0.14306
6184.59899,0.16052
6186.52746,0.16889
6188.45593,0.12542
6190.38440,0.06709
6192.31286,0.07570
6194.24133,0.12033
6196.16980,0.13198
6198.09827,0.10573
6200.02674,0.06334
6201.95521,0.03724
6203.88368,0.05050
6205.81215,0.06625
6207.74061,0.06701
6209.66908,0.07205
6211.59755,0.05998
6213.52602,0.02114
6215.45449,-0.01757
6217.38296,-0.02689
6219.31143,-0.00103
6221.23989,0.04444
6223.16836,0.08438
6225.09683,0.09413
6227.02530,0.10469
6228.95377,0.14234
6230.88224,0.17737
6232.81071,0.18133
6234.73918,0.14793
6236.66764,0.09095
6238.59611,0.03123
6240.52458,-0.00170
6242.45305,0.03374
6244.38152,0.09684
6246.30999,0.07706
6248.23846,0.02024
6250.16692,0.03087
6252.09539,0.03695
6254.02386,0.02782
6255.95233,0.07578
6257.88080,0.07422
6259.80927,-0.02848
6261.73774,-0.09831
6263.66621,-0.06909
6265.59467,0.01880
6267.52314,0.07515
6269.45161,0.04916
6271.38008,0.01538
6273.30855,0.03709
6275.23702,0.09704
6277.16549,0.12691
6279.09395,0.08681
6281.02242,0.06376
6282.95089,0.09294
6284.87936,0.07732
6286.80783,0.04640
6288.73630,0.09114
6290.66477,0.16108
6292.59323,0.17559
6294.52170,0.13478
6296.45017,0.06404
6298.37864,0.02445
6300.30711,0.05963
6302.23558,0.12202
6304.16405,0.15426
6306.09252,0.16065
6308.02098,0.14831
6309.94945,0.11070
6311.87792,0.07030
6313.80639,0.05644
6315.73486,0.06476
6317.66333,0.07796
6319.59180,0.07613
6321.52026,0.04699
6323.44873,0.00776
6325.37720,0.02083
6327.30567,0.08920
6329.23414,0.14197
6331.16261,0.13917
6333.09108,0.08132
6335.01955,0.00414
6336.94801,-0.04142
6338.87648,-0.00898
6340.80495,0.06969
6342.73342,0.09324
6344.66189,0.07901
6346.59036,0.07502
6348.51883,0.05861
6350.44729,0.04033
6352.37576,0.04743
6354.30423,0.07265
6356.23270,0.08641
6358.16117,0.08105
6360.08964,0.06831
6362.01811,0.05652
6363.94658,0.09620
6365.87504,0.17243
6367.80351,0.17064
6369.73198,0.11598
6371.66045,0.11123
6373.58892,0.16054
6375.51739,0.17895
6377.44586,0.12751
6379.37432,0.07276
6381.30279,0.04679
6383.23126,0.03671
6385.15973,0.07576
6387.08820,0.12839
6389.01667,0.11754
6390.94514,0.07699
6392.87361,0.06959
6394.80207,0.05859
6396.73054,0.02467
6398.65901,0.02508
6400.58748,0.07350
6402.51595,0.11537
6404.44442,0.11958
6406.37289,0.13673
6408.30135,0.18428
6410.22982,0.17536
6412.15829,0.10916
6414.08676,0.04907
6416.01523,0.01963
6417.94370,0.05501
6419.87217,0.11410
6421.80064,0.13601
6423.72910,0.12115
6425.65757,0.07668
6427.58604,0.03462
6429.51451,0.04630
6431.44298,0.12996
6433.37145,0.17864
6435.29992,0.12007
6437.22838,0.04648
6439.15685,0.05609
6441.08532,0.09900
6443.01379,0.08811
6444.94226,0.03407
6446.87073,0.01520
6448.79920,0.05051
6450.72766,0.08413
6452.65613,0.08649
6454.58460,0.08759
6456.51307,0.08173
6458.44154,0.06759
6460.37001,0.07235
6462.29848,0.07280
6464.22695,0.05209
6466.15541,0.02215
6468.08388,-0.00285
6470.01235,0.03424
6471.94082,0.11307
6473.86929,0.13256
6475.79776,0.08310
6477.72623,0.02808
6479.65469,0.03253
6481.58316,0.08275
6483.51163,0.15712
6485.44010,0.24383
6487.36857,0.25903
6489.29704,0.19901
6491.22551,0.16245
6493.15398,0.12610
6495.08244,0.05226
6497.01091,0.03409
6498.93938,0.09939
6500.86785,0.16293
6502.79632,0.14982
6504.72479,0.10780
6506.65326,0.08785
6508.58172,0.06972
6510.51019,0.09419
6512.43866,0.17835
6514.36713,0.21085
6516.29560,0.16307
6518.22407,0.09646
6520.15254,0.03594
6522.08101,-0.00326
6524.00947,0.01304
6525.93794,0.08279
6527.86641,0.14187
6529.79488,0.13841
6531.72335,0.12160
6533.65182,0.14542
6535.58029,0.16052
6537.50875,0.11261
6539.43722,0.01600
6541.36569,-0.03302
6543.29416,-0.00102
6545.22263,0.01436
6547.15110,0.01194
6549.07957,0.07110
6551.00804,0.12150
6552.93650,0.06112
6554.86497,-0.01086
6556.79344,-0.00048
6558.72191,0.05589
6560.65038,0.10145
6562.57885,0.14331
6564.50732,0.18038
6566.43578,0.13243
6568.36425,0.02048
6570.29272,-0.02959
6572.22119,-0.00672
6574.14966,-0.00413
6576.07813,0.00649
6578.00660,0.10296
6579.93507,0.17061
6581.86353,0.12106
6583.79200,0.07202
6585.72047,0.06906
6587.64894,0.09431
6589.57741,0.15964
6591.50588,0.18183
6593.43435,0.13462
6595.36281,0.10464
6597.29128,0.09018
6599.21975,0.04785
6601.14822,0.00031
6603.07669,-0.01467
6605.00516,0.00311
6606.93363,0.03544
6608.86210,0.05602
6610.79056,0.09016
6612.71903,0.12509
6614.64750,0.11861
6616.57597,0.10966
6618.50444,0.09357
6620.43291,0.08943
6622.36138,0.13969
6624.28984,0.19843
6626.21831,0.21319
6628.14678,0.16395
6630.07525,0.07251
6632.00372,-0.00120
6633.93219,-0.03793
6635.86066,-0.07357
6637.78912,-0.12687
6639.71759,-0.13481
6641.64606,-0.06132
6643.57453,0.03363
6645.50300,0.04415
6647.43147,-0.01694
6649.35994,-0.03444
6651.28841,0.00440
6653.21687,0.06176
6655.14534,0.12231
6657.07381,0.14304
6659.00228,0.13491
6660.93075,0.18986
6662.85922,0.23334
6664.78769,0.14979
6666.71615,0.07487
6668.64462,0.13514
6670.57309,0.19312
6672.50156,0.19535
6674.43003,0.22211
6676.35850,0.21680
6678.28697,0.15782
6680.21544,0.11176
6682.14390,0.06863
6684.07237,-0.00225
6686.00084,-0.04343
6687.92931,0.00180
6689.85778,0.08239
6691.78625,0.11604
6693.71472,0.13376
6695.64318,0.17111
6697.57165,0.17579
6699.50012,0.14438
6701.42859,0.10355
6703.35706,0.06743
6705.28553,0.09713
6707.21400,0.11673
6709.14247,0.06189
6711.07093,0.04848
6712.99940,0.08274
6714.92787,0.08028
6716.85634,0.03801
6718.78481,-0.00061
6720.71328,-0.04059
6722.64175,-0.05246
6724.57021,-0.02352
6726.49868,-0.04356
6728.42715,-0.11233
6730.35562,-0.14330
6732.28409,-0.10877
6734.21256,-0.06182
6736.14103,-0.01308
6738.06950,0.06452
6739.99796,0.11074
6741.92643,0.04989
6743.85490,-0.02860
6745.78337,-0.01794
6747.71184,0.03308
6749.64031,0.05656
6751.56878,0.06941
6753.49724,0.09159
6755.42571,0.10149
6757.35418,0.08647
6759.28265,0.08491
6761.21112,0.08029
6763.13959,0.01220
6765.06806,-0.02409
6766.99653,0.01083
6768.92499,0.01412
6770.85346,-0.03052
6772.78193,-0.00701
6774.71040,0.07787
6776.63887,0.04809
6778.56734,-0.05055
6780.49581,-0.01903
6782.42427,0.10307
6784.35274,0.12666
6786.28121,0.04668
6788.20968,0.00205
6790.13815,-0.01565
6792.06662,-0.04096
6793.99509,-0.02077
6795.92355,0.02077
6797.85202,0.08463
6799.78049,0.18637
6801.70896,0.23040
6803.63743,0.15647
6805.56590,0.07097
6807.49437,0.05454
6809.42284,0.07480
6811.35130,0.10491
6813.27977,0.12443
6815.20824,0.08913
6817.13671,0.04197
6819.06518,0.04495
6820.99365,0.05546
6822.92212,0.05156
6824.85058,0.02026
6826.77905,-0.07301
6828.70752,-0.12675
6830.63599,0.00373
6832.56446,0.17128
6834.49293,0.20112
6836.42140,0.10594
6838.34987,-0.03260
6840.27833,-0.08263
6842.20680,-0.01121
6844.13527,0.03725
6846.06374,0.01430
6847.99221,0.01232
6849.92068,0.06060
6851.84915,0.05410
6853.77761,-0.04174
6855.70608,-0.11395
6857.63455,-0.09013
6859.56302,-0.05184
6861.49149,-0.03058
6863.41996,0.01987
6865.34843,0.12142
6867.27690,0.20632
6869.20536,0.22071
6871.13383,0.19617
6873.06230,0.13410
6874.99077,0.04624
6876.91924,-0.02850
6878.84771,-0.02627
6880.77618,0.08561
6882.70464,0.17142
6884.63311,0.16927
6886.56158,0.14910
6888.49005,0.12869
6890.41852,0.08637
6892.34699,0.06821
6894.27546,0.13615
6896.20393,0.23304
6898.13239,0.24512
6900.06086,0.19102
6901.98933,0.12847
6903.91780,0.03284
6905.84627,-0.05221
6907.77474,-0.05911
6909.70321,-0.01314
6911.63167,0.02427
6913.56014,0.00121
6915.48861,-0.02030
6917.41708,0.03289
6919.34555,0.09547
6921.27402,0.09337
6923.20249,0.04873
6925.13096,0.00410
6927.05942,0.02021
6928.98789,0.10991
6930.91636,0.15951
6932.84483,0.08682
6934.77330,-0.00116
6936.70177,-0.01280
6938.63024,0.04830
6940.55870,0.13552
6942.48717,0.17724
6944.41564,0.17160
6946.34411,0.17793
6948.27258,0.24224
6950.20105,0.26686
6952.12952,0.14760
6954.05799,0.02223
6955.98645,0.06828
6957.91492,0.14156
6959.84339,0.12182
6961.77186,0.06599
6963.70033,0.03242
6965.62880,0.01427
6967.55727,-0.04979
6969.48573,-0.14686
6971.41420,-0.16378
6973.34267,-0.01705
6975.27114,0.19897
6977.19961,0.25670
6979.12808,0.18571
6981.05655,0.14405
6982.98501,0.15392
6984.91348,0.12596
6986.84195,0.03209
6988.77042,-0.03759
6990.69889,-0.04461
6992.62736,-0.04601
6994.55583,-0.08608
6996.48430,-0.11489
6998.41276,-0.04223
7000.34123,0.03877
7002.26970,0.04902
7004.19817,0.00030
7006.12664,-0.05910
7008.05511,-0.01418
7009.98358,0.07412
7011.91204,0.13608
7013.84051,0.15181
7015.76898,0.08949
7017.69745,0.03615
7019.62592,0.03560
7021.55439,0.06001
7023.48286,0.06553
7025.41133,0.05850
7027.33979,0.05777
7029.26826,-0.00161
7031.19673,-0.10345
7033.12520,-0.15768
7035.05367,-0.11800
7036.98214,-0.01432
7038.91061,0.09844
7040.83907,0.17103
7042.76754,0.14988
7044.69601,0.07527
7046.62448,0.08003
7048.55295,0.21856
7050.48142,0.26908
7052.40989,0.10519
7054.33836,-0.00864
7056.26682,0.05710
7058.19529,0.04997
7060.12376,-0.00013
7062.05223,0.08034
7063.98070,0.13904
7065.90917,0.09282
7067.83764,0.04270
7069.76610,0.01237
7071.69457,0.06645
7073.62304,0.18255
7075.55151,0.15777
7077.47998,-0.02253
7079.40845,-0.16943
7081.33692,-0.15835
7083.26539,-0.10698
7085.19385,-0.09017
7087.12232,-0.02781
7089.05079,0.06790
7090.97926,0.08195
7092.90773,0.01974
7094.83620,-0.04032
7096.76467,-0.07456
7098.69313,-0.04454
7100.62160,0.06917
7102.55007,0.16201
7104.47854,0.17854
7106.40701,0.19594
7108.33548,0.26989
7110.26395,0.29949
7112.19242,0.21534
7114.12088,0.14295
7116.04935,0.21819
7117.97782,0.30221
7119.90629,0.14556
7121.83476,-0.07655
7123.76323,-0.14726
7125.69170,-0.08320
7127.62016,0.02124
7129.54863,0.08199
7131.47710,0.13275
7133.40557,0.19953
7135.33404,0.17774
7137.26251,0.09912
7139.19098,0.09072
7141.11944,0.13745
7143.04791,0.17980
7144.97638,0.15451
7146.90485,0.04768
7148.83332,-0.01243
7150.76179,-0.06506
7152.69026,-0.15469
7154.61873,-0.16732
7156.54719,-0.12273
7158.47566,-0.10316
7160.40413,-0.12533
7162.33260,-0.17583
7164.26107,-0.15332
7166.18954,-0.01019
7168.11801,0.05538
7170.04647,-0.07108
7171.97494,-0.13989
7173.90341,-0.02074
7175.83188,0.07821
7177.76035,0.07304
7179.68882,0.04824
7181.61729,0.00027
7183.54576,-0.03372
7185.47422,0.03571
7187.40269,0.22684
7189.33116,0.49794
7191.25963,0.57930
7193.18810,0.32637
7195.11657,0.14741
7197.04504,0.18306
7198.97350,0.13425
7200.90197,-0.00088
7202.83044,-0.03130
7204.75891,0.00132
7206.68738,0.00940
7208.61585,0.04654
7210.54432,0.06145
7212.47279,0.02441
7214.40125,-0.02217
7216.32972,0.02267
7218.25819,0.17572
7220.18666,0.18962
7222.11513,0.09957
7224.04360,0.07283
7225.97207,0.13853
7227.90053,0.18829
7229.82900,0.09032
7231.75747,-0.04202
7233.68594,-0.06242
7235.61441,-0.05136
7237.54288,-0.01309
7239.47135,0.10602
7241.39982,0.25786
7243.32828,0.26881
7245.25675,0.09536
7247.18522,-0.01705
7249.11369,0.00115
7251.04216,-0.00672
7252.97063,-0.10874
7254.89910,-0.15125
7256.82756,-0.13561
7258.75603,-0.10409
7260.68450,-0.06128
7262.61297,-0.03089
7264.54144,0.01024
7266.46991,0.01506
7268.39838,0.03960
7270.32685,0.20663
7272.25531,0.36219
7274.18378,0.28250
7276.11225,0.16069
7278.04072,0.09498
7279.96919,-0.02322
7281.89766,-0.15228
7283.82613,-0.11738
7285.75459,0.04310
7287.68306,0.21804
7289.61153,0.35141
7291.54000,0.41743
7293.46847,0.43528
7295.39694,0.42827
7297.32541,0.41269
7299.25387,0.40334
7301.18234,0.32028
7303.11081,0.10559
7305.03928,-0.08218
7306.96775,-0.15539
7308.89622,-0.19938
7310.82469,-0.19685
7312.75316,-0.16661
7314.68162,-0.14605
7316.61009,-0.02797
7318.53856,0.15253
7320.46703,0.19474
7322.39550,0.15458
7324.32397,0.15239
7326.25244,0.15519
7328.18090,0.10870
7330.10937,0.03465
7332.03784,0.04277
7333.96631,0.11475
7335.89478,0.10783
7337.82325,-0.01354
7339.75172,-0.09031
7341.68019,0.05749
7343.60865,0.16363
7345.53712,0.10672
7347.46559,0.00627
7349.39406,-0.06571
7351.32253,-0.13986
7353.25100,-0.22936
7355.17947,-0.30836
7357.10793,-0.24275
7359.03640,0.02983
7360.96487,0.19036
7362.89334,0.16545
7364.82181,0.10893
7366.75028,0.03201
7368.67875,0.00854
7370.60722,0.07427
7372.53568,0.18615
7374.46415,0.35180
7376.39262,0.40604
7378.32109,0.29804
7380.24956,0.24343
7382.17803,0.32403
7384.10650,0.39115
7386.03496,0.27647
7387.96343,0.08623
7389.89190,0.00905
7391.82037,0.06859
7393.74884,0.20968
7395.67731,0.26719
7397.60578,0.17981
7399.53425,0.08609
7401.46271,0.01103
7403.39118,-0.04610
7405.31965,0.00648
7407.24812,0.09296
7409.17659,0.08394
7411.10506,0.02220
7413.03353,-0.00997
7414.96199,0.01051
7416.89046,0.11554
7418.81893,0.30131
7420.74740,0.35608
7422.67587,0.23164
7424.60434,0.16456
7426.53281,0.24648
7428.46128,0.39691
7430.38974,0.38000
7432.31821,0.15064
7434.24668,0.08268
7436.17515,0.21235
7438.10362,0.26364
7440.03209,0.13652
7441.96056,-0.14642
7443.88902,-0.39253
7445.81749,-0.37386
7447.74596,-0.17164
7449.67443,-0.01243
7451.60290,0.07280
7453.53137,0.16416
7455.45984,0.14336
7457.38831,0.06090
7459.31677,0.07036
7461.24524,0.10105
7463.17371,0.10393
7465.10218,0.20534
7467.03065,0.24880
7468.95912,0.14852
7470.88759,0.08987
7472.81605,0.08473
7474.74452,0.02932
7476.67299,0.01505
7478.60146,0.06580
7480.52993,0.06129
7482.45840,0.10332
7484.38687,0.22050
7486.31533,0.21940
7488.24380,0.05355
7490.17227,-0.10415
7492.10074,-0.10493
7494.02921,0.00316
7495.95768,0.15128
7497.88615,0.25828
