399.19301,0.79128
401.12148,2.11798
403.04995,1.45764
404.97842,0.46668
406.90689,0.01175
408.83536,-0.54702
410.76382,-0.98888
412.69229,-0.74436
414.62076,0.09696
416.54923,2.47708
418.47770,5.41615
420.40617,3.93407
422.33464,0.93335
424.26311,-0.03981
426.19157,0.11228
428.12004,0.07719
430.04851,0.02438
431.97698,0.20103
433.90545,0.14515
435.83392,-0.08329
437.76239,-0.19164
439.69085,-0.14680
441.61932,-0.04011
443.54779,0.05934
445.47626,0.15413
447.40473,0.24579
449.33320,0.21501
451.26167,0.04876
453.19013,-0.05830
455.11860,-0.01629
457.04707,0.04335
458.97554,0.01605
460.90401,0.04724
462.83248,0.17588
464.76095,0.29920
466.68942,0.33871
468.61788,0.31186
470.54635,0.36707
472.47482,0.86765
474.40329,1.42333
476.33176,0.90188
478.26023,0.33037
480.18870,0.14039
482.11716,0.08431
484.04563,0.07432
485.97410,0.10001
487.90257,0.08644
489.83104,0.04732
491.75951,0.05627
493.68798,0.08826
495.61645,0.07798
497.54491,0.05400
499.47338,0.06645
501.40185,0.09163
503.33032,0.10146
505.25879,0.11552
507.18726,0.13035
509.11573,0.11411
511.04419,0.09544
512.97266,0.10729
514.90113,0.10027
516.82960,0.03709
518.75807,-0.01778
520.68654,-0.01169
522.61501,0.03187
524.54348,0.08578
526.47194,0.13243
528.40041,0.15670
530.32888,0.14349
532.25735,0.11012
534.18582,0.10852
536.11429,0.11502
538.04276,0.09454
539.97122,0.08680
541.89969,0.09026
543.82816,0.09494
545.75663,0.12596
547.68510,0.16111
549.61357,0.15578
551.54204,0.12077
553.47051,0.09956
555.39897,0.10671
557.32744,0.10916
559.25591,0.08524
561.18438,0.07066
563.11285,0.09851
565.04132,0.14524
566.96979,0.15408
568.89825,0.12097
570.82672,0.09731
572.75519,0.09452
574.68366,0.10431
576.61213,0.12136
578.54060,0.12382
580.46907,0.11126
582.39754,0.10677
584.32600,0.10864
586.25447,0.11051
588.18294,0.12787
590.11141,0.14441
592.03988,0.13630
593.96835,0.12648
595.89682,0.12800
597.82528,0.12799
599.75375,0.12828
601.68222,0.13399
603.61069,0.14168
605.53916,0.15410
607.46763,0.16351
609.39610,0.14797
611.32456,0.11010
613.25303,0.08381
615.18150,0.08046
617.10997,0.07808
619.03844,0.07635
620.96691,0.09350
622.89538,0.11995
624.82385,0.13504
626.75231,0.13906
628.68078,0.15765
630.60925,0.27535
632.53772,0.43241
634.46619,0.39506
636.39466,0.24054
638.32313,0.16108
640.25159,0.12749
642.18006,0.10530
644.10853,0.10112
646.03700,0.11336
647.96547,0.13912
649.89394,0.15512
651.82241,0.14869
653.75088,0.12936
655.67934,0.11737
657.60781,0.11987
659.53628,0.12631
661.46475,0.13005
663.39322,0.12492
665.32169,0.10723
667.25016,0.09633
669.17862,0.11457
671.10709,0.13276
673.03556,0.14145
674.96403,0.13350
676.89250,0.11041
678.82097,0.09739
680.74944,0.11067
682.67791,0.13458
684.60637,0.13755
686.53484,0.12926
688.46331,0.13879
690.39178,0.14843
692.32025,0.13133
694.24872,0.11595
696.17719,0.12938
698.10565,0.14192
700.03412,0.14283
701.96259,0.15427
703.89106,0.16683
705.81953,0.16150
707.74800,0.15266
709.67647,0.16027
711.60494,0.17398
713.53340,0.17358
715.46187,0.15472
717.39034,0.13486
719.31881,0.12986
721.24728,0.13045
723.17575,0.13073
725.10422,0.13803
727.03268,0.14646
728.96115,0.14418
730.88962,0.14051
732.81809,0.14795
734.74656,0.15728
736.67503,0.16282
738.60350,0.16005
740.53197,0.14708
742.46043,0.13828
744.38890,0.13677
746.31737,0.13724
748.24584,0.13828
750.17431,0.14003
752.10278,0.14307
754.03125,0.14110
755.95971,0.13251
757.88818,0.12713
759.81665,0.13282
761.74512,0.14718
763.67359,0.15892
765.60206,0.16573
767.53053,0.17356
769.45900,0.17375
771.38746,0.16141
773.31593,0.15385
775.24440,0.15378
777.17287,0.14535
779.10134,0.14001
781.02981,0.15060
782.95828,0.15964
784.88674,0.16634
786.81521,0.17649
788.74368,0.16643
790.67215,0.14116
792.60062,0.13354
794.52909,0.13825
796.45756,0.14101
798.38602,0.14541
800.31449,0.14598
802.24296,0.14067
804.17143,0.13315
806.09990,0.12916
808.02837,0.12896
809.95684,0.12521
811.88531,0.12609
813.81377,0.13470
815.74224,0.13994
817.67071,0.13993
819.59918,0.13767
821.52765,0.13708
823.45612,0.14043
825.38459,0.13987
827.31305,0.13260
829.24152,0.13434
831.16999,0.15035
833.09846,0.15584
835.02693,0.13927
836.95540,0.12719
838.88387,0.13330
840.81234,0.14591
842.74080,0.15405
844.66927,0.15419
846.59774,0.15227
848.52621,0.15306
850.45468,0.15470
852.38315,0.15329
854.31162,0.15208
856.24008,0.16068
858.16855,0.17518
860.09702,0.17408
862.02549,0.15529
863.95396,0.14496
865.88243,0.15080
867.81090,0.16536
869.73937,0.17627
871.66783,0.16753
873.59630,0.15251
875.52477,0.14500
877.45324,0.13808
879.38171,0.13402
881.31018,0.13763
883.23865,0.14450
885.16711,0.14921
887.09558,0.15327
889.02405,0.15959
890.95252,0.16145
892.88099,0.15597
894.80946,0.15219
896.73793,0.15219
898.66640,0.14955
900.59486,0.14416
902.52333,0.14208
904.45180,0.14936
906.38027,0.16143
908.30874,0.16345
910.23721,0.15619
912.16568,0.15616
914.09414,0.16354
916.02261,0.16815
917.95108,0.16988
919.87955,0.17277
921.80802,0.17463
923.73649,0.16872
925.66496,0.16105
927.59343,0.15861
929.52189,0.15438
931.45036,0.14923
933.37883,0.14992
935.30730,0.15122
937.23577,0.14818
939.16424,0.15024
941.09271,0.16054
943.02117,0.16485
944.94964,0.15763
946.87811,0.14815
948.80658,0.14466
950.73505,0.14804
952.66352,0.15210
954.59199,0.15015
956.52045,0.14469
958.44892,0.14285
960.37739,0.14493
962.30586,0.14779
964.23433,0.15063
966.16280,0.15066
968.09127,0.15070
970.01974,0.15774
971.94820,0.16390
973.87667,0.16154
975.80514,0.15658
977.73361,0.15436
979.66208,0.15670
981.59055,0.16234
983.51902,0.16807
985.44748,0.16896
987.37595,0.16199
989.30442,0.15620
991.23289,0.16081
993.16136,0.16676
995.08983,0.16298
997.01830,0.15321
998.94677,0.14890
1000.87523,0.15642
1002.80370,0.16469
1004.73217,0.16436
1006.66064,0.16430
1008.58911,0.16806
1010.51758,0.17044
1012.44605,0.16836
1014.37451,0.16086
1016.30298,0.15246
1018.23145,0.15066
1020.15992,0.15756
1022.08839,0.16394
1024.01686,0.15887
1025.94533,0.14345
1027.87380,0.13096
1029.80226,0.13998
1031.73073,0.16464
1033.65920,0.17930
1035.58767,0.17958
1037.51614,0.17483
1039.44461,0.17030
1041.37308,0.16725
1043.30154,0.16104
1045.23001,0.15038
1047.15848,0.14617
1049.08695,0.15475
1051.01542,0.16408
1052.94389,0.16482
1054.87236,0.16101
1056.80083,0.16071
1058.72929,0.16676
1060.65776,0.17571
1062.58623,0.18596
1064.51470,0.19000
1066.44317,0.18478
1068.37164,0.18012
1070.30011,0.17316
1072.22857,0.16049
1074.15704,0.15528
1076.08551,0.16187
1078.01398,0.16315
1079.94245,0.15297
1081.87092,0.14817
1083.79939,0.15266
1085.72786,0.15835
1087.65632,0.16352
1089.58479,0.16361
1091.51326,0.15529
1093.44173,0.14886
1095.37020,0.15620
1097.29867,0.17391
1099.22714,0.18504
1101.15560,0.18003
1103.08407,0.17113
1105.01254,0.16717
1106.94101,0.16514
1108.86948,0.16594
1110.79795,0.16582
1112.72642,0.16361
1114.65489,0.16548
1116.58335,0.17226
1118.51182,0.18037
1120.44029,0.18524
1122.36876,0.18370
1124.29723,0.17942
1126.22570,0.17820
1128.15417,0.17516
1130.08263,0.16424
1132.01110,0.15320
1133.93957,0.15231
1135.86804,0.16004
1137.79651,0.16671
1139.72498,0.17203
1141.65345,0.18185
1143.58191,0.18828
1145.51038,0.18256
1147.43885,0.17486
1149.36732,0.17781
1151.29579,0.18469
1153.22426,0.18570
1155.15273,0.18494
1157.08120,0.18268
1159.00966,0.17693
1160.93813,0.17318
1162.86660,0.17392
1164.79507,0.17740
1166.72354,0.18010
1168.65201,0.18066
1170.58048,0.18039
1172.50894,0.17892
1174.43741,0.17593
1176.36588,0.17329
1178.29435,0.17282
1180.22282,0.17189
1182.15129,0.16809
1184.07976,0.16536
1186.00823,0.16771
1187.93669,0.17307
1189.86516,0.17514
1191.79363,0.17140
1193.72210,0.16832
1195.65057,0.16939
1197.57904,0.17108
1199.50751,0.17272
1201.43597,0.17540
1203.36444,0.17789
1205.29291,0.17774
1207.22138,0.17628
1209.14985,0.17709
1211.07832,0.17928
1213.00679,0.18078
1214.93526,0.18075
1216.86372,0.17824
1218.79219,0.17596
1220.72066,0.17500
1222.64913,0.17221
1224.57760,0.17111
1226.50607,0.17532
1228.43454,0.18022
1230.36300,0.18329
1232.29147,0.18506
1234.21994,0.18345
1236.14841,0.18002
1238.07688,0.17880
1240.00535,0.17706
1241.93382,0.17366
1243.86229,0.17259
1245.79075,0.17347
1247.71922,0.17354
1249.64769,0.17443
1251.57616,0.17827
1253.50463,0.18253
1255.43310,0.18536
1257.36157,0.18627
1259.29003,0.18451
1261.21850,0.18114
1263.14697,0.17726
1265.07544,0.17522
1267.00391,0.17767
1268.93238,0.18158
1270.86085,0.18353
1272.78932,0.18389
1274.71778,0.18136
1276.64625,0.17752
1278.57472,0.17710
1280.50319,0.17834
1282.43166,0.17743
1284.36013,0.17636
1286.28860,0.17716
1288.21706,0.17978
1290.14553,0.18311
1292.07400,0.18334
1294.00247,0.18064
1295.93094,0.17868
1297.85941,0.17773
1299.78788,0.17427
1301.71634,0.16532
1303.64481,0.15643
1305.57328,0.15691
1307.50175,0.16507
1309.43022,0.17353
1311.35869,0.18068
1313.28716,0.18598
1315.21563,0.18838
1317.14409,0.18816
1319.07256,0.18647
1321.00103,0.18474
1322.92950,0.18357
1324.85797,0.18261
1326.78644,0.18239
1328.71491,0.18403
1330.64337,0.18283
1332.57184,0.17844
1334.50031,0.17749
1336.42878,0.17959
1338.35725,0.18073
1340.28572,0.17782
1342.21419,0.16193
1344.14266,0.14043
1346.07112,0.14586
1347.99959,0.17311
1349.92806,0.18407
1351.85653,0.18292
1353.78500,0.18407
1355.71347,0.18325
1357.64194,0.18043
1359.57040,0.17846
1361.49887,0.18099
1363.42734,0.18764
1365.35581,0.18972
1367.28428,0.18667
1369.21275,0.18680
1371.14122,0.19177
1373.06969,0.19718
1374.99815,0.19793
1376.92662,0.19243
1378.85509,0.18706
1380.78356,0.18497
1382.71203,0.18776
1384.64050,0.19680
1386.56897,0.20539
1388.49743,0.20340
1390.42590,0.19657
1392.35437,0.19328
1394.28284,0.19253
1396.21131,0.19325
1398.13978,0.19607
1400.06825,0.19592
1401.99672,0.19018
1403.92518,0.18777
1405.85365,0.19074
1407.78212,0.19118
1409.71059,0.19134
1411.63906,0.19446
1413.56753,0.19801
1415.49600,0.20151
1417.42446,0.20336
1419.35293,0.19948
1421.28140,0.19472
1423.20987,0.19410
1425.13834,0.19538
1427.06681,0.19721
1428.99528,0.19910
1430.92375,0.19718
1432.85221,0.19350
1434.78068,0.19578
1436.70915,0.20112
1438.63762,0.19934
1440.56609,0.19474
1442.49456,0.19259
1444.42303,0.19569
1446.35149,0.20296
1448.27996,0.20606
1450.20843,0.20268
1452.13690,0.20135
1454.06537,0.20908
1455.99384,0.22696
1457.92231,0.23310
1459.85077,0.21641
1461.77924,0.20363
1463.70771,0.19821
1465.63618,0.19550
1467.56465,0.19525
1469.49312,0.20142
1471.42159,0.21353
1473.35006,0.22118
1475.27852,0.21634
1477.20699,0.20821
1479.13546,0.20266
1481.06393,0.20167
1482.99240,0.20253
1484.92087,0.20446
1486.84934,0.21240
1488.77780,0.22077
1490.70627,0.21365
1492.63474,0.20326
1494.56321,0.20376
1496.49168,0.20997
1498.42015,0.20851
1500.34862,0.20129
1502.27709,0.19821
1504.20555,0.20295
1506.13402,0.21855
1508.06249,0.22606
1509.99096,0.21656
1511.91943,0.21268
1513.84790,0.21693
1515.77637,0.22208
1517.70483,0.22164
1519.63330,0.22232
1521.56177,0.22610
1523.49024,0.22154
1525.41871,0.21438
1527.34718,0.20924
1529.27565,0.20653
1531.20412,0.21068
1533.13258,0.21909
1535.06105,0.22071
1536.98952,0.22208
1538.91799,0.23509
1540.84646,0.24945
1542.77493,0.24114
1544.70340,0.22204
1546.63186,0.20502
1548.56033,0.20041
1550.48880,0.20634
1552.41727,0.21270
1554.34574,0.21740
1556.27421,0.22799
1558.20268,0.24760
1560.13115,0.24051
1562.05961,0.22250
1563.98808,0.21509
1565.91655,0.21305
1567.84502,0.21702
1569.77349,0.21863
1571.70196,0.20876
1573.63043,0.20372
1575.55889,0.21018
1577.48736,0.21045
1579.41583,0.19832
1581.34430,0.18757
1583.27277,0.18324
1585.20124,0.18455
1587.12971,0.18694
1589.05818,0.18844
1590.98664,0.19031
1592.91511,0.19135
1594.84358,0.19048
1596.77205,0.18994
1598.70052,0.19101
1600.62899,0.19299
1602.55746,0.19437
1604.48592,0.19420
1606.41439,0.19436
1608.34286,0.19549
1610.27133,0.19631
1612.19980,0.19663
1614.12827,0.19936
1616.05674,0.20634
1617.98521,0.20530
1619.91367,0.19909
1621.84214,0.20292
1623.77061,0.21281
1625.69908,0.21482
1627.62755,0.20928
1629.55602,0.20332
1631.48449,0.20400
1633.41295,0.21309
1635.34142,0.22710
1637.26989,0.22727
1639.19836,0.21652
1641.12683,0.20995
1643.05530,0.21171
1644.98377,0.22380
1646.91223,0.23747
1648.84070,0.23644
1650.76917,0.23801
1652.69764,0.24820
1654.62611,0.23574
1656.55458,0.21825
1658.48305,0.21387
1660.41152,0.21768
1662.33998,0.22200
1664.26845,0.21910
1666.19692,0.21518
1668.12539,0.21905
1670.05386,0.22538
1671.98233,0.22483
1673.91080,0.22375
1675.83926,0.21931
1677.76773,0.21327
1679.69620,0.21589
1681.62467,0.22727
1683.55314,0.23939
1685.48161,0.23609
1687.41008,0.22616
1689.33855,0.21956
1691.26701,0.21537
1693.19548,0.21571
1695.12395,0.22161
1697.05242,0.22832
1698.98089,0.23120
1700.90936,0.22765
1702.83783,0.22123
1704.76629,0.21800
1706.69476,0.21335
1708.62323,0.20585
1710.55170,0.20240
1712.48017,0.20767
1714.40864,0.22257
1716.33711,0.24005
1718.26558,0.23524
1720.19404,0.21590
1722.12251,0.20700
1724.05098,0.20645
1725.97945,0.20528
1727.90792,0.20373
1729.83639,0.20528
1731.76486,0.21023
1733.69332,0.21582
1735.62179,0.21436
1737.55026,0.21232
1739.47873,0.21459
1741.40720,0.21667
1743.33567,0.21541
1745.26414,0.21516
1747.19261,0.21862
1749.12107,0.21994
1751.04954,0.21460
1752.97801,0.21008
1754.90648,0.21009
1756.83495,0.21110
1758.76342,0.21088
1760.69189,0.21086
1762.62035,0.20842
1764.54882,0.20300
1766.47729,0.20186
1768.40576,0.20943
1770.33423,0.22167
1772.26270,0.22570
1774.19117,0.21606
1776.11964,0.20731
1778.04810,0.20536
1779.97657,0.20799
1781.90504,0.20990
1783.83351,0.20667
1785.76198,0.20029
1787.69045,0.19768
1789.61892,0.20199
1791.54738,0.21024
1793.47585,0.21556
1795.40432,0.21559
1797.33279,0.21426
1799.26126,0.21463
1801.18973,0.21360
1803.11820,0.20714
1805.04666,0.20301
1806.97513,0.20526
1808.90360,0.20738
1810.83207,0.20613
1812.76054,0.20419
1814.68901,0.20299
1816.61748,0.20591
1818.54595,0.21289
1820.47441,0.21435
1822.40288,0.21126
1824.33135,0.21133
1826.25982,0.21094
1828.18829,0.20907
1830.11676,0.20862
1832.04523,0.20732
1833.97369,0.20585
1835.90216,0.20500
1837.83063,0.20313
1839.75910,0.20277
1841.68757,0.20814
1843.61604,0.21535
1845.54451,0.21478
1847.47298,0.20952
1849.40144,0.20642
1851.32991,0.20509
1853.25838,0.20302
1855.18685,0.20018
1857.11532,0.20056
1859.04379,0.20570
1860.97226,0.20995
1862.90072,0.20882
1864.82919,0.20706
1866.75766,0.21071
1868.68613,0.21572
1870.61460,0.21388
1872.54307,0.20796
1874.47154,0.20240
1876.40001,0.19873
1878.32847,0.19891
1880.25694,0.20295
1882.18541,0.20669
1884.11388,0.20672
1886.04235,0.20528
1887.97082,0.20677
1889.89929,0.20874
1891.82775,0.20730
1893.75622,0.20605
1895.68469,0.20625
1897.61316,0.20593
1899.54163,0.20494
1901.47010,0.20410
1903.39857,0.20342
1905.32704,0.20315
1907.25550,0.20401
1909.18397,0.20421
1911.11244,0.20327
1913.04091,0.20422
1914.96938,0.20702
1916.89785,0.20808
1918.82632,0.20571
1920.75478,0.20385
1922.68325,0.20492
1924.61172,0.20482
1926.54019,0.20131
1928.46866,0.19968
1930.39713,0.20220
1932.32560,0.20338
1934.25407,0.20197
1936.18253,0.20225
1938.11100,0.20434
1940.03947,0.20703
1941.96794,0.20903
1943.89641,0.20728
1945.82488,0.20398
1947.75335,0.20223
1949.68181,0.20177
1951.61028,0.20201
1953.53875,0.20257
1955.46722,0.20422
1957.39569,0.20578
1959.32416,0.20651
1961.25263,0.20805
1963.18110,0.20873
1965.10956,0.20667
1967.03803,0.20398
1968.96650,0.20348
1970.89497,0.20372
1972.82344,0.20321
1974.75191,0.20418
1976.68038,0.20489
1978.60884,0.20324
1980.53731,0.20271
1982.46578,0.20295
1984.39425,0.20228
1986.32272,0.20306
1988.25119,0.20499
1990.17966,0.20646
1992.10812,0.20706
1994.03659,0.20514
1995.96506,0.20159
1997.89353,0.20048
1999.82200,0.20208
2001.75047,0.20298
2003.67894,0.20343
2005.60741,0.20448
2007.53587,0.20535
2009.46434,0.20664
2011.39281,0.20779
2013.32128,0.20747
2015.24975,0.20697
2017.17822,0.20623
2019.10669,0.20376
2021.03515,0.20165
2022.96362,0.20226
2024.89209,0.20423
2026.82056,0.20460
2028.74903,0.20405
2030.67750,0.20531
2032.60597,0.20732
2034.53444,0.20740
2036.46290,0.20580
2038.39137,0.20536
2040.31984,0.20595
2042.24831,0.20534
2044.17678,0.20448
2046.10525,0.20477
2048.03372,0.20549
2049.96218,0.20510
2051.89065,0.20347
2053.81912,0.20221
2055.74759,0.20232
2057.67606,0.20318
2059.60453,0.20333
2061.53300,0.20298
2063.46147,0.20343
2065.38993,0.20381
2067.31840,0.20306
2069.24687,0.20218
2071.17534,0.20273
2073.10381,0.20439
2075.03228,0.20502
2076.96075,0.20380
2078.88921,0.20237
2080.81768,0.20300
2082.74615,0.20431
2084.67462,0.20377
2086.60309,0.20364
2088.53156,0.20577
2090.46003,0.20702
2092.38850,0.20619
2094.31696,0.20610
2096.24543,0.20651
2098.17390,0.20625
2100.10237,0.20458
2102.03084,0.20188
2103.95931,0.20290
2105.88778,0.20618
2107.81624,0.20562
2109.74471,0.20288
2111.67318,0.20304
2113.60165,0.20642
2115.53012,0.20867
2117.45859,0.20628
2119.38706,0.20196
2121.31553,0.20176
2123.24399,0.20476
2125.17246,0.20542
2127.10093,0.20281
2129.02940,0.19982
2130.95787,0.19914
2132.88634,0.19850
2134.81481,0.19448
2136.74327,0.19226
2138.67174,0.19769
2140.60021,0.20415
2142.52868,0.20563
2144.45715,0.20689
2146.38562,0.20894
2148.31409,0.20823
2150.24255,0.20589
2152.17102,0.20353
2154.09949,0.20162
2156.02796,0.20176
2157.95643,0.20290
2159.88490,0.20358
2161.81337,0.20568
2163.74184,0.20893
2165.67030,0.21057
2167.59877,0.20950
2169.52724,0.20653
2171.45571,0.20471
2173.38418,0.20502
2175.31265,0.20450
2177.24112,0.20310
2179.16958,0.20218
2181.09805,0.20122
2183.02652,0.20128
2184.95499,0.20318
2186.88346,0.20628
2188.81193,0.20884
2190.74040,0.20882
2192.66887,0.20775
2194.59733,0.20825
2196.52580,0.20930
2198.45427,0.20831
2200.38274,0.20645
2202.31121,0.20674
2204.23968,0.20776
2206.16815,0.20650
2208.09661,0.20398
2210.02508,0.20417
2211.95355,0.20713
2213.88202,0.20747
2215.81049,0.20357
2217.73896,0.20010
2219.66743,0.19974
2221.59590,0.20080
2223.52436,0.20188
2225.45283,0.20393
2227.38130,0.20680
2229.30977,0.20827
2231.23824,0.20715
2233.16671,0.20463
2235.09518,0.20330
2237.02364,0.20389
2238.95211,0.20431
2240.88058,0.20285
2242.80905,0.20068
2244.73752,0.20080
2246.66599,0.20320
2248.59446,0.20547
2250.52293,0.20686
2252.45139,0.20561
2254.37986,0.20199
2256.30833,0.20110
2258.23680,0.20373
2260.16527,0.20465
2262.09374,0.20208
2264.02221,0.20160
2265.95067,0.20584
2267.87914,0.20952
2269.80761,0.21036
2271.73608,0.21031
2273.66455,0.20871
2275.59302,0.20535
2277.52149,0.20423
2279.44996,0.20599
2281.37842,0.20581
2283.30689,0.20412
2285.23536,0.20409
2287.16383,0.20413
2289.09230,0.20329
2291.02077,0.20310
2292.94924,0.20303
2294.87770,0.20267
2296.80617,0.20351
2298.73464,0.20495
2300.66311,0.20540
2302.59158,0.20571
2304.52005,0.20709
2306.44852,0.20826
2308.37699,0.20934
2310.30545,0.21264
2312.23392,0.21456
2314.16239,0.21180
2316.09086,0.20864
2318.01933,0.20648
2319.94780,0.20385
2321.87627,0.20172
2323.80473,0.20034
2325.73320,0.20214
2327.66167,0.20896
2329.59014,0.21452
2331.51861,0.21572
2333.44708,0.21639
2335.37555,0.21590
2337.30401,0.21254
2339.23248,0.20866
2341.16095,0.20683
2343.08942,0.20300
2345.01789,0.19834
2346.94636,0.20129
2348.87483,0.20687
2350.80330,0.20934
2352.73176,0.21227
2354.66023,0.22263
2356.58870,0.23144
2358.51717,0.22863
2360.44564,0.22433
2362.37411,0.22138
2364.30258,0.21539
2366.23104,0.20671
2368.15951,0.20196
2370.08798,0.20391
2372.01645,0.20562
2373.94492,0.20384
2375.87339,0.20259
2377.80186,0.20401
2379.73033,0.20514
2381.65879,0.20544
2383.58726,0.20658
2385.51573,0.20756
2387.44420,0.20657
2389.37267,0.20451
2391.30114,0.20403
2393.22961,0.20481
2395.15807,0.20437
2397.08654,0.20296
2399.01501,0.20257
2400.94348,0.20358
2402.87195,0.20646
2404.80042,0.21069
2406.72889,0.21264
2408.65736,0.21123
2410.58582,0.20918
2412.51429,0.20733
2414.44276,0.20503
2416.37123,0.20353
2418.29970,0.20315
2420.22817,0.20228
2422.15664,0.20277
2424.08510,0.20509
2426.01357,0.20526
2427.94204,0.20528
2429.87051,0.20862
2431.79898,0.21050
2433.72745,0.20709
2435.65592,0.20299
2437.58439,0.20342
2439.51285,0.20612
2441.44132,0.20699
2443.36979,0.20649
2445.29826,0.20625
2447.22673,0.20452
2449.15520,0.20028
2451.08367,0.20010
2453.01213,0.20395
2454.94060,0.20381
2456.86907,0.20335
2458.79754,0.20739
2460.72601,0.21183
2462.65448,0.21328
2464.58295,0.21180
2466.51142,0.21109
2468.43988,0.21194
2470.36835,0.21175
2472.29682,0.21137
2474.22529,0.21004
2476.15376,0.20717
2478.08223,0.20575
2480.01070,0.20624
2481.93916,0.20752
2483.86763,0.20791
2485.79610,0.20666
2487.72457,0.20656
2489.65304,0.20789
2491.58151,0.20729
2493.50998,0.20569
2495.43844,0.20658
2497.36691,0.20874
2499.29538,0.20931
2501.22385,0.20747
2503.15232,0.20559
2505.08079,0.20606
2507.00926,0.20621
2508.93773,0.20501
2510.86619,0.20438
2512.79466,0.20424
2514.72313,0.20355
2516.65160,0.20238
2518.58007,0.20274
2520.50854,0.20532
2522.43701,0.20772
2524.36547,0.20876
2526.29394,0.20891
2528.22241,0.20814
2530.15088,0.20830
2532.07935,0.21055
2534.00782,0.21156
2535.93629,0.20922
2537.86476,0.20668
2539.79322,0.20753
2541.72169,0.21060
2543.65016,0.21217
2545.57863,0.21181
2547.50710,0.21182
2549.43557,0.21221
2551.36404,0.21081
2553.29250,0.20882
2555.22097,0.20914
2557.14944,0.20961
2559.07791,0.20748
2561.00638,0.20399
2562.93485,0.20158
2564.86332,0.20358
2566.79179,0.20755
2568.72025,0.20777
2570.64872,0.20721
2572.57719,0.20952
2574.50566,0.21145
2576.43413,0.20988
2578.36260,0.20715
2580.29107,0.20755
2582.21953,0.21004
2584.14800,0.20971
2586.07647,0.20633
2588.00494,0.20460
2589.93341,0.20659
2591.86188,0.20970
2593.79035,0.21139
2595.71882,0.21186
2597.64728,0.21105
2599.57575,0.20950
2601.50422,0.20952
2603.43269,0.21010
2605.36116,0.21009
2607.28963,0.21116
2609.21810,0.21189
2611.14656,0.21088
2613.07503,0.21189
2615.00350,0.21527
2616.93197,0.21657
2618.86044,0.21548
2620.78891,0.21437
2622.71738,0.21324
2624.64585,0.21255
2626.57431,0.21421
2628.50278,0.21538
2630.43125,0.21275
2632.35972,0.21097
2634.28819,0.21304
2636.21666,0.21434
2638.14513,0.21286
2640.07359,0.21067
2642.00206,0.20870
2643.93053,0.20916
2645.85900,0.21307
2647.78747,0.21748
2649.71594,0.21881
2651.64441,0.21550
2653.57288,0.21192
2655.50134,0.21167
2657.42981,0.21183
2659.35828,0.21213
2661.28675,0.21371
2663.21522,0.21417
2665.14369,0.21350
2667.07216,0.21260
2669.00062,0.21206
2670.92909,0.21363
2672.85756,0.21518
2674.78603,0.21483
2676.71450,0.21466
2678.64297,0.21517
2680.57144,0.21543
2682.49990,0.21604
2684.42837,0.21670
2686.35684,0.21644
2688.28531,0.21621
2690.21378,0.21638
2692.14225,0.21642
2694.07072,0.21502
2695.99919,0.21277
2697.92765,0.21378
2699.85612,0.21728
2701.78459,0.21858
2703.71306,0.21674
2705.64153,0.21457
2707.57000,0.21570
2709.49847,0.21860
2711.42693,0.21900
2713.35540,0.21802
2715.28387,0.21741
2717.21234,0.21595
2719.14081,0.21414
2721.06928,0.21326
2722.99775,0.21516
2724.92622,0.21976
2726.85468,0.22319
2728.78315,0.22378
2730.71162,0.22114
2732.64009,0.21654
2734.56856,0.21317
2736.49703,0.21154
2738.42550,0.21218
2740.35396,0.21349
2742.28243,0.21334
2744.21090,0.21463
2746.13937,0.21771
2748.06784,0.22082
2749.99631,0.22316
2751.92478,0.22246
2753.85325,0.22094
2755.78171,0.22127
2757.71018,0.22107
2759.63865,0.21958
2761.56712,0.21831
2763.49559,0.21824
2765.42406,0.21834
2767.35253,0.21757
2769.28099,0.21747
2771.20946,0.21984
2773.13793,0.22145
2775.06640,0.21890
2776.99487,0.21751
2778.92334,0.21970
2780.85181,0.22142
2782.78028,0.22201
2784.70874,0.22268
2786.63721,0.22441
2788.56568,0.22576
2790.49415,0.22566
2792.42262,0.22588
2794.35109,0.22791
2796.27956,0.23245
2798.20802,0.23497
2800.13649,0.23102
2802.06496,0.22482
2803.99343,0.22174
2805.92190,0.22116
2807.85037,0.22162
2809.77884,0.22483
2811.70731,0.22897
2813.63577,0.22886
2815.56424,0.22559
2817.49271,0.22419
2819.42118,0.22592
2821.34965,0.22884
2823.27812,0.23112
2825.20659,0.23144
2827.13505,0.22913
2829.06352,0.22648
2830.99199,0.22596
2832.92046,0.22565
2834.84893,0.22433
2836.77740,0.22366
2838.70587,0.22286
2840.63433,0.22102
2842.56280,0.21971
2844.49127,0.21954
2846.41974,0.22157
2848.34821,0.22494
2850.27668,0.22573
2852.20515,0.22455
2854.13362,0.22409
2856.06208,0.22455
2857.99055,0.22591
2859.91902,0.22818
2861.84749,0.22898
2863.77596,0.22751
2865.70443,0.22885
2867.63290,0.23181
2869.56136,0.22885
2871.48983,0.22153
2873.41830,0.21588
2875.34677,0.21620
2877.27524,0.22279
2879.20371,0.22716
2881.13218,0.22616
2883.06065,0.22529
2884.98911,0.22446
2886.91758,0.22220
2888.84605,0.22006
2890.77452,0.21859
2892.70299,0.21879
2894.63146,0.22109
2896.55993,0.22212
2898.48839,0.22111
2900.41686,0.22389
2902.34533,0.22960
2904.27380,0.23014
2906.20227,0.22513
2908.13074,0.22072
2910.05921,0.22093
2911.98768,0.22305
2913.91614,0.22167
2915.84461,0.21783
2917.77308,0.21633
2919.70155,0.21783
2921.63002,0.21990
2923.55849,0.22292
2925.48696,0.22737
2927.41542,0.22935
2929.34389,0.22813
2931.27236,0.22724
2933.20083,0.22638
2935.12930,0.22379
2937.05777,0.22215
2938.98624,0.22394
2940.91471,0.22524
2942.84317,0.22280
2944.77164,0.21908
2946.70011,0.21621
2948.62858,0.21588
2950.55705,0.21823
2952.48552,0.22173
2954.41399,0.22526
2956.34245,0.22458
2958.27092,0.22180
2960.19939,0.22553
2962.12786,0.23384
2964.05633,0.23804
2965.98480,0.23512
2967.91327,0.22903
2969.84174,0.22587
2971.77020,0.22585
2973.69867,0.22589
2975.62714,0.22549
2977.55561,0.22449
2979.48408,0.22647
2981.41255,0.23134
2983.34102,0.23236
2985.26948,0.23136
2987.19795,0.22984
2989.12642,0.22606
2991.05489,0.22537
2992.98336,0.22971
2994.91183,0.23445
2996.84030,0.23500
2998.76877,0.23270
3000.69723,0.23290
3002.62570,0.23430
3004.55417,0.23344
3006.48264,0.23233
3008.41111,0.22898
3010.33958,0.21844
3012.26805,0.20389
3014.19651,0.18794
3016.12498,0.17537
3018.05345,0.18184
3019.98192,0.20669
3021.91039,0.22705
3023.83886,0.23160
3025.76733,0.22692
3027.69579,0.22298
3029.62426,0.22471
3031.55273,0.22659
3033.48120,0.22473
3035.40967,0.22400
3037.33814,0.22665
3039.26661,0.23224
3041.19508,0.23695
3043.12354,0.23668
3045.05201,0.23518
3046.98048,0.23488
3048.90895,0.23467
3050.83742,0.23781
3052.76589,0.24368
3054.69436,0.24056
3056.62282,0.22822
3058.55129,0.22498
3060.47976,0.23300
3062.40823,0.23757
3064.33670,0.23281
3066.26517,0.22479
3068.19364,0.22283
3070.12211,0.22600
3072.05057,0.22706
3073.97904,0.22206
3075.90751,0.21410
3077.83598,0.21326
3079.76445,0.22125
3081.69292,0.22898
3083.62139,0.22526
3085.54985,0.21366
3087.47832,0.21301
3089.40679,0.22260
3091.33526,0.22642
3093.26373,0.22117
3095.19220,0.21670
3097.12067,0.22187
3099.04914,0.22990
3100.97760,0.22855
3102.90607,0.22088
3104.83454,0.22119
3106.76301,0.22790
3108.69148,0.22787
3110.61995,0.22278
3112.54842,0.22053
3114.47688,0.22304
3116.40535,0.22959
3118.33382,0.23465
3120.26229,0.23196
3122.19076,0.22623
3124.11923,0.22736
3126.04770,0.23474
3127.97617,0.24022
3129.90463,0.24065
3131.83310,0.24090
3133.76157,0.24209
3135.69004,0.23890
3137.61851,0.23241
3139.54698,0.22848
3141.47545,0.22859
3143.40391,0.23139
3145.33238,0.23387
3147.26085,0.23270
3149.18932,0.22952
3151.11779,0.22734
3153.04626,0.22690
3154.97473,0.22859
3156.90320,0.23203
3158.83166,0.23469
3160.76013,0.23501
3162.68860,0.23599
3164.61707,0.23871
3166.54554,0.24061
3168.47401,0.23772
3170.40248,0.22959
3172.33094,0.22706
3174.25941,0.23368
3176.18788,0.23839
3178.11635,0.23991
3180.04482,0.24191
3181.97329,0.23929
3183.90176,0.23290
3185.83022,0.22819
3187.75869,0.22581
3189.68716,0.22715
3191.61563,0.23121
3193.54410,0.23524
3195.47257,0.23803
3197.40104,0.23707
3199.32951,0.23248
3201.25797,0.22660
3203.18644,0.22357
3205.11491,0.22472
3207.04338,0.22612
3208.97185,0.22883
3210.90032,0.23368
3212.82879,0.23834
3214.75725,0.24235
3216.68572,0.24331
3218.61419,0.23976
3220.54266,0.23658
3222.47113,0.23927
3224.39960,0.24384
3226.32807,0.24443
3228.25654,0.23949
3230.18500,0.23030
3232.11347,0.22491
3234.04194,0.22845
3235.97041,0.23597
3237.89888,0.23977
3239.82735,0.23941
3241.75582,0.23794
3243.68428,0.23446
3245.61275,0.23211
3247.54122,0.23305
3249.46969,0.23155
3251.39816,0.22743
3253.32663,0.22661
3255.25510,0.23046
3257.18357,0.23568
3259.11203,0.23569
3261.04050,0.22968
3262.96897,0.22755
3264.89744,0.23359
3266.82591,0.24190
3268.75438,0.24687
3270.68285,0.24631
3272.61131,0.24251
3274.53978,0.23991
3276.46825,0.23709
3278.39672,0.23282
3280.32519,0.23069
3282.25366,0.23064
3284.18213,0.23075
3286.11060,0.23128
3288.03906,0.23196
3289.96753,0.23157
3291.89600,0.22964
3293.82447,0.22662
3295.75294,0.22566
3297.68141,0.22881
3299.60988,0.23266
3301.53834,0.23397
3303.46681,0.23233
3305.39528,0.23021
3307.32375,0.23038
3309.25222,0.23195
3311.18069,0.23124
3313.10916,0.22873
3315.03763,0.22877
3316.96609,0.23001
3318.89456,0.23090
3320.82303,0.23165
3322.75150,0.23063
3324.67997,0.23011
3326.60844,0.23244
3328.53691,0.23385
3330.46537,0.23301
3332.39384,0.23320
3334.32231,0.23362
3336.25078,0.23289
3338.17925,0.23152
3340.10772,0.23091
3342.03619,0.23003
3343.96466,0.22717
3345.89312,0.22624
3347.82159,0.22885
3349.75006,0.23304
3351.67853,0.23617
3353.60700,0.23633
3355.53547,0.23444
3357.46394,0.23263
3359.39240,0.23349
3361.32087,0.23574
3363.24934,0.23869
3365.17781,0.24332
3367.10628,0.24481
3369.03475,0.24145
3370.96322,0.23902
3372.89168,0.23893
3374.82015,0.23835
3376.74862,0.23773
3378.67709,0.23701
3380.60556,0.23448
3382.53403,0.23247
3384.46250,0.23356
3386.39097,0.23460
3388.31943,0.23394
3390.24790,0.23392
3392.17637,0.23502
3394.10484,0.23713
3396.03331,0.23963
3397.96178,0.23921
3399.89025,0.23434
3401.81871,0.23121
3403.74718,0.23491
3405.67565,0.23811
3407.60412,0.23593
3409.53259,0.23218
3411.46106,0.22545
3413.38953,0.22037
3415.31800,0.22545
3417.24646,0.23521
3419.17493,0.24306
3421.10340,0.24534
3423.03187,0.23783
3424.96034,0.22615
3426.88881,0.22065
3428.81728,0.22338
3430.74574,0.22831
3432.67421,0.23021
3434.60268,0.22623
3436.53115,0.21898
3438.45962,0.21695
3440.38809,0.22320
3442.31656,0.22992
3444.24503,0.23166
3446.17349,0.23390
3448.10196,0.23523
3450.03043,0.22890
3451.95890,0.22032
3453.88737,0.21461
3455.81584,0.21186
3457.74431,0.21147
3459.67277,0.21267
3461.60124,0.21720
3463.52971,0.22105
3465.45818,0.22122
3467.38665,0.22325
3469.31512,0.22508
3471.24359,0.22172
3473.17206,0.21663
3475.10052,0.21468
3477.02899,0.21597
3478.95746,0.21691
3480.88593,0.21520
3482.81440,0.21134
3484.74287,0.20753
3486.67134,0.20614
3488.59980,0.20541
3490.52827,0.20300
3492.45674,0.20307
3494.38521,0.20608
3496.31368,0.20494
3498.24215,0.19990
3500.17062,0.20006
3502.09909,0.20888
3504.02755,0.21792
3505.95602,0.21710
3507.88449,0.20741
3509.81296,0.19767
3511.74143,0.19516
3513.66990,0.19793
3515.59837,0.20221
3517.52683,0.20417
3519.45530,0.20052
3521.38377,0.19679
3523.31224,0.19841
3525.24071,0.20252
3527.16918,0.20470
3529.09765,0.20179
3531.02611,0.19717
3532.95458,0.19434
3534.88305,0.19250
3536.81152,0.19332
3538.73999,0.19249
3540.66846,0.18680
3542.59693,0.18562
3544.52540,0.19111
3546.45386,0.19174
3548.38233,0.18485
3550.31080,0.17807
3552.23927,0.17561
3554.16774,0.17905
3556.09621,0.18410
3558.02468,0.18467
3559.95314,0.18059
3561.88161,0.17743
3563.81008,0.18322
3565.73855,0.19800
3567.66702,0.20236
3569.59549,0.19011
3571.52396,0.18320
3573.45243,0.18530
3575.38089,0.18662
3577.30936,0.18423
3579.23783,0.18120
3581.16630,0.17767
3583.09477,0.17781
3585.02324,0.18432
3586.95171,0.19040
3588.88017,0.18881
3590.80864,0.18133
3592.73711,0.17279
3594.66558,0.16973
3596.59405,0.17328
3598.52252,0.17635
3600.45099,0.17495
3602.37946,0.17245
3604.30792,0.17558
3606.23639,0.18035
3608.16486,0.17588
3610.09333,0.16902
3612.02180,0.17189
3613.95027,0.17823
3615.87874,0.18234
3617.80720,0.18457
3619.73567,0.17777
3621.66414,0.16318
3623.59261,0.15660
3625.52108,0.16283
3627.44955,0.17530
3629.37802,0.17904
3631.30649,0.17242
3633.23495,0.16619
3635.16342,0.15881
3637.09189,0.15315
3639.02036,0.15277
3640.94883,0.15276
3642.87730,0.15008
3644.80577,0.14996
3646.73423,0.15657
3648.66270,0.16913
3650.59117,0.17466
3652.51964,0.16931
3654.44811,0.16355
3656.37658,0.15824
3658.30505,0.15381
3660.23352,0.15172
3662.16198,0.14988
3664.09045,0.14800
3666.01892,0.14823
3667.94739,0.15427
3669.87586,0.16384
3671.80433,0.16595
3673.73280,0.16554
3675.66126,0.16366
3677.58973,0.15609
3679.51820,0.14905
3681.44667,0.14434
3683.37514,0.14286
3685.30361,0.14293
3687.23208,0.14418
3689.16055,0.14821
3691.08901,0.14778
3693.01748,0.14644
3694.94595,0.14830
3696.87442,0.14598
3698.80289,0.14265
3700.73136,0.14575
3702.65983,0.14787
3704.58829,0.14362
3706.51676,0.14051
3708.44523,0.14448
3710.37370,0.15438
3712.30217,0.15382
3714.23064,0.14531
3716.15911,0.14921
3718.08757,0.16282
3720.01604,0.17088
3721.94451,0.16829
3723.87298,0.16380
3725.80145,0.16138
3727.72992,0.15716
3729.65839,0.15374
3731.58686,0.15386
3733.51532,0.15219
3735.44379,0.14785
3737.37226,0.14733
3739.30073,0.14992
3741.22920,0.15405
3743.15767,0.15744
3745.08614,0.15956
3747.01460,0.16643
3748.94307,0.17842
3750.87154,0.18478
3752.80001,0.17445
3754.72848,0.16432
3756.65695,0.16117
3758.58542,0.16056
3760.51389,0.15918
3762.44235,0.15852
3764.37082,0.15826
3766.29929,0.15686
3768.22776,0.15455
3770.15623,0.14727
3772.08470,0.13823
3774.01317,0.13658
3775.94163,0.14015
3777.87010,0.14383
3779.79857,0.14198
3781.72704,0.13676
3783.65551,0.13785
3785.58398,0.14229
3787.51245,0.14073
3789.44092,0.13618
3791.36938,0.13571
3793.29785,0.13806
3795.22632,0.14114
3797.15479,0.14719
3799.08326,0.15364
3801.01173,0.15446
3802.94020,0.14876
3804.86866,0.14531
3806.79713,0.14338
3808.72560,0.13971
3810.65407,0.13761
3812.58254,0.13736
3814.51101,0.13970
3816.43948,0.14562
3818.36795,0.15101
3820.29641,0.15538
3822.22488,0.15299
3824.15335,0.14570
3826.08182,0.14296
3828.01029,0.14439
3829.93876,0.14848
3831.86723,0.15340
3833.79569,0.15414
3835.72416,0.15099
3837.65263,0.14518
3839.58110,0.13898
3841.50957,0.13832
3843.43804,0.14048
3845.36651,0.14138
3847.29498,0.14170
3849.22344,0.14338
3851.15191,0.14719
3853.08038,0.15320
3855.00885,0.14951
3856.93732,0.13823
3858.86579,0.13295
3860.79426,0.13457
3862.72272,0.13983
3864.65119,0.14604
3866.57966,0.14885
3868.50813,0.14902
3870.43660,0.14675
3872.36507,0.14507
3874.29354,0.14460
3876.22200,0.14035
3878.15047,0.13655
3880.07894,0.13240
3882.00741,0.12537
3883.93588,0.12512
3885.86435,0.13233
3887.79282,0.13721
3889.72129,0.13713
3891.64975,0.13354
3893.57822,0.12865
3895.50669,0.12594
3897.43516,0.12944
3899.36363,0.14041
3901.29210,0.14692
3903.22057,0.14231
3905.14903,0.13439
3907.07750,0.12812
3909.00597,0.12312
3910.93444,0.11900
3912.86291,0.12208
3914.79138,0.13215
3916.71985,0.13459
3918.64832,0.12704
3920.57678,0.12322
3922.50525,0.12365
3924.43372,0.12297
3926.36219,0.11991
3928.29066,0.11660
3930.21913,0.11871
3932.14760,0.12477
3934.07606,0.12740
3936.00453,0.12850
3937.93300,0.13008
3939.86147,0.13194
3941.78994,0.13436
3943.71841,0.13369
3945.64688,0.12769
3947.57535,0.12169
3949.50381,0.12091
3951.43228,0.11999
3953.36075,0.11455
3955.28922,0.11014
3957.21769,0.11099
3959.14616,0.11522
3961.07463,0.11777
3963.00309,0.11684
3964.93156,0.11732
3966.86003,0.12141
3968.78850,0.12516
3970.71697,0.12613
3972.64544,0.12404
3974.57391,0.12045
3976.50238,0.11779
3978.43084,0.11722
3980.35931,0.11986
3982.28778,0.12242
3984.21625,0.12090
3986.14472,0.11796
3988.07319,0.11822
3990.00166,0.12120
3991.93012,0.11986
3993.85859,0.11404
3995.78706,0.11140
3997.71553,0.11334
3999.64400,0.11610
4001.57247,0.11669
4003.50094,0.11621
4005.42941,0.11589
4007.35787,0.11408
4009.28634,0.11133
4011.21481,0.10917
4013.14328,0.10919
4015.07175,0.11080
4017.00022,0.11175
4018.92869,0.11505
4020.85715,0.12001
4022.78562,0.11815
4024.71409,0.11190
4026.64256,0.10891
4028.57103,0.10533
4030.49950,0.10306
4032.42797,0.10980
4034.35644,0.11587
4036.28490,0.11220
4038.21337,0.10712
4040.14184,0.10585
4042.07031,0.10669
4043.99878,0.10850
4045.92725,0.11060
4047.85572,0.11414
4049.78418,0.11726
4051.71265,0.11715
4053.64112,0.11509
4055.56959,0.11352
4057.49806,0.11476
4059.42653,0.11769
4061.35500,0.11785
4063.28346,0.11363
4065.21193,0.10714
4067.14040,0.10199
4069.06887,0.09907
4070.99734,0.09890
4072.92581,0.10388
4074.85428,0.10999
4076.78275,0.11095
4078.71121,0.10770
4080.63968,0.10628
4082.56815,0.10726
4084.49662,0.10565
4086.42509,0.10369
4088.35356,0.10268
4090.28203,0.09856
4092.21049,0.09472
4094.13896,0.09830
4096.06743,0.10743
4097.99590,0.11261
4099.92437,0.11189
4101.85284,0.11068
4103.78131,0.11072
4105.70978,0.10895
4107.63824,0.10614
4109.56671,0.10625
4111.49518,0.10454
4113.42365,0.09877
4115.35212,0.09416
4117.28059,0.09196
4119.20906,0.09291
4121.13752,0.09534
4123.06599,0.09688
4124.99446,0.10059
4126.92293,0.10461
4128.85140,0.10207
4130.77987,0.09690
4132.70834,0.09643
4134.63681,0.09491
4136.56527,0.09074
4138.49374,0.09256
4140.42221,0.09720
4142.35068,0.09500
4144.27915,0.08736
4146.20762,0.08416
4148.13609,0.08923
4150.06455,0.09421
4151.99302,0.09266
4153.92149,0.08883
4155.84996,0.08957
4157.77843,0.09338
4159.70690,0.09250
4161.63537,0.08952
4163.56384,0.09218
4165.49230,0.09692
4167.42077,0.09786
4169.34924,0.09234
4171.27771,0.08349
4173.20618,0.08002
4175.13465,0.08136
4177.06312,0.08432
4178.99158,0.09064
4180.92005,0.09646
4182.84852,0.09755
4184.77699,0.09403
4186.70546,0.08481
4188.63393,0.07550
4190.56240,0.08061
4192.49087,0.09546
4194.41933,0.10000
4196.34780,0.09820
4198.27627,0.09805
4200.20474,0.09487
4202.13321,0.09109
4204.06168,0.08535
4205.99015,0.07889
4207.91861,0.08019
4209.84708,0.08482
4211.77555,0.08396
4213.70402,0.08030
4215.63249,0.08132
4217.56096,0.08413
4219.48943,0.08383
4221.41789,0.08462
4223.34636,0.08701
4225.27483,0.08639
4227.20330,0.08500
4229.13177,0.08602
4231.06024,0.08639
4232.98871,0.08568
4234.91718,0.08518
4236.84564,0.08319
4238.77411,0.08138
4240.70258,0.08205
4242.63105,0.08335
4244.55952,0.08227
4246.48799,0.07802
4248.41646,0.07586
4250.34492,0.07668
4252.27339,0.07403
4254.20186,0.07086
4256.13033,0.07203
4258.05880,0.07372
4259.98727,0.07375
4261.91574,0.07409
4263.84421,0.07682
4265.77267,0.08223
4267.70114,0.08286
4269.62961,0.07669
4271.55808,0.07568
4273.48655,0.07616
4275.41502,0.06747
4277.34349,0.05816
4279.27195,0.05524
4281.20042,0.05620
4283.12889,0.05778
4285.05736,0.06001
4286.98583,0.06615
4288.91430,0.07181
4290.84277,0.07013
4292.77124,0.06631
4294.69970,0.06744
4296.62817,0.06959
4298.55664,0.06865
4300.48511,0.06747
4302.41358,0.06791
4304.34205,0.06794
4306.27052,0.06746
4308.19898,0.06590
4310.12745,0.06177
4312.05592,0.05956
4313.98439,0.06325
4315.91286,0.06854
4317.84133,0.06487
4319.76980,0.05213
4321.69827,0.04676
4323.62673,0.05196
4325.55520,0.05462
4327.48367,0.05367
4329.41214,0.05626
4331.34061,0.05875
4333.26908,0.05447
4335.19755,0.05015
4337.12601,0.05298
4339.05448,0.05473
4340.98295,0.05117
4342.91142,0.04698
4344.83989,0.04126
4346.76836,0.03766
4348.69683,0.04531
4350.62530,0.05607
4352.55376,0.05397
4354.48223,0.04599
4356.41070,0.04596
4358.33917,0.04995
4360.26764,0.05275
4362.19611,0.05533
4364.12458,0.05622
4366.05304,0.05379
4367.98151,0.04797
4369.90998,0.03973
4371.83845,0.03457
4373.76692,0.03548
4375.69539,0.04037
4377.62386,0.04990
4379.55232,0.06104
4381.48079,0.06492
4383.40926,0.06162
4385.33773,0.05830
4387.26620,0.05380
4389.19467,0.04835
4391.12314,0.04671
4393.05161,0.04660
4394.98007,0.04757
4396.90854,0.05112
4398.83701,0.05142
4400.76548,0.04285
4402.69395,0.03101
4404.62242,0.02496
4406.55089,0.02718
4408.47935,0.03625
4410.40782,0.04378
4412.33629,0.04129
4414.26476,0.03378
4416.19323,0.02884
4418.12170,0.02726
4420.05017,0.03076
4421.97864,0.03545
4423.90710,0.03381
4425.83557,0.03183
4427.76404,0.03744
4429.69251,0.04446
4431.62098,0.04660
4433.54945,0.04507
4435.47792,0.04031
4437.40638,0.03605
4439.33485,0.03305
4441.26332,0.02770
4443.19179,0.02555
4445.12026,0.02760
4447.04873,0.03039
4448.97720,0.03773
4450.90567,0.04467
4452.83413,0.04080
4454.76260,0.02979
4456.69107,0.02087
4458.61954,0.02108
4460.54801,0.03160
4462.47648,0.03876
4464.40495,0.03403
4466.33341,0.03045
4468.26188,0.03566
4470.19035,0.03648
4472.11882,0.03016
4474.04729,0.02947
4475.97576,0.03495
4477.90423,0.04071
4479.83270,0.04111
4481.76116,0.03482
4483.68963,0.03200
4485.61810,0.03124
4487.54657,0.02369
4489.47504,0.01995
4491.40351,0.02806
4493.33198,0.03546
4495.26044,0.03379
4497.18891,0.03087
4499.11738,0.03130
4501.04585,0.02843
4502.97432,0.02368
4504.90279,0.02272
4506.83126,0.02244
4508.75973,0.02131
4510.68819,0.02050
4512.61666,0.02151
4514.54513,0.02375
4516.47360,0.02368
4518.40207,0.02203
4520.33054,0.02227
4522.25901,0.02608
4524.18747,0.03188
4526.11594,0.03612
4528.04441,0.03671
4529.97288,0.03276
4531.90135,0.02522
4533.82982,0.01979
4535.75829,0.02363
4537.68676,0.03560
4539.61522,0.04186
4541.54369,0.03140
4543.47216,0.01492
4545.40063,0.01128
4547.32910,0.02068
4549.25757,0.03053
4551.18604,0.03504
4553.11450,0.03116
4555.04297,0.01922
4556.97144,0.01229
4558.89991,0.01713
4560.82838,0.02070
4562.75685,0.01877
4564.68532,0.01757
4566.61378,0.01627
4568.54225,0.01614
4570.47072,0.01455
4572.39919,0.01027
4574.32766,0.00947
4576.25613,0.00930
4578.18460,0.00984
4580.11307,0.01147
4582.04153,0.00405
4583.97000,-0.00591
4585.89847,-0.00540
4587.82694,-0.00087
4589.75541,0.00630
4591.68388,0.01668
4593.61235,0.01857
4595.54081,0.01629
4597.46928,0.02109
4599.39775,0.02737
4601.32622,0.02551
4603.25469,0.01652
4605.18316,0.01105
4607.11163,0.01308
4609.04010,0.01397
4610.96856,0.01069
4612.89703,0.00997
4614.82550,0.01070
4616.75397,0.00789
4618.68244,0.00976
4620.61091,0.02345
4622.53938,0.03611
4624.46784,0.03521
4626.39631,0.02488
4628.32478,0.01179
4630.25325,-0.00018
4632.18172,-0.00221
4634.11019,0.00972
4636.03866,0.01753
4637.96713,0.00685
4639.89559,-0.00664
4641.82406,-0.00627
4643.75253,0.00532
4645.68100,0.01926
4647.60947,0.02832
4649.53794,0.02944
4651.46641,0.02765
4653.39487,0.02690
4655.32334,0.02460
4657.25181,0.02202
4659.18028,0.01834
4661.10875,0.00828
4663.03722,-0.00560
4664.96569,-0.01398
4666.89416,-0.01208
4668.82262,-0.00636
4670.75109,-0.00115
4672.67956,0.00506
4674.60803,0.00538
4676.53650,-0.00223
4678.46497,-0.00529
4680.39344,-0.00087
4682.32190,0.00291
4684.25037,0.00661
4686.17884,0.01053
4688.10731,0.00701
4690.03578,0.00201
4691.96425,0.01043
4693.89272,0.02391
4695.82119,0.02619
4697.74965,0.02095
4699.67812,0.01451
4701.60659,0.00831
4703.53506,0.00491
4705.46353,0.00161
4707.39200,-0.00156
4709.32047,-0.00018
4711.24893,0.00508
4713.17740,0.00939
4715.10587,0.01217
4717.03434,0.01961
4718.96281,0.02329
4720.89128,0.00484
4722.81975,-0.02426
4724.74821,-0.03126
4726.67668,-0.01290
4728.60515,0.00613
4730.53362,0.01535
4732.46209,0.01540
4734.39056,0.01278
4736.31903,0.01546
4738.24750,0.01011
4740.17596,-0.00287
4742.10443,-0.00059
4744.03290,0.01494
4745.96137,0.02420
4747.88984,0.01892
4749.81831,0.00930
4751.74678,0.00607
4753.67524,0.00468
4755.60371,0.00652
4757.53218,0.01573
4759.46065,0.01921
4761.38912,0.01185
4763.31759,0.00769
4765.24606,0.01056
4767.17453,0.01242
4769.10299,0.00815
4771.03146,-0.00298
4772.95993,-0.00837
4774.88840,-0.00102
4776.81687,0.00421
4778.74534,0.00461
4780.67381,0.00481
4782.60227,-0.00282
4784.53074,-0.01445
4786.45921,-0.01978
4788.38768,-0.01368
4790.31615,0.00367
4792.24462,0.01990
4794.17309,0.02568
4796.10156,0.02012
4798.03002,0.00789
4799.95849,0.00238
4801.88696,0.00806
4803.81543,0.01316
4805.74390,0.01296
4807.67237,0.00840
4809.60084,0.00088
4811.52930,-0.00071
4813.45777,-0.00077
4815.38624,-0.00192
4817.31471,0.00842
4819.24318,0.02340
4821.17165,0.02596
4823.10012,0.01896
4825.02859,0.01394
4826.95705,0.01246
4828.88552,0.00956
4830.81399,0.00158
4832.74246,-0.00817
4834.67093,-0.01261
4836.59940,-0.01383
4838.52787,-0.01352
4840.45633,-0.01372
4842.38480,-0.02043
4844.31327,-0.02329
4846.24174,-0.01527
4848.17021,-0.00515
4850.09868,0.00798
4852.02715,0.02209
4853.95562,0.03083
4855.88408,0.03382
4857.81255,0.02347
4859.74102,0.00514
4861.66949,-0.00066
4863.59796,0.01090
4865.52643,0.02375
4867.45490,0.01894
4869.38336,0.00422
4871.31183,-0.00261
4873.24030,0.00197
4875.16877,0.01428
4877.09724,0.01862
4879.02571,0.00914
4880.95418,0.00154
4882.88265,0.00245
4884.81111,0.00118
4886.73958,-0.00666
4888.66805,-0.00396
4890.59652,0.01296
4892.52499,0.01681
4894.45346,0.00341
4896.38193,-0.00431
4898.31039,-0.00083
4900.23886,0.00537
4902.16733,0.00828
4904.09580,0.00472
4906.02427,0.00039
4907.95274,0.00061
4909.88121,-0.00149
4911.80967,-0.00921
4913.73814,-0.01478
4915.66661,-0.01398
4917.59508,-0.00582
4919.52355,0.00667
4921.45202,0.01084
4923.38049,0.00200
4925.30896,-0.01029
4927.23742,-0.01702
4929.16589,-0.01031
4931.09436,0.00729
4933.02283,0.01763
4934.95130,0.01821
4936.87977,0.01947
4938.80824,0.02097
4940.73670,0.01951
4942.66517,0.01044
4944.59364,0.00238
4946.52211,0.00841
4948.45058,0.01446
4950.37905,0.00966
4952.30752,0.00360
4954.23599,0.00012
4956.16445,0.00132
4958.09292,0.01182
4960.02139,0.02096
4961.94986,0.01580
4963.87833,0.01043
4965.80680,0.01890
4967.73527,0.02721
4969.66373,0.02273
4971.59220,0.01349
4973.52067,0.00966
4975.44914,0.00755
4977.37761,0.00585
4979.30608,0.01078
4981.23455,0.01781
4983.16302,0.01537
4985.09148,0.00152
4987.01995,-0.00756
4988.94842,-0.00402
4990.87689,0.00133
4992.80536,0.00147
4994.73383,-0.00773
4996.66230,-0.01017
4998.59076,0.00875
5000.51923,0.02314
5002.44770,0.01793
5004.37617,0.01197
5006.30464,0.01945
5008.23311,0.03154
5010.16158,0.03721
5012.09005,0.03511
5014.01851,0.02930
5015.94698,0.02754
5017.87545,0.03097
5019.80392,0.03048
5021.73239,0.01884
5023.66086,0.00148
5025.58933,-0.00926
5027.51779,-0.00525
5029.44626,0.00792
5031.37473,0.01318
5033.30320,0.00856
5035.23167,0.01297
5037.16014,0.02975
5039.08861,0.03291
5041.01708,0.01555
5042.94554,0.00908
5044.87401,0.01604
5046.80248,0.01123
5048.73095,0.00182
5050.65942,0.00444
5052.58789,0.01812
5054.51636,0.03381
5056.44482,0.04082
5058.37329,0.03782
5060.30176,0.02604
5062.23023,0.01844
5064.15870,0.02469
5066.08717,0.02873
5068.01564,0.02594
5069.94410,0.02627
5071.87257,0.02941
5073.80104,0.02936
5075.72951,0.02605
5077.65798,0.02267
5079.58645,0.01885
5081.51492,0.01925
5083.44339,0.02771
5085.37185,0.03475
5087.30032,0.02926
5089.22879,0.01441
5091.15726,0.00092
5093.08573,-0.00545
5095.01420,-0.00542
5096.94267,0.00237
5098.87113,0.02008
5100.79960,0.03773
5102.72807,0.04260
5104.65654,0.03342
5106.58501,0.01805
5108.51348,0.00826
5110.44195,0.01232
5112.37042,0.02305
5114.29888,0.02309
5116.22735,0.01113
5118.15582,0.00571
5120.08429,0.02046
5122.01276,0.04242
5123.94123,0.05473
5125.86970,0.05535
5127.79816,0.04449
5129.72663,0.03296
5131.65510,0.03464
5133.58357,0.04252
5135.51204,0.03345
5137.44051,0.01109
5139.36898,0.01631
5141.29745,0.04456
5143.22591,0.05103
5145.15438,0.04308
5147.08285,0.03869
5149.01132,0.02035
5150.93979,-0.00507
5152.86826,-0.00301
5154.79673,0.02552
5156.72519,0.04284
5158.65366,0.04005
5160.58213,0.03882
5162.51060,0.03989
5164.43907,0.03954
5166.36754,0.04543
5168.29601,0.04968
5170.22448,0.03869
5172.15294,0.02372
5174.08141,0.01908
5176.00988,0.02112
5177.93835,0.02740
5179.86682,0.03908
5181.79529,0.04940
5183.72376,0.04443
5185.65222,0.02569
5187.58069,0.01565
5189.50916,0.01982
5191.43763,0.02490
5193.36610,0.02793
5195.29457,0.03351
5197.22304,0.03448
5199.15151,0.03052
5201.07997,0.03507
5203.00844,0.04480
5204.93691,0.05055
5206.86538,0.04741
5208.79385,0.04316
5210.72232,0.05336
5212.65079,0.06402
5214.57925,0.06019
5216.50772,0.05425
5218.43619,0.05251
5220.36466,0.04637
5222.29313,0.03589
5224.22160,0.02312
5226.15007,0.01215
5228.07854,0.01414
5230.00700,0.03225
5231.93547,0.05171
5233.86394,0.04760
5235.79241,0.02769
5237.72088,0.02268
5239.64935,0.03584
5241.57782,0.04571
5243.50628,0.04902
5245.43475,0.05480
5247.36322,0.04710
5249.29169,0.02425
5251.22016,0.01009
5253.14863,0.01068
5255.07710,0.02239
5257.00556,0.03534
5258.93403,0.05201
5260.86250,0.07024
5262.79097,0.06392
5264.71944,0.04903
5266.64791,0.06272
5268.57638,0.08694
5270.50485,0.09124
5272.43331,0.07017
5274.36178,0.04630
5276.29025,0.04029
5278.21872,0.04006
5280.14719,0.03371
5282.07566,0.03603
5284.00413,0.05020
5285.93259,0.06861
5287.86106,0.09247
5289.78953,0.10500
5291.71800,0.09664
5293.64647,0.08982
5295.57494,0.09071
5297.50341,0.08837
5299.43188,0.07339
5301.36034,0.05813
5303.28881,0.06255
5305.21728,0.07172
5307.14575,0.07488
5309.07422,0.09229
5311.00269,0.10840
5312.93116,0.09392
5314.85962,0.06907
5316.78809,0.05214
5318.71656,0.04319
5320.64503,0.04654
5322.57350,0.04431
5324.50197,0.02245
5326.43044,0.00741
5328.35891,0.01873
5330.28737,0.03896
5332.21584,0.06916
5334.14431,0.09887
5336.07278,0.09679
5338.00125,0.08701
5339.92972,0.10579
5341.85819,0.13007
5343.78665,0.12215
5345.71512,0.08179
5347.64359,0.05515
5349.57206,0.05652
5351.50053,0.08117
5353.42900,0.11972
5355.35747,0.13030
5357.28594,0.10017
5359.21440,0.07195
5361.14287,0.07978
5363.07134,0.10240
5364.99981,0.09677
5366.92828,0.07292
5368.85675,0.05884
5370.78522,0.05481
5372.71368,0.06316
5374.64215,0.08048
5376.57062,0.08259
5378.49909,0.06554
5380.42756,0.04826
5382.35603,0.04300
5384.28450,0.05423
5386.21297,0.06159
5388.14143,0.04972
5390.06990,0.04708
5391.99837,0.06983
5393.92684,0.09588
5395.85531,0.09377
5397.78378,0.06362
5399.71225,0.04270
5401.64071,0.05371
5403.56918,0.06399
5405.49765,0.05601
5407.42612,0.06130
5409.35459,0.07863
5411.28306,0.07827
5413.21153,0.06694
5415.13999,0.05963
5417.06846,0.05429
5418.99693,0.05290
5420.92540,0.06401
5422.85387,0.08941
5424.78234,0.10427
5426.71081,0.09672
5428.63928,0.07821
5430.56774,0.05474
5432.49621,0.04598
5434.42468,0.06417
5436.35315,0.09104
5438.28162,0.10146
5440.21009,0.08990
5442.13856,0.07838
5444.06702,0.08511
5445.99549,0.10068
5447.92396,0.11295
5449.85243,0.10713
5451.78090,0.08262
5453.70937,0.06847
5455.63784,0.07404
5457.56631,0.06869
5459.49477,0.03951
5461.42324,0.02854
5463.35171,0.06191
5465.28018,0.09788
5467.20865,0.10086
5469.13712,0.07713
5471.06559,0.05364
5472.99405,0.06385
5474.92252,0.10281
5476.85099,0.11726
5478.77946,0.09227
5480.70793,0.06420
5482.63640,0.05752
5484.56487,0.06370
5486.49334,0.06240
5488.42180,0.06510
5490.35027,0.08043
5492.27874,0.08255
5494.20721,0.07097
5496.13568,0.06687
5498.06415,0.08155
5499.99262,0.11018
5501.92108,0.12516
5503.84955,0.11821
5505.77802,0.09060
5507.70649,0.05820
5509.63496,0.06063
5511.56343,0.07935
5513.49190,0.08384
5515.42037,0.10039
5517.34883,0.12185
5519.27730,0.10495
5521.20577,0.06359
5523.13424,0.03439
5525.06271,0.02662
5526.99118,0.04686
5528.91965,0.09101
5530.84811,0.12742
5532.77658,0.13492
5534.70505,0.11009
5536.63352,0.07944
5538.56199,0.07745
5540.49046,0.08582
5542.41893,0.08969
5544.34740,0.10617
5546.27586,0.12849
5548.20433,0.13580
5550.13280,0.12422
5552.06127,0.10370
5553.98974,0.09597
5555.91821,0.10382
5557.84668,0.10270
5559.77514,0.07993
5561.70361,0.05058
5563.63208,0.05213
5565.56055,0.08541
5567.48902,0.10277
5569.41749,0.09231
5571.34596,0.07463
5573.27443,0.05718
5575.20289,0.03898
5577.13136,0.01875
5579.05983,0.01274
5580.98830,0.03164
5582.91677,0.04848
5584.84524,0.05225
5586.77371,0.05620
5588.70217,0.06439
5590.63064,0.07402
5592.55911,0.06989
5594.48758,0.06205
5596.41605,0.07433
5598.34452,0.08356
5600.27299,0.07064
5602.20145,0.05460
5604.12992,0.04935
5606.05839,0.06092
5607.98686,0.07792
5609.91533,0.08550
5611.84380,0.09800
5613.77227,0.12662
5615.70074,0.15012
5617.62920,0.14085
5619.55767,0.10531
5621.48614,0.08431
5623.41461,0.09154
5625.34308,0.09068
5627.27155,0.06830
5629.20002,0.06520
5631.12848,0.08348
5633.05695,0.08746
5634.98542,0.08335
5636.91389,0.09843
5638.84236,0.12480
5640.77083,0.13809
5642.69930,0.13625
5644.62777,0.11570
5646.55623,0.06576
5648.48470,0.03135
5650.41317,0.05351
5652.34164,0.09248
5654.27011,0.11432
5656.19858,0.11311
5658.12705,0.09580
5660.05551,0.08900
5661.98398,0.08835
5663.91245,0.08803
5665.84092,0.09664
5667.76939,0.09741
5669.69786,0.08817
5671.62633,0.07689
5673.55480,0.06183
5675.48326,0.05739
5677.41173,0.06852
5679.34020,0.07916
5681.26867,0.08822
5683.19714,0.09311
5685.12561,0.08657
5687.05408,0.08307
5688.98254,0.08537
5690.91101,0.07359
5692.83948,0.05322
5694.76795,0.05361
5696.69642,0.06914
5698.62489,0.06221
5700.55336,0.04262
5702.48183,0.03269
5704.41029,0.02947
5706.33876,0.04540
5708.26723,0.07510
5710.19570,0.09096
5712.12417,0.10410
5714.05264,0.14315
5715.98111,0.17613
5717.90957,0.17238
5719.83804,0.16758
5721.76651,0.17174
5723.69498,0.15664
5725.62345,0.12615
5727.55192,0.09778
5729.48039,0.06971
5731.40886,0.05988
5733.33732,0.09974
5735.26579,0.14144
5737.19426,0.11038
5739.12273,0.05459
5741.05120,0.04178
5742.97967,0.06239
5744.90814,0.08376
5746.83660,0.08750
5748.76507,0.09131
5750.69354,0.11042
5752.62201,0.11939
5754.55048,0.09729
5756.47895,0.06538
5758.40742,0.05307
5760.33588,0.05655
5762.26435,0.06947
5764.19282,0.09107
5766.12129,0.09459
5768.04976,0.07662
5769.97823,0.07769
5771.90670,0.09784
5773.83517,0.10447
5775.76363,0.10718
5777.69210,0.12419
5779.62057,0.13601
5781.54904,0.12797
5783.47751,0.12659
5785.40598,0.13270
5787.33445,0.12578
5789.26291,0.11649
5791.19138,0.11724
5793.11985,0.12382
5795.04832,0.11078
5796.97679,0.07944
5798.90526,0.06354
5800.83373,0.07304
5802.76220,0.09968
5804.69066,0.12028
5806.61913,0.11843
5808.54760,0.11311
5810.47607,0.12231
5812.40454,0.12349
5814.33301,0.10486
5816.26148,0.08238
5818.18994,0.05497
5820.11841,0.04432
5822.04688,0.06710
5823.97535,0.09156
5825.90382,0.11572
5827.83229,0.14654
5829.76076,0.14806
5831.68923,0.10166
5833.61769,0.05052
5835.54616,0.03179
5837.47463,0.02926
5839.40310,0.03720
5841.33157,0.07009
5843.26004,0.11387
5845.18851,0.12263
5847.11697,0.08091
5849.04544,0.03105
5850.97391,0.01090
5852.90238,0.02644
5854.83085,0.05989
5856.75932,0.07582
5858.68779,0.06834
5860.61626,0.04422
5862.54472,0.02275
5864.47319,0.04444
5866.40166,0.09486
5868.33013,0.12524
5870.25860,0.13361
5872.18707,0.13352
5874.11554,0.11175
5876.04400,0.07024
5877.97247,0.05205
5879.90094,0.06299
5881.82941,0.08677
5883.75788,0.13867
5885.68635,0.18353
5887.61482,0.17211
5889.54329,0.13404
5891.47175,0.09574
5893.40022,0.05873
5895.32869,0.05241
5897.25716,0.08088
5899.18563,0.10589
5901.11410,0.10627
5903.04257,0.09922
5904.97103,0.10491
5906.89950,0.12016
5908.82797,0.13151
5910.75644,0.12350
5912.68491,0.10053
5914.61338,0.07936
5916.54185,0.07550
5918.47032,0.09216
5920.39878,0.10749
5922.32725,0.10120
5924.25572,0.06953
5926.18419,0.03081
5928.11266,0.01537
5930.04113,0.03723
5931.96960,0.07251
5933.89806,0.10175
5935.82653,0.13090
5937.75500,0.14175
5939.68347,0.12482
5941.61194,0.09546
5943.54041,0.07163
5945.46888,0.07425
5947.39734,0.09953
5949.32581,0.09903
5951.25428,0.06671
5953.18275,0.07481
5955.11122,0.12346
5957.03969,0.14676
5958.96816,0.11384
5960.89663,0.05867
5962.82509,0.03082
5964.75356,0.02512
5966.68203,0.05078
5968.61050,0.10381
5970.53897,0.10262
5972.46744,0.04389
5974.39591,0.03383
5976.32437,0.08643
5978.25284,0.13030
5980.18131,0.14569
5982.10978,0.15548
5984.03825,0.16355
5985.96672,0.16458
5987.89519,0.16137
5989.82366,0.13821
5991.75212,0.09542
5993.68059,0.06863
5995.60906,0.08305
5997.53753,0.11032
5999.46600,0.11860
6001.39447,0.11111
6003.32294,0.09455
6005.25140,0.07839
6007.17987,0.05637
6009.10834,0.03232
6011.03681,0.03945
6012.96528,0.07385
6014.89375,0.08975
6016.82222,0.08026
6018.75069,0.08013
6020.67915,0.09486
6022.60762,0.11349
6024.53609,0.11761
6026.46456,0.08929
6028.39303,0.04082
6030.32150,0.02658
6032.24997,0.08659
6034.17843,0.15371
6036.10690,0.17209
6038.03537,0.19532
6039.96384,0.20833
6041.89231,0.14929
6043.82078,0.07321
6045.74925,0.06806
6047.67772,0.11230
6049.60618,0.14204
6051.53465,0.17153
6053.46312,0.23348
6055.39159,0.25778
6057.32006,0.18983
6059.24853,0.11397
6061.17700,0.08775
6063.10546,0.06494
6065.03393,0.01657
6066.96240,-0.01928
6068.89087,-0.00773
6070.81934,0.03227
6072.74781,0.07531
6074.67628,0.12045
6076.60475,0.14549
6078.53321,0.12656
6080.46168,0.07998
6082.39015,0.05050
6084.31862,0.05844
6086.24709,0.10843
6088.17556,0.19862
6090.10403,0.26827
6092.03249,0.23985
6093.96096,0.15007
6095.88943,0.10647
6097.81790,0.10113
6099.74637,0.07746
6101.67484,0.04910
6103.60331,0.03913
6105.53177,0.03336
6107.46024,0.02733
6109.38871,0.05602
6111.31718,0.12060
6113.24565,0.14551
6115.17412,0.11200
6117.10259,0.09459
6119.03106,0.09552
6120.95952,0.07710
6122.88799,0.08259
6124.81646,0.11243
6126.74493,0.12779
6128.67340,0.13372
6130.60187,0.13720
6132.53034,0.12755
6134.45880,0.13257
6136.38727,0.14750
6138.31574,0.11245
6140.24421,0.04779
6142.17268,0.02354
6144.10115,0.03403
6146.02962,0.05850
6147.95809,0.11075
6149.88655,0.16300
6151.81502,0.15779
6153.74349,0.11774
6155.67196,0.11389
6157.60043,0.11847
6159.52890,0.07929
6161.45737,0.04732
6163.38583,0.07019
6165.31430,0.10619
6167.24277,0.10514
6169.17124,0.08052
6171.09971,0.05921
6173.02818,0.04097
6174.95665,0.02959
6176.88512,0.04553
6178.81358,0.10374
6180.74205,0.14345
6182.67052,0.12555
6184.59899,0.10344
6186.52746,0.07781
6188.45593,0.05925
6190.38440,0.08411
6192.31286,0.08823
6194.24133,0.06505
6196.16980,0.06935
6198.09827,0.06839
6200.02674,0.03705
6201.95521,0.00065
6203.88368,-0.02612
6205.81215,-0.00553
6207.74061,0.05896
6209.66908,0.09579
6211.59755,0.08849
6213.52602,0.10173
6215.45449,0.14791
6217.38296,0.16498
6219.31143,0.14340
6221.23989,0.14371
6223.16836,0.15306
6225.09683,0.13127
6227.02530,0.11885
6228.95377,0.13010
6230.88224,0.14060
6232.81071,0.15098
6234.73918,0.13082
6236.66764,0.08551
6238.59611,0.08048
6240.52458,0.08357
6242.45305,0.03141
6244.38152,-0.01011
6246.30999,0.02784
6248.23846,0.08625
6250.16692,0.08024
6252.09539,0.03328
6254.02386,0.01980
6255.95233,0.04098
6257.88080,0.05823
6259.80927,0.05380
6261.73774,0.02616
6263.66621,0.00436
6265.59467,0.02664
6267.52314,0.05288
6269.45161,0.05045
6271.38008,0.04541
6273.30855,0.03686
6275.23702,0.01700
6277.16549,0.00875
6279.09395,0.01522
6281.02242,0.04852
6282.95089,0.11890
6284.87936,0.16836
6286.80783,0.19835
6288.73630,0.20562
6290.66477,0.12053
6292.59323,0.01636
6294.52170,-0.00268
6296.45017,0.03668
6298.37864,0.07839
6300.30711,0.08253
6302.23558,0.06096
6304.16405,0.07640
6306.09252,0.11539
6308.02098,0.11708
6309.94945,0.08666
6311.87792,0.08403
6313.80639,0.12737
6315.73486,0.16419
6317.66333,0.15151
6319.59180,0.10770
6321.52026,0.10262
6323.44873,0.16703
6325.37720,0.20599
6327.30567,0.12122
6329.23414,-0.01303
6331.16261,-0.02579
6333.09108,0.05507
6335.01955,0.09659
6336.94801,0.09534
6338.87648,0.08592
6340.80495,0.07010
6342.73342,0.05985
6344.66189,0.05894
6346.59036,0.06834
6348.51883,0.10374
6350.44729,0.12162
6352.37576,0.08774
6354.30423,0.08856
6356.23270,0.15478
6358.16117,0.21445
6360.08964,0.21369
6362.01811,0.15839
6363.94658,0.07378
6365.87504,-0.01482
6367.80351,-0.07082
6369.73198,-0.07520
6371.66045,-0.04533
6373.58892,0.00210
6375.51739,0.04870
6377.44586,0.08411
6379.37432,0.09177
6381.30279,0.06648
6383.23126,0.05429
6385.15973,0.06379
6387.08820,0.07984
6389.01667,0.09595
6390.94514,0.06099
6392.87361,-0.01410
6394.80207,-0.07368
6396.73054,-0.08838
6398.65901,-0.04961
6400.58748,-0.00901
6402.51595,-0.00083
6404.44442,0.00438
6406.37289,0.01175
6408.30135,0.02227
6410.22982,0.06987
6412.15829,0.15366
6414.08676,0.20206
6416.01523,0.16734
6417.94370,0.07800
6419.87217,0.03556
6421.80064,0.08416
6423.72910,0.13237
6425.65757,0.10783
6427.58604,0.07341
6429.51451,0.08053
6431.44298,0.10090
6433.37145,0.09101
6435.29992,0.02859
6437.22838,-0.01978
6439.15685,-0.00056
6441.08532,0.04654
6443.01379,0.11363
6444.94226,0.15673
6446.87073,0.12499
6448.79920,0.06725
6450.72766,0.03873
6452.65613,0.02231
6454.58460,0.01177
6456.51307,0.04695
6458.44154,0.08622
6460.37001,0.07592
6462.29848,0.08311
6464.22695,0.14423
6466.15541,0.17015
6468.08388,0.12351
6470.01235,0.09181
6471.94082,0.10851
6473.86929,0.12071
6475.79776,0.14778
6477.72623,0.22899
6479.65469,0.26370
6481.58316,0.15703
6483.51163,0.03284
6485.44010,0.01856
6487.36857,0.05077
6489.29704,0.05435
6491.22551,0.05080
6493.15398,0.06486
6495.08244,0.04842
6497.01091,-0.01341
6498.93938,-0.04871
6500.86785,-0.03225
6502.79632,-0.01415
6504.72479,-0.00392
6506.65326,0.01262
6508.58172,0.05278
6510.51019,0.09993
6512.43866,0.09842
6514.36713,0.08303
6516.29560,0.07600
6518.22407,0.04347
6520.15254,-0.00056
6522.08101,-0.04455
6524.00947,-0.03408
6525.93794,0.04507
6527.86641,0.07909
6529.79488,0.06748
6531.72335,0.04743
6533.65182,0.01504
6535.58029,0.02846
6537.50875,0.08681
6539.43722,0.08624
6541.36569,0.03128
6543.29416,0.04557
6545.22263,0.10712
6547.15110,0.12187
6549.07957,0.13230
6551.00804,0.16225
6552.93650,0.12181
6554.86497,0.03934
6556.79344,0.04009
6558.72191,0.08726
6560.65038,0.06857
6562.57885,0.03304
6564.50732,0.10262
6566.43578,0.19473
6568.36425,0.15414
6570.29272,0.06940
6572.22119,0.06833
6574.14966,0.08760
6576.07813,0.06651
6578.00660,0.06021
6579.93507,0.09874
6581.86353,0.15831
6583.79200,0.17983
6585.72047,0.12257
6587.64894,0.05708
6589.57741,0.07123
6591.50588,0.17112
6593.43435,0.23732
6595.36281,0.14200
6597.29128,-0.01088
6599.21975,-0.09095
6601.14822,-0.05018
6603.07669,0.04958
6605.00516,0.08286
6606.93363,0.07496
6608.86210,0.07830
6610.79056,0.09046
6612.71903,0.09006
6614.64750,0.04545
6616.57597,0.01405
6618.50444,0.00501
6620.43291,-0.04214
6622.36138,-0.10146
6624.28984,-0.11264
6626.21831,-0.04452
6628.14678,0.08231
6630.07525,0.17720
6632.00372,0.16622
6633.93219,0.10497
6635.86066,0.04795
6637.78912,0.03084
6639.71759,0.06459
6641.64606,0.10385
6643.57453,0.14490
6645.50300,0.15690
6647.43147,0.08986
6649.35994,0.03240
6651.28841,0.04236
6653.21687,0.07496
6655.14534,0.12092
6657.07381,0.20905
6659.00228,0.27608
6660.93075,0.22637
6662.85922,0.11927
6664.78769,0.07111
6666.71615,0.08433
6668.64462,0.09611
6670.57309,0.07429
6672.50156,0.01888
6674.43003,-0.05397
6676.35850,-0.05863
6678.28697,0.03768
6680.21544,0.10165
6682.14390,0.08014
6684.07237,0.09438
6686.00084,0.17785
6687.92931,0.22193
6689.85778,0.16355
6691.78625,0.02577
6693.71472,-0.11838
6695.64318,-0.15107
6697.57165,-0.05668
6699.50012,0.04776
6701.42859,0.14440
6703.35706,0.18491
6705.28553,0.11436
6707.21400,0.05433
6709.14247,0.07489
6711.07093,0.10315
6712.99940,0.08559
6714.92787,0.05609
6716.85634,0.08366
6718.78481,0.10931
6720.71328,0.06997
6722.64175,0.04527
6724.57021,0.07453
6726.49868,0.08696
6728.42715,0.02269
6730.35562,-0.04673
6732.28409,-0.02155
6734.21256,0.03320
6736.14103,0.05833
6738.06950,0.08962
6739.99796,0.11254
6741.92643,0.10650
6743.85490,0.12101
6745.78337,0.15299
6747.71184,0.14638
6749.64031,0.13287
6751.56878,0.18718
6753.49724,0.24926
6755.42571,0.24727
6757.35418,0.24469
6759.28265,0.27200
6761.21112,0.27494
6763.13959,0.22727
6765.06806,0.13619
6766.99653,0.07492
6768.92499,0.07630
6770.85346,0.06741
6772.78193,0.05238
6774.71040,0.04152
6776.63887,0.02770
6778.56734,0.07833
6780.49581,0.14618
6782.42427,0.08674
6784.35274,-0.06259
6786.28121,-0.10240
6788.20968,-0.00556
6790.13815,0.06384
6792.06662,0.07654
6793.99509,0.15540
6795.92355,0.23008
6797.85202,0.21851
6799.78049,0.20334
6801.70896,0.18375
6803.63743,0.10194
6805.56590,0.04557
6807.49437,0.08453
6809.42284,0.12105
6811.35130,0.09799
6813.27977,0.12937
6815.20824,0.22735
6817.13671,0.21261
6819.06518,0.06911
6820.99365,-0.01496
6822.92212,0.07315
6824.85058,0.20722
6826.77905,0.27234
6828.70752,0.22787
6830.63599,0.05309
6832.56446,-0.08827
6834.49293,-0.08355
6836.42140,0.03715
6838.34987,0.10134
6840.27833,0.03900
6842.20680,0.00147
6844.13527,0.05939
6846.06374,0.14767
6847.99221,0.15857
6849.92068,0.03489
6851.84915,-0.06691
6853.77761,-0.04669
6855.70608,0.01979
6857.63455,0.04639
6859.56302,0.05675
6861.49149,0.03699
6863.41996,0.01493
6865.34843,0.04148
6867.27690,0.03292
6869.20536,-0.01746
6871.13383,-0.01886
6873.06230,0.04575
6874.99077,0.09023
6876.91924,0.07000
6878.84771,0.04639
6880.77618,0.04740
6882.70464,0.04383
6884.63311,0.06640
6886.56158,0.07924
6888.49005,0.04153
6890.41852,0.03740
6892.34699,0.09342
6894.27546,0.13329
6896.20393,0.11978
6898.13239,0.08121
6900.06086,0.06135
6901.98933,0.06915
6903.91780,0.04664
6905.84627,-0.00861
6907.77474,0.00916
6909.70321,0.04248
6911.63167,0.03752
6913.56014,0.04667
6915.48861,0.06120
6917.41708,0.03704
6919.34555,0.00270
6921.27402,0.07216
6923.20249,0.11976
6925.13096,-0.01388
6927.05942,-0.15004
6928.98789,-0.12351
6930.91636,-0.03602
6932.84483,-0.01103
6934.77330,-0.03452
6936.70177,-0.00491
6938.63024,0.13551
6940.55870,0.23751
6942.48717,0.16668
6944.41564,0.07120
6946.34411,0.01209
6948.27258,-0.03508
6950.20105,-0.00481
6952.12952,0.11561
6954.05799,0.21119
6955.98645,0.21203
6957.91492,0.15343
6959.84339,0.06771
6961.77186,0.00152
6963.70033,-0.03288
6965.62880,-0.06655
6967.55727,-0.09326
6969.48573,-0.09521
6971.41420,-0.03479
6973.34267,0.02270
6975.27114,-0.01466
6977.19961,0.01679
6979.12808,0.14036
6981.05655,0.16025
6982.98501,0.03366
6984.91348,-0.08449
6986.84195,-0.07498
6988.77042,0.03497
6990.69889,0.15435
6992.62736,0.22250
6994.55583,0.19552
6996.48430,0.04831
6998.41276,-0.11613
7000.34123,-0.15489
7002.26970,-0.09432
7004.19817,-0.02949
7006.12664,0.01674
7008.05511,0.04900
7009.98358,0.06682
7011.91204,0.10166
7013.84051,0.11782
7015.76898,0.06742
7017.69745,-0.02765
7019.62592,-0.10998
7021.55439,-0.11869
7023.48286,-0.06233
7025.41133,-0.01693
7027.33979,-0.01786
7029.26826,0.01882
7031.19673,0.10809
7033.12520,0.20561
7035.05367,0.26397
7036.98214,0.18160
7038.91061,0.03005
7040.83907,-0.03666
7042.76754,0.02509
7044.69601,0.04697
7046.62448,-0.04483
7048.55295,-0.09479
7050.48142,-0.03683
7052.40989,0.07564
7054.33836,0.19396
7056.26682,0.32127
7058.19529,0.39965
7060.12376,0.34256
7062.05223,0.23031
7063.98070,0.15440
7065.90917,0.12645
7067.83764,0.07747
7069.76610,-0.02260
7071.69457,-0.05184
7073.62304,0.04123
7075.55151,0.15940
7077.47998,0.20013
7079.40845,0.15155
7081.33692,0.08686
7083.26539,0.01878
7085.19385,-0.02663
7087.12232,0.00484
7089.05079,0.07278
7090.97926,0.09269
7092.90773,0.05941
7094.83620,0.03611
7096.76467,0.02577
7098.69313,0.00804
7100.62160,-0.02194
7102.55007,-0.01040
7104.47854,0.06277
7106.40701,0.10425
7108.33548,0.04692
7110.26395,-0.00088
7112.19242,0.00313
7114.12088,0.00605
7116.04935,0.03159
7117.97782,0.06835
7119.90629,0.05931
7121.83476,0.06895
7123.76323,0.07989
7125.69170,0.03312
7127.62016,-0.03730
7129.54863,-0.05893
7131.47710,-0.04542
7133.40557,-0.02657
7135.33404,0.04691
7137.26251,0.15147
7139.19098,0.16684
7141.11944,0.05024
7143.04791,-0.02456
7144.97638,0.07195
7146.90485,0.18064
7148.83332,0.20988
7150.76179,0.20425
7152.69026,0.12158
7154.61873,0.02307
7156.54719,0.05387
7158.47566,0.16886
7160.40413,0.22995
7162.33260,0.20868
7164.26107,0.15883
7166.18954,0.07914
7168.11801,0.04935
7170.04647,0.22271
7171.97494,0.38887
7173.90341,0.22465
7175.83188,-0.12575
7177.76035,-0.29600
7179.68882,-0.21062
7181.61729,-0.05858
7183.54576,-0.02598
7185.47422,-0.05750
7187.40269,-0.00135
7189.33116,0.09118
7191.25963,0.14322
7193.18810,0.14235
7195.11657,0.08732
7197.04504,0.00130
7198.97350,-0.06566
7200.90197,-0.04642
7202.83044,0.07111
7204.75891,0.06666
7206.68738,-0.14504
7208.61585,-0.21717
7210.54432,-0.14848
7212.47279,-0.09962
7214.40125,-0.05576
7216.32972,0.08316
7218.25819,0.29758
7220.18666,0.45122
7222.11513,0.45259
7224.04360,0.32872
7225.97207,0.17969
7227.90053,0.05732
7229.82900,-0.00843
7231.75747,-0.03054
7233.68594,-0.01382
7235.61441,0.07448
7237.54288,0.18425
7239.47135,0.30354
7241.39982,0.35306
7243.32828,0.14146
7245.25675,-0.10198
7247.18522,-0.11463
7249.11369,0.02920
7251.04216,0.22513
7252.97063,0.28725
7254.89910,0.11368
7256.82756,-0.03475
7258.75603,-0.08722
7260.68450,-0.05303
7262.61297,0.07142
7264.54144,0.23620
7266.46991,0.37073
7268.39838,0.34247
7270.32685,0.19694
7272.25531,0.15547
7274.18378,0.16200
7276.11225,0.11681
7278.04072,0.07498
7279.96919,0.06097
7281.89766,0.08170
7283.82613,0.00728
7285.75459,-0.05694
7287.68306,0.12551
7289.61153,0.35240
7291.54000,0.26711
7293.46847,0.02432
7295.39694,-0.06230
7297.32541,0.03777
7299.25387,0.10222
7301.18234,0.04769
7303.11081,0.03636
7305.03928,0.04649
7306.96775,-0.02169
7308.89622,-0.06774
7310.82469,-0.13892
7312.75316,-0.24107
7314.68162,-0.18882
7316.61009,-0.00655
7318.53856,-0.05879
7320.46703,-0.29490
7322.39550,-0.30459
7324.32397,-0.10012
7326.25244,-0.05416
7328.18090,-0.09436
7330.10937,-0.00487
7332.03784,0.07605
7333.96631,0.04344
7335.89478,0.00764
7337.82325,0.08235
7339.75172,0.19380
7341.68019,0.21120
7343.60865,0.20999
7345.53712,0.10223
7347.46559,-0.09246
7349.39406,-0.15812
7351.32253,-0.05534
7353.25100,-0.05387
7355.17947,-0.27000
7357.10793,-0.43116
7359.03640,-0.29924
7360.96487,-0.05481
7362.89334,0.06574
7364.82181,0.06299
7366.75028,-0.00151
7368.67875,-0.10462
7370.60722,-0.13258
7372.53568,-0.04367
7374.46415,0.05191
7376.39262,-0.00204
7378.32109,-0.05398
7380.24956,-0.03272
7382.17803,-0.10883
7384.10650,-0.17660
7386.03496,-0.06612
7387.96343,0.07546
7389.89190,0.18964
7391.82037,0.27380
7393.74884,0.22765
7395.67731,0.11770
7397.60578,0.05114
7399.53425,0.06491
7401.46271,0.22643
7403.39118,0.43817
7405.31965,0.41686
7407.24812,0.23839
7409.17659,0.18512
7411.10506,0.23594
7413.03353,0.28034
7414.96199,0.33333
7416.89046,0.35116
7418.81893,0.24961
7420.74740,0.07491
7422.67587,-0.11093
7424.60434,-0.16772
7426.53281,-0.08607
7428.46128,-0.04257
7430.38974,-0.03901
7432.31821,0.00579
7434.24668,0.06929
7436.17515,0.17327
7438.10362,0.24335
7440.03209,0.14261
7441.96056,-0.00715
7443.88902,-0.00367
7445.81749,0.07524
7447.74596,-0.00081
7449.67443,-0.21956
7451.60290,-0.18010
7453.53137,0.16065
7455.45984,0.28921
7457.38831,0.19381
7459.31677,0.11468
7461.24524,0.03720
7463.17371,-0.06427
7465.10218,-0.03527
7467.03065,0.08239
7468.95912,0.18345
7470.88759,0.20130
7472.81605,0.01897
7474.74452,-0.29114
7476.67299,-0.46268
7478.60146,-0.29845
7480.52993,0.02972
7482.45840,0.13124
7484.38687,0.07094
7486.31533,0.14795
7488.24380,0.28680
7490.17227,0.29284
7492.10074,0.20053
7494.02921,0.18408
7495.95768,0.27570
7497.88615,0.35157
