399.19301,1.88209
401.12148,2.57092
403.04995,1.33164
404.97842,0.57247
406.90689,0.53603
408.83536,0.07526
410.76382,-0.69794
412.69229,0.05770
414.62076,2.20946
416.54923,4.06311
418.47770,3.85522
420.40617,1.53613
422.33464,0.41448
424.26311,0.32812
426.19157,0.30048
428.12004,0.19094
430.04851,0.07159
431.97698,0.10509
433.90545,0.27204
435.83392,0.38959
437.76239,0.38565
439.69085,0.27042
441.61932,0.20620
443.54779,0.30625
445.47626,0.30546
447.40473,0.13980
449.33320,0.08874
451.26167,0.18795
453.19013,0.26284
455.11860,0.26551
457.04707,0.23015
458.97554,0.16585
460.90401,0.08664
462.83248,0.05259
464.76095,0.08741
466.68942,0.11723
468.61788,0.13314
470.54635,0.29217
472.47482,1.01276
474.40329,1.84019
476.33176,1.25274
478.26023,0.45754
480.18870,0.18114
482.11716,0.18901
484.04563,0.24499
485.97410,0.25957
487.90257,0.21168
489.83104,0.14455
491.75951,0.08500
493.68798,0.09026
495.61645,0.16748
497.54491,0.19088
499.47338,0.13480
501.40185,0.08703
503.33032,0.07838
505.25879,0.09761
507.18726,0.12516
509.11573,0.15802
511.04419,0.17737
512.97266,0.17466
514.90113,0.16608
516.82960,0.12538
518.75807,0.07501
520.68654,0.07632
522.61501,0.11285
524.54348,0.15548
526.47194,0.17035
528.40041,0.14316
530.32888,0.14200
532.25735,0.18935
534.18582,0.20866
536.11429,0.16490
538.04276,0.11380
539.97122,0.10165
541.89969,0.10264
543.82816,0.09978
545.75663,0.10905
547.68510,0.10652
549.61357,0.12305
551.54204,0.29226
553.47051,0.49549
555.39897,0.44733
557.32744,0.23589
559.25591,0.13433
561.18438,0.13462
563.11285,0.12863
565.04132,0.10943
566.96979,0.11126
568.89825,0.11955
570.82672,0.11644
572.75519,0.13393
574.68366,0.17106
576.61213,0.17517
578.54060,0.14864
580.46907,0.13029
582.39754,0.12150
584.32600,0.11436
586.25447,0.11837
588.18294,0.12849
590.11141,0.12884
592.03988,0.13527
593.96835,0.15657
595.89682,0.16498
597.82528,0.15440
599.75375,0.13426
601.68222,0.11601
603.61069,0.11945
605.53916,0.12668
607.46763,0.11731
609.39610,0.11809
611.32456,0.13648
613.25303,0.14146
615.18150,0.13143
617.10997,0.13625
619.03844,0.15670
620.96691,0.17228
622.89538,0.16820
624.82385,0.14613
626.75231,0.13124
628.68078,0.12533
630.60925,0.08167
632.53772,0.01869
634.46619,0.03361
636.39466,0.10108
638.32313,0.13734
640.25159,0.14839
642.18006,0.15494
644.10853,0.15300
646.03700,0.14057
647.96547,0.12045
649.89394,0.10353
651.82241,0.10902
653.75088,0.13577
655.67934,0.15061
657.60781,0.13901
659.53628,0.13058
661.46475,0.14378
663.39322,0.15239
665.32169,0.14293
667.25016,0.13533
669.17862,0.15382
671.10709,0.17815
673.03556,0.18456
674.96403,0.16512
676.89250,0.13030
678.82097,0.10684
680.74944,0.11720
682.67791,0.14876
684.60637,0.15572
686.53484,0.13703
688.46331,0.12687
690.39178,0.12862
692.32025,0.13290
694.24872,0.13415
696.17719,0.13861
698.10565,0.15383
700.03412,0.16190
701.96259,0.15158
703.89106,0.13887
705.81953,0.13551
707.74800,0.13578
709.67647,0.13391
711.60494,0.13069
713.53340,0.13183
715.46187,0.14331
717.39034,0.16109
719.31881,0.17479
721.24728,0.17336
723.17575,0.15737
725.10422,0.14450
727.03268,0.14234
728.96115,0.14135
730.88962,0.14123
732.81809,0.14912
734.74656,0.15396
736.67503,0.14545
738.60350,0.13616
740.53197,0.13322
742.46043,0.13167
744.38890,0.13576
746.31737,0.14281
748.24584,0.13764
750.17431,0.13005
752.10278,0.13763
754.03125,0.14954
755.95971,0.15430
757.88818,0.15404
759.81665,0.15151
761.74512,0.14972
763.67359,0.15013
765.60206,0.14968
767.53053,0.14497
769.45900,0.13624
771.38746,0.12660
773.31593,0.12402
775.24440,0.13604
777.17287,0.15427
779.10134,0.16135
781.02981,0.15571
782.95828,0.14729
784.88674,0.14431
786.81521,0.14561
788.74368,0.14112
790.67215,0.13259
792.60062,0.12928
794.52909,0.13298
796.45756,0.14145
798.38602,0.15301
800.31449,0.16265
802.24296,0.15950
804.17143,0.14863
806.09990,0.14642
808.02837,0.15016
809.95684,0.15287
811.88531,0.16163
813.81377,0.16819
815.74224,0.15340
817.67071,0.12907
819.59918,0.11960
821.52765,0.12355
823.45612,0.12729
825.38459,0.13509
827.31305,0.15018
829.24152,0.16077
831.16999,0.16259
833.09846,0.15706
835.02693,0.15546
836.95540,0.16247
838.88387,0.16599
840.81234,0.16912
842.74080,0.17205
844.66927,0.16205
846.59774,0.15301
848.52621,0.16166
850.45468,0.16965
852.38315,0.16420
854.31162,0.15512
856.24008,0.15196
858.16855,0.15483
860.09702,0.15226
862.02549,0.14729
863.95396,0.15078
865.88243,0.14799
867.81090,0.12440
869.73937,0.10045
871.66783,0.10773
873.59630,0.13582
875.52477,0.14984
877.45324,0.15288
879.38171,0.15933
881.31018,0.15925
883.23865,0.15279
885.16711,0.15140
887.09558,0.15606
889.02405,0.15966
890.95252,0.15719
892.88099,0.14952
894.80946,0.14466
896.73793,0.14958
898.66640,0.15422
900.59486,0.15348
902.52333,0.15514
904.45180,0.15690
906.38027,0.15494
908.30874,0.15361
910.23721,0.15401
912.16568,0.15673
914.09414,0.16424
916.02261,0.16775
917.95108,0.16174
919.87955,0.15215
921.80802,0.14344
923.73649,0.14265
925.66496,0.14821
927.59343,0.14936
929.52189,0.14664
931.45036,0.15038
933.37883,0.16192
935.30730,0.16790
937.23577,0.16435
939.16424,0.16238
941.09271,0.16332
943.02117,0.16123
944.94964,0.15834
946.87811,0.15772
948.80658,0.15964
950.73505,0.16338
952.66352,0.16417
954.59199,0.16174
956.52045,0.16043
958.44892,0.15648
960.37739,0.14636
962.30586,0.13932
964.23433,0.14124
966.16280,0.14272
968.09127,0.13986
970.01974,0.13954
971.94820,0.14349
973.87667,0.14759
975.80514,0.15090
977.73361,0.15558
979.66208,0.16105
981.59055,0.16540
983.51902,0.16555
985.44748,0.16017
987.37595,0.15645
989.30442,0.15992
991.23289,0.16616
993.16136,0.17093
995.08983,0.17205
997.01830,0.16550
998.94677,0.15643
1000.87523,0.15768
1002.80370,0.16860
1004.73217,0.17660
1006.66064,0.17580
1008.58911,0.16825
1010.51758,0.16204
1012.44605,0.16076
1014.37451,0.15964
1016.30298,0.16231
1018.23145,0.17111
1020.15992,0.17888
1022.08839,0.18212
1024.01686,0.18410
1025.94533,0.19523
1027.87380,0.21195
1029.80226,0.20358
1031.73073,0.17003
1033.65920,0.15269
1035.58767,0.16046
1037.51614,0.16968
1039.44461,0.16938
1041.37308,0.16851
1043.30154,0.17317
1045.23001,0.17152
1047.15848,0.16328
1049.08695,0.16386
1051.01542,0.17476
1052.94389,0.18384
1054.87236,0.18160
1056.80083,0.17177
1058.72929,0.16395
1060.65776,0.16360
1062.58623,0.16995
1064.51470,0.17246
1066.44317,0.16752
1068.37164,0.16610
1070.30011,0.16955
1072.22857,0.17580
1074.15704,0.18536
1076.08551,0.18946
1078.01398,0.18509
1079.94245,0.18009
1081.87092,0.17311
1083.79939,0.16049
1085.72786,0.15045
1087.65632,0.14933
1089.58479,0.15916
1091.51326,0.17641
1093.44173,0.18942
1095.37020,0.19029
1097.29867,0.17979
1099.22714,0.17075
1101.15560,0.16804
1103.08407,0.16437
1105.01254,0.16455
1106.94101,0.17132
1108.86948,0.17601
1110.79795,0.17911
1112.72642,0.18125
1114.65489,0.17957
1116.58335,0.18030
1118.51182,0.17964
1120.44029,0.17155
1122.36876,0.16662
1124.29723,0.16920
1126.22570,0.16815
1128.15417,0.15730
1130.08263,0.14800
1132.01110,0.14511
1133.93957,0.14302
1135.86804,0.14594
1137.79651,0.15349
1139.72498,0.15862
1141.65345,0.16318
1143.58191,0.16772
1145.51038,0.16811
1147.43885,0.16960
1149.36732,0.17645
1151.29579,0.17797
1153.22426,0.17084
1155.15273,0.16519
1157.08120,0.16493
1159.00966,0.16584
1160.93813,0.16699
1162.86660,0.17321
1164.79507,0.18146
1166.72354,0.18407
1168.65201,0.18430
1170.58048,0.18534
1172.50894,0.18590
1174.43741,0.18748
1176.36588,0.18764
1178.29435,0.18302
1180.22282,0.17708
1182.15129,0.17595
1184.07976,0.17691
1186.00823,0.17328
1187.93669,0.17198
1189.86516,0.17601
1191.79363,0.17477
1193.72210,0.16908
1195.65057,0.16827
1197.57904,0.17059
1199.50751,0.16996
1201.43597,0.16850
1203.36444,0.16981
1205.29291,0.17178
1207.22138,0.17044
1209.14985,0.16885
1211.07832,0.17362
1213.00679,0.18116
1214.93526,0.18493
1216.86372,0.18404
1218.79219,0.17955
1220.72066,0.17371
1222.64913,0.17079
1224.57760,0.17523
1226.50607,0.18212
1228.43454,0.18247
1230.36300,0.18078
1232.29147,0.18367
1234.21994,0.18573
1236.14841,0.18426
1238.07688,0.18237
1240.00535,0.17950
1241.93382,0.17502
1243.86229,0.17055
1245.79075,0.17059
1247.71922,0.17568
1249.64769,0.17666
1251.57616,0.17077
1253.50463,0.16829
1255.43310,0.17230
1257.36157,0.17411
1259.29003,0.17151
1261.21850,0.17026
1263.14697,0.17345
1265.07544,0.17856
1267.00391,0.17983
1268.93238,0.17678
1270.86085,0.17458
1272.78932,0.17501
1274.71778,0.17779
1276.64625,0.18279
1278.57472,0.18715
1280.50319,0.18814
1282.43166,0.18649
1284.36013,0.18441
1286.28860,0.18275
1288.21706,0.18194
1290.14553,0.18302
1292.07400,0.18411
1294.00247,0.18086
1295.93094,0.17448
1297.85941,0.17269
1299.78788,0.17697
1301.71634,0.17724
1303.64481,0.16796
1305.57328,0.16075
1307.50175,0.16588
1309.43022,0.17691
1311.35869,0.18440
1313.28716,0.18576
1315.21563,0.18462
1317.14409,0.18380
1319.07256,0.18210
1321.00103,0.18090
1322.92950,0.18077
1324.85797,0.17817
1326.78644,0.17353
1328.71491,0.17172
1330.64337,0.17146
1332.57184,0.17158
1334.50031,0.17481
1336.42878,0.17829
1338.35725,0.17999
1340.28572,0.17825
1342.21419,0.17146
1344.14266,0.16517
1346.07112,0.16588
1347.99959,0.17518
1349.92806,0.18363
1351.85653,0.18313
1353.78500,0.18031
1355.71347,0.18227
1357.64194,0.18500
1359.57040,0.18410
1361.49887,0.18421
1363.42734,0.18703
1365.35581,0.18629
1367.28428,0.18287
1369.21275,0.18131
1371.14122,0.18348
1373.06969,0.18897
1374.99815,0.19175
1376.92662,0.18858
1378.85509,0.18680
1380.78356,0.18683
1382.71203,0.18754
1384.64050,0.19326
1386.56897,0.20094
1388.49743,0.20143
1390.42590,0.19657
1392.35437,0.19637
1394.28284,0.20267
1396.21131,0.20567
1398.13978,0.20037
1400.06825,0.19146
1401.99672,0.18676
1403.92518,0.19008
1405.85365,0.19455
1407.78212,0.19469
1409.71059,0.19510
1411.63906,0.19570
1413.56753,0.19538
1415.49600,0.19754
1417.42446,0.20261
1419.35293,0.20276
1421.28140,0.19784
1423.20987,0.19806
1425.13834,0.19931
1427.06681,0.19856
1428.99528,0.19797
1430.92375,0.19385
1432.85221,0.19113
1434.78068,0.19506
1436.70915,0.19740
1438.63762,0.19369
1440.56609,0.19099
1442.49456,0.18911
1444.42303,0.18913
1446.35149,0.19327
1448.27996,0.19612
1450.20843,0.19497
1452.13690,0.19574
1454.06537,0.20313
1455.99384,0.22185
1457.92231,0.23563
1459.85077,0.22098
1461.77924,0.20702
1463.70771,0.20420
1465.63618,0.20451
1467.56465,0.20051
1469.49312,0.19871
1471.42159,0.20480
1473.35006,0.21518
1475.27852,0.21756
1477.20699,0.21222
1479.13546,0.20523
1481.06393,0.20172
1482.99240,0.20190
1484.92087,0.20390
1486.84934,0.20978
1488.77780,0.21643
1490.70627,0.20950
1492.63474,0.19868
1494.56321,0.19995
1496.49168,0.21006
1498.42015,0.21223
1500.34862,0.20622
1502.27709,0.20593
1504.20555,0.21621
1506.13402,0.23597
1508.06249,0.23448
1509.99096,0.21871
1511.91943,0.21461
1513.84790,0.21891
1515.77637,0.22797
1517.70483,0.23339
1519.63330,0.23333
1521.56177,0.23419
1523.49024,0.23156
1525.41871,0.22680
1527.34718,0.22030
1529.27565,0.21464
1531.20412,0.21389
1533.13258,0.21489
1535.06105,0.21472
1536.98952,0.21778
1538.91799,0.23167
1540.84646,0.25091
1542.77493,0.24325
1544.70340,0.22235
1546.63186,0.20608
1548.56033,0.20159
1550.48880,0.20838
1552.41727,0.21874
1554.34574,0.22639
1556.27421,0.23379
1558.20268,0.24459
1560.13115,0.23259
1562.05961,0.21401
1563.98808,0.20747
1565.91655,0.20849
1567.84502,0.21359
1569.77349,0.21426
1571.70196,0.20615
1573.63043,0.20392
1575.55889,0.20924
1577.48736,0.20554
1579.41583,0.19587
1581.34430,0.18933
1583.27277,0.18590
1585.20124,0.18743
1587.12971,0.19211
1589.05818,0.19550
1590.98664,0.19453
1592.91511,0.19265
1594.84358,0.19437
1596.77205,0.19506
1598.70052,0.19338
1600.62899,0.19467
1602.55746,0.19803
1604.48592,0.19802
1606.41439,0.19531
1608.34286,0.19284
1610.27133,0.19146
1612.19980,0.19360
1614.12827,0.20138
1616.05674,0.21106
1617.98521,0.20866
1619.91367,0.20224
1621.84214,0.20572
1623.77061,0.21354
1625.69908,0.21626
1627.62755,0.21753
1629.55602,0.21797
1631.48449,0.21726
1633.41295,0.22022
1635.34142,0.22610
1637.26989,0.22173
1639.19836,0.21232
1641.12683,0.20695
1643.05530,0.21022
1644.98377,0.22652
1646.91223,0.24092
1648.84070,0.23426
1650.76917,0.23396
1652.69764,0.24497
1654.62611,0.23317
1656.55458,0.21459
1658.48305,0.20842
1660.41152,0.21549
1662.33998,0.22753
1664.26845,0.22696
1666.19692,0.22133
1668.12539,0.22176
1670.05386,0.22165
1671.98233,0.21868
1673.91080,0.21947
1675.83926,0.21875
1677.76773,0.21639
1679.69620,0.21906
1681.62467,0.22823
1683.55314,0.23848
1685.48161,0.23096
1687.41008,0.21896
1689.33855,0.21410
1691.26701,0.21257
1693.19548,0.21603
1695.12395,0.22851
1697.05242,0.24719
1698.98089,0.25564
1700.90936,0.24215
1702.83783,0.22852
1704.76629,0.22369
1706.69476,0.21613
1708.62323,0.20852
1710.55170,0.20808
1712.48017,0.21522
1714.40864,0.22780
1716.33711,0.23748
1718.26558,0.22959
1720.19404,0.21394
1722.12251,0.20358
1724.05098,0.19895
1725.97945,0.19977
1727.90792,0.20542
1729.83639,0.21273
1731.76486,0.21832
1733.69332,0.22051
1735.62179,0.21466
1737.55026,0.20918
1739.47873,0.21060
1741.40720,0.21663
1743.33567,0.22040
1745.26414,0.22129
1747.19261,0.22223
1749.12107,0.22289
1751.04954,0.22085
1752.97801,0.21532
1754.90648,0.20964
1756.83495,0.20653
1758.76342,0.20732
1760.69189,0.21132
1762.62035,0.21132
1764.54882,0.20632
1766.47729,0.20506
1768.40576,0.20930
1770.33423,0.21596
1772.26270,0.21991
1774.19117,0.21449
1776.11964,0.20644
1778.04810,0.20484
1779.97657,0.21007
1781.90504,0.21356
1783.83351,0.21068
1785.76198,0.20529
1787.69045,0.20336
1789.61892,0.20841
1791.54738,0.21667
1793.47585,0.21801
1795.40432,0.21395
1797.33279,0.21069
1799.26126,0.20879
1801.18973,0.20765
1803.11820,0.20684
1805.04666,0.20730
1806.97513,0.20872
1808.90360,0.21062
1810.83207,0.21195
1812.76054,0.21033
1814.68901,0.20882
1816.61748,0.20766
1818.54595,0.19883
1820.47441,0.18834
1822.40288,0.19318
1824.33135,0.20596
1826.25982,0.20847
1828.18829,0.20756
1830.11676,0.20803
1832.04523,0.20473
1833.97369,0.20229
1835.90216,0.20293
1837.83063,0.20403
1839.75910,0.20508
1841.68757,0.20887
1843.61604,0.21495
1845.54451,0.21533
1847.47298,0.20953
1849.40144,0.20285
1851.32991,0.19715
1853.25838,0.19463
1855.18685,0.19514
1857.11532,0.19658
1859.04379,0.19747
1860.97226,0.19820
1862.90072,0.20138
1864.82919,0.20584
1866.75766,0.20892
1868.68613,0.20910
1870.61460,0.20420
1872.54307,0.19898
1874.47154,0.19892
1876.40001,0.20262
1878.32847,0.20597
1880.25694,0.20768
1882.18541,0.20803
1884.11388,0.20699
1886.04235,0.20492
1887.97082,0.20381
1889.89929,0.20364
1891.82775,0.20187
1893.75622,0.20012
1895.68469,0.20083
1897.61316,0.20186
1899.54163,0.20197
1901.47010,0.20362
1903.39857,0.20624
1905.32704,0.20673
1907.25550,0.20584
1909.18397,0.20641
1911.11244,0.20859
1913.04091,0.20946
1914.96938,0.20858
1916.89785,0.20786
1918.82632,0.20644
1920.75478,0.20598
1922.68325,0.20809
1924.61172,0.20749
1926.54019,0.20354
1928.46866,0.20080
1930.39713,0.20084
1932.32560,0.20137
1934.25407,0.20036
1936.18253,0.20078
1938.11100,0.20399
1940.03947,0.20809
1941.96794,0.21201
1943.89641,0.21226
1945.82488,0.20830
1947.75335,0.20439
1949.68181,0.20182
1951.61028,0.20007
1953.53875,0.19884
1955.46722,0.19658
1957.39569,0.19478
1959.32416,0.19703
1961.25263,0.20144
1963.18110,0.20389
1965.10956,0.20456
1967.03803,0.20494
1968.96650,0.20492
1970.89497,0.20545
1972.82344,0.20700
1974.75191,0.20590
1976.68038,0.19787
1978.60884,0.19106
1980.53731,0.19723
1982.46578,0.20623
1984.39425,0.20630
1986.32272,0.20395
1988.25119,0.20343
1990.17966,0.20310
1992.10812,0.20245
1994.03659,0.20215
1995.96506,0.20302
1997.89353,0.20479
1999.82200,0.20692
2001.75047,0.20750
2003.67894,0.20507
2005.60741,0.20248
2007.53587,0.20338
2009.46434,0.20509
2011.39281,0.20526
2013.32128,0.20609
2015.24975,0.20525
2017.17822,0.20028
2019.10669,0.19684
2021.03515,0.19886
2022.96362,0.20244
2024.89209,0.20356
2026.82056,0.20270
2028.74903,0.20315
2030.67750,0.20538
2032.60597,0.20541
2034.53444,0.20243
2036.46290,0.20062
2038.39137,0.20152
2040.31984,0.20274
2042.24831,0.20364
2044.17678,0.20410
2046.10525,0.20294
2048.03372,0.20083
2049.96218,0.19848
2051.89065,0.19780
2053.81912,0.20083
2055.74759,0.20487
2057.67606,0.20635
2059.60453,0.20509
2061.53300,0.20397
2063.46147,0.20600
2065.38993,0.20935
2067.31840,0.20928
2069.24687,0.20566
2071.17534,0.20356
2073.10381,0.20511
2075.03228,0.20680
2076.96075,0.20668
2078.88921,0.20597
2080.81768,0.20503
2082.74615,0.20399
2084.67462,0.20537
2086.60309,0.20984
2088.53156,0.21218
2090.46003,0.20920
2092.38850,0.20511
2094.31696,0.20390
2096.24543,0.20514
2098.17390,0.20677
2100.10237,0.20712
2102.03084,0.20642
2103.95931,0.20490
2105.88778,0.20304
2107.81624,0.20258
2109.74471,0.20351
2111.67318,0.20448
2113.60165,0.20399
2115.53012,0.20206
2117.45859,0.20065
2119.38706,0.20073
2121.31553,0.20125
2123.24399,0.20115
2125.17246,0.20197
2127.10093,0.20414
2129.02940,0.20456
2130.95787,0.20403
2132.88634,0.20769
2134.81481,0.21391
2136.74327,0.21717
2138.67174,0.21606
2140.60021,0.21186
2142.52868,0.20941
2144.45715,0.21004
2146.38562,0.20940
2148.31409,0.20658
2150.24255,0.20355
2152.17102,0.20221
2154.09949,0.20373
2156.02796,0.20676
2157.95643,0.20811
2159.88490,0.20816
2161.81337,0.20911
2163.74184,0.20915
2165.67030,0.20755
2167.59877,0.20600
2169.52724,0.20477
2171.45571,0.20380
2173.38418,0.20308
2175.31265,0.20293
2177.24112,0.20433
2179.16958,0.20693
2181.09805,0.20827
2183.02652,0.20671
2184.95499,0.20364
2186.88346,0.20177
2188.81193,0.20250
2190.74040,0.20420
2192.66887,0.20440
2194.59733,0.20404
2196.52580,0.20402
2198.45427,0.20356
2200.38274,0.20534
2202.31121,0.20874
2204.23968,0.20852
2206.16815,0.20620
2208.09661,0.20494
2210.02508,0.20366
2211.95355,0.20360
2213.88202,0.20524
2215.81049,0.20634
2217.73896,0.20857
2219.66743,0.21218
2221.59590,0.21124
2223.52436,0.20673
2225.45283,0.20589
2227.38130,0.20664
2229.30977,0.20494
2231.23824,0.20286
2233.16671,0.20157
2235.09518,0.20222
2237.02364,0.20552
2238.95211,0.20744
2240.88058,0.20588
2242.80905,0.20493
2244.73752,0.20607
2246.66599,0.20623
2248.59446,0.20653
2250.52293,0.20936
2252.45139,0.21226
2254.37986,0.21289
2256.30833,0.21202
2258.23680,0.21016
2260.16527,0.20747
2262.09374,0.20505
2264.02221,0.20377
2265.95067,0.20402
2267.87914,0.20433
2269.80761,0.20441
2271.73608,0.20603
2273.66455,0.20703
2275.59302,0.20605
2277.52149,0.20485
2279.44996,0.20440
2281.37842,0.20517
2283.30689,0.20518
2285.23536,0.20269
2287.16383,0.20015
2289.09230,0.19959
2291.02077,0.19759
2292.94924,0.19205
2294.87770,0.18789
2296.80617,0.18995
2298.73464,0.19696
2300.66311,0.20304
2302.59158,0.20571
2304.52005,0.20717
2306.44852,0.20743
2308.37699,0.20694
2310.30545,0.20839
2312.23392,0.21026
2314.16239,0.20774
2316.09086,0.20350
2318.01933,0.20414
2319.94780,0.20600
2321.87627,0.20347
2323.80473,0.19979
2325.73320,0.19432
2327.66167,0.18499
2329.59014,0.18286
2331.51861,0.19557
2333.44708,0.21193
2335.37555,0.22294
2337.30401,0.22519
2339.23248,0.21465
2341.16095,0.20126
2343.08942,0.19641
2345.01789,0.19538
2346.94636,0.19827
2348.87483,0.20576
2350.80330,0.21104
2352.73176,0.21097
2354.66023,0.21271
2356.58870,0.21742
2358.51717,0.21098
2360.44564,0.19941
2362.37411,0.20452
2364.30258,0.22161
2366.23104,0.23471
2368.15951,0.23821
2370.08798,0.23019
2372.01645,0.21888
2373.94492,0.21443
2375.87339,0.21454
2377.80186,0.21172
2379.73033,0.20626
2381.65879,0.20203
2383.58726,0.20066
2385.51573,0.20168
2387.44420,0.20243
2389.37267,0.20246
2391.30114,0.20312
2393.22961,0.20491
2395.15807,0.20740
2397.08654,0.20719
2399.01501,0.20471
2400.94348,0.20443
2402.87195,0.20593
2404.80042,0.20697
2406.72889,0.20843
2408.65736,0.21093
2410.58582,0.21185
2412.51429,0.21090
2414.44276,0.21167
2416.37123,0.21242
2418.29970,0.20819
2420.22817,0.20303
2422.15664,0.20304
2424.08510,0.20396
2426.01357,0.20077
2427.94204,0.19818
2429.87051,0.20055
2431.79898,0.20413
2433.72745,0.20543
2435.65592,0.20498
2437.58439,0.20573
2439.51285,0.20908
2441.44132,0.21005
2443.36979,0.20681
2445.29826,0.20524
2447.22673,0.20824
2449.15520,0.21208
2451.08367,0.21150
2453.01213,0.20555
2454.94060,0.20036
2456.86907,0.20049
2458.79754,0.20290
2460.72601,0.20536
2462.65448,0.20751
2464.58295,0.20894
2466.51142,0.21087
2468.43988,0.21177
2470.36835,0.20919
2472.29682,0.20656
2474.22529,0.20793
2476.15376,0.20991
2478.08223,0.20923
2480.01070,0.20860
2481.93916,0.20849
2483.86763,0.20654
2485.79610,0.20402
2487.72457,0.20369
2489.65304,0.20402
2491.58151,0.20490
2493.50998,0.20835
2495.43844,0.21087
2497.36691,0.20996
2499.29538,0.20648
2501.22385,0.20219
2503.15232,0.20161
2505.08079,0.20425
2507.00926,0.20641
2508.93773,0.20785
2510.86619,0.20704
2512.79466,0.20489
2514.72313,0.20584
2516.65160,0.20885
2518.58007,0.21081
2520.50854,0.21185
2522.43701,0.21265
2524.36547,0.21278
2526.29394,0.21079
2528.22241,0.20855
2530.15088,0.20945
2532.07935,0.21024
2534.00782,0.20730
2535.93629,0.20486
2537.86476,0.20693
2539.79322,0.21117
2541.72169,0.21391
2543.65016,0.21402
2545.57863,0.21189
2547.50710,0.20887
2549.43557,0.20640
2551.36404,0.20471
2553.29250,0.20418
2555.22097,0.20664
2557.14944,0.21110
2559.07791,0.21272
2561.00638,0.21128
2562.93485,0.21071
2564.86332,0.21059
2566.79179,0.21041
2568.72025,0.21233
2570.64872,0.21457
2572.57719,0.21542
2574.50566,0.21599
2576.43413,0.21561
2578.36260,0.21439
2580.29107,0.21414
2582.21953,0.21362
2584.14800,0.21198
2586.07647,0.21134
2588.00494,0.21037
2589.93341,0.20891
2591.86188,0.20894
2593.79035,0.20912
2595.71882,0.21028
2597.64728,0.21315
2599.57575,0.21478
2601.50422,0.21500
2603.43269,0.21637
2605.36116,0.21789
2607.28963,0.21880
2609.21810,0.22009
2611.14656,0.21997
2613.07503,0.21785
2615.00350,0.21317
2616.93197,0.20668
2618.86044,0.20386
2620.78891,0.20649
2622.71738,0.20974
2624.64585,0.21040
2626.57431,0.21048
2628.50278,0.21192
2630.43125,0.21409
2632.35972,0.21426
2634.28819,0.21149
2636.21666,0.20927
2638.14513,0.20937
2640.07359,0.21020
2642.00206,0.21136
2643.93053,0.21349
2645.85900,0.21501
2647.78747,0.21394
2649.71594,0.21251
2651.64441,0.21475
2653.57288,0.21725
2655.50134,0.21532
2657.42981,0.21348
2659.35828,0.21488
2661.28675,0.21607
2663.21522,0.21355
2665.14369,0.21022
2667.07216,0.21083
2669.00062,0.21255
2670.92909,0.21329
2672.85756,0.21477
2674.78603,0.21506
2676.71450,0.21343
2678.64297,0.21320
2680.57144,0.21449
2682.49990,0.21378
2684.42837,0.20872
2686.35684,0.20379
2688.28531,0.20491
2690.21378,0.20951
2692.14225,0.21360
2694.07072,0.21545
2695.99919,0.21582
2697.92765,0.21765
2699.85612,0.21944
2701.78459,0.21912
2703.71306,0.21692
2705.64153,0.21498
2707.57000,0.21473
2709.49847,0.21337
2711.42693,0.21196
2713.35540,0.21389
2715.28387,0.21630
2717.21234,0.21715
2719.14081,0.21886
2721.06928,0.22126
2722.99775,0.22156
2724.92622,0.21987
2726.85468,0.21930
2728.78315,0.22031
2730.71162,0.22146
2732.64009,0.22220
2734.56856,0.22065
2736.49703,0.21776
2738.42550,0.21888
2740.35396,0.22310
2742.28243,0.22296
2744.21090,0.21835
2746.13937,0.21627
2748.06784,0.21853
2749.99631,0.22209
2751.92478,0.22489
2753.85325,0.22498
2755.78171,0.22239
2757.71018,0.22159
2759.63865,0.22277
2761.56712,0.22064
2763.49559,0.21771
2765.42406,0.22048
2767.35253,0.22407
2769.28099,0.22186
2771.20946,0.21793
2773.13793,0.21695
2775.06640,0.21980
2776.99487,0.22410
2778.92334,0.22455
2780.85181,0.22226
2782.78028,0.22252
2784.70874,0.22374
2786.63721,0.22340
2788.56568,0.22482
2790.49415,0.22685
2792.42262,0.22598
2794.35109,0.22454
2796.27956,0.22414
2798.20802,0.22316
2800.13649,0.22131
2802.06496,0.22071
2803.99343,0.22140
2805.92190,0.22071
2807.85037,0.22022
2809.77884,0.22278
2811.70731,0.22418
2813.63577,0.22233
2815.56424,0.22286
2817.49271,0.22483
2819.42118,0.22363
2821.34965,0.22069
2823.27812,0.21914
2825.20659,0.22258
2827.13505,0.22793
2829.06352,0.22814
2830.99199,0.22694
2832.92046,0.22905
2834.84893,0.22941
2836.77740,0.22606
2838.70587,0.22480
2840.63433,0.22563
2842.56280,0.22407
2844.49127,0.22354
2846.41974,0.22818
2848.34821,0.23264
2850.27668,0.22949
2852.20515,0.22177
2854.13362,0.21885
2856.06208,0.22151
2857.99055,0.22430
2859.91902,0.22611
2861.84749,0.22860
2863.77596,0.23004
2865.70443,0.22803
2867.63290,0.22498
2869.56136,0.22428
2871.48983,0.22531
2873.41830,0.22390
2875.34677,0.22035
2877.27524,0.22059
2879.20371,0.22539
2881.13218,0.22843
2883.06065,0.22615
2884.98911,0.22379
2886.91758,0.22520
2888.84605,0.22761
2890.77452,0.22799
2892.70299,0.22522
2894.63146,0.22254
2896.55993,0.22243
2898.48839,0.22312
2900.41686,0.22371
2902.34533,0.22257
2904.27380,0.22042
2906.20227,0.22217
2908.13074,0.22668
2910.05921,0.22764
2911.98768,0.22410
2913.91614,0.21963
2915.84461,0.21876
2917.77308,0.22198
2919.70155,0.22300
2921.63002,0.21957
2923.55849,0.21498
2925.48696,0.21332
2927.41542,0.21696
2929.34389,0.21719
2931.27236,0.21352
2933.20083,0.21856
2935.12930,0.22443
2937.05777,0.22384
2938.98624,0.22744
2940.91471,0.23206
2942.84317,0.22909
2944.77164,0.22102
2946.70011,0.21388
2948.62858,0.21404
2950.55705,0.21936
2952.48552,0.22184
2954.41399,0.21846
2956.34245,0.21133
2958.27092,0.20908
2960.19939,0.21599
2962.12786,0.22430
2964.05633,0.22737
2965.98480,0.22497
2967.91327,0.22213
2969.84174,0.22243
2971.77020,0.22303
2973.69867,0.22444
2975.62714,0.22643
2977.55561,0.22505
2979.48408,0.22289
2981.41255,0.22341
2983.34102,0.22620
2985.26948,0.22862
2987.19795,0.22706
2989.12642,0.22430
2991.05489,0.22605
2992.98336,0.23235
2994.91183,0.23768
2996.84030,0.23653
2998.76877,0.23089
3000.69723,0.22855
3002.62570,0.23167
3004.55417,0.23436
3006.48264,0.23308
3008.41111,0.22962
3010.33958,0.22523
3012.26805,0.21559
3014.19651,0.19443
3016.12498,0.17125
3018.05345,0.17311
3019.98192,0.20468
3021.91039,0.23288
3023.83886,0.23835
3025.76733,0.23375
3027.69579,0.23044
3029.62426,0.22991
3031.55273,0.23243
3033.48120,0.23528
3035.40967,0.23320
3037.33814,0.22635
3039.26661,0.22127
3041.19508,0.22130
3043.12354,0.22437
3045.05201,0.22699
3046.98048,0.22725
3048.90895,0.22868
3050.83742,0.23249
3052.76589,0.23254
3054.69436,0.22674
3056.62282,0.22072
3058.55129,0.22159
3060.47976,0.22758
3062.40823,0.23037
3064.33670,0.22569
3066.26517,0.21584
3068.19364,0.21147
3070.12211,0.21764
3072.05057,0.22584
3073.97904,0.22623
3075.90751,0.22034
3077.83598,0.21989
3079.76445,0.22567
3081.69292,0.23035
3083.62139,0.22905
3085.54985,0.22104
3087.47832,0.21708
3089.40679,0.22135
3091.33526,0.22480
3093.26373,0.22317
3095.19220,0.22191
3097.12067,0.22671
3099.04914,0.23130
3100.97760,0.22816
3102.90607,0.22166
3104.83454,0.22112
3106.76301,0.22774
3108.69148,0.23171
3110.61995,0.22755
3112.54842,0.22272
3114.47688,0.22556
3116.40535,0.23265
3118.33382,0.23477
3120.26229,0.23030
3122.19076,0.22537
3124.11923,0.22647
3126.04770,0.23136
3127.97617,0.23185
3129.90463,0.22949
3131.83310,0.23231
3133.76157,0.23795
3135.69004,0.23771
3137.61851,0.23330
3139.54698,0.23287
3141.47545,0.23603
3143.40391,0.23841
3145.33238,0.23802
3147.26085,0.23466
3149.18932,0.23209
3151.11779,0.23192
3153.04626,0.23304
3154.97473,0.23463
3156.90320,0.23614
3158.83166,0.23857
3160.76013,0.24005
3162.68860,0.23917
3164.61707,0.23848
3166.54554,0.23913
3168.47401,0.24059
3170.40248,0.24171
3172.33094,0.24025
3174.25941,0.23698
3176.18788,0.23523
3178.11635,0.23498
3180.04482,0.23456
3181.97329,0.23469
3183.90176,0.23697
3185.83022,0.23796
3187.75869,0.23424
3189.68716,0.23181
3191.61563,0.23328
3193.54410,0.23444
3195.47257,0.23811
3197.40104,0.24486
3199.32951,0.24543
3201.25797,0.24005
3203.18644,0.23855
3205.11491,0.24088
3207.04338,0.24081
3208.97185,0.23728
3210.90032,0.23326
3212.82879,0.23138
3214.75725,0.22877
3216.68572,0.22647
3218.61419,0.23024
3220.54266,0.23641
3222.47113,0.23989
3224.39960,0.23830
3226.32807,0.23140
3228.25654,0.22710
3230.18500,0.22975
3232.11347,0.23394
3234.04194,0.23496
3235.97041,0.23238
3237.89888,0.23066
3239.82735,0.23356
3241.75582,0.23457
3243.68428,0.22996
3245.61275,0.22656
3247.54122,0.22990
3249.46969,0.23615
3251.39816,0.23666
3253.32663,0.23374
3255.25510,0.23238
3257.18357,0.23048
3259.11203,0.23067
3261.04050,0.23430
3262.96897,0.23754
3264.89744,0.24039
3266.82591,0.24253
3268.75438,0.24020
3270.68285,0.23539
3272.61131,0.23452
3274.53978,0.23563
3276.46825,0.23422
3278.39672,0.23241
3280.32519,0.23125
3282.25366,0.23039
3284.18213,0.22941
3286.11060,0.22753
3288.03906,0.22742
3289.96753,0.22912
3291.89600,0.23066
3293.82447,0.23122
3295.75294,0.23035
3297.68141,0.23042
3299.60988,0.23248
3301.53834,0.23305
3303.46681,0.22958
3305.39528,0.22744
3307.32375,0.23079
3309.25222,0.23555
3311.18069,0.23741
3313.10916,0.23485
3315.03763,0.23129
3316.96609,0.23229
3318.89456,0.23755
3320.82303,0.24136
3322.75150,0.24175
3324.67997,0.23905
3326.60844,0.23270
3328.53691,0.22785
3330.46537,0.22781
3332.39384,0.22844
3334.32231,0.22943
3336.25078,0.23516
3338.17925,0.24190
3340.10772,0.24371
3342.03619,0.24264
3343.96466,0.24021
3345.89312,0.23719
3347.82159,0.23693
3349.75006,0.24147
3351.67853,0.24442
3353.60700,0.23721
3355.53547,0.22836
3357.46394,0.22880
3359.39240,0.23276
3361.32087,0.23639
3363.24934,0.24119
3365.17781,0.24457
3367.10628,0.24677
3369.03475,0.24689
3370.96322,0.24362
3372.89168,0.24162
3374.82015,0.24310
3376.74862,0.24365
3378.67709,0.24154
3380.60556,0.24149
3382.53403,0.24321
3384.46250,0.24372
3386.39097,0.24391
3388.31943,0.24305
3390.24790,0.24138
3392.17637,0.24051
3394.10484,0.23886
3396.03331,0.23565
3397.96178,0.23381
3399.89025,0.23496
3401.81871,0.23776
3403.74718,0.23821
3405.67565,0.23523
3407.60412,0.23357
3409.53259,0.23248
3411.46106,0.22879
3413.38953,0.22558
3415.31800,0.22499
3417.24646,0.22584
3419.17493,0.22590
3421.10340,0.22379
3423.03187,0.22179
3424.96034,0.22059
3426.88881,0.22118
3428.81728,0.22551
3430.74574,0.22849
3432.67421,0.22797
3434.60268,0.22724
3436.53115,0.22648
3438.45962,0.22513
3440.38809,0.22277
3442.31656,0.22147
3444.24503,0.22371
3446.17349,0.22826
3448.10196,0.23118
3450.03043,0.23018
3451.95890,0.22835
3453.88737,0.22656
3455.81584,0.22418
3457.74431,0.22127
3459.67277,0.21731
3461.60124,0.21549
3463.52971,0.21528
3465.45818,0.21264
3467.38665,0.21115
3469.31512,0.21376
3471.24359,0.21815
3473.17206,0.22207
3475.10052,0.22194
3477.02899,0.21878
3478.95746,0.21831
3480.88593,0.21800
3482.81440,0.21364
3484.74287,0.21059
3486.67134,0.21205
3488.59980,0.21253
3490.52827,0.20854
3492.45674,0.20674
3494.38521,0.20933
3496.31368,0.20946
3498.24215,0.20957
3500.17062,0.21393
3502.09909,0.21589
3504.02755,0.21140
3505.95602,0.20691
3507.88449,0.20649
3509.81296,0.20587
3511.74143,0.20212
3513.66990,0.19603
3515.59837,0.18728
3517.52683,0.18175
3519.45530,0.18695
3521.38377,0.19557
3523.31224,0.19674
3525.24071,0.19246
3527.16918,0.18829
3529.09765,0.18496
3531.02611,0.18322
3532.95458,0.18581
3534.88305,0.19137
3536.81152,0.19397
3538.73999,0.19040
3540.66846,0.18375
3542.59693,0.18040
3544.52540,0.18338
3546.45386,0.18953
3548.38233,0.19157
3550.31080,0.18768
3552.23927,0.18420
3554.16774,0.18456
3556.09621,0.18566
3558.02468,0.18494
3559.95314,0.18241
3561.88161,0.18065
3563.81008,0.18320
3565.73855,0.18868
3567.66702,0.18783
3569.59549,0.17949
3571.52396,0.17196
3573.45243,0.16767
3575.38089,0.16561
3577.30936,0.16408
3579.23783,0.16481
3581.16630,0.16874
3583.09477,0.17281
3585.02324,0.17611
3586.95171,0.18003
3588.88017,0.18113
3590.80864,0.17693
3592.73711,0.16891
3594.66558,0.16051
3596.59405,0.16323
3598.52252,0.17479
3600.45099,0.17793
3602.37946,0.17362
3604.30792,0.17469
3606.23639,0.18056
3608.16486,0.18384
3610.09333,0.18063
3612.02180,0.17459
3613.95027,0.16866
3615.87874,0.16701
3617.80720,0.17223
3619.73567,0.17556
3621.66414,0.17078
3623.59261,0.16580
3625.52108,0.16578
3627.44955,0.17291
3629.37802,0.17813
3631.30649,0.17128
3633.23495,0.16412
3635.16342,0.15799
3637.09189,0.15282
3639.02036,0.15268
3640.94883,0.15523
3642.87730,0.15643
3644.80577,0.16043
3646.73423,0.17145
3648.66270,0.18307
3650.59117,0.18040
3652.51964,0.17008
3654.44811,0.16321
3656.37658,0.15966
3658.30505,0.15545
3660.23352,0.15175
3662.16198,0.14931
3664.09045,0.14718
3666.01892,0.14899
3667.94739,0.15592
3669.87586,0.16104
3671.80433,0.16064
3673.73280,0.16302
3675.66126,0.16761
3677.58973,0.16292
3679.51820,0.15288
3681.44667,0.14636
3683.37514,0.14537
3685.30361,0.14707
3687.23208,0.14837
3689.16055,0.14814
3691.08901,0.14939
3693.01748,0.14955
3694.94595,0.14693
3696.87442,0.14558
3698.80289,0.14831
3700.73136,0.15415
3702.65983,0.15629
3704.58829,0.15382
3706.51676,0.15509
3708.44523,0.16077
3710.37370,0.16501
3712.30217,0.16293
3714.23064,0.15875
3716.15911,0.15912
3718.08757,0.16434
3720.01604,0.16633
3721.94451,0.16036
3723.87298,0.15483
3725.80145,0.15144
3727.72992,0.14660
3729.65839,0.14358
3731.58686,0.14536
3733.51532,0.15181
3735.44379,0.15486
3737.37226,0.15335
3739.30073,0.15436
3741.22920,0.15448
3743.15767,0.15217
3745.08614,0.15602
3747.01460,0.16608
3748.94307,0.17341
3750.87154,0.17292
3752.80001,0.16200
3754.72848,0.15415
3756.65695,0.15157
3758.58542,0.14848
3760.51389,0.14245
3762.44235,0.13846
3764.37082,0.14163
3766.29929,0.14860
3768.22776,0.14981
3770.15623,0.14336
3772.08470,0.13399
3774.01317,0.12901
3775.94163,0.13213
3777.87010,0.13977
3779.79857,0.14196
3781.72704,0.13829
3783.65551,0.13615
3785.58398,0.13329
3787.51245,0.13068
3789.44092,0.13130
3791.36938,0.13270
3793.29785,0.13698
3795.22632,0.14447
3797.15479,0.14878
3799.08326,0.14943
3801.01173,0.15043
3802.94020,0.14907
3804.86866,0.14593
3806.79713,0.14441
3808.72560,0.14286
3810.65407,0.14095
3812.58254,0.14177
3814.51101,0.14491
3816.43948,0.14791
3818.36795,0.15101
3820.29641,0.14726
3822.22488,0.13349
3824.15335,0.12806
3826.08182,0.12829
3828.01029,0.12744
3829.93876,0.12808
3831.86723,0.12990
3833.79569,0.13227
3835.72416,0.14082
3837.65263,0.15279
3839.58110,0.15206
3841.50957,0.14256
3843.43804,0.13622
3845.36651,0.13629
3847.29498,0.14178
3849.22344,0.14728
3851.15191,0.15124
3853.08038,0.15656
3855.00885,0.15035
3856.93732,0.13606
3858.86579,0.12962
3860.79426,0.13213
3862.72272,0.13652
3864.65119,0.13505
3866.57966,0.13266
3868.50813,0.14026
3870.43660,0.15042
3872.36507,0.14548
3874.29354,0.13622
3876.22200,0.13437
3878.15047,0.13652
3880.07894,0.13757
3882.00741,0.13747
3883.93588,0.14070
3885.86435,0.14043
3887.79282,0.13158
3889.72129,0.12624
3891.64975,0.12770
3893.57822,0.13030
3895.50669,0.13372
3897.43516,0.13851
3899.36363,0.13955
3901.29210,0.13545
3903.22057,0.13346
3905.14903,0.13135
3907.07750,0.12729
3909.00597,0.12512
3910.93444,0.12397
3912.86291,0.12168
3914.79138,0.11801
3916.71985,0.11634
3918.64832,0.11943
3920.57678,0.12401
3922.50525,0.12855
3924.43372,0.13248
3926.36219,0.13312
3928.29066,0.13177
3930.21913,0.13069
3932.14760,0.12793
3934.07606,0.12279
3936.00453,0.11954
3937.93300,0.12130
3939.86147,0.12529
3941.78994,0.12584
3943.71841,0.12570
3945.64688,0.13055
3947.57535,0.13470
3949.50381,0.13338
3951.43228,0.12988
3953.36075,0.12636
3955.28922,0.12344
3957.21769,0.12160
3959.14616,0.11928
3961.07463,0.11583
3963.00309,0.11662
3964.93156,0.12310
3966.86003,0.12632
3968.78850,0.12231
3970.71697,0.11781
3972.64544,0.11815
3974.57391,0.11790
3976.50238,0.11486
3978.43084,0.11591
3980.35931,0.11889
3982.28778,0.11847
3984.21625,0.11791
3986.14472,0.11722
3988.07319,0.11319
3990.00166,0.11070
3991.93012,0.11281
3993.85859,0.11458
3995.78706,0.11515
3997.71553,0.11525
3999.64400,0.11242
4001.57247,0.11182
4003.50094,0.11912
4005.42941,0.12508
4007.35787,0.12374
4009.28634,0.12449
4011.21481,0.12944
4013.14328,0.12819
4015.07175,0.12033
4017.00022,0.11649
4018.92869,0.11699
4020.85715,0.11435
4022.78562,0.11033
4024.71409,0.10980
4026.64256,0.11269
4028.57103,0.11613
4030.49950,0.11610
4032.42797,0.11198
4034.35644,0.10744
4036.28490,0.10825
4038.21337,0.11463
4040.14184,0.11687
4042.07031,0.11356
4043.99878,0.11321
4045.92725,0.11515
4047.85572,0.11347
4049.78418,0.11093
4051.71265,0.11209
4053.64112,0.11579
4055.56959,0.12078
4057.49806,0.12168
4059.42653,0.11166
4061.35500,0.09791
4063.28346,0.09201
4065.21193,0.09629
4067.14040,0.10669
4069.06887,0.11253
4070.99734,0.10963
4072.92581,0.10547
4074.85428,0.10302
4076.78275,0.09915
4078.71121,0.09345
4080.63968,0.09217
4082.56815,0.09875
4084.49662,0.10670
4086.42509,0.10877
4088.35356,0.10319
4090.28203,0.09723
4092.21049,0.09726
4094.13896,0.09874
4096.06743,0.09797
4097.99590,0.09588
4099.92437,0.09603
4101.85284,0.10106
4103.78131,0.10493
4105.70978,0.10561
4107.63824,0.10732
4109.56671,0.10609
4111.49518,0.10021
4113.42365,0.09669
4115.35212,0.09775
4117.28059,0.09922
4119.20906,0.10243
4121.13752,0.10787
4123.06599,0.10730
4124.99446,0.10045
4126.92293,0.09583
4128.85140,0.09601
4130.77987,0.09652
4132.70834,0.09351
4134.63681,0.08808
4136.56527,0.08536
4138.49374,0.09032
4140.42221,0.09993
4142.35068,0.10486
4144.27915,0.10031
4146.20762,0.09177
4148.13609,0.08802
4150.06455,0.08831
4151.99302,0.08743
4153.92149,0.08838
4155.84996,0.09464
4157.77843,0.10155
4159.70690,0.10596
4161.63537,0.10560
4163.56384,0.09837
4165.49230,0.09079
4167.42077,0.08657
4169.34924,0.08365
4171.27771,0.08482
4173.20618,0.08715
4175.13465,0.08439
4177.06312,0.08106
4178.99158,0.08184
4180.92005,0.08484
4182.84852,0.08560
4184.77699,0.08251
4186.70546,0.07978
4188.63393,0.07967
4190.56240,0.08474
4192.49087,0.09884
4194.41933,0.11196
4196.34780,0.10824
4198.27627,0.09287
4200.20474,0.08265
4202.13321,0.08034
4204.06168,0.08058
4205.99015,0.07966
4207.91861,0.07839
4209.84708,0.08058
4211.77555,0.08335
4213.70402,0.08222
4215.63249,0.08019
4217.56096,0.08177
4219.48943,0.08712
4221.41789,0.09246
4223.34636,0.09237
4225.27483,0.08759
4227.20330,0.08342
4229.13177,0.08215
4231.06024,0.08529
4232.98871,0.08880
4234.91718,0.08615
4236.84564,0.08292
4238.77411,0.08461
4240.70258,0.08559
4242.63105,0.08315
4244.55952,0.08065
4246.48799,0.07824
4248.41646,0.07379
4250.34492,0.06936
4252.27339,0.06838
4254.20186,0.07388
4256.13033,0.08316
4258.05880,0.08380
4259.98727,0.07478
4261.91574,0.06852
4263.84421,0.06999
4265.77267,0.07498
4267.70114,0.07673
4269.62961,0.07321
4271.55808,0.06812
4273.48655,0.06477
4275.41502,0.06332
4277.34349,0.06338
4279.27195,0.06745
4281.20042,0.07446
4283.12889,0.07873
4285.05736,0.07788
4286.98583,0.07577
4288.91430,0.07458
4290.84277,0.06883
4292.77124,0.06055
4294.69970,0.05865
4296.62817,0.06151
4298.55664,0.06299
4300.48511,0.06170
4302.41358,0.06129
4304.34205,0.06403
4306.27052,0.06500
4308.19898,0.06290
4310.12745,0.06366
4312.05592,0.06769
4313.98439,0.06841
4315.91286,0.06498
4317.84133,0.06282
4319.76980,0.05989
4321.69827,0.05397
4323.62673,0.05421
4325.55520,0.06315
4327.48367,0.07055
4329.41214,0.07169
4331.34061,0.06913
4333.26908,0.06188
4335.19755,0.05287
4337.12601,0.05334
4339.05448,0.06067
4340.98295,0.06258
4342.91142,0.05770
4344.83989,0.04777
4346.76836,0.03663
4348.69683,0.03421
4350.62530,0.04260
4352.55376,0.04945
4354.48223,0.04835
4356.41070,0.04812
4358.33917,0.05012
4360.26764,0.04791
4362.19611,0.04392
4364.12458,0.04345
4366.05304,0.04621
4367.98151,0.04932
4369.90998,0.05018
4371.83845,0.04779
4373.76692,0.04462
4375.69539,0.04166
4377.62386,0.03878
4379.55232,0.03780
4381.48079,0.03870
4383.40926,0.04095
4385.33773,0.04472
4387.26620,0.04909
4389.19467,0.05097
4391.12314,0.04946
4393.05161,0.05007
4394.98007,0.05158
4396.90854,0.04759
4398.83701,0.04393
4400.76548,0.04641
4402.69395,0.04907
4404.62242,0.04628
4406.55089,0.03858
4408.47935,0.03278
4410.40782,0.03385
4412.33629,0.03889
4414.26476,0.04385
4416.19323,0.04188
4418.12170,0.03465
4420.05017,0.03430
4421.97864,0.03679
4423.90710,0.03607
4425.83557,0.03811
4427.76404,0.03805
4429.69251,0.03182
4431.62098,0.02388
4433.54945,0.01667
4435.47792,0.02050
4437.40638,0.03490
4439.33485,0.04234
4441.26332,0.03905
4443.19179,0.03482
4445.12026,0.03669
4447.04873,0.03911
4448.97720,0.03415
4450.90567,0.02920
4452.83413,0.03128
4454.76260,0.03657
4456.69107,0.04210
4458.61954,0.04584
4460.54801,0.04352
4462.47648,0.03839
4464.40495,0.04007
4466.33341,0.04337
4468.26188,0.03969
4470.19035,0.03684
4472.11882,0.03772
4474.04729,0.03660
4475.97576,0.03457
4477.90423,0.03304
4479.83270,0.03319
4481.76116,0.03533
4483.68963,0.03373
4485.61810,0.02535
4487.54657,0.01619
4489.47504,0.01184
4491.40351,0.01247
4493.33198,0.01637
4495.26044,0.01849
4497.18891,0.01897
4499.11738,0.02302
4501.04585,0.02750
4502.97432,0.03151
4504.90279,0.03932
4506.83126,0.04453
4508.75973,0.04141
4510.68819,0.03727
4512.61666,0.03407
4514.54513,0.02872
4516.47360,0.02486
4518.40207,0.02385
4520.33054,0.02365
4522.25901,0.01906
4524.18747,0.00811
4526.11594,0.00479
4528.04441,0.01510
4529.97288,0.02027
4531.90135,0.01594
4533.82982,0.01828
4535.75829,0.02167
4537.68676,0.01602
4539.61522,0.01212
4541.54369,0.01363
4543.47216,0.01519
4545.40063,0.01491
4547.32910,0.01181
4549.25757,0.01282
4551.18604,0.01934
4553.11450,0.02275
4555.04297,0.02293
4556.97144,0.02159
4558.89991,0.01890
4560.82838,0.01890
4562.75685,0.02535
4564.68532,0.03247
4566.61378,0.02850
4568.54225,0.01928
4570.47072,0.01902
4572.39919,0.02726
4574.32766,0.03089
4576.25613,0.02352
4578.18460,0.01593
4580.11307,0.01364
4582.04153,0.01410
4583.97000,0.01991
4585.89847,0.02868
4587.82694,0.02898
4589.75541,0.01774
4591.68388,0.01112
4593.61235,0.01278
4595.54081,0.00812
4597.46928,0.00355
4599.39775,0.00755
4601.32622,0.01017
4603.25469,0.00868
4605.18316,0.01010
4607.11163,0.01718
4609.04010,0.02247
4610.96856,0.02392
4612.89703,0.02645
4614.82550,0.02497
4616.75397,0.02023
4618.68244,0.01962
4620.61091,0.01983
4622.53938,0.01866
4624.46784,0.01998
4626.39631,0.02235
4628.32478,0.02171
4630.25325,0.02087
4632.18172,0.01931
4634.11019,0.01256
4636.03866,0.00645
4637.96713,0.00633
4639.89559,0.00691
4641.82406,0.00557
4643.75253,0.00719
4645.68100,0.01543
4647.60947,0.02795
4649.53794,0.03345
4651.46641,0.02688
4653.39487,0.01617
4655.32334,0.00581
4657.25181,0.00298
4659.18028,0.00906
4661.10875,0.01106
4663.03722,0.00904
4664.96569,0.00880
4666.89416,0.00665
4668.82262,0.00460
4670.75109,0.00747
4672.67956,0.01472
4674.60803,0.02347
4676.53650,0.02840
4678.46497,0.02642
4680.39344,0.01941
4682.32190,0.01142
4684.25037,0.00661
4686.17884,0.00731
4688.10731,0.01434
4690.03578,0.01987
4691.96425,0.01457
4693.89272,0.00836
4695.82119,0.01225
4697.74965,0.01960
4699.67812,0.02242
4701.60659,0.01883
4703.53506,0.01166
4705.46353,0.00821
4707.39200,0.01097
4709.32047,0.01351
4711.24893,0.01243
4713.17740,0.00778
4715.10587,0.00167
4717.03434,0.00367
4718.96281,0.00822
4720.89128,0.00684
4722.81975,0.00830
4724.74821,0.00919
4726.67668,0.00715
4728.60515,0.01315
4730.53362,0.01848
4732.46209,0.00871
4734.39056,-0.00011
4736.31903,0.00649
4738.24750,0.01408
4740.17596,0.01324
4742.10443,0.00694
4744.03290,0.00304
4745.96137,0.00928
4747.88984,0.01801
4749.81831,0.01850
4751.74678,0.01524
4753.67524,0.01184
4755.60371,0.00010
4757.53218,-0.01718
4759.46065,-0.02482
4761.38912,-0.01550
4763.31759,0.00161
4765.24606,0.01053
4767.17453,0.00749
4769.10299,0.00222
4771.03146,0.00485
4772.95993,0.00881
4774.88840,0.00655
4776.81687,0.00856
4778.74534,0.01632
4780.67381,0.01798
4782.60227,0.01363
4784.53074,0.01167
4786.45921,0.01429
4788.38768,0.01966
4790.31615,0.02444
4792.24462,0.02501
4794.17309,0.02296
4796.10156,0.01536
4798.03002,-0.00313
4799.95849,-0.01342
4801.88696,0.00266
4803.81543,0.02005
4805.74390,0.01335
4807.67237,-0.00206
4809.60084,-0.00595
4811.52930,0.00005
4813.45777,0.00630
4815.38624,0.01421
4817.31471,0.02210
4819.24318,0.01869
4821.17165,0.00785
4823.10012,0.00244
4825.02859,0.00237
4826.95705,-0.00194
4828.88552,-0.00712
4830.81399,-0.00396
4832.74246,0.00307
4834.67093,0.00249
4836.59940,-0.01009
4838.52787,-0.01944
4840.45633,-0.01559
4842.38480,-0.01001
4844.31327,-0.00145
4846.24174,0.01405
4848.17021,0.01893
4850.09868,0.00319
4852.02715,-0.01152
4853.95562,-0.00842
4855.88408,-0.00348
4857.81255,-0.00735
4859.74102,-0.00843
4861.66949,0.00146
4863.59796,0.01254
4865.52643,0.01526
4867.45490,0.02276
4869.38336,0.03750
4871.31183,0.03558
4873.24030,0.01216
4875.16877,-0.00356
4877.09724,0.00484
4879.02571,0.01364
4880.95418,0.00543
4882.88265,-0.00202
4884.81111,0.00535
4886.73958,0.01439
4888.66805,0.00964
4890.59652,-0.00447
4892.52499,-0.01230
4894.45346,-0.00997
4896.38193,-0.00305
4898.31039,0.01033
4900.23886,0.02021
4902.16733,0.01882
4904.09580,0.02869
4906.02427,0.05211
4907.95274,0.05508
4909.88121,0.03024
4911.80967,0.00621
4913.73814,-0.00234
4915.66661,-0.00194
4917.59508,0.00426
4919.52355,0.01205
4921.45202,0.01166
4923.38049,0.00580
4925.30896,0.00593
4927.23742,0.00357
4929.16589,-0.00457
4931.09436,-0.00111
4933.02283,0.00941
4934.95130,0.00837
4936.87977,-0.00026
4938.80824,-0.00222
4940.73670,0.00134
4942.66517,-0.00102
4944.59364,-0.00933
4946.52211,-0.00777
4948.45058,0.00743
4950.37905,0.02141
4952.30752,0.03077
4954.23599,0.03526
4956.16445,0.02726
4958.09292,0.01278
4960.02139,0.00564
4961.94986,0.00812
4963.87833,0.01397
4965.80680,0.01775
4967.73527,0.01357
4969.66373,0.00425
4971.59220,0.00226
4973.52067,0.00758
4975.44914,0.01463
4977.37761,0.02933
4979.30608,0.04365
4981.23455,0.04258
4983.16302,0.03599
4985.09148,0.03645
4987.01995,0.04151
4988.94842,0.03635
4990.87689,0.01421
4992.80536,0.00214
4994.73383,0.01879
4996.66230,0.03675
4998.59076,0.03362
5000.51923,0.01965
5002.44770,0.00490
5004.37617,-0.00009
5006.30464,0.00467
5008.23311,-0.00186
5010.16158,-0.01260
5012.09005,-0.00562
5014.01851,0.00186
5015.94698,-0.00498
5017.87545,-0.01191
5019.80392,-0.01229
5021.73239,-0.01107
5023.66086,-0.00537
5025.58933,0.01415
5027.51779,0.03268
5029.44626,0.02618
5031.37473,0.00861
5033.30320,0.00783
5035.23167,0.02089
5037.16014,0.03013
5039.08861,0.03408
5041.01708,0.03451
5042.94554,0.02941
5044.87401,0.02581
5046.80248,0.02858
5048.73095,0.03510
5050.65942,0.04635
5052.58789,0.04931
5054.51636,0.02640
5056.44482,-0.00128
5058.37329,-0.00361
5060.30176,0.01254
5062.23023,0.02509
5064.15870,0.02901
5066.08717,0.03021
5068.01564,0.03054
5069.94410,0.03148
5071.87257,0.03471
5073.80104,0.03752
5075.72951,0.03656
5077.65798,0.03268
5079.58645,0.03394
5081.51492,0.04443
5083.44339,0.04503
5085.37185,0.02629
5087.30032,0.01599
5089.22879,0.02364
5091.15726,0.02734
5093.08573,0.02425
5095.01420,0.02367
5096.94267,0.02819
5098.87113,0.03800
5100.79960,0.04535
5102.72807,0.04104
5104.65654,0.03013
5106.58501,0.02931
5108.51348,0.03947
5110.44195,0.04184
5112.37042,0.03599
5114.29888,0.03087
5116.22735,0.02506
5118.15582,0.02570
5120.08429,0.02668
5122.01276,0.01270
5123.94123,0.00405
5125.86970,0.02015
5127.79816,0.03601
5129.72663,0.02839
5131.65510,0.00749
5133.58357,-0.00580
5135.51204,0.01053
5137.44051,0.04762
5139.36898,0.06458
5141.29745,0.05863
5143.22591,0.05759
5145.15438,0.06323
5147.08285,0.06780
5149.01132,0.06805
5150.93979,0.05058
5152.86826,0.01951
5154.79673,0.00576
5156.72519,0.01531
5158.65366,0.02756
5160.58213,0.03685
5162.51060,0.04462
5164.43907,0.04033
5166.36754,0.01816
5168.29601,0.00330
5170.22448,0.01204
5172.15294,0.02754
5174.08141,0.03725
5176.00988,0.03167
5177.93835,0.01424
5179.86682,0.00464
5181.79529,-0.00056
5183.72376,-0.00960
5185.65222,-0.00778
5187.58069,0.00807
5189.50916,0.02068
5191.43763,0.02503
5193.36610,0.02578
5195.29457,0.02568
5197.22304,0.02772
5199.15151,0.03192
5201.07997,0.03207
5203.00844,0.02573
5204.93691,0.02106
5206.86538,0.02077
5208.79385,0.02015
5210.72232,0.03200
5212.65079,0.05390
5214.57925,0.05832
5216.50772,0.04016
5218.43619,0.01100
5220.36466,-0.00957
5222.29313,-0.00192
5224.22160,0.01509
5226.15007,0.01747
5228.07854,0.01699
5230.00700,0.03389
5231.93547,0.05340
5233.86394,0.04917
5235.79241,0.04718
5237.72088,0.06366
5239.64935,0.06397
5241.57782,0.04818
5243.50628,0.03930
5245.43475,0.03482
5247.36322,0.03447
5249.29169,0.03975
5251.22016,0.04243
5253.14863,0.04437
5255.07710,0.05094
5257.00556,0.05034
5258.93403,0.03768
5260.86250,0.03636
5262.79097,0.04885
5264.71944,0.04054
5266.64791,0.01615
5268.57638,0.01604
5270.50485,0.04288
5272.43331,0.06058
5274.36178,0.05519
5276.29025,0.05425
5278.21872,0.06725
5280.14719,0.06902
5282.07566,0.06083
5284.00413,0.06420
5285.93259,0.07865
5287.86106,0.08906
5289.78953,0.08538
5291.71800,0.08295
5293.64647,0.08380
5295.57494,0.05975
5297.50341,0.02762
5299.43188,0.03523
5301.36034,0.07691
5303.28881,0.10221
5305.21728,0.09024
5307.14575,0.05974
5309.07422,0.03945
5311.00269,0.03540
5312.93116,0.03249
5314.85962,0.03525
5316.78809,0.04171
5318.71656,0.04016
5320.64503,0.04372
5322.57350,0.05045
5324.50197,0.04477
5326.43044,0.03250
5328.35891,0.02580
5330.28737,0.03640
5332.21584,0.05908
5334.14431,0.06478
5336.07278,0.05460
5338.00125,0.05776
5339.92972,0.06402
5341.85819,0.04790
5343.78665,0.02713
5345.71512,0.02534
5347.64359,0.03321
5349.57206,0.04875
5351.50053,0.07024
5353.42900,0.07424
5355.35747,0.06366
5357.28594,0.06545
5359.21440,0.07438
5361.14287,0.06887
5363.07134,0.05098
5364.99981,0.05332
5366.92828,0.08022
5368.85675,0.09563
5370.78522,0.09023
5372.71368,0.08507
5374.64215,0.08560
5376.57062,0.07604
5378.49909,0.07001
5380.42756,0.09054
5382.35603,0.12104
5384.28450,0.13995
5386.21297,0.12295
5388.14143,0.06196
5390.06990,0.01392
5391.99837,0.02370
5393.92684,0.06184
5395.85531,0.07331
5397.78378,0.05869
5399.71225,0.04238
5401.64071,0.04112
5403.56918,0.05327
5405.49765,0.06513
5407.42612,0.08278
5409.35459,0.11068
5411.28306,0.12949
5413.21153,0.13032
5415.13999,0.11727
5417.06846,0.08918
5418.99693,0.06212
5420.92540,0.05229
5422.85387,0.05057
5424.78234,0.05379
5426.71081,0.06476
5428.63928,0.07269
5430.56774,0.07872
5432.49621,0.08851
5434.42468,0.09590
5436.35315,0.09747
5438.28162,0.09388
5440.21009,0.09238
5442.13856,0.09582
5444.06702,0.09597
5445.99549,0.09782
5447.92396,0.10628
5449.85243,0.10433
5451.78090,0.09407
5453.70937,0.10051
5455.63784,0.12227
5457.56631,0.12771
5459.49477,0.10140
5461.42324,0.07380
5463.35171,0.07358
5465.28018,0.08215
5467.20865,0.07687
5469.13712,0.06159
5471.06559,0.04712
5472.99405,0.04596
5474.92252,0.06355
5476.85099,0.07791
5478.77946,0.08261
5480.70793,0.09956
5482.63640,0.11810
5484.56487,0.11186
5486.49334,0.09363
5488.42180,0.08567
5490.35027,0.07737
5492.27874,0.05836
5494.20721,0.03640
5496.13568,0.02786
5498.06415,0.04360
5499.99262,0.06434
5501.92108,0.06880
5503.84955,0.07129
5505.77802,0.08589
5507.70649,0.09564
5509.63496,0.08412
5511.56343,0.06418
5513.49190,0.05410
5515.42037,0.06154
5517.34883,0.07064
5519.27730,0.06584
5521.20577,0.05906
5523.13424,0.06484
5525.06271,0.07670
5526.99118,0.08349
5528.91965,0.09193
5530.84811,0.09690
5532.77658,0.08809
5534.70505,0.08507
5536.63352,0.09976
5538.56199,0.11122
5540.49046,0.10135
5542.41893,0.08515
5544.34740,0.08459
5546.27586,0.09489
5548.20433,0.10590
5550.13280,0.10488
5552.06127,0.08545
5553.98974,0.06861
5555.91821,0.05452
5557.84668,0.03301
5559.77514,0.03072
5561.70361,0.05360
5563.63208,0.07729
5565.56055,0.08694
5567.48902,0.07273
5569.41749,0.03808
5571.34596,0.01220
5573.27443,0.02213
5575.20289,0.05487
5577.13136,0.06835
5579.05983,0.06025
5580.98830,0.07106
5582.91677,0.09168
5584.84524,0.08505
5586.77371,0.08643
5588.70217,0.12041
5590.63064,0.14178
5592.55911,0.13851
5594.48758,0.13671
5596.41605,0.12363
5598.34452,0.09689
5600.27299,0.08752
5602.20145,0.09027
5604.12992,0.08790
5606.05839,0.09229
5607.98686,0.11138
5609.91533,0.13164
5611.84380,0.13415
5613.77227,0.10936
5615.70074,0.07207
5617.62920,0.05993
5619.55767,0.08056
5621.48614,0.08865
5623.41461,0.07031
5625.34308,0.06137
5627.27155,0.07412
5629.20002,0.08375
5631.12848,0.07099
5633.05695,0.06477
5634.98542,0.08856
5636.91389,0.10433
5638.84236,0.09310
5640.77083,0.07784
5642.69930,0.07793
5644.62777,0.09813
5646.55623,0.11127
5648.48470,0.10049
5650.41317,0.09835
5652.34164,0.10959
5654.27011,0.10464
5656.19858,0.09381
5658.12705,0.09389
5660.05551,0.09275
5661.98398,0.07847
5663.91245,0.06039
5665.84092,0.05821
5667.76939,0.06365
5669.69786,0.06102
5671.62633,0.06916
5673.55480,0.08359
5675.48326,0.06116
5677.41173,0.02063
5679.34020,0.01109
5681.26867,0.02584
5683.19714,0.05113
5685.12561,0.08800
5687.05408,0.12998
5688.98254,0.15310
5690.91101,0.14141
5692.83948,0.10986
5694.76795,0.08815
5696.69642,0.08566
5698.62489,0.08006
5700.55336,0.07386
5702.48183,0.07461
5704.41029,0.06498
5706.33876,0.05890
5708.26723,0.06977
5710.19570,0.07378
5712.12417,0.06373
5714.05264,0.05952
5715.98111,0.06757
5717.90957,0.06992
5719.83804,0.06037
5721.76651,0.06224
5723.69498,0.07706
5725.62345,0.09036
5727.55192,0.11073
5729.48039,0.13006
5731.40886,0.13638
5733.33732,0.14151
5735.26579,0.12999
5737.19426,0.09092
5739.12273,0.05984
5741.05120,0.04092
5742.97967,0.01481
5744.90814,-0.00092
5746.83660,0.00521
5748.76507,0.02489
5750.69354,0.05219
5752.62201,0.06514
5754.55048,0.07779
5756.47895,0.11541
5758.40742,0.13387
5760.33588,0.10609
5762.26435,0.08102
5764.19282,0.09137
5766.12129,0.10013
5768.04976,0.10400
5769.97823,0.12151
5771.90670,0.12504
5773.83517,0.10759
5775.76363,0.08628
5777.69210,0.05929
5779.62057,0.01643
5781.54904,-0.01777
5783.47751,-0.00321
5785.40598,0.04362
5787.33445,0.09346
5789.26291,0.13326
5791.19138,0.14517
5793.11985,0.13443
5795.04832,0.11403
5796.97679,0.09274
5798.90526,0.09085
5800.83373,0.11026
5802.76220,0.12857
5804.69066,0.14133
5806.61913,0.14752
5808.54760,0.12810
5810.47607,0.10221
5812.40454,0.10241
5814.33301,0.11046
5816.26148,0.10145
5818.18994,0.08456
5820.11841,0.09004
5822.04688,0.11380
5823.97535,0.11412
5825.90382,0.08758
5827.83229,0.06513
5829.76076,0.08572
5831.68923,0.12439
5833.61769,0.12465
5835.54616,0.12132
5837.47463,0.15249
5839.40310,0.17606
5841.33157,0.15091
5843.26004,0.09979
5845.18851,0.07136
5847.11697,0.07241
5849.04544,0.06848
5850.97391,0.04674
5852.90238,0.04290
5854.83085,0.06902
5856.75932,0.10279
5858.68779,0.11708
5860.61626,0.11019
5862.54472,0.10961
5864.47319,0.11566
5866.40166,0.10088
5868.33013,0.05802
5870.25860,0.01991
5872.18707,0.01478
5874.11554,0.04063
5876.04400,0.08049
5877.97247,0.10663
5879.90094,0.10948
5881.82941,0.09244
5883.75788,0.07240
5885.68635,0.05608
5887.61482,0.03871
5889.54329,0.05185
5891.47175,0.08304
5893.40022,0.08187
5895.32869,0.06805
5897.25716,0.06994
5899.18563,0.07202
5901.11410,0.08604
5903.04257,0.13278
5904.97103,0.16346
5906.89950,0.13552
5908.82797,0.08080
5910.75644,0.04440
5912.68491,0.05216
5914.61338,0.09623
5916.54185,0.12268
5918.47032,0.13341
5920.39878,0.16173
5922.32725,0.17259
5924.25572,0.14501
5926.18419,0.11177
5928.11266,0.10139
5930.04113,0.13204
5931.96960,0.17275
5933.89806,0.16174
5935.82653,0.13243
5937.75500,0.12851
5939.68347,0.10233
5941.61194,0.05247
5943.54041,0.03963
5945.46888,0.08801
5947.39734,0.15169
5949.32581,0.15279
5951.25428,0.09289
5953.18275,0.05397
5955.11122,0.05734
5957.03969,0.06247
5958.96816,0.05732
5960.89663,0.06435
5962.82509,0.10403
5964.75356,0.15546
5966.68203,0.16355
5968.61050,0.13169
5970.53897,0.11468
5972.46744,0.12556
5974.39591,0.13648
5976.32437,0.12582
5978.25284,0.11493
5980.18131,0.11609
5982.10978,0.11196
5984.03825,0.08594
5985.96672,0.04197
5987.89519,0.04275
5989.82366,0.09423
5991.75212,0.12517
5993.68059,0.14320
5995.60906,0.16407
5997.53753,0.15853
5999.46600,0.14318
6001.39447,0.14399
6003.32294,0.13016
6005.25140,0.07949
6007.17987,0.05143
6009.10834,0.05493
6011.03681,0.06449
6012.96528,0.10261
6014.89375,0.13777
6016.82222,0.12261
6018.75069,0.07380
6020.67915,0.04225
6022.60762,0.05140
6024.53609,0.07117
6026.46456,0.08348
6028.39303,0.10609
6030.32150,0.13866
6032.24997,0.15536
6034.17843,0.12464
6036.10690,0.05774
6038.03537,0.01966
6039.96384,0.01710
6041.89231,0.00788
6043.82078,-0.00627
6045.74925,0.00407
6047.67772,0.02019
6049.60618,0.00039
6051.53465,-0.00806
6053.46312,0.05442
6055.39159,0.14044
6057.32006,0.16452
6059.24853,0.13282
6061.17700,0.12769
6063.10546,0.15485
6065.03393,0.13369
6066.96240,0.07336
6068.89087,0.04638
6070.81934,0.05803
6072.74781,0.07157
6074.67628,0.08288
6076.60475,0.09973
6078.53321,0.09172
6080.46168,0.03372
6082.39015,-0.00594
6084.31862,0.02554
6086.24709,0.06751
6088.17556,0.06302
6090.10403,0.03335
6092.03249,0.03976
6093.96096,0.09760
6095.88943,0.13835
6097.81790,0.12888
6099.74637,0.11266
6101.67484,0.13271
6103.60331,0.15719
6105.53177,0.14911
6107.46024,0.13055
6109.38871,0.11054
6111.31718,0.07300
6113.24565,0.02625
6115.17412,-0.00275
6117.10259,-0.00744
6119.03106,0.01032
6120.95952,0.03805
6122.88799,0.06503
6124.81646,0.10108
6126.74493,0.11950
6128.67340,0.11305
6130.60187,0.11269
6132.53034,0.10007
6134.45880,0.07925
6136.38727,0.08085
6138.31574,0.07723
6140.24421,0.04308
6142.17268,0.02904
6144.10115,0.06241
6146.02962,0.08696
6147.95809,0.07543
6149.88655,0.06350
6151.81502,0.08238
6153.74349,0.10309
6155.67196,0.09084
6157.60043,0.09852
6159.52890,0.14571
6161.45737,0.13567
6163.38583,0.04041
6165.31430,-0.03181
6167.24277,-0.00614
6169.17124,0.04394
6171.09971,0.05091
6173.02818,0.05725
6174.95665,0.08042
6176.88512,0.10516
6178.81358,0.11870
6180.74205,0.10639
6182.67052,0.09493
6184.59899,0.10806
6186.52746,0.12091
6188.45593,0.08203
6190.38440,0.02331
6192.31286,0.02278
6194.24133,0.06130
6196.16980,0.09698
6198.09827,0.14081
6200.02674,0.19116
6201.95521,0.21770
6203.88368,0.20780
6205.81215,0.17138
6207.74061,0.12075
6209.66908,0.07266
6211.59755,0.03746
6213.52602,0.02548
6215.45449,0.06963
6217.38296,0.12654
6219.31143,0.11945
6221.23989,0.09213
6223.16836,0.10778
6225.09683,0.13676
6227.02530,0.12566
6228.95377,0.08961
6230.88224,0.08010
6232.81071,0.09108
6234.73918,0.08326
6236.66764,0.08558
6238.59611,0.10850
6240.52458,0.11941
6242.45305,0.12722
6244.38152,0.13703
6246.30999,0.12373
6248.23846,0.11887
6250.16692,0.15964
6252.09539,0.18449
6254.02386,0.14480
6255.95233,0.07711
6257.88080,0.03821
6259.80927,0.03906
6261.73774,0.04000
6263.66621,0.03430
6265.59467,0.03027
6267.52314,0.03838
6269.45161,0.05873
6271.38008,0.06073
6273.30855,0.04930
6275.23702,0.04845
6277.16549,0.05268
6279.09395,0.05937
6281.02242,0.08351
6282.95089,0.08865
6284.87936,0.02626
6286.80783,-0.03746
6288.73630,-0.04780
6290.66477,-0.05625
6292.59323,-0.05861
6294.52170,0.01263
6296.45017,0.09137
6298.37864,0.08306
6300.30711,0.04205
6302.23558,0.06177
6304.16405,0.12391
6306.09252,0.16517
6308.02098,0.16917
6309.94945,0.12862
6311.87792,0.07697
6313.80639,0.04725
6315.73486,-0.00163
6317.66333,-0.05592
6319.59180,-0.04428
6321.52026,0.04755
6323.44873,0.13834
6325.37720,0.16020
6327.30567,0.14858
6329.23414,0.11895
6331.16261,0.06922
6333.09108,0.05523
6335.01955,0.09328
6336.94801,0.11461
6338.87648,0.10785
6340.80495,0.11223
6342.73342,0.08211
6344.66189,0.01042
6346.59036,-0.01049
6348.51883,0.03776
6350.44729,0.10584
6352.37576,0.16533
6354.30423,0.16383
6356.23270,0.07269
6358.16117,-0.02956
6360.08964,-0.05332
6362.01811,-0.00297
6363.94658,0.09533
6365.87504,0.17637
6367.80351,0.19176
6369.73198,0.20426
6371.66045,0.21523
6373.58892,0.16887
6375.51739,0.09572
6377.44586,0.07749
6379.37432,0.11301
6381.30279,0.14394
6383.23126,0.17063
6385.15973,0.16796
6387.08820,0.11350
6389.01667,0.08174
6390.94514,0.10345
6392.87361,0.09900
6394.80207,0.01819
6396.73054,-0.03906
6398.65901,-0.01104
6400.58748,0.07540
6402.51595,0.13608
6404.44442,0.12395
6406.37289,0.10374
6408.30135,0.10272
6410.22982,0.10125
6412.15829,0.11284
6414.08676,0.12166
6416.01523,0.12399
6417.94370,0.14585
6419.87217,0.15477
6421.80064,0.10660
6423.72910,0.03735
6425.65757,-0.01425
6427.58604,-0.03918
6429.51451,-0.03606
6431.44298,-0.01627
6433.37145,0.01131
6435.29992,0.02632
6437.22838,0.00191
6439.15685,-0.04655
6441.08532,-0.07370
6443.01379,-0.03899
6444.94226,0.06870
6446.87073,0.16503
6448.79920,0.15635
6450.72766,0.08024
6452.65613,0.06130
6454.58460,0.08941
6456.51307,0.06118
6458.44154,-0.00993
6460.37001,-0.03991
6462.29848,-0.02346
6464.22695,0.02155
6466.15541,0.07398
6468.08388,0.10977
6470.01235,0.14620
6471.94082,0.17015
6473.86929,0.16259
6475.79776,0.17076
6477.72623,0.17090
6479.65469,0.12926
6481.58316,0.11655
6483.51163,0.13454
6485.44010,0.14003
6487.36857,0.14231
6489.29704,0.15487
6491.22551,0.16915
6493.15398,0.11945
6495.08244,0.01116
6497.01091,-0.02303
6498.93938,0.04508
6500.86785,0.10370
6502.79632,0.09893
6504.72479,0.09277
6506.65326,0.08485
6508.58172,0.03647
6510.51019,-0.03108
6512.43866,-0.07283
6514.36713,-0.05866
6516.29560,-0.00379
6518.22407,0.05939
6520.15254,0.08553
6522.08101,0.04466
6524.00947,0.00643
6525.93794,0.03433
6527.86641,0.07491
6529.79488,0.08218
6531.72335,0.09485
6533.65182,0.14309
6535.58029,0.15120
6537.50875,0.12610
6539.43722,0.15504
6541.36569,0.21177
6543.29416,0.22078
6545.22263,0.17576
6547.15110,0.16390
6549.07957,0.19222
6551.00804,0.16032
6552.93650,0.08932
6554.86497,0.06388
6556.79344,0.06419
6558.72191,0.05919
6560.65038,0.02082
6562.57885,-0.04011
6564.50732,-0.08612
6566.43578,-0.13908
6568.36425,-0.11882
6570.29272,0.02106
6572.22119,0.14558
6574.14966,0.19591
6576.07813,0.16278
6578.00660,0.04192
6579.93507,-0.04586
6581.86353,-0.00209
6583.79200,0.12169
6585.72047,0.20697
6587.64894,0.22916
6589.57741,0.23057
6591.50588,0.21053
6593.43435,0.17515
6595.36281,0.16904
6597.29128,0.14179
6599.21975,0.04153
6601.14822,-0.03067
6603.07669,-0.00011
6605.00516,0.06275
6606.93363,0.12371
6608.86210,0.16635
6610.79056,0.18762
6612.71903,0.18505
6614.64750,0.14112
6616.57597,0.07516
6618.50444,0.02209
6620.43291,0.01164
6622.36138,0.02606
6624.28984,0.03496
6626.21831,0.04347
6628.14678,0.02856
6630.07525,-0.02311
6632.00372,-0.02769
6633.93219,0.04952
6635.86066,0.07843
6637.78912,0.00578
6639.71759,-0.00332
6641.64606,0.10353
6643.57453,0.22996
6645.50300,0.27977
6647.43147,0.24855
6649.35994,0.20154
6651.28841,0.16185
6653.21687,0.08612
6655.14534,-0.00930
6657.07381,0.01513
6659.00228,0.12059
6660.93075,0.11167
6662.85922,0.06313
6664.78769,0.11065
6666.71615,0.17831
6668.64462,0.15302
6670.57309,0.08661
6672.50156,0.06027
6674.43003,0.04903
6676.35850,0.06077
6678.28697,0.12888
6680.21544,0.21222
6682.14390,0.24427
6684.07237,0.19401
6686.00084,0.10130
6687.92931,0.04879
6689.85778,0.06718
6691.78625,0.10073
6693.71472,0.12154
6695.64318,0.09145
6697.57165,-0.00014
6699.50012,-0.01613
6701.42859,0.09226
6703.35706,0.20070
6705.28553,0.19956
6707.21400,0.11276
6709.14247,0.07024
6711.07093,0.08134
6712.99940,0.06413
6714.92787,0.01625
6716.85634,-0.02266
6718.78481,-0.01333
6720.71328,0.05039
6722.64175,0.06819
6724.57021,-0.01473
6726.49868,-0.09145
6728.42715,-0.10833
6730.35562,-0.06813
6732.28409,0.03390
6734.21256,0.10529
6736.14103,0.05827
6738.06950,-0.03027
6739.99796,-0.05349
6741.92643,-0.00665
6743.85490,0.04344
6745.78337,0.06021
6747.71184,0.06422
6749.64031,0.07759
6751.56878,0.07001
6753.49724,0.03150
6755.42571,-0.03708
6757.35418,-0.11085
6759.28265,-0.11887
6761.21112,-0.09210
6763.13959,-0.07763
6765.06806,-0.01481
6766.99653,0.06495
6768.92499,0.06565
6770.85346,0.03146
6772.78193,0.06158
6774.71040,0.12050
6776.63887,0.12484
6778.56734,0.08813
6780.49581,0.09257
6782.42427,0.12730
6784.35274,0.07730
6786.28121,-0.02453
6788.20968,-0.03879
6790.13815,0.01006
6792.06662,0.01153
6793.99509,-0.06910
6795.92355,-0.18369
6797.85202,-0.16794
6799.78049,0.02878
6801.70896,0.19379
6803.63743,0.19137
6805.56590,0.14065
6807.49437,0.16025
6809.42284,0.25188
6811.35130,0.26368
6813.27977,0.08575
6815.20824,-0.12052
6817.13671,-0.16183
6819.06518,-0.07045
6820.99365,-0.01943
6822.92212,-0.00330
6824.85058,0.11330
6826.77905,0.23066
6828.70752,0.21964
6830.63599,0.11914
6832.56446,0.01894
6834.49293,-0.02036
6836.42140,0.02895
6838.34987,0.08089
6840.27833,0.08041
6842.20680,0.05822
6844.13527,0.02572
6846.06374,-0.02281
6847.99221,-0.07769
6849.92068,-0.06262
6851.84915,-0.03104
6853.77761,-0.07262
6855.70608,-0.07001
6857.63455,0.03633
6859.56302,0.10273
6861.49149,0.05433
6863.41996,0.04650
6865.34843,0.16038
6867.27690,0.20514
6869.20536,0.15303
6871.13383,0.10120
6873.06230,0.07037
6874.99077,0.09278
6876.91924,0.12137
6878.84771,0.07560
6880.77618,-0.02364
6882.70464,-0.04807
6884.63311,-0.04023
6886.56158,-0.08032
6888.49005,-0.07023
6890.41852,0.01725
6892.34699,0.07503
6894.27546,0.04761
6896.20393,-0.01245
6898.13239,0.02237
6900.06086,0.12734
6901.98933,0.18203
6903.91780,0.16298
6905.84627,0.09696
6907.77474,0.06799
6909.70321,0.06169
6911.63167,0.04922
6913.56014,0.07464
6915.48861,0.13693
6917.41708,0.17322
6919.34555,0.06970
6921.27402,-0.05423
6923.20249,-0.00381
6925.13096,0.07600
6927.05942,0.08358
6928.98789,0.07298
6930.91636,0.07331
6932.84483,0.03909
6934.77330,-0.02523
6936.70177,-0.03447
6938.63024,0.01124
6940.55870,0.05768
6942.48717,0.07000
6944.41564,0.08065
6946.34411,0.19082
6948.27258,0.32744
6950.20105,0.28192
6952.12952,0.08018
6954.05799,-0.10360
6955.98645,-0.11945
6957.91492,0.00079
6959.84339,0.07305
6961.77186,0.02114
6963.70033,-0.07491
6965.62880,-0.10238
6967.55727,-0.03238
6969.48573,-0.00749
6971.41420,-0.11781
6973.34267,-0.20319
6975.27114,-0.13427
6977.19961,-0.02132
6979.12808,-0.01168
6981.05655,-0.03975
6982.98501,-0.00733
6984.91348,0.06434
6986.84195,0.12210
6988.77042,0.13915
6990.69889,0.13337
6992.62736,0.15242
6994.55583,0.19778
6996.48430,0.19323
6998.41276,0.08705
7000.34123,-0.04339
7002.26970,-0.07543
7004.19817,-0.00349
7006.12664,0.07814
7008.05511,0.16308
7009.98358,0.22372
7011.91204,0.18504
7013.84051,0.12284
7015.76898,0.12342
7017.69745,0.12436
7019.62592,0.11420
7021.55439,0.14459
7023.48286,0.20680
7025.41133,0.20434
7027.33979,0.06830
7029.26826,-0.02378
7031.19673,0.09649
7033.12520,0.19523
7035.05367,0.15520
7036.98214,0.16301
7038.91061,0.21657
7040.83907,0.14428
7042.76754,-0.04313
7044.69601,-0.14393
7046.62448,-0.08072
7048.55295,0.03811
7050.48142,0.06283
7052.40989,0.02291
7054.33836,0.02459
7056.26682,0.05849
7058.19529,0.09934
7060.12376,0.17926
7062.05223,0.22828
7063.98070,0.16784
7065.90917,0.06684
7067.83764,-0.01945
7069.76610,-0.05782
7071.69457,-0.02639
7073.62304,0.02128
7075.55151,0.04452
7077.47998,0.00239
7079.40845,-0.09903
7081.33692,-0.14326
7083.26539,-0.02477
7085.19385,0.17591
7087.12232,0.31099
7089.05079,0.28430
7090.97926,0.22138
7092.90773,0.19149
7094.83620,0.12891
7096.76467,0.05465
7098.69313,0.01556
7100.62160,-0.00302
7102.55007,-0.04505
7104.47854,-0.09733
7106.40701,-0.04172
7108.33548,0.09701
7110.26395,0.09072
7112.19242,-0.05229
7114.12088,-0.10167
7116.04935,-0.03800
7117.97782,-0.01867
7119.90629,-0.08876
7121.83476,-0.13884
7123.76323,-0.11747
7125.69170,-0.05987
7127.62016,0.02600
7129.54863,0.05252
7131.47710,-0.03263
7133.40557,-0.04497
7135.33404,0.05270
7137.26251,0.07659
7139.19098,0.02929
7141.11944,0.03049
7143.04791,0.11003
7144.97638,0.27910
7146.90485,0.34236
7148.83332,0.14468
7150.76179,-0.12741
7152.69026,-0.26487
7154.61873,-0.15745
7156.54719,0.03441
7158.47566,0.15376
7160.40413,0.24306
7162.33260,0.30560
7164.26107,0.26766
7166.18954,0.13655
7168.11801,0.02729
7170.04647,-0.04674
7171.97494,-0.11435
7173.90341,-0.17214
7175.83188,-0.21453
7177.76035,-0.14819
7179.68882,-0.01175
7181.61729,-0.00144
7183.54576,-0.13795
7185.47422,-0.16991
7187.40269,-0.06564
7189.33116,-0.02547
7191.25963,-0.11072
7193.18810,-0.10185
7195.11657,0.02294
7197.04504,0.09372
7198.97350,0.14939
7200.90197,0.19730
7202.83044,0.12985
7204.75891,-0.01752
7206.68738,-0.08728
7208.61585,-0.06118
7210.54432,0.05270
7212.47279,0.17036
7214.40125,0.18358
7216.32972,0.14541
7218.25819,0.23874
7220.18666,0.38459
7222.11513,0.40604
7224.04360,0.32013
7225.97207,0.15521
7227.90053,0.09139
7229.82900,0.23882
7231.75747,0.41307
7233.68594,0.38387
7235.61441,0.16890
7237.54288,-0.09161
7239.47135,-0.26034
7241.39982,-0.32464
7243.32828,-0.21524
7245.25675,0.00392
7247.18522,0.14773
7249.11369,0.21036
7251.04216,0.26100
7252.97063,0.29845
7254.89910,0.27231
7256.82756,0.25979
7258.75603,0.21074
7260.68450,0.00735
7262.61297,-0.14451
7264.54144,-0.09054
7266.46991,-0.06507
7268.39838,-0.08778
7270.32685,-0.06152
7272.25531,-0.00214
7274.18378,0.02461
7276.11225,0.01194
7278.04072,-0.01154
7279.96919,-0.03821
7281.89766,0.01347
7283.82613,0.12405
7285.75459,0.17395
7287.68306,0.20467
7289.61153,0.29576
7291.54000,0.32045
7293.46847,0.15839
7295.39694,-0.02057
7297.32541,-0.05680
7299.25387,0.00004
7301.18234,0.07482
7303.11081,0.06172
7305.03928,0.00832
7306.96775,0.15539
7308.89622,0.38283
7310.82469,0.44419
7312.75316,0.45371
7314.68162,0.42740
7316.61009,0.34819
7318.53856,0.30134
7320.46703,0.27801
7322.39550,0.12865
7324.32397,-0.10396
7326.25244,-0.13215
7328.18090,0.03286
7330.10937,0.10175
7332.03784,-0.00056
7333.96631,-0.04552
7335.89478,-0.00105
7337.82325,0.00856
7339.75172,-0.06121
7341.68019,-0.05751
7343.60865,0.05353
7345.53712,0.09528
7347.46559,-0.00322
7349.39406,-0.06743
7351.32253,0.04444
7353.25100,0.23458
7355.17947,0.32620
7357.10793,0.23635
7359.03640,-0.05230
7360.96487,-0.30625
7362.89334,-0.31999
7364.82181,-0.16105
7366.75028,-0.01381
7368.67875,0.03408
7370.60722,0.13378
7372.53568,0.36235
7374.46415,0.51946
7376.39262,0.28566
7378.32109,0.03643
7380.24956,-0.01156
7382.17803,0.00985
7384.10650,0.07021
7386.03496,0.12359
7387.96343,0.12705
7389.89190,0.09326
7391.82037,-0.00676
7393.74884,-0.04715
7395.67731,0.02280
7397.60578,-0.01314
7399.53425,-0.11695
7401.46271,-0.14631
7403.39118,-0.09565
7405.31965,0.09069
7407.24812,0.24611
7409.17659,0.21109
7411.10506,0.10537
7413.03353,0.06280
7414.96199,0.07104
7416.89046,0.07707
7418.81893,0.12201
7420.74740,0.22232
7422.67587,0.23727
7424.60434,0.14499
7426.53281,0.07196
7428.46128,0.07222
7430.38974,-0.00719
7432.31821,-0.15544
7434.24668,-0.21383
7436.17515,-0.17084
7438.10362,-0.11406
7440.03209,-0.05646
7441.96056,0.04063
7443.88902,0.11874
7445.81749,0.22334
7447.74596,0.33155
7449.67443,0.35745
7451.60290,0.34286
7453.53137,0.28456
7455.45984,0.20514
7457.38831,0.13503
7459.31677,0.04859
7461.24524,0.00405
7463.17371,0.07354
7465.10218,0.19150
7467.03065,0.23836
7468.95912,0.15463
7470.88759,-0.02787
7472.81605,-0.13727
7474.74452,-0.00922
7476.67299,0.26980
7478.60146,0.38448
7480.52993,0.20486
7482.45840,0.03360
7484.38687,0.01164
7486.31533,-0.01862
7488.24380,-0.07096
7490.17227,-0.03558
7492.10074,0.02887
7494.02921,0.02787
7495.95768,0.01878
7497.88615,-0.01502
