399.19301,1.43091
401.12148,0.67478
403.04995,0.17477
404.97842,0.44131
406.90689,0.56558
408.83536,-0.03827
410.76382,-0.30448
412.69229,1.28102
414.62076,4.28246
416.54923,6.56403
418.47770,5.05745
420.40617,1.16802
422.33464,-0.05666
424.26311,-0.02622
426.19157,0.07982
428.12004,0.22266
430.04851,0.30217
431.97698,0.17229
433.90545,0.06742
435.83392,0.11609
437.76239,0.15227
439.69085,0.16776
441.61932,0.21592
443.54779,0.22853
445.47626,0.13490
447.40473,0.03575
449.33320,0.00619
451.26167,0.03748
453.19013,0.07999
455.11860,0.07102
457.04707,0.01309
458.97554,-0.03033
460.90401,0.01027
462.83248,0.07700
464.76095,0.08352
466.68942,0.05602
468.61788,0.06583
470.54635,0.10458
472.47482,0.13393
474.40329,0.14245
476.33176,0.07245
478.26023,0.02946
480.18870,0.09556
482.11716,0.18857
484.04563,0.18658
485.97410,0.13972
487.90257,0.14942
489.83104,0.16820
491.75951,0.14138
493.68798,0.10425
495.61645,0.10656
497.54491,0.12612
499.47338,0.12128
501.40185,0.11945
503.33032,0.12431
505.25879,0.10576
507.18726,0.08030
509.11573,0.07229
511.04419,0.07199
512.97266,0.07749
514.90113,0.07237
516.82960,0.06058
518.75807,0.08554
520.68654,0.11694
522.61501,0.12598
524.54348,0.13244
526.47194,0.13867
528.40041,0.13365
530.32888,0.13306
532.25735,0.15526
534.18582,0.18015
536.11429,0.18027
538.04276,0.15666
539.97122,0.11549
541.89969,0.07731
543.82816,0.07393
545.75663,0.08949
547.68510,0.11915
549.61357,0.16615
551.54204,0.20271
553.47051,0.20421
555.39897,0.14866
557.32744,0.06833
559.25591,0.03059
561.18438,0.05115
563.11285,0.09071
565.04132,0.10586
566.96979,0.10166
568.89825,0.09926
570.82672,0.09162
572.75519,0.07682
574.68366,0.07883
576.61213,0.10714
578.54060,0.14350
580.46907,0.15821
582.39754,0.12761
584.32600,0.08069
586.25447,0.07075
588.18294,0.10517
590.11141,0.14106
592.03988,0.14558
593.96835,0.13911
595.89682,0.14152
597.82528,0.13610
599.75375,0.12131
601.68222,0.11000
603.61069,0.10483
605.53916,0.09767
607.46763,0.08867
609.39610,0.09309
611.32456,0.11029
613.25303,0.11743
615.18150,0.10458
617.10997,0.09585
619.03844,0.11104
620.96691,0.13159
622.89538,0.13115
624.82385,0.11085
626.75231,0.09987
628.68078,0.11639
630.60925,0.11909
632.53772,0.09482
634.46619,0.10013
636.39466,0.12321
638.32313,0.13480
640.25159,0.15677
642.18006,0.17132
644.10853,0.16175
646.03700,0.16293
647.96547,0.17407
649.89394,0.15535
651.82241,0.11442
653.75088,0.09059
655.67934,0.09904
657.60781,0.11740
659.53628,0.11633
661.46475,0.10013
663.39322,0.08498
665.32169,0.07588
667.25016,0.07888
669.17862,0.09939
671.10709,0.11869
673.03556,0.14307
674.96403,0.17399
676.89250,0.18252
678.82097,0.15807
680.74944,0.12883
682.67791,0.11998
684.60637,0.12905
686.53484,0.13355
688.46331,0.11900
690.39178,0.09793
692.32025,0.08946
694.24872,0.09653
696.17719,0.10479
698.10565,0.12237
700.03412,0.15971
701.96259,0.17762
703.89106,0.15931
705.81953,0.14605
707.74800,0.15916
709.67647,0.18369
711.60494,0.19038
713.53340,0.16812
715.46187,0.14888
717.39034,0.14922
719.31881,0.15365
721.24728,0.14774
723.17575,0.13300
725.10422,0.12671
727.03268,0.12734
728.96115,0.12217
730.88962,0.12313
732.81809,0.13931
734.74656,0.14925
736.67503,0.14896
738.60350,0.15579
740.53197,0.15743
742.46043,0.14240
744.38890,0.12884
746.31737,0.12505
748.24584,0.12265
750.17431,0.12464
752.10278,0.13733
754.03125,0.14640
755.95971,0.13811
757.88818,0.12851
759.81665,0.13258
761.74512,0.14107
763.67359,0.14303
765.60206,0.13420
767.53053,0.12726
769.45900,0.13979
771.38746,0.15597
773.31593,0.15588
775.24440,0.15287
777.17287,0.15436
779.10134,0.14961
781.02981,0.14652
782.95828,0.15250
784.88674,0.15839
786.81521,0.16085
788.74368,0.15065
790.67215,0.13343
792.60062,0.13700
794.52909,0.15443
796.45756,0.16190
798.38602,0.16138
800.31449,0.15590
802.24296,0.15014
804.17143,0.15054
806.09990,0.14502
808.02837,0.13479
809.95684,0.14472
811.88531,0.16871
813.81377,0.17630
815.74224,0.16003
817.67071,0.13780
819.59918,0.12744
821.52765,0.12517
823.45612,0.12516
825.38459,0.12766
827.31305,0.12443
829.24152,0.12510
831.16999,0.14001
833.09846,0.15037
835.02693,0.15160
836.95540,0.15881
838.88387,0.16959
840.81234,0.17242
842.74080,0.15987
844.66927,0.13640
846.59774,0.12291
848.52621,0.12984
850.45468,0.14006
852.38315,0.13928
854.31162,0.14120
856.24008,0.15461
858.16855,0.16224
860.09702,0.16065
862.02549,0.16250
863.95396,0.16142
865.88243,0.15935
867.81090,0.17343
869.73937,0.19137
871.66783,0.18964
873.59630,0.17347
875.52477,0.15799
877.45324,0.15070
879.38171,0.15256
881.31018,0.15568
883.23865,0.15313
885.16711,0.14869
887.09558,0.15035
889.02405,0.15385
890.95252,0.14881
892.88099,0.13761
894.80946,0.13195
896.73793,0.13608
898.66640,0.14199
900.59486,0.14602
902.52333,0.14878
904.45180,0.15023
906.38027,0.15301
908.30874,0.15451
910.23721,0.15664
912.16568,0.16287
914.09414,0.16347
916.02261,0.15931
917.95108,0.16257
919.87955,0.17038
921.80802,0.17326
923.73649,0.16988
925.66496,0.16310
927.59343,0.15532
929.52189,0.15100
931.45036,0.15255
933.37883,0.15590
935.30730,0.15828
937.23577,0.15940
939.16424,0.15721
941.09271,0.15415
943.02117,0.15481
944.94964,0.14892
946.87811,0.12565
948.80658,0.10752
950.73505,0.11885
952.66352,0.14242
954.59199,0.15437
956.52045,0.15870
958.44892,0.16188
960.37739,0.15973
962.30586,0.15291
964.23433,0.14983
966.16280,0.15271
968.09127,0.15477
970.01974,0.15649
971.94820,0.15961
973.87667,0.15742
975.80514,0.15088
977.73361,0.14774
979.66208,0.14873
981.59055,0.15237
983.51902,0.15910
985.44748,0.16357
987.37595,0.15989
989.30442,0.15712
991.23289,0.16274
993.16136,0.16665
995.08983,0.16459
997.01830,0.16369
998.94677,0.16275
1000.87523,0.15732
1002.80370,0.15022
1004.73217,0.14892
1006.66064,0.15748
1008.58911,0.16342
1010.51758,0.15923
1012.44605,0.15728
1014.37451,0.16308
1016.30298,0.17387
1018.23145,0.18123
1020.15992,0.17603
1022.08839,0.16570
1024.01686,0.15427
1025.94533,0.13614
1027.87380,0.12535
1029.80226,0.13552
1031.73073,0.15124
1033.65920,0.15591
1035.58767,0.15383
1037.51614,0.15773
1039.44461,0.16603
1041.37308,0.16899
1043.30154,0.16502
1045.23001,0.15974
1047.15848,0.16277
1049.08695,0.17184
1051.01542,0.17303
1052.94389,0.16490
1054.87236,0.16038
1056.80083,0.16436
1058.72929,0.16982
1060.65776,0.17199
1062.58623,0.17229
1064.51470,0.17231
1066.44317,0.16850
1068.37164,0.16229
1070.30011,0.16262
1072.22857,0.17010
1074.15704,0.17855
1076.08551,0.18461
1078.01398,0.18453
1079.94245,0.18001
1081.87092,0.17492
1083.79939,0.16936
1085.72786,0.16700
1087.65632,0.16415
1089.58479,0.15829
1091.51326,0.15725
1093.44173,0.16247
1095.37020,0.16977
1097.29867,0.17288
1099.22714,0.17158
1101.15560,0.17052
1103.08407,0.16601
1105.01254,0.15518
1106.94101,0.14840
1108.86948,0.15766
1110.79795,0.17497
1112.72642,0.18541
1114.65489,0.18462
1116.58335,0.17598
1118.51182,0.16931
1120.44029,0.16671
1122.36876,0.16460
1124.29723,0.16388
1126.22570,0.16373
1128.15417,0.16274
1130.08263,0.15787
1132.01110,0.15150
1133.93957,0.15340
1135.86804,0.16097
1137.79651,0.16586
1139.72498,0.16871
1141.65345,0.17014
1143.58191,0.17096
1145.51038,0.17327
1147.43885,0.17400
1149.36732,0.17226
1151.29579,0.17459
1153.22426,0.18072
1155.15273,0.18200
1157.08120,0.17932
1159.00966,0.18190
1160.93813,0.18847
1162.86660,0.18865
1164.79507,0.18044
1166.72354,0.17282
1168.65201,0.17147
1170.58048,0.17295
1172.50894,0.17231
1174.43741,0.16973
1176.36588,0.16948
1178.29435,0.16995
1180.22282,0.16705
1182.15129,0.16432
1184.07976,0.16355
1186.00823,0.16285
1187.93669,0.16464
1189.86516,0.16938
1191.79363,0.17093
1193.72210,0.16685
1195.65057,0.16380
1197.57904,0.16742
1199.50751,0.17395
1201.43597,0.17650
1203.36444,0.17691
1205.29291,0.17850
1207.22138,0.17714
1209.14985,0.17204
1211.07832,0.16976
1213.00679,0.17263
1214.93526,0.17586
1216.86372,0.17754
1218.79219,0.17650
1220.72066,0.17206
1222.64913,0.16974
1224.57760,0.17207
1226.50607,0.17568
1228.43454,0.17899
1230.36300,0.18198
1232.29147,0.18176
1234.21994,0.17699
1236.14841,0.17116
1238.07688,0.16809
1240.00535,0.16894
1241.93382,0.17091
1243.86229,0.17150
1245.79075,0.17163
1247.71922,0.17249
1249.64769,0.17486
1251.57616,0.17768
1253.50463,0.17769
1255.43310,0.17555
1257.36157,0.17362
1259.29003,0.17095
1261.21850,0.17013
1263.14697,0.17440
1265.07544,0.17906
1267.00391,0.17967
1268.93238,0.17805
1270.86085,0.17857
1272.78932,0.18246
1274.71778,0.18305
1276.64625,0.17937
1278.57472,0.17999
1280.50319,0.18149
1282.43166,0.17848
1284.36013,0.17857
1286.28860,0.18137
1288.21706,0.17996
1290.14553,0.17738
1292.07400,0.17676
1294.00247,0.17537
1295.93094,0.17411
1297.85941,0.17572
1299.78788,0.17540
1301.71634,0.16818
1303.64481,0.15991
1305.57328,0.16028
1307.50175,0.16917
1309.43022,0.17740
1311.35869,0.18152
1313.28716,0.18444
1315.21563,0.18483
1317.14409,0.18230
1319.07256,0.17911
1321.00103,0.17548
1322.92950,0.17487
1324.85797,0.17889
1326.78644,0.18246
1328.71491,0.18303
1330.64337,0.18136
1332.57184,0.17817
1334.50031,0.17493
1336.42878,0.17425
1338.35725,0.17815
1340.28572,0.18209
1342.21419,0.18082
1344.14266,0.17627
1346.07112,0.17243
1347.99959,0.17311
1349.92806,0.17729
1351.85653,0.18155
1353.78500,0.18405
1355.71347,0.18189
1357.64194,0.17856
1359.57040,0.18083
1361.49887,0.18816
1363.42734,0.19305
1365.35581,0.18985
1367.28428,0.18503
1369.21275,0.18396
1371.14122,0.18565
1373.06969,0.19069
1374.99815,0.19649
1376.92662,0.19680
1378.85509,0.19381
1380.78356,0.19240
1382.71203,0.19239
1384.64050,0.19221
1386.56897,0.19384
1388.49743,0.19547
1390.42590,0.19433
1392.35437,0.19470
1394.28284,0.19804
1396.21131,0.20022
1398.13978,0.19906
1400.06825,0.19598
1401.99672,0.19469
1403.92518,0.19561
1405.85365,0.19414
1407.78212,0.18993
1409.71059,0.18803
1411.63906,0.18964
1413.56753,0.19214
1415.49600,0.19585
1417.42446,0.20003
1419.35293,0.19791
1421.28140,0.19459
1423.20987,0.19687
1425.13834,0.19911
1427.06681,0.19856
1428.99528,0.19739
1430.92375,0.19690
1432.85221,0.19976
1434.78068,0.20696
1436.70915,0.21057
1438.63762,0.20287
1440.56609,0.19351
1442.49456,0.18880
1444.42303,0.19014
1446.35149,0.19543
1448.27996,0.19953
1450.20843,0.19968
1452.13690,0.19959
1454.06537,0.20356
1455.99384,0.21646
1457.92231,0.22790
1459.85077,0.21878
1461.77924,0.20992
1463.70771,0.20879
1465.63618,0.20942
1467.56465,0.20664
1469.49312,0.20681
1471.42159,0.21658
1473.35006,0.22718
1475.27852,0.22360
1477.20699,0.21515
1479.13546,0.20758
1481.06393,0.20129
1482.99240,0.19809
1484.92087,0.19942
1486.84934,0.20507
1488.77780,0.21123
1490.70627,0.20893
1492.63474,0.20469
1494.56321,0.20861
1496.49168,0.21592
1498.42015,0.21301
1500.34862,0.20508
1502.27709,0.20494
1504.20555,0.21534
1506.13402,0.23417
1508.06249,0.23469
1509.99096,0.21971
1511.91943,0.21057
1513.84790,0.20799
1515.77637,0.21243
1517.70483,0.22324
1519.63330,0.23818
1521.56177,0.24318
1523.49024,0.22621
1525.41871,0.21322
1527.34718,0.20907
1529.27565,0.20570
1531.20412,0.20926
1533.13258,0.22202
1535.06105,0.22984
1536.98952,0.23600
1538.91799,0.25473
1540.84646,0.26932
1542.77493,0.25070
1544.70340,0.22604
1546.63186,0.21309
1548.56033,0.21054
1550.48880,0.20885
1552.41727,0.21050
1554.34574,0.22167
1556.27421,0.23902
1558.20268,0.25386
1560.13115,0.23695
1562.05961,0.21697
1563.98808,0.20913
1565.91655,0.20766
1567.84502,0.21001
1569.77349,0.20889
1571.70196,0.20387
1573.63043,0.20434
1575.55889,0.20739
1577.48736,0.20312
1579.41583,0.19442
1581.34430,0.18806
1583.27277,0.18746
1585.20124,0.18982
1587.12971,0.19002
1589.05818,0.19099
1590.98664,0.19359
1592.91511,0.19321
1594.84358,0.19129
1596.77205,0.19044
1598.70052,0.18959
1600.62899,0.18994
1602.55746,0.19110
1604.48592,0.19104
1606.41439,0.19051
1608.34286,0.19107
1610.27133,0.19296
1612.19980,0.19522
1614.12827,0.19953
1616.05674,0.20617
1617.98521,0.20653
1619.91367,0.20442
1621.84214,0.20943
1623.77061,0.21718
1625.69908,0.21768
1627.62755,0.21308
1629.55602,0.20817
1631.48449,0.20805
1633.41295,0.21834
1635.34142,0.23719
1637.26989,0.23819
1639.19836,0.22437
1641.12683,0.21443
1643.05530,0.21323
1644.98377,0.22462
1646.91223,0.23983
1648.84070,0.23539
1650.76917,0.22866
1652.69764,0.23424
1654.62611,0.22984
1656.55458,0.21621
1658.48305,0.21268
1660.41152,0.21851
1662.33998,0.22341
1664.26845,0.21972
1666.19692,0.21754
1668.12539,0.22189
1670.05386,0.22460
1671.98233,0.22226
1673.91080,0.22147
1675.83926,0.21976
1677.76773,0.21765
1679.69620,0.22086
1681.62467,0.23114
1683.55314,0.24320
1685.48161,0.23846
1687.41008,0.22614
1689.33855,0.21681
1691.26701,0.20940
1693.19548,0.20889
1695.12395,0.22086
1697.05242,0.24037
1698.98089,0.24861
1700.90936,0.23863
1702.83783,0.22783
1704.76629,0.22483
1706.69476,0.22199
1708.62323,0.21669
1710.55170,0.21233
1712.48017,0.21120
1714.40864,0.21707
1716.33711,0.22852
1718.26558,0.22467
1720.19404,0.21003
1722.12251,0.20255
1724.05098,0.19994
1725.97945,0.20000
1727.90792,0.20370
1729.83639,0.20727
1731.76486,0.20879
1733.69332,0.21206
1735.62179,0.21463
1737.55026,0.21692
1739.47873,0.21941
1741.40720,0.21931
1743.33567,0.22003
1745.26414,0.22248
1747.19261,0.22491
1749.12107,0.22693
1751.04954,0.22225
1752.97801,0.21306
1754.90648,0.20972
1756.83495,0.21060
1758.76342,0.21077
1760.69189,0.21265
1762.62035,0.21257
1764.54882,0.20711
1766.47729,0.20584
1768.40576,0.21332
1770.33423,0.22447
1772.26270,0.22923
1774.19117,0.22038
1776.11964,0.20937
1778.04810,0.20501
1779.97657,0.20532
1781.90504,0.20464
1783.83351,0.20407
1785.76198,0.20418
1787.69045,0.20384
1789.61892,0.20782
1791.54738,0.21696
1793.47585,0.22155
1795.40432,0.21855
1797.33279,0.21441
1799.26126,0.21215
1801.18973,0.21119
1803.11820,0.20842
1805.04666,0.20389
1806.97513,0.20142
1808.90360,0.20266
1810.83207,0.20453
1812.76054,0.20286
1814.68901,0.20219
1816.61748,0.21246
1818.54595,0.22593
1820.47441,0.22360
1822.40288,0.21279
1824.33135,0.20977
1826.25982,0.21283
1828.18829,0.21678
1830.11676,0.21804
1832.04523,0.21342
1833.97369,0.20683
1835.90216,0.20221
1837.83063,0.20194
1839.75910,0.20401
1841.68757,0.20687
1843.61604,0.20982
1845.54451,0.21015
1847.47298,0.20838
1849.40144,0.20642
1851.32991,0.20639
1853.25838,0.20751
1855.18685,0.20630
1857.11532,0.20412
1859.04379,0.20284
1860.97226,0.20119
1862.90072,0.20158
1864.82919,0.20678
1866.75766,0.21358
1868.68613,0.21558
1870.61460,0.21091
1872.54307,0.20581
1874.47154,0.20395
1876.40001,0.20284
1878.32847,0.20022
1880.25694,0.19944
1882.18541,0.20185
1884.11388,0.20414
1886.04235,0.20524
1887.97082,0.20583
1889.89929,0.20460
1891.82775,0.20290
1893.75622,0.20410
1895.68469,0.20641
1897.61316,0.20609
1899.54163,0.20315
1901.47010,0.20073
1903.39857,0.20175
1905.32704,0.20509
1907.25550,0.20695
1909.18397,0.20567
1911.11244,0.20289
1913.04091,0.19987
1914.96938,0.19748
1916.89785,0.19722
1918.82632,0.19841
1920.75478,0.19975
1922.68325,0.20168
1924.61172,0.20296
1926.54019,0.20289
1928.46866,0.20328
1930.39713,0.20381
1932.32560,0.20423
1934.25407,0.20589
1936.18253,0.20637
1938.11100,0.20456
1940.03947,0.20483
1941.96794,0.20852
1943.89641,0.21057
1945.82488,0.20809
1947.75335,0.20462
1949.68181,0.20298
1951.61028,0.20226
1953.53875,0.20122
1955.46722,0.20038
1957.39569,0.20005
1959.32416,0.20130
1961.25263,0.20521
1963.18110,0.20848
1965.10956,0.20841
1967.03803,0.20662
1968.96650,0.20470
1970.89497,0.20383
1972.82344,0.20842
1974.75191,0.21874
1976.68038,0.22457
1978.60884,0.22046
1980.53731,0.21210
1982.46578,0.20677
1984.39425,0.20634
1986.32272,0.20661
1988.25119,0.20631
1990.17966,0.20765
1992.10812,0.20945
1994.03659,0.20921
1995.96506,0.20751
1997.89353,0.20638
1999.82200,0.20525
2001.75047,0.20421
2003.67894,0.20501
2005.60741,0.20445
2007.53587,0.20093
2009.46434,0.19976
2011.39281,0.20223
2013.32128,0.20515
2015.24975,0.20689
2017.17822,0.20580
2019.10669,0.20387
2021.03515,0.20396
2022.96362,0.20350
2024.89209,0.20277
2026.82056,0.20471
2028.74903,0.20741
2030.67750,0.20774
2032.60597,0.20517
2034.53444,0.20263
2036.46290,0.20334
2038.39137,0.20627
2040.31984,0.20861
2042.24831,0.20914
2044.17678,0.20839
2046.10525,0.20637
2048.03372,0.20261
2049.96218,0.20037
2051.89065,0.20155
2053.81912,0.20273
2055.74759,0.20362
2057.67606,0.20566
2059.60453,0.20737
2061.53300,0.20786
2063.46147,0.20602
2065.38993,0.20160
2067.31840,0.19912
2069.24687,0.20084
2071.17534,0.20236
2073.10381,0.20159
2075.03228,0.20060
2076.96075,0.20071
2078.88921,0.20145
2080.81768,0.20163
2082.74615,0.20324
2084.67462,0.20726
2086.60309,0.20920
2088.53156,0.20624
2090.46003,0.20199
2092.38850,0.20161
2094.31696,0.20407
2096.24543,0.20479
2098.17390,0.20375
2100.10237,0.20405
2102.03084,0.20508
2103.95931,0.20415
2105.88778,0.20297
2107.81624,0.20282
2109.74471,0.20278
2111.67318,0.20508
2113.60165,0.20774
2115.53012,0.20654
2117.45859,0.20513
2119.38706,0.20607
2121.31553,0.20589
2123.24399,0.20426
2125.17246,0.20347
2127.10093,0.20338
2129.02940,0.20348
2130.95787,0.20506
2132.88634,0.21158
2134.81481,0.21908
2136.74327,0.21633
2138.67174,0.20646
2140.60021,0.20187
2142.52868,0.20408
2144.45715,0.20682
2146.38562,0.20656
2148.31409,0.20620
2150.24255,0.20841
2152.17102,0.21055
2154.09949,0.21074
2156.02796,0.21036
2157.95643,0.20895
2159.88490,0.20608
2161.81337,0.20416
2163.74184,0.20305
2165.67030,0.20214
2167.59877,0.20281
2169.52724,0.20479
2171.45571,0.20519
2173.38418,0.20217
2175.31265,0.19921
2177.24112,0.19937
2179.16958,0.20131
2181.09805,0.20448
2183.02652,0.20772
2184.95499,0.20797
2186.88346,0.20689
2188.81193,0.20762
2190.74040,0.20818
2192.66887,0.20783
2194.59733,0.20729
2196.52580,0.20514
2198.45427,0.20303
2200.38274,0.20351
2202.31121,0.20575
2204.23968,0.20698
2206.16815,0.20540
2208.09661,0.20355
2210.02508,0.20292
2211.95355,0.20250
2213.88202,0.20236
2215.81049,0.20243
2217.73896,0.20273
2219.66743,0.20289
2221.59590,0.20309
2223.52436,0.20397
2225.45283,0.20514
2227.38130,0.20588
2229.30977,0.20512
2231.23824,0.20248
2233.16671,0.19991
2235.09518,0.20030
2237.02364,0.20277
2238.95211,0.20451
2240.88058,0.20429
2242.80905,0.20258
2244.73752,0.20204
2246.66599,0.20291
2248.59446,0.20376
2250.52293,0.20569
2252.45139,0.20839
2254.37986,0.20890
2256.30833,0.20658
2258.23680,0.20463
2260.16527,0.20494
2262.09374,0.20625
2264.02221,0.20764
2265.95067,0.20771
2267.87914,0.20547
2269.80761,0.20411
2271.73608,0.20480
2273.66455,0.20432
2275.59302,0.20302
2277.52149,0.20335
2279.44996,0.20354
2281.37842,0.20159
2283.30689,0.19927
2285.23536,0.19873
2287.16383,0.20041
2289.09230,0.20242
2291.02077,0.20273
2292.94924,0.20188
2294.87770,0.20120
2296.80617,0.20304
2298.73464,0.20676
2300.66311,0.20626
2302.59158,0.20186
2304.52005,0.19977
2306.44852,0.20142
2308.37699,0.20385
2310.30545,0.20392
2312.23392,0.20334
2314.16239,0.20500
2316.09086,0.20832
2318.01933,0.21147
2319.94780,0.20928
2321.87627,0.20249
2323.80473,0.20011
2325.73320,0.20080
2327.66167,0.20023
2329.59014,0.20346
2331.51861,0.20987
2333.44708,0.20966
2335.37555,0.20639
2337.30401,0.21237
2339.23248,0.22425
2341.16095,0.22980
2343.08942,0.22195
2345.01789,0.20652
2346.94636,0.20085
2348.87483,0.20589
2350.80330,0.21443
2352.73176,0.21905
2354.66023,0.21539
2356.58870,0.21059
2358.51717,0.20253
2360.44564,0.20247
2362.37411,0.22357
2364.30258,0.22739
2366.23104,0.20953
2368.15951,0.20898
2370.08798,0.21596
2372.01645,0.21276
2373.94492,0.20754
2375.87339,0.20572
2377.80186,0.20703
2379.73033,0.20878
2381.65879,0.20782
2383.58726,0.20529
2385.51573,0.20332
2387.44420,0.20078
2389.37267,0.19806
2391.30114,0.19821
2393.22961,0.19990
2395.15807,0.19964
2397.08654,0.19926
2399.01501,0.20200
2400.94348,0.20591
2402.87195,0.20713
2404.80042,0.20442
2406.72889,0.20217
2408.65736,0.20420
2410.58582,0.20570
2412.51429,0.20402
2414.44276,0.20327
2416.37123,0.20467
2418.29970,0.20606
2420.22817,0.20669
2422.15664,0.20682
2424.08510,0.20758
2426.01357,0.20864
2427.94204,0.20674
2429.87051,0.20452
2431.79898,0.20637
2433.72745,0.20910
2435.65592,0.21005
2437.58439,0.21031
2439.51285,0.20904
2441.44132,0.20587
2443.36979,0.20380
2445.29826,0.20419
2447.22673,0.20612
2449.15520,0.20892
2451.08367,0.21076
2453.01213,0.21090
2454.94060,0.20912
2456.86907,0.20544
2458.79754,0.20347
2460.72601,0.20501
2462.65448,0.20705
2464.58295,0.20777
2466.51142,0.20774
2468.43988,0.20587
2470.36835,0.20134
2472.29682,0.19852
2474.22529,0.20179
2476.15376,0.20729
2478.08223,0.21021
2480.01070,0.21118
2481.93916,0.20900
2483.86763,0.20496
2485.79610,0.20501
2487.72457,0.20670
2489.65304,0.20565
2491.58151,0.20514
2493.50998,0.20569
2495.43844,0.20629
2497.36691,0.20917
2499.29538,0.21198
2501.22385,0.21139
2503.15232,0.21029
2505.08079,0.21114
2507.00926,0.21194
2508.93773,0.21152
2510.86619,0.21116
2512.79466,0.21025
2514.72313,0.20804
2516.65160,0.20684
2518.58007,0.20891
2520.50854,0.21164
2522.43701,0.21140
2524.36547,0.21209
2526.29394,0.21477
2528.22241,0.21348
2530.15088,0.20978
2532.07935,0.20846
2534.00782,0.20883
2535.93629,0.20827
2537.86476,0.20607
2539.79322,0.20558
2541.72169,0.20872
2543.65016,0.21211
2545.57863,0.21279
2547.50710,0.21160
2549.43557,0.21088
2551.36404,0.21057
2553.29250,0.20922
2555.22097,0.20727
2557.14944,0.20689
2559.07791,0.20877
2561.00638,0.20957
2562.93485,0.20832
2564.86332,0.20759
2566.79179,0.20734
2568.72025,0.20643
2570.64872,0.20476
2572.57719,0.20338
2574.50566,0.20289
2576.43413,0.20289
2578.36260,0.20363
2580.29107,0.20560
2582.21953,0.20785
2584.14800,0.20826
2586.07647,0.20884
2588.00494,0.21174
2589.93341,0.21207
2591.86188,0.20873
2593.79035,0.20805
2595.71882,0.21006
2597.64728,0.21048
2599.57575,0.20957
2601.50422,0.20795
2603.43269,0.20650
2605.36116,0.20709
2607.28963,0.20806
2609.21810,0.20810
2611.14656,0.20883
2613.07503,0.20852
2615.00350,0.20696
2616.93197,0.20842
2618.86044,0.21157
2620.78891,0.21438
2622.71738,0.21676
2624.64585,0.21552
2626.57431,0.21180
2628.50278,0.21083
2630.43125,0.21415
2632.35972,0.21743
2634.28819,0.21629
2636.21666,0.21271
2638.14513,0.21018
2640.07359,0.20963
2642.00206,0.21098
2643.93053,0.21339
2645.85900,0.21430
2647.78747,0.21299
2649.71594,0.21271
2651.64441,0.21444
2653.57288,0.21539
2655.50134,0.21419
2657.42981,0.21245
2659.35828,0.21191
2661.28675,0.21264
2663.21522,0.21366
2665.14369,0.21413
2667.07216,0.21511
2669.00062,0.21705
2670.92909,0.21835
2672.85756,0.21851
2674.78603,0.21716
2676.71450,0.21534
2678.64297,0.21574
2680.57144,0.21701
2682.49990,0.21591
2684.42837,0.21441
2686.35684,0.21578
2688.28531,0.21706
2690.21378,0.21680
2692.14225,0.21903
2694.07072,0.22222
2695.99919,0.22189
2697.92765,0.21918
2699.85612,0.21599
2701.78459,0.21290
2703.71306,0.21236
2705.64153,0.21427
2707.57000,0.21588
2709.49847,0.21734
2711.42693,0.21879
2713.35540,0.21891
2715.28387,0.21758
2717.21234,0.21551
2719.14081,0.21409
2721.06928,0.21426
2722.99775,0.21548
2724.92622,0.21629
2726.85468,0.21697
2728.78315,0.21845
2730.71162,0.21951
2732.64009,0.21934
2734.56856,0.21791
2736.49703,0.21710
2738.42550,0.21964
2740.35396,0.22314
2742.28243,0.22386
2744.21090,0.22222
2746.13937,0.22013
2748.06784,0.21926
2749.99631,0.22024
2751.92478,0.21969
2753.85325,0.21584
2755.78171,0.21398
2757.71018,0.21663
2759.63865,0.21997
2761.56712,0.22173
2763.49559,0.22241
2765.42406,0.22247
2767.35253,0.22173
2769.28099,0.22080
2771.20946,0.22068
2773.13793,0.22064
2775.06640,0.21935
2776.99487,0.21825
2778.92334,0.22017
2780.85181,0.22252
2782.78028,0.22202
2784.70874,0.22244
2786.63721,0.22451
2788.56568,0.22382
2790.49415,0.22174
2792.42262,0.22144
2794.35109,0.22268
2796.27956,0.22450
2798.20802,0.22500
2800.13649,0.22357
2802.06496,0.22130
2803.99343,0.22024
2805.92190,0.22219
2807.85037,0.22464
2809.77884,0.22489
2811.70731,0.22410
2813.63577,0.22377
2815.56424,0.22346
2817.49271,0.22321
2819.42118,0.22548
2821.34965,0.22823
2823.27812,0.22699
2825.20659,0.22691
2827.13505,0.23104
2829.06352,0.23222
2830.99199,0.22910
2832.92046,0.22555
2834.84893,0.22357
2836.77740,0.22636
2838.70587,0.23056
2840.63433,0.22936
2842.56280,0.22669
2844.49127,0.22738
2846.41974,0.22932
2848.34821,0.23044
2850.27668,0.22881
2852.20515,0.22525
2854.13362,0.22318
2856.06208,0.22369
2857.99055,0.22541
2859.91902,0.22537
2861.84749,0.22284
2863.77596,0.22158
2865.70443,0.22284
2867.63290,0.22384
2869.56136,0.22521
2871.48983,0.22752
2873.41830,0.22879
2875.34677,0.22776
2877.27524,0.22538
2879.20371,0.22649
2881.13218,0.23145
2883.06065,0.23344
2884.98911,0.23016
2886.91758,0.22651
2888.84605,0.22579
2890.77452,0.22713
2892.70299,0.22830
2894.63146,0.22607
2896.55993,0.22186
2898.48839,0.21890
2900.41686,0.21713
2902.34533,0.21857
2904.27380,0.22443
2906.20227,0.23171
2908.13074,0.23586
2910.05921,0.23408
2911.98768,0.22939
2913.91614,0.22439
2915.84461,0.21888
2917.77308,0.21508
2919.70155,0.21438
2921.63002,0.21577
2923.55849,0.21559
2925.48696,0.21198
2927.41542,0.21194
2929.34389,0.22024
2931.27236,0.23096
2933.20083,0.23449
2935.12930,0.22701
2937.05777,0.21725
2938.98624,0.21538
2940.91471,0.21802
2942.84317,0.21878
2944.77164,0.21613
2946.70011,0.21077
2948.62858,0.21121
2950.55705,0.22107
2952.48552,0.22865
2954.41399,0.22659
2956.34245,0.21978
2958.27092,0.21669
2960.19939,0.21995
2962.12786,0.22249
2964.05633,0.22014
2965.98480,0.21657
2967.91327,0.21531
2969.84174,0.21856
2971.77020,0.22288
2973.69867,0.22396
2975.62714,0.22414
2977.55561,0.22436
2979.48408,0.22545
2981.41255,0.22808
2983.34102,0.22915
2985.26948,0.22921
2987.19795,0.22844
2989.12642,0.22840
2991.05489,0.23254
2992.98336,0.23600
2994.91183,0.23675
2996.84030,0.23624
2998.76877,0.23259
3000.69723,0.22998
3002.62570,0.23143
3004.55417,0.23098
3006.48264,0.22776
3008.41111,0.22730
3010.33958,0.22708
3012.26805,0.21869
3014.19651,0.19859
3016.12498,0.17861
3018.05345,0.18133
3019.98192,0.20580
3021.91039,0.22771
3023.83886,0.23714
3025.76733,0.23973
3027.69579,0.23996
3029.62426,0.23836
3031.55273,0.23498
3033.48120,0.23357
3035.40967,0.23369
3037.33814,0.23104
3039.26661,0.22922
3041.19508,0.23086
3043.12354,0.23213
3045.05201,0.23061
3046.98048,0.22918
3048.90895,0.23263
3050.83742,0.23615
3052.76589,0.23330
3054.69436,0.22768
3056.62282,0.22286
3058.55129,0.22146
3060.47976,0.22638
3062.40823,0.23238
3064.33670,0.23117
3066.26517,0.22593
3068.19364,0.22658
3070.12211,0.22959
3072.05057,0.22819
3073.97904,0.22572
3075.90751,0.22485
3077.83598,0.22920
3079.76445,0.23956
3081.69292,0.24572
3083.62139,0.23862
3085.54985,0.22610
3087.47832,0.22052
3089.40679,0.22002
3091.33526,0.22001
3093.26373,0.21779
3095.19220,0.21616
3097.12067,0.22084
3099.04914,0.22608
3100.97760,0.22588
3102.90607,0.22084
3104.83454,0.21842
3106.76301,0.22332
3108.69148,0.22828
3110.61995,0.22798
3112.54842,0.22595
3114.47688,0.22716
3116.40535,0.23098
3118.33382,0.23331
3120.26229,0.23027
3122.19076,0.22520
3124.11923,0.22634
3126.04770,0.23100
3127.97617,0.23190
3129.90463,0.22919
3131.83310,0.22886
3133.76157,0.23231
3135.69004,0.23222
3137.61851,0.22839
3139.54698,0.22997
3141.47545,0.23628
3143.40391,0.23641
3145.33238,0.23144
3147.26085,0.23150
3149.18932,0.23560
3151.11779,0.23807
3153.04626,0.23813
3154.97473,0.23666
3156.90320,0.23517
3158.83166,0.23282
3160.76013,0.22872
3162.68860,0.22615
3164.61707,0.22842
3166.54554,0.23222
3168.47401,0.23226
3170.40248,0.23077
3172.33094,0.23096
3174.25941,0.23423
3176.18788,0.24069
3178.11635,0.24248
3180.04482,0.23575
3181.97329,0.23204
3183.90176,0.23771
3185.83022,0.24384
3187.75869,0.24367
3189.68716,0.24252
3191.61563,0.24769
3193.54410,0.25292
3195.47257,0.24697
3197.40104,0.23499
3199.32951,0.22945
3201.25797,0.23143
3203.18644,0.23578
3205.11491,0.24097
3207.04338,0.24539
3208.97185,0.24459
3210.90032,0.24111
3212.82879,0.24184
3214.75725,0.24397
3216.68572,0.24248
3218.61419,0.23915
3220.54266,0.23518
3222.47113,0.23147
3224.39960,0.23031
3226.32807,0.23332
3228.25654,0.23966
3230.18500,0.24345
3232.11347,0.24205
3234.04194,0.24022
3235.97041,0.23889
3237.89888,0.23566
3239.82735,0.23224
3241.75582,0.23046
3243.68428,0.22905
3245.61275,0.22811
3247.54122,0.22966
3249.46969,0.23239
3251.39816,0.23313
3253.32663,0.23140
3255.25510,0.23034
3257.18357,0.23238
3259.11203,0.23581
3261.04050,0.23587
3262.96897,0.22934
3264.89744,0.22370
3266.82591,0.22674
3268.75438,0.23078
3270.68285,0.22900
3272.61131,0.22839
3274.53978,0.23182
3276.46825,0.23163
3278.39672,0.22648
3280.32519,0.22148
3282.25366,0.22113
3284.18213,0.22737
3286.11060,0.23348
3288.03906,0.23418
3289.96753,0.23407
3291.89600,0.23622
3293.82447,0.23773
3295.75294,0.23792
3297.68141,0.23745
3299.60988,0.23349
3301.53834,0.22813
3303.46681,0.22810
3305.39528,0.23233
3307.32375,0.23287
3309.25222,0.22839
3311.18069,0.22626
3313.10916,0.22899
3315.03763,0.23196
3316.96609,0.23302
3318.89456,0.23382
3320.82303,0.23220
3322.75150,0.22802
3324.67997,0.23037
3326.60844,0.23760
3328.53691,0.23838
3330.46537,0.23459
3332.39384,0.23527
3334.32231,0.24064
3336.25078,0.24370
3338.17925,0.24064
3340.10772,0.23640
3342.03619,0.23979
3343.96466,0.24895
3345.89312,0.25226
3347.82159,0.24651
3349.75006,0.23843
3351.67853,0.23542
3353.60700,0.24002
3355.53547,0.24396
3357.46394,0.23966
3359.39240,0.23656
3361.32087,0.24150
3363.24934,0.24663
3365.17781,0.24800
3367.10628,0.24860
3369.03475,0.24844
3370.96322,0.24410
3372.89168,0.23691
3374.82015,0.23251
3376.74862,0.23040
3378.67709,0.22980
3380.60556,0.23332
3382.53403,0.23744
3384.46250,0.23756
3386.39097,0.23581
3388.31943,0.23343
3390.24790,0.22940
3392.17637,0.22875
3394.10484,0.23501
3396.03331,0.24177
3397.96178,0.24433
3399.89025,0.24267
3401.81871,0.23891
3403.74718,0.23748
3405.67565,0.23654
3407.60412,0.23196
3409.53259,0.22716
3411.46106,0.22607
3413.38953,0.22861
3415.31800,0.23379
3417.24646,0.23677
3419.17493,0.23400
3421.10340,0.23031
3423.03187,0.22796
3424.96034,0.22503
3426.88881,0.22363
3428.81728,0.22585
3430.74574,0.23116
3432.67421,0.23642
3434.60268,0.23829
3436.53115,0.23652
3438.45962,0.23198
3440.38809,0.22777
3442.31656,0.22738
3444.24503,0.22870
3446.17349,0.22784
3448.10196,0.22342
3450.03043,0.21831
3451.95890,0.21747
3453.88737,0.21932
3455.81584,0.22105
3457.74431,0.22473
3459.67277,0.22843
3461.60124,0.22770
3463.52971,0.22462
3465.45818,0.22338
3467.38665,0.22303
3469.31512,0.22046
3471.24359,0.21608
3473.17206,0.21529
3475.10052,0.22012
3477.02899,0.22224
3478.95746,0.21582
3480.88593,0.20762
3482.81440,0.20497
3484.74287,0.20472
3486.67134,0.20204
3488.59980,0.19719
3490.52827,0.19474
3492.45674,0.19847
3494.38521,0.20253
3496.31368,0.20188
3498.24215,0.20357
3500.17062,0.21044
3502.09909,0.21339
3504.02755,0.20650
3505.95602,0.19897
3507.88449,0.19887
3509.81296,0.19937
3511.74143,0.19528
3513.66990,0.19388
3515.59837,0.19861
3517.52683,0.20298
3519.45530,0.20187
3521.38377,0.19944
3523.31224,0.19919
3525.24071,0.19785
3527.16918,0.19297
3529.09765,0.18645
3531.02611,0.18338
3532.95458,0.18353
3534.88305,0.18438
3536.81152,0.18762
3538.73999,0.19116
3540.66846,0.19078
3542.59693,0.18861
3544.52540,0.19009
3546.45386,0.19421
3548.38233,0.19259
3550.31080,0.18570
3552.23927,0.18221
3554.16774,0.18254
3556.09621,0.18049
3558.02468,0.17815
3559.95314,0.17854
3561.88161,0.18165
3563.81008,0.18914
3565.73855,0.19569
3567.66702,0.19075
3569.59549,0.17947
3571.52396,0.16993
3573.45243,0.16394
3575.38089,0.16438
3577.30936,0.16907
3579.23783,0.17357
3581.16630,0.17668
3583.09477,0.17753
3585.02324,0.17581
3586.95171,0.17248
3588.88017,0.16765
3590.80864,0.16552
3592.73711,0.16851
3594.66558,0.17301
3596.59405,0.17501
3598.52252,0.17302
3600.45099,0.16823
3602.37946,0.16552
3604.30792,0.16630
3606.23639,0.16776
3608.16486,0.16844
3610.09333,0.16944
3612.02180,0.17175
3613.95027,0.17406
3615.87874,0.17454
3617.80720,0.17423
3619.73567,0.17186
3621.66414,0.16536
3623.59261,0.15969
3625.52108,0.15795
3627.44955,0.16023
3629.37802,0.16545
3631.30649,0.16813
3633.23495,0.16447
3635.16342,0.15507
3637.09189,0.14739
3639.02036,0.14518
3640.94883,0.14620
3642.87730,0.15069
3644.80577,0.15785
3646.73423,0.16545
3648.66270,0.17503
3650.59117,0.17698
3652.51964,0.16686
3654.44811,0.16007
3656.37658,0.15693
3658.30505,0.14889
3660.23352,0.13991
3662.16198,0.13681
3664.09045,0.14091
3666.01892,0.15093
3667.94739,0.16371
3669.87586,0.16599
3671.80433,0.15378
3673.73280,0.15301
3675.66126,0.16662
3677.58973,0.16807
3679.51820,0.15787
3681.44667,0.14899
3683.37514,0.14395
3685.30361,0.14274
3687.23208,0.14832
3689.16055,0.15953
3691.08901,0.15884
3693.01748,0.14709
3694.94595,0.13830
3696.87442,0.13547
3698.80289,0.13811
3700.73136,0.14348
3702.65983,0.14632
3704.58829,0.14708
3706.51676,0.14866
3708.44523,0.15135
3710.37370,0.15318
3712.30217,0.14991
3714.23064,0.14340
3716.15911,0.13650
3718.08757,0.13240
3720.01604,0.13587
3721.94451,0.14577
3723.87298,0.15424
3725.80145,0.15383
3727.72992,0.14928
3729.65839,0.15343
3731.58686,0.16647
3733.51532,0.17746
3735.44379,0.18099
3737.37226,0.17680
3739.30073,0.16961
3741.22920,0.16621
3743.15767,0.16415
3745.08614,0.15513
3747.01460,0.14545
3748.94307,0.14615
3750.87154,0.15320
3752.80001,0.14882
3754.72848,0.13929
3756.65695,0.13682
3758.58542,0.13973
3760.51389,0.14189
3762.44235,0.14200
3764.37082,0.14110
3766.29929,0.14404
3768.22776,0.15150
3770.15623,0.14950
3772.08470,0.13741
3774.01317,0.13308
3775.94163,0.13703
3777.87010,0.14210
3779.79857,0.14599
3781.72704,0.14653
3783.65551,0.14132
3785.58398,0.12951
3787.51245,0.12102
3789.44092,0.12318
3791.36938,0.13071
3793.29785,0.13891
3795.22632,0.14476
3797.15479,0.14575
3799.08326,0.14603
3801.01173,0.14955
3802.94020,0.15023
3804.86866,0.14909
3806.79713,0.15189
3808.72560,0.15127
3810.65407,0.14241
3812.58254,0.13112
3814.51101,0.12508
3816.43948,0.13160
3818.36795,0.14214
3820.29641,0.14273
3822.22488,0.13472
3824.15335,0.13386
3826.08182,0.13988
3828.01029,0.14294
3829.93876,0.14012
3831.86723,0.13547
3833.79569,0.13158
3835.72416,0.13310
3837.65263,0.14327
3839.58110,0.15113
3841.50957,0.15029
3843.43804,0.14991
3845.36651,0.15085
3847.29498,0.15000
3849.22344,0.14826
3851.15191,0.14589
3853.08038,0.14357
3855.00885,0.14401
3856.93732,0.14275
3858.86579,0.13886
3860.79426,0.13420
3862.72272,0.13111
3864.65119,0.13400
3866.57966,0.14226
3868.50813,0.14913
3870.43660,0.14888
3872.36507,0.14300
3874.29354,0.13795
3876.22200,0.13512
3878.15047,0.13362
3880.07894,0.13203
3882.00741,0.13335
3883.93588,0.13623
3885.86435,0.13432
3887.79282,0.13403
3889.72129,0.13927
3891.64975,0.14027
3893.57822,0.13332
3895.50669,0.12819
3897.43516,0.12753
3899.36363,0.12905
3901.29210,0.13194
3903.22057,0.13909
3905.14903,0.14314
3907.07750,0.13594
3909.00597,0.12867
3910.93444,0.12688
3912.86291,0.12646
3914.79138,0.12650
3916.71985,0.12838
3918.64832,0.13133
3920.57678,0.13253
3922.50525,0.13307
3924.43372,0.13281
3926.36219,0.12980
3928.29066,0.12704
3930.21913,0.12657
3932.14760,0.12972
3934.07606,0.13351
3936.00453,0.13379
3937.93300,0.13027
3939.86147,0.12498
3941.78994,0.12473
3943.71841,0.12674
3945.64688,0.12338
3947.57535,0.12207
3949.50381,0.12536
3951.43228,0.12520
3953.36075,0.12260
3955.28922,0.12254
3957.21769,0.12382
3959.14616,0.12320
3961.07463,0.11861
3963.00309,0.11307
3964.93156,0.11390
3966.86003,0.11810
3968.78850,0.11790
3970.71697,0.11654
3972.64544,0.11855
3974.57391,0.12072
3976.50238,0.12039
3978.43084,0.11904
3980.35931,0.11822
3982.28778,0.11682
3984.21625,0.11298
3986.14472,0.11007
3988.07319,0.11079
3990.00166,0.11257
3991.93012,0.11548
3993.85859,0.11848
3995.78706,0.11650
3997.71553,0.11052
3999.64400,0.10780
4001.57247,0.10969
4003.50094,0.11173
4005.42941,0.11192
4007.35787,0.11061
4009.28634,0.11040
4011.21481,0.11229
4013.14328,0.11171
4015.07175,0.10756
4017.00022,0.10712
4018.92869,0.11051
4020.85715,0.10829
4022.78562,0.10113
4024.71409,0.09778
4026.64256,0.10173
4028.57103,0.10748
4030.49950,0.11067
4032.42797,0.11326
4034.35644,0.11519
4036.28490,0.11521
4038.21337,0.11497
4040.14184,0.11703
4042.07031,0.11684
4043.99878,0.10959
4045.92725,0.10086
4047.85572,0.09700
4049.78418,0.09908
4051.71265,0.10253
4053.64112,0.10239
4055.56959,0.10217
4057.49806,0.10509
4059.42653,0.10656
4061.35500,0.10512
4063.28346,0.10235
4065.21193,0.09718
4067.14040,0.09315
4069.06887,0.09194
4070.99734,0.09096
4072.92581,0.09091
4074.85428,0.09257
4076.78275,0.09885
4078.71121,0.10930
4080.63968,0.11373
4082.56815,0.10947
4084.49662,0.10515
4086.42509,0.10216
4088.35356,0.09997
4090.28203,0.10391
4092.21049,0.11043
4094.13896,0.10986
4096.06743,0.10373
4097.99590,0.10231
4099.92437,0.10467
4101.85284,0.10120
4103.78131,0.09404
4105.70978,0.09351
4107.63824,0.10016
4109.56671,0.10447
4111.49518,0.10160
4113.42365,0.09629
4115.35212,0.09414
4117.28059,0.09579
4119.20906,0.09986
4121.13752,0.10180
4123.06599,0.09945
4124.99446,0.09792
4126.92293,0.09757
4128.85140,0.09533
4130.77987,0.09427
4132.70834,0.09758
4134.63681,0.10100
4136.56527,0.10170
4138.49374,0.10137
4140.42221,0.10024
4142.35068,0.09941
4144.27915,0.09880
4146.20762,0.09822
4148.13609,0.09715
4150.06455,0.09546
4151.99302,0.09639
4153.92149,0.09891
4155.84996,0.09715
4157.77843,0.09089
4159.70690,0.08798
4161.63537,0.08963
4163.56384,0.08972
4165.49230,0.08765
4167.42077,0.08772
4169.34924,0.09201
4171.27771,0.09490
4173.20618,0.09355
4175.13465,0.09141
4177.06312,0.08835
4178.99158,0.08424
4180.92005,0.08252
4182.84852,0.08404
4184.77699,0.08639
4186.70546,0.08965
4188.63393,0.09038
4190.56240,0.08504
4192.49087,0.08293
4194.41933,0.08480
4196.34780,0.07982
4198.27627,0.07531
4200.20474,0.08230
4202.13321,0.08975
4204.06168,0.08680
4205.99015,0.08336
4207.91861,0.08756
4209.84708,0.08940
4211.77555,0.08337
4213.70402,0.07762
4215.63249,0.07534
4217.56096,0.07226
4219.48943,0.06794
4221.41789,0.06655
4223.34636,0.07171
4225.27483,0.07873
4227.20330,0.08183
4229.13177,0.08361
4231.06024,0.08301
4232.98871,0.08044
4234.91718,0.08246
4236.84564,0.08906
4238.77411,0.09292
4240.70258,0.08738
4242.63105,0.07654
4244.55952,0.06949
4246.48799,0.06851
4248.41646,0.07047
4250.34492,0.07244
4252.27339,0.07451
4254.20186,0.07896
4256.13033,0.08592
4258.05880,0.08717
4259.98727,0.07910
4261.91574,0.07357
4263.84421,0.07837
4265.77267,0.08332
4267.70114,0.07790
4269.62961,0.06875
4271.55808,0.06454
4273.48655,0.06235
4275.41502,0.06190
4277.34349,0.06682
4279.27195,0.07119
4281.20042,0.06966
4283.12889,0.06863
4285.05736,0.07161
4286.98583,0.07220
4288.91430,0.06922
4290.84277,0.06721
4292.77124,0.06628
4294.69970,0.06530
4296.62817,0.06260
4298.55664,0.05998
4300.48511,0.06147
4302.41358,0.06538
4304.34205,0.07226
4306.27052,0.08056
4308.19898,0.08122
4310.12745,0.07336
4312.05592,0.06352
4313.98439,0.05480
4315.91286,0.05119
4317.84133,0.05667
4319.76980,0.06634
4321.69827,0.07045
4323.62673,0.06661
4325.55520,0.05907
4327.48367,0.05198
4329.41214,0.04717
4331.34061,0.04580
4333.26908,0.05071
4335.19755,0.05819
4337.12601,0.05821
4339.05448,0.05399
4340.98295,0.05522
4342.91142,0.06055
4344.83989,0.06791
4346.76836,0.07339
4348.69683,0.06863
4350.62530,0.06080
4352.55376,0.05866
4354.48223,0.05649
4356.41070,0.05356
4358.33917,0.05214
4360.26764,0.05140
4362.19611,0.05372
4364.12458,0.05582
4366.05304,0.05289
4367.98151,0.04947
4369.90998,0.04793
4371.83845,0.04559
4373.76692,0.04436
4375.69539,0.04705
4377.62386,0.05060
4379.55232,0.05027
4381.48079,0.04478
4383.40926,0.03931
4385.33773,0.04202
4387.26620,0.04879
4389.19467,0.05184
4391.12314,0.05511
4393.05161,0.05659
4394.98007,0.04932
4396.90854,0.04091
4398.83701,0.04128
4400.76548,0.04779
4402.69395,0.05474
4404.62242,0.05936
4406.55089,0.05476
4408.47935,0.03786
4410.40782,0.02636
4412.33629,0.03660
4414.26476,0.05233
4416.19323,0.05153
4418.12170,0.03976
4420.05017,0.03332
4421.97864,0.03338
4423.90710,0.03262
4425.83557,0.02990
4427.76404,0.02922
4429.69251,0.03205
4431.62098,0.03361
4433.54945,0.03263
4435.47792,0.03111
4437.40638,0.02889
4439.33485,0.02778
4441.26332,0.02697
4443.19179,0.02660
4445.12026,0.02881
4447.04873,0.02765
4448.97720,0.02046
4450.90567,0.01763
4452.83413,0.02437
4454.76260,0.03190
4456.69107,0.03395
4458.61954,0.03173
4460.54801,0.03100
4462.47648,0.03524
4464.40495,0.03744
4466.33341,0.03230
4468.26188,0.02500
4470.19035,0.02383
4472.11882,0.02966
4474.04729,0.03326
4475.97576,0.03006
4477.90423,0.02722
4479.83270,0.02810
4481.76116,0.02723
4483.68963,0.02552
4485.61810,0.02718
4487.54657,0.02782
4489.47504,0.02604
4491.40351,0.02444
4493.33198,0.02107
4495.26044,0.01636
4497.18891,0.01543
4499.11738,0.02252
4501.04585,0.03219
4502.97432,0.03209
4504.90279,0.02255
4506.83126,0.01555
4508.75973,0.01413
4510.68819,0.01283
4512.61666,0.01205
4514.54513,0.01660
4516.47360,0.02509
4518.40207,0.02762
4520.33054,0.01929
4522.25901,0.01277
4524.18747,0.01596
4526.11594,0.01794
4528.04441,0.01675
4529.97288,0.01931
4531.90135,0.02500
4533.82982,0.02818
4535.75829,0.02438
4537.68676,0.02144
4539.61522,0.02329
4541.54369,0.02257
4543.47216,0.02282
4545.40063,0.02466
4547.32910,0.02271
4549.25757,0.02375
4551.18604,0.02778
4553.11450,0.02216
4555.04297,0.00958
4556.97144,0.00417
4558.89991,0.00522
4560.82838,0.00551
4562.75685,0.00708
4564.68532,0.01314
4566.61378,0.02093
4568.54225,0.02286
4570.47072,0.01861
4572.39919,0.01867
4574.32766,0.02599
4576.25613,0.03236
4578.18460,0.03040
4580.11307,0.01954
4582.04153,0.00848
4583.97000,0.00731
4585.89847,0.01312
4587.82694,0.01674
4589.75541,0.01709
4591.68388,0.01575
4593.61235,0.01430
4595.54081,0.01275
4597.46928,0.00861
4599.39775,0.00374
4601.32622,-0.00115
4603.25469,-0.00381
4605.18316,0.00208
4607.11163,0.00927
4609.04010,0.00833
4610.96856,0.00735
4612.89703,0.01210
4614.82550,0.01221
4616.75397,0.00283
4618.68244,-0.00421
4620.61091,-0.00382
4622.53938,-0.00285
4624.46784,-0.00308
4626.39631,-0.00234
4628.32478,0.00158
4630.25325,0.00967
4632.18172,0.01814
4634.11019,0.01896
4636.03866,0.01303
4637.96713,0.00786
4639.89559,0.00362
4641.82406,0.00326
4643.75253,0.00888
4645.68100,0.01329
4647.60947,0.00932
4649.53794,-0.00211
4651.46641,-0.00894
4653.39487,-0.00856
4655.32334,-0.01348
4657.25181,-0.01964
4659.18028,-0.01090
4661.10875,0.00487
4663.03722,0.01085
4664.96569,0.01195
4666.89416,0.01911
4668.82262,0.02782
4670.75109,0.02948
4672.67956,0.02568
4674.60803,0.01857
4676.53650,0.01086
4678.46497,0.00680
4680.39344,0.00404
4682.32190,0.00259
4684.25037,0.00539
4686.17884,0.01044
4688.10731,0.01537
4690.03578,0.01677
4691.96425,0.01397
4693.89272,0.01357
4695.82119,0.01218
4697.74965,0.00665
4699.67812,0.00776
4701.60659,0.01410
4703.53506,0.01445
4705.46353,0.01432
4707.39200,0.01700
4709.32047,0.01041
4711.24893,-0.00583
4713.17740,-0.01459
4715.10587,-0.00541
4717.03434,0.01043
4718.96281,0.02163
4720.89128,0.03389
4722.81975,0.03720
4724.74821,0.01862
4726.67668,-0.00130
4728.60515,-0.00621
4730.53362,-0.00340
4732.46209,0.00392
4734.39056,0.01344
4736.31903,0.01883
4738.24750,0.01853
4740.17596,0.01392
4742.10443,0.01273
4744.03290,0.01594
4745.96137,0.00732
4747.88984,-0.00839
4749.81831,-0.00407
4751.74678,0.01386
4753.67524,0.01585
4755.60371,0.00046
4757.53218,-0.01238
4759.46065,-0.01323
4761.38912,-0.00806
4763.31759,-0.00585
4765.24606,-0.00684
4767.17453,-0.00540
4769.10299,-0.00034
4771.03146,0.00764
4772.95993,0.01316
4774.88840,0.00998
4776.81687,0.00748
4778.74534,0.01460
4780.67381,0.02318
4782.60227,0.02733
4784.53074,0.02808
4786.45921,0.02293
4788.38768,0.01441
4790.31615,0.01144
4792.24462,0.01643
4794.17309,0.01787
4796.10156,0.00771
4798.03002,0.00316
4799.95849,0.01312
4801.88696,0.01755
4803.81543,0.01002
4805.74390,0.00611
4807.67237,0.00586
4809.60084,0.00649
4811.52930,0.01461
4813.45777,0.02023
4815.38624,0.01516
4817.31471,0.00649
4819.24318,-0.00040
4821.17165,0.00457
4823.10012,0.01975
4825.02859,0.02540
4826.95705,0.02001
4828.88552,0.01333
4830.81399,0.00256
4832.74246,-0.00724
4834.67093,0.00142
4836.59940,0.02428
4838.52787,0.03305
4840.45633,0.01790
4842.38480,-0.00029
4844.31327,-0.00018
4846.24174,0.00984
4848.17021,0.00803
4850.09868,-0.00188
4852.02715,-0.00819
4853.95562,-0.01093
4855.88408,-0.00554
4857.81255,0.00509
4859.74102,0.00957
4861.66949,0.00794
4863.59796,0.00715
4865.52643,0.00756
4867.45490,0.00246
4869.38336,-0.00351
4871.31183,-0.00113
4873.24030,0.00394
4875.16877,0.00869
4877.09724,0.01079
4879.02571,0.00813
4880.95418,0.01168
4882.88265,0.01825
4884.81111,0.01361
4886.73958,0.00530
4888.66805,0.00687
4890.59652,0.01016
4892.52499,0.00367
4894.45346,-0.00196
4896.38193,0.00419
4898.31039,0.01258
4900.23886,0.01229
4902.16733,0.00777
4904.09580,0.00724
4906.02427,0.00610
4907.95274,-0.00543
4909.88121,-0.01684
4911.80967,-0.01110
4913.73814,0.00752
4915.66661,0.01389
4917.59508,0.00425
4919.52355,-0.00640
4921.45202,-0.01596
4923.38049,-0.01300
4925.30896,0.00296
4927.23742,0.00585
4929.16589,0.00057
4931.09436,0.00035
4933.02283,-0.00283
4934.95130,-0.00435
4936.87977,0.00511
4938.80824,0.01612
4940.73670,0.01680
4942.66517,0.00657
4944.59364,-0.00213
4946.52211,0.00347
4948.45058,0.01622
4950.37905,0.02191
4952.30752,0.01958
4954.23599,0.01015
4956.16445,-0.00283
4958.09292,-0.00005
4960.02139,0.02185
4961.94986,0.03039
4963.87833,0.01785
4965.80680,0.01162
4967.73527,0.01303
4969.66373,0.00574
4971.59220,-0.00447
4973.52067,-0.00192
4975.44914,0.00844
4977.37761,0.00709
4979.30608,-0.00569
4981.23455,-0.01682
4983.16302,-0.02020
4985.09148,-0.00599
4987.01995,0.01285
4988.94842,0.00744
4990.87689,-0.00422
4992.80536,0.00182
4994.73383,0.00951
4996.66230,0.01224
4998.59076,0.01595
5000.51923,0.02278
5002.44770,0.03168
5004.37617,0.03482
5006.30464,0.03711
5008.23311,0.03704
5010.16158,0.02370
5012.09005,0.00996
5014.01851,0.00872
5015.94698,0.00982
5017.87545,0.00351
5019.80392,-0.00173
5021.73239,0.00273
5023.66086,0.00391
5025.58933,-0.00635
5027.51779,-0.00953
5029.44626,0.00526
5031.37473,0.02313
5033.30320,0.02964
5035.23167,0.02582
5037.16014,0.02002
5039.08861,0.02376
5041.01708,0.03232
5042.94554,0.02469
5044.87401,0.00818
5046.80248,0.00404
5048.73095,0.00595
5050.65942,0.00319
5052.58789,0.00453
5054.51636,0.01595
5056.44482,0.02568
5058.37329,0.02516
5060.30176,0.02343
5062.23023,0.02681
5064.15870,0.03132
5066.08717,0.03755
5068.01564,0.04043
5069.94410,0.02992
5071.87257,0.01647
5073.80104,0.01459
5075.72951,0.02429
5077.65798,0.04287
5079.58645,0.04712
5081.51492,0.02171
5083.44339,0.00406
5085.37185,0.01156
5087.30032,0.01910
5089.22879,0.01962
5091.15726,0.02089
5093.08573,0.02747
5095.01420,0.03685
5096.94267,0.03554
5098.87113,0.02484
5100.79960,0.02118
5102.72807,0.02763
5104.65654,0.03607
5106.58501,0.04171
5108.51348,0.04845
5110.44195,0.05494
5112.37042,0.05156
5114.29888,0.03971
5116.22735,0.03132
5118.15582,0.02983
5120.08429,0.02803
5122.01276,0.02304
5123.94123,0.01520
5125.86970,0.01536
5127.79816,0.02888
5129.72663,0.03684
5131.65510,0.02956
5133.58357,0.02363
5135.51204,0.05387
5137.44051,0.10514
5139.36898,0.12372
5141.29745,0.12720
5143.22591,0.12185
5145.15438,0.06806
5147.08285,0.02307
5149.01132,0.03605
5150.93979,0.04708
5152.86826,0.03998
5154.79673,0.04141
5156.72519,0.04724
5158.65366,0.04934
5160.58213,0.04355
5162.51060,0.04230
5164.43907,0.05810
5166.36754,0.08416
5168.29601,0.10196
5170.22448,0.08732
5172.15294,0.05627
5174.08141,0.04965
5176.00988,0.06139
5177.93835,0.06088
5179.86682,0.04861
5181.79529,0.04097
5183.72376,0.03653
5185.65222,0.03041
5187.58069,0.02887
5189.50916,0.03368
5191.43763,0.04073
5193.36610,0.04659
5195.29457,0.04100
5197.22304,0.02721
5199.15151,0.02703
5201.07997,0.04208
5203.00844,0.05864
5204.93691,0.06465
5206.86538,0.05678
5208.79385,0.04457
5210.72232,0.03081
5212.65079,0.02135
5214.57925,0.01861
5216.50772,0.02086
5218.43619,0.03567
5220.36466,0.05069
5222.29313,0.04805
5224.22160,0.03958
5226.15007,0.04509
5228.07854,0.05998
5230.00700,0.07085
5231.93547,0.08028
5233.86394,0.07812
5235.79241,0.06704
5237.72088,0.07551
5239.64935,0.07872
5241.57782,0.04376
5243.50628,0.01064
5245.43475,0.00586
5247.36322,0.00757
5249.29169,0.02461
5251.22016,0.04714
5253.14863,0.03822
5255.07710,0.02333
5257.00556,0.04151
5258.93403,0.06447
5260.86250,0.06099
5262.79097,0.05096
5264.71944,0.05205
5266.64791,0.05330
5268.57638,0.05773
5270.50485,0.06659
5272.43331,0.07567
5274.36178,0.08010
5276.29025,0.07003
5278.21872,0.05776
5280.14719,0.05826
5282.07566,0.06557
5284.00413,0.06775
5285.93259,0.05906
5287.86106,0.04494
5289.78953,0.03209
5291.71800,0.02920
5293.64647,0.03682
5295.57494,0.04161
5297.50341,0.04193
5299.43188,0.04380
5301.36034,0.03642
5303.28881,0.01746
5305.21728,0.01198
5307.14575,0.02998
5309.07422,0.04647
5311.00269,0.05463
5312.93116,0.07711
5314.85962,0.08859
5316.78809,0.05674
5318.71656,0.02877
5320.64503,0.03897
5322.57350,0.05386
5324.50197,0.06018
5326.43044,0.07588
5328.35891,0.09194
5330.28737,0.09286
5332.21584,0.08987
5334.14431,0.09210
5336.07278,0.09515
5338.00125,0.09872
5339.92972,0.09608
5341.85819,0.07942
5343.78665,0.05568
5345.71512,0.03304
5347.64359,0.02330
5349.57206,0.03818
5351.50053,0.06954
5353.42900,0.08594
5355.35747,0.07666
5357.28594,0.06900
5359.21440,0.07634
5361.14287,0.08446
5363.07134,0.07304
5364.99981,0.05447
5366.92828,0.05697
5368.85675,0.08029
5370.78522,0.10032
5372.71368,0.09186
5374.64215,0.06823
5376.57062,0.06990
5378.49909,0.08797
5380.42756,0.09301
5382.35603,0.08390
5384.28450,0.05753
5386.21297,0.01919
5388.14143,-0.00036
5390.06990,0.01982
5391.99837,0.05834
5393.92684,0.07138
5395.85531,0.06248
5397.78378,0.06179
5399.71225,0.06207
5401.64071,0.04899
5403.56918,0.03668
5405.49765,0.05298
5407.42612,0.08644
5409.35459,0.10185
5411.28306,0.09635
5413.21153,0.08674
5415.13999,0.07989
5417.06846,0.07731
5418.99693,0.07322
5420.92540,0.06597
5422.85387,0.06579
5424.78234,0.07060
5426.71081,0.06802
5428.63928,0.06759
5430.56774,0.07253
5432.49621,0.05646
5434.42468,0.04134
5436.35315,0.06098
5438.28162,0.08351
5440.21009,0.08873
5442.13856,0.07765
5444.06702,0.05996
5445.99549,0.06299
5447.92396,0.07998
5449.85243,0.07379
5451.78090,0.05109
5453.70937,0.04081
5455.63784,0.04210
5457.56631,0.04727
5459.49477,0.06445
5461.42324,0.08254
5463.35171,0.07569
5465.28018,0.06018
5467.20865,0.06699
5469.13712,0.07553
5471.06559,0.06401
5472.99405,0.05593
5474.92252,0.06117
5476.85099,0.06638
5478.77946,0.06686
5480.70793,0.07310
5482.63640,0.08295
5484.56487,0.08383
5486.49334,0.08684
5488.42180,0.09961
5490.35027,0.11166
5492.27874,0.11256
5494.20721,0.09671
5496.13568,0.07948
5498.06415,0.07771
5499.99262,0.08730
5501.92108,0.08558
5503.84955,0.08040
5505.77802,0.09540
5507.70649,0.10605
5509.63496,0.09803
5511.56343,0.08883
5513.49190,0.07389
5515.42037,0.06840
5517.34883,0.08791
5519.27730,0.10198
5521.20577,0.10788
5523.13424,0.12875
5525.06271,0.12986
5526.99118,0.08861
5528.91965,0.05466
5530.84811,0.04865
5532.77658,0.05418
5534.70505,0.08358
5536.63352,0.11929
5538.56199,0.11275
5540.49046,0.08861
5542.41893,0.08876
5544.34740,0.09800
5546.27586,0.11096
5548.20433,0.12093
5550.13280,0.11135
5552.06127,0.09183
5553.98974,0.06427
5555.91821,0.03523
5557.84668,0.02763
5559.77514,0.04617
5561.70361,0.06979
5563.63208,0.06356
5565.56055,0.03180
5567.48902,0.01388
5569.41749,0.02576
5571.34596,0.06763
5573.27443,0.10971
5575.20289,0.11290
5577.13136,0.09422
5579.05983,0.07805
5580.98830,0.07138
5582.91677,0.08224
5584.84524,0.09384
5586.77371,0.08220
5588.70217,0.07056
5590.63064,0.09151
5592.55911,0.11318
5594.48758,0.10554
5596.41605,0.09632
5598.34452,0.09476
5600.27299,0.08643
5602.20145,0.08703
5604.12992,0.08147
5606.05839,0.05924
5607.98686,0.06198
5609.91533,0.08853
5611.84380,0.11352
5613.77227,0.14050
5615.70074,0.16593
5617.62920,0.17787
5619.55767,0.16446
5621.48614,0.13100
5623.41461,0.11232
5625.34308,0.12182
5627.27155,0.13324
5629.20002,0.12130
5631.12848,0.09295
5633.05695,0.07456
5634.98542,0.07536
5636.91389,0.09435
5638.84236,0.12668
5640.77083,0.13953
5642.69930,0.11738
5644.62777,0.09077
5646.55623,0.07673
5648.48470,0.06893
5650.41317,0.06440
5652.34164,0.06296
5654.27011,0.07166
5656.19858,0.08251
5658.12705,0.08553
5660.05551,0.08432
5661.98398,0.08093
5663.91245,0.06585
5665.84092,0.03739
5667.76939,0.03478
5669.69786,0.06735
5671.62633,0.08847
5673.55480,0.08091
5675.48326,0.08125
5677.41173,0.10703
5679.34020,0.12638
5681.26867,0.12765
5683.19714,0.11334
5685.12561,0.09424
5687.05408,0.09737
5688.98254,0.10483
5690.91101,0.08463
5692.83948,0.06170
5694.76795,0.05186
5696.69642,0.03485
5698.62489,0.02465
5700.55336,0.05175
5702.48183,0.09035
5704.41029,0.08703
5706.33876,0.05739
5708.26723,0.05125
5710.19570,0.06279
5712.12417,0.06461
5714.05264,0.06343
5715.98111,0.08218
5717.90957,0.09707
5719.83804,0.08284
5721.76651,0.06725
5723.69498,0.05930
5725.62345,0.04648
5727.55192,0.04151
5729.48039,0.06431
5731.40886,0.09627
5733.33732,0.10323
5735.26579,0.09417
5737.19426,0.10415
5739.12273,0.11936
5741.05120,0.10503
5742.97967,0.06418
5744.90814,0.03163
5746.83660,0.04453
5748.76507,0.09424
5750.69354,0.14028
5752.62201,0.16030
5754.55048,0.15056
5756.47895,0.12915
5758.40742,0.12247
5760.33588,0.12740
5762.26435,0.13227
5764.19282,0.12039
5766.12129,0.08533
5768.04976,0.07830
5769.97823,0.11968
5771.90670,0.15792
5773.83517,0.15290
5775.76363,0.11711
5777.69210,0.08858
5779.62057,0.07806
5781.54904,0.06154
5783.47751,0.03936
5785.40598,0.04734
5787.33445,0.07758
5789.26291,0.09569
5791.19138,0.11182
5793.11985,0.11653
5795.04832,0.09171
5796.97679,0.07420
5798.90526,0.08204
5800.83373,0.07592
5802.76220,0.05548
5804.69066,0.05487
5806.61913,0.07516
5808.54760,0.10809
5810.47607,0.14032
5812.40454,0.15850
5814.33301,0.16386
5816.26148,0.14838
5818.18994,0.12008
5820.11841,0.12400
5822.04688,0.15552
5823.97535,0.16853
5825.90382,0.17465
5827.83229,0.17224
5829.76076,0.14125
5831.68923,0.11109
5833.61769,0.10569
5835.54616,0.11466
5837.47463,0.11895
5839.40310,0.12171
5841.33157,0.13257
5843.26004,0.12830
5845.18851,0.09539
5847.11697,0.06353
5849.04544,0.05510
5850.97391,0.06258
5852.90238,0.08485
5854.83085,0.11719
5856.75932,0.13692
5858.68779,0.13903
5860.61626,0.11885
5862.54472,0.07587
5864.47319,0.05288
5866.40166,0.06576
5868.33013,0.07152
5870.25860,0.05624
5872.18707,0.04983
5874.11554,0.07393
5876.04400,0.10732
5877.97247,0.11505
5879.90094,0.10567
5881.82941,0.09055
5883.75788,0.06841
5885.68635,0.05865
5887.61482,0.06690
5889.54329,0.08166
5891.47175,0.09425
5893.40022,0.09615
5895.32869,0.09512
5897.25716,0.09279
5899.18563,0.08094
5901.11410,0.07429
5903.04257,0.08204
5904.97103,0.07881
5906.89950,0.06560
5908.82797,0.06933
5910.75644,0.07335
5912.68491,0.06322
5914.61338,0.05574
5916.54185,0.07342
5918.47032,0.12053
5920.39878,0.13997
5922.32725,0.09873
5924.25572,0.05070
5926.18419,0.04100
5928.11266,0.06948
5930.04113,0.11601
5931.96960,0.13915
5933.89806,0.13616
5935.82653,0.13741
5937.75500,0.13319
5939.68347,0.11372
5941.61194,0.08533
5943.54041,0.06348
5945.46888,0.05380
5947.39734,0.04461
5949.32581,0.04987
5951.25428,0.07063
5953.18275,0.07676
5955.11122,0.08193
5957.03969,0.11375
5958.96816,0.13969
5960.89663,0.12213
5962.82509,0.08080
5964.75356,0.05676
5966.68203,0.05826
5968.61050,0.05713
5970.53897,0.07068
5972.46744,0.11628
5974.39591,0.15092
5976.32437,0.15747
5978.25284,0.13541
5980.18131,0.10078
5982.10978,0.09198
5984.03825,0.08654
5985.96672,0.08129
5987.89519,0.12694
5989.82366,0.15983
5991.75212,0.12882
5993.68059,0.10152
5995.60906,0.09540
5997.53753,0.08160
5999.46600,0.05416
6001.39447,0.02838
6003.32294,0.02695
6005.25140,0.04005
6007.17987,0.04916
6009.10834,0.04856
6011.03681,0.03374
6012.96528,-0.00083
6014.89375,-0.03682
6016.82222,-0.02670
6018.75069,0.03348
6020.67915,0.07952
6022.60762,0.07939
6024.53609,0.08045
6026.46456,0.11134
6028.39303,0.12387
6030.32150,0.08075
6032.24997,0.02537
6034.17843,0.02749
6036.10690,0.10048
6038.03537,0.16185
6039.96384,0.14513
6041.89231,0.09268
6043.82078,0.05702
6045.74925,0.02787
6047.67772,-0.00708
6049.60618,-0.02072
6051.53465,0.01266
6053.46312,0.07016
6055.39159,0.11555
6057.32006,0.14108
6059.24853,0.16192
6061.17700,0.18961
6063.10546,0.20260
6065.03393,0.17262
6066.96240,0.11282
6068.89087,0.05629
6070.81934,0.04511
6072.74781,0.09450
6074.67628,0.14847
6076.60475,0.15321
6078.53321,0.13843
6080.46168,0.13940
6082.39015,0.14498
6084.31862,0.14527
6086.24709,0.12550
6088.17556,0.09923
6090.10403,0.12291
6092.03249,0.16394
6093.96096,0.15651
6095.88943,0.11649
6097.81790,0.11044
6099.74637,0.14985
6101.67484,0.12900
6103.60331,0.05167
6105.53177,0.02788
6107.46024,0.05863
6109.38871,0.10997
6111.31718,0.15734
6113.24565,0.17484
6115.17412,0.17053
6117.10259,0.15572
6119.03106,0.13116
6120.95952,0.10175
6122.88799,0.09970
6124.81646,0.13674
6126.74493,0.15363
6128.67340,0.12840
6130.60187,0.10024
6132.53034,0.06878
6134.45880,0.06586
6136.38727,0.11291
6138.31574,0.14511
6140.24421,0.12631
6142.17268,0.10384
6144.10115,0.11066
6146.02962,0.10280
6147.95809,0.07092
6149.88655,0.06043
6151.81502,0.06021
6153.74349,0.03532
6155.67196,0.03257
6157.60043,0.06594
6159.52890,0.05786
6161.45737,0.02519
6163.38583,0.05633
6165.31430,0.12550
6167.24277,0.16637
6169.17124,0.16056
6171.09971,0.12891
6173.02818,0.08916
6174.95665,0.02308
6176.88512,-0.03160
6178.81358,-0.01297
6180.74205,0.04044
6182.67052,0.06669
6184.59899,0.08152
6186.52746,0.11234
6188.45593,0.15003
6190.38440,0.18047
6192.31286,0.18843
6194.24133,0.15614
6196.16980,0.09914
6198.09827,0.06511
6200.02674,0.07567
6201.95521,0.11251
6203.88368,0.14605
6205.81215,0.14826
6207.74061,0.11334
6209.66908,0.06889
6211.59755,0.04238
6213.52602,0.01697
6215.45449,0.00309
6217.38296,0.02447
6219.31143,0.05403
6221.23989,0.05537
6223.16836,0.03286
6225.09683,0.03323
6227.02530,0.05464
6228.95377,0.09064
6230.88224,0.16449
6232.81071,0.19855
6234.73918,0.14608
6236.66764,0.09188
6238.59611,0.06448
6240.52458,0.04576
6242.45305,0.02924
6244.38152,0.01470
6246.30999,0.01063
6248.23846,0.00052
6250.16692,-0.02220
6252.09539,-0.04431
6254.02386,-0.04692
6255.95233,-0.01441
6257.88080,0.02915
6259.80927,0.05119
6261.73774,0.04513
6263.66621,0.02605
6265.59467,0.01397
6267.52314,0.01810
6269.45161,0.03297
6271.38008,0.06502
6273.30855,0.11185
6275.23702,0.12212
6277.16549,0.09878
6279.09395,0.10839
6281.02242,0.14750
6282.95089,0.16556
6284.87936,0.16100
6286.80783,0.14650
6288.73630,0.12313
6290.66477,0.11031
6292.59323,0.09780
6294.52170,0.06991
6296.45017,0.03787
6298.37864,0.03426
6300.30711,0.07196
6302.23558,0.09736
6304.16405,0.07032
6306.09252,0.04694
6308.02098,0.07614
6309.94945,0.10274
6311.87792,0.09991
6313.80639,0.12956
6315.73486,0.18432
6317.66333,0.17635
6319.59180,0.10788
6321.52026,0.05523
6323.44873,0.02802
6325.37720,0.05411
6327.30567,0.15399
6329.23414,0.23866
6331.16261,0.23713
6333.09108,0.19934
6335.01955,0.17922
6336.94801,0.15638
6338.87648,0.11312
6340.80495,0.06538
6342.73342,0.04626
6344.66189,0.07497
6346.59036,0.11639
6348.51883,0.15205
6350.44729,0.18006
6352.37576,0.13473
6354.30423,0.04080
6356.23270,0.00682
6358.16117,0.05502
6360.08964,0.09443
6362.01811,0.05168
6363.94658,-0.01186
6365.87504,-0.01120
6367.80351,0.03576
6369.73198,0.06297
6371.66045,0.04943
6373.58892,0.00957
6375.51739,-0.00426
6377.44586,0.03238
6379.37432,0.05741
6381.30279,0.04989
6383.23126,0.03946
6385.15973,0.03763
6387.08820,0.06227
6389.01667,0.09266
6390.94514,0.09105
6392.87361,0.05283
6394.80207,0.00674
6396.73054,-0.01231
6398.65901,-0.00098
6400.58748,0.02149
6402.51595,0.03262
6404.44442,0.05471
6406.37289,0.08987
6408.30135,0.08235
6410.22982,0.04926
6412.15829,0.05980
6414.08676,0.09681
6416.01523,0.12805
6417.94370,0.13731
6419.87217,0.08938
6421.80064,0.07624
6423.72910,0.15534
6425.65757,0.17243
6427.58604,0.06571
6429.51451,-0.01683
6431.44298,-0.00082
6433.37145,0.04247
6435.29992,0.04183
6437.22838,0.03585
6439.15685,0.06533
6441.08532,0.07855
6443.01379,0.06729
6444.94226,0.04002
6446.87073,-0.00857
6448.79920,-0.01528
6450.72766,0.03680
6452.65613,0.07556
6454.58460,0.10005
6456.51307,0.12058
6458.44154,0.11761
6460.37001,0.15028
6462.29848,0.20479
6464.22695,0.18928
6466.15541,0.14861
6468.08388,0.13223
6470.01235,0.12492
6471.94082,0.13084
6473.86929,0.10897
6475.79776,0.08875
6477.72623,0.13091
6479.65469,0.14873
6481.58316,0.12841
6483.51163,0.11550
6485.44010,0.05865
6487.36857,-0.02759
6489.29704,-0.08034
6491.22551,-0.06785
6493.15398,-0.00466
6495.08244,0.01873
6497.01091,0.01872
6498.93938,0.07137
6500.86785,0.12523
6502.79632,0.13012
6504.72479,0.16412
6506.65326,0.23273
6508.58172,0.23063
6510.51019,0.15783
6512.43866,0.12857
6514.36713,0.15315
6516.29560,0.14521
6518.22407,0.09099
6520.15254,0.07161
6522.08101,0.11521
6524.00947,0.12675
6525.93794,0.05505
6527.86641,0.00826
6529.79488,0.05957
6531.72335,0.16189
6533.65182,0.20959
6535.58029,0.17537
6537.50875,0.10060
6539.43722,0.00586
6541.36569,-0.04040
6543.29416,0.01757
6545.22263,0.09196
6547.15110,0.07700
6549.07957,0.02114
6551.00804,0.02633
6552.93650,0.06981
6554.86497,0.09143
6556.79344,0.07326
6558.72191,0.01396
6560.65038,-0.01967
6562.57885,-0.00105
6564.50732,-0.00404
6566.43578,-0.04701
6568.36425,-0.06609
6570.29272,-0.03828
6572.22119,0.00365
6574.14966,0.05230
6576.07813,0.11695
6578.00660,0.15234
6579.93507,0.14093
6581.86353,0.12368
6583.79200,0.10942
6585.72047,0.11288
6587.64894,0.12259
6589.57741,0.08913
6591.50588,0.04489
6593.43435,0.04257
6595.36281,0.06678
6597.29128,0.11591
6599.21975,0.17697
6601.14822,0.13842
6603.07669,0.01671
6605.00516,-0.00587
6606.93363,0.07680
6608.86210,0.14155
6610.79056,0.14550
6612.71903,0.11463
6614.64750,0.06886
6616.57597,0.03044
6618.50444,0.04763
6620.43291,0.10403
6622.36138,0.13275
6624.28984,0.12610
6626.21831,0.11422
6628.14678,0.11767
6630.07525,0.14615
6632.00372,0.14956
6633.93219,0.10320
6635.86066,0.03649
6637.78912,-0.04381
6639.71759,-0.07971
6641.64606,-0.03432
6643.57453,0.03151
6645.50300,0.10066
6647.43147,0.17794
6649.35994,0.20590
6651.28841,0.16000
6653.21687,0.09466
6655.14534,0.08640
6657.07381,0.12485
6659.00228,0.15728
6660.93075,0.18569
6662.85922,0.20610
6664.78769,0.20839
6666.71615,0.19830
6668.64462,0.16953
6670.57309,0.14574
6672.50156,0.18697
6674.43003,0.22885
6676.35850,0.17206
6678.28697,0.10324
6680.21544,0.10155
6682.14390,0.07851
6684.07237,0.00462
6686.00084,-0.03445
6687.92931,-0.03064
6689.85778,-0.02195
6691.78625,-0.00072
6693.71472,0.03410
6695.64318,0.01996
6697.57165,-0.04979
6699.50012,-0.04055
6701.42859,0.05041
6703.35706,0.11562
6705.28553,0.13878
6707.21400,0.13705
6709.14247,0.15325
6711.07093,0.18005
6712.99940,0.14566
6714.92787,0.07664
6716.85634,0.05810
6718.78481,0.09838
6720.71328,0.13909
6722.64175,0.11273
6724.57021,0.06672
6726.49868,0.09536
6728.42715,0.16501
6730.35562,0.19295
6732.28409,0.15761
6734.21256,0.11473
6736.14103,0.12101
6738.06950,0.14366
6739.99796,0.11194
6741.92643,0.02437
6743.85490,-0.03688
6745.78337,-0.03201
6747.71184,0.04204
6749.64031,0.15480
6751.56878,0.19748
6753.49724,0.14318
6755.42571,0.06359
6757.35418,-0.04259
6759.28265,-0.10437
6761.21112,0.00331
6763.13959,0.05020
6765.06806,-0.09882
6766.99653,-0.20419
6768.92499,-0.15492
6770.85346,-0.06322
6772.78193,-0.02025
6774.71040,-0.04747
6776.63887,-0.06751
6778.56734,0.00212
6780.49581,0.09109
6782.42427,0.13236
6784.35274,0.14129
6786.28121,0.10744
6788.20968,0.03290
6790.13815,-0.05047
6792.06662,-0.10168
6793.99509,-0.08682
6795.92355,-0.04470
6797.85202,0.02144
6799.78049,0.10466
6801.70896,0.09433
6803.63743,0.02996
6805.56590,0.03934
6807.49437,0.04213
6809.42284,0.01042
6811.35130,0.00421
6813.27977,0.02313
6815.20824,0.05618
6817.13671,0.07385
6819.06518,0.04888
6820.99365,0.02752
6822.92212,0.03477
6824.85058,0.07044
6826.77905,0.14184
6828.70752,0.17217
6830.63599,0.08533
6832.56446,-0.01980
6834.49293,-0.03073
6836.42140,0.01240
6838.34987,0.01862
6840.27833,-0.00706
6842.20680,-0.02871
6844.13527,-0.03131
6846.06374,-0.00385
6847.99221,0.09523
6849.92068,0.16265
6851.84915,0.06453
6853.77761,-0.03818
6855.70608,0.01754
6857.63455,0.13876
6859.56302,0.16839
6861.49149,0.12586
6863.41996,0.08098
6865.34843,0.08346
6867.27690,0.12288
6869.20536,0.10504
6871.13383,0.03496
6873.06230,0.01478
6874.99077,0.06703
6876.91924,0.13301
6878.84771,0.17004
6880.77618,0.16806
6882.70464,0.14510
6884.63311,0.07012
6886.56158,-0.02272
6888.49005,-0.00168
6890.41852,0.08864
6892.34699,0.07734
6894.27546,0.01366
6896.20393,-0.00465
6898.13239,-0.04525
6900.06086,-0.13209
6901.98933,-0.18905
6903.91780,-0.15047
6905.84627,-0.06750
6907.77474,-0.01067
6909.70321,0.09841
6911.63167,0.16788
6913.56014,0.08350
6915.48861,-0.02277
6917.41708,-0.08566
6919.34555,-0.10225
6921.27402,-0.03442
6923.20249,0.04914
6925.13096,0.05152
6927.05942,-0.01890
6928.98789,-0.02340
6930.91636,0.11569
6932.84483,0.21988
6934.77330,0.17464
6936.70177,0.14745
6938.63024,0.20586
6940.55870,0.20609
6942.48717,0.07268
6944.41564,-0.02729
6946.34411,0.04376
6948.27258,0.20524
6950.20105,0.26965
6952.12952,0.22093
6954.05799,0.17681
6955.98645,0.19948
6957.91492,0.19911
6959.84339,0.14517
6961.77186,0.09778
6963.70033,0.10700
6965.62880,0.18560
6967.55727,0.22304
6969.48573,0.09373
6971.41420,0.00600
6973.34267,0.14739
6975.27114,0.27885
6977.19961,0.31998
6979.12808,0.34085
6981.05655,0.27702
6982.98501,0.19369
6984.91348,0.15339
6986.84195,0.11057
6988.77042,0.01889
6990.69889,-0.07848
6992.62736,-0.03757
6994.55583,0.10921
6996.48430,0.18808
6998.41276,0.06936
7000.34123,-0.18218
7002.26970,-0.30413
7004.19817,-0.18265
7006.12664,0.04352
7008.05511,0.18972
7009.98358,0.22198
7011.91204,0.17635
7013.84051,0.10895
7015.76898,0.11715
7017.69745,0.12079
7019.62592,0.06777
7021.55439,0.07852
7023.48286,0.15751
7025.41133,0.18271
7027.33979,0.14480
7029.26826,0.11938
7031.19673,0.18888
7033.12520,0.29135
7035.05367,0.27791
7036.98214,0.20134
7038.91061,0.16120
7040.83907,0.08754
7042.76754,-0.04687
7044.69601,-0.08057
7046.62448,-0.00290
7048.55295,0.03227
7050.48142,0.08272
7052.40989,0.19782
7054.33836,0.28439
7056.26682,0.30933
7058.19529,0.26052
7060.12376,0.20980
7062.05223,0.26610
7063.98070,0.27075
7065.90917,0.10966
7067.83764,0.04772
7069.76610,0.18150
7071.69457,0.15787
7073.62304,-0.01240
7075.55151,-0.03545
7077.47998,-0.03915
7079.40845,-0.13312
7081.33692,-0.17653
7083.26539,-0.10516
7085.19385,-0.02330
7087.12232,0.00990
7089.05079,-0.01336
7090.97926,0.03521
7092.90773,0.17254
7094.83620,0.22437
7096.76467,0.19574
7098.69313,0.18542
7100.62160,0.15953
7102.55007,0.13461
7104.47854,0.15172
7106.40701,0.12399
7108.33548,0.05111
7110.26395,0.06249
7112.19242,0.07507
7114.12088,-0.01682
7116.04935,-0.05456
7117.97782,0.05370
7119.90629,0.05847
7121.83476,0.01931
7123.76323,0.11143
7125.69170,0.09878
7127.62016,-0.10984
7129.54863,-0.20189
7131.47710,-0.07124
7133.40557,0.06206
7135.33404,0.09078
7137.26251,0.06465
7139.19098,-0.00599
7141.11944,-0.03431
7143.04791,0.01776
7144.97638,0.05578
7146.90485,0.01005
7148.83332,-0.04981
7150.76179,0.01031
7152.69026,0.18032
7154.61873,0.29297
7156.54719,0.21457
7158.47566,0.00082
7160.40413,-0.13342
7162.33260,-0.07762
7164.26107,0.00572
7166.18954,0.07708
7168.11801,0.22644
7170.04647,0.30013
7171.97494,0.25609
7173.90341,0.22853
7175.83188,0.17524
7177.76035,0.18216
7179.68882,0.29327
7181.61729,0.31415
7183.54576,0.30224
7185.47422,0.33764
7187.40269,0.23474
7189.33116,0.05307
7191.25963,0.00790
7193.18810,0.10851
7195.11657,0.18260
7197.04504,0.17766
7198.97350,0.13059
7200.90197,0.08661
7202.83044,0.10130
7204.75891,0.16418
7206.68738,0.14345
7208.61585,0.05190
7210.54432,0.01805
7212.47279,0.06674
7214.40125,0.10935
7216.32972,0.14403
7218.25819,0.21522
7220.18666,0.21843
7222.11513,0.14471
7224.04360,0.12592
7225.97207,0.27636
7227.90053,0.42192
7229.82900,0.31262
7231.75747,0.12704
7233.68594,0.15416
7235.61441,0.21145
7237.54288,0.10512
7239.47135,-0.08312
7241.39982,-0.08349
7243.32828,0.14443
7245.25675,0.21450
7247.18522,0.11049
7249.11369,0.04164
7251.04216,0.02738
7252.97063,0.00088
7254.89910,-0.06988
7256.82756,-0.15069
7258.75603,-0.13444
7260.68450,0.01945
7262.61297,0.12492
7264.54144,0.18612
7266.46991,0.22020
7268.39838,0.14780
7270.32685,0.09365
7272.25531,0.13067
7274.18378,0.16988
7276.11225,0.24485
7278.04072,0.36438
7279.96919,0.34284
7281.89766,0.13774
7283.82613,0.02348
7285.75459,0.04713
7287.68306,0.14689
7289.61153,0.33462
7291.54000,0.54821
7293.46847,0.51069
7295.39694,0.19509
7297.32541,0.00906
7299.25387,0.08668
7301.18234,0.25941
7303.11081,0.47638
7305.03928,0.56556
7306.96775,0.36422
7308.89622,0.10942
7310.82469,-0.02774
7312.75316,-0.18556
7314.68162,-0.32143
7316.61009,-0.30502
7318.53856,-0.21205
7320.46703,-0.08329
7322.39550,0.23186
7324.32397,0.54555
7326.25244,0.54167
7328.18090,0.25541
7330.10937,-0.07821
7332.03784,-0.17498
7333.96631,-0.05940
7335.89478,0.14867
7337.82325,0.41175
7339.75172,0.66885
7341.68019,0.65964
7343.60865,0.41206
7345.53712,0.11074
7347.46559,0.00249
7349.39406,0.16569
7351.32253,0.32446
7353.25100,0.31489
7355.17947,0.26296
7357.10793,0.21603
7359.03640,0.12491
7360.96487,0.11902
7362.89334,0.13877
7364.82181,-0.03928
7366.75028,-0.17540
7368.67875,-0.01168
7370.60722,0.11234
7372.53568,0.02549
7374.46415,-0.01574
7376.39262,0.12760
7378.32109,0.30190
7380.24956,0.35508
7382.17803,0.22244
7384.10650,0.16196
7386.03496,0.29077
7387.96343,0.37984
7389.89190,0.37565
7391.82037,0.39864
7393.74884,0.40080
7395.67731,0.25930
7397.60578,0.14457
7399.53425,0.17522
7401.46271,0.13686
7403.39118,-0.02724
7405.31965,-0.15142
7407.24812,-0.20138
7409.17659,-0.17339
7411.10506,-0.10131
7413.03353,-0.08616
7414.96199,-0.08549
7416.89046,-0.05158
7418.81893,-0.04274
7420.74740,-0.05141
7422.67587,0.06464
7424.60434,0.20322
7426.53281,0.19615
7428.46128,0.13521
7430.38974,0.14872
7432.31821,0.17538
7434.24668,0.24808
7436.17515,0.37514
7438.10362,0.40160
7440.03209,0.25444
7441.96056,0.05130
7443.88902,-0.01352
7445.81749,0.06867
7447.74596,0.12171
7449.67443,0.14252
7451.60290,0.22047
7453.53137,0.22519
7455.45984,0.18337
7457.38831,0.20080
7459.31677,0.20038
7461.24524,0.19079
7463.17371,0.26409
7465.10218,0.31884
7467.03065,0.21139
7468.95912,-0.01674
7470.88759,-0.21685
7472.81605,-0.24587
7474.74452,-0.06321
7476.67299,0.22245
7478.60146,0.42218
7480.52993,0.41471
7482.45840,0.23475
7484.38687,0.05937
7486.31533,0.03079
7488.24380,0.05461
7490.17227,-0.05384
7492.10074,-0.11409
7494.02921,0.00616
7495.95768,0.10244
7497.88615,0.06286
