399.19301,0.71122
401.12148,1.46251
403.04995,0.61054
404.97842,0.17017
406.90689,0.18250
408.83536,-0.25614
410.76382,-1.17778
412.69229,-1.30074
414.62076,0.23769
416.54923,3.46151
418.47770,5.95778
420.40617,3.79411
422.33464,1.26661
424.26311,0.20349
426.19157,-0.33083
428.12004,-0.21859
430.04851,0.27689
431.97698,0.37837
433.90545,0.10646
435.83392,-0.07737
437.76239,-0.16708
439.69085,-0.18701
441.61932,-0.14307
443.54779,-0.10282
445.47626,-0.06469
447.40473,-0.03625
449.33320,-0.04414
451.26167,-0.10695
453.19013,-0.17739
455.11860,-0.17966
457.04707,-0.12696
458.97554,-0.10613
460.90401,-0.14698
462.83248,-0.19426
464.76095,-0.23511
466.68942,-0.23562
468.61788,-0.18473
470.54635,-0.13005
472.47482,0.00375
474.40329,0.14492
476.33176,0.03636
478.26023,-0.06314
480.18870,-0.06755
482.11716,-0.04170
484.04563,0.00418
485.97410,0.07065
487.90257,0.10851
489.83104,0.10602
491.75951,0.10985
493.68798,0.14730
495.61645,0.18468
497.54491,0.17046
499.47338,0.12879
501.40185,0.09052
503.33032,0.07335
505.25879,0.09714
507.18726,0.11072
509.11573,0.09979
511.04419,0.11455
512.97266,0.14412
514.90113,0.14441
516.82960,0.13462
518.75807,0.13315
520.68654,0.11596
522.61501,0.08108
524.54348,0.04722
526.47194,0.06359
528.40041,0.09691
530.32888,0.09457
532.25735,0.09162
534.18582,0.10300
536.11429,0.09536
538.04276,0.06144
539.97122,0.02136
541.89969,0.00365
543.82816,0.04003
545.75663,0.09788
547.68510,0.13886
549.61357,0.18487
551.54204,0.24817
553.47051,0.27796
555.39897,0.23525
557.32744,0.15127
559.25591,0.08757
561.18438,0.08645
563.11285,0.11420
565.04132,0.12059
566.96979,0.09942
568.89825,0.07854
570.82672,0.08150
572.75519,0.09640
574.68366,0.11056
576.61213,0.12233
578.54060,0.12501
580.46907,0.11426
582.39754,0.11557
584.32600,0.13275
586.25447,0.13481
588.18294,0.11840
590.11141,0.09611
592.03988,0.09188
593.96835,0.11443
595.89682,0.13351
597.82528,0.13810
599.75375,0.13377
601.68222,0.12285
603.61069,0.12071
605.53916,0.11950
607.46763,0.09898
609.39610,0.08787
611.32456,0.10854
613.25303,0.12552
615.18150,0.10304
617.10997,0.06974
619.03844,0.07238
620.96691,0.10384
622.89538,0.13476
624.82385,0.15607
626.75231,0.16617
628.68078,0.14703
630.60925,0.08102
632.53772,0.02915
634.46619,0.06673
636.39466,0.12238
638.32313,0.13420
640.25159,0.14067
642.18006,0.14287
644.10853,0.12281
646.03700,0.09924
647.96547,0.09812
649.89394,0.12765
651.82241,0.15612
653.75088,0.15925
655.67934,0.15107
657.60781,0.13969
659.53628,0.12391
661.46475,0.11921
663.39322,0.11566
665.32169,0.08945
667.25016,0.06159
669.17862,0.08624
671.10709,0.11578
673.03556,0.11570
674.96403,0.10395
676.89250,0.10180
678.82097,0.12740
680.74944,0.14887
682.67791,0.13606
684.60637,0.12491
686.53484,0.13958
688.46331,0.15083
690.39178,0.14162
692.32025,0.13021
694.24872,0.12755
696.17719,0.12892
698.10565,0.13232
700.03412,0.13804
701.96259,0.14705
703.89106,0.15375
705.81953,0.14953
707.74800,0.13447
709.67647,0.11734
711.60494,0.11558
713.53340,0.13001
715.46187,0.13652
717.39034,0.12936
719.31881,0.12377
721.24728,0.13105
723.17575,0.14752
725.10422,0.15461
727.03268,0.15399
728.96115,0.15684
730.88962,0.15136
732.81809,0.13758
734.74656,0.13483
736.67503,0.14170
738.60350,0.14383
740.53197,0.14695
742.46043,0.15971
744.38890,0.16494
746.31737,0.14624
748.24584,0.12056
750.17431,0.11752
752.10278,0.13970
754.03125,0.15901
755.95971,0.15614
757.88818,0.14077
759.81665,0.12821
761.74512,0.12444
763.67359,0.12530
765.60206,0.12514
767.53053,0.12646
769.45900,0.12952
771.38746,0.12527
773.31593,0.11557
775.24440,0.12321
777.17287,0.14588
779.10134,0.15585
781.02981,0.15129
782.95828,0.14803
784.88674,0.15021
786.81521,0.15180
788.74368,0.15121
790.67215,0.15385
792.60062,0.16220
794.52909,0.16107
796.45756,0.14673
798.38602,0.14307
800.31449,0.15228
802.24296,0.15518
804.17143,0.14946
806.09990,0.14660
808.02837,0.14514
809.95684,0.14025
811.88531,0.14067
813.81377,0.14701
815.74224,0.14636
817.67071,0.13738
819.59918,0.13315
821.52765,0.13365
823.45612,0.12535
825.38459,0.11945
827.31305,0.13708
829.24152,0.15913
831.16999,0.16133
833.09846,0.15211
835.02693,0.14767
836.95540,0.14682
838.88387,0.14282
840.81234,0.14117
842.74080,0.14321
844.66927,0.14261
846.59774,0.14058
848.52621,0.14265
850.45468,0.14619
852.38315,0.14762
854.31162,0.14885
856.24008,0.14935
858.16855,0.14888
860.09702,0.14610
862.02549,0.14364
863.95396,0.14718
865.88243,0.15547
867.81090,0.15776
869.73937,0.14809
871.66783,0.14692
873.59630,0.15638
875.52477,0.15341
877.45324,0.14592
879.38171,0.14724
881.31018,0.15290
883.23865,0.15791
885.16711,0.16002
887.09558,0.16016
889.02405,0.15520
890.95252,0.14631
892.88099,0.14050
894.80946,0.13945
896.73793,0.14368
898.66640,0.15182
900.59486,0.15714
902.52333,0.15683
904.45180,0.15872
906.38027,0.16151
908.30874,0.15851
910.23721,0.15554
912.16568,0.15667
914.09414,0.16341
916.02261,0.17068
917.95108,0.16568
919.87955,0.15259
921.80802,0.14550
923.73649,0.14751
925.66496,0.15477
927.59343,0.15980
929.52189,0.15784
931.45036,0.15706
933.37883,0.15966
935.30730,0.15546
937.23577,0.14673
939.16424,0.14794
941.09271,0.16007
943.02117,0.16550
944.94964,0.16040
946.87811,0.16106
948.80658,0.16573
950.73505,0.15954
952.66352,0.14930
954.59199,0.14909
956.52045,0.15476
958.44892,0.15590
960.37739,0.15045
962.30586,0.14796
964.23433,0.15266
966.16280,0.15389
968.09127,0.15465
970.01974,0.16343
971.94820,0.16944
973.87667,0.16423
975.80514,0.15626
977.73361,0.15336
979.66208,0.14955
981.59055,0.13957
983.51902,0.13199
985.44748,0.13503
987.37595,0.14495
989.30442,0.15055
991.23289,0.14895
993.16136,0.15093
995.08983,0.15504
997.01830,0.15370
998.94677,0.15588
1000.87523,0.16359
1002.80370,0.16935
1004.73217,0.17065
1006.66064,0.16666
1008.58911,0.15905
1010.51758,0.15254
1012.44605,0.15322
1014.37451,0.15685
1016.30298,0.15588
1018.23145,0.15627
1020.15992,0.16102
1022.08839,0.16466
1024.01686,0.16412
1025.94533,0.14581
1027.87380,0.10979
1029.80226,0.09958
1031.73073,0.12858
1033.65920,0.15560
1035.58767,0.16427
1037.51614,0.16549
1039.44461,0.16448
1041.37308,0.16516
1043.30154,0.16920
1045.23001,0.17056
1047.15848,0.16421
1049.08695,0.15832
1051.01542,0.16169
1052.94389,0.16917
1054.87236,0.17222
1056.80083,0.16891
1058.72929,0.16418
1060.65776,0.16749
1062.58623,0.17694
1064.51470,0.17821
1066.44317,0.17110
1068.37164,0.16794
1070.30011,0.17102
1072.22857,0.17372
1074.15704,0.17324
1076.08551,0.17288
1078.01398,0.17247
1079.94245,0.16922
1081.87092,0.16674
1083.79939,0.16679
1085.72786,0.15910
1087.65632,0.14455
1089.58479,0.14484
1091.51326,0.16134
1093.44173,0.17150
1095.37020,0.17298
1097.29867,0.17845
1099.22714,0.18709
1101.15560,0.19242
1103.08407,0.19539
1105.01254,0.19874
1106.94101,0.19764
1108.86948,0.19023
1110.79795,0.18188
1112.72642,0.17933
1114.65489,0.18644
1116.58335,0.19053
1118.51182,0.18162
1120.44029,0.17033
1122.36876,0.16852
1124.29723,0.17574
1126.22570,0.17933
1128.15417,0.17365
1130.08263,0.16798
1132.01110,0.16531
1133.93957,0.15941
1135.86804,0.15089
1137.79651,0.14632
1139.72498,0.14872
1141.65345,0.15727
1143.58191,0.16776
1145.51038,0.17592
1147.43885,0.18110
1149.36732,0.18420
1151.29579,0.18565
1153.22426,0.18553
1155.15273,0.18456
1157.08120,0.18314
1159.00966,0.18018
1160.93813,0.17556
1162.86660,0.17128
1164.79507,0.16955
1166.72354,0.17219
1168.65201,0.17643
1170.58048,0.17623
1172.50894,0.17502
1174.43741,0.17900
1176.36588,0.18246
1178.29435,0.18079
1180.22282,0.17858
1182.15129,0.17627
1184.07976,0.16974
1186.00823,0.16201
1187.93669,0.15993
1189.86516,0.16407
1191.79363,0.17030
1193.72210,0.17403
1195.65057,0.17195
1197.57904,0.16647
1199.50751,0.16445
1201.43597,0.16582
1203.36444,0.16613
1205.29291,0.16818
1207.22138,0.17297
1209.14985,0.17644
1211.07832,0.17744
1213.00679,0.17627
1214.93526,0.17593
1216.86372,0.17829
1218.79219,0.18006
1220.72066,0.17975
1222.64913,0.17996
1224.57760,0.18156
1226.50607,0.18065
1228.43454,0.17790
1230.36300,0.17809
1232.29147,0.17881
1234.21994,0.17779
1236.14841,0.17747
1238.07688,0.17703
1240.00535,0.17516
1241.93382,0.17383
1243.86229,0.17279
1245.79075,0.17053
1247.71922,0.16944
1249.64769,0.16999
1251.57616,0.17064
1253.50463,0.17291
1255.43310,0.17702
1257.36157,0.17970
1259.29003,0.18025
1261.21850,0.18353
1263.14697,0.18778
1265.07544,0.18633
1267.00391,0.18283
1268.93238,0.18179
1270.86085,0.18097
1272.78932,0.17908
1274.71778,0.17807
1276.64625,0.18190
1278.57472,0.18935
1280.50319,0.19123
1282.43166,0.18482
1284.36013,0.17892
1286.28860,0.17893
1288.21706,0.18177
1290.14553,0.18240
1292.07400,0.18094
1294.00247,0.17946
1295.93094,0.17584
1297.85941,0.17093
1299.78788,0.16753
1301.71634,0.16473
1303.64481,0.16335
1305.57328,0.16753
1307.50175,0.17545
1309.43022,0.18018
1311.35869,0.18143
1313.28716,0.18151
1315.21563,0.18216
1317.14409,0.18565
1319.07256,0.18767
1321.00103,0.18486
1322.92950,0.18160
1324.85797,0.17878
1326.78644,0.17602
1328.71491,0.17430
1330.64337,0.17120
1332.57184,0.16970
1334.50031,0.17366
1336.42878,0.18003
1338.35725,0.18571
1340.28572,0.18378
1342.21419,0.17200
1344.14266,0.16227
1346.07112,0.16434
1347.99959,0.17331
1349.92806,0.17790
1351.85653,0.17785
1353.78500,0.17923
1355.71347,0.18326
1357.64194,0.18523
1359.57040,0.18411
1361.49887,0.18373
1363.42734,0.18069
1365.35581,0.17575
1367.28428,0.17487
1369.21275,0.17514
1371.14122,0.17644
1373.06969,0.18218
1374.99815,0.18926
1376.92662,0.19320
1378.85509,0.19308
1380.78356,0.18999
1382.71203,0.18822
1384.64050,0.19086
1386.56897,0.19462
1388.49743,0.19245
1390.42590,0.18821
1392.35437,0.19100
1394.28284,0.19940
1396.21131,0.20374
1398.13978,0.20246
1400.06825,0.20025
1401.99672,0.19985
1403.92518,0.20054
1405.85365,0.19802
1407.78212,0.19215
1409.71059,0.18754
1411.63906,0.18544
1413.56753,0.18442
1415.49600,0.18758
1417.42446,0.19850
1419.35293,0.20591
1421.28140,0.20150
1423.20987,0.19856
1425.13834,0.19771
1427.06681,0.19394
1428.99528,0.18938
1430.92375,0.18809
1432.85221,0.19110
1434.78068,0.19614
1436.70915,0.19955
1438.63762,0.19728
1440.56609,0.19326
1442.49456,0.19102
1444.42303,0.19016
1446.35149,0.19120
1448.27996,0.19617
1450.20843,0.20188
1452.13690,0.20548
1454.06537,0.21182
1455.99384,0.22422
1457.92231,0.22369
1459.85077,0.20752
1461.77924,0.20181
1463.70771,0.20553
1465.63618,0.20589
1467.56465,0.20047
1469.49312,0.19938
1471.42159,0.20305
1473.35006,0.20799
1475.27852,0.20956
1477.20699,0.20548
1479.13546,0.20204
1481.06393,0.20212
1482.99240,0.20274
1484.92087,0.20515
1486.84934,0.21206
1488.77780,0.22065
1490.70627,0.22020
1492.63474,0.21349
1494.56321,0.21093
1496.49168,0.21153
1498.42015,0.20984
1500.34862,0.20547
1502.27709,0.20147
1504.20555,0.20503
1506.13402,0.22493
1508.06249,0.23136
1509.99096,0.21509
1511.91943,0.20945
1513.84790,0.21506
1515.77637,0.22301
1517.70483,0.22344
1519.63330,0.22328
1521.56177,0.22911
1523.49024,0.22751
1525.41871,0.22213
1527.34718,0.21839
1529.27565,0.21511
1531.20412,0.21674
1533.13258,0.22244
1535.06105,0.22150
1536.98952,0.22048
1538.91799,0.23429
1540.84646,0.25526
1542.77493,0.24710
1544.70340,0.22611
1546.63186,0.21201
1548.56033,0.20856
1550.48880,0.20832
1552.41727,0.20893
1554.34574,0.21628
1556.27421,0.22979
1558.20268,0.23786
1560.13115,0.21963
1562.05961,0.20587
1563.98808,0.20244
1565.91655,0.20320
1567.84502,0.20927
1569.77349,0.21448
1571.70196,0.20959
1573.63043,0.20653
1575.55889,0.21025
1577.48736,0.20827
1579.41583,0.20008
1581.34430,0.19576
1583.27277,0.19422
1585.20124,0.19103
1587.12971,0.18858
1589.05818,0.19039
1590.98664,0.19299
1592.91511,0.19329
1594.84358,0.19233
1596.77205,0.18950
1598.70052,0.18762
1600.62899,0.19048
1602.55746,0.19330
1604.48592,0.19205
1606.41439,0.18980
1608.34286,0.18941
1610.27133,0.19013
1612.19980,0.19145
1614.12827,0.19720
1616.05674,0.20620
1617.98521,0.20653
1619.91367,0.20354
1621.84214,0.20681
1623.77061,0.20969
1625.69908,0.20490
1627.62755,0.20084
1629.55602,0.20320
1631.48449,0.20761
1633.41295,0.21382
1635.34142,0.22292
1637.26989,0.21690
1639.19836,0.20475
1641.12683,0.20499
1643.05530,0.21530
1644.98377,0.23140
1646.91223,0.24270
1648.84070,0.23518
1650.76917,0.23295
1652.69764,0.24542
1654.62611,0.23806
1656.55458,0.22023
1658.48305,0.21320
1660.41152,0.21324
1662.33998,0.21584
1664.26845,0.21648
1666.19692,0.21709
1668.12539,0.22196
1670.05386,0.22539
1671.98233,0.22332
1673.91080,0.22139
1675.83926,0.21745
1677.76773,0.21460
1679.69620,0.21710
1681.62467,0.22600
1683.55314,0.23833
1685.48161,0.23305
1687.41008,0.22270
1689.33855,0.22117
1691.26701,0.22083
1693.19548,0.22145
1695.12395,0.22783
1697.05242,0.23661
1698.98089,0.23918
1700.90936,0.23212
1702.83783,0.22630
1704.76629,0.22595
1706.69476,0.22325
1708.62323,0.21666
1710.55170,0.21202
1712.48017,0.21464
1714.40864,0.22771
1716.33711,0.24332
1718.26558,0.23602
1720.19404,0.21584
1722.12251,0.20548
1724.05098,0.20554
1725.97945,0.20995
1727.90792,0.21315
1729.83639,0.21615
1731.76486,0.22201
1733.69332,0.22627
1735.62179,0.22153
1737.55026,0.21805
1739.47873,0.21871
1741.40720,0.21760
1743.33567,0.21227
1745.26414,0.20874
1747.19261,0.21258
1749.12107,0.22065
1751.04954,0.22193
1752.97801,0.21422
1754.90648,0.20751
1756.83495,0.20565
1758.76342,0.20704
1760.69189,0.20898
1762.62035,0.20766
1764.54882,0.20472
1766.47729,0.20550
1768.40576,0.21080
1770.33423,0.21918
1772.26270,0.22342
1774.19117,0.21626
1776.11964,0.20953
1778.04810,0.20793
1779.97657,0.20658
1781.90504,0.20426
1783.83351,0.20313
1785.76198,0.20243
1787.69045,0.20244
1789.61892,0.20695
1791.54738,0.21553
1793.47585,0.21846
1795.40432,0.21464
1797.33279,0.21157
1799.26126,0.21198
1801.18973,0.21361
1803.11820,0.21222
1805.04666,0.20875
1806.97513,0.20626
1808.90360,0.20798
1810.83207,0.21101
1812.76054,0.20798
1814.68901,0.20383
1816.61748,0.20644
1818.54595,0.21471
1820.47441,0.21905
1822.40288,0.21449
1824.33135,0.20983
1826.25982,0.21200
1828.18829,0.21680
1830.11676,0.21809
1832.04523,0.21245
1833.97369,0.20666
1835.90216,0.20519
1837.83063,0.20499
1839.75910,0.20404
1841.68757,0.20528
1843.61604,0.20997
1845.54451,0.21115
1847.47298,0.20671
1849.40144,0.20260
1851.32991,0.20119
1853.25838,0.20230
1855.18685,0.20419
1857.11532,0.20643
1859.04379,0.20924
1860.97226,0.20954
1862.90072,0.20577
1864.82919,0.20256
1866.75766,0.20479
1868.68613,0.20844
1870.61460,0.20597
1872.54307,0.20139
1874.47154,0.19971
1876.40001,0.20018
1878.32847,0.20026
1880.25694,0.20061
1882.18541,0.20276
1884.11388,0.20420
1886.04235,0.20306
1887.97082,0.20288
1889.89929,0.20427
1891.82775,0.20389
1893.75622,0.20415
1895.68469,0.20506
1897.61316,0.20216
1899.54163,0.19893
1901.47010,0.20049
1903.39857,0.20373
1905.32704,0.20381
1907.25550,0.20226
1909.18397,0.20288
1911.11244,0.20402
1913.04091,0.20350
1914.96938,0.20507
1916.89785,0.20987
1918.82632,0.21104
1920.75478,0.20801
1922.68325,0.20630
1924.61172,0.20527
1926.54019,0.20447
1928.46866,0.20419
1930.39713,0.20318
1932.32560,0.20283
1934.25407,0.20402
1936.18253,0.20361
1938.11100,0.20037
1940.03947,0.19928
1941.96794,0.20246
1943.89641,0.20390
1945.82488,0.20207
1947.75335,0.20045
1949.68181,0.19890
1951.61028,0.19755
1953.53875,0.19751
1955.46722,0.19871
1957.39569,0.19997
1959.32416,0.20100
1961.25263,0.20270
1963.18110,0.20529
1965.10956,0.20894
1967.03803,0.21103
1968.96650,0.20881
1970.89497,0.20624
1972.82344,0.20707
1974.75191,0.20572
1976.68038,0.19526
1978.60884,0.18404
1980.53731,0.18528
1982.46578,0.19488
1984.39425,0.20096
1986.32272,0.20322
1988.25119,0.20620
1990.17966,0.20846
1992.10812,0.20788
1994.03659,0.20648
1995.96506,0.20597
1997.89353,0.20516
1999.82200,0.20366
2001.75047,0.20305
2003.67894,0.20357
2005.60741,0.20439
2007.53587,0.20507
2009.46434,0.20489
2011.39281,0.20464
2013.32128,0.20564
2015.24975,0.20596
2017.17822,0.20304
2019.10669,0.20038
2021.03515,0.20359
2022.96362,0.20880
2024.89209,0.20920
2026.82056,0.20733
2028.74903,0.20691
2030.67750,0.20638
2032.60597,0.20584
2034.53444,0.20508
2036.46290,0.20253
2038.39137,0.20132
2040.31984,0.20356
2042.24831,0.20542
2044.17678,0.20557
2046.10525,0.20703
2048.03372,0.20910
2049.96218,0.20931
2051.89065,0.20883
2053.81912,0.20819
2055.74759,0.20730
2057.67606,0.20741
2059.60453,0.20739
2061.53300,0.20556
2063.46147,0.20450
2065.38993,0.20579
2067.31840,0.20508
2069.24687,0.20333
2071.17534,0.20577
2073.10381,0.20960
2075.03228,0.20986
2076.96075,0.20716
2078.88921,0.20580
2080.81768,0.20709
2082.74615,0.20721
2084.67462,0.20577
2086.60309,0.20598
2088.53156,0.20572
2090.46003,0.20153
2092.38850,0.19855
2094.31696,0.19979
2096.24543,0.19964
2098.17390,0.19834
2100.10237,0.19929
2102.03084,0.20132
2103.95931,0.20448
2105.88778,0.20709
2107.81624,0.20633
2109.74471,0.20504
2111.67318,0.20504
2113.60165,0.20375
2115.53012,0.20182
2117.45859,0.20212
2119.38706,0.20205
2121.31553,0.19897
2123.24399,0.19663
2125.17246,0.19759
2127.10093,0.19971
2129.02940,0.20023
2130.95787,0.19885
2132.88634,0.20049
2134.81481,0.21064
2136.74327,0.21982
2138.67174,0.21440
2140.60021,0.20583
2142.52868,0.20691
2144.45715,0.20978
2146.38562,0.20972
2148.31409,0.20861
2150.24255,0.20665
2152.17102,0.20405
2154.09949,0.20102
2156.02796,0.19937
2157.95643,0.20000
2159.88490,0.20152
2161.81337,0.20333
2163.74184,0.20434
2165.67030,0.20374
2167.59877,0.20402
2169.52724,0.20633
2171.45571,0.20773
2173.38418,0.20698
2175.31265,0.20510
2177.24112,0.20245
2179.16958,0.20115
2181.09805,0.20265
2183.02652,0.20405
2184.95499,0.20324
2186.88346,0.20200
2188.81193,0.20264
2190.74040,0.20407
2192.66887,0.20371
2194.59733,0.20167
2196.52580,0.19958
2198.45427,0.19835
2200.38274,0.19893
2202.31121,0.20115
2204.23968,0.20299
2206.16815,0.20437
2208.09661,0.20613
2210.02508,0.20703
2211.95355,0.20622
2213.88202,0.20533
2215.81049,0.20596
2217.73896,0.20743
2219.66743,0.20792
2221.59590,0.20751
2223.52436,0.20799
2225.45283,0.20779
2227.38130,0.20612
2229.30977,0.20558
2231.23824,0.20531
2233.16671,0.20421
2235.09518,0.20422
2237.02364,0.20583
2238.95211,0.20686
2240.88058,0.20594
2242.80905,0.20398
2244.73752,0.20277
2246.66599,0.20375
2248.59446,0.20515
2250.52293,0.20439
2252.45139,0.20191
2254.37986,0.19883
2256.30833,0.19663
2258.23680,0.19680
2260.16527,0.19961
2262.09374,0.20385
2264.02221,0.20645
2265.95067,0.20573
2267.87914,0.20337
2269.80761,0.20193
2271.73608,0.20227
2273.66455,0.20324
2275.59302,0.20443
2277.52149,0.20676
2279.44996,0.20896
2281.37842,0.20877
2283.30689,0.20801
2285.23536,0.20881
2287.16383,0.20863
2289.09230,0.20595
2291.02077,0.20461
2292.94924,0.20817
2294.87770,0.21306
2296.80617,0.21425
2298.73464,0.21161
2300.66311,0.20653
2302.59158,0.20277
2304.52005,0.20392
2306.44852,0.21049
2308.37699,0.21922
2310.30545,0.22149
2312.23392,0.21485
2314.16239,0.20731
2316.09086,0.20518
2318.01933,0.20635
2319.94780,0.20556
2321.87627,0.20608
2323.80473,0.21114
2325.73320,0.21008
2327.66167,0.19971
2329.59014,0.19799
2331.51861,0.21160
2333.44708,0.22028
2335.37555,0.21928
2337.30401,0.21711
2339.23248,0.21193
2341.16095,0.20490
2343.08942,0.19939
2345.01789,0.19871
2346.94636,0.20236
2348.87483,0.20595
2350.80330,0.20877
2352.73176,0.21024
2354.66023,0.21674
2356.58870,0.23194
2358.51717,0.23090
2360.44564,0.21486
2362.37411,0.22036
2364.30258,0.24393
2366.23104,0.25023
2368.15951,0.22941
2370.08798,0.20720
2372.01645,0.19994
2373.94492,0.20063
2375.87339,0.20268
2377.80186,0.20502
2379.73033,0.20486
2381.65879,0.20228
2383.58726,0.20207
2385.51573,0.20320
2387.44420,0.20157
2389.37267,0.19944
2391.30114,0.19980
2393.22961,0.20152
2395.15807,0.20272
2397.08654,0.20282
2399.01501,0.20244
2400.94348,0.20297
2402.87195,0.20484
2404.80042,0.20565
2406.72889,0.20473
2408.65736,0.20451
2410.58582,0.20539
2412.51429,0.20567
2414.44276,0.20554
2416.37123,0.20665
2418.29970,0.20796
2420.22817,0.20739
2422.15664,0.20613
2424.08510,0.20481
2426.01357,0.20254
2427.94204,0.20153
2429.87051,0.20296
2431.79898,0.20559
2433.72745,0.20800
2435.65592,0.20794
2437.58439,0.20736
2439.51285,0.20907
2441.44132,0.20929
2443.36979,0.20506
2445.29826,0.20187
2447.22673,0.20421
2449.15520,0.20675
2451.08367,0.20641
2453.01213,0.20441
2454.94060,0.19938
2456.86907,0.19697
2458.79754,0.20091
2460.72601,0.20488
2462.65448,0.20799
2464.58295,0.21104
2466.51142,0.21080
2468.43988,0.20886
2470.36835,0.20860
2472.29682,0.20838
2474.22529,0.20689
2476.15376,0.20573
2478.08223,0.20516
2480.01070,0.20618
2481.93916,0.20805
2483.86763,0.20793
2485.79610,0.20724
2487.72457,0.20683
2489.65304,0.20597
2491.58151,0.20589
2493.50998,0.20673
2495.43844,0.20699
2497.36691,0.20625
2499.29538,0.20591
2501.22385,0.20675
2503.15232,0.20790
2505.08079,0.20847
2507.00926,0.20791
2508.93773,0.20698
2510.86619,0.20675
2512.79466,0.20678
2514.72313,0.20576
2516.65160,0.20355
2518.58007,0.20330
2520.50854,0.20732
2522.43701,0.21219
2524.36547,0.21245
2526.29394,0.20867
2528.22241,0.20613
2530.15088,0.20498
2532.07935,0.20313
2534.00782,0.20256
2535.93629,0.20454
2537.86476,0.20697
2539.79322,0.20708
2541.72169,0.20655
2543.65016,0.20893
2545.57863,0.21165
2547.50710,0.21077
2549.43557,0.20829
2551.36404,0.20758
2553.29250,0.20861
2555.22097,0.21012
2557.14944,0.21066
2559.07791,0.20967
2561.00638,0.20866
2562.93485,0.20886
2564.86332,0.20962
2566.79179,0.20977
2568.72025,0.21027
2570.64872,0.21198
2572.57719,0.21258
2574.50566,0.20963
2576.43413,0.20490
2578.36260,0.20436
2580.29107,0.21016
2582.21953,0.21471
2584.14800,0.21197
2586.07647,0.20643
2588.00494,0.20350
2589.93341,0.20525
2591.86188,0.21067
2593.79035,0.21480
2595.71882,0.21609
2597.64728,0.21642
2599.57575,0.21472
2601.50422,0.21078
2603.43269,0.20880
2605.36116,0.20941
2607.28963,0.21116
2609.21810,0.21634
2611.14656,0.22124
2613.07503,0.21904
2615.00350,0.21291
2616.93197,0.20961
2618.86044,0.20939
2620.78891,0.20953
2622.71738,0.20988
2624.64585,0.21149
2626.57431,0.21366
2628.50278,0.21334
2630.43125,0.21058
2632.35972,0.20966
2634.28819,0.21103
2636.21666,0.21256
2638.14513,0.21310
2640.07359,0.21194
2642.00206,0.21129
2643.93053,0.21186
2645.85900,0.21141
2647.78747,0.21006
2649.71594,0.20896
2651.64441,0.20916
2653.57288,0.21059
2655.50134,0.21191
2657.42981,0.21337
2659.35828,0.21474
2661.28675,0.21470
2663.21522,0.21464
2665.14369,0.21560
2667.07216,0.21622
2669.00062,0.21767
2670.92909,0.22016
2672.85756,0.22112
2674.78603,0.22059
2676.71450,0.21903
2678.64297,0.21598
2680.57144,0.21372
2682.49990,0.21410
2684.42837,0.21510
2686.35684,0.21521
2688.28531,0.21519
2690.21378,0.21476
2692.14225,0.21261
2694.07072,0.21052
2695.99919,0.21049
2697.92765,0.21126
2699.85612,0.21187
2701.78459,0.21166
2703.71306,0.21214
2705.64153,0.21458
2707.57000,0.21602
2709.49847,0.21472
2711.42693,0.21350
2713.35540,0.21603
2715.28387,0.21999
2717.21234,0.22035
2719.14081,0.21787
2721.06928,0.21606
2722.99775,0.21647
2724.92622,0.21794
2726.85468,0.21728
2728.78315,0.21422
2730.71162,0.21377
2732.64009,0.21684
2734.56856,0.21834
2736.49703,0.21781
2738.42550,0.21659
2740.35396,0.21410
2742.28243,0.21373
2744.21090,0.21482
2746.13937,0.21230
2748.06784,0.21011
2749.99631,0.21330
2751.92478,0.21876
2753.85325,0.22300
2755.78171,0.22536
2757.71018,0.22537
2759.63865,0.22469
2761.56712,0.22508
2763.49559,0.22405
2765.42406,0.22170
2767.35253,0.22293
2769.28099,0.22551
2771.20946,0.22388
2773.13793,0.22295
2775.06640,0.22639
2776.99487,0.22883
2778.92334,0.22873
2780.85181,0.22775
2782.78028,0.22579
2784.70874,0.22349
2786.63721,0.22186
2788.56568,0.22181
2790.49415,0.22398
2792.42262,0.22550
2794.35109,0.22409
2796.27956,0.22189
2798.20802,0.21987
2800.13649,0.21883
2802.06496,0.21996
2803.99343,0.22205
2805.92190,0.22364
2807.85037,0.22443
2809.77884,0.22460
2811.70731,0.22405
2813.63577,0.22399
2815.56424,0.22403
2817.49271,0.22181
2819.42118,0.21939
2821.34965,0.21984
2823.27812,0.22206
2825.20659,0.22481
2827.13505,0.22770
2829.06352,0.22886
2830.99199,0.22637
2832.92046,0.22121
2834.84893,0.21757
2836.77740,0.21877
2838.70587,0.22447
2840.63433,0.22962
2842.56280,0.22835
2844.49127,0.22349
2846.41974,0.22223
2848.34821,0.22396
2850.27668,0.22411
2852.20515,0.22148
2854.13362,0.21868
2856.06208,0.22049
2857.99055,0.22464
2859.91902,0.22582
2861.84749,0.22649
2863.77596,0.22818
2865.70443,0.22946
2867.63290,0.23011
2869.56136,0.22813
2871.48983,0.22353
2873.41830,0.21925
2875.34677,0.21844
2877.27524,0.22164
2879.20371,0.22518
2881.13218,0.22684
2883.06065,0.22580
2884.98911,0.22193
2886.91758,0.22060
2888.84605,0.22516
2890.77452,0.22986
2892.70299,0.22874
2894.63146,0.22307
2896.55993,0.21938
2898.48839,0.22198
2900.41686,0.22596
2902.34533,0.22462
2904.27380,0.22125
2906.20227,0.22293
2908.13074,0.22844
2910.05921,0.23059
2911.98768,0.22755
2913.91614,0.22444
2915.84461,0.22617
2917.77308,0.23020
2919.70155,0.22790
2921.63002,0.22032
2923.55849,0.21493
2925.48696,0.20599
2927.41542,0.19248
2929.34389,0.19228
2931.27236,0.20867
2933.20083,0.22354
2935.12930,0.22691
2937.05777,0.22413
2938.98624,0.22320
2940.91471,0.22442
2942.84317,0.22433
2944.77164,0.22154
2946.70011,0.21732
2948.62858,0.21845
2950.55705,0.22673
2952.48552,0.23355
2954.41399,0.23244
2956.34245,0.22413
2958.27092,0.21732
2960.19939,0.21964
2962.12786,0.22473
2964.05633,0.22513
2965.98480,0.22280
2967.91327,0.22133
2969.84174,0.22328
2971.77020,0.22793
2973.69867,0.23082
2975.62714,0.22736
2977.55561,0.22025
2979.48408,0.22026
2981.41255,0.22666
2983.34102,0.22916
2985.26948,0.22835
2987.19795,0.22664
2989.12642,0.22474
2991.05489,0.22795
2992.98336,0.23406
2994.91183,0.23620
2996.84030,0.23408
2998.76877,0.23135
3000.69723,0.23017
3002.62570,0.22900
3004.55417,0.22921
3006.48264,0.23124
3008.41111,0.22908
3010.33958,0.22322
3012.26805,0.21462
3014.19651,0.19411
3016.12498,0.17171
3018.05345,0.17779
3019.98192,0.20728
3021.91039,0.22576
3023.83886,0.22678
3025.76733,0.22379
3027.69579,0.22418
3029.62426,0.22803
3031.55273,0.22899
3033.48120,0.22706
3035.40967,0.22665
3037.33814,0.22791
3039.26661,0.23224
3041.19508,0.23645
3043.12354,0.23618
3045.05201,0.23185
3046.98048,0.22361
3048.90895,0.21761
3050.83742,0.22089
3052.76589,0.23015
3054.69436,0.23475
3056.62282,0.23022
3058.55129,0.22777
3060.47976,0.23314
3062.40823,0.23599
3064.33670,0.22980
3066.26517,0.22205
3068.19364,0.22379
3070.12211,0.23114
3072.05057,0.23218
3073.97904,0.22569
3075.90751,0.21933
3077.83598,0.21964
3079.76445,0.22423
3081.69292,0.22659
3083.62139,0.22087
3085.54985,0.21048
3087.47832,0.20980
3089.40679,0.21871
3091.33526,0.22653
3093.26373,0.22924
3095.19220,0.23015
3097.12067,0.23358
3099.04914,0.23520
3100.97760,0.23174
3102.90607,0.22507
3104.83454,0.22262
3106.76301,0.22796
3108.69148,0.23179
3110.61995,0.22740
3112.54842,0.22031
3114.47688,0.22251
3116.40535,0.23001
3118.33382,0.23004
3120.26229,0.22628
3122.19076,0.22750
3124.11923,0.23335
3126.04770,0.23739
3127.97617,0.23823
3129.90463,0.23868
3131.83310,0.23947
3133.76157,0.24009
3135.69004,0.24048
3137.61851,0.23822
3139.54698,0.23213
3141.47545,0.22912
3143.40391,0.23164
3145.33238,0.23274
3147.26085,0.22976
3149.18932,0.23011
3151.11779,0.23475
3153.04626,0.23435
3154.97473,0.23151
3156.90320,0.23386
3158.83166,0.23559
3160.76013,0.23111
3162.68860,0.22735
3164.61707,0.22937
3166.54554,0.23574
3168.47401,0.24308
3170.40248,0.24374
3172.33094,0.23794
3174.25941,0.23492
3176.18788,0.23729
3178.11635,0.24142
3180.04482,0.24464
3181.97329,0.24420
3183.90176,0.23952
3185.83022,0.23525
3187.75869,0.23433
3189.68716,0.23532
3191.61563,0.23702
3193.54410,0.23964
3195.47257,0.24387
3197.40104,0.24859
3199.32951,0.24832
3201.25797,0.24116
3203.18644,0.23438
3205.11491,0.23378
3207.04338,0.23729
3208.97185,0.23767
3210.90032,0.23256
3212.82879,0.23146
3214.75725,0.23592
3216.68572,0.23449
3218.61419,0.22813
3220.54266,0.22630
3222.47113,0.22792
3224.39960,0.22872
3226.32807,0.23139
3228.25654,0.23480
3230.18500,0.23224
3232.11347,0.22685
3234.04194,0.22548
3235.97041,0.22908
3237.89888,0.23352
3239.82735,0.23604
3241.75582,0.24003
3243.68428,0.24287
3245.61275,0.24072
3247.54122,0.23778
3249.46969,0.23718
3251.39816,0.24033
3253.32663,0.24541
3255.25510,0.24622
3257.18357,0.24191
3259.11203,0.23450
3261.04050,0.22698
3262.96897,0.22575
3264.89744,0.22674
3266.82591,0.22269
3268.75438,0.21816
3270.68285,0.22032
3272.61131,0.22875
3274.53978,0.23271
3276.46825,0.22798
3278.39672,0.22455
3280.32519,0.22607
3282.25366,0.22661
3284.18213,0.22762
3286.11060,0.23249
3288.03906,0.23622
3289.96753,0.23712
3291.89600,0.23523
3293.82447,0.22919
3295.75294,0.22555
3297.68141,0.22947
3299.60988,0.23410
3301.53834,0.23582
3303.46681,0.23864
3305.39528,0.23881
3307.32375,0.23506
3309.25222,0.23346
3311.18069,0.23377
3313.10916,0.23359
3315.03763,0.23114
3316.96609,0.22479
3318.89456,0.22129
3320.82303,0.22561
3322.75150,0.23003
3324.67997,0.22986
3326.60844,0.22823
3328.53691,0.22843
3330.46537,0.23009
3332.39384,0.23004
3334.32231,0.22990
3336.25078,0.23208
3338.17925,0.23431
3340.10772,0.23421
3342.03619,0.23414
3343.96466,0.23553
3345.89312,0.23370
3347.82159,0.22949
3349.75006,0.22890
3351.67853,0.23221
3353.60700,0.23444
3355.53547,0.23066
3357.46394,0.22486
3359.39240,0.22488
3361.32087,0.22934
3363.24934,0.23313
3365.17781,0.23677
3367.10628,0.24074
3369.03475,0.23969
3370.96322,0.23377
3372.89168,0.22917
3374.82015,0.22703
3376.74862,0.22929
3378.67709,0.23557
3380.60556,0.23921
3382.53403,0.23984
3384.46250,0.23939
3386.39097,0.23815
3388.31943,0.23892
3390.24790,0.23887
3392.17637,0.23457
3394.10484,0.23001
3396.03331,0.22583
3397.96178,0.22311
3399.89025,0.22666
3401.81871,0.23273
3403.74718,0.23418
3405.67565,0.22855
3407.60412,0.22013
3409.53259,0.21768
3411.46106,0.22092
3413.38953,0.22334
3415.31800,0.22543
3417.24646,0.23032
3419.17493,0.23416
3421.10340,0.22904
3423.03187,0.21891
3424.96034,0.21739
3426.88881,0.22494
3428.81728,0.22989
3430.74574,0.22867
3432.67421,0.22744
3434.60268,0.22552
3436.53115,0.22049
3438.45962,0.21908
3440.38809,0.22364
3442.31656,0.22847
3444.24503,0.23030
3446.17349,0.22920
3448.10196,0.22569
3450.03043,0.22025
3451.95890,0.21602
3453.88737,0.21667
3455.81584,0.21721
3457.74431,0.21269
3459.67277,0.21159
3461.60124,0.21375
3463.52971,0.20827
3465.45818,0.20259
3467.38665,0.20470
3469.31512,0.20747
3471.24359,0.20904
3473.17206,0.21238
3475.10052,0.21478
3477.02899,0.21316
3478.95746,0.21124
3480.88593,0.21381
3482.81440,0.21686
3484.74287,0.21494
3486.67134,0.21211
3488.59980,0.21221
3490.52827,0.21312
3492.45674,0.21380
3494.38521,0.21445
3496.31368,0.21469
3498.24215,0.21436
3500.17062,0.21039
3502.09909,0.20039
3504.02755,0.19321
3505.95602,0.19585
3507.88449,0.20058
3509.81296,0.20230
3511.74143,0.20274
3513.66990,0.20224
3515.59837,0.19870
3517.52683,0.19341
3519.45530,0.19286
3521.38377,0.19633
3523.31224,0.19663
3525.24071,0.19777
3527.16918,0.20294
3529.09765,0.20344
3531.02611,0.19867
3532.95458,0.19362
3534.88305,0.18967
3536.81152,0.18875
3538.73999,0.18956
3540.66846,0.18982
3542.59693,0.19181
3544.52540,0.19547
3546.45386,0.19565
3548.38233,0.19265
3550.31080,0.18931
3552.23927,0.18461
3554.16774,0.18068
3556.09621,0.18202
3558.02468,0.18669
3559.95314,0.18696
3561.88161,0.18286
3563.81008,0.18137
3565.73855,0.18088
3567.66702,0.17618
3569.59549,0.17111
3571.52396,0.17021
3573.45243,0.17213
3575.38089,0.17560
3577.30936,0.18030
3579.23783,0.18122
3581.16630,0.17819
3583.09477,0.17879
3585.02324,0.18411
3586.95171,0.18666
3588.88017,0.18013
3590.80864,0.17605
3592.73711,0.17970
3594.66558,0.18059
3596.59405,0.17441
3598.52252,0.17002
3600.45099,0.16896
3602.37946,0.16871
3604.30792,0.17072
3606.23639,0.17535
3608.16486,0.17876
3610.09333,0.17841
3612.02180,0.17647
3613.95027,0.17098
3615.87874,0.16463
3617.80720,0.16382
3619.73567,0.16505
3621.66414,0.16414
3623.59261,0.16359
3625.52108,0.16546
3627.44955,0.17251
3629.37802,0.17854
3631.30649,0.17397
3633.23495,0.16674
3635.16342,0.15970
3637.09189,0.15394
3639.02036,0.15058
3640.94883,0.14989
3642.87730,0.15137
3644.80577,0.15584
3646.73423,0.16491
3648.66270,0.17103
3650.59117,0.16101
3652.51964,0.15201
3654.44811,0.15318
3656.37658,0.15667
3658.30505,0.15386
3660.23352,0.14904
3662.16198,0.14659
3664.09045,0.14555
3666.01892,0.14866
3667.94739,0.15983
3669.87586,0.17047
3671.80433,0.17028
3673.73280,0.17241
3675.66126,0.17407
3677.58973,0.16192
3679.51820,0.15017
3681.44667,0.14600
3683.37514,0.14688
3685.30361,0.15142
3687.23208,0.16032
3689.16055,0.16823
3691.08901,0.16400
3693.01748,0.15417
3694.94595,0.14843
3696.87442,0.14669
3698.80289,0.14523
3700.73136,0.14374
3702.65983,0.14433
3704.58829,0.14659
3706.51676,0.14955
3708.44523,0.15318
3710.37370,0.15428
3712.30217,0.14594
3714.23064,0.13717
3716.15911,0.13880
3718.08757,0.14917
3720.01604,0.16013
3721.94451,0.16311
3723.87298,0.15938
3725.80145,0.15646
3727.72992,0.15748
3729.65839,0.16293
3731.58686,0.17219
3733.51532,0.17640
3735.44379,0.16726
3737.37226,0.15443
3739.30073,0.14866
3741.22920,0.15226
3743.15767,0.15816
3745.08614,0.15426
3747.01460,0.15043
3748.94307,0.15514
3750.87154,0.16004
3752.80001,0.15603
3754.72848,0.14827
3756.65695,0.14314
3758.58542,0.14294
3760.51389,0.14405
3762.44235,0.14367
3764.37082,0.14551
3766.29929,0.15127
3768.22776,0.15455
3770.15623,0.14897
3772.08470,0.14127
3774.01317,0.13791
3775.94163,0.13785
3777.87010,0.14178
3779.79857,0.14494
3781.72704,0.14278
3783.65551,0.14107
3785.58398,0.13949
3787.51245,0.13617
3789.44092,0.13568
3791.36938,0.13791
3793.29785,0.13905
3795.22632,0.13907
3797.15479,0.13934
3799.08326,0.14004
3801.01173,0.14280
3802.94020,0.14585
3804.86866,0.14450
3806.79713,0.13892
3808.72560,0.13315
3810.65407,0.13190
3812.58254,0.13293
3814.51101,0.13546
3816.43948,0.14165
3818.36795,0.14866
3820.29641,0.15382
3822.22488,0.15265
3824.15335,0.14619
3826.08182,0.14067
3828.01029,0.13736
3829.93876,0.13609
3831.86723,0.13812
3833.79569,0.14354
3835.72416,0.14586
3837.65263,0.14588
3839.58110,0.14976
3841.50957,0.14499
3843.43804,0.13210
3845.36651,0.12703
3847.29498,0.13132
3849.22344,0.14128
3851.15191,0.15717
3853.08038,0.16801
3855.00885,0.15304
3856.93732,0.13908
3858.86579,0.13825
3860.79426,0.14527
3862.72272,0.14783
3864.65119,0.13903
3866.57966,0.13567
3868.50813,0.14189
3870.43660,0.14135
3872.36507,0.13376
3874.29354,0.13139
3876.22200,0.12854
3878.15047,0.12447
3880.07894,0.12565
3882.00741,0.12859
3883.93588,0.12823
3885.86435,0.12684
3887.79282,0.12718
3889.72129,0.13043
3891.64975,0.13266
3893.57822,0.13147
3895.50669,0.13266
3897.43516,0.13874
3899.36363,0.14593
3901.29210,0.14466
3903.22057,0.13469
3905.14903,0.12688
3907.07750,0.12329
3909.00597,0.12266
3910.93444,0.12441
3912.86291,0.12421
3914.79138,0.12428
3916.71985,0.13001
3918.64832,0.13520
3920.57678,0.13412
3922.50525,0.13168
3924.43372,0.13109
3926.36219,0.13144
3928.29066,0.13105
3930.21913,0.13061
3932.14760,0.13128
3934.07606,0.12920
3936.00453,0.12642
3937.93300,0.12697
3939.86147,0.12558
3941.78994,0.12058
3943.71841,0.11520
3945.64688,0.11123
3947.57535,0.11391
3949.50381,0.12038
3951.43228,0.11955
3953.36075,0.11730
3955.28922,0.12326
3957.21769,0.12995
3959.14616,0.12924
3961.07463,0.12532
3963.00309,0.12311
3964.93156,0.12297
3966.86003,0.12192
3968.78850,0.12088
3970.71697,0.12332
3972.64544,0.12304
3974.57391,0.11789
3976.50238,0.11436
3978.43084,0.11148
3980.35931,0.11027
3982.28778,0.11374
3984.21625,0.11509
3986.14472,0.11207
3988.07319,0.11014
3990.00166,0.10993
3991.93012,0.11039
3993.85859,0.11126
3995.78706,0.11158
3997.71553,0.11306
3999.64400,0.11478
4001.57247,0.11424
4003.50094,0.11477
4005.42941,0.11582
4007.35787,0.11634
4009.28634,0.11809
4011.21481,0.11530
4013.14328,0.11025
4015.07175,0.11153
4017.00022,0.11442
4018.92869,0.11294
4020.85715,0.11135
4022.78562,0.11386
4024.71409,0.11810
4026.64256,0.12035
4028.57103,0.11899
4030.49950,0.11563
4032.42797,0.11118
4034.35644,0.10501
4036.28490,0.09945
4038.21337,0.09613
4040.14184,0.09573
4042.07031,0.09797
4043.99878,0.10077
4045.92725,0.10294
4047.85572,0.10457
4049.78418,0.10638
4051.71265,0.10730
4053.64112,0.10748
4055.56959,0.10920
4057.49806,0.11106
4059.42653,0.11048
4061.35500,0.10774
4063.28346,0.10370
4065.21193,0.10216
4067.14040,0.10695
4069.06887,0.11236
4070.99734,0.11205
4072.92581,0.10689
4074.85428,0.10192
4076.78275,0.10357
4078.71121,0.10909
4080.63968,0.11321
4082.56815,0.11440
4084.49662,0.10905
4086.42509,0.10183
4088.35356,0.09934
4090.28203,0.09711
4092.21049,0.09368
4094.13896,0.09513
4096.06743,0.09958
4097.99590,0.09912
4099.92437,0.09625
4101.85284,0.09719
4103.78131,0.10124
4105.70978,0.10419
4107.63824,0.10429
4109.56671,0.10495
4111.49518,0.10634
4113.42365,0.10520
4115.35212,0.10387
4117.28059,0.10562
4119.20906,0.10635
4121.13752,0.10172
4123.06599,0.09667
4124.99446,0.09677
4126.92293,0.09978
4128.85140,0.10166
4130.77987,0.10217
4132.70834,0.10191
4134.63681,0.09979
4136.56527,0.09736
4138.49374,0.09653
4140.42221,0.09540
4142.35068,0.09267
4144.27915,0.09165
4146.20762,0.09556
4148.13609,0.09890
4150.06455,0.09597
4151.99302,0.09191
4153.92149,0.09270
4155.84996,0.09685
4157.77843,0.09841
4159.70690,0.09722
4161.63537,0.09942
4163.56384,0.10119
4165.49230,0.09651
4167.42077,0.09085
4169.34924,0.08794
4171.27771,0.08532
4173.20618,0.08144
4175.13465,0.07560
4177.06312,0.06888
4178.99158,0.06541
4180.92005,0.07031
4182.84852,0.08000
4184.77699,0.08298
4186.70546,0.08146
4188.63393,0.08302
4190.56240,0.08115
4192.49087,0.07813
4194.41933,0.08461
4196.34780,0.09261
4198.27627,0.09184
4200.20474,0.08780
4202.13321,0.08623
4204.06168,0.08379
4205.99015,0.08164
4207.91861,0.08604
4209.84708,0.09208
4211.77555,0.09181
4213.70402,0.08748
4215.63249,0.08166
4217.56096,0.07587
4219.48943,0.07321
4221.41789,0.07586
4223.34636,0.08241
4225.27483,0.08381
4227.20330,0.07755
4229.13177,0.07407
4231.06024,0.07800
4232.98871,0.08384
4234.91718,0.08685
4236.84564,0.08677
4238.77411,0.08318
4240.70258,0.07674
4242.63105,0.07331
4244.55952,0.07490
4246.48799,0.07610
4248.41646,0.07581
4250.34492,0.07726
4252.27339,0.07842
4254.20186,0.07570
4256.13033,0.06963
4258.05880,0.06314
4259.98727,0.06070
4261.91574,0.06506
4263.84421,0.06835
4265.77267,0.06407
4267.70114,0.06117
4269.62961,0.06422
4271.55808,0.06798
4273.48655,0.07155
4275.41502,0.07407
4277.34349,0.07287
4279.27195,0.06647
4281.20042,0.05706
4283.12889,0.05338
4285.05736,0.06053
4286.98583,0.07039
4288.91430,0.07064
4290.84277,0.05982
4292.77124,0.05011
4294.69970,0.05271
4296.62817,0.06266
4298.55664,0.06868
4300.48511,0.06985
4302.41358,0.07119
4304.34205,0.07487
4306.27052,0.07898
4308.19898,0.07728
4310.12745,0.06919
4312.05592,0.06324
4313.98439,0.06415
4315.91286,0.06734
4317.84133,0.06532
4319.76980,0.05816
4321.69827,0.05204
4323.62673,0.04865
4325.55520,0.04767
4327.48367,0.05038
4329.41214,0.05533
4331.34061,0.05972
4333.26908,0.06248
4335.19755,0.06170
4337.12601,0.05559
4339.05448,0.04820
4340.98295,0.04635
4342.91142,0.04942
4344.83989,0.05334
4346.76836,0.05495
4348.69683,0.05018
4350.62530,0.04511
4352.55376,0.04639
4354.48223,0.04668
4356.41070,0.04057
4358.33917,0.03361
4360.26764,0.03455
4362.19611,0.04455
4364.12458,0.05293
4366.05304,0.05409
4367.98151,0.05593
4369.90998,0.05918
4371.83845,0.05511
4373.76692,0.04497
4375.69539,0.04008
4377.62386,0.04348
4379.55232,0.04642
4381.48079,0.04619
4383.40926,0.04365
4385.33773,0.04109
4387.26620,0.04415
4389.19467,0.04699
4391.12314,0.04514
4393.05161,0.04448
4394.98007,0.04212
4396.90854,0.03223
4398.83701,0.02411
4400.76548,0.02732
4402.69395,0.03465
4404.62242,0.03973
4406.55089,0.04270
4408.47935,0.04243
4410.40782,0.04199
4412.33629,0.04267
4414.26476,0.04123
4416.19323,0.03915
4418.12170,0.03856
4420.05017,0.04130
4421.97864,0.04941
4423.90710,0.05599
4425.83557,0.05426
4427.76404,0.04650
4429.69251,0.04010
4431.62098,0.03987
4433.54945,0.03740
4435.47792,0.02864
4437.40638,0.02549
4439.33485,0.03211
4441.26332,0.03876
4443.19179,0.03939
4445.12026,0.03873
4447.04873,0.04072
4448.97720,0.04172
4450.90567,0.04127
4452.83413,0.04067
4454.76260,0.03564
4456.69107,0.02674
4458.61954,0.02048
4460.54801,0.02246
4462.47648,0.03233
4464.40495,0.04296
4466.33341,0.04852
4468.26188,0.04234
4470.19035,0.02777
4472.11882,0.02283
4474.04729,0.02657
4475.97576,0.02484
4477.90423,0.02217
4479.83270,0.02576
4481.76116,0.02933
4483.68963,0.02890
4485.61810,0.02893
4487.54657,0.03111
4489.47504,0.03035
4491.40351,0.02265
4493.33198,0.01305
4495.26044,0.00958
4497.18891,0.00971
4499.11738,0.00960
4501.04585,0.01296
4502.97432,0.01821
4504.90279,0.02349
4506.83126,0.02957
4508.75973,0.02936
4510.68819,0.02294
4512.61666,0.02389
4514.54513,0.03305
4516.47360,0.03084
4518.40207,0.01418
4520.33054,-0.00085
4522.25901,-0.00783
4524.18747,0.00064
4526.11594,0.02220
4528.04441,0.03716
4529.97288,0.04023
4531.90135,0.03770
4533.82982,0.03296
4535.75829,0.02674
4537.68676,0.01802
4539.61522,0.00952
4541.54369,0.00490
4543.47216,0.00499
4545.40063,0.01064
4547.32910,0.01980
4549.25757,0.02391
4551.18604,0.01786
4553.11450,0.01086
4555.04297,0.00989
4556.97144,0.00811
4558.89991,0.00952
4560.82838,0.01790
4562.75685,0.01949
4564.68532,0.01562
4566.61378,0.01593
4568.54225,0.01700
4570.47072,0.02006
4572.39919,0.02457
4574.32766,0.02546
4576.25613,0.02500
4578.18460,0.02371
4580.11307,0.01831
4582.04153,0.01019
4583.97000,0.00898
4585.89847,0.02006
4587.82694,0.03009
4589.75541,0.02682
4591.68388,0.01698
4593.61235,0.01139
4595.54081,0.01310
4597.46928,0.01801
4599.39775,0.01958
4601.32622,0.01788
4603.25469,0.01526
4605.18316,0.01146
4607.11163,0.01172
4609.04010,0.01627
4610.96856,0.01711
4612.89703,0.01567
4614.82550,0.01439
4616.75397,0.00824
4618.68244,0.00250
4620.61091,0.00813
4622.53938,0.01832
4624.46784,0.02061
4626.39631,0.01833
4628.32478,0.01879
4630.25325,0.01800
4632.18172,0.01447
4634.11019,0.01783
4636.03866,0.02200
4637.96713,0.00871
4639.89559,-0.01218
4641.82406,-0.01514
4643.75253,0.00183
4645.68100,0.01571
4647.60947,0.01260
4649.53794,0.00820
4651.46641,0.01614
4653.39487,0.02652
4655.32334,0.02499
4657.25181,0.01333
4659.18028,0.00375
4661.10875,0.00241
4663.03722,0.00803
4664.96569,0.01101
4666.89416,0.00885
4668.82262,0.01149
4670.75109,0.01702
4672.67956,0.01688
4674.60803,0.01234
4676.53650,0.00728
4678.46497,0.00392
4680.39344,0.00246
4682.32190,0.00226
4684.25037,0.00829
4686.17884,0.01883
4688.10731,0.02124
4690.03578,0.01546
4691.96425,0.00939
4693.89272,0.00455
4695.82119,0.00382
4697.74965,0.00807
4699.67812,0.01166
4701.60659,0.01132
4703.53506,0.00835
4705.46353,0.00343
4707.39200,0.00105
4709.32047,0.00689
4711.24893,0.01549
4713.17740,0.01952
4715.10587,0.02104
4717.03434,0.02219
4718.96281,0.01903
4720.89128,0.00940
4722.81975,0.00602
4724.74821,0.01483
4726.67668,0.01649
4728.60515,0.00881
4730.53362,0.01187
4732.46209,0.02243
4734.39056,0.02298
4736.31903,0.01749
4738.24750,0.01867
4740.17596,0.01836
4742.10443,0.01031
4744.03290,0.00869
4745.96137,0.01239
4747.88984,0.01128
4749.81831,0.00975
4751.74678,0.00966
4753.67524,0.01250
4755.60371,0.01628
4757.53218,0.01153
4759.46065,0.00886
4761.38912,0.01836
4763.31759,0.02347
4765.24606,0.01458
4767.17453,0.00173
4769.10299,-0.00382
4771.03146,0.00084
4772.95993,0.00835
4774.88840,0.01223
4776.81687,0.01375
4778.74534,0.01472
4780.67381,0.01735
4782.60227,0.02275
4784.53074,0.02917
4786.45921,0.03532
4788.38768,0.03193
4790.31615,0.01937
4792.24462,0.01137
4794.17309,0.00873
4796.10156,0.01177
4798.03002,0.01791
4799.95849,0.01637
4801.88696,0.00837
4803.81543,0.00146
4805.74390,-0.00008
4807.67237,-0.00119
4809.60084,-0.00802
4811.52930,-0.01112
4813.45777,-0.00319
4815.38624,0.00530
4817.31471,0.00652
4819.24318,0.00550
4821.17165,0.00331
4823.10012,-0.00195
4825.02859,-0.00624
4826.95705,-0.00878
4828.88552,-0.01053
4830.81399,-0.00926
4832.74246,-0.00794
4834.67093,-0.00732
4836.59940,-0.00584
4838.52787,-0.00390
4840.45633,0.00205
4842.38480,0.00984
4844.31327,0.01178
4846.24174,0.00905
4848.17021,0.01057
4850.09868,0.01377
4852.02715,0.00916
4853.95562,0.00254
4855.88408,0.00364
4857.81255,0.01214
4859.74102,0.01908
4861.66949,0.01507
4863.59796,0.00499
4865.52643,0.00350
4867.45490,0.01138
4869.38336,0.01382
4871.31183,0.00782
4873.24030,0.00597
4875.16877,0.00676
4877.09724,-0.00051
4879.02571,-0.00516
4880.95418,0.00426
4882.88265,0.01868
4884.81111,0.02214
4886.73958,0.01109
4888.66805,0.00180
4890.59652,-0.00029
4892.52499,-0.00414
4894.45346,-0.00572
4896.38193,-0.00230
4898.31039,-0.00032
4900.23886,0.00347
4902.16733,0.01217
4904.09580,0.01770
4906.02427,0.02141
4907.95274,0.02934
4909.88121,0.03601
4911.80967,0.03461
4913.73814,0.02402
4915.66661,0.01108
4917.59508,0.00459
4919.52355,0.00111
4921.45202,-0.00569
4923.38049,-0.01018
4925.30896,-0.00719
4927.23742,0.00228
4929.16589,0.01286
4931.09436,0.01667
4933.02283,0.01897
4934.95130,0.02887
4936.87977,0.03749
4938.80824,0.03206
4940.73670,0.01942
4942.66517,0.01206
4944.59364,0.01109
4946.52211,0.01503
4948.45058,0.01712
4950.37905,0.01097
4952.30752,0.00230
4954.23599,-0.00127
4956.16445,0.00351
4958.09292,0.01298
4960.02139,0.01387
4961.94986,0.00147
4963.87833,-0.00777
4965.80680,-0.00599
4967.73527,-0.00568
4969.66373,-0.00440
4971.59220,0.00652
4973.52067,0.01203
4975.44914,0.01149
4977.37761,0.02212
4979.30608,0.03126
4981.23455,0.02467
4983.16302,0.01238
4985.09148,0.00012
4987.01995,-0.00894
4988.94842,-0.00460
4990.87689,0.01011
4992.80536,0.02557
4994.73383,0.04174
4996.66230,0.04205
4998.59076,0.01623
5000.51923,-0.00548
5002.44770,-0.00695
5004.37617,-0.00012
5006.30464,0.00748
5008.23311,0.01334
5010.16158,0.01957
5012.09005,0.02344
5014.01851,0.01858
5015.94698,0.01751
5017.87545,0.02780
5019.80392,0.03578
5021.73239,0.03171
5023.66086,0.01847
5025.58933,0.00910
5027.51779,0.01639
5029.44626,0.02974
5031.37473,0.02810
5033.30320,0.01536
5035.23167,0.00646
5037.16014,0.00193
5039.08861,-0.00161
5041.01708,-0.00151
5042.94554,0.01163
5044.87401,0.03451
5046.80248,0.04383
5048.73095,0.03942
5050.65942,0.03827
5052.58789,0.03557
5054.51636,0.02377
5056.44482,0.01297
5058.37329,0.01462
5060.30176,0.02174
5062.23023,0.02286
5064.15870,0.01934
5066.08717,0.01931
5068.01564,0.02633
5069.94410,0.03591
5071.87257,0.04320
5073.80104,0.04127
5075.72951,0.03781
5077.65798,0.04372
5079.58645,0.03949
5081.51492,0.02276
5083.44339,0.01977
5085.37185,0.02490
5087.30032,0.01777
5089.22879,0.00907
5091.15726,0.02142
5093.08573,0.04523
5095.01420,0.04863
5096.94267,0.03525
5098.87113,0.02803
5100.79960,0.02524
5102.72807,0.02919
5104.65654,0.04178
5106.58501,0.04789
5108.51348,0.05000
5110.44195,0.06093
5112.37042,0.06678
5114.29888,0.05781
5116.22735,0.04759
5118.15582,0.03847
5120.08429,0.03045
5122.01276,0.03419
5123.94123,0.04506
5125.86970,0.03806
5127.79816,0.02011
5129.72663,0.02358
5131.65510,0.04483
5133.58357,0.06454
5135.51204,0.06777
5137.44051,0.05506
5139.36898,0.05210
5141.29745,0.06767
5143.22591,0.08028
5145.15438,0.07505
5147.08285,0.05832
5149.01132,0.04836
5150.93979,0.05573
5152.86826,0.06319
5154.79673,0.05952
5156.72519,0.05398
5158.65366,0.04442
5160.58213,0.02757
5162.51060,0.01457
5164.43907,0.01743
5166.36754,0.03261
5168.29601,0.04121
5170.22448,0.03710
5172.15294,0.03852
5174.08141,0.05301
5176.00988,0.06851
5177.93835,0.07218
5179.86682,0.06499
5181.79529,0.06349
5183.72376,0.06807
5185.65222,0.06390
5187.58069,0.05587
5189.50916,0.06289
5191.43763,0.07814
5193.36610,0.07896
5195.29457,0.06431
5197.22304,0.04426
5199.15151,0.02977
5201.07997,0.03144
5203.00844,0.04509
5204.93691,0.05284
5206.86538,0.04616
5208.79385,0.03760
5210.72232,0.04414
5212.65079,0.06462
5214.57925,0.07088
5216.50772,0.05719
5218.43619,0.04721
5220.36466,0.04403
5222.29313,0.04231
5224.22160,0.04094
5226.15007,0.02895
5228.07854,0.01189
5230.00700,0.01960
5231.93547,0.04932
5233.86394,0.06441
5235.79241,0.05901
5237.72088,0.05509
5239.64935,0.05989
5241.57782,0.06132
5243.50628,0.05306
5245.43475,0.04466
5247.36322,0.04443
5249.29169,0.05124
5251.22016,0.05504
5253.14863,0.05611
5255.07710,0.05361
5257.00556,0.03849
5258.93403,0.03526
5260.86250,0.05815
5262.79097,0.07334
5264.71944,0.06653
5266.64791,0.06033
5268.57638,0.06646
5270.50485,0.07743
5272.43331,0.07735
5274.36178,0.07290
5276.29025,0.07595
5278.21872,0.07308
5280.14719,0.05936
5282.07566,0.05163
5284.00413,0.06315
5285.93259,0.07723
5287.86106,0.06353
5289.78953,0.03314
5291.71800,0.02026
5293.64647,0.02866
5295.57494,0.03697
5297.50341,0.03538
5299.43188,0.03796
5301.36034,0.05219
5303.28881,0.05973
5305.21728,0.05723
5307.14575,0.05675
5309.07422,0.05862
5311.00269,0.07023
5312.93116,0.09167
5314.85962,0.10401
5316.78809,0.09062
5318.71656,0.05863
5320.64503,0.04443
5322.57350,0.05445
5324.50197,0.06022
5326.43044,0.05700
5328.35891,0.05334
5330.28737,0.04593
5332.21584,0.03672
5334.14431,0.03224
5336.07278,0.03696
5338.00125,0.05869
5339.92972,0.08008
5341.85819,0.07675
5343.78665,0.06512
5345.71512,0.05755
5347.64359,0.04253
5349.57206,0.03347
5351.50053,0.04467
5353.42900,0.06101
5355.35747,0.06528
5357.28594,0.05380
5359.21440,0.03670
5361.14287,0.03395
5363.07134,0.05018
5364.99981,0.07389
5366.92828,0.09156
5368.85675,0.08512
5370.78522,0.05699
5372.71368,0.04331
5374.64215,0.05651
5376.57062,0.06817
5378.49909,0.06726
5380.42756,0.06141
5382.35603,0.05926
5384.28450,0.07086
5386.21297,0.07717
5388.14143,0.07055
5390.06990,0.06987
5391.99837,0.06552
5393.92684,0.06102
5395.85531,0.07363
5397.78378,0.07387
5399.71225,0.05331
5401.64071,0.04741
5403.56918,0.06338
5405.49765,0.08689
5407.42612,0.10387
5409.35459,0.09063
5411.28306,0.06810
5413.21153,0.09035
5415.13999,0.13092
5417.06846,0.13337
5418.99693,0.10403
5420.92540,0.07226
5422.85387,0.06217
5424.78234,0.06825
5426.71081,0.06897
5428.63928,0.06587
5430.56774,0.06439
5432.49621,0.06251
5434.42468,0.06128
5436.35315,0.06356
5438.28162,0.06224
5440.21009,0.05100
5442.13856,0.04794
5444.06702,0.05317
5445.99549,0.05391
5447.92396,0.05464
5449.85243,0.06414
5451.78090,0.08361
5453.70937,0.09154
5455.63784,0.07694
5457.56631,0.05326
5459.49477,0.04101
5461.42324,0.04660
5463.35171,0.05531
5465.28018,0.06065
5467.20865,0.07133
5469.13712,0.08358
5471.06559,0.08768
5472.99405,0.09590
5474.92252,0.11125
5476.85099,0.11283
5478.77946,0.10138
5480.70793,0.09439
5482.63640,0.09454
5484.56487,0.09148
5486.49334,0.09045
5488.42180,0.10978
5490.35027,0.13022
5492.27874,0.11769
5494.20721,0.09544
5496.13568,0.08594
5498.06415,0.07764
5499.99262,0.07305
5501.92108,0.07692
5503.84955,0.08661
5505.77802,0.08852
5507.70649,0.08166
5509.63496,0.08296
5511.56343,0.08839
5513.49190,0.08440
5515.42037,0.06886
5517.34883,0.05376
5519.27730,0.04985
5521.20577,0.06942
5523.13424,0.10316
5525.06271,0.11137
5526.99118,0.10025
5528.91965,0.09751
5530.84811,0.10121
5532.77658,0.10614
5534.70505,0.10608
5536.63352,0.10324
5538.56199,0.10258
5540.49046,0.09584
5542.41893,0.08262
5544.34740,0.07084
5546.27586,0.07878
5548.20433,0.10972
5550.13280,0.12148
5552.06127,0.09703
5553.98974,0.07579
5555.91821,0.08240
5557.84668,0.09597
5559.77514,0.10745
5561.70361,0.11914
5563.63208,0.11070
5565.56055,0.08488
5567.48902,0.06934
5569.41749,0.06278
5571.34596,0.05631
5573.27443,0.05906
5575.20289,0.05725
5577.13136,0.03722
5579.05983,0.02566
5580.98830,0.03864
5582.91677,0.06270
5584.84524,0.08310
5586.77371,0.09054
5588.70217,0.09005
5590.63064,0.09343
5592.55911,0.09673
5594.48758,0.09295
5596.41605,0.08219
5598.34452,0.06991
5600.27299,0.06687
5602.20145,0.08791
5604.12992,0.12391
5606.05839,0.12982
5607.98686,0.09568
5609.91533,0.07764
5611.84380,0.10477
5613.77227,0.12158
5615.70074,0.11089
5617.62920,0.12607
5619.55767,0.14881
5621.48614,0.12278
5623.41461,0.07092
5625.34308,0.05057
5627.27155,0.06588
5629.20002,0.08176
5631.12848,0.08491
5633.05695,0.07739
5634.98542,0.06885
5636.91389,0.07048
5638.84236,0.07841
5640.77083,0.08399
5642.69930,0.07237
5644.62777,0.03575
5646.55623,0.01741
5648.48470,0.06347
5650.41317,0.12563
5652.34164,0.13839
5654.27011,0.11119
5656.19858,0.08450
5658.12705,0.07356
5660.05551,0.07117
5661.98398,0.08038
5663.91245,0.08779
5665.84092,0.07368
5667.76939,0.06711
5669.69786,0.08324
5671.62633,0.09089
5673.55480,0.08666
5675.48326,0.07793
5677.41173,0.05124
5679.34020,0.04444
5681.26867,0.07114
5683.19714,0.07816
5685.12561,0.07479
5687.05408,0.07959
5688.98254,0.07406
5690.91101,0.06606
5692.83948,0.06631
5694.76795,0.08552
5696.69642,0.11273
5698.62489,0.09909
5700.55336,0.05080
5702.48183,0.03011
5704.41029,0.04742
5706.33876,0.06332
5708.26723,0.06959
5710.19570,0.08588
5712.12417,0.10887
5714.05264,0.10858
5715.98111,0.08443
5717.90957,0.07675
5719.83804,0.08183
5721.76651,0.07495
5723.69498,0.09006
5725.62345,0.13525
5727.55192,0.14359
5729.48039,0.08750
5731.40886,0.03519
5733.33732,0.03236
5735.26579,0.05953
5737.19426,0.08442
5739.12273,0.09436
5741.05120,0.09012
5742.97967,0.07052
5744.90814,0.05399
5746.83660,0.06639
5748.76507,0.09057
5750.69354,0.10679
5752.62201,0.11669
5754.55048,0.10860
5756.47895,0.08578
5758.40742,0.07237
5760.33588,0.07478
5762.26435,0.08214
5764.19282,0.07830
5766.12129,0.06901
5768.04976,0.09141
5769.97823,0.12170
5771.90670,0.10247
5773.83517,0.08119
5775.76363,0.10462
5777.69210,0.11956
5779.62057,0.10587
5781.54904,0.10119
5783.47751,0.10511
5785.40598,0.10421
5787.33445,0.10265
5789.26291,0.10320
5791.19138,0.11149
5793.11985,0.11928
5795.04832,0.10762
5796.97679,0.08090
5798.90526,0.05821
5800.83373,0.05243
5802.76220,0.07157
5804.69066,0.09229
5806.61913,0.08231
5808.54760,0.05744
5810.47607,0.03426
5812.40454,0.01733
5814.33301,0.03095
5816.26148,0.07556
5818.18994,0.12608
5820.11841,0.16728
5822.04688,0.17030
5823.97535,0.13695
5825.90382,0.10220
5827.83229,0.06767
5829.76076,0.05425
5831.68923,0.07901
5833.61769,0.10160
5835.54616,0.09780
5837.47463,0.08355
5839.40310,0.05747
5841.33157,0.02746
5843.26004,0.03621
5845.18851,0.06865
5847.11697,0.06664
5849.04544,0.03593
5850.97391,0.04307
5852.90238,0.08314
5854.83085,0.09552
5856.75932,0.09744
5858.68779,0.11303
5860.61626,0.12258
5862.54472,0.13255
5864.47319,0.12634
5866.40166,0.08415
5868.33013,0.06888
5870.25860,0.11463
5872.18707,0.15044
5874.11554,0.13442
5876.04400,0.09747
5877.97247,0.06227
5879.90094,0.03486
5881.82941,0.03361
5883.75788,0.05552
5885.68635,0.06784
5887.61482,0.05629
5889.54329,0.04119
5891.47175,0.04046
5893.40022,0.05391
5895.32869,0.07377
5897.25716,0.08442
5899.18563,0.07574
5901.11410,0.05453
5903.04257,0.04507
5904.97103,0.06132
5906.89950,0.08269
5908.82797,0.08455
5910.75644,0.08037
5912.68491,0.10634
5914.61338,0.13767
5916.54185,0.14330
5918.47032,0.14360
5920.39878,0.12871
5922.32725,0.09715
5924.25572,0.07943
5926.18419,0.07752
5928.11266,0.09002
5930.04113,0.12739
5931.96960,0.15654
5933.89806,0.14141
5935.82653,0.12164
5937.75500,0.11482
5939.68347,0.07905
5941.61194,0.02696
5943.54041,0.02358
5945.46888,0.06581
5947.39734,0.09496
5949.32581,0.09669
5951.25428,0.06852
5953.18275,0.03018
5955.11122,0.04163
5957.03969,0.08499
5958.96816,0.10103
5960.89663,0.10084
5962.82509,0.10803
5964.75356,0.11325
5966.68203,0.12046
5968.61050,0.14081
5970.53897,0.15538
5972.46744,0.14085
5974.39591,0.10507
5976.32437,0.06660
5978.25284,0.06643
5980.18131,0.10388
5982.10978,0.11712
5984.03825,0.11187
5985.96672,0.12278
5987.89519,0.14025
5989.82366,0.14748
5991.75212,0.12860
5993.68059,0.09539
5995.60906,0.07414
5997.53753,0.07628
5999.46600,0.10021
6001.39447,0.14256
6003.32294,0.17464
6005.25140,0.15699
6007.17987,0.11214
6009.10834,0.08048
6011.03681,0.08749
6012.96528,0.12938
6014.89375,0.14871
6016.82222,0.13414
6018.75069,0.11149
6020.67915,0.07442
6022.60762,0.04842
6024.53609,0.05610
6026.46456,0.08440
6028.39303,0.11420
6030.32150,0.10663
6032.24997,0.06529
6034.17843,0.04509
6036.10690,0.06197
6038.03537,0.08358
6039.96384,0.10313
6041.89231,0.13279
6043.82078,0.15480
6045.74925,0.14389
6047.67772,0.11783
6049.60618,0.10766
6051.53465,0.09327
6053.46312,0.06591
6055.39159,0.05531
6057.32006,0.05650
6059.24853,0.07151
6061.17700,0.11186
6063.10546,0.11584
6065.03393,0.05502
6066.96240,0.01142
6068.89087,0.02245
6070.81934,0.04011
6072.74781,0.03840
6074.67628,0.07355
6076.60475,0.16029
6078.53321,0.17698
6080.46168,0.07867
6082.39015,-0.01544
6084.31862,-0.01879
6086.24709,0.06899
6088.17556,0.17360
6090.10403,0.21434
6092.03249,0.19027
6093.96096,0.14536
6095.88943,0.10753
6097.81790,0.06633
6099.74637,0.03146
6101.67484,0.02631
6103.60331,0.04402
6105.53177,0.06925
6107.46024,0.06578
6109.38871,0.03240
6111.31718,0.05108
6113.24565,0.11779
6115.17412,0.13996
6117.10259,0.11712
6119.03106,0.09750
6120.95952,0.08069
6122.88799,0.07571
6124.81646,0.10943
6126.74493,0.13085
6128.67340,0.08254
6130.60187,0.05727
6132.53034,0.09062
6134.45880,0.10491
6136.38727,0.10441
6138.31574,0.10709
6140.24421,0.12019
6142.17268,0.15170
6144.10115,0.13335
6146.02962,0.02915
6147.95809,-0.06852
6149.88655,-0.06258
6151.81502,0.03607
6153.74349,0.11758
6155.67196,0.10539
6157.60043,0.06383
6159.52890,0.09925
6161.45737,0.19631
6163.38583,0.23700
6165.31430,0.18795
6167.24277,0.14817
6169.17124,0.13975
6171.09971,0.11671
6173.02818,0.10429
6174.95665,0.10854
6176.88512,0.08820
6178.81358,0.06053
6180.74205,0.05973
6182.67052,0.07258
6184.59899,0.08390
6186.52746,0.05822
6188.45593,-0.02256
6190.38440,-0.04919
6192.31286,0.00194
6194.24133,0.03383
6196.16980,0.04902
6198.09827,0.07823
6200.02674,0.08666
6201.95521,0.07874
6203.88368,0.07703
6205.81215,0.07946
6207.74061,0.10666
6209.66908,0.11771
6211.59755,0.06781
6213.52602,0.04813
6215.45449,0.07898
6217.38296,0.10227
6219.31143,0.10587
6221.23989,0.10212
6223.16836,0.09934
6225.09683,0.07558
6227.02530,0.00948
6228.95377,-0.05006
6230.88224,-0.03617
6232.81071,0.02071
6234.73918,0.05771
6236.66764,0.08476
6238.59611,0.10292
6240.52458,0.10058
6242.45305,0.09890
6244.38152,0.09919
6246.30999,0.05619
6248.23846,0.02008
6250.16692,0.07205
6252.09539,0.13888
6254.02386,0.15423
6255.95233,0.13224
6257.88080,0.08649
6259.80927,0.05289
6261.73774,0.04059
6263.66621,0.04668
6265.59467,0.09218
6267.52314,0.13838
6269.45161,0.12258
6271.38008,0.07553
6273.30855,0.05385
6275.23702,0.08084
6277.16549,0.11316
6279.09395,0.08113
6281.02242,0.01880
6282.95089,0.00847
6284.87936,0.03752
6286.80783,0.06019
6288.73630,0.08098
6290.66477,0.07556
6292.59323,0.04604
6294.52170,0.05246
6296.45017,0.06600
6298.37864,0.03725
6300.30711,0.00645
6302.23558,0.01733
6304.16405,0.03802
6306.09252,0.02974
6308.02098,0.01351
6309.94945,0.02025
6311.87792,0.04177
6313.80639,0.07674
6315.73486,0.11710
6317.66333,0.10604
6319.59180,0.05815
6321.52026,0.05469
6323.44873,0.09634
6325.37720,0.12024
6327.30567,0.09888
6329.23414,0.07290
6331.16261,0.08549
6333.09108,0.12322
6335.01955,0.14813
6336.94801,0.14192
6338.87648,0.12722
6340.80495,0.10590
6342.73342,0.07588
6344.66189,0.07449
6346.59036,0.11356
6348.51883,0.15889
6350.44729,0.15851
6352.37576,0.10516
6354.30423,0.08399
6356.23270,0.11032
6358.16117,0.13701
6360.08964,0.16603
6362.01811,0.18520
6363.94658,0.15460
6365.87504,0.09133
6367.80351,0.06059
6369.73198,0.07829
6371.66045,0.10742
6373.58892,0.12403
6375.51739,0.12172
6377.44586,0.09839
6379.37432,0.06678
6381.30279,0.06522
6383.23126,0.08753
6385.15973,0.09453
6387.08820,0.09779
6389.01667,0.09133
6390.94514,0.09347
6392.87361,0.14317
6394.80207,0.15170
6396.73054,0.06393
6398.65901,0.00137
6400.58748,0.02990
6402.51595,0.07717
6404.44442,0.11077
6406.37289,0.13133
6408.30135,0.10531
6410.22982,0.07915
6412.15829,0.10033
6414.08676,0.12427
6416.01523,0.12696
6417.94370,0.09761
6419.87217,0.04337
6421.80064,0.02633
6423.72910,0.04437
6425.65757,0.06291
6427.58604,0.07595
6429.51451,0.06468
6431.44298,0.04201
6433.37145,0.04812
6435.29992,0.04030
6437.22838,-0.03313
6439.15685,-0.08323
6441.08532,-0.02419
6443.01379,0.04637
6444.94226,0.02223
6446.87073,-0.02989
6448.79920,-0.02409
6450.72766,0.04601
6452.65613,0.11183
6454.58460,0.10823
6456.51307,0.04882
6458.44154,-0.00895
6460.37001,-0.03384
6462.29848,-0.02417
6464.22695,0.05011
6466.15541,0.17245
6468.08388,0.24041
6470.01235,0.22285
6471.94082,0.17728
6473.86929,0.11813
6475.79776,0.05177
6477.72623,0.02834
6479.65469,0.01758
6481.58316,-0.01216
6483.51163,-0.00522
6485.44010,0.02451
6487.36857,0.03742
6489.29704,0.03266
6491.22551,0.01766
6493.15398,0.02979
6495.08244,0.06217
6497.01091,0.04225
6498.93938,-0.00447
6500.86785,0.01597
6502.79632,0.08565
6504.72479,0.11190
6506.65326,0.09404
6508.58172,0.10112
6510.51019,0.12646
6512.43866,0.11498
6514.36713,0.07138
6516.29560,0.00356
6518.22407,-0.00950
6520.15254,0.06639
6522.08101,0.11841
6524.00947,0.07143
6525.93794,-0.04404
6527.86641,-0.13508
6529.79488,-0.12223
6531.72335,-0.02124
6533.65182,0.06102
6535.58029,0.07209
6537.50875,0.06378
6539.43722,0.09999
6541.36569,0.15990
6543.29416,0.15535
6545.22263,0.09442
6547.15110,0.04234
6549.07957,0.00527
6551.00804,0.01793
6552.93650,0.11371
6554.86497,0.22666
6556.79344,0.25362
6558.72191,0.19715
6560.65038,0.14286
6562.57885,0.09540
6564.50732,0.00184
6566.43578,-0.06016
6568.36425,0.01568
6570.29272,0.14665
6572.22119,0.21335
6574.14966,0.19637
6576.07813,0.14350
6578.00660,0.13788
6579.93507,0.18795
6581.86353,0.22800
6583.79200,0.23060
6585.72047,0.22664
6587.64894,0.22926
6589.57741,0.18124
6591.50588,0.10117
6593.43435,0.07170
6595.36281,0.08712
6597.29128,0.09478
6599.21975,0.08227
6601.14822,0.06910
6603.07669,0.07962
6605.00516,0.10069
6606.93363,0.11119
6608.86210,0.12933
6610.79056,0.17146
6612.71903,0.17370
6614.64750,0.13275
6616.57597,0.11869
6618.50444,0.09746
6620.43291,0.06570
6622.36138,0.05992
6624.28984,0.03027
6626.21831,0.00482
6628.14678,0.06986
6630.07525,0.13676
6632.00372,0.08900
6633.93219,0.01035
6635.86066,0.00121
6637.78912,0.04319
6639.71759,0.06497
6641.64606,0.05378
6643.57453,0.05180
6645.50300,0.10018
6647.43147,0.15980
6649.35994,0.15042
6651.28841,0.08791
6653.21687,0.05384
6655.14534,0.04371
6657.07381,0.04074
6659.00228,0.10397
6660.93075,0.14161
6662.85922,0.09648
6664.78769,0.06897
6666.71615,0.06366
6668.64462,0.06336
6670.57309,0.10337
6672.50156,0.15912
6674.43003,0.13278
6676.35850,0.01199
6678.28697,-0.07663
6680.21544,-0.07103
6682.14390,-0.02005
6684.07237,0.03832
6686.00084,0.06903
6687.92931,0.06924
6689.85778,0.05560
6691.78625,0.03801
6693.71472,0.02100
6695.64318,0.01370
6697.57165,0.03361
6699.50012,0.05393
6701.42859,0.07010
6703.35706,0.07884
6705.28553,0.04596
6707.21400,0.04393
6709.14247,0.11248
6711.07093,0.11403
6712.99940,0.02997
6714.92787,0.00536
6716.85634,0.04948
6718.78481,0.04489
6720.71328,-0.01897
6722.64175,-0.05032
6724.57021,0.00431
6726.49868,0.05920
6728.42715,0.07979
6730.35562,0.10902
6732.28409,0.09407
6734.21256,0.01052
6736.14103,-0.06498
6738.06950,-0.09663
6739.99796,-0.06016
6741.92643,0.01078
6743.85490,0.03255
6745.78337,0.06180
6747.71184,0.08754
6749.64031,0.02938
6751.56878,-0.04063
6753.49724,-0.08768
6755.42571,-0.15266
6757.35418,-0.18559
6759.28265,-0.14475
6761.21112,-0.04671
6763.13959,0.06155
6765.06806,0.11747
6766.99653,0.09523
6768.92499,0.02544
6770.85346,-0.03684
6772.78193,-0.03923
6774.71040,0.01726
6776.63887,0.07891
6778.56734,0.08332
6780.49581,0.05661
6782.42427,0.03198
6784.35274,0.02048
6786.28121,0.06243
6788.20968,0.14940
6790.13815,0.20529
6792.06662,0.15598
6793.99509,0.05501
6795.92355,0.02037
6797.85202,0.03938
6799.78049,0.02159
6801.70896,-0.00040
6803.63743,0.02029
6805.56590,0.02579
6807.49437,0.04746
6809.42284,0.10135
6811.35130,0.12770
6813.27977,0.12375
6815.20824,0.10466
6817.13671,0.06625
6819.06518,0.05699
6820.99365,0.11630
6822.92212,0.21935
6824.85058,0.24041
6826.77905,0.15847
6828.70752,0.07970
6830.63599,0.02444
6832.56446,-0.03329
6834.49293,-0.01693
6836.42140,0.10951
6838.34987,0.18410
6840.27833,0.16028
6842.20680,0.17026
6844.13527,0.19286
6846.06374,0.13717
6847.99221,0.05230
6849.92068,0.00714
6851.84915,-0.02256
6853.77761,-0.00422
6855.70608,0.07646
6857.63455,0.11480
6859.56302,0.10788
6861.49149,0.08776
6863.41996,0.04162
6865.34843,0.05838
6867.27690,0.12279
6869.20536,0.09892
6871.13383,0.03041
6873.06230,-0.00041
6874.99077,0.03445
6876.91924,0.12686
6878.84771,0.14896
6880.77618,0.04352
6882.70464,-0.03816
6884.63311,-0.04306
6886.56158,-0.04590
6888.49005,-0.10782
6890.41852,-0.18418
6892.34699,-0.18548
6894.27546,-0.08424
6896.20393,0.06751
6898.13239,0.18779
6900.06086,0.23352
6901.98933,0.18698
6903.91780,0.09048
6905.84627,0.00798
6907.77474,-0.08131
6909.70321,-0.14237
6911.63167,-0.12257
6913.56014,-0.01700
6915.48861,0.05928
6917.41708,0.00249
6919.34555,-0.05268
6921.27402,-0.00772
6923.20249,0.04805
6925.13096,0.09313
6927.05942,0.11817
6928.98789,0.09141
6930.91636,0.06724
6932.84483,0.11725
6934.77330,0.15343
6936.70177,0.16781
6938.63024,0.19605
6940.55870,0.13162
6942.48717,0.00531
6944.41564,-0.01458
6946.34411,0.01051
6948.27258,-0.02575
6950.20105,-0.03963
6952.12952,0.02007
6954.05799,0.12467
6955.98645,0.24623
6957.91492,0.29771
6959.84339,0.24534
6961.77186,0.14052
6963.70033,0.10580
6965.62880,0.11980
6967.55727,0.05108
6969.48573,-0.02983
6971.41420,0.05521
6973.34267,0.26170
6975.27114,0.33107
6977.19961,0.16713
6979.12808,-0.01321
6981.05655,-0.07791
6982.98501,-0.05065
6984.91348,-0.00421
6986.84195,0.02802
6988.77042,0.05065
6990.69889,0.07671
6992.62736,0.10898
6994.55583,0.09593
6996.48430,0.04868
6998.41276,0.07327
7000.34123,0.13895
7002.26970,0.12879
7004.19817,0.08770
7006.12664,0.07534
7008.05511,0.04329
7009.98358,0.01068
7011.91204,0.04615
7013.84051,0.10228
7015.76898,0.10343
7017.69745,0.07795
7019.62592,0.04961
7021.55439,0.01772
7023.48286,-0.00280
7025.41133,0.01108
7027.33979,0.04448
7029.26826,0.05133
7031.19673,0.06051
7033.12520,0.11309
7035.05367,0.14285
7036.98214,0.11756
7038.91061,0.10544
7040.83907,0.14188
7042.76754,0.15346
7044.69601,0.00424
7046.62448,-0.16251
7048.55295,-0.15291
7050.48142,-0.07407
7052.40989,0.00449
7054.33836,0.08471
7056.26682,0.09036
7058.19529,0.05509
7060.12376,0.04760
7062.05223,0.03412
7063.98070,0.01559
7065.90917,0.01230
7067.83764,0.07947
7069.76610,0.21405
7071.69457,0.23780
7073.62304,0.14593
7075.55151,0.07155
7077.47998,0.00315
7079.40845,-0.06396
7081.33692,-0.10639
7083.26539,-0.09825
7085.19385,-0.03280
7087.12232,0.02295
7089.05079,0.00625
7090.97926,-0.04005
7092.90773,-0.04798
7094.83620,0.02120
7096.76467,0.15638
7098.69313,0.28961
7100.62160,0.27923
7102.55007,0.13092
7104.47854,-0.02578
7106.40701,-0.15978
7108.33548,-0.28020
7110.26395,-0.27085
7112.19242,-0.17935
7114.12088,-0.16982
7116.04935,-0.15653
7117.97782,0.02070
7119.90629,0.18878
7121.83476,0.18644
7123.76323,0.09963
7125.69170,-0.03198
7127.62016,-0.15705
7129.54863,-0.17896
7131.47710,-0.07957
7133.40557,0.10690
7135.33404,0.26165
7137.26251,0.29659
7139.19098,0.18072
7141.11944,0.00275
7143.04791,-0.05739
7144.97638,-0.01956
7146.90485,0.03315
7148.83332,0.08510
7150.76179,0.13002
7152.69026,0.13558
7154.61873,0.00616
7156.54719,-0.14567
7158.47566,-0.12780
7160.40413,-0.05934
7162.33260,-0.13009
7164.26107,-0.24102
7166.18954,-0.20725
7168.11801,-0.09629
7170.04647,-0.05276
7171.97494,-0.10401
7173.90341,-0.05943
7175.83188,0.14967
7177.76035,0.27193
7179.68882,0.14900
7181.61729,-0.01854
7183.54576,-0.06471
7185.47422,-0.05639
7187.40269,-0.00499
7189.33116,0.06488
7191.25963,0.07204
7193.18810,0.03828
7195.11657,-0.02082
7197.04504,-0.08508
7198.97350,-0.08222
7200.90197,-0.00962
7202.83044,0.03443
7204.75891,0.01758
7206.68738,0.04518
7208.61585,0.05928
7210.54432,-0.04440
7212.47279,-0.14469
7214.40125,-0.13412
7216.32972,-0.07694
7218.25819,-0.00283
7220.18666,0.07379
7222.11513,0.13426
7224.04360,0.16860
7225.97207,0.13728
7227.90053,0.10850
7229.82900,0.15438
7231.75747,0.14854
7233.68594,0.08865
7235.61441,0.14971
7237.54288,0.25237
7239.47135,0.23483
7241.39982,0.10573
7243.32828,-0.03532
7245.25675,-0.07769
7247.18522,-0.08801
7249.11369,-0.11454
7251.04216,-0.09643
7252.97063,0.03877
7254.89910,0.13452
7256.82756,0.13144
7258.75603,0.17763
7260.68450,0.30647
7262.61297,0.40079
7264.54144,0.34568
7266.46991,0.25354
7268.39838,0.28664
7270.32685,0.36193
7272.25531,0.28862
7274.18378,0.12405
7276.11225,0.00306
7278.04072,-0.13412
7279.96919,-0.25306
7281.89766,-0.22987
7283.82613,-0.11232
7285.75459,-0.00180
7287.68306,0.01725
7289.61153,-0.02156
7291.54000,-0.02466
7293.46847,-0.00928
7295.39694,0.03837
7297.32541,0.19682
7299.25387,0.34368
7301.18234,0.32515
7303.11081,0.26640
7305.03928,0.30024
7306.96775,0.22226
7308.89622,-0.03466
7310.82469,-0.22709
7312.75316,-0.28996
7314.68162,-0.25642
7316.61009,-0.15551
7318.53856,-0.06338
7320.46703,-0.05251
7322.39550,-0.06835
7324.32397,-0.04535
7326.25244,-0.07559
7328.18090,-0.15095
7330.10937,-0.11668
7332.03784,0.00385
7333.96631,0.10651
7335.89478,0.16709
7337.82325,0.16060
7339.75172,0.16244
7341.68019,0.32801
7343.60865,0.46385
7345.53712,0.47464
7347.46559,0.32549
7349.39406,0.10340
7351.32253,-0.02067
7353.25100,-0.00161
7355.17947,-0.02428
7357.10793,-0.05951
7359.03640,0.16561
7360.96487,0.38439
7362.89334,0.28516
7364.82181,0.09940
7366.75028,-0.12403
7368.67875,-0.27028
7370.60722,-0.09113
7372.53568,0.21483
7374.46415,0.37692
7376.39262,0.26425
7378.32109,0.10471
7380.24956,-0.04154
7382.17803,-0.07699
7384.10650,-0.00108
7386.03496,-0.04566
7387.96343,-0.15407
7389.89190,-0.12538
7391.82037,0.04179
7393.74884,0.22097
7395.67731,0.17110
7397.60578,0.02873
7399.53425,0.05853
7401.46271,0.08591
7403.39118,-0.01128
7405.31965,-0.14669
7407.24812,-0.33765
7409.17659,-0.40926
7411.10506,-0.15912
7413.03353,0.10632
7414.96199,0.10930
7416.89046,-0.06860
7418.81893,-0.18492
7420.74740,-0.22334
7422.67587,-0.26811
7424.60434,-0.18846
7426.53281,-0.00938
7428.46128,0.18620
7430.38974,0.30147
7432.31821,0.28220
7434.24668,0.24300
7436.17515,0.23311
7438.10362,0.22307
7440.03209,0.20684
7441.96056,0.24491
7443.88902,0.26020
7445.81749,0.20280
7447.74596,0.16060
7449.67443,0.13175
7451.60290,0.04567
7453.53137,-0.05596
7455.45984,-0.10124
7457.38831,-0.12802
7459.31677,-0.09574
7461.24524,-0.01413
7463.17371,-0.03606
7465.10218,-0.08199
7467.03065,-0.00365
7468.95912,0.13941
7470.88759,0.22164
7472.81605,0.25797
7474.74452,0.34592
7476.67299,0.50699
7478.60146,0.61036
7480.52993,0.46736
7482.45840,0.25369
7484.38687,0.16357
7486.31533,0.01614
7488.24380,-0.24786
7490.17227,-0.35172
7492.10074,-0.11597
7494.02921,0.18961
7495.95768,0.38222
7497.88615,0.47954
