399.19301,-0.76358
401.12148,0.20480
403.04995,0.12070
404.97842,0.36875
406.90689,0.93490
408.83536,1.41537
410.76382,1.99924
412.69229,3.76714
414.62076,6.35036
416.54923,7.41566
418.47770,4.99342
420.40617,2.13741
422.33464,1.64957
424.26311,1.26483
426.19157,0.73405
428.12004,0.45906
430.04851,0.18919
431.97698,0.05651
433.90545,0.18198
435.83392,0.14263
437.76239,-0.03743
439.69085,-0.10486
441.61932,-0.08776
443.54779,-0.13160
445.47626,-0.19609
447.40473,-0.17491
449.33320,-0.10339
451.26167,-0.07085
453.19013,-0.08081
455.11860,-0.06674
457.04707,-0.00338
458.97554,0.03518
460.90401,0.00356
462.83248,-0.04246
464.76095,-0.08778
466.68942,-0.08920
468.61788,-0.00604
470.54635,0.05745
472.47482,-0.32978
474.40329,-1.18390
476.33176,-0.95383
478.26023,-0.24470
480.18870,0.09348
482.11716,0.18112
484.04563,0.17689
485.97410,0.10019
487.90257,0.06528
489.83104,0.09932
491.75951,0.13756
493.68798,0.12428
495.61645,0.09255
497.54491,0.09536
499.47338,0.12235
501.40185,0.15919
503.33032,0.17199
505.25879,0.13633
507.18726,0.08118
509.11573,0.04059
511.04419,0.00656
512.97266,-0.02163
514.90113,-0.01018
516.82960,0.04031
518.75807,0.08131
520.68654,0.11184
522.61501,0.14575
524.54348,0.16273
526.47194,0.15010
528.40041,0.12864
530.32888,0.13234
532.25735,0.14862
534.18582,0.15993
536.11429,0.16257
538.04276,0.13272
539.97122,0.09172
541.89969,0.07583
543.82816,0.07983
545.75663,0.08607
547.68510,0.11323
549.61357,0.17336
551.54204,0.24977
553.47051,0.30483
555.39897,0.27184
557.32744,0.19009
559.25591,0.15495
561.18438,0.15383
563.11285,0.17704
565.04132,0.21893
566.96979,0.21730
568.89825,0.17591
570.82672,0.15706
572.75519,0.15419
574.68366,0.13188
576.61213,0.10696
578.54060,0.11223
580.46907,0.13689
582.39754,0.14800
584.32600,0.14039
586.25447,0.14195
588.18294,0.15506
590.11141,0.14897
592.03988,0.12882
593.96835,0.11958
595.89682,0.10669
597.82528,0.09168
599.75375,0.10274
601.68222,0.12230
603.61069,0.11766
605.53916,0.10591
607.46763,0.10772
609.39610,0.11251
611.32456,0.12114
613.25303,0.14293
615.18150,0.16182
617.10997,0.16195
619.03844,0.14463
620.96691,0.12724
622.89538,0.12562
624.82385,0.12489
626.75231,0.11981
628.68078,0.13345
630.60925,0.17631
632.53772,0.21701
634.46619,0.20152
636.39466,0.15428
638.32313,0.14405
640.25159,0.16314
642.18006,0.16855
644.10853,0.15904
646.03700,0.14686
647.96547,0.13147
649.89394,0.11354
651.82241,0.10417
653.75088,0.11034
655.67934,0.12644
657.60781,0.14135
659.53628,0.14258
661.46475,0.12691
663.39322,0.11484
665.32169,0.11948
667.25016,0.13121
669.17862,0.13911
671.10709,0.14042
673.03556,0.13049
674.96403,0.10785
676.89250,0.09368
678.82097,0.10460
680.74944,0.12171
682.67791,0.13286
684.60637,0.14859
686.53484,0.16390
688.46331,0.17321
690.39178,0.17440
692.32025,0.16189
694.24872,0.15258
696.17719,0.15220
698.10565,0.15035
700.03412,0.15294
701.96259,0.15537
703.89106,0.15006
705.81953,0.14932
707.74800,0.14997
709.67647,0.14116
711.60494,0.14168
713.53340,0.15902
715.46187,0.16730
717.39034,0.15599
719.31881,0.13770
721.24728,0.12577
723.17575,0.12536
725.10422,0.13067
727.03268,0.13365
728.96115,0.13093
730.88962,0.13133
732.81809,0.14313
734.74656,0.14898
736.67503,0.13777
738.60350,0.13073
740.53197,0.13792
742.46043,0.14765
744.38890,0.15426
746.31737,0.15591
748.24584,0.15433
750.17431,0.14820
752.10278,0.13663
754.03125,0.13836
755.95971,0.15320
757.88818,0.15766
759.81665,0.15417
761.74512,0.14799
763.67359,0.13786
765.60206,0.13433
767.53053,0.13697
769.45900,0.14054
771.38746,0.14343
773.31593,0.13915
775.24440,0.13113
777.17287,0.12999
779.10134,0.14076
781.02981,0.15969
782.95828,0.17256
784.88674,0.16842
786.81521,0.15260
788.74368,0.14045
790.67215,0.14128
792.60062,0.14731
794.52909,0.14177
796.45756,0.12372
798.38602,0.11477
800.31449,0.12431
802.24296,0.13790
804.17143,0.14864
806.09990,0.15716
808.02837,0.15852
809.95684,0.15109
811.88531,0.13920
813.81377,0.13482
815.74224,0.14193
817.67071,0.14699
819.59918,0.14925
821.52765,0.15562
823.45612,0.15632
825.38459,0.15165
827.31305,0.15016
829.24152,0.14915
831.16999,0.15076
833.09846,0.15389
835.02693,0.14974
836.95540,0.14543
838.88387,0.15340
840.81234,0.16045
842.74080,0.15092
844.66927,0.13751
846.59774,0.14013
848.52621,0.15211
850.45468,0.15334
852.38315,0.14823
854.31162,0.14654
856.24008,0.14464
858.16855,0.14665
860.09702,0.15594
862.02549,0.16511
863.95396,0.17344
865.88243,0.18196
867.81090,0.18411
869.73937,0.18179
871.66783,0.17396
873.59630,0.15986
875.52477,0.15422
877.45324,0.15636
879.38171,0.15210
881.31018,0.13970
883.23865,0.12887
885.16711,0.13152
887.09558,0.14439
889.02405,0.15087
890.95252,0.14997
892.88099,0.15235
894.80946,0.15539
896.73793,0.15398
898.66640,0.15336
900.59486,0.15766
902.52333,0.16451
904.45180,0.17005
906.38027,0.17261
908.30874,0.16995
910.23721,0.16008
912.16568,0.14418
914.09414,0.13372
916.02261,0.14386
917.95108,0.16159
919.87955,0.16209
921.80802,0.14969
923.73649,0.14232
925.66496,0.14502
927.59343,0.14891
929.52189,0.14641
931.45036,0.14140
933.37883,0.13762
935.30730,0.13581
937.23577,0.13941
939.16424,0.14694
941.09271,0.15371
943.02117,0.16026
944.94964,0.16234
946.87811,0.15440
948.80658,0.14367
950.73505,0.14125
952.66352,0.14986
954.59199,0.16107
956.52045,0.16472
958.44892,0.16188
960.37739,0.15912
962.30586,0.15860
964.23433,0.15855
966.16280,0.16021
968.09127,0.16380
970.01974,0.16231
971.94820,0.15794
973.87667,0.15880
975.80514,0.16059
977.73361,0.15703
979.66208,0.14994
981.59055,0.14827
983.51902,0.15382
985.44748,0.15781
987.37595,0.16059
989.30442,0.16756
991.23289,0.17279
993.16136,0.16868
995.08983,0.16211
997.01830,0.15989
998.94677,0.15713
1000.87523,0.15350
1002.80370,0.15315
1004.73217,0.15618
1006.66064,0.16082
1008.58911,0.16405
1010.51758,0.16463
1012.44605,0.16294
1014.37451,0.15824
1016.30298,0.15387
1018.23145,0.15802
1020.15992,0.16629
1022.08839,0.16327
1024.01686,0.15347
1025.94533,0.15464
1027.87380,0.16489
1029.80226,0.16468
1031.73073,0.15226
1033.65920,0.14752
1035.58767,0.15320
1037.51614,0.15881
1039.44461,0.16154
1041.37308,0.16029
1043.30154,0.15856
1045.23001,0.16428
1047.15848,0.17292
1049.08695,0.17316
1051.01542,0.16578
1052.94389,0.15906
1054.87236,0.15837
1056.80083,0.16165
1058.72929,0.16560
1060.65776,0.17174
1062.58623,0.17909
1064.51470,0.18311
1066.44317,0.17959
1068.37164,0.17229
1070.30011,0.17352
1072.22857,0.18196
1074.15704,0.18205
1076.08551,0.17431
1078.01398,0.17063
1079.94245,0.16563
1081.87092,0.15204
1083.79939,0.14776
1085.72786,0.16024
1087.65632,0.16989
1089.58479,0.17025
1091.51326,0.16747
1093.44173,0.16644
1095.37020,0.16877
1097.29867,0.17279
1099.22714,0.17640
1101.15560,0.17546
1103.08407,0.17547
1105.01254,0.18273
1106.94101,0.18706
1108.86948,0.18158
1110.79795,0.17517
1112.72642,0.17411
1114.65489,0.17768
1116.58335,0.18214
1118.51182,0.17966
1120.44029,0.17014
1122.36876,0.16214
1124.29723,0.16289
1126.22570,0.16931
1128.15417,0.17308
1130.08263,0.17348
1132.01110,0.17083
1133.93957,0.16457
1135.86804,0.16076
1137.79651,0.16530
1139.72498,0.17315
1141.65345,0.17483
1143.58191,0.16858
1145.51038,0.16373
1147.43885,0.16800
1149.36732,0.17165
1151.29579,0.16847
1153.22426,0.16970
1155.15273,0.17824
1157.08120,0.18553
1159.00966,0.18571
1160.93813,0.17797
1162.86660,0.16969
1164.79507,0.16870
1166.72354,0.17164
1168.65201,0.17054
1170.58048,0.16659
1172.50894,0.16499
1174.43741,0.16398
1176.36588,0.16441
1178.29435,0.16888
1180.22282,0.17344
1182.15129,0.17630
1184.07976,0.18061
1186.00823,0.18566
1187.93669,0.18344
1189.86516,0.17407
1191.79363,0.16858
1193.72210,0.16930
1195.65057,0.17163
1197.57904,0.17267
1199.50751,0.17088
1201.43597,0.16774
1203.36444,0.16507
1205.29291,0.16442
1207.22138,0.16744
1209.14985,0.17158
1211.07832,0.17398
1213.00679,0.17588
1214.93526,0.17609
1216.86372,0.17433
1218.79219,0.17546
1220.72066,0.17889
1222.64913,0.18111
1224.57760,0.18024
1226.50607,0.17377
1228.43454,0.16769
1230.36300,0.16912
1232.29147,0.17420
1234.21994,0.17843
1236.14841,0.17900
1238.07688,0.17492
1240.00535,0.17138
1241.93382,0.17057
1243.86229,0.17044
1245.79075,0.17147
1247.71922,0.17320
1249.64769,0.17317
1251.57616,0.17245
1253.50463,0.17387
1255.43310,0.17579
1257.36157,0.17581
1259.29003,0.17653
1261.21850,0.18034
1263.14697,0.18229
1265.07544,0.17906
1267.00391,0.17564
1268.93238,0.17473
1270.86085,0.17698
1272.78932,0.18303
1274.71778,0.18757
1276.64625,0.18728
1278.57472,0.18485
1280.50319,0.18262
1282.43166,0.18147
1284.36013,0.18120
1286.28860,0.18210
1288.21706,0.18382
1290.14553,0.18498
1292.07400,0.18589
1294.00247,0.18463
1295.93094,0.18138
1297.85941,0.17991
1299.78788,0.17768
1301.71634,0.17053
1303.64481,0.16273
1305.57328,0.16486
1307.50175,0.17645
1309.43022,0.18382
1311.35869,0.18387
1313.28716,0.18337
1315.21563,0.18477
1317.14409,0.18765
1319.07256,0.18796
1321.00103,0.18434
1322.92950,0.18212
1324.85797,0.18158
1326.78644,0.18209
1328.71491,0.18366
1330.64337,0.18129
1332.57184,0.17745
1334.50031,0.17740
1336.42878,0.17970
1338.35725,0.18413
1340.28572,0.18770
1342.21419,0.19035
1344.14266,0.19272
1346.07112,0.18792
1347.99959,0.17997
1349.92806,0.17610
1351.85653,0.17440
1353.78500,0.17576
1355.71347,0.17965
1357.64194,0.18351
1359.57040,0.18712
1361.49887,0.18872
1363.42734,0.18491
1365.35581,0.18038
1367.28428,0.18182
1369.21275,0.18543
1371.14122,0.18764
1373.06969,0.19125
1374.99815,0.19405
1376.92662,0.19091
1378.85509,0.18465
1380.78356,0.18072
1382.71203,0.18293
1384.64050,0.18900
1386.56897,0.19075
1388.49743,0.18792
1390.42590,0.18781
1392.35437,0.19029
1394.28284,0.19311
1396.21131,0.19436
1398.13978,0.19295
1400.06825,0.19005
1401.99672,0.18943
1403.92518,0.19223
1405.85365,0.19416
1407.78212,0.19178
1409.71059,0.18964
1411.63906,0.19163
1413.56753,0.19527
1415.49600,0.19962
1417.42446,0.20525
1419.35293,0.20799
1421.28140,0.20759
1423.20987,0.20683
1425.13834,0.20293
1427.06681,0.19895
1428.99528,0.19799
1430.92375,0.19558
1432.85221,0.19200
1434.78068,0.19096
1436.70915,0.19200
1438.63762,0.19399
1440.56609,0.19661
1442.49456,0.19856
1444.42303,0.19840
1446.35149,0.19691
1448.27996,0.19693
1450.20843,0.19857
1452.13690,0.19869
1454.06537,0.19838
1455.99384,0.20314
1457.92231,0.21181
1459.85077,0.20950
1461.77924,0.20364
1463.70771,0.20065
1465.63618,0.19890
1467.56465,0.20019
1469.49312,0.20939
1471.42159,0.22530
1473.35006,0.23179
1475.27852,0.22215
1477.20699,0.21229
1479.13546,0.20556
1481.06393,0.20244
1482.99240,0.20307
1484.92087,0.20572
1486.84934,0.21013
1488.77780,0.21583
1490.70627,0.21432
1492.63474,0.20517
1494.56321,0.20085
1496.49168,0.20770
1498.42015,0.21576
1500.34862,0.21311
1502.27709,0.20802
1504.20555,0.21087
1506.13402,0.23091
1508.06249,0.23795
1509.99096,0.21762
1511.91943,0.20655
1513.84790,0.20791
1515.77637,0.21670
1517.70483,0.22470
1519.63330,0.22815
1521.56177,0.23045
1523.49024,0.23010
1525.41871,0.22819
1527.34718,0.22147
1529.27565,0.21442
1531.20412,0.21616
1533.13258,0.22174
1535.06105,0.21954
1536.98952,0.22038
1538.91799,0.23816
1540.84646,0.25511
1542.77493,0.23996
1544.70340,0.21791
1546.63186,0.20357
1548.56033,0.20073
1550.48880,0.20454
1552.41727,0.21044
1554.34574,0.21774
1556.27421,0.22902
1558.20268,0.24428
1560.13115,0.22965
1562.05961,0.21031
1563.98808,0.20542
1565.91655,0.20790
1567.84502,0.21500
1569.77349,0.21645
1571.70196,0.20730
1573.63043,0.20518
1575.55889,0.21049
1577.48736,0.20548
1579.41583,0.19778
1581.34430,0.19812
1583.27277,0.19859
1585.20124,0.19524
1587.12971,0.19266
1589.05818,0.19005
1590.98664,0.18731
1592.91511,0.18823
1594.84358,0.18996
1596.77205,0.18892
1598.70052,0.18733
1600.62899,0.18775
1602.55746,0.19139
1604.48592,0.19435
1606.41439,0.19396
1608.34286,0.19498
1610.27133,0.19634
1612.19980,0.19559
1614.12827,0.19919
1616.05674,0.20974
1617.98521,0.21494
1619.91367,0.21363
1621.84214,0.21540
1623.77061,0.21602
1625.69908,0.21181
1627.62755,0.20852
1629.55602,0.20710
1631.48449,0.20704
1633.41295,0.21269
1635.34142,0.22712
1637.26989,0.22858
1639.19836,0.21675
1641.12683,0.21254
1643.05530,0.21839
1644.98377,0.22922
1646.91223,0.23673
1648.84070,0.23598
1650.76917,0.23984
1652.69764,0.25028
1654.62611,0.24035
1656.55458,0.22424
1658.48305,0.21725
1660.41152,0.21726
1662.33998,0.22003
1664.26845,0.21706
1666.19692,0.21290
1668.12539,0.21710
1670.05386,0.22658
1671.98233,0.22997
1673.91080,0.23050
1675.83926,0.22678
1677.76773,0.21931
1679.69620,0.21711
1681.62467,0.22279
1683.55314,0.22894
1685.48161,0.22201
1687.41008,0.21683
1689.33855,0.21807
1691.26701,0.21830
1693.19548,0.22029
1695.12395,0.23021
1697.05242,0.24032
1698.98089,0.23962
1700.90936,0.23207
1702.83783,0.22885
1704.76629,0.23200
1706.69476,0.22869
1708.62323,0.21421
1710.55170,0.20161
1712.48017,0.19976
1714.40864,0.21087
1716.33711,0.22756
1718.26558,0.22918
1720.19404,0.21839
1722.12251,0.20994
1724.05098,0.20594
1725.97945,0.20554
1727.90792,0.20773
1729.83639,0.21303
1731.76486,0.22093
1733.69332,0.22412
1735.62179,0.21485
1737.55026,0.20908
1739.47873,0.21164
1741.40720,0.21534
1743.33567,0.21636
1745.26414,0.21644
1747.19261,0.21751
1749.12107,0.21757
1751.04954,0.21048
1752.97801,0.20404
1754.90648,0.20429
1756.83495,0.20368
1758.76342,0.19933
1760.69189,0.19733
1762.62035,0.19823
1764.54882,0.19937
1766.47729,0.20119
1768.40576,0.20364
1770.33423,0.20808
1772.26270,0.21362
1774.19117,0.21176
1776.11964,0.20604
1778.04810,0.20270
1779.97657,0.20192
1781.90504,0.20343
1783.83351,0.20528
1785.76198,0.20398
1787.69045,0.20220
1789.61892,0.20737
1791.54738,0.21987
1793.47585,0.22451
1795.40432,0.21598
1797.33279,0.20665
1799.26126,0.20413
1801.18973,0.20843
1803.11820,0.21169
1805.04666,0.20942
1806.97513,0.20553
1808.90360,0.20447
1810.83207,0.20432
1812.76054,0.20353
1814.68901,0.20427
1816.61748,0.20666
1818.54595,0.21175
1820.47441,0.21584
1822.40288,0.21394
1824.33135,0.21032
1826.25982,0.21011
1828.18829,0.21200
1830.11676,0.21189
1832.04523,0.20908
1833.97369,0.20735
1835.90216,0.20685
1837.83063,0.20529
1839.75910,0.20310
1841.68757,0.20593
1843.61604,0.21444
1845.54451,0.21508
1847.47298,0.20721
1849.40144,0.20253
1851.32991,0.20181
1853.25838,0.20195
1855.18685,0.20179
1857.11532,0.19985
1859.04379,0.19622
1860.97226,0.19466
1862.90072,0.19689
1864.82919,0.20178
1866.75766,0.20996
1868.68613,0.21571
1870.61460,0.21019
1872.54307,0.20217
1874.47154,0.20015
1876.40001,0.20310
1878.32847,0.20683
1880.25694,0.20737
1882.18541,0.20528
1884.11388,0.20462
1886.04235,0.20578
1887.97082,0.20701
1889.89929,0.20675
1891.82775,0.20543
1893.75622,0.20580
1895.68469,0.20676
1897.61316,0.20599
1899.54163,0.20400
1901.47010,0.20153
1903.39857,0.20053
1905.32704,0.20213
1907.25550,0.20454
1909.18397,0.20680
1911.11244,0.20704
1913.04091,0.20466
1914.96938,0.20277
1916.89785,0.20251
1918.82632,0.20313
1920.75478,0.20366
1922.68325,0.20305
1924.61172,0.20255
1926.54019,0.20419
1928.46866,0.20668
1930.39713,0.20758
1932.32560,0.20574
1934.25407,0.20199
1936.18253,0.19858
1938.11100,0.19748
1940.03947,0.20083
1941.96794,0.20762
1943.89641,0.21230
1945.82488,0.21094
1947.75335,0.20575
1949.68181,0.20287
1951.61028,0.20428
1953.53875,0.20627
1955.46722,0.20562
1957.39569,0.20322
1959.32416,0.20196
1961.25263,0.20296
1963.18110,0.20488
1965.10956,0.20518
1967.03803,0.20491
1968.96650,0.20595
1970.89497,0.20612
1972.82344,0.20599
1974.75191,0.20666
1976.68038,0.20311
1978.60884,0.19664
1980.53731,0.19768
1982.46578,0.20281
1984.39425,0.20292
1986.32272,0.20214
1988.25119,0.20355
1990.17966,0.20454
1992.10812,0.20445
1994.03659,0.20371
1995.96506,0.20358
1997.89353,0.20459
1999.82200,0.20487
2001.75047,0.20351
2003.67894,0.20266
2005.60741,0.20297
2007.53587,0.20372
2009.46434,0.20544
2011.39281,0.20694
2013.32128,0.20578
2015.24975,0.20413
2017.17822,0.20521
2019.10669,0.20629
2021.03515,0.20522
2022.96362,0.20336
2024.89209,0.20225
2026.82056,0.20272
2028.74903,0.20356
2030.67750,0.20429
2032.60597,0.20580
2034.53444,0.20655
2036.46290,0.20480
2038.39137,0.20319
2040.31984,0.20381
2042.24831,0.20482
2044.17678,0.20537
2046.10525,0.20632
2048.03372,0.20694
2049.96218,0.20586
2051.89065,0.20376
2053.81912,0.20194
2055.74759,0.20267
2057.67606,0.20657
2059.60453,0.20844
2061.53300,0.20636
2063.46147,0.20477
2065.38993,0.20520
2067.31840,0.20596
2069.24687,0.20649
2071.17534,0.20750
2073.10381,0.20911
2075.03228,0.20892
2076.96075,0.20728
2078.88921,0.20729
2080.81768,0.20728
2082.74615,0.20645
2084.67462,0.20740
2086.60309,0.20877
2088.53156,0.20853
2090.46003,0.20912
2092.38850,0.21078
2094.31696,0.21024
2096.24543,0.20794
2098.17390,0.20572
2100.10237,0.20414
2102.03084,0.20421
2103.95931,0.20570
2105.88778,0.20706
2107.81624,0.20703
2109.74471,0.20520
2111.67318,0.20341
2113.60165,0.20390
2115.53012,0.20499
2117.45859,0.20459
2119.38706,0.20471
2121.31553,0.20706
2123.24399,0.20891
2125.17246,0.20818
2127.10093,0.20646
2129.02940,0.20555
2130.95787,0.20498
2132.88634,0.20062
2134.81481,0.19472
2136.74327,0.19518
2138.67174,0.20044
2140.60021,0.20554
2142.52868,0.20727
2144.45715,0.20467
2146.38562,0.20240
2148.31409,0.20239
2150.24255,0.20320
2152.17102,0.20483
2154.09949,0.20645
2156.02796,0.20559
2157.95643,0.20272
2159.88490,0.20282
2161.81337,0.20675
2163.74184,0.20895
2165.67030,0.20709
2167.59877,0.20497
2169.52724,0.20544
2171.45571,0.20640
2173.38418,0.20571
2175.31265,0.20527
2177.24112,0.20567
2179.16958,0.20451
2181.09805,0.20226
2183.02652,0.20110
2184.95499,0.20161
2186.88346,0.20382
2188.81193,0.20558
2190.74040,0.20567
2192.66887,0.20606
2194.59733,0.20673
2196.52580,0.20626
2198.45427,0.20421
2200.38274,0.20278
2202.31121,0.20460
2204.23968,0.20650
2206.16815,0.20528
2208.09661,0.20385
2210.02508,0.20453
2211.95355,0.20469
2213.88202,0.20304
2215.81049,0.20172
2217.73896,0.20098
2219.66743,0.20078
2221.59590,0.20209
2223.52436,0.20458
2225.45283,0.20824
2227.38130,0.21165
2229.30977,0.21135
2231.23824,0.20765
2233.16671,0.20419
2235.09518,0.20342
2237.02364,0.20538
2238.95211,0.20661
2240.88058,0.20525
2242.80905,0.20434
2244.73752,0.20393
2246.66599,0.20222
2248.59446,0.20148
2250.52293,0.20268
2252.45139,0.20474
2254.37986,0.20638
2256.30833,0.20582
2258.23680,0.20479
2260.16527,0.20538
2262.09374,0.20595
2264.02221,0.20621
2265.95067,0.20835
2267.87914,0.21160
2269.80761,0.21170
2271.73608,0.20777
2273.66455,0.20457
2275.59302,0.20491
2277.52149,0.20488
2279.44996,0.20214
2281.37842,0.20090
2283.30689,0.20309
2285.23536,0.20427
2287.16383,0.20108
2289.09230,0.19740
2291.02077,0.19796
2292.94924,0.20163
2294.87770,0.20479
2296.80617,0.20428
2298.73464,0.20160
2300.66311,0.20144
2302.59158,0.20312
2304.52005,0.20311
2306.44852,0.20154
2308.37699,0.20129
2310.30545,0.20476
2312.23392,0.21072
2314.16239,0.21389
2316.09086,0.21279
2318.01933,0.21132
2319.94780,0.21254
2321.87627,0.21859
2323.80473,0.22039
2325.73320,0.20810
2327.66167,0.19627
2329.59014,0.19619
2331.51861,0.19977
2333.44708,0.19529
2335.37555,0.18205
2337.30401,0.17711
2339.23248,0.18889
2341.16095,0.20866
2343.08942,0.22379
2345.01789,0.22283
2346.94636,0.21427
2348.87483,0.21146
2350.80330,0.21827
2352.73176,0.23269
2354.66023,0.23968
2356.58870,0.22708
2358.51717,0.20850
2360.44564,0.20487
2362.37411,0.21000
2364.30258,0.20375
2366.23104,0.19356
2368.15951,0.19801
2370.08798,0.21407
2372.01645,0.22458
2373.94492,0.21945
2375.87339,0.20839
2377.80186,0.20387
2379.73033,0.20412
2381.65879,0.20380
2383.58726,0.20121
2385.51573,0.19826
2387.44420,0.19879
2389.37267,0.20125
2391.30114,0.20197
2393.22961,0.20317
2395.15807,0.20540
2397.08654,0.20449
2399.01501,0.20124
2400.94348,0.19959
2402.87195,0.20008
2404.80042,0.20212
2406.72889,0.20490
2408.65736,0.20670
2410.58582,0.20583
2412.51429,0.20345
2414.44276,0.20402
2416.37123,0.20781
2418.29970,0.20998
2420.22817,0.20899
2422.15664,0.20654
2424.08510,0.20334
2426.01357,0.20064
2427.94204,0.20116
2429.87051,0.20525
2431.79898,0.20847
2433.72745,0.20823
2435.65592,0.20741
2437.58439,0.20713
2439.51285,0.20691
2441.44132,0.20740
2443.36979,0.20793
2445.29826,0.20853
2447.22673,0.20986
2449.15520,0.21124
2451.08367,0.20934
2453.01213,0.20436
2454.94060,0.20418
2456.86907,0.20702
2458.79754,0.20472
2460.72601,0.20246
2462.65448,0.20553
2464.58295,0.20873
2466.51142,0.21031
2468.43988,0.21206
2470.36835,0.21083
2472.29682,0.20682
2474.22529,0.20511
2476.15376,0.20544
2478.08223,0.20544
2480.01070,0.20501
2481.93916,0.20418
2483.86763,0.20376
2485.79610,0.20460
2487.72457,0.20546
2489.65304,0.20457
2491.58151,0.20295
2493.50998,0.20327
2495.43844,0.20631
2497.36691,0.20896
2499.29538,0.20851
2501.22385,0.20760
2503.15232,0.20816
2505.08079,0.20795
2507.00926,0.20629
2508.93773,0.20600
2510.86619,0.20791
2512.79466,0.20885
2514.72313,0.20715
2516.65160,0.20506
2518.58007,0.20580
2520.50854,0.20881
2522.43701,0.21029
2524.36547,0.20880
2526.29394,0.20681
2528.22241,0.20719
2530.15088,0.20866
2532.07935,0.20837
2534.00782,0.20680
2535.93629,0.20636
2537.86476,0.20765
2539.79322,0.20862
2541.72169,0.20752
2543.65016,0.20613
2545.57863,0.20786
2547.50710,0.21083
2549.43557,0.21027
2551.36404,0.20715
2553.29250,0.20559
2555.22097,0.20697
2557.14944,0.21002
2559.07791,0.21234
2561.00638,0.21300
2562.93485,0.21316
2564.86332,0.21198
2566.79179,0.20900
2568.72025,0.20708
2570.64872,0.20733
2572.57719,0.20898
2574.50566,0.21184
2576.43413,0.21456
2578.36260,0.21512
2580.29107,0.21320
2582.21953,0.21100
2584.14800,0.21100
2586.07647,0.21100
2588.00494,0.20876
2589.93341,0.20818
2591.86188,0.21084
2593.79035,0.21251
2595.71882,0.21037
2597.64728,0.20715
2599.57575,0.20674
2601.50422,0.20764
2603.43269,0.20773
2605.36116,0.20768
2607.28963,0.20835
2609.21810,0.21010
2611.14656,0.21308
2613.07503,0.21617
2615.00350,0.21552
2616.93197,0.21179
2618.86044,0.20865
2620.78891,0.20548
2622.71738,0.20380
2624.64585,0.20645
2626.57431,0.20944
2628.50278,0.20861
2630.43125,0.20747
2632.35972,0.20951
2634.28819,0.21195
2636.21666,0.21114
2638.14513,0.20907
2640.07359,0.21038
2642.00206,0.21312
2643.93053,0.21241
2645.85900,0.21022
2647.78747,0.21170
2649.71594,0.21451
2651.64441,0.21411
2653.57288,0.21420
2655.50134,0.21585
2657.42981,0.21443
2659.35828,0.21120
2661.28675,0.21029
2663.21522,0.21101
2665.14369,0.21048
2667.07216,0.20867
2669.00062,0.20723
2670.92909,0.20843
2672.85756,0.21318
2674.78603,0.21696
2676.71450,0.21629
2678.64297,0.21546
2680.57144,0.21898
2682.49990,0.22203
2684.42837,0.21954
2686.35684,0.21626
2688.28531,0.21579
2690.21378,0.21562
2692.14225,0.21490
2694.07072,0.21501
2695.99919,0.21559
2697.92765,0.21389
2699.85612,0.21019
2701.78459,0.20794
2703.71306,0.20873
2705.64153,0.21270
2707.57000,0.21740
2709.49847,0.21908
2711.42693,0.21889
2713.35540,0.22081
2715.28387,0.22172
2717.21234,0.21708
2719.14081,0.21299
2721.06928,0.21520
2722.99775,0.21930
2724.92622,0.22029
2726.85468,0.21870
2728.78315,0.21696
2730.71162,0.21622
2732.64009,0.21639
2734.56856,0.21739
2736.49703,0.21904
2738.42550,0.22055
2740.35396,0.22212
2742.28243,0.22246
2744.21090,0.21954
2746.13937,0.21660
2748.06784,0.21761
2749.99631,0.21954
2751.92478,0.21798
2753.85325,0.21551
2755.78171,0.21673
2757.71018,0.22006
2759.63865,0.22168
2761.56712,0.22096
2763.49559,0.21973
2765.42406,0.21925
2767.35253,0.21855
2769.28099,0.21804
2771.20946,0.21885
2773.13793,0.21915
2775.06640,0.21905
2776.99487,0.22235
2778.92334,0.22649
2780.85181,0.22542
2782.78028,0.22309
2784.70874,0.22315
2786.63721,0.22249
2788.56568,0.22161
2790.49415,0.22181
2792.42262,0.22261
2794.35109,0.22506
2796.27956,0.22851
2798.20802,0.22692
2800.13649,0.22041
2802.06496,0.21723
2803.99343,0.21920
2805.92190,0.22319
2807.85037,0.22505
2809.77884,0.22306
2811.70731,0.22000
2813.63577,0.21772
2815.56424,0.21717
2817.49271,0.21942
2819.42118,0.22487
2821.34965,0.22921
2823.27812,0.22734
2825.20659,0.22393
2827.13505,0.22574
2829.06352,0.22871
2830.99199,0.22784
2832.92046,0.22535
2834.84893,0.22372
2836.77740,0.22599
2838.70587,0.23026
2840.63433,0.22821
2842.56280,0.22270
2844.49127,0.22376
2846.41974,0.22764
2848.34821,0.22570
2850.27668,0.22353
2852.20515,0.22668
2854.13362,0.22847
2856.06208,0.22636
2857.99055,0.22354
2859.91902,0.22101
2861.84749,0.22193
2863.77596,0.22520
2865.70443,0.22439
2867.63290,0.22132
2869.56136,0.22149
2871.48983,0.22233
2873.41830,0.22069
2875.34677,0.22103
2877.27524,0.22445
2879.20371,0.22598
2881.13218,0.22561
2883.06065,0.22718
2884.98911,0.23109
2886.91758,0.23415
2888.84605,0.23390
2890.77452,0.23162
2892.70299,0.23033
2894.63146,0.22764
2896.55993,0.22260
2898.48839,0.22269
2900.41686,0.22882
2902.34533,0.23197
2904.27380,0.22941
2906.20227,0.22704
2908.13074,0.22429
2910.05921,0.21898
2911.98768,0.21686
2913.91614,0.21782
2915.84461,0.21970
2917.77308,0.22502
2919.70155,0.22924
2921.63002,0.22752
2923.55849,0.22747
2925.48696,0.24022
2927.41542,0.26154
2929.34389,0.26679
2931.27236,0.24515
2933.20083,0.22372
2935.12930,0.21839
2937.05777,0.21807
2938.98624,0.22160
2940.91471,0.22713
2942.84317,0.22799
2944.77164,0.22450
2946.70011,0.21914
2948.62858,0.21769
2950.55705,0.22028
2952.48552,0.22213
2954.41399,0.22252
2956.34245,0.21925
2958.27092,0.21692
2960.19939,0.22347
2962.12786,0.23146
2964.05633,0.23191
2965.98480,0.22654
2967.91327,0.21968
2969.84174,0.21759
2971.77020,0.22164
2973.69867,0.22668
2975.62714,0.22873
2977.55561,0.22757
2979.48408,0.22925
2981.41255,0.23481
2983.34102,0.23754
2985.26948,0.23559
2987.19795,0.22923
2989.12642,0.22276
2991.05489,0.22482
2992.98336,0.23232
2994.91183,0.23483
2996.84030,0.23058
2998.76877,0.22775
3000.69723,0.23075
3002.62570,0.23262
3004.55417,0.22945
3006.48264,0.22503
3008.41111,0.22289
3010.33958,0.22174
3012.26805,0.21401
3014.19651,0.19468
3016.12498,0.17551
3018.05345,0.18037
3019.98192,0.20676
3021.91039,0.22620
3023.83886,0.23213
3025.76733,0.23388
3027.69579,0.23390
3029.62426,0.23339
3031.55273,0.23090
3033.48120,0.22624
3035.40967,0.22372
3037.33814,0.22420
3039.26661,0.22546
3041.19508,0.22621
3043.12354,0.22751
3045.05201,0.22815
3046.98048,0.22647
3048.90895,0.22712
3050.83742,0.23059
3052.76589,0.23196
3054.69436,0.23048
3056.62282,0.22673
3058.55129,0.22399
3060.47976,0.22464
3062.40823,0.22501
3064.33670,0.22074
3066.26517,0.21404
3068.19364,0.21367
3070.12211,0.22059
3072.05057,0.22795
3073.97904,0.23025
3075.90751,0.22813
3077.83598,0.22869
3079.76445,0.23209
3081.69292,0.23260
3083.62139,0.22531
3085.54985,0.21454
3087.47832,0.21208
3089.40679,0.21641
3091.33526,0.22090
3093.26373,0.22249
3095.19220,0.22257
3097.12067,0.22559
3099.04914,0.22736
3100.97760,0.22389
3102.90607,0.21646
3104.83454,0.21332
3106.76301,0.22139
3108.69148,0.22973
3110.61995,0.22917
3112.54842,0.22842
3114.47688,0.23420
3116.40535,0.23819
3118.33382,0.23459
3120.26229,0.22968
3122.19076,0.22923
3124.11923,0.23211
3126.04770,0.23380
3127.97617,0.23280
3129.90463,0.23090
3131.83310,0.23033
3133.76157,0.23189
3135.69004,0.23431
3137.61851,0.23583
3139.54698,0.23610
3141.47545,0.23718
3143.40391,0.23793
3145.33238,0.23620
3147.26085,0.23500
3149.18932,0.23540
3151.11779,0.23531
3153.04626,0.23493
3154.97473,0.23513
3156.90320,0.23602
3158.83166,0.23710
3160.76013,0.23915
3162.68860,0.24200
3164.61707,0.24008
3166.54554,0.23179
3168.47401,0.22573
3170.40248,0.22741
3172.33094,0.23142
3174.25941,0.23386
3176.18788,0.23841
3178.11635,0.24509
3180.04482,0.24989
3181.97329,0.25053
3183.90176,0.24693
3185.83022,0.24321
3187.75869,0.24227
3189.68716,0.24220
3191.61563,0.24106
3193.54410,0.24107
3195.47257,0.24315
3197.40104,0.23955
3199.32951,0.22934
3201.25797,0.22208
3203.18644,0.22134
3205.11491,0.22622
3207.04338,0.23355
3208.97185,0.23689
3210.90032,0.23380
3212.82879,0.22961
3214.75725,0.23038
3216.68572,0.23379
3218.61419,0.23354
3220.54266,0.23079
3222.47113,0.23181
3224.39960,0.23489
3226.32807,0.23525
3228.25654,0.23524
3230.18500,0.23723
3232.11347,0.23807
3234.04194,0.23596
3235.97041,0.23479
3237.89888,0.23587
3239.82735,0.23701
3241.75582,0.23791
3243.68428,0.23783
3245.61275,0.23584
3247.54122,0.23566
3249.46969,0.24019
3251.39816,0.24223
3253.32663,0.23651
3255.25510,0.22905
3257.18357,0.22566
3259.11203,0.22633
3261.04050,0.22964
3262.96897,0.23224
3264.89744,0.23022
3266.82591,0.22817
3268.75438,0.23034
3270.68285,0.23183
3272.61131,0.22925
3274.53978,0.22525
3276.46825,0.22398
3278.39672,0.22656
3280.32519,0.22952
3282.25366,0.22941
3284.18213,0.22910
3286.11060,0.23140
3288.03906,0.23359
3289.96753,0.23445
3291.89600,0.23236
3293.82447,0.22454
3295.75294,0.21796
3297.68141,0.22251
3299.60988,0.23316
3301.53834,0.24001
3303.46681,0.23893
3305.39528,0.23064
3307.32375,0.22754
3309.25222,0.23488
3311.18069,0.23976
3313.10916,0.23931
3315.03763,0.23915
3316.96609,0.23457
3318.89456,0.22830
3320.82303,0.22734
3322.75150,0.22568
3324.67997,0.22448
3326.60844,0.23099
3328.53691,0.23872
3330.46537,0.24016
3332.39384,0.23702
3334.32231,0.23340
3336.25078,0.23282
3338.17925,0.23466
3340.10772,0.23624
3342.03619,0.23650
3343.96466,0.23393
3345.89312,0.23042
3347.82159,0.22983
3349.75006,0.23058
3351.67853,0.22991
3353.60700,0.23261
3355.53547,0.23753
3357.46394,0.23594
3359.39240,0.23368
3361.32087,0.23721
3363.24934,0.23991
3365.17781,0.23832
3367.10628,0.23841
3369.03475,0.24290
3370.96322,0.24420
3372.89168,0.23993
3374.82015,0.23681
3376.74862,0.23871
3378.67709,0.24091
3380.60556,0.23858
3382.53403,0.23933
3384.46250,0.24496
3386.39097,0.24524
3388.31943,0.24254
3390.24790,0.24334
3392.17637,0.24419
3394.10484,0.24302
3396.03331,0.24010
3397.96178,0.23683
3399.89025,0.23797
3401.81871,0.24440
3403.74718,0.24920
3405.67565,0.24481
3407.60412,0.23604
3409.53259,0.23212
3411.46106,0.22903
3413.38953,0.22420
3415.31800,0.22471
3417.24646,0.22913
3419.17493,0.23299
3421.10340,0.23671
3423.03187,0.23695
3424.96034,0.23393
3426.88881,0.22930
3428.81728,0.22359
3430.74574,0.22312
3432.67421,0.22777
3434.60268,0.23179
3436.53115,0.23357
3438.45962,0.23324
3440.38809,0.23288
3442.31656,0.23154
3444.24503,0.22929
3446.17349,0.23206
3448.10196,0.23509
3450.03043,0.22892
3451.95890,0.22055
3453.88737,0.21613
3455.81584,0.21351
3457.74431,0.21551
3459.67277,0.22031
3461.60124,0.21961
3463.52971,0.21580
3465.45818,0.21606
3467.38665,0.21867
3469.31512,0.21914
3471.24359,0.21890
3473.17206,0.22086
3475.10052,0.22178
3477.02899,0.21754
3478.95746,0.21286
3480.88593,0.21249
3482.81440,0.21127
3484.74287,0.20762
3486.67134,0.20614
3488.59980,0.20481
3490.52827,0.20249
3492.45674,0.20305
3494.38521,0.20658
3496.31368,0.20862
3498.24215,0.20628
3500.17062,0.20435
3502.09909,0.20557
3504.02755,0.20365
3505.95602,0.19982
3507.88449,0.20106
3509.81296,0.20367
3511.74143,0.20265
3513.66990,0.20007
3515.59837,0.19662
3517.52683,0.19198
3519.45530,0.18650
3521.38377,0.18256
3523.31224,0.18532
3525.24071,0.19370
3527.16918,0.19967
3529.09765,0.19819
3531.02611,0.19173
3532.95458,0.18932
3534.88305,0.19489
3536.81152,0.19817
3538.73999,0.19301
3540.66846,0.19073
3542.59693,0.19701
3544.52540,0.20177
3546.45386,0.19671
3548.38233,0.18919
3550.31080,0.18640
3552.23927,0.18359
3554.16774,0.17741
3556.09621,0.17564
3558.02468,0.18000
3559.95314,0.18158
3561.88161,0.17941
3563.81008,0.17880
3565.73855,0.18162
3567.66702,0.18626
3569.59549,0.18160
3571.52396,0.17023
3573.45243,0.16520
3575.38089,0.16663
3577.30936,0.16954
3579.23783,0.17655
3581.16630,0.18306
3583.09477,0.18240
3585.02324,0.17698
3586.95171,0.17079
3588.88017,0.16702
3590.80864,0.16580
3592.73711,0.16710
3594.66558,0.17263
3596.59405,0.17959
3598.52252,0.18068
3600.45099,0.17416
3602.37946,0.16727
3604.30792,0.16658
3606.23639,0.17085
3608.16486,0.17500
3610.09333,0.17715
3612.02180,0.17594
3613.95027,0.16879
3615.87874,0.16526
3617.80720,0.17240
3619.73567,0.18006
3621.66414,0.17859
3623.59261,0.17363
3625.52108,0.16936
3627.44955,0.16847
3629.37802,0.16974
3631.30649,0.16737
3633.23495,0.16324
3635.16342,0.15905
3637.09189,0.15880
3639.02036,0.16102
3640.94883,0.15952
3642.87730,0.15731
3644.80577,0.16125
3646.73423,0.17475
3648.66270,0.19089
3650.59117,0.18279
3652.51964,0.16457
3654.44811,0.15527
3656.37658,0.14992
3658.30505,0.14467
3660.23352,0.14191
3662.16198,0.14216
3664.09045,0.14502
3666.01892,0.14871
3667.94739,0.15262
3669.87586,0.15834
3671.80433,0.16108
3673.73280,0.15992
3675.66126,0.15530
3677.58973,0.14849
3679.51820,0.14698
3681.44667,0.14799
3683.37514,0.14625
3685.30361,0.14582
3687.23208,0.15393
3689.16055,0.16405
3691.08901,0.16030
3693.01748,0.15268
3694.94595,0.15050
3696.87442,0.15017
3698.80289,0.14829
3700.73136,0.14806
3702.65983,0.15003
3704.58829,0.14850
3706.51676,0.14713
3708.44523,0.15195
3710.37370,0.16048
3712.30217,0.16084
3714.23064,0.15509
3716.15911,0.15452
3718.08757,0.15829
3720.01604,0.16008
3721.94451,0.15608
3723.87298,0.15011
3725.80145,0.14544
3727.72992,0.14066
3729.65839,0.14008
3731.58686,0.14788
3733.51532,0.15946
3735.44379,0.16492
3737.37226,0.16230
3739.30073,0.15687
3741.22920,0.15201
3743.15767,0.14704
3745.08614,0.14383
3747.01460,0.14823
3748.94307,0.15587
3750.87154,0.15730
3752.80001,0.15038
3754.72848,0.14904
3756.65695,0.15097
3758.58542,0.14821
3760.51389,0.14254
3762.44235,0.13900
3764.37082,0.13743
3766.29929,0.13799
3768.22776,0.14043
3770.15623,0.14056
3772.08470,0.13594
3774.01317,0.13474
3775.94163,0.14061
3777.87010,0.14737
3779.79857,0.14749
3781.72704,0.14532
3783.65551,0.14620
3785.58398,0.14528
3787.51245,0.14253
3789.44092,0.14036
3791.36938,0.13715
3793.29785,0.13560
3795.22632,0.14050
3797.15479,0.14770
3799.08326,0.15055
3801.01173,0.15346
3802.94020,0.15491
3804.86866,0.15412
3806.79713,0.15355
3808.72560,0.14867
3810.65407,0.14350
3812.58254,0.14256
3814.51101,0.14320
3816.43948,0.14123
3818.36795,0.14080
3820.29641,0.14566
3822.22488,0.14811
3824.15335,0.14424
3826.08182,0.13981
3828.01029,0.13771
3829.93876,0.13912
3831.86723,0.14228
3833.79569,0.14144
3835.72416,0.13796
3837.65263,0.14452
3839.58110,0.15974
3841.50957,0.16386
3843.43804,0.15507
3845.36651,0.14259
3847.29498,0.13623
3849.22344,0.14007
3851.15191,0.15353
3853.08038,0.16795
3855.00885,0.15639
3856.93732,0.13746
3858.86579,0.12972
3860.79426,0.13268
3862.72272,0.13812
3864.65119,0.13429
3866.57966,0.12995
3868.50813,0.13795
3870.43660,0.14976
3872.36507,0.14950
3874.29354,0.14097
3876.22200,0.13091
3878.15047,0.12580
3880.07894,0.13126
3882.00741,0.14152
3883.93588,0.14390
3885.86435,0.13640
3887.79282,0.12944
3889.72129,0.13184
3891.64975,0.13858
3893.57822,0.13959
3895.50669,0.13881
3897.43516,0.14245
3899.36363,0.14544
3901.29210,0.14349
3903.22057,0.14146
3905.14903,0.13707
3907.07750,0.12954
3909.00597,0.12291
3910.93444,0.11724
3912.86291,0.11508
3914.79138,0.11945
3916.71985,0.12551
3918.64832,0.12824
3920.57678,0.13036
3922.50525,0.13192
3924.43372,0.13035
3926.36219,0.12798
3928.29066,0.12841
3930.21913,0.13079
3932.14760,0.13206
3934.07606,0.13005
3936.00453,0.12665
3937.93300,0.12439
3939.86147,0.12256
3941.78994,0.12099
3943.71841,0.11932
3945.64688,0.11750
3947.57535,0.11992
3949.50381,0.12470
3951.43228,0.12483
3953.36075,0.12048
3955.28922,0.11561
3957.21769,0.11590
3959.14616,0.11956
3961.07463,0.11983
3963.00309,0.11776
3964.93156,0.11582
3966.86003,0.11528
3968.78850,0.11653
3970.71697,0.11549
3972.64544,0.11186
3974.57391,0.11052
3976.50238,0.11238
3978.43084,0.11698
3980.35931,0.12306
3982.28778,0.12646
3984.21625,0.12683
3986.14472,0.12648
3988.07319,0.12496
3990.00166,0.12175
3991.93012,0.11963
3993.85859,0.12044
3995.78706,0.12052
3997.71553,0.11781
3999.64400,0.11497
4001.57247,0.11171
4003.50094,0.10859
4005.42941,0.11035
4007.35787,0.11614
4009.28634,0.11769
4011.21481,0.11313
4013.14328,0.11194
4015.07175,0.11717
4017.00022,0.12068
4018.92869,0.11943
4020.85715,0.11685
4022.78562,0.11325
4024.71409,0.10920
4026.64256,0.10969
4028.57103,0.11453
4030.49950,0.11664
4032.42797,0.11603
4034.35644,0.11648
4036.28490,0.11417
4038.21337,0.11038
4040.14184,0.11020
4042.07031,0.10875
4043.99878,0.10518
4045.92725,0.10407
4047.85572,0.10284
4049.78418,0.10058
4051.71265,0.10114
4053.64112,0.10428
4055.56959,0.10791
4057.49806,0.11284
4059.42653,0.11650
4061.35500,0.11171
4063.28346,0.10210
4065.21193,0.09782
4067.14040,0.09712
4069.06887,0.09534
4070.99734,0.09330
4072.92581,0.09447
4074.85428,0.10253
4076.78275,0.11087
4078.71121,0.10980
4080.63968,0.10399
4082.56815,0.10355
4084.49662,0.10849
4086.42509,0.11336
4088.35356,0.11555
4090.28203,0.11263
4092.21049,0.10392
4094.13896,0.09902
4096.06743,0.10275
4097.99590,0.10450
4099.92437,0.10294
4101.85284,0.10372
4103.78131,0.10381
4105.70978,0.10392
4107.63824,0.10742
4109.56671,0.11030
4111.49518,0.10801
4113.42365,0.10208
4115.35212,0.09834
4117.28059,0.10129
4119.20906,0.10537
4121.13752,0.10437
4123.06599,0.10348
4124.99446,0.10276
4126.92293,0.09913
4128.85140,0.09640
4130.77987,0.09162
4132.70834,0.08546
4134.63681,0.08784
4136.56527,0.09607
4138.49374,0.10172
4140.42221,0.10269
4142.35068,0.09955
4144.27915,0.09469
4146.20762,0.08713
4148.13609,0.08136
4150.06455,0.08516
4151.99302,0.09094
4153.92149,0.09201
4155.84996,0.09419
4157.77843,0.09697
4159.70690,0.09462
4161.63537,0.08754
4163.56384,0.08157
4165.49230,0.08133
4167.42077,0.08273
4169.34924,0.08214
4171.27771,0.08395
4173.20618,0.08803
4175.13465,0.08934
4177.06312,0.08966
4178.99158,0.09186
4180.92005,0.09345
4182.84852,0.09110
4184.77699,0.08373
4186.70546,0.07861
4188.63393,0.08101
4190.56240,0.08439
4192.49087,0.08650
4194.41933,0.08947
4196.34780,0.08908
4198.27627,0.08209
4200.20474,0.07603
4202.13321,0.07798
4204.06168,0.08324
4205.99015,0.08689
4207.91861,0.08739
4209.84708,0.08487
4211.77555,0.08245
4213.70402,0.08137
4215.63249,0.08127
4217.56096,0.08233
4219.48943,0.08445
4221.41789,0.08805
4223.34636,0.08986
4225.27483,0.08367
4227.20330,0.07368
4229.13177,0.06742
4231.06024,0.06463
4232.98871,0.06515
4234.91718,0.06856
4236.84564,0.07273
4238.77411,0.07805
4240.70258,0.08284
4242.63105,0.08175
4244.55952,0.07500
4246.48799,0.06958
4248.41646,0.07074
4250.34492,0.07520
4252.27339,0.07509
4254.20186,0.06854
4256.13033,0.06191
4258.05880,0.06536
4259.98727,0.07624
4261.91574,0.08105
4263.84421,0.07990
4265.77267,0.07744
4267.70114,0.07499
4269.62961,0.07588
4271.55808,0.07580
4273.48655,0.07119
4275.41502,0.06815
4277.34349,0.06969
4279.27195,0.07040
4281.20042,0.06812
4283.12889,0.06795
4285.05736,0.07187
4286.98583,0.07713
4288.91430,0.08017
4290.84277,0.07891
4292.77124,0.07480
4294.69970,0.07123
4296.62817,0.06985
4298.55664,0.06927
4300.48511,0.06574
4302.41358,0.05852
4304.34205,0.05704
4306.27052,0.06379
4308.19898,0.06477
4310.12745,0.05822
4312.05592,0.05632
4313.98439,0.05658
4315.91286,0.05217
4317.84133,0.05023
4319.76980,0.05299
4321.69827,0.05579
4323.62673,0.06201
4325.55520,0.07046
4327.48367,0.07229
4329.41214,0.06551
4331.34061,0.05522
4333.26908,0.05109
4335.19755,0.05796
4337.12601,0.06448
4339.05448,0.06421
4340.98295,0.06683
4342.91142,0.07283
4344.83989,0.06965
4346.76836,0.05692
4348.69683,0.04513
4350.62530,0.03639
4352.55376,0.03417
4354.48223,0.04226
4356.41070,0.05554
4358.33917,0.06823
4360.26764,0.06892
4362.19611,0.05803
4364.12458,0.05533
4366.05304,0.06143
4367.98151,0.06213
4369.90998,0.05737
4371.83845,0.05466
4373.76692,0.05517
4375.69539,0.05330
4377.62386,0.04966
4379.55232,0.04951
4381.48079,0.04742
4383.40926,0.03867
4385.33773,0.03416
4387.26620,0.04000
4389.19467,0.04640
4391.12314,0.04907
4393.05161,0.04872
4394.98007,0.04384
4396.90854,0.04212
4398.83701,0.04666
4400.76548,0.04592
4402.69395,0.03933
4404.62242,0.03978
4406.55089,0.05020
4408.47935,0.06009
4410.40782,0.05693
4412.33629,0.04585
4414.26476,0.04235
4416.19323,0.04059
4418.12170,0.03153
4420.05017,0.02694
4421.97864,0.03370
4423.90710,0.04261
4425.83557,0.04799
4427.76404,0.05193
4429.69251,0.05270
4431.62098,0.04635
4433.54945,0.03578
4435.47792,0.02660
4437.40638,0.02189
4439.33485,0.02053
4441.26332,0.01819
4443.19179,0.01833
4445.12026,0.02566
4447.04873,0.03290
4448.97720,0.03456
4450.90567,0.03173
4452.83413,0.02850
4454.76260,0.02982
4456.69107,0.02957
4458.61954,0.02403
4460.54801,0.02086
4462.47648,0.02497
4464.40495,0.03353
4466.33341,0.03548
4468.26188,0.02795
4470.19035,0.02090
4472.11882,0.01900
4474.04729,0.02125
4475.97576,0.02429
4477.90423,0.02411
4479.83270,0.02501
4481.76116,0.03191
4483.68963,0.03767
4485.61810,0.03463
4487.54657,0.02854
4489.47504,0.02734
4491.40351,0.02860
4493.33198,0.02773
4495.26044,0.02354
4497.18891,0.01982
4499.11738,0.02556
4501.04585,0.03658
4502.97432,0.04196
4504.90279,0.03990
4506.83126,0.02972
4508.75973,0.01588
4510.68819,0.01135
4512.61666,0.01763
4514.54513,0.01942
4516.47360,0.01504
4518.40207,0.01396
4520.33054,0.01612
4522.25901,0.01943
4524.18747,0.01821
4526.11594,0.01342
4528.04441,0.01245
4529.97288,0.01227
4531.90135,0.01217
4533.82982,0.01800
4535.75829,0.02560
4537.68676,0.02258
4539.61522,0.00984
4541.54369,-0.00035
4543.47216,-0.00196
4545.40063,0.00622
4547.32910,0.01445
4549.25757,0.00928
4551.18604,-0.00163
4553.11450,-0.00311
4555.04297,0.00602
4556.97144,0.01708
4558.89991,0.02237
4560.82838,0.02223
4562.75685,0.01832
4564.68532,0.01294
4566.61378,0.01260
4568.54225,0.01463
4570.47072,0.01107
4572.39919,0.00278
4574.32766,-0.00581
4576.25613,-0.00999
4578.18460,-0.00659
4580.11307,0.00389
4582.04153,0.01595
4583.97000,0.01839
4585.89847,0.01449
4587.82694,0.01501
4589.75541,0.01303
4591.68388,0.00438
4593.61235,-0.00213
4595.54081,-0.00140
4597.46928,0.00551
4599.39775,0.01294
4601.32622,0.01568
4603.25469,0.01495
4605.18316,0.01377
4607.11163,0.01430
4609.04010,0.01918
4610.96856,0.02377
4612.89703,0.02262
4614.82550,0.01884
4616.75397,0.01452
4618.68244,0.00993
4620.61091,0.00520
4622.53938,0.00061
4624.46784,0.00001
4626.39631,0.00570
4628.32478,0.01223
4630.25325,0.01355
4632.18172,0.01338
4634.11019,0.01739
4636.03866,0.02038
4637.96713,0.01463
4639.89559,0.00587
4641.82406,0.00939
4643.75253,0.02447
4645.68100,0.03136
4647.60947,0.02244
4649.53794,0.00819
4651.46641,-0.00251
4653.39487,-0.00055
4655.32334,0.01394
4657.25181,0.02053
4659.18028,0.01153
4661.10875,0.00428
4663.03722,0.00970
4664.96569,0.01882
4666.89416,0.02119
4668.82262,0.01885
4670.75109,0.01538
4672.67956,0.01251
4674.60803,0.01206
4676.53650,0.00932
4678.46497,0.00554
4680.39344,0.00907
4682.32190,0.01519
4684.25037,0.01519
4686.17884,0.01473
4688.10731,0.02121
4690.03578,0.02759
4691.96425,0.02387
4693.89272,0.01330
4695.82119,0.00821
4697.74965,0.01488
4699.67812,0.02571
4701.60659,0.02628
4703.53506,0.01391
4705.46353,0.00035
4707.39200,-0.00907
4709.32047,-0.01504
4711.24893,-0.01225
4713.17740,-0.00174
4715.10587,0.00910
4717.03434,0.01590
4718.96281,0.01422
4720.89128,0.00480
4722.81975,-0.00405
4724.74821,-0.00554
4726.67668,-0.00082
4728.60515,0.00818
4730.53362,0.01486
4732.46209,0.01142
4734.39056,0.01113
4736.31903,0.02109
4738.24750,0.02738
4740.17596,0.02541
4742.10443,0.01394
4744.03290,-0.00241
4745.96137,-0.00996
4747.88984,-0.00939
4749.81831,-0.00756
4751.74678,-0.00392
4753.67524,-0.00083
4755.60371,0.00037
4757.53218,0.00389
4759.46065,0.00444
4761.38912,-0.00170
4763.31759,-0.00429
4765.24606,-0.00188
4767.17453,-0.00447
4769.10299,-0.01328
4771.03146,-0.01284
4772.95993,0.00332
4774.88840,0.01313
4776.81687,0.00664
4778.74534,-0.00006
4780.67381,0.00097
4782.60227,0.00248
4784.53074,0.00283
4786.45921,0.00945
4788.38768,0.01590
4790.31615,0.01394
4792.24462,0.01235
4794.17309,0.01594
4796.10156,0.01849
4798.03002,0.01134
4799.95849,-0.00156
4801.88696,-0.00656
4803.81543,-0.00510
4805.74390,-0.00072
4807.67237,0.01000
4809.60084,0.01462
4811.52930,0.00698
4813.45777,0.00220
4815.38624,0.00202
4817.31471,0.00426
4819.24318,0.01643
4821.17165,0.02502
4823.10012,0.02015
4825.02859,0.01534
4826.95705,0.01345
4828.88552,0.01250
4830.81399,0.01374
4832.74246,0.01374
4834.67093,0.01216
4836.59940,0.00893
4838.52787,0.00769
4840.45633,0.01203
4842.38480,0.01783
4844.31327,0.01892
4846.24174,0.01346
4848.17021,0.01372
4850.09868,0.02178
4852.02715,0.02040
4853.95562,0.01060
4855.88408,0.00488
4857.81255,0.00442
4859.74102,0.00766
4861.66949,0.01004
4863.59796,0.00606
4865.52643,0.00122
4867.45490,0.00075
4869.38336,0.00639
4871.31183,0.02355
4873.24030,0.03711
4875.16877,0.02630
4877.09724,0.01282
4879.02571,0.01779
4880.95418,0.02472
4882.88265,0.02300
4884.81111,0.02155
4886.73958,0.02578
4888.66805,0.02674
4890.59652,0.01732
4892.52499,0.00997
4894.45346,0.01122
4896.38193,0.01601
4898.31039,0.02034
4900.23886,0.01940
4902.16733,0.01233
4904.09580,0.00423
4906.02427,0.00559
4907.95274,0.01234
4909.88121,0.00829
4911.80967,0.00072
4913.73814,0.00371
4915.66661,0.01485
4917.59508,0.02817
4919.52355,0.03091
4921.45202,0.01548
4923.38049,-0.00294
4925.30896,-0.01177
4927.23742,-0.01102
4929.16589,-0.00388
4931.09436,0.00568
4933.02283,0.01276
4934.95130,0.01516
4936.87977,0.01794
4938.80824,0.01557
4940.73670,0.00255
4942.66517,-0.00357
4944.59364,0.00716
4946.52211,0.01904
4948.45058,0.01922
4950.37905,0.01493
4952.30752,0.01219
4954.23599,0.00962
4956.16445,0.00637
4958.09292,-0.00115
4960.02139,-0.00944
4961.94986,-0.01584
4963.87833,-0.01997
4965.80680,-0.01355
4967.73527,-0.00081
4969.66373,0.00673
4971.59220,0.00724
4973.52067,0.00667
4975.44914,0.01113
4977.37761,0.00938
4979.30608,0.00038
4981.23455,0.00270
4983.16302,0.00837
4985.09148,0.00698
4987.01995,0.01166
4988.94842,0.02317
4990.87689,0.02809
4992.80536,0.02343
4994.73383,0.01673
4996.66230,0.01532
4998.59076,0.01977
5000.51923,0.02060
5002.44770,0.01440
5004.37617,0.01167
5006.30464,0.01947
5008.23311,0.02738
5010.16158,0.02153
5012.09005,0.01183
5014.01851,0.00986
5015.94698,0.01422
5017.87545,0.02358
5019.80392,0.02828
5021.73239,0.02721
5023.66086,0.03246
5025.58933,0.04118
5027.51779,0.03898
5029.44626,0.02352
5031.37473,0.01189
5033.30320,0.01808
5035.23167,0.02387
5037.16014,0.01632
5039.08861,0.01368
5041.01708,0.01680
5042.94554,0.01541
5044.87401,0.01442
5046.80248,0.01363
5048.73095,0.01516
5050.65942,0.02194
5052.58789,0.02632
5054.51636,0.02532
5056.44482,0.02286
5058.37329,0.02384
5060.30176,0.02342
5062.23023,0.01053
5064.15870,-0.00136
5066.08717,0.00660
5068.01564,0.02018
5069.94410,0.02507
5071.87257,0.02631
5073.80104,0.02255
5075.72951,0.01662
5077.65798,0.01299
5079.58645,0.00534
5081.51492,-0.00343
5083.44339,-0.00998
5085.37185,-0.01181
5087.30032,-0.00337
5089.22879,0.00361
5091.15726,0.00729
5093.08573,0.02390
5095.01420,0.04863
5096.94267,0.06753
5098.87113,0.07439
5100.79960,0.06651
5102.72807,0.05297
5104.65654,0.03907
5106.58501,0.02758
5108.51348,0.02833
5110.44195,0.04125
5112.37042,0.05907
5114.29888,0.06362
5116.22735,0.04500
5118.15582,0.02314
5120.08429,0.01390
5122.01276,0.01211
5123.94123,0.00976
5125.86970,0.00399
5127.79816,-0.00536
5129.72663,-0.00712
5131.65510,-0.00048
5133.58357,-0.00456
5135.51204,-0.01225
5137.44051,-0.00741
5139.36898,0.00124
5141.29745,0.00857
5143.22591,0.01514
5145.15438,0.01375
5147.08285,0.00858
5149.01132,0.01226
5150.93979,0.01957
5152.86826,0.02116
5154.79673,0.01922
5156.72519,0.01674
5158.65366,0.01579
5160.58213,0.01912
5162.51060,0.02959
5164.43907,0.04183
5166.36754,0.04278
5168.29601,0.03624
5170.22448,0.03344
5172.15294,0.03304
5174.08141,0.03641
5176.00988,0.03852
5177.93835,0.03420
5179.86682,0.03900
5181.79529,0.04070
5183.72376,0.02190
5185.65222,0.01791
5187.58069,0.04095
5189.50916,0.05611
5191.43763,0.05989
5193.36610,0.06765
5195.29457,0.07422
5197.22304,0.06689
5199.15151,0.05042
5201.07997,0.04356
5203.00844,0.04677
5204.93691,0.04967
5206.86538,0.04710
5208.79385,0.03773
5210.72232,0.03756
5212.65079,0.04910
5214.57925,0.04570
5216.50772,0.02765
5218.43619,0.02438
5220.36466,0.02969
5222.29313,0.02608
5224.22160,0.02628
5226.15007,0.03437
5228.07854,0.04383
5230.00700,0.04568
5231.93547,0.03382
5233.86394,0.03455
5235.79241,0.05762
5237.72088,0.07123
5239.64935,0.06796
5241.57782,0.06749
5243.50628,0.06801
5245.43475,0.06004
5247.36322,0.06135
5249.29169,0.08159
5251.22016,0.09282
5253.14863,0.08635
5255.07710,0.08346
5257.00556,0.08721
5258.93403,0.07910
5260.86250,0.05638
5262.79097,0.04343
5264.71944,0.04918
5266.64791,0.05063
5268.57638,0.04328
5270.50485,0.03606
5272.43331,0.02997
5274.36178,0.02778
5276.29025,0.03170
5278.21872,0.04088
5280.14719,0.05629
5282.07566,0.07170
5284.00413,0.07498
5285.93259,0.06604
5287.86106,0.06070
5289.78953,0.06582
5291.71800,0.06892
5293.64647,0.05838
5295.57494,0.04611
5297.50341,0.05625
5299.43188,0.08201
5301.36034,0.09254
5303.28881,0.08494
5305.21728,0.07509
5307.14575,0.06131
5309.07422,0.04441
5311.00269,0.04128
5312.93116,0.05285
5314.85962,0.07159
5316.78809,0.08476
5318.71656,0.08034
5320.64503,0.06754
5322.57350,0.05711
5324.50197,0.05470
5326.43044,0.06249
5328.35891,0.07368
5330.28737,0.08145
5332.21584,0.07909
5334.14431,0.06500
5336.07278,0.05657
5338.00125,0.05592
5339.92972,0.05218
5341.85819,0.05634
5343.78665,0.06458
5345.71512,0.06361
5347.64359,0.05888
5349.57206,0.05467
5351.50053,0.05606
5353.42900,0.06814
5355.35747,0.07062
5357.28594,0.05172
5359.21440,0.04253
5361.14287,0.06201
5363.07134,0.08908
5364.99981,0.08989
5366.92828,0.05977
5368.85675,0.04074
5370.78522,0.06673
5372.71368,0.11569
5374.64215,0.13863
5376.57062,0.11273
5378.49909,0.06620
5380.42756,0.04675
5382.35603,0.06137
5384.28450,0.06697
5386.21297,0.04151
5388.14143,0.04325
5390.06990,0.08972
5391.99837,0.12418
5393.92684,0.11701
5395.85531,0.09628
5397.78378,0.07469
5399.71225,0.04966
5401.64071,0.03424
5403.56918,0.03194
5405.49765,0.03600
5407.42612,0.04275
5409.35459,0.05103
5411.28306,0.06305
5413.21153,0.07308
5415.13999,0.07181
5417.06846,0.06545
5418.99693,0.06290
5420.92540,0.05833
5422.85387,0.04318
5424.78234,0.01895
5426.71081,-0.00854
5428.63928,-0.00686
5430.56774,0.03044
5432.49621,0.05868
5434.42468,0.07785
5436.35315,0.09286
5438.28162,0.09445
5440.21009,0.08987
5442.13856,0.07727
5444.06702,0.06549
5445.99549,0.06387
5447.92396,0.06074
5449.85243,0.06163
5451.78090,0.07569
5453.70937,0.08776
5455.63784,0.08462
5457.56631,0.07463
5459.49477,0.07101
5461.42324,0.07168
5463.35171,0.06723
5465.28018,0.05779
5467.20865,0.05342
5469.13712,0.05025
5471.06559,0.04789
5472.99405,0.05547
5474.92252,0.06351
5476.85099,0.06398
5478.77946,0.06575
5480.70793,0.06534
5482.63640,0.05241
5484.56487,0.02882
5486.49334,0.01604
5488.42180,0.03864
5490.35027,0.07371
5492.27874,0.07125
5494.20721,0.03105
5496.13568,0.00368
5498.06415,0.02416
5499.99262,0.07334
5501.92108,0.09388
5503.84955,0.07675
5505.77802,0.06522
5507.70649,0.08477
5509.63496,0.11881
5511.56343,0.12712
5513.49190,0.09816
5515.42037,0.07950
5517.34883,0.09233
5519.27730,0.10218
5521.20577,0.08666
5523.13424,0.05297
5525.06271,0.02304
5526.99118,0.01375
5528.91965,0.01534
5530.84811,0.01509
5532.77658,0.02498
5534.70505,0.04677
5536.63352,0.06363
5538.56199,0.06926
5540.49046,0.06643
5542.41893,0.05082
5544.34740,0.03881
5546.27586,0.06159
5548.20433,0.10025
5550.13280,0.11798
5552.06127,0.10885
5553.98974,0.09135
5555.91821,0.09315
5557.84668,0.09525
5559.77514,0.06058
5561.70361,0.01917
5563.63208,0.01043
5565.56055,0.02555
5567.48902,0.04843
5569.41749,0.05949
5571.34596,0.06814
5573.27443,0.08980
5575.20289,0.08416
5577.13136,0.05924
5579.05983,0.06338
5580.98830,0.08294
5582.91677,0.08578
5584.84524,0.06857
5586.77371,0.04038
5588.70217,0.02289
5590.63064,0.05020
5592.55911,0.10969
5594.48758,0.13933
5596.41605,0.11782
5598.34452,0.07112
5600.27299,0.02777
5602.20145,0.01899
5604.12992,0.05813
5606.05839,0.11082
5607.98686,0.12301
5609.91533,0.09039
5611.84380,0.06493
5613.77227,0.08723
5615.70074,0.12323
5617.62920,0.11654
5619.55767,0.07697
5621.48614,0.05849
5623.41461,0.07765
5625.34308,0.09660
5627.27155,0.11008
5629.20002,0.13798
5631.12848,0.13955
5633.05695,0.10133
5634.98542,0.06939
5636.91389,0.06896
5638.84236,0.09357
5640.77083,0.11786
5642.69930,0.11470
5644.62777,0.09174
5646.55623,0.06663
5648.48470,0.05108
5650.41317,0.06201
5652.34164,0.08473
5654.27011,0.09306
5656.19858,0.08889
5658.12705,0.08408
5660.05551,0.09171
5661.98398,0.10948
5663.91245,0.12120
5665.84092,0.11852
5667.76939,0.10420
5669.69786,0.08785
5671.62633,0.08528
5673.55480,0.10491
5675.48326,0.12704
5677.41173,0.13263
5679.34020,0.12308
5681.26867,0.10319
5683.19714,0.08482
5685.12561,0.07618
5687.05408,0.08185
5688.98254,0.10197
5690.91101,0.11635
5692.83948,0.10781
5694.76795,0.09227
5696.69642,0.09679
5698.62489,0.11230
5700.55336,0.12043
5702.48183,0.12721
5704.41029,0.12672
5706.33876,0.10582
5708.26723,0.08859
5710.19570,0.10757
5712.12417,0.13739
5714.05264,0.13956
5715.98111,0.12848
5717.90957,0.11804
5719.83804,0.09706
5721.76651,0.06989
5723.69498,0.04972
5725.62345,0.04399
5727.55192,0.05553
5729.48039,0.07588
5731.40886,0.09449
5733.33732,0.11840
5735.26579,0.14588
5737.19426,0.14327
5739.12273,0.11384
5741.05120,0.08185
5742.97967,0.04644
5744.90814,0.03379
5746.83660,0.05749
5748.76507,0.09103
5750.69354,0.10627
5752.62201,0.08204
5754.55048,0.03696
5756.47895,0.02991
5758.40742,0.07393
5760.33588,0.11284
5762.26435,0.10812
5764.19282,0.08547
5766.12129,0.08507
5768.04976,0.10534
5769.97823,0.12055
5771.90670,0.12140
5773.83517,0.12227
5775.76363,0.14255
5777.69210,0.16400
5779.62057,0.15017
5781.54904,0.11919
5783.47751,0.11758
5785.40598,0.13213
5787.33445,0.13099
5789.26291,0.12447
5791.19138,0.10116
5793.11985,0.06407
5795.04832,0.06394
5796.97679,0.09287
5798.90526,0.09100
5800.83373,0.06162
5802.76220,0.03722
5804.69066,0.01854
5806.61913,0.01920
5808.54760,0.05007
5810.47607,0.09476
5812.40454,0.13054
5814.33301,0.12151
5816.26148,0.07377
5818.18994,0.05271
5820.11841,0.05499
5822.04688,0.02568
5823.97535,0.00933
5825.90382,0.04545
5827.83229,0.09103
5829.76076,0.09754
5831.68923,0.07593
5833.61769,0.07979
5835.54616,0.11003
5837.47463,0.13084
5839.40310,0.12212
5841.33157,0.07781
5843.26004,0.03248
5845.18851,0.03128
5847.11697,0.05850
5849.04544,0.07521
5850.97391,0.08120
5852.90238,0.08862
5854.83085,0.10772
5856.75932,0.12749
5858.68779,0.11116
5860.61626,0.08681
5862.54472,0.10294
5864.47319,0.11761
5866.40166,0.10874
5868.33013,0.11566
5870.25860,0.11754
5872.18707,0.09717
5874.11554,0.09090
5876.04400,0.09285
5877.97247,0.06011
5879.90094,0.01367
5881.82941,0.00507
5883.75788,0.02908
5885.68635,0.06401
5887.61482,0.10726
5889.54329,0.14389
5891.47175,0.15286
5893.40022,0.14539
5895.32869,0.14487
5897.25716,0.14022
5899.18563,0.11544
5901.11410,0.09897
5903.04257,0.10679
5904.97103,0.10060
5906.89950,0.08672
5908.82797,0.10039
5910.75644,0.10309
5912.68491,0.07348
5914.61338,0.05754
5916.54185,0.07009
5918.47032,0.09087
5920.39878,0.10394
5922.32725,0.12107
5924.25572,0.14293
5926.18419,0.13146
5928.11266,0.09698
5930.04113,0.06968
5931.96960,0.06033
5933.89806,0.08785
5935.82653,0.12880
5937.75500,0.14986
5939.68347,0.14992
5941.61194,0.14067
5943.54041,0.13146
5945.46888,0.10510
5947.39734,0.07369
5949.32581,0.08224
5951.25428,0.12379
5953.18275,0.15747
5955.11122,0.16673
5957.03969,0.14811
5958.96816,0.13099
5960.89663,0.14098
5962.82509,0.14254
5964.75356,0.12686
5966.68203,0.11776
5968.61050,0.10689
5970.53897,0.09366
5972.46744,0.11095
5974.39591,0.15733
5976.32437,0.17923
5978.25284,0.16097
5980.18131,0.13550
5982.10978,0.11697
5984.03825,0.09932
5985.96672,0.07917
5987.89519,0.07875
5989.82366,0.10545
5991.75212,0.09980
5993.68059,0.06077
5995.60906,0.05600
5997.53753,0.07277
5999.46600,0.07986
6001.39447,0.09933
6003.32294,0.13466
6005.25140,0.13267
6007.17987,0.05561
6009.10834,-0.01771
6011.03681,-0.02068
6012.96528,-0.00421
6014.89375,0.00655
6016.82222,0.04121
6018.75069,0.08508
6020.67915,0.10143
6022.60762,0.09786
6024.53609,0.10143
6026.46456,0.13540
6028.39303,0.18203
6030.32150,0.16874
6032.24997,0.10593
6034.17843,0.07928
6036.10690,0.08217
6038.03537,0.06595
6039.96384,0.05838
6041.89231,0.07896
6043.82078,0.08964
6045.74925,0.06252
6047.67772,0.03747
6049.60618,0.07008
6051.53465,0.12304
6053.46312,0.12561
6055.39159,0.08411
6057.32006,0.06107
6059.24853,0.09850
6061.17700,0.16607
6063.10546,0.18510
6065.03393,0.13626
6066.96240,0.10007
6068.89087,0.12010
6070.81934,0.15811
6072.74781,0.18406
6074.67628,0.19195
6076.60475,0.16604
6078.53321,0.11294
6080.46168,0.06467
6082.39015,0.02985
6084.31862,0.01317
6086.24709,0.02052
6088.17556,0.03221
6090.10403,0.06642
6092.03249,0.12602
6093.96096,0.14793
6095.88943,0.09284
6097.81790,-0.00564
6099.74637,-0.05887
6101.67484,-0.03123
6103.60331,0.02265
6105.53177,0.05785
6107.46024,0.05597
6109.38871,0.03128
6111.31718,0.04314
6113.24565,0.10975
6115.17412,0.16317
6117.10259,0.15689
6119.03106,0.11993
6120.95952,0.08141
6122.88799,0.04534
6124.81646,0.03653
6126.74493,0.06504
6128.67340,0.10454
6130.60187,0.13415
6132.53034,0.13444
6134.45880,0.11381
6136.38727,0.10188
6138.31574,0.07576
6140.24421,0.03411
6142.17268,0.01581
6144.10115,0.00281
6146.02962,0.01158
6147.95809,0.06368
6149.88655,0.08696
6151.81502,0.06340
6153.74349,0.05502
6155.67196,0.05502
6157.60043,0.03192
6159.52890,-0.00166
6161.45737,-0.00599
6163.38583,0.03428
6165.31430,0.06875
6167.24277,0.06159
6169.17124,0.05037
6171.09971,0.03452
6173.02818,0.00374
6174.95665,0.03296
6176.88512,0.08074
6178.81358,0.04895
6180.74205,0.02272
6182.67052,0.05736
6184.59899,0.07987
6186.52746,0.07529
6188.45593,0.10043
6190.38440,0.13743
6192.31286,0.12620
6194.24133,0.11550
6196.16980,0.12964
6198.09827,0.11182
6200.02674,0.08736
6201.95521,0.09880
6203.88368,0.09973
6205.81215,0.06250
6207.74061,0.02753
6209.66908,0.02513
6211.59755,0.07276
6213.52602,0.12392
6215.45449,0.13683
6217.38296,0.14662
6219.31143,0.14234
6221.23989,0.10515
6223.16836,0.07904
6225.09683,0.07622
6227.02530,0.06891
6228.95377,0.05119
6230.88224,0.04923
6232.81071,0.08568
6234.73918,0.12653
6236.66764,0.12871
6238.59611,0.12558
6240.52458,0.15156
6242.45305,0.15060
6244.38152,0.10367
6246.30999,0.09226
6248.23846,0.15431
6250.16692,0.21756
6252.09539,0.22961
6254.02386,0.22811
6255.95233,0.19820
6257.88080,0.11732
6259.80927,0.05142
6261.73774,0.04902
6263.66621,0.09266
6265.59467,0.12026
6267.52314,0.07149
6269.45161,0.00887
6271.38008,0.02375
6273.30855,0.09467
6275.23702,0.12666
6277.16549,0.06831
6279.09395,-0.00270
6281.02242,-0.00207
6282.95089,0.05045
6284.87936,0.10455
6286.80783,0.14125
6288.73630,0.15160
6290.66477,0.11626
6292.59323,0.06853
6294.52170,0.06533
6296.45017,0.08059
6298.37864,0.09265
6300.30711,0.12596
6302.23558,0.15526
6304.16405,0.15045
6306.09252,0.12539
6308.02098,0.09548
6309.94945,0.08624
6311.87792,0.07794
6313.80639,0.03002
6315.73486,-0.02224
6317.66333,-0.00248
6319.59180,0.07610
6321.52026,0.11444
6323.44873,0.09918
6325.37720,0.07390
6327.30567,0.07187
6329.23414,0.12518
6331.16261,0.17367
6333.09108,0.18183
6335.01955,0.19969
6336.94801,0.21541
6338.87648,0.20157
6340.80495,0.18143
6342.73342,0.15023
6344.66189,0.07555
6346.59036,0.01103
6348.51883,0.01935
6350.44729,0.04529
6352.37576,0.04827
6354.30423,0.04622
6356.23270,0.01972
6358.16117,-0.04384
6360.08964,-0.07366
6362.01811,-0.00895
6363.94658,0.09127
6365.87504,0.14217
6367.80351,0.14501
6369.73198,0.15069
6371.66045,0.15884
6373.58892,0.13101
6375.51739,0.07885
6377.44586,0.02302
6379.37432,-0.03032
6381.30279,-0.04199
6383.23126,-0.00358
6385.15973,0.04793
6387.08820,0.08818
6389.01667,0.10428
6390.94514,0.11507
6392.87361,0.11052
6394.80207,0.07526
6396.73054,0.06852
6398.65901,0.08788
6400.58748,0.08829
6402.51595,0.08545
6404.44442,0.11479
6406.37289,0.15054
6408.30135,0.18295
6410.22982,0.23176
6412.15829,0.22869
6414.08676,0.15133
6416.01523,0.07012
6417.94370,0.03579
6419.87217,0.07271
6421.80064,0.14079
6423.72910,0.18433
6425.65757,0.15518
6427.58604,0.09683
6429.51451,0.10921
6431.44298,0.15276
6433.37145,0.13980
6435.29992,0.08930
6437.22838,0.03396
6439.15685,0.00119
6441.08532,0.01873
6443.01379,0.05811
6444.94226,0.06351
6446.87073,0.06135
6448.79920,0.08151
6450.72766,0.09249
6452.65613,0.08249
6454.58460,0.07999
6456.51307,0.10118
6458.44154,0.12235
6460.37001,0.12183
6462.29848,0.11931
6464.22695,0.13066
6466.15541,0.11911
6468.08388,0.06068
6470.01235,-0.00294
6471.94082,-0.03333
6473.86929,-0.03334
6475.79776,-0.01998
6477.72623,-0.00595
6479.65469,0.01477
6481.58316,0.03552
6483.51163,0.03531
6485.44010,0.03710
6487.36857,0.03992
6489.29704,0.00141
6491.22551,-0.03460
6493.15398,0.00238
6495.08244,0.07682
6497.01091,0.12406
6498.93938,0.10967
6500.86785,0.07799
6502.79632,0.08688
6504.72479,0.08716
6506.65326,0.05272
6508.58172,0.02156
6510.51019,0.00330
6512.43866,-0.01237
6514.36713,0.00752
6516.29560,0.08141
6518.22407,0.15556
6520.15254,0.18159
6522.08101,0.16271
6524.00947,0.11085
6525.93794,0.05413
6527.86641,0.04713
6529.79488,0.08835
6531.72335,0.13355
6533.65182,0.16139
6535.58029,0.14089
6537.50875,0.08081
6539.43722,0.05553
6541.36569,0.09658
6543.29416,0.14197
6545.22263,0.14168
6547.15110,0.13980
6549.07957,0.17003
6551.00804,0.22233
6552.93650,0.23617
6554.86497,0.18192
6556.79344,0.11935
6558.72191,0.07081
6560.65038,0.03411
6562.57885,-0.00278
6564.50732,-0.04824
6566.43578,-0.03945
6568.36425,0.03023
6570.29272,0.06815
6572.22119,0.04359
6574.14966,0.01803
6576.07813,0.02070
6578.00660,0.05642
6579.93507,0.10983
6581.86353,0.13300
6583.79200,0.10202
6585.72047,0.03827
6587.64894,0.02200
6589.57741,0.08433
6591.50588,0.11922
6593.43435,0.06791
6595.36281,-0.01518
6597.29128,-0.07765
6599.21975,-0.05403
6601.14822,-0.00139
6603.07669,-0.05780
6605.00516,-0.10042
6606.93363,-0.04052
6608.86210,0.02653
6610.79056,0.07186
6612.71903,0.13670
6614.64750,0.18140
6616.57597,0.12553
6618.50444,0.02329
6620.43291,0.01476
6622.36138,0.05599
6624.28984,0.04331
6626.21831,0.04028
6628.14678,0.08426
6630.07525,0.10052
6632.00372,0.07418
6633.93219,0.03126
6635.86066,0.03039
6637.78912,0.09360
6639.71759,0.12989
6641.64606,0.15045
6643.57453,0.16755
6645.50300,0.10654
6647.43147,0.03795
6649.35994,0.04108
6651.28841,0.03543
6653.21687,0.04579
6655.14534,0.10675
6657.07381,0.11229
6659.00228,0.07897
6660.93075,0.10297
6662.85922,0.13656
6664.78769,0.11786
6666.71615,0.07531
6668.64462,0.06055
6670.57309,0.06025
6672.50156,0.12158
6674.43003,0.26828
6676.35850,0.33458
6678.28697,0.26219
6680.21544,0.20566
6682.14390,0.20551
6684.07237,0.15441
6686.00084,0.11198
6687.92931,0.15084
6689.85778,0.14145
6691.78625,0.07223
6693.71472,0.06380
6695.64318,0.10317
6697.57165,0.11363
6699.50012,0.13016
6701.42859,0.16769
6703.35706,0.11715
6705.28553,0.01693
6707.21400,0.02015
6709.14247,0.10500
6711.07093,0.17123
6712.99940,0.19489
6714.92787,0.17747
6716.85634,0.14424
6718.78481,0.09366
6720.71328,0.03357
6722.64175,0.01956
6724.57021,0.04184
6726.49868,0.03798
6728.42715,-0.01064
6730.35562,-0.01108
6732.28409,0.06902
6734.21256,0.09100
6736.14103,0.02067
6738.06950,-0.03379
6739.99796,-0.04200
6741.92643,-0.00382
6743.85490,0.03896
6745.78337,-0.01220
6747.71184,-0.09878
6749.64031,-0.08117
6751.56878,0.00868
6753.49724,0.06920
6755.42571,0.03610
6757.35418,-0.06993
6759.28265,-0.14436
6761.21112,-0.12727
6763.13959,-0.05907
6765.06806,0.04160
6766.99653,0.14183
6768.92499,0.11672
6770.85346,-0.06022
6772.78193,-0.22578
6774.71040,-0.25680
6776.63887,-0.18692
6778.56734,-0.13118
6780.49581,-0.11255
6782.42427,-0.09953
6784.35274,-0.08384
6786.28121,-0.05459
6788.20968,-0.01062
6790.13815,0.02441
6792.06662,0.03019
6793.99509,0.05799
6795.92355,0.04546
6797.85202,-0.01873
6799.78049,-0.00413
6801.70896,0.09714
6803.63743,0.17936
6805.56590,0.21738
6807.49437,0.20629
6809.42284,0.13594
6811.35130,0.04889
6813.27977,-0.03320
6815.20824,-0.08058
6817.13671,-0.03916
6819.06518,-0.01536
6820.99365,-0.04790
6822.92212,0.00878
6824.85058,0.13576
6826.77905,0.16499
6828.70752,0.10273
6830.63599,0.04755
6832.56446,0.03112
6834.49293,0.03796
6836.42140,0.06488
6838.34987,0.07606
6840.27833,0.07579
6842.20680,0.08941
6844.13527,0.10270
6846.06374,0.15623
6847.99221,0.23755
6849.92068,0.19596
6851.84915,0.07711
6853.77761,0.02880
6855.70608,0.09104
6857.63455,0.18359
6859.56302,0.13980
6861.49149,0.00188
6863.41996,0.00303
6865.34843,0.11319
6867.27690,0.12950
6869.20536,0.06948
6871.13383,0.09525
6873.06230,0.22290
6874.99077,0.24769
6876.91924,0.15963
6878.84771,0.16973
6880.77618,0.25185
6882.70464,0.17355
6884.63311,-0.01620
6886.56158,-0.12178
6888.49005,-0.08081
6890.41852,-0.02104
6892.34699,-0.01031
6894.27546,0.01937
6896.20393,0.06414
6898.13239,0.11885
6900.06086,0.20862
6901.98933,0.25404
6903.91780,0.15804
6905.84627,-0.00628
6907.77474,-0.03699
6909.70321,0.04422
6911.63167,0.07841
6913.56014,0.03832
6915.48861,0.03913
6917.41708,0.12719
6919.34555,0.20034
6921.27402,0.17448
6923.20249,0.07950
6925.13096,-0.00063
6927.05942,0.00399
6928.98789,0.05158
6930.91636,0.07902
6932.84483,0.08314
6934.77330,0.09384
6936.70177,0.10399
6938.63024,0.09394
6940.55870,0.09534
6942.48717,0.03104
6944.41564,-0.09226
6946.34411,-0.11549
6948.27258,-0.06454
6950.20105,-0.04776
6952.12952,-0.07661
6954.05799,-0.10967
6955.98645,-0.04341
6957.91492,0.12889
6959.84339,0.29572
6961.77186,0.32699
6963.70033,0.20443
6965.62880,0.09969
6967.55727,0.12492
6969.48573,0.16498
6971.41420,0.13277
6973.34267,0.09950
6975.27114,0.02401
6977.19961,-0.07839
6979.12808,-0.11237
6981.05655,-0.07525
6982.98501,0.00291
6984.91348,-0.01063
6986.84195,-0.06896
6988.77042,0.04471
6990.69889,0.18367
6992.62736,0.16966
6994.55583,0.09145
6996.48430,0.01754
6998.41276,-0.04959
7000.34123,-0.08877
7002.26970,-0.07021
7004.19817,0.00379
7006.12664,0.11706
7008.05511,0.15927
7009.98358,0.07139
7011.91204,-0.01856
7013.84051,-0.01032
7015.76898,0.06758
7017.69745,0.07481
7019.62592,-0.03818
7021.55439,-0.06872
7023.48286,0.06411
7025.41133,0.20036
7027.33979,0.31789
7029.26826,0.33267
7031.19673,0.14631
7033.12520,0.01353
7035.05367,0.03633
7036.98214,0.02801
7038.91061,0.00617
7040.83907,0.03733
7042.76754,0.05240
7044.69601,0.07219
7046.62448,0.08961
7048.55295,0.01268
7050.48142,-0.08357
7052.40989,-0.10160
7054.33836,-0.02649
7056.26682,0.11191
7058.19529,0.20276
7060.12376,0.14292
7062.05223,0.08177
7063.98070,0.13670
7065.90917,0.16288
7067.83764,0.16827
7069.76610,0.26375
7071.69457,0.25989
7073.62304,0.09223
7075.55151,0.00451
7077.47998,0.01449
7079.40845,-0.02188
7081.33692,-0.10876
7083.26539,-0.08858
7085.19385,-0.00003
7087.12232,0.07416
7089.05079,0.14075
7090.97926,0.23587
7092.90773,0.28954
7094.83620,0.17379
7096.76467,0.00860
7098.69313,-0.06412
7100.62160,-0.14081
7102.55007,-0.22988
7104.47854,-0.24643
7106.40701,-0.18857
7108.33548,-0.08523
7110.26395,0.04122
7112.19242,0.13553
7114.12088,0.21100
7116.04935,0.34996
7117.97782,0.41517
7119.90629,0.30056
7121.83476,0.21024
7123.76323,0.17947
7125.69170,0.11645
7127.62016,0.04728
7129.54863,0.07626
7131.47710,0.11697
7133.40557,0.06341
7135.33404,-0.02212
7137.26251,-0.09715
7139.19098,-0.10079
7141.11944,-0.00411
7143.04791,0.07348
7144.97638,0.08429
7146.90485,0.07992
7148.83332,0.09571
7150.76179,0.18284
7152.69026,0.30084
7154.61873,0.28191
7156.54719,0.16562
7158.47566,0.06883
7160.40413,0.00497
7162.33260,0.00176
7164.26107,0.06917
7166.18954,0.21863
7168.11801,0.39437
7170.04647,0.45727
7171.97494,0.40479
7173.90341,0.31972
7175.83188,0.21302
7177.76035,0.16459
7179.68882,0.13373
7181.61729,-0.03751
7183.54576,-0.24917
7185.47422,-0.19676
7187.40269,0.02847
7189.33116,0.16458
7191.25963,0.16963
7193.18810,0.15873
7195.11657,0.19970
7197.04504,0.23222
7198.97350,0.19490
7200.90197,0.17354
7202.83044,0.17383
7204.75891,0.06651
7206.68738,-0.06214
7208.61585,-0.01644
7210.54432,0.13886
7212.47279,0.28035
7214.40125,0.37830
7216.32972,0.40690
7218.25819,0.33660
7220.18666,0.26744
7222.11513,0.23402
7224.04360,0.15464
7225.97207,-0.01908
7227.90053,-0.16131
7229.82900,-0.19412
7231.75747,-0.15031
7233.68594,-0.11657
7235.61441,-0.12708
7237.54288,-0.03097
7239.47135,0.16611
7241.39982,0.28634
7243.32828,0.33471
7245.25675,0.39453
7247.18522,0.42618
7249.11369,0.32719
7251.04216,0.12138
7252.97063,-0.03735
7254.89910,-0.07253
7256.82756,-0.02065
7258.75603,0.06039
7260.68450,0.06737
7262.61297,0.00804
7264.54144,-0.06421
7266.46991,-0.19223
7268.39838,-0.22664
7270.32685,-0.08229
7272.25531,0.11675
7274.18378,0.20477
7276.11225,0.16288
7278.04072,0.11102
7279.96919,0.20863
7281.89766,0.39945
7283.82613,0.39628
7285.75459,0.17591
7287.68306,-0.01290
7289.61153,-0.05577
7291.54000,0.04311
7293.46847,0.19944
7295.39694,0.15986
7297.32541,-0.00469
7299.25387,0.00873
7301.18234,0.14895
7303.11081,0.24837
7305.03928,0.31966
7306.96775,0.27228
7308.89622,-0.03289
7310.82469,-0.29521
7312.75316,-0.26487
7314.68162,-0.05359
7316.61009,0.17335
7318.53856,0.26993
7320.46703,0.23565
7322.39550,0.12891
7324.32397,0.02207
7326.25244,-0.01583
7328.18090,0.08336
7330.10937,0.14541
7332.03784,0.01918
7333.96631,-0.01141
7335.89478,0.11283
7337.82325,0.28912
7339.75172,0.44853
7341.68019,0.42632
7343.60865,0.30710
7345.53712,0.17216
7347.46559,0.05036
7349.39406,0.01319
7351.32253,0.03612
7353.25100,0.00363
7355.17947,-0.07710
7357.10793,-0.02643
7359.03640,0.10737
7360.96487,0.00229
7362.89334,-0.12282
7364.82181,-0.02069
7366.75028,0.10403
7368.67875,0.15808
7370.60722,0.20311
7372.53568,0.22974
7374.46415,0.21538
7376.39262,0.09607
7378.32109,-0.01333
7380.24956,0.00856
7382.17803,0.06545
7384.10650,0.01351
7386.03496,-0.10981
7387.96343,-0.14850
7389.89190,-0.08861
7391.82037,0.05883
7393.74884,0.28338
7395.67731,0.27636
7397.60578,-0.02304
7399.53425,-0.20928
7401.46271,-0.16356
7403.39118,-0.05495
7405.31965,-0.02345
7407.24812,-0.04879
7409.17659,-0.03551
7411.10506,0.00885
7413.03353,0.04818
7414.96199,0.03407
7416.89046,-0.07374
7418.81893,-0.06639
7420.74740,0.11466
7422.67587,0.10006
7424.60434,-0.08653
7426.53281,-0.26143
7428.46128,-0.26514
7430.38974,-0.09505
7432.31821,-0.00779
7434.24668,-0.00950
7436.17515,0.03325
7438.10362,0.12207
7440.03209,0.11853
7441.96056,-0.00324
7443.88902,-0.12920
7445.81749,-0.19520
7447.74596,-0.06741
7449.67443,0.23397
7451.60290,0.38670
7453.53137,0.30103
7455.45984,0.26829
7457.38831,0.37299
7459.31677,0.44854
7461.24524,0.41684
7463.17371,0.40813
7465.10218,0.34651
7467.03065,0.21857
7468.95912,0.10309
7470.88759,-0.02779
7472.81605,-0.12219
7474.74452,-0.11800
7476.67299,-0.02436
7478.60146,0.18740
7480.52993,0.33789
7482.45840,0.18967
7484.38687,-0.03057
7486.31533,-0.04242
7488.24380,0.14607
7490.17227,0.21164
7492.10074,0.02025
7494.02921,-0.06142
7495.95768,0.05021
7497.88615,0.16689
