399.19301,0.27316
401.12148,-0.12406
403.04995,-0.26964
404.97842,-0.34630
406.90689,-0.41039
408.83536,-0.16442
410.76382,-0.18503
412.69229,-0.26258
414.62076,0.96503
416.54923,2.34830
418.47770,2.41581
420.40617,2.17039
422.33464,1.95919
424.26311,1.22276
426.19157,0.44385
428.12004,-0.11315
430.04851,-0.40145
431.97698,-0.20993
433.90545,0.17461
435.83392,0.31484
437.76239,0.15301
439.69085,-0.07077
441.61932,-0.04980
443.54779,0.13979
445.47626,0.12727
447.40473,-0.02294
449.33320,-0.05117
451.26167,0.06251
453.19013,0.20540
455.11860,0.27771
457.04707,0.21114
458.97554,0.11941
460.90401,0.08056
462.83248,0.03775
464.76095,0.01580
466.68942,0.02750
468.61788,0.04074
470.54635,0.05240
472.47482,0.08315
474.40329,0.06955
476.33176,0.01877
478.26023,0.02835
480.18870,0.06476
482.11716,0.08808
484.04563,0.10543
485.97410,0.12835
487.90257,0.13899
489.83104,0.14749
491.75951,0.13688
493.68798,0.09597
495.61645,0.09044
497.54491,0.13813
499.47338,0.15904
501.40185,0.13811
503.33032,0.12921
505.25879,0.12087
507.18726,0.11636
509.11573,0.13107
511.04419,0.11956
512.97266,0.09095
514.90113,0.07360
516.82960,0.06825
518.75807,0.08033
520.68654,0.09251
522.61501,0.09626
524.54348,0.09036
526.47194,0.07119
528.40041,0.06625
530.32888,0.08227
532.25735,0.08850
534.18582,0.10124
536.11429,0.15407
538.04276,0.19656
539.97122,0.19920
541.89969,0.18415
543.82816,0.14983
545.75663,0.09993
547.68510,0.06526
549.61357,0.08091
551.54204,0.14594
553.47051,0.19612
555.39897,0.15869
557.32744,0.08089
559.25591,0.06482
561.18438,0.09432
563.11285,0.10383
565.04132,0.09215
566.96979,0.09320
568.89825,0.11458
570.82672,0.14680
572.75519,0.16487
574.68366,0.15155
576.61213,0.13460
578.54060,0.12432
580.46907,0.11450
582.39754,0.11892
584.32600,0.13185
586.25447,0.14010
588.18294,0.12234
590.11141,0.06200
592.03988,0.01940
593.96835,0.05457
595.89682,0.11415
597.82528,0.13996
599.75375,0.14530
601.68222,0.13960
603.61069,0.12207
605.53916,0.12219
607.46763,0.12740
609.39610,0.11315
611.32456,0.11253
613.25303,0.12619
615.18150,0.10227
617.10997,0.05191
619.03844,0.04271
620.96691,0.09561
622.89538,0.15103
624.82385,0.15216
626.75231,0.12624
628.68078,0.12987
630.60925,0.19800
632.53772,0.27243
634.46619,0.24360
636.39466,0.17911
638.32313,0.17220
640.25159,0.18093
642.18006,0.17202
644.10853,0.16102
646.03700,0.16103
647.96547,0.16658
649.89394,0.17263
651.82241,0.18479
653.75088,0.18948
655.67934,0.17655
657.60781,0.15733
659.53628,0.14653
661.46475,0.14327
663.39322,0.13800
665.32169,0.12898
667.25016,0.12785
669.17862,0.16137
671.10709,0.17794
673.03556,0.16283
674.96403,0.15699
676.89250,0.16778
678.82097,0.17258
680.74944,0.16569
682.67791,0.15748
684.60637,0.15811
686.53484,0.15411
688.46331,0.12811
690.39178,0.10989
692.32025,0.12354
694.24872,0.14073
696.17719,0.14061
698.10565,0.13461
700.03412,0.13235
701.96259,0.13666
703.89106,0.14542
705.81953,0.15297
707.74800,0.15612
709.67647,0.13663
711.60494,0.10570
713.53340,0.10739
715.46187,0.12615
717.39034,0.13391
719.31881,0.14103
721.24728,0.14686
723.17575,0.15048
725.10422,0.15739
727.03268,0.16517
728.96115,0.16702
730.88962,0.16125
732.81809,0.14902
734.74656,0.13621
736.67503,0.13894
738.60350,0.15030
740.53197,0.14974
742.46043,0.14101
744.38890,0.13749
746.31737,0.13821
748.24584,0.13858
750.17431,0.14144
752.10278,0.14151
754.03125,0.13624
755.95971,0.13610
757.88818,0.14223
759.81665,0.14506
761.74512,0.13631
763.67359,0.12320
765.60206,0.12388
767.53053,0.13573
769.45900,0.14203
771.38746,0.13768
773.31593,0.13390
775.24440,0.14061
777.17287,0.14610
779.10134,0.14283
781.02981,0.14469
782.95828,0.15640
784.88674,0.16798
786.81521,0.16202
788.74368,0.12542
790.67215,0.09672
792.60062,0.11700
794.52909,0.15059
796.45756,0.15853
798.38602,0.15432
800.31449,0.14868
802.24296,0.14140
804.17143,0.13525
806.09990,0.13111
808.02837,0.12719
809.95684,0.12729
811.88531,0.13315
813.81377,0.14390
815.74224,0.15514
817.67071,0.15255
819.59918,0.13894
821.52765,0.13457
823.45612,0.14547
825.38459,0.15594
827.31305,0.15341
829.24152,0.14763
831.16999,0.14576
833.09846,0.13901
835.02693,0.12544
836.95540,0.11719
838.88387,0.12559
840.81234,0.14654
842.74080,0.16007
844.66927,0.15825
846.59774,0.15474
848.52621,0.15621
850.45468,0.15622
852.38315,0.15623
854.31162,0.16332
856.24008,0.16519
858.16855,0.15152
860.09702,0.13926
862.02549,0.13986
863.95396,0.14598
865.88243,0.15059
867.81090,0.14790
869.73937,0.14532
871.66783,0.15888
873.59630,0.17361
875.52477,0.16909
877.45324,0.16044
879.38171,0.15869
881.31018,0.15496
883.23865,0.15072
885.16711,0.15018
887.09558,0.14912
889.02405,0.14943
890.95252,0.15140
892.88099,0.14753
894.80946,0.14374
896.73793,0.14649
898.66640,0.14612
900.59486,0.14473
902.52333,0.15041
904.45180,0.15140
906.38027,0.14526
908.30874,0.14722
910.23721,0.15622
912.16568,0.16294
914.09414,0.16512
916.02261,0.16121
917.95108,0.15587
919.87955,0.15643
921.80802,0.15809
923.73649,0.15453
925.66496,0.15294
927.59343,0.15504
929.52189,0.15586
931.45036,0.16050
933.37883,0.16555
935.30730,0.16210
937.23577,0.15803
939.16424,0.16175
941.09271,0.17019
943.02117,0.17444
944.94964,0.16766
946.87811,0.15879
948.80658,0.15560
950.73505,0.15563
952.66352,0.16234
954.59199,0.16887
956.52045,0.16617
958.44892,0.16059
960.37739,0.15285
962.30586,0.14592
964.23433,0.14838
966.16280,0.15404
968.09127,0.15293
970.01974,0.15006
971.94820,0.15149
973.87667,0.15165
975.80514,0.14852
977.73361,0.14803
979.66208,0.15278
981.59055,0.15658
983.51902,0.15414
985.44748,0.15053
987.37595,0.15183
989.30442,0.15899
991.23289,0.16916
993.16136,0.17695
995.08983,0.17715
997.01830,0.17048
998.94677,0.16476
1000.87523,0.16456
1002.80370,0.16801
1004.73217,0.17203
1006.66064,0.17366
1008.58911,0.16987
1010.51758,0.16302
1012.44605,0.15980
1014.37451,0.16089
1016.30298,0.16277
1018.23145,0.16364
1020.15992,0.16305
1022.08839,0.16227
1024.01686,0.16334
1025.94533,0.16757
1027.87380,0.17223
1029.80226,0.17023
1031.73073,0.16421
1033.65920,0.15892
1035.58767,0.15228
1037.51614,0.15310
1039.44461,0.16499
1041.37308,0.17260
1043.30154,0.17092
1045.23001,0.16795
1047.15848,0.16505
1049.08695,0.16592
1051.01542,0.17335
1052.94389,0.17814
1054.87236,0.18315
1056.80083,0.19220
1058.72929,0.19181
1060.65776,0.18388
1062.58623,0.18006
1064.51470,0.17731
1066.44317,0.17394
1068.37164,0.17309
1070.30011,0.17545
1072.22857,0.18224
1074.15704,0.19019
1076.08551,0.19376
1078.01398,0.19161
1079.94245,0.18494
1081.87092,0.17680
1083.79939,0.17317
1085.72786,0.17710
1087.65632,0.18219
1089.58479,0.17944
1091.51326,0.16846
1093.44173,0.16109
1095.37020,0.16243
1097.29867,0.16157
1099.22714,0.15940
1101.15560,0.16676
1103.08407,0.16919
1105.01254,0.15095
1106.94101,0.13905
1108.86948,0.15339
1110.79795,0.16847
1112.72642,0.17089
1114.65489,0.17273
1116.58335,0.17936
1118.51182,0.18850
1120.44029,0.18909
1122.36876,0.17573
1124.29723,0.16404
1126.22570,0.16525
1128.15417,0.16929
1130.08263,0.16658
1132.01110,0.16199
1133.93957,0.15932
1135.86804,0.15625
1137.79651,0.15613
1139.72498,0.16101
1141.65345,0.16541
1143.58191,0.16824
1145.51038,0.17037
1147.43885,0.16955
1149.36732,0.16663
1151.29579,0.16581
1153.22426,0.16764
1155.15273,0.17083
1157.08120,0.17484
1159.00966,0.17456
1160.93813,0.16941
1162.86660,0.16524
1164.79507,0.16470
1166.72354,0.16521
1168.65201,0.16236
1170.58048,0.16189
1172.50894,0.16612
1174.43741,0.16780
1176.36588,0.17015
1178.29435,0.17346
1180.22282,0.17087
1182.15129,0.16643
1184.07976,0.16520
1186.00823,0.16518
1187.93669,0.16479
1189.86516,0.16514
1191.79363,0.16920
1193.72210,0.17595
1195.65057,0.18071
1197.57904,0.18184
1199.50751,0.17925
1201.43597,0.17429
1203.36444,0.17103
1205.29291,0.17291
1207.22138,0.17800
1209.14985,0.18077
1211.07832,0.18001
1213.00679,0.17855
1214.93526,0.17744
1216.86372,0.17521
1218.79219,0.17389
1220.72066,0.17686
1222.64913,0.18027
1224.57760,0.17832
1226.50607,0.17225
1228.43454,0.17009
1230.36300,0.17584
1232.29147,0.18037
1234.21994,0.17505
1236.14841,0.16679
1238.07688,0.16585
1240.00535,0.17152
1241.93382,0.17720
1243.86229,0.17754
1245.79075,0.17237
1247.71922,0.16871
1249.64769,0.17039
1251.57616,0.17419
1253.50463,0.17849
1255.43310,0.18125
1257.36157,0.17954
1259.29003,0.17638
1261.21850,0.17381
1263.14697,0.17031
1265.07544,0.17106
1267.00391,0.17612
1268.93238,0.17675
1270.86085,0.17504
1272.78932,0.17574
1274.71778,0.17733
1276.64625,0.17937
1278.57472,0.17997
1280.50319,0.17679
1282.43166,0.17375
1284.36013,0.17511
1286.28860,0.17824
1288.21706,0.18068
1290.14553,0.18252
1292.07400,0.18130
1294.00247,0.17783
1295.93094,0.17734
1297.85941,0.17856
1299.78788,0.17590
1301.71634,0.16915
1303.64481,0.16294
1305.57328,0.16477
1307.50175,0.17333
1309.43022,0.17810
1311.35869,0.17899
1313.28716,0.18146
1315.21563,0.18461
1317.14409,0.18655
1319.07256,0.18568
1321.00103,0.18218
1322.92950,0.17938
1324.85797,0.17741
1326.78644,0.17960
1328.71491,0.18574
1330.64337,0.18419
1332.57184,0.17774
1334.50031,0.17643
1336.42878,0.17705
1338.35725,0.17675
1340.28572,0.17693
1342.21419,0.17290
1344.14266,0.16404
1346.07112,0.16538
1347.99959,0.17616
1349.92806,0.17809
1351.85653,0.17501
1353.78500,0.17644
1355.71347,0.18004
1357.64194,0.18199
1359.57040,0.18245
1361.49887,0.18562
1363.42734,0.18903
1365.35581,0.18829
1367.28428,0.18689
1369.21275,0.18675
1371.14122,0.18935
1373.06969,0.19514
1374.99815,0.19620
1376.92662,0.19051
1378.85509,0.18784
1380.78356,0.18963
1382.71203,0.18945
1384.64050,0.18650
1386.56897,0.18656
1388.49743,0.18986
1390.42590,0.19289
1392.35437,0.19575
1394.28284,0.19701
1396.21131,0.19643
1398.13978,0.19537
1400.06825,0.19269
1401.99672,0.19118
1403.92518,0.19411
1405.85365,0.19677
1407.78212,0.19417
1409.71059,0.19102
1411.63906,0.18995
1413.56753,0.19017
1415.49600,0.19389
1417.42446,0.19805
1419.35293,0.19230
1421.28140,0.18654
1423.20987,0.19124
1425.13834,0.19806
1427.06681,0.20004
1428.99528,0.19778
1430.92375,0.19422
1432.85221,0.19204
1434.78068,0.19120
1436.70915,0.19172
1438.63762,0.19303
1440.56609,0.19294
1442.49456,0.19195
1444.42303,0.19339
1446.35149,0.19816
1448.27996,0.20191
1450.20843,0.20306
1452.13690,0.20419
1454.06537,0.20601
1455.99384,0.21291
1457.92231,0.21874
1459.85077,0.20812
1461.77924,0.19985
1463.70771,0.20023
1465.63618,0.20034
1467.56465,0.19593
1469.49312,0.19631
1471.42159,0.20737
1473.35006,0.21885
1475.27852,0.21360
1477.20699,0.20288
1479.13546,0.19550
1481.06393,0.19158
1482.99240,0.19177
1484.92087,0.19604
1486.84934,0.20270
1488.77780,0.20914
1490.70627,0.20709
1492.63474,0.20046
1494.56321,0.20236
1496.49168,0.21254
1498.42015,0.21792
1500.34862,0.22130
1502.27709,0.23111
1504.20555,0.24533
1506.13402,0.25877
1508.06249,0.24663
1509.99096,0.22471
1511.91943,0.21224
1513.84790,0.20731
1515.77637,0.20798
1517.70483,0.21135
1519.63330,0.21880
1521.56177,0.22649
1523.49024,0.22612
1525.41871,0.22597
1527.34718,0.22270
1529.27565,0.21414
1531.20412,0.20916
1533.13258,0.20801
1535.06105,0.20623
1536.98952,0.20838
1538.91799,0.22311
1540.84646,0.24303
1542.77493,0.24074
1544.70340,0.22927
1546.63186,0.21979
1548.56033,0.21617
1550.48880,0.21455
1552.41727,0.21270
1554.34574,0.21280
1556.27421,0.21579
1558.20268,0.22096
1560.13115,0.21392
1562.05961,0.20622
1563.98808,0.20596
1565.91655,0.20870
1567.84502,0.21261
1569.77349,0.21194
1571.70196,0.20578
1573.63043,0.20724
1575.55889,0.21395
1577.48736,0.20764
1579.41583,0.19506
1581.34430,0.18862
1583.27277,0.18691
1585.20124,0.18614
1587.12971,0.18639
1589.05818,0.18938
1590.98664,0.19216
1592.91511,0.19169
1594.84358,0.18966
1596.77205,0.19040
1598.70052,0.19296
1600.62899,0.19247
1602.55746,0.19056
1604.48592,0.19097
1606.41439,0.19228
1608.34286,0.19210
1610.27133,0.19064
1612.19980,0.19156
1614.12827,0.19878
1616.05674,0.21202
1617.98521,0.21686
1619.91367,0.21148
1621.84214,0.20904
1623.77061,0.21161
1625.69908,0.21495
1627.62755,0.21357
1629.55602,0.20795
1631.48449,0.20790
1633.41295,0.21921
1635.34142,0.23473
1637.26989,0.22947
1639.19836,0.21704
1641.12683,0.21184
1643.05530,0.21335
1644.98377,0.22684
1646.91223,0.24719
1648.84070,0.24953
1650.76917,0.24877
1652.69764,0.25485
1654.62611,0.24063
1656.55458,0.22112
1658.48305,0.21062
1660.41152,0.20838
1662.33998,0.21244
1664.26845,0.21332
1666.19692,0.21518
1668.12539,0.22617
1670.05386,0.23416
1671.98233,0.22766
1673.91080,0.21834
1675.83926,0.21109
1677.76773,0.21200
1679.69620,0.22159
1681.62467,0.23593
1683.55314,0.24736
1685.48161,0.24042
1687.41008,0.23118
1689.33855,0.22647
1691.26701,0.22069
1693.19548,0.21948
1695.12395,0.22844
1697.05242,0.23936
1698.98089,0.23934
1700.90936,0.23039
1702.83783,0.22377
1704.76629,0.22073
1706.69476,0.21554
1708.62323,0.20832
1710.55170,0.20374
1712.48017,0.20652
1714.40864,0.21983
1716.33711,0.23648
1718.26558,0.23406
1720.19404,0.22036
1722.12251,0.21230
1724.05098,0.20690
1725.97945,0.20264
1727.90792,0.20233
1729.83639,0.20677
1731.76486,0.21574
1733.69332,0.22150
1735.62179,0.21478
1737.55026,0.21167
1739.47873,0.21422
1741.40720,0.21381
1743.33567,0.21133
1745.26414,0.21345
1747.19261,0.22002
1749.12107,0.22415
1751.04954,0.22082
1752.97801,0.21379
1754.90648,0.20826
1756.83495,0.20636
1758.76342,0.20784
1760.69189,0.20981
1762.62035,0.20931
1764.54882,0.20820
1766.47729,0.21066
1768.40576,0.21619
1770.33423,0.22201
1772.26270,0.22265
1774.19117,0.21716
1776.11964,0.21442
1778.04810,0.21427
1779.97657,0.21275
1781.90504,0.20834
1783.83351,0.20492
1785.76198,0.20549
1787.69045,0.20771
1789.61892,0.21237
1791.54738,0.21986
1793.47585,0.22109
1795.40432,0.21531
1797.33279,0.21050
1799.26126,0.20819
1801.18973,0.20648
1803.11820,0.20400
1805.04666,0.20188
1806.97513,0.20151
1808.90360,0.20378
1810.83207,0.20631
1812.76054,0.20449
1814.68901,0.19904
1816.61748,0.18927
1818.54595,0.18171
1820.47441,0.18977
1822.40288,0.20401
1824.33135,0.20867
1826.25982,0.20952
1828.18829,0.21445
1830.11676,0.21600
1832.04523,0.21065
1833.97369,0.20667
1835.90216,0.20571
1837.83063,0.20592
1839.75910,0.20840
1841.68757,0.21279
1843.61604,0.21513
1845.54451,0.21241
1847.47298,0.20843
1849.40144,0.20462
1851.32991,0.20148
1853.25838,0.20047
1855.18685,0.20096
1857.11532,0.20228
1859.04379,0.20275
1860.97226,0.20147
1862.90072,0.20101
1864.82919,0.20518
1866.75766,0.21439
1868.68613,0.21925
1870.61460,0.21319
1872.54307,0.20726
1874.47154,0.20648
1876.40001,0.20699
1878.32847,0.20636
1880.25694,0.20518
1882.18541,0.20385
1884.11388,0.20230
1886.04235,0.20121
1887.97082,0.20228
1889.89929,0.20499
1891.82775,0.20615
1893.75622,0.20472
1895.68469,0.20163
1897.61316,0.19951
1899.54163,0.19960
1901.47010,0.20032
1903.39857,0.20175
1905.32704,0.20448
1907.25550,0.20647
1909.18397,0.20608
1911.11244,0.20404
1913.04091,0.20243
1914.96938,0.20365
1916.89785,0.20625
1918.82632,0.20655
1920.75478,0.20711
1922.68325,0.20771
1924.61172,0.20388
1926.54019,0.20035
1928.46866,0.20196
1930.39713,0.20495
1932.32560,0.20617
1934.25407,0.20554
1936.18253,0.20251
1938.11100,0.20036
1940.03947,0.20277
1941.96794,0.20677
1943.89641,0.20738
1945.82488,0.20575
1947.75335,0.20480
1949.68181,0.20450
1951.61028,0.20484
1953.53875,0.20645
1955.46722,0.20850
1957.39569,0.20898
1959.32416,0.20802
1961.25263,0.20664
1963.18110,0.20551
1965.10956,0.20609
1967.03803,0.20708
1968.96650,0.20678
1970.89497,0.20654
1972.82344,0.20546
1974.75191,0.20279
1976.68038,0.20253
1978.60884,0.20584
1980.53731,0.20795
1982.46578,0.20618
1984.39425,0.20253
1986.32272,0.20087
1988.25119,0.20447
1990.17966,0.21093
1992.10812,0.21329
1994.03659,0.21152
1995.96506,0.20990
1997.89353,0.20717
1999.82200,0.20442
2001.75047,0.20443
2003.67894,0.20445
2005.60741,0.20393
2007.53587,0.20593
2009.46434,0.20804
2011.39281,0.20586
2013.32128,0.20218
2015.24975,0.20197
2017.17822,0.20302
2019.10669,0.20224
2021.03515,0.20179
2022.96362,0.20142
2024.89209,0.19994
2026.82056,0.19875
2028.74903,0.19885
2030.67750,0.20041
2032.60597,0.20095
2034.53444,0.19996
2036.46290,0.20069
2038.39137,0.20260
2040.31984,0.20432
2042.24831,0.20634
2044.17678,0.20743
2046.10525,0.20633
2048.03372,0.20328
2049.96218,0.20133
2051.89065,0.20205
2053.81912,0.20224
2055.74759,0.20141
2057.67606,0.20155
2059.60453,0.20227
2061.53300,0.20285
2063.46147,0.20346
2065.38993,0.20363
2067.31840,0.20299
2069.24687,0.20414
2071.17534,0.20649
2073.10381,0.20494
2075.03228,0.20105
2076.96075,0.19910
2078.88921,0.19880
2080.81768,0.20095
2082.74615,0.20517
2084.67462,0.20778
2086.60309,0.20788
2088.53156,0.20685
2090.46003,0.20589
2092.38850,0.20571
2094.31696,0.20568
2096.24543,0.20451
2098.17390,0.20169
2100.10237,0.20013
2102.03084,0.20222
2103.95931,0.20451
2105.88778,0.20455
2107.81624,0.20396
2109.74471,0.20372
2111.67318,0.20495
2113.60165,0.20801
2115.53012,0.20970
2117.45859,0.20896
2119.38706,0.20833
2121.31553,0.20736
2123.24399,0.20497
2125.17246,0.20328
2127.10093,0.20317
2129.02940,0.20412
2130.95787,0.20566
2132.88634,0.20265
2134.81481,0.19819
2136.74327,0.20351
2138.67174,0.20936
2140.60021,0.20485
2142.52868,0.20094
2144.45715,0.20297
2146.38562,0.20406
2148.31409,0.20287
2150.24255,0.20297
2152.17102,0.20411
2154.09949,0.20325
2156.02796,0.20181
2157.95643,0.20312
2159.88490,0.20604
2161.81337,0.20879
2163.74184,0.21028
2165.67030,0.20869
2167.59877,0.20632
2169.52724,0.20487
2171.45571,0.20342
2173.38418,0.20347
2175.31265,0.20414
2177.24112,0.20466
2179.16958,0.20667
2181.09805,0.20749
2183.02652,0.20529
2184.95499,0.20251
2186.88346,0.20145
2188.81193,0.20256
2190.74040,0.20359
2192.66887,0.20325
2194.59733,0.20330
2196.52580,0.20524
2198.45427,0.20663
2200.38274,0.20489
2202.31121,0.20353
2204.23968,0.20435
2206.16815,0.20403
2208.09661,0.20307
2210.02508,0.20365
2211.95355,0.20537
2213.88202,0.20715
2215.81049,0.20781
2217.73896,0.20704
2219.66743,0.20517
2221.59590,0.20356
2223.52436,0.20426
2225.45283,0.20716
2227.38130,0.20853
2229.30977,0.20568
2231.23824,0.20187
2233.16671,0.20028
2235.09518,0.20009
2237.02364,0.20033
2238.95211,0.20169
2240.88058,0.20369
2242.80905,0.20406
2244.73752,0.20297
2246.66599,0.20200
2248.59446,0.20342
2250.52293,0.20744
2252.45139,0.20821
2254.37986,0.20340
2256.30833,0.19923
2258.23680,0.19932
2260.16527,0.20072
2262.09374,0.20174
2264.02221,0.20264
2265.95067,0.20386
2267.87914,0.20574
2269.80761,0.20687
2271.73608,0.20780
2273.66455,0.20974
2275.59302,0.21043
2277.52149,0.20847
2279.44996,0.20576
2281.37842,0.20514
2283.30689,0.20752
2285.23536,0.20970
2287.16383,0.20822
2289.09230,0.20485
2291.02077,0.20331
2292.94924,0.20461
2294.87770,0.20653
2296.80617,0.20719
2298.73464,0.20740
2300.66311,0.20758
2302.59158,0.20710
2304.52005,0.20570
2306.44852,0.20327
2308.37699,0.20047
2310.30545,0.19983
2312.23392,0.20198
2314.16239,0.20429
2316.09086,0.20643
2318.01933,0.20854
2319.94780,0.21064
2321.87627,0.21283
2323.80473,0.21305
2325.73320,0.21169
2327.66167,0.21179
2329.59014,0.21754
2331.51861,0.22671
2333.44708,0.23097
2335.37555,0.22853
2337.30401,0.21968
2339.23248,0.20973
2341.16095,0.20616
2343.08942,0.20611
2345.01789,0.20490
2346.94636,0.20579
2348.87483,0.20836
2350.80330,0.20311
2352.73176,0.18420
2354.66023,0.17212
2356.58870,0.18906
2358.51717,0.20870
2360.44564,0.20592
2362.37411,0.19846
2364.30258,0.20358
2366.23104,0.21362
2368.15951,0.21509
2370.08798,0.20892
2372.01645,0.20349
2373.94492,0.20141
2375.87339,0.20167
2377.80186,0.20276
2379.73033,0.20286
2381.65879,0.20251
2383.58726,0.20333
2385.51573,0.20476
2387.44420,0.20579
2389.37267,0.20541
2391.30114,0.20372
2393.22961,0.20300
2395.15807,0.20313
2397.08654,0.20296
2399.01501,0.20310
2400.94348,0.20407
2402.87195,0.20558
2404.80042,0.20605
2406.72889,0.20522
2408.65736,0.20626
2410.58582,0.20874
2412.51429,0.20880
2414.44276,0.20778
2416.37123,0.20687
2418.29970,0.20500
2420.22817,0.20498
2422.15664,0.20817
2424.08510,0.20843
2426.01357,0.20218
2427.94204,0.19823
2429.87051,0.20239
2431.79898,0.20833
2433.72745,0.21125
2435.65592,0.21158
2437.58439,0.20898
2439.51285,0.20411
2441.44132,0.20096
2443.36979,0.20197
2445.29826,0.20431
2447.22673,0.20473
2449.15520,0.20545
2451.08367,0.20692
2453.01213,0.20568
2454.94060,0.20290
2456.86907,0.20245
2458.79754,0.20457
2460.72601,0.20523
2462.65448,0.20339
2464.58295,0.20129
2466.51142,0.20037
2468.43988,0.20255
2470.36835,0.20610
2472.29682,0.20761
2474.22529,0.20692
2476.15376,0.20649
2478.08223,0.20842
2480.01070,0.21059
2481.93916,0.21010
2483.86763,0.20743
2485.79610,0.20549
2487.72457,0.20638
2489.65304,0.20798
2491.58151,0.20728
2493.50998,0.20638
2495.43844,0.20690
2497.36691,0.20549
2499.29538,0.20288
2501.22385,0.20309
2503.15232,0.20415
2505.08079,0.20390
2507.00926,0.20419
2508.93773,0.20493
2510.86619,0.20589
2512.79466,0.20797
2514.72313,0.20826
2516.65160,0.20602
2518.58007,0.20653
2520.50854,0.20931
2522.43701,0.20927
2524.36547,0.20842
2526.29394,0.20868
2528.22241,0.20819
2530.15088,0.20983
2532.07935,0.21329
2534.00782,0.21221
2535.93629,0.20897
2537.86476,0.20968
2539.79322,0.21172
2541.72169,0.21094
2543.65016,0.20864
2545.57863,0.20756
2547.50710,0.20823
2549.43557,0.20878
2551.36404,0.20843
2553.29250,0.20865
2555.22097,0.20877
2557.14944,0.20857
2559.07791,0.20964
2561.00638,0.21033
2562.93485,0.20868
2564.86332,0.20551
2566.79179,0.20440
2568.72025,0.20787
2570.64872,0.21242
2572.57719,0.21427
2574.50566,0.21318
2576.43413,0.21105
2578.36260,0.21060
2580.29107,0.21022
2582.21953,0.20667
2584.14800,0.20322
2586.07647,0.20389
2588.00494,0.20755
2589.93341,0.21111
2591.86188,0.21067
2593.79035,0.20633
2595.71882,0.20446
2597.64728,0.20731
2599.57575,0.21035
2601.50422,0.21094
2603.43269,0.21025
2605.36116,0.20873
2607.28963,0.20663
2609.21810,0.20853
2611.14656,0.21560
2613.07503,0.21855
2615.00350,0.21467
2616.93197,0.21252
2618.86044,0.21329
2620.78891,0.21291
2622.71738,0.21206
2624.64585,0.21134
2626.57431,0.21082
2628.50278,0.21201
2630.43125,0.21327
2632.35972,0.21270
2634.28819,0.21245
2636.21666,0.21311
2638.14513,0.21215
2640.07359,0.21015
2642.00206,0.20977
2643.93053,0.21144
2645.85900,0.21295
2647.78747,0.21207
2649.71594,0.21127
2651.64441,0.21288
2653.57288,0.21371
2655.50134,0.21199
2657.42981,0.21152
2659.35828,0.21405
2661.28675,0.21587
2663.21522,0.21516
2665.14369,0.21406
2667.07216,0.21397
2669.00062,0.21382
2670.92909,0.21470
2672.85756,0.21797
2674.78603,0.21969
2676.71450,0.21809
2678.64297,0.21424
2680.57144,0.21049
2682.49990,0.21137
2684.42837,0.21509
2686.35684,0.21611
2688.28531,0.21422
2690.21378,0.21289
2692.14225,0.21312
2694.07072,0.21491
2695.99919,0.21860
2697.92765,0.22065
2699.85612,0.21764
2701.78459,0.21275
2703.71306,0.21210
2705.64153,0.21569
2707.57000,0.21904
2709.49847,0.22065
2711.42693,0.22109
2713.35540,0.22058
2715.28387,0.21912
2717.21234,0.21757
2719.14081,0.21619
2721.06928,0.21507
2722.99775,0.21540
2724.92622,0.21684
2726.85468,0.21825
2728.78315,0.21732
2730.71162,0.21446
2732.64009,0.21460
2734.56856,0.21704
2736.49703,0.21683
2738.42550,0.21427
2740.35396,0.21286
2742.28243,0.21350
2744.21090,0.21453
2746.13937,0.21501
2748.06784,0.21540
2749.99631,0.21692
2751.92478,0.21860
2753.85325,0.21853
2755.78171,0.21855
2757.71018,0.22038
2759.63865,0.22175
2761.56712,0.22061
2763.49559,0.21912
2765.42406,0.22003
2767.35253,0.22313
2769.28099,0.22545
2771.20946,0.22518
2773.13793,0.22542
2775.06640,0.22645
2776.99487,0.22603
2778.92334,0.22523
2780.85181,0.22375
2782.78028,0.22236
2784.70874,0.22448
2786.63721,0.22769
2788.56568,0.22683
2790.49415,0.22466
2792.42262,0.22398
2794.35109,0.22363
2796.27956,0.22707
2798.20802,0.23324
2800.13649,0.23433
2802.06496,0.22954
2803.99343,0.22559
2805.92190,0.22613
2807.85037,0.22827
2809.77884,0.22872
2811.70731,0.22657
2813.63577,0.22348
2815.56424,0.22149
2817.49271,0.22036
2819.42118,0.21984
2821.34965,0.21966
2823.27812,0.21968
2825.20659,0.22118
2827.13505,0.22394
2829.06352,0.22611
2830.99199,0.22969
2832.92046,0.23510
2834.84893,0.23611
2836.77740,0.23238
2838.70587,0.22957
2840.63433,0.22727
2842.56280,0.22352
2844.49127,0.22154
2846.41974,0.22221
2848.34821,0.22216
2850.27668,0.22211
2852.20515,0.22362
2854.13362,0.22519
2856.06208,0.22572
2857.99055,0.22524
2859.91902,0.22634
2861.84749,0.22913
2863.77596,0.22824
2865.70443,0.22333
2867.63290,0.22057
2869.56136,0.22141
2871.48983,0.22182
2873.41830,0.22123
2875.34677,0.22194
2877.27524,0.22319
2879.20371,0.22449
2881.13218,0.22736
2883.06065,0.22904
2884.98911,0.22571
2886.91758,0.22129
2888.84605,0.22211
2890.77452,0.22796
2892.70299,0.23248
2894.63146,0.22972
2896.55993,0.22438
2898.48839,0.22530
2900.41686,0.22833
2902.34533,0.22624
2904.27380,0.22167
2906.20227,0.21955
2908.13074,0.22152
2910.05921,0.22504
2911.98768,0.22924
2913.91614,0.23144
2915.84461,0.22497
2917.77308,0.21663
2919.70155,0.21830
2921.63002,0.22410
2923.55849,0.21729
2925.48696,0.19889
2927.41542,0.19670
2929.34389,0.21696
2931.27236,0.22785
2933.20083,0.22138
2935.12930,0.21706
2937.05777,0.21591
2938.98624,0.21586
2940.91471,0.21994
2942.84317,0.22430
2944.77164,0.22475
2946.70011,0.22101
2948.62858,0.21888
2950.55705,0.21943
2952.48552,0.21970
2954.41399,0.22004
2956.34245,0.21731
2958.27092,0.21569
2960.19939,0.22135
2962.12786,0.22617
2964.05633,0.22519
2965.98480,0.22158
2967.91327,0.21698
2969.84174,0.21706
2971.77020,0.22299
2973.69867,0.22582
2975.62714,0.22160
2977.55561,0.21683
2979.48408,0.21847
2981.41255,0.22397
2983.34102,0.22734
2985.26948,0.22655
2987.19795,0.22331
2989.12642,0.22483
2991.05489,0.23166
2992.98336,0.23501
2994.91183,0.23452
2996.84030,0.23311
2998.76877,0.23127
3000.69723,0.23221
3002.62570,0.23335
3004.55417,0.23044
3006.48264,0.22715
3008.41111,0.22715
3010.33958,0.22527
3012.26805,0.21400
3014.19651,0.19235
3016.12498,0.17316
3018.05345,0.18097
3019.98192,0.21362
3021.91039,0.23875
3023.83886,0.24323
3025.76733,0.23597
3027.69579,0.22704
3029.62426,0.22620
3031.55273,0.23255
3033.48120,0.23573
3035.40967,0.23402
3037.33814,0.23287
3039.26661,0.23581
3041.19508,0.24035
3043.12354,0.24108
3045.05201,0.23694
3046.98048,0.23096
3048.90895,0.22762
3050.83742,0.22695
3052.76589,0.22686
3054.69436,0.22804
3056.62282,0.22860
3058.55129,0.22779
3060.47976,0.22708
3062.40823,0.22741
3064.33670,0.22927
3066.26517,0.22813
3068.19364,0.22559
3070.12211,0.22860
3072.05057,0.23149
3073.97904,0.22557
3075.90751,0.21782
3077.83598,0.22114
3079.76445,0.22855
3081.69292,0.22708
3083.62139,0.22025
3085.54985,0.21752
3087.47832,0.22255
3089.40679,0.22759
3091.33526,0.22676
3093.26373,0.22343
3095.19220,0.22259
3097.12067,0.22645
3099.04914,0.22933
3100.97760,0.22496
3102.90607,0.21706
3104.83454,0.21574
3106.76301,0.22130
3108.69148,0.22615
3110.61995,0.22692
3112.54842,0.22477
3114.47688,0.22462
3116.40535,0.22685
3118.33382,0.22716
3120.26229,0.22448
3122.19076,0.22026
3124.11923,0.21932
3126.04770,0.22605
3127.97617,0.23314
3129.90463,0.23092
3131.83310,0.22640
3133.76157,0.22744
3135.69004,0.22836
3137.61851,0.22592
3139.54698,0.22458
3141.47545,0.22749
3143.40391,0.22942
3145.33238,0.22558
3147.26085,0.22311
3149.18932,0.22596
3151.11779,0.22896
3153.04626,0.23203
3154.97473,0.23548
3156.90320,0.23459
3158.83166,0.23353
3160.76013,0.23892
3162.68860,0.24285
3164.61707,0.23967
3166.54554,0.23510
3168.47401,0.23367
3170.40248,0.23585
3172.33094,0.23785
3174.25941,0.23892
3176.18788,0.24264
3178.11635,0.24543
3180.04482,0.24199
3181.97329,0.23578
3183.90176,0.23270
3185.83022,0.23375
3187.75869,0.23453
3189.68716,0.23320
3191.61563,0.23435
3193.54410,0.23825
3195.47257,0.24092
3197.40104,0.24149
3199.32951,0.24037
3201.25797,0.24024
3203.18644,0.24213
3205.11491,0.24115
3207.04338,0.23768
3208.97185,0.23524
3210.90032,0.23238
3212.82879,0.23077
3214.75725,0.23244
3216.68572,0.23530
3218.61419,0.23723
3220.54266,0.23759
3222.47113,0.23615
3224.39960,0.23145
3226.32807,0.22713
3228.25654,0.22870
3230.18500,0.23118
3232.11347,0.22956
3234.04194,0.22948
3235.97041,0.23236
3237.89888,0.23454
3239.82735,0.23892
3241.75582,0.24765
3243.68428,0.25534
3245.61275,0.25377
3247.54122,0.24348
3249.46969,0.23323
3251.39816,0.22722
3253.32663,0.22569
3255.25510,0.22775
3257.18357,0.23046
3259.11203,0.23431
3261.04050,0.24179
3262.96897,0.24668
3264.89744,0.24263
3266.82591,0.23508
3268.75438,0.22900
3270.68285,0.22518
3272.61131,0.22768
3274.53978,0.23482
3276.46825,0.23869
3278.39672,0.23781
3280.32519,0.23788
3282.25366,0.24054
3284.18213,0.24086
3286.11060,0.23805
3288.03906,0.23543
3289.96753,0.23426
3291.89600,0.23356
3293.82447,0.23064
3295.75294,0.22764
3297.68141,0.22854
3299.60988,0.23056
3301.53834,0.23155
3303.46681,0.23051
3305.39528,0.22619
3307.32375,0.22313
3309.25222,0.22462
3311.18069,0.22948
3313.10916,0.23338
3315.03763,0.23240
3316.96609,0.23034
3318.89456,0.23151
3320.82303,0.23214
3322.75150,0.23088
3324.67997,0.23498
3326.60844,0.24170
3328.53691,0.24117
3330.46537,0.23701
3332.39384,0.23719
3334.32231,0.24119
3336.25078,0.24593
3338.17925,0.25104
3340.10772,0.25263
3342.03619,0.24593
3343.96466,0.23771
3345.89312,0.23608
3347.82159,0.23530
3349.75006,0.23203
3351.67853,0.23137
3353.60700,0.23133
3355.53547,0.23144
3357.46394,0.23554
3359.39240,0.23963
3361.32087,0.23903
3363.24934,0.23657
3365.17781,0.23546
3367.10628,0.23576
3369.03475,0.23843
3370.96322,0.24093
3372.89168,0.24089
3374.82015,0.23901
3376.74862,0.23462
3378.67709,0.23182
3380.60556,0.23420
3382.53403,0.23659
3384.46250,0.23679
3386.39097,0.23998
3388.31943,0.24360
3390.24790,0.24114
3392.17637,0.23847
3394.10484,0.24219
3396.03331,0.24764
3397.96178,0.24744
3399.89025,0.23823
3401.81871,0.22675
3403.74718,0.22279
3405.67565,0.22469
3407.60412,0.22514
3409.53259,0.22450
3411.46106,0.22652
3413.38953,0.22662
3415.31800,0.22462
3417.24646,0.22699
3419.17493,0.23061
3421.10340,0.23282
3423.03187,0.23341
3424.96034,0.23124
3426.88881,0.22974
3428.81728,0.22918
3430.74574,0.22733
3432.67421,0.22486
3434.60268,0.22258
3436.53115,0.22318
3438.45962,0.23034
3440.38809,0.23682
3442.31656,0.23388
3444.24503,0.22725
3446.17349,0.22514
3448.10196,0.22715
3450.03043,0.22553
3451.95890,0.21927
3453.88737,0.21615
3455.81584,0.21942
3457.74431,0.22289
3459.67277,0.22227
3461.60124,0.22230
3463.52971,0.22188
3465.45818,0.22047
3467.38665,0.22383
3469.31512,0.22504
3471.24359,0.21742
3473.17206,0.21024
3475.10052,0.20974
3477.02899,0.21181
3478.95746,0.21372
3480.88593,0.21331
3482.81440,0.20962
3484.74287,0.20690
3486.67134,0.20721
3488.59980,0.20953
3490.52827,0.21073
3492.45674,0.20756
3494.38521,0.20243
3496.31368,0.20027
3498.24215,0.20162
3500.17062,0.20417
3502.09909,0.20663
3504.02755,0.20808
3505.95602,0.20800
3507.88449,0.20898
3509.81296,0.21255
3511.74143,0.21358
3513.66990,0.20911
3515.59837,0.20208
3517.52683,0.19443
3519.45530,0.18948
3521.38377,0.19035
3523.31224,0.19347
3525.24071,0.19590
3527.16918,0.19913
3529.09765,0.20060
3531.02611,0.19769
3532.95458,0.19340
3534.88305,0.19393
3536.81152,0.19859
3538.73999,0.19747
3540.66846,0.19177
3542.59693,0.18954
3544.52540,0.19329
3546.45386,0.19886
3548.38233,0.19652
3550.31080,0.18951
3552.23927,0.18737
3554.16774,0.18901
3556.09621,0.18752
3558.02468,0.18240
3559.95314,0.18226
3561.88161,0.19076
3563.81008,0.19955
3565.73855,0.20078
3567.66702,0.18996
3569.59549,0.17653
3571.52396,0.17172
3573.45243,0.17357
3575.38089,0.17765
3577.30936,0.18147
3579.23783,0.18213
3581.16630,0.17922
3583.09477,0.17715
3585.02324,0.17678
3586.95171,0.17595
3588.88017,0.17494
3590.80864,0.17528
3592.73711,0.17620
3594.66558,0.17529
3596.59405,0.17272
3598.52252,0.16780
3600.45099,0.16055
3602.37946,0.15749
3604.30792,0.15851
3606.23639,0.16046
3608.16486,0.16542
3610.09333,0.16979
3612.02180,0.17033
3613.95027,0.17049
3615.87874,0.16999
3617.80720,0.16824
3619.73567,0.16791
3621.66414,0.16929
3623.59261,0.16826
3625.52108,0.16326
3627.44955,0.15927
3629.37802,0.16096
3631.30649,0.16221
3633.23495,0.16132
3635.16342,0.15767
3637.09189,0.15291
3639.02036,0.15199
3640.94883,0.15287
3642.87730,0.15250
3644.80577,0.15591
3646.73423,0.16664
3648.66270,0.17411
3650.59117,0.16499
3652.51964,0.15558
3654.44811,0.15472
3656.37658,0.15646
3658.30505,0.15236
3660.23352,0.14805
3662.16198,0.14662
3664.09045,0.14547
3666.01892,0.14759
3667.94739,0.15304
3669.87586,0.15586
3671.80433,0.15827
3673.73280,0.16821
3675.66126,0.17433
3677.58973,0.16068
3679.51820,0.14898
3681.44667,0.14659
3683.37514,0.14565
3685.30361,0.14591
3687.23208,0.15246
3689.16055,0.15870
3691.08901,0.15574
3693.01748,0.15226
3694.94595,0.15051
3696.87442,0.15024
3698.80289,0.15359
3700.73136,0.15534
3702.65983,0.15068
3704.58829,0.14900
3706.51676,0.15151
3708.44523,0.15550
3710.37370,0.16507
3712.30217,0.17116
3714.23064,0.16473
3716.15911,0.15467
3718.08757,0.14580
3720.01604,0.13920
3721.94451,0.13397
3723.87298,0.13431
3725.80145,0.14151
3727.72992,0.14719
3729.65839,0.15034
3731.58686,0.15585
3733.51532,0.16267
3735.44379,0.16485
3737.37226,0.15961
3739.30073,0.15462
3741.22920,0.15412
3743.15767,0.15439
3745.08614,0.15508
3747.01460,0.16022
3748.94307,0.17049
3750.87154,0.18065
3752.80001,0.17115
3754.72848,0.15611
3756.65695,0.15010
3758.58542,0.14916
3760.51389,0.14864
3762.44235,0.15076
3764.37082,0.15330
3766.29929,0.14934
3768.22776,0.14433
3770.15623,0.14544
3772.08470,0.14399
3774.01317,0.14152
3775.94163,0.14512
3777.87010,0.14927
3779.79857,0.14657
3781.72704,0.14279
3783.65551,0.14264
3785.58398,0.14037
3787.51245,0.13433
3789.44092,0.13045
3791.36938,0.13169
3793.29785,0.13549
3795.22632,0.13858
3797.15479,0.14093
3799.08326,0.14539
3801.01173,0.15374
3802.94020,0.15877
3804.86866,0.15798
3806.79713,0.15223
3808.72560,0.14252
3810.65407,0.14007
3812.58254,0.14345
3814.51101,0.14576
3816.43948,0.14714
3818.36795,0.15478
3820.29641,0.16560
3822.22488,0.15732
3824.15335,0.13990
3826.08182,0.13517
3828.01029,0.14092
3829.93876,0.14974
3831.86723,0.15423
3833.79569,0.15056
3835.72416,0.14721
3837.65263,0.15137
3839.58110,0.15357
3841.50957,0.14720
3843.43804,0.14173
3845.36651,0.14031
3847.29498,0.14001
3849.22344,0.14261
3851.15191,0.15787
3853.08038,0.18902
3855.00885,0.18319
3856.93732,0.15088
3858.86579,0.13210
3860.79426,0.12993
3862.72272,0.13643
3864.65119,0.14010
3866.57966,0.13962
3868.50813,0.14135
3870.43660,0.14262
3872.36507,0.13727
3874.29354,0.13106
3876.22200,0.12832
3878.15047,0.12890
3880.07894,0.12992
3882.00741,0.12761
3883.93588,0.12539
3885.86435,0.12556
3887.79282,0.12990
3889.72129,0.13878
3891.64975,0.14452
3893.57822,0.13970
3895.50669,0.13254
3897.43516,0.12790
3899.36363,0.12811
3901.29210,0.13826
3903.22057,0.14697
3905.14903,0.14039
3907.07750,0.13058
3909.00597,0.12627
3910.93444,0.12472
3912.86291,0.12388
3914.79138,0.12434
3916.71985,0.12928
3918.64832,0.13500
3920.57678,0.13147
3922.50525,0.12105
3924.43372,0.11570
3926.36219,0.12018
3928.29066,0.12317
3930.21913,0.11764
3932.14760,0.11340
3934.07606,0.11703
3936.00453,0.11957
3937.93300,0.11955
3939.86147,0.12398
3941.78994,0.13219
3943.71841,0.13588
3945.64688,0.13481
3947.57535,0.13402
3949.50381,0.13009
3951.43228,0.12559
3953.36075,0.12807
3955.28922,0.12903
3957.21769,0.12265
3959.14616,0.11864
3961.07463,0.11915
3963.00309,0.11820
3964.93156,0.11696
3966.86003,0.11698
3968.78850,0.11517
3970.71697,0.11259
3972.64544,0.11539
3974.57391,0.11959
3976.50238,0.11710
3978.43084,0.11451
3980.35931,0.11588
3982.28778,0.11670
3984.21625,0.11671
3986.14472,0.11706
3988.07319,0.11660
3990.00166,0.11450
3991.93012,0.11268
3993.85859,0.11077
3995.78706,0.10865
3997.71553,0.10942
3999.64400,0.11089
4001.57247,0.10975
4003.50094,0.10832
4005.42941,0.10902
4007.35787,0.11137
4009.28634,0.11446
4011.21481,0.11618
4013.14328,0.11444
4015.07175,0.11238
4017.00022,0.11503
4018.92869,0.11904
4020.85715,0.11846
4022.78562,0.11507
4024.71409,0.11218
4026.64256,0.11071
4028.57103,0.10968
4030.49950,0.10708
4032.42797,0.10515
4034.35644,0.10838
4036.28490,0.11454
4038.21337,0.11850
4040.14184,0.11941
4042.07031,0.11628
4043.99878,0.10985
4045.92725,0.10690
4047.85572,0.11145
4049.78418,0.11785
4051.71265,0.12139
4053.64112,0.12146
4055.56959,0.11706
4057.49806,0.11085
4059.42653,0.10645
4061.35500,0.10657
4063.28346,0.10761
4065.21193,0.10278
4067.14040,0.09760
4069.06887,0.09868
4070.99734,0.10298
4072.92581,0.10724
4074.85428,0.11046
4076.78275,0.11237
4078.71121,0.11371
4080.63968,0.11293
4082.56815,0.10742
4084.49662,0.10189
4086.42509,0.10119
4088.35356,0.10293
4090.28203,0.10521
4092.21049,0.10509
4094.13896,0.10104
4096.06743,0.09597
4097.99590,0.09065
4099.92437,0.08925
4101.85284,0.09483
4103.78131,0.10043
4105.70978,0.10361
4107.63824,0.10663
4109.56671,0.10505
4111.49518,0.10066
4113.42365,0.09881
4115.35212,0.09727
4117.28059,0.09813
4119.20906,0.10137
4121.13752,0.09950
4123.06599,0.09353
4124.99446,0.08982
4126.92293,0.08922
4128.85140,0.09178
4130.77987,0.09858
4132.70834,0.10179
4134.63681,0.09569
4136.56527,0.09132
4138.49374,0.09416
4140.42221,0.09561
4142.35068,0.09417
4144.27915,0.09406
4146.20762,0.09458
4148.13609,0.09481
4150.06455,0.09409
4151.99302,0.08995
4153.92149,0.08478
4155.84996,0.08255
4157.77843,0.08328
4159.70690,0.08731
4161.63537,0.08910
4163.56384,0.08637
4165.49230,0.08779
4167.42077,0.09479
4169.34924,0.10114
4171.27771,0.10022
4173.20618,0.09464
4175.13465,0.09371
4177.06312,0.09371
4178.99158,0.09131
4180.92005,0.09188
4182.84852,0.09462
4184.77699,0.09562
4186.70546,0.09625
4188.63393,0.10330
4190.56240,0.11492
4192.49087,0.11658
4194.41933,0.10434
4196.34780,0.08913
4198.27627,0.08149
4200.20474,0.07983
4202.13321,0.07489
4204.06168,0.07024
4205.99015,0.07185
4207.91861,0.07512
4209.84708,0.07919
4211.77555,0.08290
4213.70402,0.08132
4215.63249,0.07752
4217.56096,0.07653
4219.48943,0.07776
4221.41789,0.08096
4223.34636,0.08792
4225.27483,0.09422
4227.20330,0.09179
4229.13177,0.08651
4231.06024,0.08843
4232.98871,0.09164
4234.91718,0.08521
4236.84564,0.07111
4238.77411,0.06424
4240.70258,0.06918
4242.63105,0.07521
4244.55952,0.07892
4246.48799,0.08167
4248.41646,0.08181
4250.34492,0.08017
4252.27339,0.07564
4254.20186,0.06791
4256.13033,0.06357
4258.05880,0.06655
4259.98727,0.07065
4261.91574,0.06892
4263.84421,0.06612
4265.77267,0.07000
4267.70114,0.07743
4269.62961,0.07869
4271.55808,0.07274
4273.48655,0.06531
4275.41502,0.05813
4277.34349,0.05708
4279.27195,0.06561
4281.20042,0.07321
4283.12889,0.07113
4285.05736,0.06395
4286.98583,0.06044
4288.91430,0.06176
4290.84277,0.06480
4292.77124,0.07061
4294.69970,0.07719
4296.62817,0.07621
4298.55664,0.07158
4300.48511,0.06967
4302.41358,0.06578
4304.34205,0.06511
4306.27052,0.07259
4308.19898,0.07642
4310.12745,0.06771
4312.05592,0.05783
4313.98439,0.05939
4315.91286,0.06236
4317.84133,0.05600
4319.76980,0.04823
4321.69827,0.04974
4323.62673,0.05762
4325.55520,0.06012
4327.48367,0.05579
4329.41214,0.05480
4331.34061,0.06022
4333.26908,0.06419
4335.19755,0.05994
4337.12601,0.05310
4339.05448,0.05321
4340.98295,0.05478
4342.91142,0.05476
4344.83989,0.06242
4346.76836,0.07532
4348.69683,0.08270
4350.62530,0.07822
4352.55376,0.06180
4354.48223,0.04462
4356.41070,0.04063
4358.33917,0.04605
4360.26764,0.04661
4362.19611,0.04438
4364.12458,0.04891
4366.05304,0.05633
4367.98151,0.05868
4369.90998,0.05657
4371.83845,0.05368
4373.76692,0.05062
4375.69539,0.04911
4377.62386,0.04897
4379.55232,0.04682
4381.48079,0.04651
4383.40926,0.04883
4385.33773,0.04748
4387.26620,0.04746
4389.19467,0.05307
4391.12314,0.05441
4393.05161,0.04613
4394.98007,0.03761
4396.90854,0.03885
4398.83701,0.04733
4400.76548,0.05143
4402.69395,0.04612
4404.62242,0.03903
4406.55089,0.03714
4408.47935,0.04221
4410.40782,0.04830
4412.33629,0.04575
4414.26476,0.03926
4416.19323,0.03620
4418.12170,0.03333
4420.05017,0.03192
4421.97864,0.03720
4423.90710,0.04354
4425.83557,0.04482
4427.76404,0.04331
4429.69251,0.04018
4431.62098,0.03859
4433.54945,0.04046
4435.47792,0.04068
4437.40638,0.03781
4439.33485,0.03413
4441.26332,0.03204
4443.19179,0.03331
4445.12026,0.03432
4447.04873,0.03315
4448.97720,0.03377
4450.90567,0.03228
4452.83413,0.02638
4454.76260,0.02714
4456.69107,0.03626
4458.61954,0.04177
4460.54801,0.03846
4462.47648,0.03475
4464.40495,0.03604
4466.33341,0.03704
4468.26188,0.03451
4470.19035,0.02934
4472.11882,0.02267
4474.04729,0.02098
4475.97576,0.03238
4477.90423,0.04682
4479.83270,0.04670
4481.76116,0.03552
4483.68963,0.02920
4485.61810,0.03348
4487.54657,0.03681
4489.47504,0.02772
4491.40351,0.01317
4493.33198,0.00564
4495.26044,0.00858
4497.18891,0.01742
4499.11738,0.02343
4501.04585,0.02333
4502.97432,0.02014
4504.90279,0.01791
4506.83126,0.01875
4508.75973,0.01773
4510.68819,0.01407
4512.61666,0.01378
4514.54513,0.01356
4516.47360,0.01254
4518.40207,0.01831
4520.33054,0.02796
4522.25901,0.03644
4524.18747,0.04052
4526.11594,0.03428
4528.04441,0.02597
4529.97288,0.02628
4531.90135,0.02737
4533.82982,0.02092
4535.75829,0.01744
4537.68676,0.02547
4539.61522,0.03068
4541.54369,0.02607
4543.47216,0.02413
4545.40063,0.02783
4547.32910,0.03021
4549.25757,0.03183
4551.18604,0.03641
4553.11450,0.03946
4555.04297,0.03517
4556.97144,0.02584
4558.89991,0.01964
4560.82838,0.01826
4562.75685,0.01888
4564.68532,0.02431
4566.61378,0.02966
4568.54225,0.02653
4570.47072,0.02102
4572.39919,0.02008
4574.32766,0.01885
4576.25613,0.01643
4578.18460,0.01756
4580.11307,0.01617
4582.04153,0.01039
4583.97000,0.00719
4585.89847,0.00178
4587.82694,-0.00600
4589.75541,-0.00585
4591.68388,0.00134
4593.61235,0.01021
4595.54081,0.01413
4597.46928,0.00977
4599.39775,0.00999
4601.32622,0.01412
4603.25469,0.00686
4605.18316,-0.00222
4607.11163,0.00370
4609.04010,0.01593
4610.96856,0.02247
4612.89703,0.02724
4614.82550,0.03060
4616.75397,0.02701
4618.68244,0.02325
4620.61091,0.02151
4622.53938,0.01232
4624.46784,0.00125
4626.39631,0.00022
4628.32478,0.00620
4630.25325,0.01485
4632.18172,0.02226
4634.11019,0.02213
4636.03866,0.02049
4637.96713,0.02135
4639.89559,0.01779
4641.82406,0.01071
4643.75253,0.00326
4645.68100,-0.00165
4647.60947,0.00514
4649.53794,0.01950
4651.46641,0.02738
4653.39487,0.03005
4655.32334,0.03395
4657.25181,0.03064
4659.18028,0.01348
4661.10875,0.00074
4663.03722,0.00570
4664.96569,0.01313
4666.89416,0.01170
4668.82262,0.00342
4670.75109,-0.00312
4672.67956,0.00225
4674.60803,0.01114
4676.53650,0.01256
4678.46497,0.00963
4680.39344,0.00692
4682.32190,0.00855
4684.25037,0.01438
4686.17884,0.02089
4688.10731,0.02421
4690.03578,0.01922
4691.96425,0.01002
4693.89272,0.00269
4695.82119,-0.00594
4697.74965,-0.01325
4699.67812,-0.01025
4701.60659,0.00025
4703.53506,0.00727
4705.46353,0.00654
4707.39200,0.00619
4709.32047,0.00972
4711.24893,0.00768
4713.17740,-0.00024
4715.10587,-0.00315
4717.03434,0.00379
4718.96281,0.01183
4720.89128,0.01152
4722.81975,0.00800
4724.74821,0.01234
4726.67668,0.02130
4728.60515,0.02382
4730.53362,0.02423
4732.46209,0.02474
4734.39056,0.01704
4736.31903,0.00405
4738.24750,-0.00140
4740.17596,0.00447
4742.10443,0.01058
4744.03290,0.01222
4745.96137,0.01502
4747.88984,0.01870
4749.81831,0.01512
4751.74678,0.00472
4753.67524,0.00104
4755.60371,0.00539
4757.53218,0.00848
4759.46065,0.01220
4761.38912,0.01605
4763.31759,0.01240
4765.24606,0.00778
4767.17453,0.01250
4769.10299,0.02262
4771.03146,0.02598
4772.95993,0.01630
4774.88840,0.00363
4776.81687,-0.00371
4778.74534,-0.00683
4780.67381,-0.00213
4782.60227,0.00936
4784.53074,0.01526
4786.45921,0.01209
4788.38768,0.00964
4790.31615,0.00991
4792.24462,0.01063
4794.17309,0.01424
4796.10156,0.01850
4798.03002,0.01937
4799.95849,0.02127
4801.88696,0.02567
4803.81543,0.02034
4805.74390,0.00310
4807.67237,-0.00984
4809.60084,-0.01227
4811.52930,-0.00666
4813.45777,0.00689
4815.38624,0.01797
4817.31471,0.01487
4819.24318,0.00519
4821.17165,-0.00024
4823.10012,-0.00442
4825.02859,-0.01203
4826.95705,-0.02021
4828.88552,-0.01888
4830.81399,-0.00689
4832.74246,-0.00284
4834.67093,-0.01222
4836.59940,-0.01661
4838.52787,-0.00665
4840.45633,0.00576
4842.38480,0.00599
4844.31327,-0.00032
4846.24174,0.00075
4848.17021,0.00967
4850.09868,0.01620
4852.02715,0.01485
4853.95562,0.01289
4855.88408,0.00881
4857.81255,-0.00187
4859.74102,0.00060
4861.66949,0.01894
4863.59796,0.01994
4865.52643,0.00200
4867.45490,-0.00838
4869.38336,-0.00688
4871.31183,-0.00008
4873.24030,0.00752
4875.16877,0.00491
4877.09724,-0.00369
4879.02571,0.00262
4880.95418,0.01794
4882.88265,0.02076
4884.81111,0.01411
4886.73958,0.01156
4888.66805,0.01607
4890.59652,0.01408
4892.52499,-0.00369
4894.45346,-0.01974
4896.38193,-0.01920
4898.31039,-0.01120
4900.23886,-0.00370
4902.16733,0.00538
4904.09580,0.01370
4906.02427,0.01513
4907.95274,0.01002
4909.88121,0.00469
4911.80967,0.00353
4913.73814,0.00786
4915.66661,0.01226
4917.59508,0.01128
4919.52355,0.00974
4921.45202,0.00988
4923.38049,0.01003
4925.30896,0.01320
4927.23742,0.01886
4929.16589,0.01799
4931.09436,0.01126
4933.02283,0.01057
4934.95130,0.01399
4936.87977,0.01320
4938.80824,0.00858
4940.73670,-0.00084
4942.66517,-0.00842
4944.59364,-0.00465
4946.52211,-0.00040
4948.45058,-0.00135
4950.37905,0.00376
4952.30752,0.01387
4954.23599,0.01547
4956.16445,0.00787
4958.09292,0.00479
4960.02139,0.00720
4961.94986,0.00715
4963.87833,0.00703
4965.80680,0.00701
4967.73527,0.00006
4969.66373,-0.00870
4971.59220,-0.00652
4973.52067,0.00236
4975.44914,0.00868
4977.37761,0.01813
4979.30608,0.03402
4981.23455,0.04664
4983.16302,0.04858
4985.09148,0.03432
4987.01995,0.00329
4988.94842,-0.01969
4990.87689,-0.01849
4992.80536,-0.00834
4994.73383,0.00114
4996.66230,0.00633
4998.59076,0.00735
5000.51923,0.01668
5002.44770,0.03389
5004.37617,0.04109
5006.30464,0.02976
5008.23311,0.01012
5010.16158,0.00005
5012.09005,0.00732
5014.01851,0.01900
5015.94698,0.02023
5017.87545,0.01278
5019.80392,0.00575
5021.73239,0.00391
5023.66086,0.01182
5025.58933,0.02498
5027.51779,0.02356
5029.44626,0.01152
5031.37473,0.01288
5033.30320,0.02407
5035.23167,0.02734
5037.16014,0.01941
5039.08861,0.01000
5041.01708,0.00963
5042.94554,0.01799
5044.87401,0.02487
5046.80248,0.01806
5048.73095,0.00841
5050.65942,0.01622
5052.58789,0.02875
5054.51636,0.02644
5056.44482,0.02095
5058.37329,0.02208
5060.30176,0.01663
5062.23023,0.00367
5064.15870,-0.00706
5066.08717,-0.01144
5068.01564,-0.00509
5069.94410,0.00223
5071.87257,-0.00065
5073.80104,-0.00203
5075.72951,0.00482
5077.65798,0.00799
5079.58645,0.00969
5081.51492,0.01335
5083.44339,0.01045
5085.37185,0.00518
5087.30032,-0.00139
5089.22879,-0.00606
5091.15726,0.00482
5093.08573,0.01859
5095.01420,0.02259
5096.94267,0.03516
5098.87113,0.05318
5100.79960,0.05252
5102.72807,0.04070
5104.65654,0.02935
5106.58501,0.02641
5108.51348,0.03819
5110.44195,0.04567
5112.37042,0.04330
5114.29888,0.04195
5116.22735,0.03621
5118.15582,0.02457
5120.08429,0.01988
5122.01276,0.02981
5123.94123,0.04455
5125.86970,0.04944
5127.79816,0.04486
5129.72663,0.03740
5131.65510,0.03050
5133.58357,0.02655
5135.51204,0.01588
5137.44051,0.00308
5139.36898,0.00459
5141.29745,0.01138
5143.22591,0.02289
5145.15438,0.04921
5147.08285,0.06893
5149.01132,0.06890
5150.93979,0.06998
5152.86826,0.07546
5154.79673,0.07434
5156.72519,0.06170
5158.65366,0.03497
5160.58213,0.01358
5162.51060,0.01857
5164.43907,0.03876
5166.36754,0.04453
5168.29601,0.03669
5170.22448,0.03993
5172.15294,0.04702
5174.08141,0.04250
5176.00988,0.04190
5177.93835,0.05230
5179.86682,0.05702
5181.79529,0.04325
5183.72376,0.01839
5185.65222,0.00979
5187.58069,0.03177
5189.50916,0.05892
5191.43763,0.06634
5193.36610,0.06001
5195.29457,0.05048
5197.22304,0.04005
5199.15151,0.03834
5201.07997,0.03802
5203.00844,0.02759
5204.93691,0.02242
5206.86538,0.02676
5208.79385,0.02587
5210.72232,0.02633
5212.65079,0.02489
5214.57925,0.00970
5216.50772,0.00148
5218.43619,0.02550
5220.36466,0.06597
5222.29313,0.08530
5224.22160,0.08256
5226.15007,0.08577
5228.07854,0.08848
5230.00700,0.06933
5231.93547,0.04655
5233.86394,0.03843
5235.79241,0.03261
5237.72088,0.02864
5239.64935,0.03838
5241.57782,0.05168
5243.50628,0.04973
5245.43475,0.03822
5247.36322,0.04389
5249.29169,0.06144
5251.22016,0.05663
5253.14863,0.03869
5255.07710,0.05138
5257.00556,0.08066
5258.93403,0.07251
5260.86250,0.04468
5262.79097,0.04347
5264.71944,0.05608
5266.64791,0.05560
5268.57638,0.04737
5270.50485,0.04509
5272.43331,0.05813
5274.36178,0.07115
5276.29025,0.06703
5278.21872,0.06190
5280.14719,0.06281
5282.07566,0.05964
5284.00413,0.05868
5285.93259,0.06584
5287.86106,0.07654
5289.78953,0.08064
5291.71800,0.07346
5293.64647,0.06129
5295.57494,0.05089
5297.50341,0.04702
5299.43188,0.05160
5301.36034,0.06394
5303.28881,0.06944
5305.21728,0.06917
5307.14575,0.08280
5309.07422,0.09343
5311.00269,0.07940
5312.93116,0.05869
5314.85962,0.05207
5316.78809,0.05531
5318.71656,0.05157
5320.64503,0.02686
5322.57350,-0.00151
5324.50197,0.00628
5326.43044,0.03201
5328.35891,0.04220
5330.28737,0.05128
5332.21584,0.05267
5334.14431,0.03826
5336.07278,0.03607
5338.00125,0.05460
5339.92972,0.07595
5341.85819,0.09661
5343.78665,0.10161
5345.71512,0.07661
5347.64359,0.07181
5349.57206,0.10145
5351.50053,0.12750
5353.42900,0.13266
5355.35747,0.11612
5357.28594,0.09017
5359.21440,0.07517
5361.14287,0.07692
5363.07134,0.08260
5364.99981,0.08015
5366.92828,0.08057
5368.85675,0.09635
5370.78522,0.10721
5372.71368,0.08963
5374.64215,0.07343
5376.57062,0.09966
5378.49909,0.12933
5380.42756,0.12033
5382.35603,0.08918
5384.28450,0.06655
5386.21297,0.05880
5388.14143,0.05467
5390.06990,0.06810
5391.99837,0.09586
5393.92684,0.10946
5395.85531,0.11110
5397.78378,0.10958
5399.71225,0.08913
5401.64071,0.05693
5403.56918,0.03755
5405.49765,0.03416
5407.42612,0.04195
5409.35459,0.05981
5411.28306,0.07667
5413.21153,0.08176
5415.13999,0.08539
5417.06846,0.10110
5418.99693,0.11179
5420.92540,0.09669
5422.85387,0.07234
5424.78234,0.06225
5426.71081,0.05949
5428.63928,0.05368
5430.56774,0.06159
5432.49621,0.07283
5434.42468,0.05541
5436.35315,0.04213
5438.28162,0.06562
5440.21009,0.09540
5442.13856,0.10100
5444.06702,0.08487
5445.99549,0.07273
5447.92396,0.09201
5449.85243,0.12857
5451.78090,0.12972
5453.70937,0.09646
5455.63784,0.07807
5457.56631,0.09268
5459.49477,0.11371
5461.42324,0.10678
5463.35171,0.06856
5465.28018,0.03962
5467.20865,0.04667
5469.13712,0.07589
5471.06559,0.09177
5472.99405,0.08099
5474.92252,0.05983
5476.85099,0.04941
5478.77946,0.05648
5480.70793,0.06435
5482.63640,0.06478
5484.56487,0.07930
5486.49334,0.11358
5488.42180,0.14026
5490.35027,0.14448
5492.27874,0.13136
5494.20721,0.10520
5496.13568,0.07954
5498.06415,0.06355
5499.99262,0.05815
5501.92108,0.07100
5503.84955,0.09246
5505.77802,0.09985
5507.70649,0.08809
5509.63496,0.07216
5511.56343,0.08336
5513.49190,0.11960
5515.42037,0.14469
5517.34883,0.15432
5519.27730,0.14552
5521.20577,0.11162
5523.13424,0.06539
5525.06271,0.02890
5526.99118,0.02491
5528.91965,0.04549
5530.84811,0.05796
5532.77658,0.05379
5534.70505,0.05602
5536.63352,0.06624
5538.56199,0.06630
5540.49046,0.07272
5542.41893,0.09360
5544.34740,0.10236
5546.27586,0.09320
5548.20433,0.08094
5550.13280,0.08579
5552.06127,0.11414
5553.98974,0.13412
5555.91821,0.11565
5557.84668,0.07939
5559.77514,0.05814
5561.70361,0.04008
5563.63208,0.02444
5565.56055,0.03595
5567.48902,0.05922
5569.41749,0.08038
5571.34596,0.09957
5573.27443,0.09302
5575.20289,0.06743
5577.13136,0.05593
5579.05983,0.05935
5580.98830,0.06517
5582.91677,0.07418
5584.84524,0.08578
5586.77371,0.08878
5588.70217,0.09423
5590.63064,0.11014
5592.55911,0.10742
5594.48758,0.07919
5596.41605,0.05378
5598.34452,0.05398
5600.27299,0.06839
5602.20145,0.07679
5604.12992,0.08814
5606.05839,0.09321
5607.98686,0.09407
5609.91533,0.10505
5611.84380,0.07396
5613.77227,0.00220
5615.70074,-0.01932
5617.62920,0.02140
5619.55767,0.06491
5621.48614,0.08027
5623.41461,0.08284
5625.34308,0.08839
5627.27155,0.08908
5629.20002,0.07851
5631.12848,0.07349
5633.05695,0.07881
5634.98542,0.07080
5636.91389,0.05987
5638.84236,0.07665
5640.77083,0.09660
5642.69930,0.09635
5644.62777,0.09411
5646.55623,0.09817
5648.48470,0.10927
5650.41317,0.13481
5652.34164,0.15941
5654.27011,0.16716
5656.19858,0.15843
5658.12705,0.13472
5660.05551,0.11454
5661.98398,0.10962
5663.91245,0.10082
5665.84092,0.07995
5667.76939,0.05526
5669.69786,0.03840
5671.62633,0.04575
5673.55480,0.07336
5675.48326,0.09765
5677.41173,0.10318
5679.34020,0.09758
5681.26867,0.09854
5683.19714,0.10076
5685.12561,0.08451
5687.05408,0.06456
5688.98254,0.07491
5690.91101,0.10488
5692.83948,0.12155
5694.76795,0.12081
5696.69642,0.11480
5698.62489,0.11530
5700.55336,0.12093
5702.48183,0.11692
5704.41029,0.10435
5706.33876,0.10897
5708.26723,0.12766
5710.19570,0.12759
5712.12417,0.11853
5714.05264,0.12106
5715.98111,0.12347
5717.90957,0.11404
5719.83804,0.08509
5721.76651,0.06040
5723.69498,0.07382
5725.62345,0.10527
5727.55192,0.11211
5729.48039,0.08734
5731.40886,0.06171
5733.33732,0.04971
5735.26579,0.05031
5737.19426,0.08064
5739.12273,0.13002
5741.05120,0.14415
5742.97967,0.11447
5744.90814,0.08571
5746.83660,0.07768
5748.76507,0.07913
5750.69354,0.08041
5752.62201,0.07649
5754.55048,0.06888
5756.47895,0.06060
5758.40742,0.05273
5760.33588,0.06021
5762.26435,0.09122
5764.19282,0.11096
5766.12129,0.09407
5768.04976,0.06654
5769.97823,0.05846
5771.90670,0.09226
5773.83517,0.14601
5775.76363,0.16723
5777.69210,0.15101
5779.62057,0.10772
5781.54904,0.05501
5783.47751,0.03463
5785.40598,0.05988
5787.33445,0.09753
5789.26291,0.10057
5791.19138,0.07306
5793.11985,0.06006
5795.04832,0.06206
5796.97679,0.06448
5798.90526,0.07882
5800.83373,0.09638
5802.76220,0.10785
5804.69066,0.11670
5806.61913,0.11116
5808.54760,0.09488
5810.47607,0.08114
5812.40454,0.06405
5814.33301,0.04318
5816.26148,0.04535
5818.18994,0.08459
5820.11841,0.12035
5822.04688,0.12321
5823.97535,0.10497
5825.90382,0.08958
5827.83229,0.10995
5829.76076,0.13483
5831.68923,0.11158
5833.61769,0.07871
5835.54616,0.08496
5837.47463,0.10609
5839.40310,0.11036
5841.33157,0.10743
5843.26004,0.09268
5845.18851,0.06049
5847.11697,0.04836
5849.04544,0.06760
5850.97391,0.08781
5852.90238,0.09801
5854.83085,0.10115
5856.75932,0.10288
5858.68779,0.11426
5860.61626,0.11704
5862.54472,0.09955
5864.47319,0.08042
5866.40166,0.06651
5868.33013,0.07904
5870.25860,0.11496
5872.18707,0.13374
5874.11554,0.13773
5876.04400,0.14319
5877.97247,0.14245
5879.90094,0.11835
5881.82941,0.06692
5883.75788,0.03953
5885.68635,0.05899
5887.61482,0.05924
5889.54329,0.03159
5891.47175,0.02736
5893.40022,0.03448
5895.32869,0.02695
5897.25716,0.02170
5899.18563,0.04262
5901.11410,0.06902
5903.04257,0.07496
5904.97103,0.08969
5906.89950,0.13725
5908.82797,0.16307
5910.75644,0.13057
5912.68491,0.09766
5914.61338,0.06835
5916.54185,0.02423
5918.47032,0.02198
5920.39878,0.06087
5922.32725,0.06918
5924.25572,0.05905
5926.18419,0.09842
5928.11266,0.14102
5930.04113,0.11664
5931.96960,0.07080
5933.89806,0.04724
5935.82653,0.04765
5937.75500,0.06708
5939.68347,0.08415
5941.61194,0.09536
5943.54041,0.11260
5945.46888,0.10881
5947.39734,0.08749
5949.32581,0.09478
5951.25428,0.11428
5953.18275,0.10836
5955.11122,0.07230
5957.03969,0.04209
5958.96816,0.05931
5960.89663,0.10323
5962.82509,0.15084
5964.75356,0.19270
5966.68203,0.20639
5968.61050,0.18164
5970.53897,0.13794
5972.46744,0.10440
5974.39591,0.08410
5976.32437,0.07622
5978.25284,0.08124
5980.18131,0.08639
5982.10978,0.07735
5984.03825,0.05459
5985.96672,0.05189
5987.89519,0.08410
5989.82366,0.10456
5991.75212,0.10151
5993.68059,0.12555
5995.60906,0.17474
5997.53753,0.18937
5999.46600,0.18000
6001.39447,0.18033
6003.32294,0.16188
6005.25140,0.12446
6007.17987,0.11527
6009.10834,0.13660
6011.03681,0.16117
6012.96528,0.14872
6014.89375,0.09023
6016.82222,0.04789
6018.75069,0.07377
6020.67915,0.12311
6022.60762,0.13995
6024.53609,0.13139
6026.46456,0.11197
6028.39303,0.10255
6030.32150,0.11734
6032.24997,0.13677
6034.17843,0.15649
6036.10690,0.16236
6038.03537,0.14266
6039.96384,0.13268
6041.89231,0.12193
6043.82078,0.09380
6045.74925,0.08249
6047.67772,0.07246
6049.60618,0.04147
6051.53465,0.02561
6053.46312,0.05158
6055.39159,0.11015
6057.32006,0.14653
6059.24853,0.13371
6061.17700,0.13106
6063.10546,0.15982
6065.03393,0.14857
6066.96240,0.09014
6068.89087,0.05375
6070.81934,0.04710
6072.74781,0.04455
6074.67628,0.06023
6076.60475,0.09697
6078.53321,0.13589
6080.46168,0.14123
6082.39015,0.11675
6084.31862,0.12969
6086.24709,0.17267
6088.17556,0.17229
6090.10403,0.14281
6092.03249,0.15538
6093.96096,0.19768
6095.88943,0.19621
6097.81790,0.16520
6099.74637,0.13255
6101.67484,0.06177
6103.60331,-0.01400
6105.53177,-0.01230
6107.46024,0.04002
6109.38871,0.06069
6111.31718,0.07202
6113.24565,0.11126
6115.17412,0.12273
6117.10259,0.10158
6119.03106,0.11648
6120.95952,0.12679
6122.88799,0.08866
6124.81646,0.07608
6126.74493,0.10974
6128.67340,0.14439
6130.60187,0.14668
6132.53034,0.10042
6134.45880,0.06051
6136.38727,0.07324
6138.31574,0.08925
6140.24421,0.08949
6142.17268,0.08294
6144.10115,0.03247
6146.02962,-0.00399
6147.95809,0.04485
6149.88655,0.11142
6151.81502,0.12310
6153.74349,0.09825
6155.67196,0.07865
6157.60043,0.07982
6159.52890,0.06695
6161.45737,0.04001
6163.38583,0.05574
6165.31430,0.08660
6167.24277,0.09643
6169.17124,0.10232
6171.09971,0.08928
6173.02818,0.04661
6174.95665,0.02116
6176.88512,0.05824
6178.81358,0.11986
6180.74205,0.13068
6182.67052,0.08383
6184.59899,0.03640
6186.52746,0.03806
6188.45593,0.08390
6190.38440,0.10428
6192.31286,0.08788
6194.24133,0.09725
6196.16980,0.10139
6198.09827,0.07274
6200.02674,0.09812
6201.95521,0.14507
6203.88368,0.12583
6205.81215,0.09417
6207.74061,0.08249
6209.66908,0.05085
6211.59755,0.02195
6213.52602,0.05714
6215.45449,0.12802
6217.38296,0.13241
6219.31143,0.08872
6221.23989,0.08498
6223.16836,0.10679
6225.09683,0.11567
6227.02530,0.10057
6228.95377,0.09499
6230.88224,0.13656
6232.81071,0.14102
6234.73918,0.08651
6236.66764,0.05682
6238.59611,0.05304
6240.52458,0.06006
6242.45305,0.04739
6244.38152,0.00295
6246.30999,0.00495
6248.23846,0.08382
6250.16692,0.16485
6252.09539,0.16693
6254.02386,0.11671
6255.95233,0.07593
6257.88080,0.05163
6259.80927,0.05092
6261.73774,0.06908
6263.66621,0.08858
6265.59467,0.10580
6267.52314,0.09371
6269.45161,0.07654
6271.38008,0.07774
6273.30855,0.07431
6275.23702,0.08860
6277.16549,0.10013
6279.09395,0.06824
6281.02242,0.02324
6282.95089,-0.00426
6284.87936,-0.01504
6286.80783,-0.01501
6288.73630,0.03366
6290.66477,0.12525
6292.59323,0.17903
6294.52170,0.16584
6296.45017,0.11779
6298.37864,0.07539
6300.30711,0.05436
6302.23558,0.04417
6304.16405,0.05334
6306.09252,0.08249
6308.02098,0.06987
6309.94945,-0.00281
6311.87792,-0.05002
6313.80639,0.00488
6315.73486,0.12382
6317.66333,0.19229
6319.59180,0.15419
6321.52026,0.07063
6323.44873,0.03168
6325.37720,0.03458
6327.30567,0.03071
6329.23414,0.01273
6331.16261,0.00923
6333.09108,0.03632
6335.01955,0.06223
6336.94801,0.05926
6338.87648,0.05454
6340.80495,0.07832
6342.73342,0.10996
6344.66189,0.14119
6346.59036,0.16208
6348.51883,0.13908
6350.44729,0.12442
6352.37576,0.15296
6354.30423,0.15234
6356.23270,0.11144
6358.16117,0.08046
6360.08964,0.08324
6362.01811,0.09362
6363.94658,0.07472
6365.87504,0.04870
6367.80351,0.05640
6369.73198,0.06897
6371.66045,0.04699
6373.58892,0.01256
6375.51739,0.03156
6377.44586,0.09338
6379.37432,0.10049
6381.30279,0.04339
6383.23126,0.04177
6385.15973,0.11028
6387.08820,0.14657
6389.01667,0.15429
6390.94514,0.11672
6392.87361,0.03499
6394.80207,0.01489
6396.73054,0.03207
6398.65901,0.02655
6400.58748,0.03537
6402.51595,0.06821
6404.44442,0.11936
6406.37289,0.21058
6408.30135,0.30582
6410.22982,0.29779
6412.15829,0.18868
6414.08676,0.10626
6416.01523,0.07672
6417.94370,0.07800
6419.87217,0.10959
6421.80064,0.12316
6423.72910,0.12514
6425.65757,0.15366
6427.58604,0.15139
6429.51451,0.10595
6431.44298,0.09354
6433.37145,0.10199
6435.29992,0.11173
6437.22838,0.14242
6439.15685,0.16881
6441.08532,0.17497
6443.01379,0.15677
6444.94226,0.10896
6446.87073,0.06328
6448.79920,0.03662
6450.72766,0.01413
6452.65613,0.00224
6454.58460,0.00507
6456.51307,0.00227
6458.44154,-0.00365
6460.37001,0.01564
6462.29848,0.05062
6464.22695,0.06649
6466.15541,0.06421
6468.08388,0.06225
6470.01235,0.07936
6471.94082,0.08387
6473.86929,0.05443
6475.79776,0.01185
6477.72623,-0.02489
6479.65469,-0.03091
6481.58316,-0.06108
6483.51163,-0.09619
6485.44010,-0.04322
6487.36857,0.03761
6489.29704,0.04612
6491.22551,0.01418
6493.15398,0.04958
6495.08244,0.12090
6497.01091,0.14070
6498.93938,0.13329
6500.86785,0.12038
6502.79632,0.11624
6504.72479,0.13718
6506.65326,0.13595
6508.58172,0.10660
6510.51019,0.07126
6512.43866,0.03242
6514.36713,0.04403
6516.29560,0.09447
6518.22407,0.10319
6520.15254,0.06599
6522.08101,0.00500
6524.00947,-0.05772
6525.93794,-0.05879
6527.86641,-0.00325
6529.79488,0.03974
6531.72335,0.05830
6533.65182,0.08077
6535.58029,0.10170
6537.50875,0.09485
6539.43722,0.08501
6541.36569,0.10685
6543.29416,0.12562
6545.22263,0.12189
6547.15110,0.15314
6549.07957,0.18104
6551.00804,0.15076
6552.93650,0.15802
6554.86497,0.19327
6556.79344,0.16976
6558.72191,0.12634
6560.65038,0.08640
6562.57885,0.00616
6564.50732,-0.09666
6566.43578,-0.13813
6568.36425,-0.10728
6570.29272,-0.04503
6572.22119,0.02372
6574.14966,0.07861
6576.07813,0.12197
6578.00660,0.16757
6579.93507,0.19560
6581.86353,0.19435
6583.79200,0.17377
6585.72047,0.12594
6587.64894,0.06643
6589.57741,0.02302
6591.50588,-0.00965
6593.43435,-0.01871
6595.36281,-0.00155
6597.29128,0.03402
6599.21975,0.07845
6601.14822,0.06187
6603.07669,0.01033
6605.00516,0.00368
6606.93363,0.03636
6608.86210,0.08260
6610.79056,0.12558
6612.71903,0.16204
6614.64750,0.16078
6616.57597,0.10779
6618.50444,0.03296
6620.43291,-0.01294
6622.36138,0.00541
6624.28984,0.04407
6626.21831,0.08607
6628.14678,0.13335
6630.07525,0.12062
6632.00372,0.06144
6633.93219,-0.00017
6635.86066,-0.01426
6637.78912,0.07720
6639.71759,0.17286
6641.64606,0.20065
6643.57453,0.19286
6645.50300,0.18781
6647.43147,0.14836
6649.35994,0.05264
6651.28841,-0.01792
6653.21687,0.01461
6655.14534,0.11996
6657.07381,0.16795
6659.00228,0.11480
6660.93075,0.08712
6662.85922,0.13197
6664.78769,0.14081
6666.71615,0.09258
6668.64462,0.09058
6670.57309,0.14869
6672.50156,0.20982
6674.43003,0.23786
6676.35850,0.18664
6678.28697,0.07490
6680.21544,-0.00232
6682.14390,-0.04087
6684.07237,-0.08356
6686.00084,-0.10968
6687.92931,-0.07565
6689.85778,0.00517
6691.78625,0.05663
6693.71472,0.06591
6695.64318,0.03719
6697.57165,0.00801
6699.50012,0.04567
6701.42859,0.09976
6703.35706,0.11916
6705.28553,0.13259
6707.21400,0.13623
6709.14247,0.11622
6711.07093,0.10719
6712.99940,0.14525
6714.92787,0.21425
6716.85634,0.19341
6718.78481,0.05222
6720.71328,-0.04098
6722.64175,-0.02066
6724.57021,0.03806
6726.49868,0.08488
6728.42715,0.09670
6730.35562,0.06580
6732.28409,0.03996
6734.21256,0.07995
6736.14103,0.11698
6738.06950,0.11602
6739.99796,0.13809
6741.92643,0.13397
6743.85490,0.06159
6745.78337,0.02742
6747.71184,0.05436
6749.64031,0.00946
6751.56878,-0.08207
6753.49724,-0.06332
6755.42571,0.00668
6757.35418,0.00908
6759.28265,-0.00837
6761.21112,0.02260
6763.13959,0.06502
6765.06806,0.08850
6766.99653,0.08495
6768.92499,0.07125
6770.85346,0.09379
6772.78193,0.09921
6774.71040,0.06125
6776.63887,0.10665
6778.56734,0.19592
6780.49581,0.19112
6782.42427,0.14522
6784.35274,0.12493
6786.28121,0.12624
6788.20968,0.15884
6790.13815,0.20812
6792.06662,0.23206
6793.99509,0.21734
6795.92355,0.21442
6797.85202,0.23108
6799.78049,0.19564
6801.70896,0.11821
6803.63743,0.11348
6805.56590,0.15124
6807.49437,0.10432
6809.42284,0.02250
6811.35130,-0.00237
6813.27977,0.02981
6815.20824,0.08460
6817.13671,0.07629
6819.06518,-0.00836
6820.99365,-0.05311
6822.92212,-0.00756
6824.85058,0.07196
6826.77905,0.10250
6828.70752,0.08254
6830.63599,0.09578
6832.56446,0.16306
6834.49293,0.22191
6836.42140,0.21847
6838.34987,0.11407
6840.27833,0.01077
6842.20680,0.00799
6844.13527,0.03597
6846.06374,0.04081
6847.99221,0.01580
6849.92068,-0.05465
6851.84915,-0.08980
6853.77761,-0.05618
6855.70608,-0.02624
6857.63455,-0.03908
6859.56302,-0.06313
6861.49149,-0.08315
6863.41996,-0.05280
6865.34843,0.03013
6867.27690,0.07626
6869.20536,0.08763
6871.13383,0.12606
6873.06230,0.14026
6874.99077,0.06627
6876.91924,-0.04009
6878.84771,-0.06473
6880.77618,0.01937
6882.70464,0.04352
6884.63311,-0.06004
6886.56158,-0.15009
6888.49005,-0.12234
6890.41852,-0.04325
6892.34699,0.01246
6894.27546,0.05702
6896.20393,0.09685
6898.13239,0.10194
6900.06086,0.07511
6901.98933,0.04603
6903.91780,0.03544
6905.84627,0.04642
6907.77474,0.07182
6909.70321,0.10772
6911.63167,0.11078
6913.56014,0.07264
6915.48861,0.06987
6917.41708,0.09291
6919.34555,0.06728
6921.27402,0.07681
6923.20249,0.13556
6925.13096,0.12217
6927.05942,0.03900
6928.98789,-0.03563
6930.91636,0.04206
6932.84483,0.22620
6934.77330,0.19863
6936.70177,0.02172
6938.63024,-0.03749
6940.55870,0.08786
6942.48717,0.22731
6944.41564,0.25896
6946.34411,0.15954
6948.27258,0.03278
6950.20105,-0.00899
6952.12952,-0.01983
6954.05799,0.00093
6955.98645,0.12897
6957.91492,0.26190
6959.84339,0.24055
6961.77186,0.10970
6963.70033,0.03316
6965.62880,0.00826
6967.55727,-0.03815
6969.48573,-0.06782
6971.41420,-0.02482
6973.34267,0.02544
6975.27114,-0.03478
6977.19961,-0.12664
6979.12808,-0.11717
6981.05655,-0.02161
6982.98501,0.10356
6984.91348,0.14901
6986.84195,0.09571
6988.77042,0.06252
6990.69889,0.07553
6992.62736,0.10614
6994.55583,0.12670
6996.48430,0.10052
6998.41276,0.04749
7000.34123,0.04374
7002.26970,0.06510
7004.19817,0.02279
7006.12664,-0.05232
7008.05511,-0.08907
7009.98358,-0.09824
7011.91204,-0.08604
7013.84051,-0.02421
7015.76898,0.00288
7017.69745,-0.05116
7019.62592,-0.06380
7021.55439,-0.05211
7023.48286,-0.10660
7025.41133,-0.09556
7027.33979,0.02917
7029.26826,0.07297
7031.19673,-0.00898
7033.12520,-0.02706
7035.05367,0.11063
7036.98214,0.23290
7038.91061,0.20768
7040.83907,0.10967
7042.76754,0.03793
7044.69601,0.04904
7046.62448,0.08855
7048.55295,0.05591
7050.48142,-0.04298
7052.40989,-0.10985
7054.33836,-0.07731
7056.26682,0.06047
7058.19529,0.19643
7060.12376,0.13108
7062.05223,0.00409
7063.98070,0.06569
7065.90917,0.20859
7067.83764,0.22615
7069.76610,0.11706
7071.69457,0.04523
7073.62304,0.04370
7075.55151,0.04522
7077.47998,0.06090
7079.40845,0.01974
7081.33692,-0.13159
7083.26539,-0.25689
7085.19385,-0.25769
7087.12232,-0.15553
7089.05079,-0.01497
7090.97926,0.11727
7092.90773,0.20213
7094.83620,0.24447
7096.76467,0.23277
7098.69313,0.10323
7100.62160,-0.02738
7102.55007,-0.05934
7104.47854,0.00779
7106.40701,0.14710
7108.33548,0.24436
7110.26395,0.21819
7112.19242,0.07715
7114.12088,-0.08469
7116.04935,-0.18918
7117.97782,-0.16928
7119.90629,-0.05800
7121.83476,0.00773
7123.76323,0.04851
7125.69170,0.09092
7127.62016,0.11557
7129.54863,0.19698
7131.47710,0.27548
7133.40557,0.22213
7135.33404,0.10177
7137.26251,-0.00353
7139.19098,-0.07221
7141.11944,0.00115
7143.04791,0.15958
7144.97638,0.20762
7146.90485,0.10703
7148.83332,-0.02084
7150.76179,-0.14504
7152.69026,-0.17662
7154.61873,-0.01417
7156.54719,0.03335
7158.47566,-0.13817
7160.40413,-0.20547
7162.33260,-0.12236
7164.26107,-0.11325
7166.18954,-0.16036
7168.11801,-0.17690
7170.04647,-0.09632
7171.97494,0.02755
7173.90341,0.02934
7175.83188,0.04827
7177.76035,0.19404
7179.68882,0.28352
7181.61729,0.26590
7183.54576,0.17884
7185.47422,0.03963
7187.40269,-0.05776
7189.33116,-0.05609
7191.25963,0.04033
7193.18810,0.19061
7195.11657,0.18689
7197.04504,0.04790
7198.97350,-0.03738
7200.90197,-0.06557
7202.83044,-0.00755
7204.75891,0.22295
7206.68738,0.34679
7208.61585,0.23261
7210.54432,0.05428
7212.47279,-0.04760
7214.40125,-0.03561
7216.32972,-0.02922
7218.25819,-0.11651
7220.18666,-0.17766
7222.11513,-0.15434
7224.04360,-0.11218
7225.97207,-0.10513
7227.90053,-0.11844
7229.82900,-0.13271
7231.75747,-0.09950
7233.68594,0.03350
7235.61441,0.18252
7237.54288,0.24186
7239.47135,0.23314
7241.39982,0.32986
7243.32828,0.46596
7245.25675,0.37309
7247.18522,0.16068
7249.11369,-0.01397
7251.04216,-0.08833
7252.97063,-0.02308
7254.89910,0.05240
7256.82756,-0.00757
7258.75603,-0.08588
7260.68450,-0.02285
7262.61297,0.07931
7264.54144,-0.00734
7266.46991,-0.17607
7268.39838,-0.17692
7270.32685,0.02813
7272.25531,0.23963
7274.18378,0.25372
7276.11225,0.21699
7278.04072,0.21758
7279.96919,0.19418
7281.89766,0.15996
7283.82613,0.11124
7285.75459,0.05702
7287.68306,0.08121
7289.61153,0.10240
7291.54000,-0.02125
7293.46847,-0.11813
7295.39694,0.00560
7297.32541,0.21004
7299.25387,0.29310
7301.18234,0.13561
7303.11081,-0.19582
7305.03928,-0.32584
7306.96775,-0.08954
7308.89622,0.18670
7310.82469,0.28356
7312.75316,0.34435
7314.68162,0.30486
7316.61009,0.08209
7318.53856,-0.05491
7320.46703,0.01836
7322.39550,0.11528
7324.32397,0.16040
7326.25244,0.20148
7328.18090,0.17617
7330.10937,0.06129
7332.03784,0.07197
7333.96631,0.16859
7335.89478,0.13647
7337.82325,0.08614
7339.75172,0.27446
7341.68019,0.43637
7343.60865,0.30377
7345.53712,0.12322
7347.46559,0.07823
7349.39406,0.08903
7351.32253,0.03887
7353.25100,0.04965
7355.17947,0.18965
7357.10793,0.33165
7359.03640,0.28585
7360.96487,0.15385
7362.89334,0.12244
7364.82181,0.06666
7366.75028,-0.02629
7368.67875,0.00085
7370.60722,0.05201
7372.53568,0.01012
7374.46415,0.01279
7376.39262,0.14990
7378.32109,0.19966
7380.24956,0.17781
7382.17803,0.16323
7384.10650,0.10433
7386.03496,0.04327
7387.96343,0.08172
7389.89190,0.14250
7391.82037,0.14257
7393.74884,0.18034
7395.67731,0.25308
7397.60578,0.19392
7399.53425,0.06228
7401.46271,-0.03647
7403.39118,-0.09164
7405.31965,-0.10927
7407.24812,-0.08558
7409.17659,-0.03320
7411.10506,0.00822
7413.03353,0.07235
7414.96199,0.21655
7416.89046,0.30477
7418.81893,0.15827
7420.74740,0.09399
7422.67587,0.11527
7424.60434,-0.02438
7426.53281,-0.11535
7428.46128,0.00829
7430.38974,0.26102
7432.31821,0.39945
7434.24668,0.34383
7436.17515,0.14060
7438.10362,-0.05750
7440.03209,0.04327
7441.96056,0.27896
7443.88902,0.31956
7445.81749,0.18533
7447.74596,0.00600
7449.67443,-0.03927
7451.60290,0.08043
7453.53137,0.09899
7455.45984,0.04013
7457.38831,0.06683
7459.31677,0.21619
7461.24524,0.34183
7463.17371,0.26044
7465.10218,0.10839
7467.03065,0.08969
7468.95912,0.10240
7470.88759,0.08245
7472.81605,0.13897
7474.74452,0.21395
7476.67299,0.20176
7478.60146,0.09339
7480.52993,-0.09670
7482.45840,-0.25130
7484.38687,-0.18814
7486.31533,-0.07798
7488.24380,-0.03226
7490.17227,0.08665
7492.10074,0.13427
7494.02921,0.04044
7495.95768,0.01198
7497.88615,0.04422
