399.19301,7.48176
401.12148,0.90870
403.04995,-0.16518
404.97842,0.22969
406.90689,1.03967
408.83536,1.57810
410.76382,1.91170
412.69229,3.65088
414.62076,7.00700
416.54923,8.73473
418.47770,5.79020
420.40617,1.22079
422.33464,-0.27555
424.26311,-0.35624
426.19157,-0.30375
428.12004,-0.36772
430.04851,-0.33971
431.97698,-0.26095
433.90545,-0.14761
435.83392,-0.00529
437.76239,0.03850
439.69085,-0.01477
441.61932,-0.05070
443.54779,0.06769
445.47626,0.18483
447.40473,0.13048
449.33320,0.03633
451.26167,0.02325
453.19013,0.04199
455.11860,0.06233
457.04707,0.03285
458.97554,-0.02909
460.90401,-0.02622
462.83248,0.02188
464.76095,0.09836
466.68942,0.17355
468.61788,0.21577
470.54635,0.29520
472.47482,1.01107
474.40329,2.09792
476.33176,1.43630
478.26023,0.43753
480.18870,0.11491
482.11716,0.12062
484.04563,0.14655
485.97410,0.12312
487.90257,0.06552
489.83104,0.06372
491.75951,0.10413
493.68798,0.09646
495.61645,0.03861
497.54491,-0.00394
499.47338,-0.00543
501.40185,0.04247
503.33032,0.11898
505.25879,0.17888
507.18726,0.19483
509.11573,0.15645
511.04419,0.10334
512.97266,0.07942
514.90113,0.09773
516.82960,0.12147
518.75807,0.12476
520.68654,0.11298
522.61501,0.10011
524.54348,0.11699
526.47194,0.14055
528.40041,0.13526
530.32888,0.12432
532.25735,0.11774
534.18582,0.11787
536.11429,0.14659
538.04276,0.16656
539.97122,0.14073
541.89969,0.11871
543.82816,0.10618
545.75663,0.07373
547.68510,0.05687
549.61357,0.06024
551.54204,0.07814
553.47051,0.15620
555.39897,0.22215
557.32744,0.17305
559.25591,0.09891
561.18438,0.08651
563.11285,0.11949
565.04132,0.15364
566.96979,0.14915
568.89825,0.14781
570.82672,0.18583
572.75519,0.21904
574.68366,0.20561
576.61213,0.16859
578.54060,0.15057
580.46907,0.14444
582.39754,0.15479
584.32600,0.18543
586.25447,0.19047
588.18294,0.16547
590.11141,0.14803
592.03988,0.13082
593.96835,0.11039
595.89682,0.11365
597.82528,0.13912
599.75375,0.15881
601.68222,0.15766
603.61069,0.14054
605.53916,0.11798
607.46763,0.11798
609.39610,0.14831
611.32456,0.16593
613.25303,0.15086
615.18150,0.12789
617.10997,0.11473
619.03844,0.12124
620.96691,0.13641
622.89538,0.12905
624.82385,0.10859
626.75231,0.11356
628.68078,0.14658
630.60925,0.16635
632.53772,0.15367
634.46619,0.14229
636.39466,0.15202
638.32313,0.15933
640.25159,0.14831
642.18006,0.12959
644.10853,0.11771
646.03700,0.11798
647.96547,0.12287
649.89394,0.12960
651.82241,0.14610
653.75088,0.15073
655.67934,0.13490
657.60781,0.12415
659.53628,0.11782
661.46475,0.11587
663.39322,0.12815
665.32169,0.14406
667.25016,0.15030
669.17862,0.13980
671.10709,0.12851
673.03556,0.12548
674.96403,0.12551
676.89250,0.13106
678.82097,0.14854
680.74944,0.15976
682.67791,0.14859
684.60637,0.13201
686.53484,0.13103
688.46331,0.13823
690.39178,0.13627
692.32025,0.12922
694.24872,0.12854
696.17719,0.13525
698.10565,0.13522
700.03412,0.12511
701.96259,0.11967
703.89106,0.12232
705.81953,0.12655
707.74800,0.13579
709.67647,0.15311
711.60494,0.16767
713.53340,0.16828
715.46187,0.15814
717.39034,0.15085
719.31881,0.14135
721.24728,0.12541
723.17575,0.12018
725.10422,0.12179
727.03268,0.12293
728.96115,0.12999
730.88962,0.13719
732.81809,0.14044
734.74656,0.14639
736.67503,0.15493
738.60350,0.15492
740.53197,0.13969
742.46043,0.12443
744.38890,0.12396
746.31737,0.13164
748.24584,0.13286
750.17431,0.12367
752.10278,0.12035
754.03125,0.13191
755.95971,0.14438
757.88818,0.14502
759.81665,0.13717
761.74512,0.13254
763.67359,0.13438
765.60206,0.13775
767.53053,0.14146
769.45900,0.14803
771.38746,0.15429
773.31593,0.15403
775.24440,0.14233
777.17287,0.12670
779.10134,0.12609
781.02981,0.13828
782.95828,0.14488
784.88674,0.13943
786.81521,0.13118
788.74368,0.13295
790.67215,0.14395
792.60062,0.14644
794.52909,0.13681
796.45756,0.13459
798.38602,0.14156
800.31449,0.14359
802.24296,0.14317
804.17143,0.15147
806.09990,0.15362
808.02837,0.13554
809.95684,0.11905
811.88531,0.11828
813.81377,0.12283
815.74224,0.12886
817.67071,0.13344
819.59918,0.13623
821.52765,0.14612
823.45612,0.15227
825.38459,0.14804
827.31305,0.14463
829.24152,0.14158
831.16999,0.13675
833.09846,0.13205
835.02693,0.12959
836.95540,0.13696
838.88387,0.15332
840.81234,0.16050
842.74080,0.15683
844.66927,0.15377
846.59774,0.15216
848.52621,0.15187
850.45468,0.15360
852.38315,0.15142
854.31162,0.14458
856.24008,0.14672
858.16855,0.15522
860.09702,0.15522
862.02549,0.14246
863.95396,0.13201
865.88243,0.15162
867.81090,0.31693
869.73937,0.62642
871.66783,0.67635
873.59630,0.37751
875.52477,0.16612
877.45324,0.14282
879.38171,0.14639
881.31018,0.14913
883.23865,0.14881
885.16711,0.14218
887.09558,0.13556
889.02405,0.13837
890.95252,0.14958
892.88099,0.15443
894.80946,0.15140
896.73793,0.15369
898.66640,0.15767
900.59486,0.15531
902.52333,0.15147
904.45180,0.14844
906.38027,0.15169
908.30874,0.16439
910.23721,0.18008
912.16568,0.18301
914.09414,0.17189
916.02261,0.16326
917.95108,0.16160
919.87955,0.15952
921.80802,0.15427
923.73649,0.15080
925.66496,0.15042
927.59343,0.15108
929.52189,0.15062
931.45036,0.15355
933.37883,0.16269
935.30730,0.16760
937.23577,0.16268
939.16424,0.15589
941.09271,0.15699
943.02117,0.16277
944.94964,0.16491
946.87811,0.16088
948.80658,0.14878
950.73505,0.13682
952.66352,0.13852
954.59199,0.14836
956.52045,0.15388
958.44892,0.15622
960.37739,0.15505
962.30586,0.14807
964.23433,0.14202
966.16280,0.14288
968.09127,0.14877
970.01974,0.15572
971.94820,0.15716
973.87667,0.14957
975.80514,0.14280
977.73361,0.14926
979.66208,0.16113
981.59055,0.16102
983.51902,0.15013
985.44748,0.13967
987.37595,0.14122
989.30442,0.15503
991.23289,0.16187
993.16136,0.15491
995.08983,0.15089
997.01830,0.15589
998.94677,0.15705
1000.87523,0.15284
1002.80370,0.15324
1004.73217,0.15758
1006.66064,0.16086
1008.58911,0.16530
1010.51758,0.17061
1012.44605,0.17147
1014.37451,0.16598
1016.30298,0.15950
1018.23145,0.15896
1020.15992,0.16391
1022.08839,0.16988
1024.01686,0.17589
1025.94533,0.19298
1027.87380,0.21538
1029.80226,0.21181
1031.73073,0.18274
1033.65920,0.15930
1035.58767,0.15458
1037.51614,0.15771
1039.44461,0.15983
1041.37308,0.16368
1043.30154,0.17252
1045.23001,0.18378
1047.15848,0.18830
1049.08695,0.18472
1051.01542,0.18060
1052.94389,0.17830
1054.87236,0.17515
1056.80083,0.16673
1058.72929,0.15364
1060.65776,0.15038
1062.58623,0.16482
1064.51470,0.17752
1066.44317,0.17254
1068.37164,0.16366
1070.30011,0.16521
1072.22857,0.17233
1074.15704,0.17662
1076.08551,0.17703
1078.01398,0.17441
1079.94245,0.16858
1081.87092,0.16726
1083.79939,0.17513
1085.72786,0.18122
1087.65632,0.17975
1089.58479,0.17737
1091.51326,0.17831
1093.44173,0.18193
1095.37020,0.18560
1097.29867,0.18443
1099.22714,0.18445
1101.15560,0.19019
1103.08407,0.18627
1105.01254,0.17401
1106.94101,0.16942
1108.86948,0.17160
1110.79795,0.17586
1112.72642,0.18214
1114.65489,0.18779
1116.58335,0.18988
1118.51182,0.18727
1120.44029,0.17680
1122.36876,0.16409
1124.29723,0.15800
1126.22570,0.15401
1128.15417,0.15115
1130.08263,0.15375
1132.01110,0.15795
1133.93957,0.16175
1135.86804,0.16561
1137.79651,0.16981
1139.72498,0.17436
1141.65345,0.17453
1143.58191,0.17141
1145.51038,0.16821
1147.43885,0.16347
1149.36732,0.16291
1151.29579,0.17049
1153.22426,0.17859
1155.15273,0.18127
1157.08120,0.18106
1159.00966,0.18231
1160.93813,0.18602
1162.86660,0.18595
1164.79507,0.17888
1166.72354,0.17456
1168.65201,0.17535
1170.58048,0.17617
1172.50894,0.17937
1174.43741,0.18131
1176.36588,0.17477
1178.29435,0.16660
1180.22282,0.16338
1182.15129,0.16447
1184.07976,0.17149
1186.00823,0.18022
1187.93669,0.18628
1189.86516,0.18814
1191.79363,0.18279
1193.72210,0.17543
1195.65057,0.17127
1197.57904,0.17101
1199.50751,0.17565
1201.43597,0.18059
1203.36444,0.17850
1205.29291,0.17119
1207.22138,0.16853
1209.14985,0.17228
1211.07832,0.17575
1213.00679,0.17765
1214.93526,0.17869
1216.86372,0.17662
1218.79219,0.17511
1220.72066,0.17667
1222.64913,0.17703
1224.57760,0.17475
1226.50607,0.17145
1228.43454,0.17078
1230.36300,0.17278
1232.29147,0.17385
1234.21994,0.17586
1236.14841,0.18032
1238.07688,0.18426
1240.00535,0.18577
1241.93382,0.18431
1243.86229,0.18053
1245.79075,0.17609
1247.71922,0.17170
1249.64769,0.16837
1251.57616,0.16628
1253.50463,0.16505
1255.43310,0.16727
1257.36157,0.17271
1259.29003,0.17570
1261.21850,0.17633
1263.14697,0.17968
1265.07544,0.18677
1267.00391,0.19397
1268.93238,0.19511
1270.86085,0.19117
1272.78932,0.18639
1274.71778,0.18187
1276.64625,0.18083
1278.57472,0.18301
1280.50319,0.18280
1282.43166,0.17930
1284.36013,0.17746
1286.28860,0.17763
1288.21706,0.17779
1290.14553,0.17963
1292.07400,0.18127
1294.00247,0.17950
1295.93094,0.17492
1297.85941,0.16971
1299.78788,0.16622
1301.71634,0.16207
1303.64481,0.15627
1305.57328,0.15930
1307.50175,0.17385
1309.43022,0.18419
1311.35869,0.18391
1313.28716,0.18079
1315.21563,0.17920
1317.14409,0.18100
1319.07256,0.18339
1321.00103,0.18158
1322.92950,0.18059
1324.85797,0.18126
1326.78644,0.17933
1328.71491,0.17853
1330.64337,0.17937
1332.57184,0.18019
1334.50031,0.18275
1336.42878,0.18506
1338.35725,0.18481
1340.28572,0.18040
1342.21419,0.16957
1344.14266,0.15302
1346.07112,0.14392
1347.99959,0.15465
1349.92806,0.16968
1351.85653,0.17330
1353.78500,0.17260
1355.71347,0.17501
1357.64194,0.17888
1359.57040,0.18214
1361.49887,0.18624
1363.42734,0.18859
1365.35581,0.18806
1367.28428,0.18846
1369.21275,0.18863
1371.14122,0.18908
1373.06969,0.19163
1374.99815,0.19258
1376.92662,0.19110
1378.85509,0.18869
1380.78356,0.18420
1382.71203,0.18177
1384.64050,0.18639
1386.56897,0.19547
1388.49743,0.20013
1390.42590,0.19808
1392.35437,0.19703
1394.28284,0.20087
1396.21131,0.20475
1398.13978,0.20285
1400.06825,0.19609
1401.99672,0.19031
1403.92518,0.18882
1405.85365,0.18980
1407.78212,0.19034
1409.71059,0.18922
1411.63906,0.18699
1413.56753,0.18659
1415.49600,0.19077
1417.42446,0.19937
1419.35293,0.20515
1421.28140,0.20644
1423.20987,0.21185
1425.13834,0.21398
1427.06681,0.20594
1428.99528,0.19707
1430.92375,0.19330
1432.85221,0.19427
1434.78068,0.19914
1436.70915,0.20130
1438.63762,0.19680
1440.56609,0.19256
1442.49456,0.19264
1444.42303,0.19715
1446.35149,0.20118
1448.27996,0.20042
1450.20843,0.19709
1452.13690,0.19786
1454.06537,0.20658
1455.99384,0.22184
1457.92231,0.22254
1459.85077,0.20437
1461.77924,0.19469
1463.70771,0.19513
1465.63618,0.19744
1467.56465,0.19850
1469.49312,0.20472
1471.42159,0.21583
1473.35006,0.21941
1475.27852,0.21100
1477.20699,0.20437
1479.13546,0.20297
1481.06393,0.20292
1482.99240,0.20295
1484.92087,0.20633
1486.84934,0.21334
1488.77780,0.21706
1490.70627,0.21106
1492.63474,0.20432
1494.56321,0.20477
1496.49168,0.21179
1498.42015,0.21572
1500.34862,0.21313
1502.27709,0.21677
1504.20555,0.23336
1506.13402,0.25125
1508.06249,0.23818
1509.99096,0.22227
1511.91943,0.21632
1513.84790,0.21634
1515.77637,0.22370
1517.70483,0.23274
1519.63330,0.23809
1521.56177,0.23860
1523.49024,0.23015
1525.41871,0.22100
1527.34718,0.21415
1529.27565,0.21172
1531.20412,0.21871
1533.13258,0.22853
1535.06105,0.22785
1536.98952,0.22726
1538.91799,0.23704
1540.84646,0.24787
1542.77493,0.24478
1544.70340,0.23055
1546.63186,0.21199
1548.56033,0.20122
1550.48880,0.20074
1552.41727,0.20399
1554.34574,0.20750
1556.27421,0.21644
1558.20268,0.23268
1560.13115,0.22387
1562.05961,0.20716
1563.98808,0.20293
1565.91655,0.20660
1567.84502,0.21435
1569.77349,0.21392
1571.70196,0.20207
1573.63043,0.19922
1575.55889,0.20658
1577.48736,0.20486
1579.41583,0.19535
1581.34430,0.18955
1583.27277,0.18743
1585.20124,0.18801
1587.12971,0.19084
1589.05818,0.19349
1590.98664,0.19359
1592.91511,0.19335
1594.84358,0.19270
1596.77205,0.18934
1598.70052,0.18658
1600.62899,0.18634
1602.55746,0.18650
1604.48592,0.18685
1606.41439,0.18884
1608.34286,0.19089
1610.27133,0.19158
1612.19980,0.19421
1614.12827,0.20101
1616.05674,0.20970
1617.98521,0.21064
1619.91367,0.20716
1621.84214,0.20882
1623.77061,0.21074
1625.69908,0.20893
1627.62755,0.20893
1629.55602,0.20865
1631.48449,0.20914
1633.41295,0.21626
1635.34142,0.22647
1637.26989,0.22340
1639.19836,0.21427
1641.12683,0.20955
1643.05530,0.21257
1644.98377,0.22616
1646.91223,0.23754
1648.84070,0.22891
1650.76917,0.22650
1652.69764,0.24221
1654.62611,0.24008
1656.55458,0.22325
1658.48305,0.21527
1660.41152,0.21483
1662.33998,0.21585
1664.26845,0.21192
1666.19692,0.21187
1668.12539,0.22188
1670.05386,0.22987
1671.98233,0.22615
1673.91080,0.22031
1675.83926,0.21310
1677.76773,0.21055
1679.69620,0.21627
1681.62467,0.22617
1683.55314,0.23711
1685.48161,0.23768
1687.41008,0.22924
1689.33855,0.22049
1691.26701,0.21515
1693.19548,0.21894
1695.12395,0.23013
1697.05242,0.23574
1698.98089,0.23052
1700.90936,0.22334
1702.83783,0.22133
1704.76629,0.22390
1706.69476,0.22218
1708.62323,0.21322
1710.55170,0.20784
1712.48017,0.21044
1714.40864,0.21776
1716.33711,0.22383
1718.26558,0.21874
1720.19404,0.20943
1722.12251,0.20418
1724.05098,0.20091
1725.97945,0.19975
1727.90792,0.20256
1729.83639,0.20841
1731.76486,0.21675
1733.69332,0.22285
1735.62179,0.21666
1737.55026,0.21068
1739.47873,0.21017
1741.40720,0.21160
1743.33567,0.21310
1745.26414,0.21386
1747.19261,0.21553
1749.12107,0.21677
1751.04954,0.21067
1752.97801,0.20260
1754.90648,0.20093
1756.83495,0.20417
1758.76342,0.20912
1760.69189,0.21360
1762.62035,0.21199
1764.54882,0.20603
1766.47729,0.20514
1768.40576,0.21073
1770.33423,0.21810
1772.26270,0.22082
1774.19117,0.21469
1776.11964,0.20806
1778.04810,0.20743
1779.97657,0.21150
1781.90504,0.21460
1783.83351,0.21439
1785.76198,0.21132
1787.69045,0.20915
1789.61892,0.21239
1791.54738,0.21622
1793.47585,0.21302
1795.40432,0.20903
1797.33279,0.20836
1799.26126,0.20807
1801.18973,0.20672
1803.11820,0.20476
1805.04666,0.20318
1806.97513,0.20273
1808.90360,0.20407
1810.83207,0.20650
1812.76054,0.20627
1814.68901,0.20394
1816.61748,0.19185
1818.54595,0.16215
1820.47441,0.13768
1822.40288,0.14499
1824.33135,0.18058
1826.25982,0.21056
1828.18829,0.21766
1830.11676,0.21526
1832.04523,0.20889
1833.97369,0.20476
1835.90216,0.20581
1837.83063,0.20521
1839.75910,0.20238
1841.68757,0.20507
1843.61604,0.21367
1845.54451,0.21607
1847.47298,0.21054
1849.40144,0.20391
1851.32991,0.19937
1853.25838,0.19931
1855.18685,0.20063
1857.11532,0.19990
1859.04379,0.19937
1860.97226,0.20080
1862.90072,0.20354
1864.82919,0.20764
1866.75766,0.21228
1868.68613,0.21373
1870.61460,0.20938
1872.54307,0.20365
1874.47154,0.20075
1876.40001,0.19956
1878.32847,0.19796
1880.25694,0.19950
1882.18541,0.20573
1884.11388,0.21068
1886.04235,0.21134
1887.97082,0.21124
1889.89929,0.21075
1891.82775,0.20728
1893.75622,0.20456
1895.68469,0.20470
1897.61316,0.20471
1899.54163,0.20447
1901.47010,0.20401
1903.39857,0.20272
1905.32704,0.20157
1907.25550,0.20191
1909.18397,0.20402
1911.11244,0.20451
1913.04091,0.20354
1914.96938,0.20477
1916.89785,0.20662
1918.82632,0.20668
1920.75478,0.20706
1922.68325,0.20737
1924.61172,0.20532
1926.54019,0.20374
1928.46866,0.20472
1930.39713,0.20518
1932.32560,0.20408
1934.25407,0.20321
1936.18253,0.20249
1938.11100,0.20299
1940.03947,0.20604
1941.96794,0.20950
1943.89641,0.20968
1945.82488,0.20621
1947.75335,0.20242
1949.68181,0.20084
1951.61028,0.20178
1953.53875,0.20365
1955.46722,0.20417
1957.39569,0.20408
1959.32416,0.20456
1961.25263,0.20444
1963.18110,0.20501
1965.10956,0.20752
1967.03803,0.20842
1968.96650,0.20605
1970.89497,0.20447
1972.82344,0.20513
1974.75191,0.20457
1976.68038,0.20268
1978.60884,0.20277
1980.53731,0.20384
1982.46578,0.20292
1984.39425,0.20168
1986.32272,0.20203
1988.25119,0.20275
1990.17966,0.20434
1992.10812,0.20651
1994.03659,0.20656
1995.96506,0.20425
1997.89353,0.20150
1999.82200,0.20012
2001.75047,0.19980
2003.67894,0.19996
2005.60741,0.20052
2007.53587,0.20149
2009.46434,0.20435
2011.39281,0.20814
2013.32128,0.20903
2015.24975,0.20705
2017.17822,0.20641
2019.10669,0.20811
2021.03515,0.20890
2022.96362,0.20686
2024.89209,0.20335
2026.82056,0.20089
2028.74903,0.20115
2030.67750,0.20361
2032.60597,0.20495
2034.53444,0.20508
2036.46290,0.20685
2038.39137,0.20846
2040.31984,0.20667
2042.24831,0.20351
2044.17678,0.20278
2046.10525,0.20376
2048.03372,0.20322
2049.96218,0.20084
2051.89065,0.19919
2053.81912,0.20010
2055.74759,0.20315
2057.67606,0.20581
2059.60453,0.20662
2061.53300,0.20607
2063.46147,0.20535
2065.38993,0.20619
2067.31840,0.20765
2069.24687,0.20751
2071.17534,0.20566
2073.10381,0.20301
2075.03228,0.20088
2076.96075,0.20079
2078.88921,0.20317
2080.81768,0.20534
2082.74615,0.20383
2084.67462,0.20081
2086.60309,0.20193
2088.53156,0.20625
2090.46003,0.20819
2092.38850,0.20618
2094.31696,0.20294
2096.24543,0.20194
2098.17390,0.20356
2100.10237,0.20547
2102.03084,0.20589
2103.95931,0.20461
2105.88778,0.20228
2107.81624,0.20117
2109.74471,0.20271
2111.67318,0.20467
2113.60165,0.20659
2115.53012,0.20784
2117.45859,0.20613
2119.38706,0.20431
2121.31553,0.20476
2123.24399,0.20447
2125.17246,0.20293
2127.10093,0.20361
2129.02940,0.20678
2130.95787,0.20830
2132.88634,0.20701
2134.81481,0.20486
2136.74327,0.20204
2138.67174,0.20009
2140.60021,0.19977
2142.52868,0.19887
2144.45715,0.19790
2146.38562,0.19868
2148.31409,0.20138
2150.24255,0.20423
2152.17102,0.20448
2154.09949,0.20263
2156.02796,0.20167
2157.95643,0.20105
2159.88490,0.19958
2161.81337,0.19984
2163.74184,0.20309
2165.67030,0.20673
2167.59877,0.20749
2169.52724,0.20547
2171.45571,0.20223
2173.38418,0.19897
2175.31265,0.19889
2177.24112,0.20224
2179.16958,0.20584
2181.09805,0.20777
2183.02652,0.20712
2184.95499,0.20649
2186.88346,0.20876
2188.81193,0.21022
2190.74040,0.20836
2192.66887,0.20551
2194.59733,0.20429
2196.52580,0.20619
2198.45427,0.20813
2200.38274,0.20807
2202.31121,0.20877
2204.23968,0.21042
2206.16815,0.21056
2208.09661,0.21001
2210.02508,0.21058
2211.95355,0.21169
2213.88202,0.21322
2215.81049,0.21468
2217.73896,0.21370
2219.66743,0.20972
2221.59590,0.20644
2223.52436,0.20712
2225.45283,0.20987
2227.38130,0.21089
2229.30977,0.20909
2231.23824,0.20664
2233.16671,0.20601
2235.09518,0.20831
2237.02364,0.21042
2238.95211,0.20943
2240.88058,0.20786
2242.80905,0.20837
2244.73752,0.21033
2246.66599,0.21026
2248.59446,0.20815
2250.52293,0.20705
2252.45139,0.20717
2254.37986,0.20742
2256.30833,0.20682
2258.23680,0.20668
2260.16527,0.20775
2262.09374,0.20845
2264.02221,0.20804
2265.95067,0.20531
2267.87914,0.20247
2269.80761,0.20337
2271.73608,0.20463
2273.66455,0.20361
2275.59302,0.20361
2277.52149,0.20602
2279.44996,0.20988
2281.37842,0.21208
2283.30689,0.20956
2285.23536,0.20546
2287.16383,0.20450
2289.09230,0.20464
2291.02077,0.20236
2292.94924,0.20033
2294.87770,0.20133
2296.80617,0.20246
2298.73464,0.20227
2300.66311,0.20263
2302.59158,0.20155
2304.52005,0.19975
2306.44852,0.20089
2308.37699,0.20277
2310.30545,0.20473
2312.23392,0.20545
2314.16239,0.20225
2316.09086,0.19949
2318.01933,0.19837
2319.94780,0.19771
2321.87627,0.20165
2323.80473,0.20772
2325.73320,0.20994
2327.66167,0.20968
2329.59014,0.20584
2331.51861,0.20237
2333.44708,0.20872
2335.37555,0.22030
2337.30401,0.22530
2339.23248,0.22181
2341.16095,0.21893
2343.08942,0.21473
2345.01789,0.20638
2346.94636,0.20528
2348.87483,0.21090
2350.80330,0.21574
2352.73176,0.21650
2354.66023,0.21475
2356.58870,0.20985
2358.51717,0.20177
2360.44564,0.19271
2362.37411,0.18069
2364.30258,0.17727
2366.23104,0.18856
2368.15951,0.20307
2370.08798,0.21116
2372.01645,0.21363
2373.94492,0.21360
2375.87339,0.21197
2377.80186,0.21114
2379.73033,0.21078
2381.65879,0.20957
2383.58726,0.20947
2385.51573,0.20965
2387.44420,0.20778
2389.37267,0.20556
2391.30114,0.20492
2393.22961,0.20523
2395.15807,0.20609
2397.08654,0.20711
2399.01501,0.20720
2400.94348,0.20678
2402.87195,0.20585
2404.80042,0.20442
2406.72889,0.20524
2408.65736,0.20753
2410.58582,0.20708
2412.51429,0.20442
2414.44276,0.20233
2416.37123,0.20105
2418.29970,0.20086
2420.22817,0.20196
2422.15664,0.20314
2424.08510,0.20407
2426.01357,0.20511
2427.94204,0.20670
2429.87051,0.20952
2431.79898,0.21160
2433.72745,0.21084
2435.65592,0.21029
2437.58439,0.21063
2439.51285,0.20834
2441.44132,0.20557
2443.36979,0.20536
2445.29826,0.20505
2447.22673,0.20367
2449.15520,0.20351
2451.08367,0.20184
2453.01213,0.19702
2454.94060,0.19609
2456.86907,0.20223
2458.79754,0.20916
2460.72601,0.21114
2462.65448,0.21019
2464.58295,0.21011
2466.51142,0.21047
2468.43988,0.21030
2470.36835,0.20972
2472.29682,0.20955
2474.22529,0.20937
2476.15376,0.20793
2478.08223,0.20574
2480.01070,0.20428
2481.93916,0.20461
2483.86763,0.20597
2485.79610,0.20633
2487.72457,0.20598
2489.65304,0.20699
2491.58151,0.20898
2493.50998,0.21109
2495.43844,0.21267
2497.36691,0.21220
2499.29538,0.21026
2501.22385,0.20934
2503.15232,0.20965
2505.08079,0.20821
2507.00926,0.20596
2508.93773,0.20630
2510.86619,0.20734
2512.79466,0.20733
2514.72313,0.20819
2516.65160,0.20843
2518.58007,0.20563
2520.50854,0.20363
2522.43701,0.20619
2524.36547,0.21096
2526.29394,0.21363
2528.22241,0.21372
2530.15088,0.21359
2532.07935,0.21329
2534.00782,0.21156
2535.93629,0.20964
2537.86476,0.20975
2539.79322,0.21065
2541.72169,0.21071
2543.65016,0.21146
2545.57863,0.21277
2547.50710,0.21136
2549.43557,0.20698
2551.36404,0.20451
2553.29250,0.20718
2555.22097,0.21129
2557.14944,0.21084
2559.07791,0.20696
2561.00638,0.20549
2562.93485,0.20636
2564.86332,0.20475
2566.79179,0.20161
2568.72025,0.20232
2570.64872,0.20632
2572.57719,0.20980
2574.50566,0.21143
2576.43413,0.21091
2578.36260,0.20880
2580.29107,0.20800
2582.21953,0.20963
2584.14800,0.21113
2586.07647,0.21240
2588.00494,0.21299
2589.93341,0.21172
2591.86188,0.21173
2593.79035,0.21348
2595.71882,0.21293
2597.64728,0.21082
2599.57575,0.21023
2601.50422,0.21028
2603.43269,0.21022
2605.36116,0.21069
2607.28963,0.20960
2609.21810,0.20660
2611.14656,0.20774
2613.07503,0.20790
2615.00350,0.20107
2616.93197,0.20170
2618.86044,0.20870
2620.78891,0.20949
2622.71738,0.20972
2624.64585,0.21113
2626.57431,0.21070
2628.50278,0.21053
2630.43125,0.21070
2632.35972,0.21070
2634.28819,0.21034
2636.21666,0.20923
2638.14513,0.20914
2640.07359,0.21057
2642.00206,0.21062
2643.93053,0.21075
2645.85900,0.21227
2647.78747,0.21199
2649.71594,0.21147
2651.64441,0.21360
2653.57288,0.21489
2655.50134,0.21355
2657.42981,0.21305
2659.35828,0.21406
2661.28675,0.21527
2663.21522,0.21602
2665.14369,0.21624
2667.07216,0.21722
2669.00062,0.21848
2670.92909,0.21851
2672.85756,0.21757
2674.78603,0.21664
2676.71450,0.21640
2678.64297,0.21585
2680.57144,0.21512
2682.49990,0.21615
2684.42837,0.21724
2686.35684,0.21827
2688.28531,0.22007
2690.21378,0.21855
2692.14225,0.21446
2694.07072,0.21145
2695.99919,0.20959
2697.92765,0.21053
2699.85612,0.21471
2701.78459,0.21908
2703.71306,0.22078
2705.64153,0.21791
2707.57000,0.21348
2709.49847,0.21324
2711.42693,0.21595
2713.35540,0.21717
2715.28387,0.21780
2717.21234,0.21997
2719.14081,0.22031
2721.06928,0.21705
2722.99775,0.21438
2724.92622,0.21462
2726.85468,0.21697
2728.78315,0.21868
2730.71162,0.21812
2732.64009,0.21859
2734.56856,0.22091
2736.49703,0.22071
2738.42550,0.21808
2740.35396,0.21795
2742.28243,0.22003
2744.21090,0.21999
2746.13937,0.21729
2748.06784,0.21562
2749.99631,0.21711
2751.92478,0.21845
2753.85325,0.21783
2755.78171,0.21837
2757.71018,0.22077
2759.63865,0.22255
2761.56712,0.22321
2763.49559,0.22571
2765.42406,0.22859
2767.35253,0.22095
2769.28099,0.20167
2771.20946,0.19179
2773.13793,0.20459
2775.06640,0.22228
2776.99487,0.22755
2778.92334,0.22529
2780.85181,0.22349
2782.78028,0.22511
2784.70874,0.22787
2786.63721,0.22645
2788.56568,0.22222
2790.49415,0.22074
2792.42262,0.22334
2794.35109,0.22585
2796.27956,0.22504
2798.20802,0.22277
2800.13649,0.22178
2802.06496,0.22297
2803.99343,0.22522
2805.92190,0.22542
2807.85037,0.22297
2809.77884,0.22100
2811.70731,0.22140
2813.63577,0.22447
2815.56424,0.22872
2817.49271,0.23021
2819.42118,0.22846
2821.34965,0.22612
2823.27812,0.22395
2825.20659,0.22364
2827.13505,0.22634
2829.06352,0.22827
2830.99199,0.22711
2832.92046,0.22604
2834.84893,0.22654
2836.77740,0.22674
2838.70587,0.22640
2840.63433,0.22493
2842.56280,0.22237
2844.49127,0.22123
2846.41974,0.22182
2848.34821,0.22218
2850.27668,0.22064
2852.20515,0.21824
2854.13362,0.21816
2856.06208,0.22135
2857.99055,0.22485
2859.91902,0.22619
2861.84749,0.22674
2863.77596,0.22632
2865.70443,0.22477
2867.63290,0.22460
2869.56136,0.22576
2871.48983,0.22729
2873.41830,0.22829
2875.34677,0.22763
2877.27524,0.22671
2879.20371,0.22645
2881.13218,0.22450
2883.06065,0.22092
2884.98911,0.22208
2886.91758,0.22930
2888.84605,0.23450
2890.77452,0.23362
2892.70299,0.22905
2894.63146,0.22482
2896.55993,0.22596
2898.48839,0.23059
2900.41686,0.23063
2902.34533,0.22458
2904.27380,0.21915
2906.20227,0.21938
2908.13074,0.22313
2910.05921,0.22525
2911.98768,0.22251
2913.91614,0.21633
2915.84461,0.21195
2917.77308,0.21278
2919.70155,0.21715
2921.63002,0.22095
2923.55849,0.22100
2925.48696,0.21273
2927.41542,0.19950
2929.34389,0.19779
2931.27236,0.21104
2933.20083,0.22305
2935.12930,0.22308
2937.05777,0.21883
2938.98624,0.22170
2940.91471,0.22832
2942.84317,0.23039
2944.77164,0.22540
2946.70011,0.21802
2948.62858,0.21822
2950.55705,0.22453
2952.48552,0.22842
2954.41399,0.22714
2956.34245,0.22047
2958.27092,0.21700
2960.19939,0.22415
2962.12786,0.23189
2964.05633,0.23181
2965.98480,0.22689
2967.91327,0.22180
2969.84174,0.22225
2971.77020,0.22731
2973.69867,0.23058
2975.62714,0.22804
2977.55561,0.22142
2979.48408,0.22083
2981.41255,0.22859
2983.34102,0.23425
2985.26948,0.23204
2987.19795,0.22675
2989.12642,0.22722
2991.05489,0.23300
2992.98336,0.23560
2994.91183,0.23460
2996.84030,0.23339
2998.76877,0.23112
3000.69723,0.22909
3002.62570,0.22970
3004.55417,0.23070
3006.48264,0.22903
3008.41111,0.22768
3010.33958,0.22454
3012.26805,0.20902
3014.19651,0.18202
3016.12498,0.16088
3018.05345,0.16611
3019.98192,0.19460
3021.91039,0.22000
3023.83886,0.22942
3025.76733,0.22852
3027.69579,0.22616
3029.62426,0.22737
3031.55273,0.23034
3033.48120,0.23133
3035.40967,0.23008
3037.33814,0.22766
3039.26661,0.22724
3041.19508,0.22997
3043.12354,0.22957
3045.05201,0.22579
3046.98048,0.22680
3048.90895,0.23227
3050.83742,0.23281
3052.76589,0.22849
3054.69436,0.22453
3056.62282,0.21939
3058.55129,0.21898
3060.47976,0.22843
3062.40823,0.23650
3064.33670,0.23168
3066.26517,0.21831
3068.19364,0.21378
3070.12211,0.22174
3072.05057,0.22688
3073.97904,0.22244
3075.90751,0.21698
3077.83598,0.21880
3079.76445,0.22364
3081.69292,0.22559
3083.62139,0.22536
3085.54985,0.22523
3087.47832,0.22953
3089.40679,0.23351
3091.33526,0.22878
3093.26373,0.21976
3095.19220,0.21685
3097.12067,0.22330
3099.04914,0.23021
3100.97760,0.23036
3102.90607,0.22540
3104.83454,0.22184
3106.76301,0.22448
3108.69148,0.22744
3110.61995,0.22348
3112.54842,0.21828
3114.47688,0.22176
3116.40535,0.22962
3118.33382,0.23229
3120.26229,0.22813
3122.19076,0.22296
3124.11923,0.22680
3126.04770,0.23687
3127.97617,0.24160
3129.90463,0.23907
3131.83310,0.23607
3133.76157,0.23618
3135.69004,0.23474
3137.61851,0.23108
3139.54698,0.22948
3141.47545,0.23013
3143.40391,0.23235
3145.33238,0.23594
3147.26085,0.23872
3149.18932,0.24015
3151.11779,0.24097
3153.04626,0.23922
3154.97473,0.23738
3156.90320,0.24059
3158.83166,0.24433
3160.76013,0.24157
3162.68860,0.23382
3164.61707,0.22970
3166.54554,0.23227
3168.47401,0.23467
3170.40248,0.23444
3172.33094,0.23291
3174.25941,0.23357
3176.18788,0.24069
3178.11635,0.24638
3180.04482,0.24404
3181.97329,0.24248
3183.90176,0.24751
3185.83022,0.25061
3187.75869,0.24630
3189.68716,0.24116
3191.61563,0.23840
3193.54410,0.23566
3195.47257,0.23274
3197.40104,0.23160
3199.32951,0.23497
3201.25797,0.24171
3203.18644,0.24368
3205.11491,0.23669
3207.04338,0.22970
3208.97185,0.23085
3210.90032,0.23599
3212.82879,0.24085
3214.75725,0.24654
3216.68572,0.24815
3218.61419,0.24250
3220.54266,0.23749
3222.47113,0.23614
3224.39960,0.23362
3226.32807,0.23047
3228.25654,0.23041
3230.18500,0.23231
3232.11347,0.23333
3234.04194,0.23488
3235.97041,0.23741
3237.89888,0.23472
3239.82735,0.22493
3241.75582,0.21700
3243.68428,0.21849
3245.61275,0.22430
3247.54122,0.22918
3249.46969,0.23576
3251.39816,0.23881
3253.32663,0.23560
3255.25510,0.23409
3257.18357,0.23381
3259.11203,0.23107
3261.04050,0.22715
3262.96897,0.22375
3264.89744,0.22333
3266.82591,0.22644
3268.75438,0.22972
3270.68285,0.22899
3272.61131,0.22731
3274.53978,0.23103
3276.46825,0.23593
3278.39672,0.23587
3280.32519,0.23454
3282.25366,0.23490
3284.18213,0.23530
3286.11060,0.23757
3288.03906,0.24192
3289.96753,0.24284
3291.89600,0.23982
3293.82447,0.23563
3295.75294,0.23132
3297.68141,0.23059
3299.60988,0.23490
3301.53834,0.23723
3303.46681,0.23285
3305.39528,0.22757
3307.32375,0.22569
3309.25222,0.22849
3311.18069,0.23648
3313.10916,0.24065
3315.03763,0.23558
3316.96609,0.23053
3318.89456,0.23097
3320.82303,0.23415
3322.75150,0.24186
3324.67997,0.24980
3326.60844,0.24777
3328.53691,0.23860
3330.46537,0.23297
3332.39384,0.23338
3334.32231,0.23556
3336.25078,0.23801
3338.17925,0.23864
3340.10772,0.23604
3342.03619,0.23432
3343.96466,0.23589
3345.89312,0.23751
3347.82159,0.23675
3349.75006,0.23522
3351.67853,0.23259
3353.60700,0.23047
3355.53547,0.23300
3357.46394,0.23832
3359.39240,0.24232
3361.32087,0.24310
3363.24934,0.24150
3365.17781,0.24173
3367.10628,0.24604
3369.03475,0.25050
3370.96322,0.24998
3372.89168,0.24442
3374.82015,0.23848
3376.74862,0.23571
3378.67709,0.23679
3380.60556,0.23871
3382.53403,0.23500
3384.46250,0.22661
3386.39097,0.22262
3388.31943,0.22569
3390.24790,0.23011
3392.17637,0.23463
3394.10484,0.24016
3396.03331,0.24179
3397.96178,0.23885
3399.89025,0.23597
3401.81871,0.23193
3403.74718,0.22527
3405.67565,0.22130
3407.60412,0.22260
3409.53259,0.22573
3411.46106,0.22593
3413.38953,0.22274
3415.31800,0.22129
3417.24646,0.22328
3419.17493,0.22603
3421.10340,0.22757
3423.03187,0.22989
3424.96034,0.23343
3426.88881,0.23386
3428.81728,0.23167
3430.74574,0.23093
3432.67421,0.22984
3434.60268,0.22478
3436.53115,0.21825
3438.45962,0.21433
3440.38809,0.21607
3442.31656,0.22291
3444.24503,0.22820
3446.17349,0.22752
3448.10196,0.22376
3450.03043,0.22179
3451.95890,0.21774
3453.88737,0.21116
3455.81584,0.21118
3457.74431,0.21731
3459.67277,0.22204
3461.60124,0.22078
3463.52971,0.21553
3465.45818,0.21535
3467.38665,0.21756
3469.31512,0.21345
3471.24359,0.20927
3473.17206,0.20949
3475.10052,0.20832
3477.02899,0.20812
3478.95746,0.21534
3480.88593,0.22344
3482.81440,0.22268
3484.74287,0.21833
3486.67134,0.21484
3488.59980,0.20985
3490.52827,0.20827
3492.45674,0.21260
3494.38521,0.21571
3496.31368,0.21114
3498.24215,0.20443
3500.17062,0.20533
3502.09909,0.20978
3504.02755,0.20901
3505.95602,0.20578
3507.88449,0.20318
3509.81296,0.20001
3511.74143,0.19816
3513.66990,0.19976
3515.59837,0.20395
3517.52683,0.20568
3519.45530,0.20114
3521.38377,0.19566
3523.31224,0.19492
3525.24071,0.19676
3527.16918,0.19813
3529.09765,0.19890
3531.02611,0.19910
3532.95458,0.19660
3534.88305,0.18937
3536.81152,0.18109
3538.73999,0.18013
3540.66846,0.18584
3542.59693,0.18573
3544.52540,0.17826
3546.45386,0.17734
3548.38233,0.18247
3550.31080,0.18297
3552.23927,0.18009
3554.16774,0.18152
3556.09621,0.18563
3558.02468,0.18326
3559.95314,0.17602
3561.88161,0.17425
3563.81008,0.17941
3565.73855,0.18693
3567.66702,0.19071
3569.59549,0.18753
3571.52396,0.18468
3573.45243,0.18517
3575.38089,0.18623
3577.30936,0.18306
3579.23783,0.17519
3581.16630,0.16934
3583.09477,0.17047
3585.02324,0.17799
3586.95171,0.18236
3588.88017,0.17590
3590.80864,0.17209
3592.73711,0.17454
3594.66558,0.17607
3596.59405,0.17352
3598.52252,0.17177
3600.45099,0.17144
3602.37946,0.16906
3604.30792,0.16676
3606.23639,0.16477
3608.16486,0.16299
3610.09333,0.16765
3612.02180,0.17480
3613.95027,0.17499
3615.87874,0.17374
3617.80720,0.17800
3619.73567,0.18037
3621.66414,0.17457
3623.59261,0.16702
3625.52108,0.16255
3627.44955,0.16244
3629.37802,0.16511
3631.30649,0.16485
3633.23495,0.16229
3635.16342,0.16084
3637.09189,0.16222
3639.02036,0.16490
3640.94883,0.16420
3642.87730,0.15813
3644.80577,0.15428
3646.73423,0.16278
3648.66270,0.18128
3650.59117,0.18079
3652.51964,0.16483
3654.44811,0.15459
3656.37658,0.15032
3658.30505,0.14778
3660.23352,0.14671
3662.16198,0.14706
3664.09045,0.14793
3666.01892,0.14890
3667.94739,0.14935
3669.87586,0.14935
3671.80433,0.15336
3673.73280,0.16226
3675.66126,0.16524
3677.58973,0.15920
3679.51820,0.15559
3681.44667,0.14763
3683.37514,0.13627
3685.30361,0.13418
3687.23208,0.14568
3689.16055,0.16201
3691.08901,0.16345
3693.01748,0.15376
3694.94595,0.14804
3696.87442,0.14760
3698.80289,0.14758
3700.73136,0.14534
3702.65983,0.14225
3704.58829,0.14225
3706.51676,0.14609
3708.44523,0.15010
3710.37370,0.15067
3712.30217,0.14635
3714.23064,0.14125
3716.15911,0.14012
3718.08757,0.13893
3720.01604,0.13550
3721.94451,0.13651
3723.87298,0.14495
3725.80145,0.15324
3727.72992,0.15242
3729.65839,0.15027
3731.58686,0.15484
3733.51532,0.15968
3735.44379,0.16022
3737.37226,0.16012
3739.30073,0.16075
3741.22920,0.15978
3743.15767,0.15585
3745.08614,0.15606
3747.01460,0.15992
3748.94307,0.16037
3750.87154,0.15855
3752.80001,0.15187
3754.72848,0.14411
3756.65695,0.14237
3758.58542,0.14523
3760.51389,0.14496
3762.44235,0.14390
3764.37082,0.14680
3766.29929,0.14890
3768.22776,0.14753
3770.15623,0.14405
3772.08470,0.13758
3774.01317,0.13508
3775.94163,0.13838
3777.87010,0.13915
3779.79857,0.13540
3781.72704,0.13637
3783.65551,0.14067
3785.58398,0.13939
3787.51245,0.13675
3789.44092,0.13905
3791.36938,0.14097
3793.29785,0.14015
3795.22632,0.13755
3797.15479,0.13706
3799.08326,0.14489
3801.01173,0.15347
3802.94020,0.14998
3804.86866,0.14656
3806.79713,0.14637
3808.72560,0.13841
3810.65407,0.12941
3812.58254,0.12828
3814.51101,0.13631
3816.43948,0.14895
3818.36795,0.15907
3820.29641,0.16678
3822.22488,0.16001
3824.15335,0.14734
3826.08182,0.14319
3828.01029,0.14053
3829.93876,0.13564
3831.86723,0.13378
3833.79569,0.13574
3835.72416,0.13722
3837.65263,0.13936
3839.58110,0.14291
3841.50957,0.14193
3843.43804,0.13780
3845.36651,0.13466
3847.29498,0.13498
3849.22344,0.14196
3851.15191,0.15548
3853.08038,0.16358
3855.00885,0.15264
3856.93732,0.14279
3858.86579,0.13669
3860.79426,0.13315
3862.72272,0.13455
3864.65119,0.13573
3866.57966,0.13555
3868.50813,0.13778
3870.43660,0.13931
3872.36507,0.14060
3874.29354,0.13881
3876.22200,0.13632
3878.15047,0.14371
3880.07894,0.15059
3882.00741,0.14361
3883.93588,0.14198
3885.86435,0.14715
3887.79282,0.14402
3889.72129,0.13914
3891.64975,0.13286
3893.57822,0.12299
3895.50669,0.12017
3897.43516,0.12496
3899.36363,0.13276
3901.29210,0.13856
3903.22057,0.13750
3905.14903,0.13246
3907.07750,0.12874
3909.00597,0.12640
3910.93444,0.12414
3912.86291,0.12400
3914.79138,0.12826
3916.71985,0.13437
3918.64832,0.13582
3920.57678,0.12898
3922.50525,0.12265
3924.43372,0.12531
3926.36219,0.13016
3928.29066,0.13115
3930.21913,0.13000
3932.14760,0.12761
3934.07606,0.12764
3936.00453,0.12727
3937.93300,0.12097
3939.86147,0.11698
3941.78994,0.12200
3943.71841,0.12681
3945.64688,0.12497
3947.57535,0.12028
3949.50381,0.11770
3951.43228,0.11907
3953.36075,0.11997
3955.28922,0.11963
3957.21769,0.12020
3959.14616,0.11793
3961.07463,0.11240
3963.00309,0.11032
3964.93156,0.11366
3966.86003,0.11997
3968.78850,0.12529
3970.71697,0.12464
3972.64544,0.11951
3974.57391,0.11540
3976.50238,0.11471
3978.43084,0.11648
3980.35931,0.11760
3982.28778,0.11619
3984.21625,0.11558
3986.14472,0.11884
3988.07319,0.11976
3990.00166,0.11325
3991.93012,0.10883
3993.85859,0.11269
3995.78706,0.11643
3997.71553,0.11758
3999.64400,0.11987
4001.57247,0.12078
4003.50094,0.11784
4005.42941,0.11371
4007.35787,0.11400
4009.28634,0.11820
4011.21481,0.11751
4013.14328,0.10915
4015.07175,0.10302
4017.00022,0.10862
4018.92869,0.11769
4020.85715,0.11817
4022.78562,0.11509
4024.71409,0.11425
4026.64256,0.11327
4028.57103,0.11410
4030.49950,0.11849
4032.42797,0.12057
4034.35644,0.11679
4036.28490,0.11282
4038.21337,0.11243
4040.14184,0.11259
4042.07031,0.11433
4043.99878,0.11870
4045.92725,0.11928
4047.85572,0.11328
4049.78418,0.10592
4051.71265,0.10118
4053.64112,0.09813
4055.56959,0.09594
4057.49806,0.09818
4059.42653,0.10663
4061.35500,0.11345
4063.28346,0.11297
4065.21193,0.11049
4067.14040,0.11072
4069.06887,0.11203
4070.99734,0.10963
4072.92581,0.10322
4074.85428,0.09849
4076.78275,0.09796
4078.71121,0.10018
4080.63968,0.10491
4082.56815,0.10990
4084.49662,0.10737
4086.42509,0.09872
4088.35356,0.09848
4090.28203,0.10734
4092.21049,0.11148
4094.13896,0.10802
4096.06743,0.10349
4097.99590,0.10156
4099.92437,0.10114
4101.85284,0.10078
4103.78131,0.10136
4105.70978,0.10144
4107.63824,0.09712
4109.56671,0.09109
4111.49518,0.09163
4113.42365,0.09508
4115.35212,0.09244
4117.28059,0.09224
4119.20906,0.10068
4121.13752,0.10537
4123.06599,0.10189
4124.99446,0.09775
4126.92293,0.09412
4128.85140,0.09144
4130.77987,0.09184
4132.70834,0.09358
4134.63681,0.09501
4136.56527,0.09551
4138.49374,0.09546
4140.42221,0.09635
4142.35068,0.09705
4144.27915,0.09575
4146.20762,0.09443
4148.13609,0.09387
4150.06455,0.09265
4151.99302,0.09252
4153.92149,0.09422
4155.84996,0.09514
4157.77843,0.09570
4159.70690,0.09457
4161.63537,0.08766
4163.56384,0.08297
4165.49230,0.08664
4167.42077,0.08983
4169.34924,0.09122
4171.27771,0.09332
4173.20618,0.08913
4175.13465,0.08150
4177.06312,0.08234
4178.99158,0.08966
4180.92005,0.09285
4182.84852,0.09087
4184.77699,0.08812
4186.70546,0.08462
4188.63393,0.07976
4190.56240,0.07811
4192.49087,0.08740
4194.41933,0.10194
4196.34780,0.10510
4198.27627,0.09645
4200.20474,0.08781
4202.13321,0.08464
4204.06168,0.08460
4205.99015,0.08679
4207.91861,0.09242
4209.84708,0.09497
4211.77555,0.09247
4213.70402,0.09155
4215.63249,0.09151
4217.56096,0.08692
4219.48943,0.07896
4221.41789,0.07167
4223.34636,0.06973
4225.27483,0.07862
4227.20330,0.09016
4229.13177,0.09309
4231.06024,0.09017
4232.98871,0.08711
4234.91718,0.08542
4236.84564,0.08235
4238.77411,0.07791
4240.70258,0.07870
4242.63105,0.08535
4244.55952,0.08916
4246.48799,0.08478
4248.41646,0.07419
4250.34492,0.06838
4252.27339,0.07648
4254.20186,0.08459
4256.13033,0.08050
4258.05880,0.07578
4259.98727,0.07593
4261.91574,0.07287
4263.84421,0.06692
4265.77267,0.06618
4267.70114,0.07245
4269.62961,0.07766
4271.55808,0.07600
4273.48655,0.07341
4275.41502,0.07439
4277.34349,0.07443
4279.27195,0.07293
4281.20042,0.07372
4283.12889,0.07322
4285.05736,0.06832
4286.98583,0.06610
4288.91430,0.07066
4290.84277,0.07586
4292.77124,0.07588
4294.69970,0.07343
4296.62817,0.07175
4298.55664,0.06871
4300.48511,0.06593
4302.41358,0.06562
4304.34205,0.06617
4306.27052,0.06718
4308.19898,0.06545
4310.12745,0.05895
4312.05592,0.05519
4313.98439,0.05912
4315.91286,0.06452
4317.84133,0.06461
4319.76980,0.06159
4321.69827,0.06226
4323.62673,0.06584
4325.55520,0.06217
4327.48367,0.05067
4329.41214,0.04724
4331.34061,0.05469
4333.26908,0.05671
4335.19755,0.05106
4337.12601,0.05135
4339.05448,0.05796
4340.98295,0.05998
4342.91142,0.05705
4344.83989,0.05807
4346.76836,0.06597
4348.69683,0.06888
4350.62530,0.06090
4352.55376,0.05638
4354.48223,0.05957
4356.41070,0.05712
4358.33917,0.04787
4360.26764,0.04266
4362.19611,0.04124
4364.12458,0.03845
4366.05304,0.03569
4367.98151,0.03684
4369.90998,0.04201
4371.83845,0.04496
4373.76692,0.04631
4375.69539,0.04969
4377.62386,0.05015
4379.55232,0.04669
4381.48079,0.04352
4383.40926,0.04135
4385.33773,0.04013
4387.26620,0.04151
4389.19467,0.04372
4391.12314,0.04324
4393.05161,0.03961
4394.98007,0.03637
4396.90854,0.03975
4398.83701,0.04565
4400.76548,0.04212
4402.69395,0.03098
4404.62242,0.02524
4406.55089,0.02883
4408.47935,0.03271
4410.40782,0.03050
4412.33629,0.02901
4414.26476,0.03274
4416.19323,0.03785
4418.12170,0.03880
4420.05017,0.03217
4421.97864,0.02901
4423.90710,0.03748
4425.83557,0.04565
4427.76404,0.04213
4429.69251,0.03214
4431.62098,0.03231
4433.54945,0.04362
4435.47792,0.04944
4437.40638,0.04671
4439.33485,0.04321
4441.26332,0.03977
4443.19179,0.03037
4445.12026,0.01848
4447.04873,0.01934
4448.97720,0.02834
4450.90567,0.03196
4452.83413,0.03334
4454.76260,0.03150
4456.69107,0.02471
4458.61954,0.02105
4460.54801,0.02372
4462.47648,0.02956
4464.40495,0.03314
4466.33341,0.03257
4468.26188,0.03347
4470.19035,0.03770
4472.11882,0.03935
4474.04729,0.03725
4475.97576,0.03551
4477.90423,0.03608
4479.83270,0.03802
4481.76116,0.03650
4483.68963,0.02752
4485.61810,0.01639
4487.54657,0.01319
4489.47504,0.01706
4491.40351,0.01637
4493.33198,0.00647
4495.26044,-0.00059
4497.18891,0.00375
4499.11738,0.00722
4501.04585,0.00414
4502.97432,0.00446
4504.90279,0.00814
4506.83126,0.01580
4508.75973,0.02919
4510.68819,0.03399
4512.61666,0.02655
4514.54513,0.02226
4516.47360,0.02509
4518.40207,0.02520
4520.33054,0.01654
4522.25901,0.01052
4524.18747,0.02011
4526.11594,0.03295
4528.04441,0.03621
4529.97288,0.03096
4531.90135,0.01725
4533.82982,0.00376
4535.75829,-0.00137
4537.68676,-0.00079
4539.61522,0.00929
4541.54369,0.02570
4543.47216,0.02969
4545.40063,0.01767
4547.32910,0.00461
4549.25757,0.00035
4551.18604,0.00535
4553.11450,0.01563
4555.04297,0.02161
4556.97144,0.01867
4558.89991,0.01435
4560.82838,0.01215
4562.75685,0.01052
4564.68532,0.01289
4566.61378,0.01883
4568.54225,0.02133
4570.47072,0.01516
4572.39919,0.00484
4574.32766,0.00028
4576.25613,0.00092
4578.18460,0.00025
4580.11307,0.00004
4582.04153,0.00297
4583.97000,0.00733
4585.89847,0.01428
4587.82694,0.01737
4589.75541,0.01001
4591.68388,0.00275
4593.61235,0.00410
4595.54081,0.00958
4597.46928,0.01444
4599.39775,0.01783
4601.32622,0.02051
4603.25469,0.02533
4605.18316,0.02637
4607.11163,0.01504
4609.04010,0.00571
4610.96856,0.01116
4612.89703,0.02148
4614.82550,0.02548
4616.75397,0.02013
4618.68244,0.01162
4620.61091,0.01045
4622.53938,0.01672
4624.46784,0.02062
4626.39631,0.01836
4628.32478,0.01693
4630.25325,0.01828
4632.18172,0.02088
4634.11019,0.02912
4636.03866,0.03430
4637.96713,0.02560
4639.89559,0.01786
4641.82406,0.01938
4643.75253,0.01779
4645.68100,0.01570
4647.60947,0.01982
4649.53794,0.01863
4651.46641,0.00927
4653.39487,0.00281
4655.32334,0.00028
4657.25181,-0.00132
4659.18028,-0.00223
4661.10875,-0.00122
4663.03722,0.00524
4664.96569,0.01163
4666.89416,0.00911
4668.82262,0.00214
4670.75109,-0.00191
4672.67956,-0.00672
4674.60803,-0.01044
4676.53650,-0.00734
4678.46497,-0.00465
4680.39344,-0.00104
4682.32190,0.00876
4684.25037,0.01828
4686.17884,0.02181
4688.10731,0.01677
4690.03578,0.01225
4691.96425,0.01745
4693.89272,0.02369
4695.82119,0.02311
4697.74965,0.01869
4699.67812,0.01467
4701.60659,0.00765
4703.53506,0.00119
4705.46353,0.00690
4707.39200,0.01310
4709.32047,0.00380
4711.24893,-0.00882
4713.17740,-0.01075
4715.10587,-0.00602
4717.03434,-0.00154
4718.96281,-0.00034
4720.89128,-0.00521
4722.81975,-0.01377
4724.74821,-0.01601
4726.67668,-0.00652
4728.60515,0.00725
4730.53362,0.01180
4732.46209,0.00310
4734.39056,-0.00941
4736.31903,-0.01179
4738.24750,-0.00646
4740.17596,-0.00074
4742.10443,0.00680
4744.03290,0.00678
4745.96137,0.00345
4747.88984,0.00707
4749.81831,0.00438
4751.74678,-0.00571
4753.67524,-0.00946
4755.60371,-0.00433
4757.53218,0.00269
4759.46065,-0.00223
4761.38912,-0.01512
4763.31759,-0.01695
4765.24606,-0.01182
4767.17453,-0.01270
4769.10299,-0.01287
4771.03146,-0.00662
4772.95993,-0.00079
4774.88840,0.00197
4776.81687,0.00417
4778.74534,0.00768
4780.67381,0.00977
4782.60227,0.00889
4784.53074,0.00845
4786.45921,0.00701
4788.38768,0.00462
4790.31615,0.00536
4792.24462,0.01003
4794.17309,0.01816
4796.10156,0.02216
4798.03002,0.01725
4799.95849,0.01567
4801.88696,0.01966
4803.81543,0.01552
4805.74390,0.00833
4807.67237,0.00714
4809.60084,0.00488
4811.52930,0.00309
4813.45777,0.00503
4815.38624,0.00535
4817.31471,0.00826
4819.24318,0.01284
4821.17165,0.00991
4823.10012,0.01085
4825.02859,0.01579
4826.95705,0.00980
4828.88552,0.00241
4830.81399,-0.00388
4832.74246,-0.01202
4834.67093,-0.00985
4836.59940,0.00204
4838.52787,0.01425
4840.45633,0.02122
4842.38480,0.02132
4844.31327,0.01900
4846.24174,0.02096
4848.17021,0.02929
4850.09868,0.03409
4852.02715,0.02182
4853.95562,-0.00244
4855.88408,-0.01498
4857.81255,-0.00760
4859.74102,0.00189
4861.66949,0.00436
4863.59796,0.00662
4865.52643,0.00678
4867.45490,0.00658
4869.38336,0.01430
4871.31183,0.02168
4873.24030,0.01866
4875.16877,0.00952
4877.09724,0.00087
4879.02571,-0.00205
4880.95418,0.00280
4882.88265,0.01084
4884.81111,0.02035
4886.73958,0.03083
4888.66805,0.03469
4890.59652,0.02261
4892.52499,0.00333
4894.45346,-0.00273
4896.38193,0.00344
4898.31039,0.00676
4900.23886,0.00267
4902.16733,0.00062
4904.09580,0.00959
4906.02427,0.02418
4907.95274,0.03484
4909.88121,0.03465
4911.80967,0.02563
4913.73814,0.01955
4915.66661,0.01903
4917.59508,0.01556
4919.52355,0.00875
4921.45202,0.01319
4923.38049,0.01990
4925.30896,0.00565
4927.23742,-0.00870
4929.16589,-0.00021
4931.09436,0.01098
4933.02283,0.00654
4934.95130,0.00074
4936.87977,0.00752
4938.80824,0.01632
4940.73670,0.02087
4942.66517,0.02432
4944.59364,0.02279
4946.52211,0.01750
4948.45058,0.01427
4950.37905,0.01288
4952.30752,0.01157
4954.23599,0.01184
4956.16445,0.01343
4958.09292,0.01944
4960.02139,0.03363
4961.94986,0.04400
4963.87833,0.04024
4965.80680,0.02981
4967.73527,0.02434
4969.66373,0.02553
4971.59220,0.02344
4973.52067,0.01446
4975.44914,0.01046
4977.37761,0.01236
4979.30608,0.00110
4981.23455,-0.01851
4983.16302,-0.01840
4985.09148,-0.01200
4987.01995,-0.02061
4988.94842,-0.01798
4990.87689,0.00745
4992.80536,0.02414
4994.73383,0.01873
4996.66230,0.01470
4998.59076,0.02359
5000.51923,0.02971
5002.44770,0.02611
5004.37617,0.01896
5006.30464,0.01574
5008.23311,0.01624
5010.16158,0.01019
5012.09005,0.00321
5014.01851,0.00561
5015.94698,0.00424
5017.87545,-0.00121
5019.80392,0.00720
5021.73239,0.02059
5023.66086,0.01718
5025.58933,-0.00176
5027.51779,-0.01472
5029.44626,-0.01127
5031.37473,-0.00468
5033.30320,-0.00281
5035.23167,0.00139
5037.16014,0.00793
5039.08861,0.00924
5041.01708,0.00438
5042.94554,0.00160
5044.87401,0.00378
5046.80248,0.00601
5048.73095,0.01187
5050.65942,0.02051
5052.58789,0.02330
5054.51636,0.02322
5056.44482,0.02324
5058.37329,0.02804
5060.30176,0.04359
5062.23023,0.05729
5064.15870,0.05330
5066.08717,0.03657
5068.01564,0.02467
5069.94410,0.02508
5071.87257,0.02706
5073.80104,0.02171
5075.72951,0.01818
5077.65798,0.02136
5079.58645,0.02397
5081.51492,0.02067
5083.44339,0.01718
5085.37185,0.02841
5087.30032,0.05247
5089.22879,0.06086
5091.15726,0.03466
5093.08573,-0.00045
5095.01420,-0.01265
5096.94267,-0.00697
5098.87113,0.00490
5100.79960,0.02782
5102.72807,0.05810
5104.65654,0.06990
5106.58501,0.05074
5108.51348,0.02923
5110.44195,0.03449
5112.37042,0.04965
5114.29888,0.04298
5116.22735,0.02767
5118.15582,0.02769
5120.08429,0.03076
5122.01276,0.03695
5123.94123,0.06043
5125.86970,0.07773
5127.79816,0.06943
5129.72663,0.05761
5131.65510,0.05942
5133.58357,0.06727
5135.51204,0.06855
5137.44051,0.05798
5139.36898,0.04477
5141.29745,0.03822
5143.22591,0.03026
5145.15438,0.02108
5147.08285,0.02212
5149.01132,0.02590
5150.93979,0.02137
5152.86826,0.01320
5154.79673,0.00427
5156.72519,-0.00954
5158.65366,-0.02040
5160.58213,-0.00769
5162.51060,0.02627
5164.43907,0.04237
5166.36754,0.02584
5168.29601,0.00861
5170.22448,0.01113
5172.15294,0.02304
5174.08141,0.04123
5176.00988,0.06430
5177.93835,0.06715
5179.86682,0.04877
5181.79529,0.03201
5183.72376,0.02373
5185.65222,0.03076
5187.58069,0.05070
5189.50916,0.06175
5191.43763,0.05878
5193.36610,0.05998
5195.29457,0.07068
5197.22304,0.07192
5199.15151,0.05690
5201.07997,0.04594
5203.00844,0.04507
5204.93691,0.04681
5206.86538,0.06130
5208.79385,0.07821
5210.72232,0.06442
5212.65079,0.03122
5214.57925,0.01044
5216.50772,0.01239
5218.43619,0.03080
5220.36466,0.03770
5222.29313,0.02346
5224.22160,0.01920
5226.15007,0.03637
5228.07854,0.05447
5230.00700,0.05181
5231.93547,0.03000
5233.86394,0.01748
5235.79241,0.02141
5237.72088,0.03246
5239.64935,0.05324
5241.57782,0.07004
5243.50628,0.06469
5245.43475,0.04874
5247.36322,0.03730
5249.29169,0.03289
5251.22016,0.03812
5253.14863,0.04369
5255.07710,0.03716
5257.00556,0.02976
5258.93403,0.03758
5260.86250,0.05570
5262.79097,0.06728
5264.71944,0.05843
5266.64791,0.05119
5268.57638,0.07136
5270.50485,0.10335
5272.43331,0.11224
5274.36178,0.09335
5276.29025,0.07897
5278.21872,0.07055
5280.14719,0.04417
5282.07566,0.02375
5284.00413,0.03436
5285.93259,0.04916
5287.86106,0.04761
5289.78953,0.03808
5291.71800,0.03319
5293.64647,0.04394
5295.57494,0.05287
5297.50341,0.04984
5299.43188,0.05182
5301.36034,0.05983
5303.28881,0.06444
5305.21728,0.06571
5307.14575,0.07395
5309.07422,0.09206
5311.00269,0.09940
5312.93116,0.09115
5314.85962,0.08745
5316.78809,0.08508
5318.71656,0.06828
5320.64503,0.05532
5322.57350,0.05727
5324.50197,0.05512
5326.43044,0.04330
5328.35891,0.04809
5330.28737,0.07336
5332.21584,0.08290
5334.14431,0.06963
5336.07278,0.06595
5338.00125,0.07072
5339.92972,0.05479
5341.85819,0.03672
5343.78665,0.03714
5345.71512,0.02929
5347.64359,0.00599
5349.57206,-0.00012
5351.50053,0.01929
5353.42900,0.04913
5355.35747,0.08351
5357.28594,0.11213
5359.21440,0.11567
5361.14287,0.10343
5363.07134,0.10718
5364.99981,0.12114
5366.92828,0.11568
5368.85675,0.09469
5370.78522,0.07748
5372.71368,0.07005
5374.64215,0.06974
5376.57062,0.07130
5378.49909,0.06187
5380.42756,0.04395
5382.35603,0.03609
5384.28450,0.04716
5386.21297,0.06385
5388.14143,0.06031
5390.06990,0.04267
5391.99837,0.03634
5393.92684,0.05641
5395.85531,0.08629
5397.78378,0.09028
5399.71225,0.07509
5401.64071,0.06155
5403.56918,0.05516
5405.49765,0.06736
5407.42612,0.08468
5409.35459,0.08568
5411.28306,0.08278
5413.21153,0.08103
5415.13999,0.07532
5417.06846,0.06425
5418.99693,0.04110
5420.92540,0.02606
5422.85387,0.03163
5424.78234,0.03497
5426.71081,0.03612
5428.63928,0.05302
5430.56774,0.08125
5432.49621,0.10066
5434.42468,0.09427
5436.35315,0.07420
5438.28162,0.07113
5440.21009,0.08135
5442.13856,0.09038
5444.06702,0.10359
5445.99549,0.11030
5447.92396,0.09280
5449.85243,0.07531
5451.78090,0.06438
5453.70937,0.04150
5455.63784,0.03205
5457.56631,0.04873
5459.49477,0.04695
5461.42324,0.02970
5463.35171,0.03367
5465.28018,0.04992
5467.20865,0.06239
5469.13712,0.07686
5471.06559,0.09109
5472.99405,0.10746
5474.92252,0.12754
5476.85099,0.12163
5478.77946,0.09178
5480.70793,0.08416
5482.63640,0.10449
5484.56487,0.10914
5486.49334,0.09864
5488.42180,0.10135
5490.35027,0.09949
5492.27874,0.08899
5494.20721,0.08969
5496.13568,0.09190
5498.06415,0.08517
5499.99262,0.07897
5501.92108,0.07479
5503.84955,0.05409
5505.77802,0.03742
5507.70649,0.06165
5509.63496,0.09457
5511.56343,0.09719
5513.49190,0.07498
5515.42037,0.04153
5517.34883,0.01606
5519.27730,0.02016
5521.20577,0.04930
5523.13424,0.07454
5525.06271,0.08913
5526.99118,0.11365
5528.91965,0.12982
5530.84811,0.10837
5532.77658,0.08385
5534.70505,0.08076
5536.63352,0.07804
5538.56199,0.08485
5540.49046,0.11344
5542.41893,0.13721
5544.34740,0.12928
5546.27586,0.09190
5548.20433,0.07190
5550.13280,0.09150
5552.06127,0.10712
5553.98974,0.10772
5555.91821,0.11841
5557.84668,0.12048
5559.77514,0.09469
5561.70361,0.06074
5563.63208,0.02529
5565.56055,-0.00452
5567.48902,-0.00355
5569.41749,0.02602
5571.34596,0.05264
5573.27443,0.05231
5575.20289,0.04149
5577.13136,0.04819
5579.05983,0.05825
5580.98830,0.05762
5582.91677,0.06031
5584.84524,0.06962
5586.77371,0.07293
5588.70217,0.07033
5590.63064,0.07256
5592.55911,0.07526
5594.48758,0.07044
5596.41605,0.06076
5598.34452,0.04794
5600.27299,0.03656
5602.20145,0.03639
5604.12992,0.05260
5606.05839,0.07294
5607.98686,0.07882
5609.91533,0.07806
5611.84380,0.07771
5613.77227,0.06884
5615.70074,0.07650
5617.62920,0.11877
5619.55767,0.15222
5621.48614,0.14548
5623.41461,0.11604
5625.34308,0.08594
5627.27155,0.07187
5629.20002,0.06513
5631.12848,0.05345
5633.05695,0.05589
5634.98542,0.06445
5636.91389,0.05245
5638.84236,0.04313
5640.77083,0.05612
5642.69930,0.06827
5644.62777,0.06689
5646.55623,0.06095
5648.48470,0.05945
5650.41317,0.06406
5652.34164,0.06731
5654.27011,0.05961
5656.19858,0.04915
5658.12705,0.05581
5660.05551,0.08537
5661.98398,0.11932
5663.91245,0.12299
5665.84092,0.09925
5667.76939,0.08394
5669.69786,0.07806
5671.62633,0.08409
5673.55480,0.11658
5675.48326,0.14737
5677.41173,0.14098
5679.34020,0.10631
5681.26867,0.07532
5683.19714,0.06618
5685.12561,0.08060
5687.05408,0.10372
5688.98254,0.10091
5690.91101,0.07521
5692.83948,0.07312
5694.76795,0.10142
5696.69642,0.12601
5698.62489,0.12338
5700.55336,0.09860
5702.48183,0.07147
5704.41029,0.04653
5706.33876,0.02656
5708.26723,0.03499
5710.19570,0.06387
5712.12417,0.06689
5714.05264,0.04707
5715.98111,0.04853
5717.90957,0.07431
5719.83804,0.10353
5721.76651,0.11112
5723.69498,0.08926
5725.62345,0.07556
5727.55192,0.08731
5729.48039,0.09597
5731.40886,0.09296
5733.33732,0.09815
5735.26579,0.12216
5737.19426,0.14446
5739.12273,0.12763
5741.05120,0.07987
5742.97967,0.06169
5744.90814,0.08597
5746.83660,0.10951
5748.76507,0.12457
5750.69354,0.13649
5752.62201,0.12028
5754.55048,0.08651
5756.47895,0.07234
5758.40742,0.08279
5760.33588,0.08866
5762.26435,0.07285
5764.19282,0.06904
5766.12129,0.08451
5768.04976,0.09136
5769.97823,0.09296
5771.90670,0.09427
5773.83517,0.08773
5775.76363,0.05939
5777.69210,0.03017
5779.62057,0.03816
5781.54904,0.05358
5783.47751,0.05924
5785.40598,0.08126
5787.33445,0.11197
5789.26291,0.12879
5791.19138,0.11605
5793.11985,0.07732
5795.04832,0.05184
5796.97679,0.05860
5798.90526,0.07953
5800.83373,0.10088
5802.76220,0.09763
5804.69066,0.05737
5806.61913,0.01326
5808.54760,0.00088
5810.47607,0.03520
5812.40454,0.08523
5814.33301,0.08451
5816.26148,0.04782
5818.18994,0.06200
5820.11841,0.12345
5822.04688,0.15056
5823.97535,0.13318
5825.90382,0.11387
5827.83229,0.11056
5829.76076,0.10090
5831.68923,0.08207
5833.61769,0.07734
5835.54616,0.07572
5837.47463,0.06850
5839.40310,0.07641
5841.33157,0.10599
5843.26004,0.12717
5845.18851,0.12346
5847.11697,0.11052
5849.04544,0.08875
5850.97391,0.06032
5852.90238,0.05167
5854.83085,0.07708
5856.75932,0.11916
5858.68779,0.14387
5860.61626,0.14934
5862.54472,0.14139
5864.47319,0.11044
5866.40166,0.08806
5868.33013,0.06731
5870.25860,0.01829
5872.18707,-0.01256
5874.11554,-0.00289
5876.04400,0.02733
5877.97247,0.06035
5879.90094,0.08791
5881.82941,0.11170
5883.75788,0.11855
5885.68635,0.11488
5887.61482,0.12410
5889.54329,0.13474
5891.47175,0.13050
5893.40022,0.11221
5895.32869,0.07424
5897.25716,0.04150
5899.18563,0.05883
5901.11410,0.11270
5903.04257,0.14203
5904.97103,0.12632
5906.89950,0.10501
5908.82797,0.09378
5910.75644,0.08103
5912.68491,0.06768
5914.61338,0.07257
5916.54185,0.10813
5918.47032,0.13916
5920.39878,0.13461
5922.32725,0.12485
5924.25572,0.13920
5926.18419,0.17295
5928.11266,0.21422
5930.04113,0.23656
5931.96960,0.22014
5933.89806,0.16596
5935.82653,0.09151
5937.75500,0.04574
5939.68347,0.05611
5941.61194,0.08872
5943.54041,0.09354
5945.46888,0.07208
5947.39734,0.04904
5949.32581,0.03868
5951.25428,0.05836
5953.18275,0.08796
5955.11122,0.08863
5957.03969,0.08220
5958.96816,0.10696
5960.89663,0.13128
5962.82509,0.12756
5964.75356,0.12146
5966.68203,0.12454
5968.61050,0.14763
5970.53897,0.17689
5972.46744,0.16213
5974.39591,0.11967
5976.32437,0.07988
5978.25284,0.02961
5980.18131,0.01057
5982.10978,0.05219
5984.03825,0.09396
5985.96672,0.10342
5987.89519,0.11775
5989.82366,0.13767
5991.75212,0.14124
5993.68059,0.13440
5995.60906,0.12700
5997.53753,0.12980
5999.46600,0.13145
6001.39447,0.12382
6003.32294,0.11339
6005.25140,0.09168
6007.17987,0.07006
6009.10834,0.07273
6011.03681,0.07725
6012.96528,0.05116
6014.89375,0.04994
6016.82222,0.12254
6018.75069,0.20521
6020.67915,0.23706
6022.60762,0.22684
6024.53609,0.18618
6026.46456,0.12979
6028.39303,0.10955
6030.32150,0.12115
6032.24997,0.09844
6034.17843,0.08080
6036.10690,0.10858
6038.03537,0.12850
6039.96384,0.12203
6041.89231,0.10387
6043.82078,0.08989
6045.74925,0.10364
6047.67772,0.13504
6049.60618,0.15204
6051.53465,0.16811
6053.46312,0.18751
6055.39159,0.15484
6057.32006,0.10249
6059.24853,0.08881
6061.17700,0.05039
6063.10546,-0.00567
6065.03393,-0.00692
6066.96240,0.02042
6068.89087,0.02983
6070.81934,0.02809
6072.74781,0.07742
6074.67628,0.17295
6076.60475,0.19087
6078.53321,0.11566
6080.46168,0.07026
6082.39015,0.09268
6084.31862,0.13705
6086.24709,0.14544
6088.17556,0.07570
6090.10403,-0.03042
6092.03249,-0.11588
6093.96096,-0.13480
6095.88943,-0.09822
6097.81790,-0.07913
6099.74637,-0.07119
6101.67484,-0.02212
6103.60331,0.05531
6105.53177,0.10221
6107.46024,0.09653
6109.38871,0.08768
6111.31718,0.10578
6113.24565,0.13046
6115.17412,0.14746
6117.10259,0.14346
6119.03106,0.11345
6120.95952,0.09179
6122.88799,0.10012
6124.81646,0.09528
6126.74493,0.06771
6128.67340,0.08494
6130.60187,0.12738
6132.53034,0.12212
6134.45880,0.10920
6136.38727,0.12351
6138.31574,0.13281
6140.24421,0.15198
6142.17268,0.16711
6144.10115,0.12002
6146.02962,0.08324
6147.95809,0.09364
6149.88655,0.07292
6151.81502,0.03354
6153.74349,0.04418
6155.67196,0.08584
6157.60043,0.12662
6159.52890,0.14466
6161.45737,0.14637
6163.38583,0.14358
6165.31430,0.09805
6167.24277,0.05769
6169.17124,0.08201
6171.09971,0.11589
6173.02818,0.09588
6174.95665,0.07844
6176.88512,0.13750
6178.81358,0.20256
6180.74205,0.18091
6182.67052,0.10260
6184.59899,0.06598
6186.52746,0.10214
6188.45593,0.13312
6190.38440,0.11068
6192.31286,0.06970
6194.24133,0.04405
6196.16980,0.04460
6198.09827,0.06400
6200.02674,0.09032
6201.95521,0.10993
6203.88368,0.11602
6205.81215,0.09869
6207.74061,0.06102
6209.66908,0.04598
6211.59755,0.06842
6213.52602,0.08435
6215.45449,0.07641
6217.38296,0.05663
6219.31143,0.05398
6221.23989,0.06621
6223.16836,0.03406
6225.09683,-0.02526
6227.02530,-0.00466
6228.95377,0.07094
6230.88224,0.09621
6232.81071,0.05650
6234.73918,0.02441
6236.66764,0.04008
6238.59611,0.04469
6240.52458,0.03121
6242.45305,0.05391
6244.38152,0.08772
6246.30999,0.11588
6248.23846,0.13506
6250.16692,0.10211
6252.09539,0.01668
6254.02386,-0.04692
6255.95233,-0.03716
6257.88080,0.01765
6259.80927,0.07061
6261.73774,0.09068
6263.66621,0.06860
6265.59467,0.05819
6267.52314,0.08811
6269.45161,0.09416
6271.38008,0.06348
6273.30855,0.05745
6275.23702,0.10308
6277.16549,0.12456
6279.09395,0.07141
6281.02242,0.01321
6282.95089,0.01058
6284.87936,0.06623
6286.80783,0.16166
6288.73630,0.22124
6290.66477,0.18189
6292.59323,0.12210
6294.52170,0.13742
6296.45017,0.18646
6298.37864,0.19378
6300.30711,0.17387
6302.23558,0.15335
6304.16405,0.11680
6306.09252,0.09132
6308.02098,0.09203
6309.94945,0.07829
6311.87792,0.05698
6313.80639,0.07357
6315.73486,0.11163
6317.66333,0.11613
6319.59180,0.06554
6321.52026,-0.00681
6323.44873,-0.03778
6325.37720,-0.00117
6327.30567,0.06363
6329.23414,0.07556
6331.16261,0.02637
6333.09108,0.01646
6335.01955,0.08064
6336.94801,0.14466
6338.87648,0.16232
6340.80495,0.17576
6342.73342,0.21262
6344.66189,0.24446
6346.59036,0.26035
6348.51883,0.24505
6350.44729,0.16070
6352.37576,0.06325
6354.30423,0.05607
6356.23270,0.12119
6358.16117,0.15998
6360.08964,0.11002
6362.01811,0.04900
6363.94658,0.06592
6365.87504,0.12271
6367.80351,0.14679
6369.73198,0.13337
6371.66045,0.11967
6373.58892,0.10026
6375.51739,0.06681
6377.44586,0.04857
6379.37432,0.05456
6381.30279,0.07026
6383.23126,0.05808
6385.15973,0.02154
6387.08820,0.00341
6389.01667,-0.02426
6390.94514,-0.07550
6392.87361,-0.09423
6394.80207,-0.05671
6396.73054,0.01158
6398.65901,0.10325
6400.58748,0.15544
6402.51595,0.11810
6404.44442,0.05113
6406.37289,0.01530
6408.30135,0.04199
6410.22982,0.10108
6412.15829,0.10097
6414.08676,0.05958
6416.01523,0.07043
6417.94370,0.12450
6419.87217,0.14954
6421.80064,0.11175
6423.72910,0.05295
6425.65757,0.06820
6427.58604,0.13980
6429.51451,0.17529
6431.44298,0.18341
6433.37145,0.18801
6435.29992,0.16718
6437.22838,0.15571
6439.15685,0.15157
6441.08532,0.10156
6443.01379,0.09641
6444.94226,0.15099
6446.87073,0.12921
6448.79920,0.07104
6450.72766,0.04403
6452.65613,0.02424
6454.58460,0.00857
6456.51307,0.00450
6458.44154,0.02843
6460.37001,0.05732
6462.29848,0.04984
6464.22695,0.04863
6466.15541,0.07655
6468.08388,0.08024
6470.01235,0.08996
6471.94082,0.16163
6473.86929,0.19402
6475.79776,0.11457
6477.72623,0.01974
6479.65469,-0.01974
6481.58316,-0.02785
6483.51163,-0.02401
6485.44010,-0.00198
6487.36857,0.06169
6489.29704,0.15712
6491.22551,0.24679
6493.15398,0.27124
6495.08244,0.19107
6497.01091,0.08057
6498.93938,0.04219
6500.86785,0.08472
6502.79632,0.11320
6504.72479,0.08491
6506.65326,0.07018
6508.58172,0.10446
6510.51019,0.10799
6512.43866,0.03770
6514.36713,0.01059
6516.29560,0.09653
6518.22407,0.18025
6520.15254,0.14289
6522.08101,0.04926
6524.00947,0.02802
6525.93794,0.06732
6527.86641,0.04568
6529.79488,0.00572
6531.72335,0.05583
6533.65182,0.10670
6535.58029,0.08963
6537.50875,0.06438
6539.43722,0.03403
6541.36569,0.02965
6543.29416,0.04035
6545.22263,-0.00091
6547.15110,-0.00426
6549.07957,0.07713
6551.00804,0.10851
6552.93650,0.05718
6554.86497,0.04035
6556.79344,0.04660
6558.72191,0.01850
6560.65038,0.00406
6562.57885,0.05213
6564.50732,0.09780
6566.43578,0.07161
6568.36425,0.03339
6570.29272,0.03439
6572.22119,0.04347
6574.14966,0.03644
6576.07813,0.05646
6578.00660,0.13400
6579.93507,0.17848
6581.86353,0.14367
6583.79200,0.11155
6585.72047,0.10464
6587.64894,0.11476
6589.57741,0.15259
6591.50588,0.17663
6593.43435,0.16799
6595.36281,0.14460
6597.29128,0.13636
6599.21975,0.17190
6601.14822,0.19093
6603.07669,0.13300
6605.00516,0.07136
6606.93363,0.05275
6608.86210,0.06335
6610.79056,0.08814
6612.71903,0.09283
6614.64750,0.07351
6616.57597,0.06601
6618.50444,0.08052
6620.43291,0.12688
6622.36138,0.17208
6624.28984,0.15949
6626.21831,0.12803
6628.14678,0.11012
6630.07525,0.08446
6632.00372,0.08196
6633.93219,0.09764
6635.86066,0.08105
6637.78912,0.06113
6639.71759,0.06874
6641.64606,0.08631
6643.57453,0.10247
6645.50300,0.11847
6647.43147,0.12793
6649.35994,0.07163
6651.28841,-0.01366
6653.21687,-0.03635
6655.14534,-0.06502
6657.07381,-0.08767
6659.00228,0.01680
6660.93075,0.07943
6662.85922,0.04051
6664.78769,0.05193
6666.71615,0.08288
6668.64462,0.04508
6670.57309,-0.02437
6672.50156,-0.04678
6674.43003,-0.01420
6676.35850,0.01330
6678.28697,0.01456
6680.21544,0.02810
6682.14390,0.08510
6684.07237,0.15633
6686.00084,0.20193
6687.92931,0.20501
6689.85778,0.15269
6691.78625,0.08416
6693.71472,0.04585
6695.64318,0.05123
6697.57165,0.06008
6699.50012,0.01160
6701.42859,-0.02654
6703.35706,0.04577
6705.28553,0.13755
6707.21400,0.12972
6709.14247,0.10788
6711.07093,0.12225
6712.99940,0.11859
6714.92787,0.12102
6716.85634,0.11530
6718.78481,0.03013
6720.71328,-0.06981
6722.64175,-0.05099
6724.57021,0.03202
6726.49868,0.03545
6728.42715,0.02149
6730.35562,0.08610
6732.28409,0.15647
6734.21256,0.20723
6736.14103,0.25096
6738.06950,0.26031
6739.99796,0.21737
6741.92643,0.08596
6743.85490,-0.03782
6745.78337,-0.04211
6747.71184,-0.00050
6749.64031,0.03382
6751.56878,0.13358
6753.49724,0.23534
6755.42571,0.16207
6757.35418,-0.00128
6759.28265,-0.04848
6761.21112,-0.03066
6763.13959,-0.02895
6765.06806,0.02743
6766.99653,0.02727
6768.92499,-0.07891
6770.85346,-0.13670
6772.78193,-0.10558
6774.71040,-0.05382
6776.63887,-0.04659
6778.56734,-0.05152
6780.49581,0.01397
6782.42427,0.09448
6784.35274,0.10619
6786.28121,0.05274
6788.20968,-0.01510
6790.13815,-0.04676
6792.06662,0.00065
6793.99509,0.11523
6795.92355,0.18032
6797.85202,0.12297
6799.78049,0.04846
6801.70896,0.08413
6803.63743,0.17032
6805.56590,0.16984
6807.49437,0.12854
6809.42284,0.10088
6811.35130,0.06661
6813.27977,0.03470
6815.20824,0.04803
6817.13671,0.10295
6819.06518,0.11632
6820.99365,0.06816
6822.92212,0.03487
6824.85058,0.07485
6826.77905,0.11229
6828.70752,0.10254
6830.63599,0.08689
6832.56446,0.04701
6834.49293,-0.01217
6836.42140,-0.00426
6838.34987,0.02880
6840.27833,0.04374
6842.20680,0.07037
6844.13527,0.02673
6846.06374,-0.05146
6847.99221,-0.00049
6849.92068,0.12604
6851.84915,0.13536
6853.77761,0.00837
6855.70608,-0.14876
6857.63455,-0.18655
6859.56302,-0.08357
6861.49149,0.08201
6863.41996,0.17004
6865.34843,0.13921
6867.27690,0.08585
6869.20536,0.08763
6871.13383,0.10726
6873.06230,0.09738
6874.99077,0.10242
6876.91924,0.12977
6878.84771,0.10673
6880.77618,0.09329
6882.70464,0.15923
6884.63311,0.14940
6886.56158,0.06984
6888.49005,0.04501
6890.41852,0.02894
6892.34699,0.01278
6894.27546,0.04656
6896.20393,0.10685
6898.13239,0.15721
6900.06086,0.16831
6901.98933,0.15981
6903.91780,0.21833
6905.84627,0.33038
6907.77474,0.32302
6909.70321,0.18873
6911.63167,0.05037
6913.56014,-0.02790
6915.48861,-0.04113
6917.41708,-0.02178
6919.34555,-0.03217
6921.27402,-0.05908
6923.20249,-0.03305
6925.13096,0.01488
6927.05942,0.04619
6928.98789,0.04407
6930.91636,-0.00564
6932.84483,-0.03632
6934.77330,0.02790
6936.70177,0.09233
6938.63024,0.05117
6940.55870,-0.02952
6942.48717,-0.01803
6944.41564,0.04747
6946.34411,0.07377
6948.27258,0.06846
6950.20105,0.12667
6952.12952,0.23659
6954.05799,0.26638
6955.98645,0.10414
6957.91492,-0.07541
6959.84339,-0.11579
6961.77186,-0.10633
6963.70033,-0.05786
6965.62880,0.05105
6967.55727,0.11312
6969.48573,0.06957
6971.41420,0.01237
6973.34267,-0.00445
6975.27114,-0.00036
6977.19961,0.03961
6979.12808,0.08317
6981.05655,0.10941
6982.98501,0.12934
6984.91348,0.14039
6986.84195,0.19042
6988.77042,0.23923
6990.69889,0.18380
6992.62736,0.09264
6994.55583,0.05070
6996.48430,0.04498
6998.41276,0.02007
7000.34123,-0.00057
7002.26970,0.05818
7004.19817,0.16281
7006.12664,0.26983
7008.05511,0.30076
7009.98358,0.22432
7011.91204,0.13125
7013.84051,0.05343
7015.76898,0.03093
7017.69745,0.10479
7019.62592,0.21832
7021.55439,0.27908
7023.48286,0.25091
7025.41133,0.18075
7027.33979,0.12111
7029.26826,0.10989
7031.19673,0.16174
7033.12520,0.18724
7035.05367,0.12853
7036.98214,0.10056
7038.91061,0.14552
7040.83907,0.17357
7042.76754,0.17052
7044.69601,0.13759
7046.62448,0.12356
7048.55295,0.16406
7050.48142,0.11833
7052.40989,0.04424
7054.33836,0.10823
7056.26682,0.22501
7058.19529,0.24707
7060.12376,0.18164
7062.05223,0.10255
7063.98070,0.10222
7065.90917,0.15204
7067.83764,0.12574
7069.76610,0.03195
7071.69457,-0.02638
7073.62304,-0.00696
7075.55151,0.03061
7077.47998,0.03405
7079.40845,-0.00716
7081.33692,-0.06196
7083.26539,-0.05078
7085.19385,0.05433
7087.12232,0.23767
7089.05079,0.33716
7090.97926,0.22487
7092.90773,0.04087
7094.83620,-0.04702
7096.76467,-0.04372
7098.69313,0.04046
7100.62160,0.14298
7102.55007,0.11856
7104.47854,0.01001
7106.40701,-0.04901
7108.33548,-0.07768
7110.26395,-0.15919
7112.19242,-0.22456
7114.12088,-0.13455
7116.04935,0.03598
7117.97782,0.12108
7119.90629,0.21484
7121.83476,0.34839
7123.76323,0.30205
7125.69170,0.11544
7127.62016,0.02126
7129.54863,0.05086
7131.47710,0.17395
7133.40557,0.32719
7135.33404,0.38326
7137.26251,0.34715
7139.19098,0.21313
7141.11944,-0.08339
7143.04791,-0.31834
7144.97638,-0.22523
7146.90485,-0.05680
7148.83332,-0.07594
7150.76179,-0.11420
7152.69026,-0.07640
7154.61873,0.02841
7156.54719,0.12421
7158.47566,0.14686
7160.40413,0.20711
7162.33260,0.32040
7164.26107,0.30362
7166.18954,0.16877
7168.11801,0.11176
7170.04647,0.20316
7171.97494,0.29952
7173.90341,0.22894
7175.83188,0.09623
7177.76035,0.06063
7179.68882,0.13575
7181.61729,0.23204
7183.54576,0.27729
7185.47422,0.36480
7187.40269,0.38248
7189.33116,0.20741
7191.25963,0.02407
7193.18810,-0.04285
7195.11657,-0.10844
7197.04504,-0.18036
7198.97350,-0.12143
7200.90197,0.05013
7202.83044,0.12201
7204.75891,-0.00581
7206.68738,-0.05143
7208.61585,0.06497
7210.54432,0.13748
7212.47279,0.13010
7214.40125,0.14485
7216.32972,0.19099
7218.25819,0.13013
7220.18666,-0.02464
7222.11513,-0.01808
7224.04360,0.17736
7225.97207,0.34059
7227.90053,0.35284
7229.82900,0.21634
7231.75747,0.03940
7233.68594,0.06198
7235.61441,0.13538
7237.54288,0.12873
7239.47135,0.09532
7241.39982,0.08609
7243.32828,0.12734
7245.25675,0.18139
7247.18522,0.24992
7249.11369,0.30437
7251.04216,0.23723
7252.97063,-0.01495
7254.89910,-0.19907
7256.82756,-0.14545
7258.75603,-0.04089
7260.68450,-0.02110
7262.61297,-0.03717
7264.54144,0.01438
7266.46991,0.10222
7268.39838,0.13194
7270.32685,0.09074
7272.25531,0.01469
7274.18378,-0.07453
7276.11225,-0.08428
7278.04072,0.02822
7279.96919,0.18262
7281.89766,0.26563
7283.82613,0.22414
7285.75459,0.11115
7287.68306,0.07485
7289.61153,0.11702
7291.54000,0.10315
7293.46847,0.00630
7295.39694,-0.08180
7297.32541,-0.07593
7299.25387,-0.02613
7301.18234,-0.05786
7303.11081,-0.10980
7305.03928,-0.05938
7306.96775,-0.01329
7308.89622,0.02408
7310.82469,0.17406
7312.75316,0.28375
7314.68162,0.32573
7316.61009,0.38330
7318.53856,0.41653
7320.46703,0.36631
7322.39550,0.30673
7324.32397,0.24661
7326.25244,0.12588
7328.18090,0.06052
7330.10937,0.06723
7332.03784,0.06105
7333.96631,0.11658
7335.89478,0.16199
7337.82325,0.18397
7339.75172,0.25904
7341.68019,0.24015
7343.60865,0.05654
7345.53712,-0.08916
7347.46559,-0.10457
7349.39406,-0.07506
7351.32253,-0.01304
7353.25100,0.05291
7355.17947,-0.00072
7357.10793,-0.16841
7359.03640,-0.08713
7360.96487,0.20988
7362.89334,0.15575
7364.82181,-0.08185
7366.75028,-0.08272
7368.67875,0.04823
7370.60722,0.04731
7372.53568,-0.06668
7374.46415,-0.16813
7376.39262,-0.08925
7378.32109,0.06454
7380.24956,0.18117
7382.17803,0.35465
7384.10650,0.55010
7386.03496,0.57862
7387.96343,0.38065
7389.89190,0.22833
7391.82037,0.27420
7393.74884,0.41773
7395.67731,0.50980
7397.60578,0.37434
7399.53425,0.09257
7401.46271,-0.06925
7403.39118,-0.00892
7405.31965,0.15804
7407.24812,0.23495
7409.17659,0.23269
7411.10506,0.22134
7413.03353,0.19358
7414.96199,0.15573
7416.89046,0.11656
7418.81893,-0.03746
7420.74740,-0.25105
7422.67587,-0.25526
7424.60434,-0.13819
7426.53281,-0.09572
7428.46128,-0.10602
7430.38974,-0.06682
7432.31821,-0.08797
7434.24668,-0.16748
7436.17515,-0.19622
7438.10362,-0.14336
7440.03209,0.01709
7441.96056,0.17800
7443.88902,0.22298
7445.81749,0.15172
7447.74596,-0.00866
7449.67443,-0.15186
7451.60290,-0.10293
7453.53137,0.04688
7455.45984,0.10686
7457.38831,0.13213
7459.31677,0.17488
7461.24524,0.16525
7463.17371,0.09570
7465.10218,0.01775
7467.03065,-0.03885
7468.95912,-0.03800
7470.88759,0.04161
7472.81605,0.09639
7474.74452,-0.01015
7476.67299,-0.07796
7478.60146,0.11752
7480.52993,0.31861
7482.45840,0.26505
7484.38687,0.18238
7486.31533,0.28489
7488.24380,0.49604
7490.17227,0.58716
7492.10074,0.41493
7494.02921,0.20388
7495.95768,0.13971
7497.88615,0.07131
