399.19301,0.90242
401.12148,1.56519
403.04995,2.05796
404.97842,1.42412
406.90689,0.39309
408.83536,0.03078
410.76382,0.24793
412.69229,0.68428
414.62076,2.35936
416.54923,5.60033
418.47770,8.05121
420.40617,5.57910
422.33464,2.10043
424.26311,0.68058
426.19157,0.60383
428.12004,0.73473
430.04851,0.75863
431.97698,0.65047
433.90545,0.41699
435.83392,0.15390
437.76239,-0.01469
439.69085,-0.04226
441.61932,0.02911
443.54779,0.11347
445.47626,0.08922
447.40473,0.01611
449.33320,0.06724
451.26167,0.15166
453.19013,0.14765
455.11860,0.10675
457.04707,0.08925
458.97554,0.05490
460.90401,0.03962
462.83248,0.09087
464.76095,0.12223
466.68942,0.11718
468.61788,0.12244
470.54635,0.14418
472.47482,0.19281
474.40329,0.21269
476.33176,0.15070
478.26023,0.15235
480.18870,0.19690
482.11716,0.17380
484.04563,0.07913
485.97410,0.01187
487.90257,0.03584
489.83104,0.12061
491.75951,0.20315
493.68798,0.22477
495.61645,0.19940
497.54491,0.16641
499.47338,0.12544
501.40185,0.11920
503.33032,0.17314
505.25879,0.20875
507.18726,0.16237
509.11573,0.11020
511.04419,0.12066
512.97266,0.15331
514.90113,0.16848
516.82960,0.15468
518.75807,0.11613
520.68654,0.07532
522.61501,0.05562
524.54348,0.06554
526.47194,0.10226
528.40041,0.12494
530.32888,0.11123
532.25735,0.10811
534.18582,0.15748
536.11429,0.21963
538.04276,0.23631
539.97122,0.21790
541.89969,0.18926
543.82816,0.15260
545.75663,0.11148
547.68510,0.07831
549.61357,0.10250
551.54204,0.26748
553.47051,0.41941
555.39897,0.34267
557.32744,0.17944
559.25591,0.11402
561.18438,0.10748
563.11285,0.11100
565.04132,0.12230
566.96979,0.13805
568.89825,0.15091
570.82672,0.15560
572.75519,0.13865
574.68366,0.11709
576.61213,0.12756
578.54060,0.14998
580.46907,0.14031
582.39754,0.11507
584.32600,0.10103
586.25447,0.08634
588.18294,0.08518
590.11141,0.11454
592.03988,0.15027
593.96835,0.16077
595.89682,0.15630
597.82528,0.15417
599.75375,0.15325
601.68222,0.16670
603.61069,0.18882
605.53916,0.18333
607.46763,0.15362
609.39610,0.13247
611.32456,0.13770
613.25303,0.15728
615.18150,0.15074
617.10997,0.11852
619.03844,0.10293
620.96691,0.10609
622.89538,0.10743
624.82385,0.10939
626.75231,0.11679
628.68078,0.12408
630.60925,0.12480
632.53772,0.10995
634.46619,0.08862
636.39466,0.09298
638.32313,0.12086
640.25159,0.13101
642.18006,0.11779
644.10853,0.10970
646.03700,0.11339
647.96547,0.13147
649.89394,0.15560
651.82241,0.16406
653.75088,0.15321
655.67934,0.14086
657.60781,0.14982
659.53628,0.16076
661.46475,0.15137
663.39322,0.14361
665.32169,0.14635
667.25016,0.15766
669.17862,0.16836
671.10709,0.15006
673.03556,0.13340
674.96403,0.14469
676.89250,0.16178
678.82097,0.15515
680.74944,0.13502
682.67791,0.12263
684.60637,0.13068
686.53484,0.14401
688.46331,0.13768
690.39178,0.12946
692.32025,0.13535
694.24872,0.13459
696.17719,0.12360
698.10565,0.11910
700.03412,0.11555
701.96259,0.10992
703.89106,0.11736
705.81953,0.13563
707.74800,0.15147
709.67647,0.16673
711.60494,0.17779
713.53340,0.17154
715.46187,0.15698
717.39034,0.14985
719.31881,0.14642
721.24728,0.13683
723.17575,0.12509
725.10422,0.12314
727.03268,0.12836
728.96115,0.13382
730.88962,0.13850
732.81809,0.13474
734.74656,0.12572
736.67503,0.12893
738.60350,0.14181
740.53197,0.15200
742.46043,0.15518
744.38890,0.14866
746.31737,0.14132
748.24584,0.14775
750.17431,0.16233
752.10278,0.16523
754.03125,0.15289
755.95971,0.14132
757.88818,0.14098
759.81665,0.14731
761.74512,0.15099
763.67359,0.14830
765.60206,0.14427
767.53053,0.14477
769.45900,0.15182
771.38746,0.15975
773.31593,0.16168
775.24440,0.16004
777.17287,0.15897
779.10134,0.15834
781.02981,0.15213
782.95828,0.13989
784.88674,0.12622
786.81521,0.11047
788.74368,0.10084
790.67215,0.10987
792.60062,0.13252
794.52909,0.15476
796.45756,0.16805
798.38602,0.16325
800.31449,0.14615
802.24296,0.13619
804.17143,0.13582
806.09990,0.14048
808.02837,0.15204
809.95684,0.15916
811.88531,0.14985
813.81377,0.14383
815.74224,0.14658
817.67071,0.14307
819.59918,0.14001
821.52765,0.14092
823.45612,0.14349
825.38459,0.14624
827.31305,0.14348
829.24152,0.14050
831.16999,0.14445
833.09846,0.14547
835.02693,0.14102
836.95540,0.14162
838.88387,0.14387
840.81234,0.14512
842.74080,0.14819
844.66927,0.14676
846.59774,0.13949
848.52621,0.13783
850.45468,0.14247
852.38315,0.14538
854.31162,0.14837
856.24008,0.15661
858.16855,0.16626
860.09702,0.17035
862.02549,0.17486
863.95396,0.17926
865.88243,0.16731
867.81090,0.13280
869.73937,0.10428
871.66783,0.11428
873.59630,0.13866
875.52477,0.14840
877.45324,0.15332
879.38171,0.15800
881.31018,0.15619
883.23865,0.15096
885.16711,0.15065
887.09558,0.14946
889.02405,0.13871
890.95252,0.13184
892.88099,0.13772
894.80946,0.14345
896.73793,0.14331
898.66640,0.14477
900.59486,0.15181
902.52333,0.16132
904.45180,0.16503
906.38027,0.16078
908.30874,0.15545
910.23721,0.15482
912.16568,0.15982
914.09414,0.16238
916.02261,0.15259
917.95108,0.13847
919.87955,0.13376
921.80802,0.13578
923.73649,0.14137
925.66496,0.15131
927.59343,0.15511
929.52189,0.15018
931.45036,0.14673
933.37883,0.14303
935.30730,0.13770
937.23577,0.13756
939.16424,0.14221
941.09271,0.15095
943.02117,0.16076
944.94964,0.16007
946.87811,0.14408
948.80658,0.12846
950.73505,0.13229
952.66352,0.14699
954.59199,0.15465
956.52045,0.15560
958.44892,0.15666
960.37739,0.15879
962.30586,0.15520
964.23433,0.14609
966.16280,0.14208
968.09127,0.14585
970.01974,0.15283
971.94820,0.15847
973.87667,0.16240
975.80514,0.16435
977.73361,0.16013
979.66208,0.15532
981.59055,0.15844
983.51902,0.16186
985.44748,0.15805
987.37595,0.15199
989.30442,0.14620
991.23289,0.14228
993.16136,0.14742
995.08983,0.15867
997.01830,0.16719
998.94677,0.17202
1000.87523,0.17219
1002.80370,0.16774
1004.73217,0.16114
1006.66064,0.15458
1008.58911,0.15358
1010.51758,0.16127
1012.44605,0.16875
1014.37451,0.16591
1016.30298,0.16180
1018.23145,0.16926
1020.15992,0.17939
1022.08839,0.17985
1024.01686,0.18205
1025.94533,0.19858
1027.87380,0.20890
1029.80226,0.19393
1031.73073,0.17846
1033.65920,0.18265
1035.58767,0.18733
1037.51614,0.17993
1039.44461,0.16852
1041.37308,0.16016
1043.30154,0.15961
1045.23001,0.16468
1047.15848,0.16898
1049.08695,0.17332
1051.01542,0.17766
1052.94389,0.17711
1054.87236,0.17171
1056.80083,0.16652
1058.72929,0.16731
1060.65776,0.17289
1062.58623,0.17609
1064.51470,0.17396
1066.44317,0.16909
1068.37164,0.16916
1070.30011,0.17453
1072.22857,0.17508
1074.15704,0.16829
1076.08551,0.16077
1078.01398,0.15840
1079.94245,0.16046
1081.87092,0.16337
1083.79939,0.16571
1085.72786,0.16555
1087.65632,0.16285
1089.58479,0.16000
1091.51326,0.15818
1093.44173,0.15722
1095.37020,0.15604
1097.29867,0.15649
1099.22714,0.16475
1101.15560,0.17682
1103.08407,0.17981
1105.01254,0.17624
1106.94101,0.17457
1108.86948,0.17492
1110.79795,0.17474
1112.72642,0.17253
1114.65489,0.17438
1116.58335,0.17941
1118.51182,0.17734
1120.44029,0.17129
1122.36876,0.16736
1124.29723,0.16240
1126.22570,0.15993
1128.15417,0.16787
1130.08263,0.17917
1132.01110,0.18309
1133.93957,0.18203
1135.86804,0.18021
1137.79651,0.17560
1139.72498,0.16807
1141.65345,0.16343
1143.58191,0.16662
1145.51038,0.17468
1147.43885,0.17830
1149.36732,0.17483
1151.29579,0.17184
1153.22426,0.17036
1155.15273,0.16840
1157.08120,0.17112
1159.00966,0.17872
1160.93813,0.18242
1162.86660,0.17949
1164.79507,0.18061
1166.72354,0.18755
1168.65201,0.18688
1170.58048,0.17773
1172.50894,0.17284
1174.43741,0.17457
1176.36588,0.17383
1178.29435,0.16902
1180.22282,0.16410
1182.15129,0.16064
1184.07976,0.15984
1186.00823,0.16073
1187.93669,0.16411
1189.86516,0.16922
1191.79363,0.17035
1193.72210,0.16742
1195.65057,0.16612
1197.57904,0.16748
1199.50751,0.16859
1201.43597,0.16952
1203.36444,0.17165
1205.29291,0.17414
1207.22138,0.17461
1209.14985,0.17376
1211.07832,0.17437
1213.00679,0.17628
1214.93526,0.17684
1216.86372,0.17436
1218.79219,0.17104
1220.72066,0.17012
1222.64913,0.17223
1224.57760,0.17506
1226.50607,0.17703
1228.43454,0.17948
1230.36300,0.18138
1232.29147,0.17948
1234.21994,0.17420
1236.14841,0.17019
1238.07688,0.17002
1240.00535,0.17239
1241.93382,0.17486
1243.86229,0.17402
1245.79075,0.16980
1247.71922,0.16871
1249.64769,0.17515
1251.57616,0.18052
1253.50463,0.17704
1255.43310,0.17319
1257.36157,0.17390
1259.29003,0.17293
1261.21850,0.17251
1263.14697,0.18026
1265.07544,0.18924
1267.00391,0.18713
1268.93238,0.17943
1270.86085,0.17913
1272.78932,0.18426
1274.71778,0.18792
1276.64625,0.19022
1278.57472,0.18843
1280.50319,0.18239
1282.43166,0.18030
1284.36013,0.18263
1286.28860,0.18208
1288.21706,0.17920
1290.14553,0.17898
1292.07400,0.17840
1294.00247,0.17425
1295.93094,0.17029
1297.85941,0.16864
1299.78788,0.16710
1301.71634,0.16303
1303.64481,0.15862
1305.57328,0.16288
1307.50175,0.17604
1309.43022,0.18455
1311.35869,0.18435
1313.28716,0.18111
1315.21563,0.17759
1317.14409,0.17750
1319.07256,0.17965
1321.00103,0.17851
1322.92950,0.17651
1324.85797,0.17708
1326.78644,0.17811
1328.71491,0.17820
1330.64337,0.17738
1332.57184,0.17774
1334.50031,0.18042
1336.42878,0.18272
1338.35725,0.18458
1340.28572,0.18162
1342.21419,0.17132
1344.14266,0.16659
1346.07112,0.17306
1347.99959,0.18035
1349.92806,0.17927
1351.85653,0.17416
1353.78500,0.17316
1355.71347,0.17521
1357.64194,0.17585
1359.57040,0.17487
1361.49887,0.17479
1363.42734,0.17879
1365.35581,0.18416
1367.28428,0.18489
1369.21275,0.18058
1371.14122,0.18016
1373.06969,0.18803
1374.99815,0.19474
1376.92662,0.19382
1378.85509,0.19063
1380.78356,0.18948
1382.71203,0.18990
1384.64050,0.18942
1386.56897,0.18926
1388.49743,0.19201
1390.42590,0.19568
1392.35437,0.19790
1394.28284,0.19734
1396.21131,0.19428
1398.13978,0.19199
1400.06825,0.18996
1401.99672,0.18752
1403.92518,0.18665
1405.85365,0.18687
1407.78212,0.18672
1409.71059,0.18776
1411.63906,0.19079
1413.56753,0.19297
1415.49600,0.19419
1417.42446,0.19794
1419.35293,0.20165
1421.28140,0.20114
1423.20987,0.20004
1425.13834,0.19773
1427.06681,0.19588
1428.99528,0.19769
1430.92375,0.19771
1432.85221,0.19388
1434.78068,0.19404
1436.70915,0.19881
1438.63762,0.19777
1440.56609,0.19328
1442.49456,0.19206
1444.42303,0.19350
1446.35149,0.19581
1448.27996,0.19716
1450.20843,0.19650
1452.13690,0.19761
1454.06537,0.20322
1455.99384,0.21804
1457.92231,0.22857
1459.85077,0.21404
1461.77924,0.20422
1463.70771,0.20627
1465.63618,0.20499
1467.56465,0.19716
1469.49312,0.19630
1471.42159,0.20154
1473.35006,0.20284
1475.27852,0.20058
1477.20699,0.19793
1479.13546,0.19434
1481.06393,0.19309
1482.99240,0.19611
1484.92087,0.20131
1486.84934,0.20713
1488.77780,0.21490
1490.70627,0.21753
1492.63474,0.21105
1494.56321,0.20785
1496.49168,0.21487
1498.42015,0.22125
1500.34862,0.21737
1502.27709,0.21494
1504.20555,0.22315
1506.13402,0.24258
1508.06249,0.24500
1509.99096,0.22853
1511.91943,0.21693
1513.84790,0.21503
1515.77637,0.22109
1517.70483,0.22391
1519.63330,0.22616
1521.56177,0.23206
1523.49024,0.22619
1525.41871,0.21699
1527.34718,0.21059
1529.27565,0.20594
1531.20412,0.20779
1533.13258,0.21313
1535.06105,0.21322
1536.98952,0.21598
1538.91799,0.23089
1540.84646,0.24124
1542.77493,0.22659
1544.70340,0.21106
1546.63186,0.20284
1548.56033,0.20178
1550.48880,0.20395
1552.41727,0.20887
1554.34574,0.21922
1556.27421,0.23492
1558.20268,0.24805
1560.13115,0.22560
1562.05961,0.20382
1563.98808,0.19854
1565.91655,0.20155
1567.84502,0.20848
1569.77349,0.21066
1571.70196,0.20316
1573.63043,0.19990
1575.55889,0.20702
1577.48736,0.20939
1579.41583,0.19952
1581.34430,0.19244
1583.27277,0.19134
1585.20124,0.19066
1587.12971,0.18985
1589.05818,0.19115
1590.98664,0.19385
1592.91511,0.19464
1594.84358,0.19162
1596.77205,0.18864
1598.70052,0.19013
1600.62899,0.19263
1602.55746,0.19059
1604.48592,0.18787
1606.41439,0.18864
1608.34286,0.19000
1610.27133,0.19156
1612.19980,0.19706
1614.12827,0.20752
1616.05674,0.21772
1617.98521,0.21717
1619.91367,0.21564
1621.84214,0.22190
1623.77061,0.22382
1625.69908,0.21553
1627.62755,0.20853
1629.55602,0.20495
1631.48449,0.20608
1633.41295,0.21538
1635.34142,0.22711
1637.26989,0.22248
1639.19836,0.21501
1641.12683,0.21464
1643.05530,0.21967
1644.98377,0.23043
1646.91223,0.23436
1648.84070,0.22424
1650.76917,0.22487
1652.69764,0.24045
1654.62611,0.23488
1656.55458,0.21562
1658.48305,0.20795
1660.41152,0.21153
1662.33998,0.21834
1664.26845,0.21817
1666.19692,0.21711
1668.12539,0.22304
1670.05386,0.22820
1671.98233,0.22302
1673.91080,0.21736
1675.83926,0.21442
1677.76773,0.21467
1679.69620,0.21870
1681.62467,0.22489
1683.55314,0.23396
1685.48161,0.23437
1687.41008,0.22480
1689.33855,0.21898
1691.26701,0.21792
1693.19548,0.22076
1695.12395,0.22755
1697.05242,0.23155
1698.98089,0.22919
1700.90936,0.22380
1702.83783,0.22063
1704.76629,0.22272
1706.69476,0.22044
1708.62323,0.20939
1710.55170,0.20246
1712.48017,0.20510
1714.40864,0.21370
1716.33711,0.22207
1718.26558,0.21819
1720.19404,0.20819
1722.12251,0.20267
1724.05098,0.20018
1725.97945,0.20036
1727.90792,0.20426
1729.83639,0.20940
1731.76486,0.21404
1733.69332,0.21638
1735.62179,0.21218
1737.55026,0.21131
1739.47873,0.21531
1741.40720,0.21705
1743.33567,0.21578
1745.26414,0.21502
1747.19261,0.21637
1749.12107,0.21843
1751.04954,0.21569
1752.97801,0.20990
1754.90648,0.20835
1756.83495,0.21103
1758.76342,0.21216
1760.69189,0.21015
1762.62035,0.20598
1764.54882,0.20372
1766.47729,0.20697
1768.40576,0.21076
1770.33423,0.21318
1772.26270,0.21872
1774.19117,0.21843
1776.11964,0.21104
1778.04810,0.20666
1779.97657,0.20781
1781.90504,0.21034
1783.83351,0.21114
1785.76198,0.20915
1787.69045,0.20747
1789.61892,0.21098
1791.54738,0.21729
1793.47585,0.21743
1795.40432,0.21087
1797.33279,0.20448
1799.26126,0.20244
1801.18973,0.20304
1803.11820,0.20178
1805.04666,0.20064
1806.97513,0.20238
1808.90360,0.20424
1810.83207,0.20327
1812.76054,0.20241
1814.68901,0.20367
1816.61748,0.20576
1818.54595,0.20794
1820.47441,0.20958
1822.40288,0.21301
1824.33135,0.21689
1826.25982,0.21650
1828.18829,0.21686
1830.11676,0.21641
1832.04523,0.20911
1833.97369,0.20365
1835.90216,0.20446
1837.83063,0.20570
1839.75910,0.20336
1841.68757,0.20283
1843.61604,0.20711
1845.54451,0.20921
1847.47298,0.20723
1849.40144,0.20525
1851.32991,0.20422
1853.25838,0.20379
1855.18685,0.20253
1857.11532,0.20137
1859.04379,0.20248
1860.97226,0.20445
1862.90072,0.20412
1864.82919,0.20331
1866.75766,0.20783
1868.68613,0.21457
1870.61460,0.21206
1872.54307,0.20505
1874.47154,0.20278
1876.40001,0.20407
1878.32847,0.20441
1880.25694,0.20381
1882.18541,0.20331
1884.11388,0.20347
1886.04235,0.20408
1887.97082,0.20354
1889.89929,0.20166
1891.82775,0.20092
1893.75622,0.20248
1895.68469,0.20253
1897.61316,0.19908
1899.54163,0.19724
1901.47010,0.20031
1903.39857,0.20448
1905.32704,0.20533
1907.25550,0.20474
1909.18397,0.20414
1911.11244,0.20171
1913.04091,0.20051
1914.96938,0.20396
1916.89785,0.20878
1918.82632,0.20921
1920.75478,0.20615
1922.68325,0.20386
1924.61172,0.20094
1926.54019,0.19578
1928.46866,0.19264
1930.39713,0.19460
1932.32560,0.19885
1934.25407,0.20282
1936.18253,0.20537
1938.11100,0.20555
1940.03947,0.20558
1941.96794,0.20659
1943.89641,0.20558
1945.82488,0.20274
1947.75335,0.20178
1949.68181,0.20323
1951.61028,0.20421
1953.53875,0.20336
1955.46722,0.20302
1957.39569,0.20418
1959.32416,0.20418
1961.25263,0.20262
1963.18110,0.20366
1965.10956,0.20856
1967.03803,0.21079
1968.96650,0.20678
1970.89497,0.20373
1972.82344,0.20407
1974.75191,0.19971
1976.68038,0.19284
1978.60884,0.19537
1980.53731,0.20296
1982.46578,0.20430
1984.39425,0.20133
1986.32272,0.20006
1988.25119,0.20201
1990.17966,0.20512
1992.10812,0.20614
1994.03659,0.20548
1995.96506,0.20522
1997.89353,0.20490
1999.82200,0.20409
2001.75047,0.20440
2003.67894,0.20529
2005.60741,0.20398
2007.53587,0.20225
2009.46434,0.20266
2011.39281,0.20360
2013.32128,0.20473
2015.24975,0.20646
2017.17822,0.20679
2019.10669,0.20542
2021.03515,0.20503
2022.96362,0.20560
2024.89209,0.20440
2026.82056,0.20219
2028.74903,0.20176
2030.67750,0.20260
2032.60597,0.20333
2034.53444,0.20429
2036.46290,0.20518
2038.39137,0.20487
2040.31984,0.20397
2042.24831,0.20328
2044.17678,0.20225
2046.10525,0.20226
2048.03372,0.20516
2049.96218,0.20899
2051.89065,0.21130
2053.81912,0.21193
2055.74759,0.21012
2057.67606,0.20669
2059.60453,0.20451
2061.53300,0.20243
2063.46147,0.19996
2065.38993,0.20063
2067.31840,0.20292
2069.24687,0.20319
2071.17534,0.20293
2073.10381,0.20241
2075.03228,0.20099
2076.96075,0.20134
2078.88921,0.20329
2080.81768,0.20441
2082.74615,0.20492
2084.67462,0.20545
2086.60309,0.20553
2088.53156,0.20512
2090.46003,0.20487
2092.38850,0.20446
2094.31696,0.20424
2096.24543,0.20462
2098.17390,0.20496
2100.10237,0.20589
2102.03084,0.20734
2103.95931,0.20835
2105.88778,0.20809
2107.81624,0.20611
2109.74471,0.20370
2111.67318,0.20236
2113.60165,0.20403
2115.53012,0.20833
2117.45859,0.21102
2119.38706,0.20937
2121.31553,0.20520
2123.24399,0.20348
2125.17246,0.20578
2127.10093,0.20817
2129.02940,0.20788
2130.95787,0.20743
2132.88634,0.20987
2134.81481,0.21161
2136.74327,0.20905
2138.67174,0.20604
2140.60021,0.20666
2142.52868,0.20913
2144.45715,0.20963
2146.38562,0.20846
2148.31409,0.20843
2150.24255,0.20910
2152.17102,0.20852
2154.09949,0.20763
2156.02796,0.20693
2157.95643,0.20566
2159.88490,0.20583
2161.81337,0.20709
2163.74184,0.20639
2165.67030,0.20536
2167.59877,0.20572
2169.52724,0.20635
2171.45571,0.20634
2173.38418,0.20508
2175.31265,0.20384
2177.24112,0.20403
2179.16958,0.20536
2181.09805,0.20755
2183.02652,0.20882
2184.95499,0.20806
2186.88346,0.20624
2188.81193,0.20403
2190.74040,0.20277
2192.66887,0.20322
2194.59733,0.20410
2196.52580,0.20401
2198.45427,0.20459
2200.38274,0.20736
2202.31121,0.20925
2204.23968,0.20881
2206.16815,0.20713
2208.09661,0.20400
2210.02508,0.20015
2211.95355,0.19824
2213.88202,0.19836
2215.81049,0.19822
2217.73896,0.19892
2219.66743,0.20136
2221.59590,0.20413
2223.52436,0.20537
2225.45283,0.20425
2227.38130,0.20321
2229.30977,0.20393
2231.23824,0.20429
2233.16671,0.20277
2235.09518,0.20217
2237.02364,0.20343
2238.95211,0.20398
2240.88058,0.20318
2242.80905,0.20213
2244.73752,0.20233
2246.66599,0.20441
2248.59446,0.20720
2250.52293,0.20880
2252.45139,0.20825
2254.37986,0.20564
2256.30833,0.20292
2258.23680,0.20219
2260.16527,0.20289
2262.09374,0.20415
2264.02221,0.20450
2265.95067,0.20456
2267.87914,0.20562
2269.80761,0.20633
2271.73608,0.20612
2273.66455,0.20381
2275.59302,0.20054
2277.52149,0.20047
2279.44996,0.20317
2281.37842,0.20491
2283.30689,0.20470
2285.23536,0.20391
2287.16383,0.20369
2289.09230,0.20509
2291.02077,0.20749
2292.94924,0.20789
2294.87770,0.20525
2296.80617,0.20210
2298.73464,0.20028
2300.66311,0.19909
2302.59158,0.19813
2304.52005,0.19850
2306.44852,0.20080
2308.37699,0.20483
2310.30545,0.20813
2312.23392,0.20576
2314.16239,0.20133
2316.09086,0.20418
2318.01933,0.21158
2319.94780,0.21298
2321.87627,0.20802
2323.80473,0.20678
2325.73320,0.21079
2327.66167,0.21321
2329.59014,0.21251
2331.51861,0.21020
2333.44708,0.21038
2335.37555,0.21675
2337.30401,0.22201
2339.23248,0.21648
2341.16095,0.20405
2343.08942,0.19349
2345.01789,0.18899
2346.94636,0.19100
2348.87483,0.19512
2350.80330,0.19933
2352.73176,0.20453
2354.66023,0.21050
2356.58870,0.21986
2358.51717,0.23210
2360.44564,0.23486
2362.37411,0.22823
2364.30258,0.22525
2366.23104,0.22761
2368.15951,0.22490
2370.08798,0.21847
2372.01645,0.21393
2373.94492,0.20907
2375.87339,0.20407
2377.80186,0.20224
2379.73033,0.20377
2381.65879,0.20460
2383.58726,0.20418
2385.51573,0.20501
2387.44420,0.20691
2389.37267,0.20798
2391.30114,0.20649
2393.22961,0.20416
2395.15807,0.20364
2397.08654,0.20396
2399.01501,0.20334
2400.94348,0.20176
2402.87195,0.20173
2404.80042,0.20359
2406.72889,0.20413
2408.65736,0.20399
2410.58582,0.20598
2412.51429,0.20836
2414.44276,0.20841
2416.37123,0.20628
2418.29970,0.20338
2420.22817,0.20211
2422.15664,0.20316
2424.08510,0.20546
2426.01357,0.20815
2427.94204,0.20945
2429.87051,0.20813
2431.79898,0.20572
2433.72745,0.20496
2435.65592,0.20605
2437.58439,0.20610
2439.51285,0.20467
2441.44132,0.20438
2443.36979,0.20493
2445.29826,0.20534
2447.22673,0.20367
2449.15520,0.19399
2451.08367,0.18431
2453.01213,0.19001
2454.94060,0.20201
2456.86907,0.20492
2458.79754,0.20308
2460.72601,0.20387
2462.65448,0.20718
2464.58295,0.20867
2466.51142,0.20607
2468.43988,0.20401
2470.36835,0.20582
2472.29682,0.20911
2474.22529,0.20978
2476.15376,0.20867
2478.08223,0.20955
2480.01070,0.21107
2481.93916,0.21135
2483.86763,0.21028
2485.79610,0.20912
2487.72457,0.20982
2489.65304,0.21001
2491.58151,0.20722
2493.50998,0.20342
2495.43844,0.20180
2497.36691,0.20281
2499.29538,0.20485
2501.22385,0.20766
2503.15232,0.20922
2505.08079,0.20779
2507.00926,0.20550
2508.93773,0.20349
2510.86619,0.20245
2512.79466,0.20396
2514.72313,0.20742
2516.65160,0.20953
2518.58007,0.20891
2520.50854,0.20845
2522.43701,0.20923
2524.36547,0.20928
2526.29394,0.20817
2528.22241,0.20687
2530.15088,0.20495
2532.07935,0.20373
2534.00782,0.20625
2535.93629,0.20903
2537.86476,0.20878
2539.79322,0.20811
2541.72169,0.20722
2543.65016,0.20656
2545.57863,0.20794
2547.50710,0.20794
2549.43557,0.20468
2551.36404,0.20303
2553.29250,0.20590
2555.22097,0.21090
2557.14944,0.21462
2559.07791,0.21425
2561.00638,0.21042
2562.93485,0.20837
2564.86332,0.21017
2566.79179,0.21165
2568.72025,0.21041
2570.64872,0.20868
2572.57719,0.20900
2574.50566,0.21003
2576.43413,0.20964
2578.36260,0.21058
2580.29107,0.21348
2582.21953,0.21325
2584.14800,0.20918
2586.07647,0.20667
2588.00494,0.20809
2589.93341,0.21060
2591.86188,0.21146
2593.79035,0.21158
2595.71882,0.21203
2597.64728,0.21214
2599.57575,0.21165
2601.50422,0.21083
2603.43269,0.21066
2605.36116,0.20930
2607.28963,0.20512
2609.21810,0.20212
2611.14656,0.20257
2613.07503,0.20513
2615.00350,0.20917
2616.93197,0.21298
2618.86044,0.21439
2620.78891,0.21515
2622.71738,0.21612
2624.64585,0.21486
2626.57431,0.21326
2628.50278,0.21336
2630.43125,0.21295
2632.35972,0.21173
2634.28819,0.21155
2636.21666,0.21213
2638.14513,0.21179
2640.07359,0.21024
2642.00206,0.20961
2643.93053,0.21120
2645.85900,0.21236
2647.78747,0.21166
2649.71594,0.21127
2651.64441,0.21181
2653.57288,0.21274
2655.50134,0.21426
2657.42981,0.21453
2659.35828,0.21108
2661.28675,0.20640
2663.21522,0.20486
2665.14369,0.20666
2667.07216,0.20996
2669.00062,0.21388
2670.92909,0.21804
2672.85756,0.21931
2674.78603,0.21633
2676.71450,0.21350
2678.64297,0.21216
2680.57144,0.21202
2682.49990,0.21369
2684.42837,0.21344
2686.35684,0.21203
2688.28531,0.21562
2690.21378,0.22039
2692.14225,0.21892
2694.07072,0.21472
2695.99919,0.21209
2697.92765,0.21089
2699.85612,0.21224
2701.78459,0.21513
2703.71306,0.21708
2705.64153,0.21832
2707.57000,0.21936
2709.49847,0.21784
2711.42693,0.21437
2713.35540,0.21443
2715.28387,0.21724
2717.21234,0.21761
2719.14081,0.21574
2721.06928,0.21437
2722.99775,0.21455
2724.92622,0.21543
2726.85468,0.21608
2728.78315,0.21646
2730.71162,0.21644
2732.64009,0.21564
2734.56856,0.21460
2736.49703,0.21643
2738.42550,0.22114
2740.35396,0.22410
2742.28243,0.22414
2744.21090,0.22231
2746.13937,0.21989
2748.06784,0.21997
2749.99631,0.22259
2751.92478,0.22408
2753.85325,0.22246
2755.78171,0.21901
2757.71018,0.21493
2759.63865,0.21151
2761.56712,0.21248
2763.49559,0.21765
2765.42406,0.21957
2767.35253,0.21500
2769.28099,0.21157
2771.20946,0.21548
2773.13793,0.22209
2775.06640,0.22442
2776.99487,0.22346
2778.92334,0.22411
2780.85181,0.22556
2782.78028,0.22408
2784.70874,0.22169
2786.63721,0.22144
2788.56568,0.22111
2790.49415,0.22059
2792.42262,0.22135
2794.35109,0.22154
2796.27956,0.22109
2798.20802,0.21964
2800.13649,0.21863
2802.06496,0.22302
2803.99343,0.22930
2805.92190,0.23057
2807.85037,0.22845
2809.77884,0.22772
2811.70731,0.22807
2813.63577,0.22564
2815.56424,0.22185
2817.49271,0.22206
2819.42118,0.22486
2821.34965,0.22534
2823.27812,0.22543
2825.20659,0.22733
2827.13505,0.22778
2829.06352,0.22561
2830.99199,0.22223
2832.92046,0.21917
2834.84893,0.21868
2836.77740,0.22132
2838.70587,0.22499
2840.63433,0.22737
2842.56280,0.22762
2844.49127,0.22565
2846.41974,0.22272
2848.34821,0.22099
2850.27668,0.22198
2852.20515,0.22476
2854.13362,0.22674
2856.06208,0.22795
2857.99055,0.22726
2859.91902,0.22382
2861.84749,0.22333
2863.77596,0.22673
2865.70443,0.22703
2867.63290,0.22317
2869.56136,0.22043
2871.48983,0.22019
2873.41830,0.22010
2875.34677,0.22057
2877.27524,0.22348
2879.20371,0.22779
2881.13218,0.22965
2883.06065,0.22704
2884.98911,0.22247
2886.91758,0.21974
2888.84605,0.22058
2890.77452,0.22294
2892.70299,0.22486
2894.63146,0.22609
2896.55993,0.22503
2898.48839,0.22234
2900.41686,0.22088
2902.34533,0.22090
2904.27380,0.22060
2906.20227,0.21977
2908.13074,0.22024
2910.05921,0.22174
2911.98768,0.22359
2913.91614,0.22398
2915.84461,0.22099
2917.77308,0.21912
2919.70155,0.22118
2921.63002,0.23000
2923.55849,0.24068
2925.48696,0.24092
2927.41542,0.23958
2929.34389,0.24029
2931.27236,0.23423
2933.20083,0.22749
2935.12930,0.22179
2937.05777,0.21713
2938.98624,0.21802
2940.91471,0.21984
2942.84317,0.21913
2944.77164,0.21714
2946.70011,0.21397
2948.62858,0.21368
2950.55705,0.21855
2952.48552,0.22239
2954.41399,0.22119
2956.34245,0.21563
2958.27092,0.21189
2960.19939,0.21604
2962.12786,0.22176
2964.05633,0.22127
2965.98480,0.21626
2967.91327,0.21570
2969.84174,0.22289
2971.77020,0.22925
2973.69867,0.22923
2975.62714,0.22378
2977.55561,0.21740
2979.48408,0.21703
2981.41255,0.22320
2983.34102,0.23049
2985.26948,0.23478
2987.19795,0.23540
2989.12642,0.23503
2991.05489,0.23500
2992.98336,0.23262
2994.91183,0.22703
2996.84030,0.22223
2998.76877,0.22131
3000.69723,0.22463
3002.62570,0.23165
3004.55417,0.23465
3006.48264,0.22851
3008.41111,0.22255
3010.33958,0.22004
3012.26805,0.21064
3014.19651,0.18847
3016.12498,0.16855
3018.05345,0.17671
3019.98192,0.20602
3021.91039,0.22605
3023.83886,0.23063
3025.76733,0.22911
3027.69579,0.22688
3029.62426,0.22718
3031.55273,0.23032
3033.48120,0.23402
3035.40967,0.23511
3037.33814,0.23364
3039.26661,0.23298
3041.19508,0.23257
3043.12354,0.23060
3045.05201,0.22721
3046.98048,0.22331
3048.90895,0.22333
3050.83742,0.22833
3052.76589,0.23329
3054.69436,0.23248
3056.62282,0.22507
3058.55129,0.22106
3060.47976,0.22530
3062.40823,0.22978
3064.33670,0.22641
3066.26517,0.21752
3068.19364,0.21603
3070.12211,0.22212
3072.05057,0.22332
3073.97904,0.21888
3075.90751,0.21849
3077.83598,0.22628
3079.76445,0.23527
3081.69292,0.23697
3083.62139,0.22878
3085.54985,0.22147
3087.47832,0.22690
3089.40679,0.23582
3091.33526,0.23618
3093.26373,0.22748
3095.19220,0.21699
3097.12067,0.21512
3099.04914,0.22147
3100.97760,0.22556
3102.90607,0.22230
3104.83454,0.22151
3106.76301,0.22810
3108.69148,0.23057
3110.61995,0.22322
3112.54842,0.21657
3114.47688,0.22276
3116.40535,0.23375
3118.33382,0.23366
3120.26229,0.22440
3122.19076,0.21789
3124.11923,0.21937
3126.04770,0.22425
3127.97617,0.22973
3129.90463,0.23427
3131.83310,0.23623
3133.76157,0.23783
3135.69004,0.23610
3137.61851,0.23047
3139.54698,0.22830
3141.47545,0.22930
3143.40391,0.22968
3145.33238,0.23305
3147.26085,0.23864
3149.18932,0.24242
3151.11779,0.24441
3153.04626,0.24106
3154.97473,0.23521
3156.90320,0.23223
3158.83166,0.22939
3160.76013,0.22843
3162.68860,0.22970
3164.61707,0.22948
3166.54554,0.22894
3168.47401,0.22975
3170.40248,0.23303
3172.33094,0.23757
3174.25941,0.23903
3176.18788,0.23996
3178.11635,0.24574
3180.04482,0.24866
3181.97329,0.24116
3183.90176,0.23390
3185.83022,0.23455
3187.75869,0.23561
3189.68716,0.23399
3191.61563,0.23406
3193.54410,0.23693
3195.47257,0.24033
3197.40104,0.24208
3199.32951,0.24120
3201.25797,0.23797
3203.18644,0.23350
3205.11491,0.23060
3207.04338,0.23368
3208.97185,0.23953
3210.90032,0.23985
3212.82879,0.23442
3214.75725,0.22830
3216.68572,0.22641
3218.61419,0.22789
3220.54266,0.22798
3222.47113,0.22831
3224.39960,0.23085
3226.32807,0.23301
3228.25654,0.23398
3230.18500,0.23347
3232.11347,0.23146
3234.04194,0.22992
3235.97041,0.23041
3237.89888,0.23266
3239.82735,0.23512
3241.75582,0.23795
3243.68428,0.23888
3245.61275,0.23504
3247.54122,0.23187
3249.46969,0.23192
3251.39816,0.23072
3253.32663,0.22776
3255.25510,0.22542
3257.18357,0.22595
3259.11203,0.22982
3261.04050,0.23288
3262.96897,0.23372
3264.89744,0.23442
3266.82591,0.23520
3268.75438,0.23607
3270.68285,0.23493
3272.61131,0.23185
3274.53978,0.23135
3276.46825,0.23384
3278.39672,0.23668
3280.32519,0.23643
3282.25366,0.23257
3284.18213,0.23144
3286.11060,0.23435
3288.03906,0.23662
3289.96753,0.23789
3291.89600,0.23904
3293.82447,0.23746
3295.75294,0.23390
3297.68141,0.23443
3299.60988,0.23706
3301.53834,0.23673
3303.46681,0.23494
3305.39528,0.23234
3307.32375,0.23140
3309.25222,0.23354
3311.18069,0.23520
3313.10916,0.23548
3315.03763,0.23483
3316.96609,0.23301
3318.89456,0.23131
3320.82303,0.22958
3322.75150,0.22732
3324.67997,0.22490
3326.60844,0.22172
3328.53691,0.22030
3330.46537,0.22332
3332.39384,0.22999
3334.32231,0.23688
3336.25078,0.23889
3338.17925,0.23518
3340.10772,0.23079
3342.03619,0.23063
3343.96466,0.23275
3345.89312,0.23469
3347.82159,0.23731
3349.75006,0.23872
3351.67853,0.23704
3353.60700,0.23383
3355.53547,0.23372
3357.46394,0.23927
3359.39240,0.24402
3361.32087,0.24218
3363.24934,0.23789
3365.17781,0.23591
3367.10628,0.23538
3369.03475,0.23422
3370.96322,0.23340
3372.89168,0.23381
3374.82015,0.23264
3376.74862,0.23247
3378.67709,0.23625
3380.60556,0.23925
3382.53403,0.24049
3384.46250,0.24177
3386.39097,0.24194
3388.31943,0.24004
3390.24790,0.23628
3392.17637,0.23292
3394.10484,0.23168
3396.03331,0.22982
3397.96178,0.22702
3399.89025,0.22997
3401.81871,0.23676
3403.74718,0.23677
3405.67565,0.23220
3407.60412,0.22996
3409.53259,0.22658
3411.46106,0.22372
3413.38953,0.22847
3415.31800,0.23565
3417.24646,0.23908
3419.17493,0.23991
3421.10340,0.23580
3423.03187,0.22876
3424.96034,0.22269
3426.88881,0.21608
3428.81728,0.21215
3430.74574,0.21371
3432.67421,0.21772
3434.60268,0.22223
3436.53115,0.22764
3438.45962,0.23417
3440.38809,0.23883
3442.31656,0.23626
3444.24503,0.22958
3446.17349,0.22753
3448.10196,0.22789
3450.03043,0.22460
3451.95890,0.22082
3453.88737,0.21867
3455.81584,0.21452
3457.74431,0.20949
3459.67277,0.20835
3461.60124,0.21045
3463.52971,0.21132
3465.45818,0.20906
3467.38665,0.20800
3469.31512,0.21165
3471.24359,0.21894
3473.17206,0.22592
3475.10052,0.22707
3477.02899,0.22372
3478.95746,0.22070
3480.88593,0.21677
3482.81440,0.20999
3484.74287,0.20555
3486.67134,0.20788
3488.59980,0.21263
3490.52827,0.21457
3492.45674,0.21233
3494.38521,0.20590
3496.31368,0.19880
3498.24215,0.19575
3500.17062,0.19627
3502.09909,0.19683
3504.02755,0.19692
3505.95602,0.19747
3507.88449,0.19771
3509.81296,0.19611
3511.74143,0.19368
3513.66990,0.19353
3515.59837,0.19495
3517.52683,0.19521
3519.45530,0.19333
3521.38377,0.19501
3523.31224,0.20463
3525.24071,0.20897
3527.16918,0.19934
3529.09765,0.18908
3531.02611,0.18657
3532.95458,0.18552
3534.88305,0.18505
3536.81152,0.18940
3538.73999,0.19530
3540.66846,0.19714
3542.59693,0.19508
3544.52540,0.19284
3546.45386,0.19231
3548.38233,0.19240
3550.31080,0.19495
3552.23927,0.19835
3554.16774,0.19568
3556.09621,0.18938
3558.02468,0.18778
3559.95314,0.18898
3561.88161,0.18512
3563.81008,0.17987
3565.73855,0.17992
3567.66702,0.17861
3569.59549,0.17309
3571.52396,0.17126
3573.45243,0.17393
3575.38089,0.17892
3577.30936,0.18472
3579.23783,0.18858
3581.16630,0.18591
3583.09477,0.17870
3585.02324,0.17650
3586.95171,0.18038
3588.88017,0.18004
3590.80864,0.17730
3592.73711,0.17742
3594.66558,0.17690
3596.59405,0.17308
3598.52252,0.16669
3600.45099,0.15757
3602.37946,0.15203
3604.30792,0.15694
3606.23639,0.16714
3608.16486,0.16980
3610.09333,0.16359
3612.02180,0.16152
3613.95027,0.16410
3615.87874,0.16761
3617.80720,0.17256
3619.73567,0.17165
3621.66414,0.16393
3623.59261,0.16116
3625.52108,0.16618
3627.44955,0.17648
3629.37802,0.17905
3631.30649,0.16606
3633.23495,0.15713
3635.16342,0.15601
3637.09189,0.15467
3639.02036,0.15076
3640.94883,0.14942
3642.87730,0.15404
3644.80577,0.16258
3646.73423,0.17530
3648.66270,0.18898
3650.59117,0.17929
3652.51964,0.16112
3654.44811,0.15512
3656.37658,0.15550
3658.30505,0.15253
3660.23352,0.14647
3662.16198,0.14423
3664.09045,0.14734
3666.01892,0.15217
3667.94739,0.15969
3669.87586,0.16417
3671.80433,0.15861
3673.73280,0.15831
3675.66126,0.16182
3677.58973,0.15405
3679.51820,0.14394
3681.44667,0.13968
3683.37514,0.14170
3685.30361,0.14805
3687.23208,0.15575
3689.16055,0.15595
3691.08901,0.14560
3693.01748,0.13984
3694.94595,0.14174
3696.87442,0.14606
3698.80289,0.14884
3700.73136,0.14867
3702.65983,0.14595
3704.58829,0.14666
3706.51676,0.15318
3708.44523,0.15967
3710.37370,0.15829
3712.30217,0.14656
3714.23064,0.13802
3716.15911,0.13990
3718.08757,0.14758
3720.01604,0.15450
3721.94451,0.15514
3723.87298,0.14786
3725.80145,0.13988
3727.72992,0.14083
3729.65839,0.14858
3731.58686,0.15594
3733.51532,0.15915
3735.44379,0.15863
3737.37226,0.15755
3739.30073,0.15646
3741.22920,0.15471
3743.15767,0.15169
3745.08614,0.14865
3747.01460,0.15105
3748.94307,0.15843
3750.87154,0.16202
3752.80001,0.15104
3754.72848,0.14104
3756.65695,0.14322
3758.58542,0.15365
3760.51389,0.15589
3762.44235,0.14792
3764.37082,0.14148
3766.29929,0.14002
3768.22776,0.14186
3770.15623,0.14191
3772.08470,0.13579
3774.01317,0.12962
3775.94163,0.13100
3777.87010,0.13959
3779.79857,0.14357
3781.72704,0.13905
3783.65551,0.13708
3785.58398,0.13891
3787.51245,0.13966
3789.44092,0.13992
3791.36938,0.14076
3793.29785,0.14270
3795.22632,0.14641
3797.15479,0.14609
3799.08326,0.14239
3801.01173,0.14466
3802.94020,0.14659
3804.86866,0.14319
3806.79713,0.14159
3808.72560,0.14215
3810.65407,0.14190
3812.58254,0.14257
3814.51101,0.14743
3816.43948,0.15246
3818.36795,0.15197
3820.29641,0.15207
3822.22488,0.15156
3824.15335,0.14810
3826.08182,0.14586
3828.01029,0.14370
3829.93876,0.14182
3831.86723,0.14215
3833.79569,0.14177
3835.72416,0.14280
3837.65263,0.15028
3839.58110,0.15307
3841.50957,0.14432
3843.43804,0.13394
3845.36651,0.13096
3847.29498,0.13525
3849.22344,0.14244
3851.15191,0.15504
3853.08038,0.16781
3855.00885,0.15542
3856.93732,0.13986
3858.86579,0.13308
3860.79426,0.13504
3862.72272,0.14584
3864.65119,0.15132
3866.57966,0.14443
3868.50813,0.13620
3870.43660,0.12970
3872.36507,0.12270
3874.29354,0.11739
3876.22200,0.12180
3878.15047,0.13295
3880.07894,0.13849
3882.00741,0.13770
3883.93588,0.14200
3885.86435,0.14308
3887.79282,0.13430
3889.72129,0.12907
3891.64975,0.13022
3893.57822,0.13116
3895.50669,0.13177
3897.43516,0.13292
3899.36363,0.13489
3901.29210,0.14064
3903.22057,0.14389
3905.14903,0.13483
3907.07750,0.12361
3909.00597,0.12018
3910.93444,0.12096
3912.86291,0.12351
3914.79138,0.12803
3916.71985,0.13167
3918.64832,0.13258
3920.57678,0.13061
3922.50525,0.12773
3924.43372,0.12768
3926.36219,0.12919
3928.29066,0.12615
3930.21913,0.11848
3932.14760,0.11437
3934.07606,0.11799
3936.00453,0.12440
3937.93300,0.12966
3939.86147,0.13333
3941.78994,0.13271
3943.71841,0.12499
3945.64688,0.11759
3947.57535,0.11612
3949.50381,0.11595
3951.43228,0.11304
3953.36075,0.11219
3955.28922,0.11491
3957.21769,0.11551
3959.14616,0.11287
3961.07463,0.10971
3963.00309,0.10595
3964.93156,0.10320
3966.86003,0.10686
3968.78850,0.11549
3970.71697,0.11989
3972.64544,0.11956
3974.57391,0.12065
3976.50238,0.12142
3978.43084,0.11882
3980.35931,0.11655
3982.28778,0.11775
3984.21625,0.11878
3986.14472,0.11747
3988.07319,0.11874
3990.00166,0.12101
3991.93012,0.11717
3993.85859,0.11079
3995.78706,0.10774
3997.71553,0.10795
3999.64400,0.11096
4001.57247,0.11322
4003.50094,0.11309
4005.42941,0.11543
4007.35787,0.12021
4009.28634,0.12246
4011.21481,0.12115
4013.14328,0.11872
4015.07175,0.11712
4017.00022,0.11527
4018.92869,0.11127
4020.85715,0.10812
4022.78562,0.10884
4024.71409,0.11082
4026.64256,0.11147
4028.57103,0.11123
4030.49950,0.11099
4032.42797,0.10922
4034.35644,0.10496
4036.28490,0.10165
4038.21337,0.10281
4040.14184,0.10549
4042.07031,0.10546
4043.99878,0.10650
4045.92725,0.11073
4047.85572,0.11375
4049.78418,0.11331
4051.71265,0.11103
4053.64112,0.11060
4055.56959,0.11377
4057.49806,0.11739
4059.42653,0.11632
4061.35500,0.11070
4063.28346,0.10576
4065.21193,0.10337
4067.14040,0.10311
4069.06887,0.10777
4070.99734,0.11444
4072.92581,0.11427
4074.85428,0.10870
4076.78275,0.10473
4078.71121,0.10423
4080.63968,0.10522
4082.56815,0.10416
4084.49662,0.09914
4086.42509,0.09268
4088.35356,0.09099
4090.28203,0.09439
4092.21049,0.09844
4094.13896,0.10129
4096.06743,0.10238
4097.99590,0.10272
4099.92437,0.10258
4101.85284,0.10028
4103.78131,0.09791
4105.70978,0.09883
4107.63824,0.10125
4109.56671,0.10529
4111.49518,0.11034
4113.42365,0.10963
4115.35212,0.10310
4117.28059,0.09822
4119.20906,0.09711
4121.13752,0.09656
4123.06599,0.09695
4124.99446,0.10018
4126.92293,0.10356
4128.85140,0.10436
4130.77987,0.10300
4132.70834,0.09810
4134.63681,0.09194
4136.56527,0.09225
4138.49374,0.09426
4140.42221,0.09327
4142.35068,0.09749
4144.27915,0.10192
4146.20762,0.09692
4148.13609,0.09179
4150.06455,0.09272
4151.99302,0.09041
4153.92149,0.08266
4155.84996,0.07887
4157.77843,0.08221
4159.70690,0.08833
4161.63537,0.09549
4163.56384,0.10268
4165.49230,0.10332
4167.42077,0.09518
4169.34924,0.08753
4171.27771,0.08489
4173.20618,0.08294
4175.13465,0.08348
4177.06312,0.08819
4178.99158,0.09019
4180.92005,0.08776
4182.84852,0.08530
4184.77699,0.08442
4186.70546,0.08488
4188.63393,0.08335
4190.56240,0.07638
4192.49087,0.07084
4194.41933,0.07740
4196.34780,0.09032
4198.27627,0.09509
4200.20474,0.09173
4202.13321,0.08896
4204.06168,0.08770
4205.99015,0.08430
4207.91861,0.07887
4209.84708,0.07708
4211.77555,0.08140
4213.70402,0.08662
4215.63249,0.09007
4217.56096,0.09107
4219.48943,0.08685
4221.41789,0.07999
4223.34636,0.07718
4225.27483,0.08132
4227.20330,0.08652
4229.13177,0.08429
4231.06024,0.08131
4232.98871,0.08485
4234.91718,0.08359
4236.84564,0.07285
4238.77411,0.06598
4240.70258,0.07348
4242.63105,0.08376
4244.55952,0.08122
4246.48799,0.07521
4248.41646,0.07471
4250.34492,0.07544
4252.27339,0.08035
4254.20186,0.08711
4256.13033,0.08558
4258.05880,0.07992
4259.98727,0.07894
4261.91574,0.08004
4263.84421,0.07750
4265.77267,0.07146
4267.70114,0.06885
4269.62961,0.07135
4271.55808,0.06948
4273.48655,0.06298
4275.41502,0.06444
4277.34349,0.07128
4279.27195,0.07212
4281.20042,0.07109
4283.12889,0.07010
4285.05736,0.06745
4286.98583,0.06644
4288.91430,0.06600
4290.84277,0.06702
4292.77124,0.06856
4294.69970,0.06779
4296.62817,0.07060
4298.55664,0.07675
4300.48511,0.07479
4302.41358,0.06612
4304.34205,0.06154
4306.27052,0.05968
4308.19898,0.05670
4310.12745,0.05679
4312.05592,0.06090
4313.98439,0.06371
4315.91286,0.06349
4317.84133,0.06083
4319.76980,0.05761
4321.69827,0.05789
4323.62673,0.05976
4325.55520,0.06221
4327.48367,0.06567
4329.41214,0.06417
4331.34061,0.05775
4333.26908,0.05453
4335.19755,0.05648
4337.12601,0.06032
4339.05448,0.06444
4340.98295,0.06747
4342.91142,0.06647
4344.83989,0.05911
4346.76836,0.04865
4348.69683,0.04314
4350.62530,0.04591
4352.55376,0.04935
4354.48223,0.04816
4356.41070,0.04775
4358.33917,0.04721
4360.26764,0.04184
4362.19611,0.03921
4364.12458,0.04349
4366.05304,0.04574
4367.98151,0.04477
4369.90998,0.04716
4371.83845,0.05316
4373.76692,0.05946
4375.69539,0.05962
4377.62386,0.04909
4379.55232,0.03711
4381.48079,0.03686
4383.40926,0.04696
4385.33773,0.05349
4387.26620,0.04978
4389.19467,0.04255
4391.12314,0.03760
4393.05161,0.03668
4394.98007,0.03913
4396.90854,0.03960
4398.83701,0.03814
4400.76548,0.03784
4402.69395,0.03761
4404.62242,0.03900
4406.55089,0.04331
4408.47935,0.04606
4410.40782,0.04406
4412.33629,0.04067
4414.26476,0.04042
4416.19323,0.04313
4418.12170,0.04383
4420.05017,0.03822
4421.97864,0.03428
4423.90710,0.04332
4425.83557,0.05304
4427.76404,0.04808
4429.69251,0.03930
4431.62098,0.03951
4433.54945,0.04372
4435.47792,0.03998
4437.40638,0.03011
4439.33485,0.02936
4441.26332,0.03859
4443.19179,0.04273
4445.12026,0.03775
4447.04873,0.03438
4448.97720,0.03653
4450.90567,0.03925
4452.83413,0.04177
4454.76260,0.04625
4456.69107,0.04868
4458.61954,0.04267
4460.54801,0.03483
4462.47648,0.03538
4464.40495,0.04020
4466.33341,0.03883
4468.26188,0.02874
4470.19035,0.02030
4472.11882,0.01963
4474.04729,0.02180
4475.97576,0.02652
4477.90423,0.03130
4479.83270,0.03267
4481.76116,0.03288
4483.68963,0.02759
4485.61810,0.01832
4487.54657,0.01949
4489.47504,0.03141
4491.40351,0.04285
4493.33198,0.04694
4495.26044,0.03934
4497.18891,0.02708
4499.11738,0.02223
4501.04585,0.02364
4502.97432,0.02818
4504.90279,0.03740
4506.83126,0.04639
4508.75973,0.04638
4510.68819,0.03816
4512.61666,0.03103
4514.54513,0.03135
4516.47360,0.03346
4518.40207,0.02945
4520.33054,0.02028
4522.25901,0.00926
4524.18747,0.00561
4526.11594,0.01467
4528.04441,0.02493
4529.97288,0.02668
4531.90135,0.02259
4533.82982,0.01966
4535.75829,0.02349
4537.68676,0.03352
4539.61522,0.04242
4541.54369,0.04393
4543.47216,0.03916
4545.40063,0.03394
4547.32910,0.02979
4549.25757,0.02337
4551.18604,0.01438
4553.11450,0.00870
4555.04297,0.00697
4556.97144,0.00323
4558.89991,0.00010
4560.82838,-0.00132
4562.75685,0.00267
4564.68532,0.01788
4566.61378,0.02905
4568.54225,0.02830
4570.47072,0.02561
4572.39919,0.02277
4574.32766,0.01933
4576.25613,0.01510
4578.18460,0.01090
4580.11307,0.01332
4582.04153,0.01922
4583.97000,0.02395
4585.89847,0.02676
4587.82694,0.01711
4589.75541,-0.00007
4591.68388,-0.00663
4593.61235,-0.00238
4595.54081,0.00368
4597.46928,0.00773
4599.39775,0.01164
4601.32622,0.01553
4603.25469,0.01437
4605.18316,0.00936
4607.11163,0.00609
4609.04010,0.00688
4610.96856,0.01406
4612.89703,0.01965
4614.82550,0.01723
4616.75397,0.01674
4618.68244,0.02149
4620.61091,0.02484
4622.53938,0.02378
4624.46784,0.02226
4626.39631,0.02283
4628.32478,0.02368
4630.25325,0.02600
4632.18172,0.02419
4634.11019,0.01475
4636.03866,0.01089
4637.96713,0.01932
4639.89559,0.02694
4641.82406,0.02584
4643.75253,0.02556
4645.68100,0.02829
4647.60947,0.02927
4649.53794,0.02727
4651.46641,0.02345
4653.39487,0.02559
4655.32334,0.02600
4657.25181,0.01425
4659.18028,0.00568
4661.10875,-0.00278
4663.03722,-0.02060
4664.96569,-0.02741
4666.89416,-0.02239
4668.82262,-0.01414
4670.75109,0.00184
4672.67956,0.01060
4674.60803,0.00823
4676.53650,0.01169
4678.46497,0.01861
4680.39344,0.01922
4682.32190,0.01472
4684.25037,0.00947
4686.17884,0.00676
4688.10731,0.00420
4690.03578,0.00100
4691.96425,0.00218
4693.89272,0.00800
4695.82119,0.01264
4697.74965,0.01109
4699.67812,0.00456
4701.60659,-0.00097
4703.53506,-0.00148
4705.46353,-0.00357
4707.39200,-0.00905
4709.32047,-0.00437
4711.24893,0.00722
4713.17740,0.01169
4715.10587,0.01190
4717.03434,0.01098
4718.96281,0.00757
4720.89128,0.00415
4722.81975,0.00190
4724.74821,-0.00261
4726.67668,-0.00652
4728.60515,0.00479
4730.53362,0.02402
4732.46209,0.02305
4734.39056,0.00708
4736.31903,0.00188
4738.24750,0.00946
4740.17596,0.01817
4742.10443,0.02016
4744.03290,0.01965
4745.96137,0.02209
4747.88984,0.02131
4749.81831,0.02013
4751.74678,0.02793
4753.67524,0.03322
4755.60371,0.02552
4757.53218,0.01275
4759.46065,0.00331
4761.38912,0.00257
4763.31759,0.00580
4765.24606,0.00466
4767.17453,0.00012
4769.10299,-0.00091
4771.03146,0.00992
4772.95993,0.02341
4774.88840,0.02337
4776.81687,0.01175
4778.74534,0.00052
4780.67381,0.00073
4782.60227,0.00821
4784.53074,0.00778
4786.45921,0.00026
4788.38768,-0.00214
4790.31615,-0.00143
4792.24462,-0.00402
4794.17309,-0.00725
4796.10156,-0.01081
4798.03002,-0.01010
4799.95849,0.00186
4801.88696,0.01463
4803.81543,0.01554
4805.74390,0.00604
4807.67237,-0.00745
4809.60084,-0.01415
4811.52930,-0.01093
4813.45777,-0.00732
4815.38624,-0.00354
4817.31471,0.00222
4819.24318,0.00628
4821.17165,0.00773
4823.10012,0.00349
4825.02859,-0.00045
4826.95705,-0.00028
4828.88552,-0.00327
4830.81399,-0.00413
4832.74246,-0.00184
4834.67093,-0.00164
4836.59940,0.00102
4838.52787,0.00368
4840.45633,-0.00086
4842.38480,-0.00657
4844.31327,-0.00424
4846.24174,0.00348
4848.17021,0.01020
4850.09868,0.01153
4852.02715,0.00995
4853.95562,0.01074
4855.88408,0.01017
4857.81255,0.00388
4859.74102,-0.00332
4861.66949,0.00034
4863.59796,0.01159
4865.52643,0.01205
4867.45490,0.00363
4869.38336,0.00353
4871.31183,0.00917
4873.24030,0.00517
4875.16877,-0.00332
4877.09724,-0.00005
4879.02571,0.00952
4880.95418,0.01456
4882.88265,0.01860
4884.81111,0.02068
4886.73958,0.01436
4888.66805,0.00096
4890.59652,-0.00669
4892.52499,-0.00266
4894.45346,0.00075
4896.38193,0.00276
4898.31039,0.01213
4900.23886,0.02033
4902.16733,0.02119
4904.09580,0.02094
4906.02427,0.01708
4907.95274,0.01042
4909.88121,0.00919
4911.80967,0.00979
4913.73814,0.01297
4915.66661,0.02027
4917.59508,0.02308
4919.52355,0.02291
4921.45202,0.02029
4923.38049,0.01374
4925.30896,0.01413
4927.23742,0.02023
4929.16589,0.01851
4931.09436,0.01237
4933.02283,0.00685
4934.95130,-0.00844
4936.87977,-0.02235
4938.80824,-0.01690
4940.73670,-0.00638
4942.66517,0.00057
4944.59364,0.00970
4946.52211,0.01348
4948.45058,0.00531
4950.37905,-0.00959
4952.30752,-0.01599
4954.23599,-0.00741
4956.16445,0.00331
4958.09292,0.01156
4960.02139,0.01703
4961.94986,0.01674
4963.87833,0.01949
4965.80680,0.02395
4967.73527,0.02107
4969.66373,0.01412
4971.59220,0.00584
4973.52067,0.00138
4975.44914,0.00379
4977.37761,0.00942
4979.30608,0.01970
4981.23455,0.02740
4983.16302,0.02536
4985.09148,0.02042
4987.01995,0.01847
4988.94842,0.02061
4990.87689,0.01664
4992.80536,0.00602
4994.73383,0.00741
4996.66230,0.01847
4998.59076,0.02427
5000.51923,0.01975
5002.44770,0.00504
5004.37617,0.00083
5006.30464,0.01842
5008.23311,0.02780
5010.16158,0.01834
5012.09005,0.01426
5014.01851,0.01958
5015.94698,0.02232
5017.87545,0.01535
5019.80392,0.00313
5021.73239,0.00436
5023.66086,0.02066
5025.58933,0.02968
5027.51779,0.02501
5029.44626,0.02101
5031.37473,0.01581
5033.30320,0.00666
5035.23167,0.00782
5037.16014,0.02081
5039.08861,0.03984
5041.01708,0.05833
5042.94554,0.06409
5044.87401,0.05394
5046.80248,0.03587
5048.73095,0.02724
5050.65942,0.03337
5052.58789,0.03438
5054.51636,0.02281
5056.44482,0.01425
5058.37329,0.01150
5060.30176,0.01237
5062.23023,0.02667
5064.15870,0.04979
5066.08717,0.05795
5068.01564,0.03933
5069.94410,0.02088
5071.87257,0.03123
5073.80104,0.05353
5075.72951,0.06217
5077.65798,0.05896
5079.58645,0.04965
5081.51492,0.03859
5083.44339,0.03798
5085.37185,0.04065
5087.30032,0.02645
5089.22879,0.00038
5091.15726,-0.02089
5093.08573,-0.02588
5095.01420,-0.00974
5096.94267,0.01231
5098.87113,0.01779
5100.79960,0.01258
5102.72807,0.01528
5104.65654,0.01694
5106.58501,0.00510
5108.51348,-0.00269
5110.44195,0.01147
5112.37042,0.02896
5114.29888,0.02517
5116.22735,0.01529
5118.15582,0.02297
5120.08429,0.03972
5122.01276,0.04323
5123.94123,0.03350
5125.86970,0.02879
5127.79816,0.02811
5129.72663,0.02108
5131.65510,0.01498
5133.58357,0.02079
5135.51204,0.03855
5137.44051,0.04248
5139.36898,0.02198
5141.29745,0.01556
5143.22591,0.03432
5145.15438,0.03972
5147.08285,0.02672
5149.01132,0.02677
5150.93979,0.02761
5152.86826,0.01687
5154.79673,0.02688
5156.72519,0.04893
5158.65366,0.04509
5160.58213,0.02666
5162.51060,0.02208
5164.43907,0.03082
5166.36754,0.03799
5168.29601,0.04415
5170.22448,0.04663
5172.15294,0.03491
5174.08141,0.01607
5176.00988,0.00937
5177.93835,0.01806
5179.86682,0.03000
5181.79529,0.04264
5183.72376,0.05629
5185.65222,0.06863
5187.58069,0.07880
5189.50916,0.07359
5191.43763,0.04823
5193.36610,0.03136
5195.29457,0.03595
5197.22304,0.03221
5199.15151,0.01144
5201.07997,0.00181
5203.00844,0.00646
5204.93691,0.01477
5206.86538,0.02358
5208.79385,0.02619
5210.72232,0.02740
5212.65079,0.02499
5214.57925,0.01627
5216.50772,0.02109
5218.43619,0.04092
5220.36466,0.04346
5222.29313,0.02460
5224.22160,0.01686
5226.15007,0.03061
5228.07854,0.03742
5230.00700,0.02311
5231.93547,0.01961
5233.86394,0.04301
5235.79241,0.05494
5237.72088,0.04699
5239.64935,0.04823
5241.57782,0.06468
5243.50628,0.08176
5245.43475,0.08128
5247.36322,0.06691
5249.29169,0.06253
5251.22016,0.07394
5253.14863,0.08605
5255.07710,0.08457
5257.00556,0.06884
5258.93403,0.05641
5260.86250,0.05016
5262.79097,0.04110
5264.71944,0.04808
5266.64791,0.07747
5268.57638,0.09844
5270.50485,0.09472
5272.43331,0.07754
5274.36178,0.06358
5276.29025,0.05198
5278.21872,0.02887
5280.14719,0.00719
5282.07566,0.01484
5284.00413,0.03181
5285.93259,0.03273
5287.86106,0.03171
5289.78953,0.03744
5291.71800,0.04827
5293.64647,0.05572
5295.57494,0.05188
5297.50341,0.04639
5299.43188,0.04915
5301.36034,0.05588
5303.28881,0.05255
5305.21728,0.03993
5307.14575,0.03985
5309.07422,0.05335
5311.00269,0.05925
5312.93116,0.05126
5314.85962,0.03306
5316.78809,0.02443
5318.71656,0.04278
5320.64503,0.06560
5322.57350,0.06626
5324.50197,0.05438
5326.43044,0.05544
5328.35891,0.06748
5330.28737,0.06484
5332.21584,0.03969
5334.14431,0.01983
5336.07278,0.03592
5338.00125,0.07032
5339.92972,0.08223
5341.85819,0.07875
5343.78665,0.07852
5345.71512,0.06798
5347.64359,0.04924
5349.57206,0.04208
5351.50053,0.04311
5353.42900,0.04700
5355.35747,0.06518
5357.28594,0.08631
5359.21440,0.09405
5361.14287,0.10163
5363.07134,0.11240
5364.99981,0.10814
5366.92828,0.09115
5368.85675,0.07240
5370.78522,0.05289
5372.71368,0.04024
5374.64215,0.04150
5376.57062,0.04311
5378.49909,0.04218
5380.42756,0.05383
5382.35603,0.07468
5384.28450,0.09206
5386.21297,0.09859
5388.14143,0.09291
5390.06990,0.07396
5391.99837,0.05207
5393.92684,0.04328
5395.85531,0.04702
5397.78378,0.06015
5399.71225,0.08340
5401.64071,0.11018
5403.56918,0.12048
5405.49765,0.10016
5407.42612,0.07307
5409.35459,0.06901
5411.28306,0.08145
5413.21153,0.07955
5415.13999,0.06218
5417.06846,0.05784
5418.99693,0.05968
5420.92540,0.05645
5422.85387,0.06283
5424.78234,0.06775
5426.71081,0.06139
5428.63928,0.07009
5430.56774,0.09413
5432.49621,0.11233
5434.42468,0.11276
5436.35315,0.09428
5438.28162,0.07271
5440.21009,0.05534
5442.13856,0.06005
5444.06702,0.08744
5445.99549,0.09616
5447.92396,0.07525
5449.85243,0.06094
5451.78090,0.06160
5453.70937,0.06714
5455.63784,0.06799
5457.56631,0.04980
5459.49477,0.04258
5461.42324,0.05995
5463.35171,0.07907
5465.28018,0.10939
5467.20865,0.13253
5469.13712,0.11460
5471.06559,0.07654
5472.99405,0.06568
5474.92252,0.09782
5476.85099,0.12248
5478.77946,0.10740
5480.70793,0.07757
5482.63640,0.05717
5484.56487,0.07126
5486.49334,0.11312
5488.42180,0.13455
5490.35027,0.10745
5492.27874,0.05323
5494.20721,0.01168
5496.13568,0.01423
5498.06415,0.06003
5499.99262,0.10743
5501.92108,0.12022
5503.84955,0.11554
5505.77802,0.11434
5507.70649,0.11064
5509.63496,0.11546
5511.56343,0.13174
5513.49190,0.11808
5515.42037,0.07581
5517.34883,0.05978
5519.27730,0.07364
5521.20577,0.06913
5523.13424,0.04946
5525.06271,0.06103
5526.99118,0.09064
5528.91965,0.09397
5530.84811,0.06756
5532.77658,0.04761
5534.70505,0.05172
5536.63352,0.05958
5538.56199,0.05785
5540.49046,0.05799
5542.41893,0.08046
5544.34740,0.10766
5546.27586,0.10975
5548.20433,0.11212
5550.13280,0.12842
5552.06127,0.12561
5553.98974,0.09958
5555.91821,0.09136
5557.84668,0.10531
5559.77514,0.09940
5561.70361,0.08265
5563.63208,0.08932
5565.56055,0.09799
5567.48902,0.09388
5569.41749,0.09668
5571.34596,0.08438
5573.27443,0.05070
5575.20289,0.04156
5577.13136,0.04549
5579.05983,0.02518
5580.98830,0.01367
5582.91677,0.05416
5584.84524,0.10705
5586.77371,0.12930
5588.70217,0.13389
5590.63064,0.12939
5592.55911,0.11079
5594.48758,0.09908
5596.41605,0.10886
5598.34452,0.11691
5600.27299,0.10589
5602.20145,0.08275
5604.12992,0.06388
5606.05839,0.05402
5607.98686,0.05040
5609.91533,0.06562
5611.84380,0.07362
5613.77227,0.05280
5615.70074,0.05931
5617.62920,0.10265
5619.55767,0.12435
5621.48614,0.11498
5623.41461,0.10701
5625.34308,0.10974
5627.27155,0.11336
5629.20002,0.11078
5631.12848,0.10808
5633.05695,0.10146
5634.98542,0.06856
5636.91389,0.03600
5638.84236,0.05844
5640.77083,0.10852
5642.69930,0.13192
5644.62777,0.12525
5646.55623,0.10312
5648.48470,0.07467
5650.41317,0.04731
5652.34164,0.04008
5654.27011,0.05053
5656.19858,0.06000
5658.12705,0.06466
5660.05551,0.05240
5661.98398,0.02103
5663.91245,-0.01059
5665.84092,-0.00793
5667.76939,0.02952
5669.69786,0.05609
5671.62633,0.06741
5673.55480,0.07591
5675.48326,0.07498
5677.41173,0.06700
5679.34020,0.05624
5681.26867,0.06235
5683.19714,0.08817
5685.12561,0.08921
5687.05408,0.05445
5688.98254,0.04180
5690.91101,0.08232
5692.83948,0.12804
5694.76795,0.13113
5696.69642,0.11496
5698.62489,0.12564
5700.55336,0.13807
5702.48183,0.12115
5704.41029,0.09566
5706.33876,0.06889
5708.26723,0.05960
5710.19570,0.08950
5712.12417,0.10764
5714.05264,0.09312
5715.98111,0.09190
5717.90957,0.09366
5719.83804,0.09102
5721.76651,0.11214
5723.69498,0.13545
5725.62345,0.13845
5727.55192,0.12322
5729.48039,0.08105
5731.40886,0.04616
5733.33732,0.05534
5735.26579,0.07723
5737.19426,0.07906
5739.12273,0.06937
5741.05120,0.06882
5742.97967,0.09324
5744.90814,0.12035
5746.83660,0.12435
5748.76507,0.11125
5750.69354,0.09729
5752.62201,0.09974
5754.55048,0.10440
5756.47895,0.08398
5758.40742,0.05514
5760.33588,0.05677
5762.26435,0.08719
5764.19282,0.09249
5766.12129,0.08361
5768.04976,0.10096
5769.97823,0.10828
5771.90670,0.10822
5773.83517,0.12819
5775.76363,0.12200
5777.69210,0.07733
5779.62057,0.05304
5781.54904,0.07465
5783.47751,0.11441
5785.40598,0.12758
5787.33445,0.07943
5789.26291,0.02100
5791.19138,0.02408
5793.11985,0.04430
5795.04832,0.05058
5796.97679,0.09936
5798.90526,0.15984
5800.83373,0.15506
5802.76220,0.10892
5804.69066,0.08063
5806.61913,0.07422
5808.54760,0.06547
5810.47607,0.05562
5812.40454,0.07097
5814.33301,0.10664
5816.26148,0.12497
5818.18994,0.12391
5820.11841,0.10898
5822.04688,0.09393
5823.97535,0.10925
5825.90382,0.11267
5827.83229,0.08163
5829.76076,0.06457
5831.68923,0.06648
5833.61769,0.06543
5835.54616,0.07902
5837.47463,0.11123
5839.40310,0.12439
5841.33157,0.11306
5843.26004,0.11363
5845.18851,0.12656
5847.11697,0.12916
5849.04544,0.12269
5850.97391,0.09597
5852.90238,0.04981
5854.83085,0.04410
5856.75932,0.09013
5858.68779,0.13025
5860.61626,0.14473
5862.54472,0.12639
5864.47319,0.07147
5866.40166,0.02665
5868.33013,0.02262
5870.25860,0.03494
5872.18707,0.04717
5874.11554,0.07011
5876.04400,0.10437
5877.97247,0.11614
5879.90094,0.09473
5881.82941,0.08922
5883.75788,0.10165
5885.68635,0.08018
5887.61482,0.04832
5889.54329,0.05552
5891.47175,0.07454
5893.40022,0.07013
5895.32869,0.05312
5897.25716,0.05644
5899.18563,0.07453
5901.11410,0.07104
5903.04257,0.06658
5904.97103,0.08579
5906.89950,0.10374
5908.82797,0.11338
5910.75644,0.12570
5912.68491,0.14808
5914.61338,0.17488
5916.54185,0.17633
5918.47032,0.14807
5920.39878,0.11899
5922.32725,0.10895
5924.25572,0.11955
5926.18419,0.12725
5928.11266,0.10971
5930.04113,0.08889
5931.96960,0.08886
5933.89806,0.09318
5935.82653,0.08280
5937.75500,0.06152
5939.68347,0.04096
5941.61194,0.03888
5943.54041,0.06522
5945.46888,0.11279
5947.39734,0.16703
5949.32581,0.19433
5951.25428,0.15903
5953.18275,0.10383
5955.11122,0.08173
5957.03969,0.06546
5958.96816,0.04662
5960.89663,0.05132
5962.82509,0.05894
5964.75356,0.04757
5966.68203,0.04616
5968.61050,0.04986
5970.53897,0.02048
5972.46744,-0.00554
5974.39591,-0.00879
5976.32437,0.00959
5978.25284,0.05248
5980.18131,0.06845
5982.10978,0.06569
5984.03825,0.07667
5985.96672,0.07465
5987.89519,0.06805
5989.82366,0.08344
5991.75212,0.10362
5993.68059,0.11176
5995.60906,0.11379
5997.53753,0.11347
5999.46600,0.12305
6001.39447,0.14694
6003.32294,0.15992
6005.25140,0.16147
6007.17987,0.16793
6009.10834,0.16296
6011.03681,0.13191
6012.96528,0.10493
6014.89375,0.11615
6016.82222,0.14220
6018.75069,0.15344
6020.67915,0.15124
6022.60762,0.13185
6024.53609,0.11835
6026.46456,0.13538
6028.39303,0.15880
6030.32150,0.17182
6032.24997,0.17751
6034.17843,0.14963
6036.10690,0.09164
6038.03537,0.04683
6039.96384,0.02141
6041.89231,0.01165
6043.82078,0.01932
6045.74925,0.03695
6047.67772,0.07183
6049.60618,0.11574
6051.53465,0.12642
6053.46312,0.10029
6055.39159,0.07953
6057.32006,0.09326
6059.24853,0.12457
6061.17700,0.13173
6063.10546,0.10708
6065.03393,0.09132
6066.96240,0.09756
6068.89087,0.10675
6070.81934,0.13370
6072.74781,0.18023
6074.67628,0.18319
6076.60475,0.14330
6078.53321,0.12616
6080.46168,0.12491
6082.39015,0.11850
6084.31862,0.13317
6086.24709,0.16598
6088.17556,0.17521
6090.10403,0.17713
6092.03249,0.18774
6093.96096,0.16080
6095.88943,0.12083
6097.81790,0.12704
6099.74637,0.13081
6101.67484,0.10655
6103.60331,0.10431
6105.53177,0.11976
6107.46024,0.14373
6109.38871,0.16964
6111.31718,0.15683
6113.24565,0.12893
6115.17412,0.12994
6117.10259,0.13673
6119.03106,0.10350
6120.95952,0.03414
6122.88799,-0.01435
6124.81646,-0.00169
6126.74493,0.03411
6128.67340,0.03040
6130.60187,0.01699
6132.53034,0.04588
6134.45880,0.09603
6136.38727,0.11395
6138.31574,0.06924
6140.24421,-0.00358
6142.17268,-0.02043
6144.10115,0.03407
6146.02962,0.07715
6147.95809,0.05683
6149.88655,0.00293
6151.81502,-0.01219
6153.74349,0.01330
6155.67196,0.01481
6157.60043,0.00227
6159.52890,0.02473
6161.45737,0.06721
6163.38583,0.09103
6165.31430,0.09423
6167.24277,0.06770
6169.17124,0.02273
6171.09971,0.00972
6173.02818,0.03690
6174.95665,0.06560
6176.88512,0.08257
6178.81358,0.11309
6180.74205,0.15692
6182.67052,0.15670
6184.59899,0.12618
6186.52746,0.13628
6188.45593,0.16433
6190.38440,0.16312
6192.31286,0.13713
6194.24133,0.09887
6196.16980,0.08686
6198.09827,0.12278
6200.02674,0.19255
6201.95521,0.23761
6203.88368,0.19581
6205.81215,0.10691
6207.74061,0.05059
6209.66908,0.04856
6211.59755,0.07001
6213.52602,0.08378
6215.45449,0.10970
6217.38296,0.13246
6219.31143,0.10464
6221.23989,0.04590
6223.16836,0.01780
6225.09683,0.04561
6227.02530,0.08428
6228.95377,0.09783
6230.88224,0.10839
6232.81071,0.11825
6234.73918,0.11116
6236.66764,0.08554
6238.59611,0.04443
6240.52458,0.01982
6242.45305,0.03516
6244.38152,0.07544
6246.30999,0.09293
6248.23846,0.06259
6250.16692,0.03082
6252.09539,0.03685
6254.02386,0.07247
6255.95233,0.11571
6257.88080,0.15861
6259.80927,0.19574
6261.73774,0.17925
6263.66621,0.10237
6265.59467,0.04445
6267.52314,0.03710
6269.45161,0.04577
6271.38008,0.04628
6273.30855,0.01434
6275.23702,-0.03121
6277.16549,-0.04745
6279.09395,-0.03039
6281.02242,0.02006
6282.95089,0.06828
6284.87936,0.06868
6286.80783,0.03529
6288.73630,0.02554
6290.66477,0.08938
6292.59323,0.15843
6294.52170,0.13472
6296.45017,0.08293
6298.37864,0.09643
6300.30711,0.11128
6302.23558,0.06861
6304.16405,0.05778
6306.09252,0.10756
6308.02098,0.13392
6309.94945,0.11182
6311.87792,0.09896
6313.80639,0.06750
6315.73486,-0.00484
6317.66333,-0.03132
6319.59180,-0.02393
6321.52026,-0.01576
6323.44873,0.03519
6325.37720,0.08256
6327.30567,0.06675
6329.23414,0.00668
6331.16261,-0.01961
6333.09108,0.02335
6335.01955,0.07520
6336.94801,0.09763
6338.87648,0.10089
6340.80495,0.10383
6342.73342,0.11067
6344.66189,0.09529
6346.59036,0.06511
6348.51883,0.09437
6350.44729,0.19021
6352.37576,0.20911
6354.30423,0.13860
6356.23270,0.11361
6358.16117,0.13481
6360.08964,0.14275
6362.01811,0.13328
6363.94658,0.13093
6365.87504,0.17638
6367.80351,0.22461
6369.73198,0.18525
6371.66045,0.07499
6373.58892,0.01302
6375.51739,0.05815
6377.44586,0.09554
6379.37432,0.07378
6381.30279,0.07324
6383.23126,0.14151
6385.15973,0.21704
6387.08820,0.21790
6389.01667,0.14872
6390.94514,0.06480
6392.87361,-0.00500
6394.80207,-0.05371
6396.73054,-0.03646
6398.65901,0.02291
6400.58748,0.04311
6402.51595,0.05542
6404.44442,0.11351
6406.37289,0.15559
6408.30135,0.16420
6410.22982,0.21139
6412.15829,0.26238
6414.08676,0.24277
6416.01523,0.24332
6417.94370,0.28805
6419.87217,0.22352
6421.80064,0.07392
6423.72910,-0.04697
6425.65757,-0.11106
6427.58604,-0.04955
6429.51451,0.11892
6431.44298,0.20645
6433.37145,0.17533
6435.29992,0.13398
6437.22838,0.08700
6439.15685,0.05655
6441.08532,0.09232
6443.01379,0.15613
6444.94226,0.17994
6446.87073,0.16651
6448.79920,0.14178
6450.72766,0.11560
6452.65613,0.11048
6454.58460,0.14946
6456.51307,0.19186
6458.44154,0.14694
6460.37001,0.04979
6462.29848,0.00227
6464.22695,0.00660
6466.15541,0.02458
6468.08388,0.07233
6470.01235,0.15697
6471.94082,0.17985
6473.86929,0.11625
6475.79776,0.06136
6477.72623,0.03969
6479.65469,0.05073
6481.58316,0.09182
6483.51163,0.10752
6485.44010,0.07040
6487.36857,0.03558
6489.29704,0.05534
6491.22551,0.07289
6493.15398,0.01918
6495.08244,-0.05762
6497.01091,-0.07097
6498.93938,-0.02431
6500.86785,0.01317
6502.79632,0.02959
6504.72479,0.05764
6506.65326,0.09582
6508.58172,0.14307
6510.51019,0.19899
6512.43866,0.19527
6514.36713,0.12079
6516.29560,0.05550
6518.22407,0.00607
6520.15254,-0.02943
6522.08101,-0.00919
6524.00947,0.05903
6525.93794,0.06741
6527.86641,-0.00244
6529.79488,-0.03292
6531.72335,0.00106
6533.65182,0.06603
6535.58029,0.13877
6537.50875,0.18340
6539.43722,0.18918
6541.36569,0.15627
6543.29416,0.11738
6545.22263,0.11308
6547.15110,0.08834
6549.07957,0.01162
6551.00804,-0.01347
6552.93650,0.04486
6554.86497,0.07569
6556.79344,0.07049
6558.72191,0.07764
6560.65038,0.08732
6562.57885,0.11298
6564.50732,0.18411
6566.43578,0.26234
6568.36425,0.24056
6570.29272,0.12579
6572.22119,0.08848
6574.14966,0.15725
6576.07813,0.22084
6578.00660,0.25499
6579.93507,0.27067
6581.86353,0.25859
6583.79200,0.20014
6585.72047,0.10569
6587.64894,0.04841
6589.57741,0.08460
6591.50588,0.15953
6593.43435,0.19566
6595.36281,0.18236
6597.29128,0.14710
6599.21975,0.12417
6601.14822,0.11615
6603.07669,0.07439
6605.00516,0.04489
6606.93363,0.09637
6608.86210,0.14786
6610.79056,0.12068
6612.71903,0.07398
6614.64750,0.08181
6616.57597,0.09988
6618.50444,0.04153
6620.43291,-0.02765
6622.36138,-0.00875
6624.28984,0.06690
6626.21831,0.09468
6628.14678,0.05329
6630.07525,0.00314
6632.00372,-0.04541
6633.93219,-0.08389
6635.86066,-0.07500
6637.78912,-0.02378
6639.71759,0.06583
6641.64606,0.14310
6643.57453,0.13978
6645.50300,0.09272
6647.43147,0.06839
6649.35994,0.10628
6651.28841,0.15621
6653.21687,0.11230
6655.14534,0.02792
6657.07381,0.03829
6659.00228,0.09683
6660.93075,0.09997
6662.85922,0.06884
6664.78769,0.07623
6666.71615,0.12336
6668.64462,0.12065
6670.57309,0.08326
6672.50156,0.10691
6674.43003,0.13312
6676.35850,0.09674
6678.28697,0.03378
6680.21544,-0.00069
6682.14390,0.06093
6684.07237,0.17572
6686.00084,0.24847
6687.92931,0.30059
6689.85778,0.28615
6691.78625,0.19083
6693.71472,0.12182
6695.64318,0.07598
6697.57165,0.01058
6699.50012,-0.04064
6701.42859,-0.03530
6703.35706,0.00463
6705.28553,0.01333
6707.21400,-0.02389
6709.14247,-0.04169
6711.07093,-0.01867
6712.99940,-0.00508
6714.92787,0.00462
6716.85634,0.04286
6718.78481,0.12053
6720.71328,0.21893
6722.64175,0.23171
6724.57021,0.10008
6726.49868,-0.06539
6728.42715,-0.13148
6730.35562,-0.07360
6732.28409,-0.01624
6734.21256,-0.07725
6736.14103,-0.13901
6738.06950,-0.04377
6739.99796,0.09782
6741.92643,0.14942
6743.85490,0.18167
6745.78337,0.22681
6747.71184,0.20138
6749.64031,0.11696
6751.56878,0.03592
6753.49724,-0.00708
6755.42571,0.04727
6757.35418,0.13273
6759.28265,0.14612
6761.21112,0.13232
6763.13959,0.16733
6765.06806,0.20450
6766.99653,0.16071
6768.92499,0.07903
6770.85346,0.07953
6772.78193,0.12967
6774.71040,0.14569
6776.63887,0.15800
6778.56734,0.17325
6780.49581,0.14350
6782.42427,0.09361
6784.35274,0.07268
6786.28121,0.06677
6788.20968,0.05081
6790.13815,-0.00062
6792.06662,-0.05586
6793.99509,-0.02241
6795.92355,0.04459
6797.85202,0.06472
6799.78049,0.08560
6801.70896,0.15478
6803.63743,0.18342
6805.56590,0.11249
6807.49437,0.04402
6809.42284,0.00219
6811.35130,-0.03097
6813.27977,-0.03122
6815.20824,-0.04639
6817.13671,-0.10819
6819.06518,-0.13409
6820.99365,-0.06283
6822.92212,0.05621
6824.85058,0.10169
6826.77905,0.08565
6828.70752,0.04318
6830.63599,-0.01826
6832.56446,-0.02480
6834.49293,0.00722
6836.42140,0.00088
6838.34987,0.04239
6840.27833,0.16265
6842.20680,0.18175
6844.13527,0.05623
6846.06374,-0.05840
6847.99221,-0.04182
6849.92068,0.06995
6851.84915,0.09154
6853.77761,-0.01759
6855.70608,-0.13912
6857.63455,-0.17611
6859.56302,-0.14303
6861.49149,-0.06923
6863.41996,0.02525
6865.34843,0.10745
6867.27690,0.13047
6869.20536,0.11781
6871.13383,0.12316
6873.06230,0.10500
6874.99077,0.04806
6876.91924,0.00832
6878.84771,0.02875
6880.77618,0.10096
6882.70464,0.10272
6884.63311,0.02189
6886.56158,0.00533
6888.49005,0.07580
6890.41852,0.08693
6892.34699,0.00155
6894.27546,-0.07949
6896.20393,-0.08746
6898.13239,-0.03883
6900.06086,0.00265
6901.98933,0.06249
6903.91780,0.12559
6905.84627,0.08958
6907.77474,0.01823
6909.70321,0.03476
6911.63167,0.09579
6913.56014,0.10154
6915.48861,0.09460
6917.41708,0.17081
6919.34555,0.24295
6921.27402,0.22076
6923.20249,0.22541
6925.13096,0.24865
6927.05942,0.17817
6928.98789,0.05132
6930.91636,-0.01443
6932.84483,0.04264
6934.77330,0.15336
6936.70177,0.18464
6938.63024,0.14681
6940.55870,0.14718
6942.48717,0.15123
6944.41564,0.07654
6946.34411,0.01226
6948.27258,0.05968
6950.20105,0.13180
6952.12952,0.14851
6954.05799,0.17662
6955.98645,0.25932
6957.91492,0.29770
6959.84339,0.20883
6961.77186,0.04940
6963.70033,-0.03906
6965.62880,0.00029
6967.55727,0.12033
6969.48573,0.20449
6971.41420,0.23556
6973.34267,0.25679
6975.27114,0.17305
6977.19961,0.03486
6979.12808,0.01298
6981.05655,0.07105
6982.98501,0.08991
6984.91348,0.06957
6986.84195,0.09878
6988.77042,0.17362
6990.69889,0.18667
6992.62736,0.08645
6994.55583,-0.01214
6996.48430,0.02743
6998.41276,0.12323
7000.34123,0.10463
7002.26970,0.00618
7004.19817,-0.05008
7006.12664,-0.01157
7008.05511,0.00459
7009.98358,-0.05012
7011.91204,-0.02003
7013.84051,0.09988
7015.76898,0.15964
7017.69745,0.15383
7019.62592,0.13079
7021.55439,0.10243
7023.48286,0.08318
7025.41133,0.08383
7027.33979,0.09498
7029.26826,0.12140
7031.19673,0.09324
7033.12520,0.02961
7035.05367,0.03391
7036.98214,0.03166
7038.91061,-0.00791
7040.83907,-0.00057
7042.76754,0.07537
7044.69601,0.11676
7046.62448,0.06878
7048.55295,0.02107
7050.48142,-0.00510
7052.40989,-0.03428
7054.33836,0.00228
7056.26682,0.10126
7058.19529,0.11374
7060.12376,0.07746
7062.05223,0.12260
7063.98070,0.14367
7065.90917,0.02977
7067.83764,-0.05248
7069.76610,0.02675
7071.69457,0.07296
7073.62304,0.00925
7075.55151,-0.01090
7077.47998,0.00688
7079.40845,0.00228
7081.33692,-0.01508
7083.26539,-0.01834
7085.19385,-0.03868
7087.12232,-0.04006
7089.05079,0.02810
7090.97926,0.10634
7092.90773,0.14669
7094.83620,0.10324
7096.76467,-0.05722
7098.69313,-0.19097
7100.62160,-0.11412
7102.55007,0.07111
7104.47854,0.19190
7106.40701,0.21634
7108.33548,0.23487
7110.26395,0.25676
7112.19242,0.23936
7114.12088,0.21144
7116.04935,0.19047
7117.97782,0.10591
7119.90629,-0.00334
7121.83476,-0.01603
7123.76323,0.05342
7125.69170,0.15603
7127.62016,0.21643
7129.54863,0.19068
7131.47710,0.16057
7133.40557,0.15050
7135.33404,0.07163
7137.26251,0.01051
7139.19098,0.09290
7141.11944,0.20191
7143.04791,0.27364
7144.97638,0.31957
7146.90485,0.25812
7148.83332,0.13387
7150.76179,0.01124
7152.69026,-0.14429
7154.61873,-0.23147
7156.54719,-0.13982
7158.47566,-0.02993
7160.40413,0.05700
7162.33260,0.18009
7164.26107,0.31227
7166.18954,0.38352
7168.11801,0.38928
7170.04647,0.42437
7171.97494,0.38576
7173.90341,0.17545
7175.83188,-0.07622
7177.76035,-0.14875
7179.68882,0.02261
7181.61729,0.24833
7183.54576,0.27223
7185.47422,0.12206
7187.40269,0.04469
7189.33116,0.03633
7191.25963,-0.01229
7193.18810,-0.06595
7195.11657,-0.08494
7197.04504,-0.10099
7198.97350,-0.11010
7200.90197,-0.11270
7202.83044,-0.04259
7204.75891,0.14870
7206.68738,0.24109
7208.61585,0.20906
7210.54432,0.16680
7212.47279,0.12348
7214.40125,0.11859
7216.32972,0.18915
7218.25819,0.21414
7220.18666,0.11091
7222.11513,0.02201
7224.04360,-0.04127
7225.97207,-0.06292
7227.90053,-0.01479
7229.82900,0.00246
7231.75747,-0.01987
7233.68594,0.08973
7235.61441,0.27644
7237.54288,0.30766
7239.47135,0.18464
7241.39982,0.09303
7243.32828,0.03521
7245.25675,-0.01221
7247.18522,0.04287
7249.11369,0.19224
7251.04216,0.27993
7252.97063,0.18206
7254.89910,-0.02225
7256.82756,-0.11305
7258.75603,-0.01752
7260.68450,0.09563
7262.61297,0.01883
7264.54144,-0.05099
7266.46991,-0.01075
7268.39838,0.06135
7270.32685,0.11148
7272.25531,0.12889
7274.18378,0.15033
7276.11225,0.09441
7278.04072,-0.04979
7279.96919,-0.10802
7281.89766,0.03355
7283.82613,0.15450
7285.75459,0.15508
7287.68306,0.19044
7289.61153,0.38515
7291.54000,0.52766
7293.46847,0.46508
7295.39694,0.36712
7297.32541,0.23809
7299.25387,0.10984
7301.18234,0.13369
7303.11081,0.25766
7305.03928,0.34005
7306.96775,0.42005
7308.89622,0.50400
7310.82469,0.42070
7312.75316,0.23557
7314.68162,0.12235
7316.61009,0.08131
7318.53856,0.00258
7320.46703,-0.11064
7322.39550,-0.16717
7324.32397,-0.14848
7326.25244,-0.17995
7328.18090,-0.18195
7330.10937,-0.00336
7332.03784,0.04766
7333.96631,-0.05472
7335.89478,-0.12011
7337.82325,-0.13232
7339.75172,0.06606
7341.68019,0.36413
7343.60865,0.34499
7345.53712,0.19349
7347.46559,0.23678
7349.39406,0.35560
7351.32253,0.24973
7353.25100,0.07088
7355.17947,0.10579
7357.10793,0.31576
7359.03640,0.39482
7360.96487,0.21936
7362.89334,0.04817
7364.82181,0.05980
7366.75028,0.08790
7368.67875,-0.01463
7370.60722,-0.10213
7372.53568,-0.11252
7374.46415,-0.13748
7376.39262,-0.15076
7378.32109,-0.08343
7380.24956,0.03242
7382.17803,0.21318
7384.10650,0.42445
7386.03496,0.48625
7387.96343,0.24740
7389.89190,-0.02172
7391.82037,-0.10050
7393.74884,-0.10851
7395.67731,-0.08234
7397.60578,-0.02648
7399.53425,-0.02218
7401.46271,-0.02286
7403.39118,0.00701
7405.31965,0.02079
7407.24812,-0.07035
7409.17659,-0.22750
7411.10506,-0.24435
7413.03353,-0.07067
7414.96199,0.13910
7416.89046,0.27241
7418.81893,0.30659
7420.74740,0.27915
7422.67587,0.20930
7424.60434,0.09896
7426.53281,-0.02637
7428.46128,-0.10250
7430.38974,-0.08298
7432.31821,-0.05538
7434.24668,-0.04087
7436.17515,0.02580
7438.10362,0.09528
7440.03209,0.06629
7441.96056,0.03476
7443.88902,0.11971
7445.81749,0.15483
7447.74596,0.12500
7449.67443,0.19236
7451.60290,0.30636
7453.53137,0.32043
7455.45984,0.29047
7457.38831,0.27962
7459.31677,0.20545
7461.24524,0.01163
7463.17371,-0.06457
7465.10218,0.06807
7467.03065,0.16529
7468.95912,0.14437
7470.88759,0.22008
7472.81605,0.34304
7474.74452,0.22555
7476.67299,-0.13794
7478.60146,-0.40739
7480.52993,-0.26294
7482.45840,-0.00258
7484.38687,0.04400
7486.31533,0.05579
7488.24380,0.12240
7490.17227,0.15331
7492.10074,0.09437
7494.02921,-0.02793
7495.95768,-0.14609
7497.88615,-0.16726
