399.19301,3.15761
401.12148,2.18044
403.04995,0.88583
404.97842,0.24840
406.90689,0.72571
408.83536,1.41309
410.76382,1.60823
412.69229,2.19858
414.62076,4.16442
416.54923,6.24912
418.47770,5.24563
420.40617,1.75482
422.33464,0.37125
424.26311,0.11060
426.19157,0.04675
428.12004,-0.03544
430.04851,-0.04461
431.97698,0.06390
433.90545,-0.00365
435.83392,-0.08280
437.76239,-0.04452
439.69085,0.01273
441.61932,-0.01886
443.54779,-0.12827
445.47626,-0.18604
447.40473,-0.11313
449.33320,0.03833
451.26167,0.17983
453.19013,0.25249
455.11860,0.21987
457.04707,0.10176
458.97554,0.01349
460.90401,-0.01171
462.83248,-0.06339
464.76095,-0.06217
466.68942,-0.00360
468.61788,0.01245
470.54635,0.01641
472.47482,0.15635
474.40329,0.29145
476.33176,0.15844
478.26023,0.05749
480.18870,0.05445
482.11716,0.07055
484.04563,0.03973
485.97410,-0.00961
487.90257,-0.02408
489.83104,-0.02362
491.75951,-0.02927
493.68798,0.00481
495.61645,0.05526
497.54491,0.06225
499.47338,0.06775
501.40185,0.10680
503.33032,0.14075
505.25879,0.13930
507.18726,0.10975
509.11573,0.08955
511.04419,0.10773
512.97266,0.12798
514.90113,0.11757
516.82960,0.12259
518.75807,0.14603
520.68654,0.13749
522.61501,0.10744
524.54348,0.08798
526.47194,0.10674
528.40041,0.14255
530.32888,0.15194
532.25735,0.12749
534.18582,0.09406
536.11429,0.08186
538.04276,0.08309
539.97122,0.07545
541.89969,0.07057
543.82816,0.07662
545.75663,0.08406
547.68510,0.10188
549.61357,0.21185
551.54204,0.53608
553.47051,0.80901
555.39897,0.63272
557.32744,0.26384
559.25591,0.12472
561.18438,0.14150
563.11285,0.14292
565.04132,0.10946
566.96979,0.08577
568.89825,0.07955
570.82672,0.07303
572.75519,0.08218
574.68366,0.12402
576.61213,0.14920
578.54060,0.12881
580.46907,0.12342
582.39754,0.15157
584.32600,0.17601
586.25447,0.18716
588.18294,0.19509
590.11141,0.18474
592.03988,0.15056
593.96835,0.13487
595.89682,0.14500
597.82528,0.14887
599.75375,0.15306
601.68222,0.17354
603.61069,0.18412
605.53916,0.17017
607.46763,0.14305
609.39610,0.12355
611.32456,0.13522
613.25303,0.16300
615.18150,0.16395
617.10997,0.13955
619.03844,0.12836
620.96691,0.12723
622.89538,0.11521
624.82385,0.11304
626.75231,0.14225
628.68078,0.18650
630.60925,0.27066
632.53772,0.35085
634.46619,0.27842
636.39466,0.15030
638.32313,0.11015
640.25159,0.10596
642.18006,0.11007
644.10853,0.13163
646.03700,0.14866
647.96547,0.15446
649.89394,0.15604
651.82241,0.14781
653.75088,0.12803
655.67934,0.12235
657.60781,0.14168
659.53628,0.15733
661.46475,0.14227
663.39322,0.11978
665.32169,0.11662
667.25016,0.11908
669.17862,0.10741
671.10709,0.10455
673.03556,0.11749
674.96403,0.13892
676.89250,0.16312
678.82097,0.16885
680.74944,0.14589
682.67791,0.12583
684.60637,0.12830
686.53484,0.14247
688.46331,0.15707
690.39178,0.16086
692.32025,0.14649
694.24872,0.13134
696.17719,0.13707
698.10565,0.14147
700.03412,0.12623
701.96259,0.11660
703.89106,0.12361
705.81953,0.13490
707.74800,0.14571
709.67647,0.15697
711.60494,0.15664
713.53340,0.14606
715.46187,0.14797
717.39034,0.15557
719.31881,0.15358
721.24728,0.14429
723.17575,0.13495
725.10422,0.13137
727.03268,0.13198
728.96115,0.13933
730.88962,0.14977
732.81809,0.15183
734.74656,0.15101
736.67503,0.15729
738.60350,0.16703
740.53197,0.16658
742.46043,0.14686
744.38890,0.12773
746.31737,0.13029
748.24584,0.14398
750.17431,0.15482
752.10278,0.15774
754.03125,0.15117
755.95971,0.14011
757.88818,0.13384
759.81665,0.13585
761.74512,0.14316
763.67359,0.15081
765.60206,0.15322
767.53053,0.14846
769.45900,0.13630
771.38746,0.12362
773.31593,0.11604
775.24440,0.11064
777.17287,0.11215
779.10134,0.12438
781.02981,0.13826
782.95828,0.14812
784.88674,0.15344
786.81521,0.15436
788.74368,0.15971
790.67215,0.16780
792.60062,0.16657
794.52909,0.15901
796.45756,0.15652
798.38602,0.15956
800.31449,0.15943
802.24296,0.15182
804.17143,0.14022
806.09990,0.13763
808.02837,0.14444
809.95684,0.14277
811.88531,0.13628
813.81377,0.13906
815.74224,0.14047
817.67071,0.12942
819.59918,0.12296
821.52765,0.13060
823.45612,0.14235
825.38459,0.15317
827.31305,0.15551
829.24152,0.14938
831.16999,0.14632
833.09846,0.14820
835.02693,0.14894
836.95540,0.14566
838.88387,0.14414
840.81234,0.14744
842.74080,0.14680
844.66927,0.14034
846.59774,0.13835
848.52621,0.14135
850.45468,0.14814
852.38315,0.16219
854.31162,0.17022
856.24008,0.16303
858.16855,0.15571
860.09702,0.15861
862.02549,0.16582
863.95396,0.16920
865.88243,0.16209
867.81090,0.13966
869.73937,0.11622
871.66783,0.11842
873.59630,0.13899
875.52477,0.14953
877.45324,0.14819
879.38171,0.14806
881.31018,0.15447
883.23865,0.15848
885.16711,0.14782
887.09558,0.13553
889.02405,0.14028
890.95252,0.15285
892.88099,0.15420
894.80946,0.14519
896.73793,0.13837
898.66640,0.13668
900.59486,0.14159
902.52333,0.14902
904.45180,0.14805
906.38027,0.14553
908.30874,0.15252
910.23721,0.16047
912.16568,0.16003
914.09414,0.15979
916.02261,0.16646
917.95108,0.16842
919.87955,0.15907
921.80802,0.15030
923.73649,0.14931
925.66496,0.15378
927.59343,0.16275
929.52189,0.17037
931.45036,0.17234
933.37883,0.17186
935.30730,0.17182
937.23577,0.17474
939.16424,0.17408
941.09271,0.16027
943.02117,0.14281
944.94964,0.13556
946.87811,0.14004
948.80658,0.15033
950.73505,0.15868
952.66352,0.16581
954.59199,0.17119
956.52045,0.16390
958.44892,0.14796
960.37739,0.14373
962.30586,0.15333
964.23433,0.16412
966.16280,0.17055
968.09127,0.16892
970.01974,0.16155
971.94820,0.15977
973.87667,0.16491
975.80514,0.16703
977.73361,0.16333
979.66208,0.15984
981.59055,0.15843
983.51902,0.15730
985.44748,0.15417
987.37595,0.14965
989.30442,0.15380
991.23289,0.16873
993.16136,0.17863
995.08983,0.17789
997.01830,0.17546
998.94677,0.17233
1000.87523,0.16769
1002.80370,0.16225
1004.73217,0.15476
1006.66064,0.15294
1008.58911,0.16232
1010.51758,0.17304
1012.44605,0.17372
1014.37451,0.16698
1016.30298,0.16210
1018.23145,0.15831
1020.15992,0.15449
1022.08839,0.15791
1024.01686,0.16468
1025.94533,0.17211
1027.87380,0.18301
1029.80226,0.18052
1031.73073,0.16689
1033.65920,0.16676
1035.58767,0.17751
1037.51614,0.18154
1039.44461,0.17692
1041.37308,0.17806
1043.30154,0.18225
1045.23001,0.17556
1047.15848,0.16612
1049.08695,0.16302
1051.01542,0.16381
1052.94389,0.16519
1054.87236,0.16308
1056.80083,0.15669
1058.72929,0.15404
1060.65776,0.16457
1062.58623,0.18537
1064.51470,0.19405
1066.44317,0.17773
1068.37164,0.15816
1070.30011,0.15323
1072.22857,0.16131
1074.15704,0.17641
1076.08551,0.18741
1078.01398,0.18206
1079.94245,0.16435
1081.87092,0.15327
1083.79939,0.15494
1085.72786,0.16209
1087.65632,0.16673
1089.58479,0.16428
1091.51326,0.15967
1093.44173,0.16067
1095.37020,0.16817
1097.29867,0.17386
1099.22714,0.17449
1101.15560,0.17648
1103.08407,0.17836
1105.01254,0.17513
1106.94101,0.16914
1108.86948,0.16905
1110.79795,0.17846
1112.72642,0.18782
1114.65489,0.19235
1116.58335,0.19254
1118.51182,0.18369
1120.44029,0.16896
1122.36876,0.16244
1124.29723,0.16740
1126.22570,0.17508
1128.15417,0.18095
1130.08263,0.17935
1132.01110,0.17215
1133.93957,0.17172
1135.86804,0.17454
1137.79651,0.17140
1139.72498,0.16792
1141.65345,0.16878
1143.58191,0.17292
1145.51038,0.17791
1147.43885,0.17660
1149.36732,0.17144
1151.29579,0.17097
1153.22426,0.17346
1155.15273,0.17741
1157.08120,0.17992
1159.00966,0.17745
1160.93813,0.17590
1162.86660,0.17574
1164.79507,0.17402
1166.72354,0.17509
1168.65201,0.17689
1170.58048,0.17411
1172.50894,0.16990
1174.43741,0.16807
1176.36588,0.17061
1178.29435,0.17542
1180.22282,0.17479
1182.15129,0.16954
1184.07976,0.16317
1186.00823,0.15495
1187.93669,0.15470
1189.86516,0.16503
1191.79363,0.17122
1193.72210,0.16903
1195.65057,0.16729
1197.57904,0.17008
1199.50751,0.17323
1201.43597,0.17228
1203.36444,0.16889
1205.29291,0.16729
1207.22138,0.16798
1209.14985,0.17131
1211.07832,0.17790
1213.00679,0.18216
1214.93526,0.17971
1216.86372,0.17429
1218.79219,0.17252
1220.72066,0.17553
1222.64913,0.17938
1224.57760,0.18294
1226.50607,0.18451
1228.43454,0.18083
1230.36300,0.17537
1232.29147,0.17418
1234.21994,0.17664
1236.14841,0.17875
1238.07688,0.18063
1240.00535,0.18213
1241.93382,0.18127
1243.86229,0.17938
1245.79075,0.17638
1247.71922,0.17313
1249.64769,0.17598
1251.57616,0.18230
1253.50463,0.18235
1255.43310,0.17923
1257.36157,0.17943
1259.29003,0.18016
1261.21850,0.18097
1263.14697,0.18435
1265.07544,0.18688
1267.00391,0.18401
1268.93238,0.18092
1270.86085,0.18342
1272.78932,0.18475
1274.71778,0.18071
1276.64625,0.17873
1278.57472,0.18139
1280.50319,0.18182
1282.43166,0.17905
1284.36013,0.17786
1286.28860,0.17705
1288.21706,0.17508
1290.14553,0.17456
1292.07400,0.17621
1294.00247,0.17713
1295.93094,0.17448
1297.85941,0.16942
1299.78788,0.16535
1301.71634,0.16137
1303.64481,0.15607
1305.57328,0.15726
1307.50175,0.16842
1309.43022,0.17689
1311.35869,0.17640
1313.28716,0.17433
1315.21563,0.17547
1317.14409,0.18064
1319.07256,0.18710
1321.00103,0.18919
1322.92950,0.18515
1324.85797,0.17682
1326.78644,0.17067
1328.71491,0.17230
1330.64337,0.17437
1332.57184,0.17171
1334.50031,0.17054
1336.42878,0.17252
1338.35725,0.17664
1340.28572,0.18181
1342.21419,0.20604
1344.14266,0.24636
1346.07112,0.24327
1347.99959,0.19784
1349.92806,0.17696
1351.85653,0.18072
1353.78500,0.18139
1355.71347,0.18054
1357.64194,0.18182
1359.57040,0.18410
1361.49887,0.18464
1363.42734,0.18354
1365.35581,0.18362
1367.28428,0.18442
1369.21275,0.18423
1371.14122,0.18442
1373.06969,0.18640
1374.99815,0.18927
1376.92662,0.19087
1378.85509,0.19003
1380.78356,0.18810
1382.71203,0.18880
1384.64050,0.19493
1386.56897,0.20115
1388.49743,0.19849
1390.42590,0.19382
1392.35437,0.19628
1394.28284,0.20175
1396.21131,0.20359
1398.13978,0.20092
1400.06825,0.19452
1401.99672,0.19057
1403.92518,0.19419
1405.85365,0.20068
1407.78212,0.20040
1409.71059,0.19579
1411.63906,0.19302
1413.56753,0.19265
1415.49600,0.19631
1417.42446,0.20433
1419.35293,0.20596
1421.28140,0.19847
1423.20987,0.19376
1425.13834,0.19233
1427.06681,0.19335
1428.99528,0.19746
1430.92375,0.20010
1432.85221,0.19964
1434.78068,0.20213
1436.70915,0.20571
1438.63762,0.19978
1440.56609,0.19209
1442.49456,0.19071
1444.42303,0.19371
1446.35149,0.19736
1448.27996,0.19979
1450.20843,0.19905
1452.13690,0.19652
1454.06537,0.19760
1455.99384,0.20644
1457.92231,0.21293
1459.85077,0.20452
1461.77924,0.19697
1463.70771,0.19682
1465.63618,0.20056
1467.56465,0.20277
1469.49312,0.20756
1471.42159,0.21701
1473.35006,0.21985
1475.27852,0.20968
1477.20699,0.19901
1479.13546,0.19389
1481.06393,0.19321
1482.99240,0.19337
1484.92087,0.19529
1486.84934,0.20324
1488.77780,0.21400
1490.70627,0.21280
1492.63474,0.20613
1494.56321,0.20771
1496.49168,0.21261
1498.42015,0.21005
1500.34862,0.20572
1502.27709,0.20809
1504.20555,0.21988
1506.13402,0.23719
1508.06249,0.23399
1509.99096,0.22136
1511.91943,0.21452
1513.84790,0.21200
1515.77637,0.21273
1517.70483,0.21409
1519.63330,0.21978
1521.56177,0.22961
1523.49024,0.22956
1525.41871,0.22246
1527.34718,0.21575
1529.27565,0.21118
1531.20412,0.21270
1533.13258,0.21790
1535.06105,0.21827
1536.98952,0.22350
1538.91799,0.24255
1540.84646,0.25322
1542.77493,0.23770
1544.70340,0.22104
1546.63186,0.20955
1548.56033,0.20453
1550.48880,0.20224
1552.41727,0.20481
1554.34574,0.21625
1556.27421,0.23417
1558.20268,0.25473
1560.13115,0.24245
1562.05961,0.22001
1563.98808,0.20920
1565.91655,0.20308
1567.84502,0.20211
1569.77349,0.20223
1571.70196,0.19887
1573.63043,0.20008
1575.55889,0.20562
1577.48736,0.20510
1579.41583,0.19840
1581.34430,0.19073
1583.27277,0.18554
1585.20124,0.18582
1587.12971,0.18894
1589.05818,0.19120
1590.98664,0.19217
1592.91511,0.19190
1594.84358,0.18940
1596.77205,0.18689
1598.70052,0.18763
1600.62899,0.18961
1602.55746,0.18936
1604.48592,0.18814
1606.41439,0.18881
1608.34286,0.18901
1610.27133,0.18788
1612.19980,0.19151
1614.12827,0.20059
1616.05674,0.20749
1617.98521,0.20346
1619.91367,0.20080
1621.84214,0.20769
1623.77061,0.21357
1625.69908,0.21116
1627.62755,0.20928
1629.55602,0.20786
1631.48449,0.20443
1633.41295,0.20488
1635.34142,0.21504
1637.26989,0.22052
1639.19836,0.21572
1641.12683,0.21332
1643.05530,0.21757
1644.98377,0.23043
1646.91223,0.24011
1648.84070,0.23127
1650.76917,0.22922
1652.69764,0.24230
1654.62611,0.23521
1656.55458,0.21796
1658.48305,0.21181
1660.41152,0.21519
1662.33998,0.22252
1664.26845,0.22048
1666.19692,0.21348
1668.12539,0.21400
1670.05386,0.21943
1671.98233,0.22225
1673.91080,0.22514
1675.83926,0.22384
1677.76773,0.21966
1679.69620,0.22143
1681.62467,0.23165
1683.55314,0.24578
1685.48161,0.24133
1687.41008,0.22573
1689.33855,0.21665
1691.26701,0.21474
1693.19548,0.21628
1695.12395,0.21867
1697.05242,0.22360
1698.98089,0.23201
1700.90936,0.23253
1702.83783,0.22401
1704.76629,0.21909
1706.69476,0.21571
1708.62323,0.20942
1710.55170,0.20417
1712.48017,0.20528
1714.40864,0.21412
1716.33711,0.22363
1718.26558,0.22087
1720.19404,0.21181
1722.12251,0.20579
1724.05098,0.20303
1725.97945,0.20408
1727.90792,0.20999
1729.83639,0.21787
1731.76486,0.22438
1733.69332,0.22801
1735.62179,0.22280
1737.55026,0.21517
1739.47873,0.21061
1741.40720,0.21168
1743.33567,0.21645
1745.26414,0.21961
1747.19261,0.22078
1749.12107,0.22083
1751.04954,0.21732
1752.97801,0.21151
1754.90648,0.20830
1756.83495,0.20605
1758.76342,0.20290
1760.69189,0.20300
1762.62035,0.20411
1764.54882,0.20289
1766.47729,0.20440
1768.40576,0.21153
1770.33423,0.22079
1772.26270,0.22261
1774.19117,0.21529
1776.11964,0.20990
1778.04810,0.20899
1779.97657,0.20984
1781.90504,0.20831
1783.83351,0.20673
1785.76198,0.20777
1787.69045,0.20898
1789.61892,0.21238
1791.54738,0.21819
1793.47585,0.21706
1795.40432,0.21119
1797.33279,0.20937
1799.26126,0.21105
1801.18973,0.21046
1803.11820,0.20498
1805.04666,0.20098
1806.97513,0.20335
1808.90360,0.20895
1810.83207,0.21047
1812.76054,0.20550
1814.68901,0.19949
1816.61748,0.19130
1818.54595,0.17954
1820.47441,0.17999
1822.40288,0.19718
1824.33135,0.20968
1826.25982,0.20934
1828.18829,0.21024
1830.11676,0.21194
1832.04523,0.20854
1833.97369,0.20477
1835.90216,0.20351
1837.83063,0.20462
1839.75910,0.20703
1841.68757,0.20957
1843.61604,0.21143
1845.54451,0.21008
1847.47298,0.20588
1849.40144,0.20306
1851.32991,0.20285
1853.25838,0.20362
1855.18685,0.20426
1857.11532,0.20402
1859.04379,0.20314
1860.97226,0.20308
1862.90072,0.20390
1864.82919,0.20741
1866.75766,0.21636
1868.68613,0.22123
1870.61460,0.21292
1872.54307,0.20454
1874.47154,0.20160
1876.40001,0.20061
1878.32847,0.20145
1880.25694,0.20208
1882.18541,0.20066
1884.11388,0.20078
1886.04235,0.20280
1887.97082,0.20382
1889.89929,0.20340
1891.82775,0.20254
1893.75622,0.20290
1895.68469,0.20308
1897.61316,0.20043
1899.54163,0.19935
1901.47010,0.20208
1903.39857,0.20507
1905.32704,0.20777
1907.25550,0.20819
1909.18397,0.20532
1911.11244,0.20333
1913.04091,0.20246
1914.96938,0.20308
1916.89785,0.20673
1918.82632,0.20820
1920.75478,0.20532
1922.68325,0.20342
1924.61172,0.20327
1926.54019,0.20261
1928.46866,0.20258
1930.39713,0.20440
1932.32560,0.20626
1934.25407,0.20670
1936.18253,0.20493
1938.11100,0.20122
1940.03947,0.20035
1941.96794,0.20494
1943.89641,0.20821
1945.82488,0.20664
1947.75335,0.20589
1949.68181,0.20667
1951.61028,0.20628
1953.53875,0.20614
1955.46722,0.20560
1957.39569,0.20351
1959.32416,0.20360
1961.25263,0.20584
1963.18110,0.20605
1965.10956,0.20468
1967.03803,0.20419
1968.96650,0.20490
1970.89497,0.20553
1972.82344,0.20284
1974.75191,0.19750
1976.68038,0.19676
1978.60884,0.20029
1980.53731,0.20223
1982.46578,0.20399
1984.39425,0.20528
1986.32272,0.20473
1988.25119,0.20595
1990.17966,0.20849
1992.10812,0.20814
1994.03659,0.20478
1995.96506,0.20322
1997.89353,0.20459
1999.82200,0.20516
2001.75047,0.20545
2003.67894,0.20743
2005.60741,0.20824
2007.53587,0.20638
2009.46434,0.20435
2011.39281,0.20403
2013.32128,0.20531
2015.24975,0.20728
2017.17822,0.20799
2019.10669,0.20645
2021.03515,0.20503
2022.96362,0.20432
2024.89209,0.20253
2026.82056,0.20143
2028.74903,0.20198
2030.67750,0.20151
2032.60597,0.20014
2034.53444,0.19930
2036.46290,0.20029
2038.39137,0.20365
2040.31984,0.20621
2042.24831,0.20599
2044.17678,0.20391
2046.10525,0.20204
2048.03372,0.20165
2049.96218,0.20175
2051.89065,0.20284
2053.81912,0.20450
2055.74759,0.20426
2057.67606,0.20359
2059.60453,0.20526
2061.53300,0.20766
2063.46147,0.20853
2065.38993,0.20762
2067.31840,0.20511
2069.24687,0.20234
2071.17534,0.20162
2073.10381,0.20311
2075.03228,0.20400
2076.96075,0.20322
2078.88921,0.20150
2080.81768,0.20017
2082.74615,0.20080
2084.67462,0.20262
2086.60309,0.20559
2088.53156,0.20969
2090.46003,0.21227
2092.38850,0.21137
2094.31696,0.20751
2096.24543,0.20329
2098.17390,0.20201
2100.10237,0.20309
2102.03084,0.20338
2103.95931,0.20297
2105.88778,0.20291
2107.81624,0.20395
2109.74471,0.20592
2111.67318,0.20630
2113.60165,0.20520
2115.53012,0.20487
2117.45859,0.20526
2119.38706,0.20441
2121.31553,0.20310
2123.24399,0.20425
2125.17246,0.20670
2127.10093,0.20824
2129.02940,0.20788
2130.95787,0.20530
2132.88634,0.20314
2134.81481,0.20183
2136.74327,0.20112
2138.67174,0.20361
2140.60021,0.20655
2142.52868,0.20654
2144.45715,0.20637
2146.38562,0.20717
2148.31409,0.20721
2150.24255,0.20641
2152.17102,0.20509
2154.09949,0.20326
2156.02796,0.20137
2157.95643,0.20031
2159.88490,0.20214
2161.81337,0.20637
2163.74184,0.20918
2165.67030,0.20915
2167.59877,0.20744
2169.52724,0.20604
2171.45571,0.20641
2173.38418,0.20749
2175.31265,0.20858
2177.24112,0.20976
2179.16958,0.20924
2181.09805,0.20574
2183.02652,0.20157
2184.95499,0.19994
2186.88346,0.20128
2188.81193,0.20400
2190.74040,0.20593
2192.66887,0.20573
2194.59733,0.20502
2196.52580,0.20572
2198.45427,0.20619
2200.38274,0.20459
2202.31121,0.20217
2204.23968,0.20082
2206.16815,0.20137
2208.09661,0.20349
2210.02508,0.20578
2211.95355,0.20730
2213.88202,0.20706
2215.81049,0.20566
2217.73896,0.20467
2219.66743,0.20449
2221.59590,0.20621
2223.52436,0.20804
2225.45283,0.20739
2227.38130,0.20664
2229.30977,0.20746
2231.23824,0.20774
2233.16671,0.20784
2235.09518,0.21048
2237.02364,0.21369
2238.95211,0.21362
2240.88058,0.21003
2242.80905,0.20544
2244.73752,0.20181
2246.66599,0.19965
2248.59446,0.20046
2250.52293,0.20454
2252.45139,0.20829
2254.37986,0.20876
2256.30833,0.20719
2258.23680,0.20590
2260.16527,0.20502
2262.09374,0.20327
2264.02221,0.20154
2265.95067,0.20161
2267.87914,0.20258
2269.80761,0.20405
2271.73608,0.20637
2273.66455,0.20842
2275.59302,0.20894
2277.52149,0.20784
2279.44996,0.20664
2281.37842,0.20643
2283.30689,0.20605
2285.23536,0.20547
2287.16383,0.20527
2289.09230,0.20494
2291.02077,0.20906
2292.94924,0.21743
2294.87770,0.22012
2296.80617,0.21360
2298.73464,0.20156
2300.66311,0.19266
2302.59158,0.19305
2304.52005,0.19767
2306.44852,0.20200
2308.37699,0.20554
2310.30545,0.20656
2312.23392,0.20422
2314.16239,0.20025
2316.09086,0.19754
2318.01933,0.19827
2319.94780,0.20087
2321.87627,0.20308
2323.80473,0.20324
2325.73320,0.19951
2327.66167,0.19679
2329.59014,0.19519
2331.51861,0.19048
2333.44708,0.19188
2335.37555,0.20681
2337.30401,0.22417
2339.23248,0.22720
2341.16095,0.22086
2343.08942,0.21840
2345.01789,0.21703
2346.94636,0.21484
2348.87483,0.20956
2350.80330,0.19846
2352.73176,0.19077
2354.66023,0.20126
2356.58870,0.22056
2358.51717,0.22138
2360.44564,0.19612
2362.37411,0.18105
2364.30258,0.19623
2366.23104,0.21359
2368.15951,0.21510
2370.08798,0.20864
2372.01645,0.20350
2373.94492,0.19894
2375.87339,0.19534
2377.80186,0.19704
2379.73033,0.20206
2381.65879,0.20444
2383.58726,0.20264
2385.51573,0.20027
2387.44420,0.20001
2389.37267,0.19950
2391.30114,0.19744
2393.22961,0.19781
2395.15807,0.20208
2397.08654,0.20620
2399.01501,0.20752
2400.94348,0.20659
2402.87195,0.20501
2404.80042,0.20484
2406.72889,0.20634
2408.65736,0.20732
2410.58582,0.20693
2412.51429,0.20699
2414.44276,0.20805
2416.37123,0.20929
2418.29970,0.21128
2420.22817,0.21236
2422.15664,0.21060
2424.08510,0.20756
2426.01357,0.20409
2427.94204,0.20191
2429.87051,0.20275
2431.79898,0.20564
2433.72745,0.20960
2435.65592,0.21097
2437.58439,0.20686
2439.51285,0.20216
2441.44132,0.20180
2443.36979,0.20253
2445.29826,0.20254
2447.22673,0.20381
2449.15520,0.20079
2451.08367,0.19046
2453.01213,0.18313
2454.94060,0.18808
2456.86907,0.19884
2458.79754,0.20426
2460.72601,0.20607
2462.65448,0.20650
2464.58295,0.20306
2466.51142,0.20107
2468.43988,0.20568
2470.36835,0.21118
2472.29682,0.21045
2474.22529,0.20768
2476.15376,0.20840
2478.08223,0.20956
2480.01070,0.20840
2481.93916,0.20641
2483.86763,0.20628
2485.79610,0.20742
2487.72457,0.20655
2489.65304,0.20379
2491.58151,0.20122
2493.50998,0.19969
2495.43844,0.20019
2497.36691,0.20233
2499.29538,0.20409
2501.22385,0.20469
2503.15232,0.20397
2505.08079,0.20307
2507.00926,0.20436
2508.93773,0.20808
2510.86619,0.21052
2512.79466,0.20982
2514.72313,0.20937
2516.65160,0.20951
2518.58007,0.20815
2520.50854,0.20634
2522.43701,0.20542
2524.36547,0.20524
2526.29394,0.20617
2528.22241,0.20904
2530.15088,0.21052
2532.07935,0.20871
2534.00782,0.20835
2535.93629,0.20996
2537.86476,0.21042
2539.79322,0.20934
2541.72169,0.20716
2543.65016,0.20681
2545.57863,0.20935
2547.50710,0.21079
2549.43557,0.21068
2551.36404,0.21230
2553.29250,0.21390
2555.22097,0.21175
2557.14944,0.20859
2559.07791,0.20805
2561.00638,0.20754
2562.93485,0.20597
2564.86332,0.20727
2566.79179,0.21140
2568.72025,0.21364
2570.64872,0.21206
2572.57719,0.20961
2574.50566,0.20917
2576.43413,0.20976
2578.36260,0.20952
2580.29107,0.20759
2582.21953,0.20620
2584.14800,0.20770
2586.07647,0.20916
2588.00494,0.20901
2589.93341,0.20991
2591.86188,0.21249
2593.79035,0.21306
2595.71882,0.21011
2597.64728,0.20856
2599.57575,0.21038
2601.50422,0.21181
2603.43269,0.21223
2605.36116,0.21230
2607.28963,0.21508
2609.21810,0.22607
2611.14656,0.23405
2613.07503,0.22571
2615.00350,0.21454
2616.93197,0.21260
2618.86044,0.21244
2620.78891,0.21192
2622.71738,0.21465
2624.64585,0.21710
2626.57431,0.21596
2628.50278,0.21382
2630.43125,0.21350
2632.35972,0.21310
2634.28819,0.21088
2636.21666,0.21049
2638.14513,0.21259
2640.07359,0.21380
2642.00206,0.21380
2643.93053,0.21281
2645.85900,0.21030
2647.78747,0.20729
2649.71594,0.20644
2651.64441,0.20779
2653.57288,0.20748
2655.50134,0.20561
2657.42981,0.20597
2659.35828,0.20884
2661.28675,0.21255
2663.21522,0.21539
2665.14369,0.21594
2667.07216,0.21525
2669.00062,0.21446
2670.92909,0.21443
2672.85756,0.21592
2674.78603,0.21537
2676.71450,0.21128
2678.64297,0.20910
2680.57144,0.21002
2682.49990,0.21070
2684.42837,0.21119
2686.35684,0.21166
2688.28531,0.21193
2690.21378,0.21371
2692.14225,0.21629
2694.07072,0.21590
2695.99919,0.21253
2697.92765,0.21190
2699.85612,0.21593
2701.78459,0.21958
2703.71306,0.22005
2705.64153,0.21809
2707.57000,0.21528
2709.49847,0.21441
2711.42693,0.21491
2713.35540,0.21499
2715.28387,0.21501
2717.21234,0.21502
2719.14081,0.21676
2721.06928,0.21907
2722.99775,0.21832
2724.92622,0.21632
2726.85468,0.21532
2728.78315,0.21483
2730.71162,0.21537
2732.64009,0.21783
2734.56856,0.22111
2736.49703,0.22243
2738.42550,0.22196
2740.35396,0.22311
2742.28243,0.22413
2744.21090,0.22161
2746.13937,0.21972
2748.06784,0.22095
2749.99631,0.22243
2751.92478,0.22464
2753.85325,0.22592
2755.78171,0.22173
2757.71018,0.21716
2759.63865,0.21812
2761.56712,0.22008
2763.49559,0.22053
2765.42406,0.22130
2767.35253,0.22343
2769.28099,0.22483
2771.20946,0.22193
2773.13793,0.22057
2775.06640,0.22388
2776.99487,0.22544
2778.92334,0.22502
2780.85181,0.22450
2782.78028,0.22260
2784.70874,0.21961
2786.63721,0.21934
2788.56568,0.22439
2790.49415,0.22861
2792.42262,0.22661
2794.35109,0.22233
2796.27956,0.22040
2798.20802,0.22174
2800.13649,0.22460
2802.06496,0.22553
2803.99343,0.22399
2805.92190,0.22262
2807.85037,0.22271
2809.77884,0.22324
2811.70731,0.22381
2813.63577,0.22565
2815.56424,0.22776
2817.49271,0.22795
2819.42118,0.22610
2821.34965,0.22251
2823.27812,0.21984
2825.20659,0.22181
2827.13505,0.22768
2829.06352,0.23178
2830.99199,0.23130
2832.92046,0.23088
2834.84893,0.22988
2836.77740,0.22559
2838.70587,0.22453
2840.63433,0.22789
2842.56280,0.22840
2844.49127,0.22393
2846.41974,0.21977
2848.34821,0.21998
2850.27668,0.22213
2852.20515,0.22349
2854.13362,0.22492
2856.06208,0.22703
2857.99055,0.22862
2859.91902,0.23012
2861.84749,0.23098
2863.77596,0.22808
2865.70443,0.22280
2867.63290,0.21922
2869.56136,0.22037
2871.48983,0.22675
2873.41830,0.23203
2875.34677,0.23105
2877.27524,0.22884
2879.20371,0.22894
2881.13218,0.22772
2883.06065,0.22518
2884.98911,0.22433
2886.91758,0.22539
2888.84605,0.22705
2890.77452,0.22778
2892.70299,0.22563
2894.63146,0.22111
2896.55993,0.21841
2898.48839,0.21898
2900.41686,0.22094
2902.34533,0.22248
2904.27380,0.22155
2906.20227,0.21983
2908.13074,0.22173
2910.05921,0.22381
2911.98768,0.22082
2913.91614,0.21586
2915.84461,0.21293
2917.77308,0.21285
2919.70155,0.21424
2921.63002,0.21438
2923.55849,0.20977
2925.48696,0.20410
2927.41542,0.20479
2929.34389,0.20835
2931.27236,0.21588
2933.20083,0.22612
2935.12930,0.22621
2937.05777,0.22181
2938.98624,0.22385
2940.91471,0.22540
2942.84317,0.22201
2944.77164,0.21841
2946.70011,0.21643
2948.62858,0.21733
2950.55705,0.22301
2952.48552,0.22884
2954.41399,0.22613
2956.34245,0.21484
2958.27092,0.21012
2960.19939,0.21872
2962.12786,0.22636
2964.05633,0.22467
2965.98480,0.22024
2967.91327,0.22029
2969.84174,0.22500
2971.77020,0.22766
2973.69867,0.22636
2975.62714,0.22463
2977.55561,0.22364
2979.48408,0.22529
2981.41255,0.22810
2983.34102,0.22901
2985.26948,0.22959
2987.19795,0.22889
2989.12642,0.22798
2991.05489,0.23256
2992.98336,0.23962
2994.91183,0.24036
2996.84030,0.23651
2998.76877,0.23657
3000.69723,0.23859
3002.62570,0.23638
3004.55417,0.23313
3006.48264,0.23072
3008.41111,0.22677
3010.33958,0.22112
3012.26805,0.20903
3014.19651,0.18697
3016.12498,0.16783
3018.05345,0.17333
3019.98192,0.20089
3021.91039,0.22406
3023.83886,0.23406
3025.76733,0.23796
3027.69579,0.23824
3029.62426,0.23686
3031.55273,0.23463
3033.48120,0.23231
3035.40967,0.23201
3037.33814,0.23269
3039.26661,0.23287
3041.19508,0.23343
3043.12354,0.23455
3045.05201,0.23310
3046.98048,0.22833
3048.90895,0.22465
3050.83742,0.22507
3052.76589,0.22977
3054.69436,0.23363
3056.62282,0.22995
3058.55129,0.22457
3060.47976,0.22502
3062.40823,0.22833
3064.33670,0.22774
3066.26517,0.22157
3068.19364,0.21965
3070.12211,0.22443
3072.05057,0.22689
3073.97904,0.22395
3075.90751,0.22047
3077.83598,0.22473
3079.76445,0.23329
3081.69292,0.23634
3083.62139,0.22994
3085.54985,0.22038
3087.47832,0.22227
3089.40679,0.23318
3091.33526,0.23811
3093.26373,0.23016
3095.19220,0.21876
3097.12067,0.21876
3099.04914,0.22522
3100.97760,0.22579
3102.90607,0.21901
3104.83454,0.21456
3106.76301,0.21895
3108.69148,0.22473
3110.61995,0.22511
3112.54842,0.22442
3114.47688,0.22857
3116.40535,0.23368
3118.33382,0.23621
3120.26229,0.23539
3122.19076,0.23081
3124.11923,0.23009
3126.04770,0.23500
3127.97617,0.23588
3129.90463,0.22963
3131.83310,0.22374
3133.76157,0.22199
3135.69004,0.22282
3137.61851,0.22881
3139.54698,0.23827
3141.47545,0.24260
3143.40391,0.24048
3145.33238,0.23636
3147.26085,0.23258
3149.18932,0.23263
3151.11779,0.23874
3153.04626,0.24536
3154.97473,0.24466
3156.90320,0.23791
3158.83166,0.23183
3160.76013,0.23101
3162.68860,0.23665
3164.61707,0.24264
3166.54554,0.24128
3168.47401,0.23413
3170.40248,0.23062
3172.33094,0.23369
3174.25941,0.23744
3176.18788,0.24022
3178.11635,0.24185
3180.04482,0.24078
3181.97329,0.23926
3183.90176,0.23930
3185.83022,0.23958
3187.75869,0.23784
3189.68716,0.23369
3191.61563,0.23035
3193.54410,0.23283
3195.47257,0.23785
3197.40104,0.23713
3199.32951,0.23481
3201.25797,0.23662
3203.18644,0.23733
3205.11491,0.23373
3207.04338,0.23042
3208.97185,0.23193
3210.90032,0.23512
3212.82879,0.23763
3214.75725,0.24220
3216.68572,0.24253
3218.61419,0.23440
3220.54266,0.22866
3222.47113,0.23064
3224.39960,0.23449
3226.32807,0.23675
3228.25654,0.23534
3230.18500,0.22851
3232.11347,0.22134
3234.04194,0.22007
3235.97041,0.22425
3237.89888,0.23062
3239.82735,0.22952
3241.75582,0.21107
3243.68428,0.19328
3245.61275,0.20233
3247.54122,0.22405
3249.46969,0.23420
3251.39816,0.23859
3253.32663,0.24422
3255.25510,0.24501
3257.18357,0.24041
3259.11203,0.23541
3261.04050,0.23190
3262.96897,0.23026
3264.89744,0.23074
3266.82591,0.23095
3268.75438,0.23050
3270.68285,0.23129
3272.61131,0.23300
3274.53978,0.23666
3276.46825,0.24177
3278.39672,0.24322
3280.32519,0.23886
3282.25366,0.23300
3284.18213,0.23043
3286.11060,0.23173
3288.03906,0.23577
3289.96753,0.23906
3291.89600,0.23731
3293.82447,0.23213
3295.75294,0.22896
3297.68141,0.22932
3299.60988,0.22928
3301.53834,0.22727
3303.46681,0.22699
3305.39528,0.22978
3307.32375,0.23235
3309.25222,0.23292
3311.18069,0.23221
3313.10916,0.23200
3315.03763,0.23420
3316.96609,0.23544
3318.89456,0.23285
3320.82303,0.22955
3322.75150,0.22817
3324.67997,0.23038
3326.60844,0.23406
3328.53691,0.23421
3330.46537,0.23267
3332.39384,0.23426
3334.32231,0.23707
3336.25078,0.23887
3338.17925,0.24133
3340.10772,0.24163
3342.03619,0.23903
3343.96466,0.23734
3345.89312,0.23453
3347.82159,0.23113
3349.75006,0.23353
3351.67853,0.23851
3353.60700,0.23787
3355.53547,0.23512
3357.46394,0.23611
3359.39240,0.23826
3361.32087,0.23928
3363.24934,0.23957
3365.17781,0.23722
3367.10628,0.23242
3369.03475,0.22991
3370.96322,0.23121
3372.89168,0.23555
3374.82015,0.23928
3376.74862,0.23635
3378.67709,0.23019
3380.60556,0.22680
3382.53403,0.22680
3384.46250,0.22920
3386.39097,0.23017
3388.31943,0.23059
3390.24790,0.23452
3392.17637,0.23631
3394.10484,0.23240
3396.03331,0.22992
3397.96178,0.22815
3399.89025,0.22519
3401.81871,0.22460
3403.74718,0.22387
3405.67565,0.22745
3407.60412,0.23511
3409.53259,0.23619
3411.46106,0.23298
3413.38953,0.22870
3415.31800,0.22569
3417.24646,0.23060
3419.17493,0.23672
3421.10340,0.23460
3423.03187,0.23009
3424.96034,0.22650
3426.88881,0.22138
3428.81728,0.22211
3430.74574,0.23139
3432.67421,0.23595
3434.60268,0.22845
3436.53115,0.22106
3438.45962,0.22197
3440.38809,0.22508
3442.31656,0.22768
3444.24503,0.22813
3446.17349,0.22270
3448.10196,0.21329
3450.03043,0.20689
3451.95890,0.20770
3453.88737,0.21392
3455.81584,0.22114
3457.74431,0.22381
3459.67277,0.22177
3461.60124,0.22231
3463.52971,0.22597
3465.45818,0.22394
3467.38665,0.21544
3469.31512,0.21026
3471.24359,0.21197
3473.17206,0.21444
3475.10052,0.21561
3477.02899,0.21787
3478.95746,0.21865
3480.88593,0.21672
3482.81440,0.21387
3484.74287,0.21149
3486.67134,0.21198
3488.59980,0.21248
3490.52827,0.20699
3492.45674,0.19832
3494.38521,0.19595
3496.31368,0.20024
3498.24215,0.20281
3500.17062,0.20320
3502.09909,0.20507
3504.02755,0.20805
3505.95602,0.21035
3507.88449,0.21104
3509.81296,0.20975
3511.74143,0.20526
3513.66990,0.19920
3515.59837,0.19567
3517.52683,0.19407
3519.45530,0.19323
3521.38377,0.19510
3523.31224,0.19806
3525.24071,0.19924
3527.16918,0.19893
3529.09765,0.19719
3531.02611,0.19348
3532.95458,0.18793
3534.88305,0.18222
3536.81152,0.17953
3538.73999,0.18256
3540.66846,0.18934
3542.59693,0.19466
3544.52540,0.19641
3546.45386,0.19530
3548.38233,0.19147
3550.31080,0.18731
3552.23927,0.18530
3554.16774,0.18343
3556.09621,0.18088
3558.02468,0.17813
3559.95314,0.17563
3561.88161,0.17910
3563.81008,0.19034
3565.73855,0.20270
3567.66702,0.20465
3569.59549,0.19288
3571.52396,0.18204
3573.45243,0.17949
3575.38089,0.17904
3577.30936,0.17476
3579.23783,0.17273
3581.16630,0.17521
3583.09477,0.17649
3585.02324,0.17734
3586.95171,0.18046
3588.88017,0.18088
3590.80864,0.17689
3592.73711,0.17326
3594.66558,0.17153
3596.59405,0.17056
3598.52252,0.16959
3600.45099,0.16822
3602.37946,0.16723
3604.30792,0.16675
3606.23639,0.16798
3608.16486,0.17323
3610.09333,0.17832
3612.02180,0.17765
3613.95027,0.17197
3615.87874,0.16798
3617.80720,0.16787
3619.73567,0.16584
3621.66414,0.16213
3623.59261,0.16124
3625.52108,0.16443
3627.44955,0.17256
3629.37802,0.17531
3631.30649,0.16637
3633.23495,0.15863
3635.16342,0.15468
3637.09189,0.15381
3639.02036,0.15333
3640.94883,0.15260
3642.87730,0.15309
3644.80577,0.15791
3646.73423,0.17016
3648.66270,0.18034
3650.59117,0.17366
3652.51964,0.16579
3654.44811,0.16313
3656.37658,0.15872
3658.30505,0.15121
3660.23352,0.14702
3662.16198,0.14668
3664.09045,0.14814
3666.01892,0.15200
3667.94739,0.16067
3669.87586,0.17033
3671.80433,0.17007
3673.73280,0.16561
3675.66126,0.16618
3677.58973,0.16468
3679.51820,0.15529
3681.44667,0.14776
3683.37514,0.14528
3685.30361,0.14508
3687.23208,0.14911
3689.16055,0.15868
3691.08901,0.15833
3693.01748,0.14727
3694.94595,0.14116
3696.87442,0.14115
3698.80289,0.14265
3700.73136,0.14391
3702.65983,0.14363
3704.58829,0.14311
3706.51676,0.14514
3708.44523,0.15069
3710.37370,0.15673
3712.30217,0.15405
3714.23064,0.14936
3716.15911,0.15308
3718.08757,0.15994
3720.01604,0.16434
3721.94451,0.16414
3723.87298,0.15698
3725.80145,0.15006
3727.72992,0.14927
3729.65839,0.15074
3731.58686,0.15299
3733.51532,0.15690
3735.44379,0.16082
3737.37226,0.16201
3739.30073,0.16334
3741.22920,0.16587
3743.15767,0.16457
3745.08614,0.15560
3747.01460,0.14898
3748.94307,0.14728
3750.87154,0.14834
3752.80001,0.15034
3754.72848,0.15055
3756.65695,0.15045
3758.58542,0.14815
3760.51389,0.14192
3762.44235,0.13893
3764.37082,0.13912
3766.29929,0.13849
3768.22776,0.14144
3770.15623,0.14448
3772.08470,0.14117
3774.01317,0.13815
3775.94163,0.13762
3777.87010,0.13927
3779.79857,0.14271
3781.72704,0.14274
3783.65551,0.13984
3785.58398,0.13678
3787.51245,0.13428
3789.44092,0.13470
3791.36938,0.13666
3793.29785,0.13677
3795.22632,0.13777
3797.15479,0.14275
3799.08326,0.14978
3801.01173,0.15572
3802.94020,0.15585
3804.86866,0.15291
3806.79713,0.14678
3808.72560,0.13720
3810.65407,0.13203
3812.58254,0.13348
3814.51101,0.14070
3816.43948,0.14760
3818.36795,0.15181
3820.29641,0.15906
3822.22488,0.15512
3824.15335,0.14257
3826.08182,0.14005
3828.01029,0.14279
3829.93876,0.13748
3831.86723,0.12907
3833.79569,0.13378
3835.72416,0.15034
3837.65263,0.16285
3839.58110,0.16321
3841.50957,0.15863
3843.43804,0.15013
3845.36651,0.14101
3847.29498,0.13797
3849.22344,0.14040
3851.15191,0.14972
3853.08038,0.16078
3855.00885,0.15279
3856.93732,0.14554
3858.86579,0.14549
3860.79426,0.14603
3862.72272,0.14504
3864.65119,0.13939
3866.57966,0.13482
3868.50813,0.14005
3870.43660,0.14761
3872.36507,0.14575
3874.29354,0.13785
3876.22200,0.13011
3878.15047,0.12819
3880.07894,0.13278
3882.00741,0.13846
3883.93588,0.14100
3885.86435,0.13776
3887.79282,0.13016
3889.72129,0.12955
3891.64975,0.13622
3893.57822,0.13490
3895.50669,0.12764
3897.43516,0.12603
3899.36363,0.13086
3901.29210,0.13609
3903.22057,0.14076
3905.14903,0.14096
3907.07750,0.13253
3909.00597,0.12620
3910.93444,0.12763
3912.86291,0.13103
3914.79138,0.13086
3916.71985,0.12980
3918.64832,0.13179
3920.57678,0.13149
3922.50525,0.13128
3924.43372,0.13823
3926.36219,0.14202
3928.29066,0.13555
3930.21913,0.12940
3932.14760,0.13025
3934.07606,0.12973
3936.00453,0.12406
3937.93300,0.12057
3939.86147,0.12206
3941.78994,0.12550
3943.71841,0.12937
3945.64688,0.13199
3947.57535,0.13073
3949.50381,0.12862
3951.43228,0.12888
3953.36075,0.12721
3955.28922,0.12400
3957.21769,0.12135
3959.14616,0.11707
3961.07463,0.11584
3963.00309,0.12340
3964.93156,0.13193
3966.86003,0.13243
3968.78850,0.12921
3970.71697,0.12829
3972.64544,0.12577
3974.57391,0.11891
3976.50238,0.11521
3978.43084,0.11792
3980.35931,0.11891
3982.28778,0.11560
3984.21625,0.11491
3986.14472,0.11953
3988.07319,0.12482
3990.00166,0.12665
3991.93012,0.12629
3993.85859,0.12708
3995.78706,0.12788
3997.71553,0.12617
3999.64400,0.12209
4001.57247,0.11527
4003.50094,0.10902
4005.42941,0.10807
4007.35787,0.11240
4009.28634,0.12114
4011.21481,0.12778
4013.14328,0.12589
4015.07175,0.12080
4017.00022,0.12021
4018.92869,0.12155
4020.85715,0.11847
4022.78562,0.11479
4024.71409,0.11583
4026.64256,0.11788
4028.57103,0.11492
4030.49950,0.10763
4032.42797,0.10232
4034.35644,0.10105
4036.28490,0.10248
4038.21337,0.10727
4040.14184,0.11109
4042.07031,0.10643
4043.99878,0.09960
4045.92725,0.10276
4047.85572,0.11054
4049.78418,0.11193
4051.71265,0.11065
4053.64112,0.11110
4055.56959,0.10644
4057.49806,0.09833
4059.42653,0.09571
4061.35500,0.09551
4063.28346,0.09514
4065.21193,0.09788
4067.14040,0.09876
4069.06887,0.09364
4070.99734,0.09078
4072.92581,0.09460
4074.85428,0.09948
4076.78275,0.10305
4078.71121,0.10578
4080.63968,0.10765
4082.56815,0.10825
4084.49662,0.10748
4086.42509,0.10576
4088.35356,0.10029
4090.28203,0.09459
4092.21049,0.09928
4094.13896,0.11123
4096.06743,0.11557
4097.99590,0.10923
4099.92437,0.10379
4101.85284,0.10396
4103.78131,0.10314
4105.70978,0.10014
4107.63824,0.09790
4109.56671,0.09670
4111.49518,0.09750
4113.42365,0.09976
4115.35212,0.10280
4117.28059,0.10426
4119.20906,0.10145
4121.13752,0.10086
4123.06599,0.10307
4124.99446,0.09987
4126.92293,0.09552
4128.85140,0.09713
4130.77987,0.10168
4132.70834,0.10423
4134.63681,0.10175
4136.56527,0.09509
4138.49374,0.08963
4140.42221,0.08802
4142.35068,0.08623
4144.27915,0.08396
4146.20762,0.08679
4148.13609,0.09277
4150.06455,0.09437
4151.99302,0.09215
4153.92149,0.09128
4155.84996,0.09083
4157.77843,0.08724
4159.70690,0.08250
4161.63537,0.08148
4163.56384,0.08287
4165.49230,0.08356
4167.42077,0.08683
4169.34924,0.09429
4171.27771,0.10123
4173.20618,0.10273
4175.13465,0.09599
4177.06312,0.08322
4178.99158,0.07268
4180.92005,0.06895
4182.84852,0.06881
4184.77699,0.06927
4186.70546,0.07444
4188.63393,0.08834
4190.56240,0.09841
4192.49087,0.09553
4194.41933,0.09732
4196.34780,0.10491
4198.27627,0.09619
4200.20474,0.08209
4202.13321,0.08378
4204.06168,0.08887
4205.99015,0.08835
4207.91861,0.08839
4209.84708,0.08653
4211.77555,0.08047
4213.70402,0.07724
4215.63249,0.07743
4217.56096,0.07478
4219.48943,0.07023
4221.41789,0.06770
4223.34636,0.07086
4225.27483,0.07719
4227.20330,0.07740
4229.13177,0.07557
4231.06024,0.08114
4232.98871,0.08885
4234.91718,0.09056
4236.84564,0.08448
4238.77411,0.07373
4240.70258,0.06927
4242.63105,0.07431
4244.55952,0.07993
4246.48799,0.08413
4248.41646,0.08840
4250.34492,0.08844
4252.27339,0.08030
4254.20186,0.07130
4256.13033,0.06884
4258.05880,0.06788
4259.98727,0.07083
4261.91574,0.07760
4263.84421,0.07239
4265.77267,0.05908
4267.70114,0.05730
4269.62961,0.06400
4271.55808,0.06728
4273.48655,0.06771
4275.41502,0.06844
4277.34349,0.07080
4279.27195,0.07285
4281.20042,0.07134
4283.12889,0.06665
4285.05736,0.06283
4286.98583,0.06339
4288.91430,0.06404
4290.84277,0.06024
4292.77124,0.05786
4294.69970,0.06195
4296.62817,0.06527
4298.55664,0.06313
4300.48511,0.06189
4302.41358,0.06410
4304.34205,0.06790
4306.27052,0.07391
4308.19898,0.07749
4310.12745,0.07427
4312.05592,0.07213
4313.98439,0.07577
4315.91286,0.07701
4317.84133,0.06926
4319.76980,0.05874
4321.69827,0.05684
4323.62673,0.06275
4325.55520,0.06748
4327.48367,0.06680
4329.41214,0.06328
4331.34061,0.06196
4333.26908,0.06151
4335.19755,0.05716
4337.12601,0.05121
4339.05448,0.05015
4340.98295,0.05463
4342.91142,0.05584
4344.83989,0.04715
4346.76836,0.04155
4348.69683,0.05073
4350.62530,0.06219
4352.55376,0.06806
4354.48223,0.06967
4356.41070,0.06318
4358.33917,0.05708
4360.26764,0.05729
4362.19611,0.05488
4364.12458,0.05004
4366.05304,0.04558
4367.98151,0.03946
4369.90998,0.03686
4371.83845,0.04179
4373.76692,0.04525
4375.69539,0.04093
4377.62386,0.03858
4379.55232,0.04456
4381.48079,0.05221
4383.40926,0.05639
4385.33773,0.05434
4387.26620,0.04538
4389.19467,0.03882
4391.12314,0.03995
4393.05161,0.04171
4394.98007,0.04138
4396.90854,0.04146
4398.83701,0.04335
4400.76548,0.04558
4402.69395,0.04667
4404.62242,0.04929
4406.55089,0.05113
4408.47935,0.04835
4410.40782,0.04675
4412.33629,0.04864
4414.26476,0.04354
4416.19323,0.03179
4418.12170,0.02945
4420.05017,0.03832
4421.97864,0.04455
4423.90710,0.03920
4425.83557,0.02791
4427.76404,0.02360
4429.69251,0.02469
4431.62098,0.02107
4433.54945,0.01627
4435.47792,0.02002
4437.40638,0.02886
4439.33485,0.03297
4441.26332,0.03561
4443.19179,0.03849
4445.12026,0.03630
4447.04873,0.03040
4448.97720,0.02247
4450.90567,0.01925
4452.83413,0.02712
4454.76260,0.03986
4456.69107,0.04675
4458.61954,0.04404
4460.54801,0.04200
4462.47648,0.04464
4464.40495,0.04351
4466.33341,0.03832
4468.26188,0.03373
4470.19035,0.02964
4472.11882,0.02500
4474.04729,0.02110
4475.97576,0.01919
4477.90423,0.02110
4479.83270,0.02825
4481.76116,0.03402
4483.68963,0.03112
4485.61810,0.02624
4487.54657,0.02624
4489.47504,0.02783
4491.40351,0.03119
4493.33198,0.03676
4495.26044,0.04153
4497.18891,0.04506
4499.11738,0.04356
4501.04585,0.03506
4502.97432,0.02773
4504.90279,0.02835
4506.83126,0.03196
4508.75973,0.03173
4510.68819,0.03001
4512.61666,0.02640
4514.54513,0.01880
4516.47360,0.01135
4518.40207,0.00865
4520.33054,0.01574
4522.25901,0.02336
4524.18747,0.01820
4526.11594,0.00947
4528.04441,0.00773
4529.97288,0.00884
4531.90135,0.01049
4533.82982,0.01526
4535.75829,0.01787
4537.68676,0.01357
4539.61522,0.00603
4541.54369,0.00291
4543.47216,0.00911
4545.40063,0.01537
4547.32910,0.01230
4549.25757,0.00681
4551.18604,0.00641
4553.11450,0.00747
4555.04297,0.00724
4556.97144,0.01168
4558.89991,0.02197
4560.82838,0.02788
4562.75685,0.02106
4564.68532,0.00789
4566.61378,0.00414
4568.54225,0.01162
4570.47072,0.01955
4572.39919,0.02550
4574.32766,0.02639
4576.25613,0.01629
4578.18460,0.00880
4580.11307,0.01827
4582.04153,0.03161
4583.97000,0.03259
4585.89847,0.02078
4587.82694,0.00787
4589.75541,0.00820
4591.68388,0.01608
4593.61235,0.01750
4595.54081,0.01175
4597.46928,0.00547
4599.39775,0.00593
4601.32622,0.01217
4603.25469,0.01779
4605.18316,0.01814
4607.11163,0.01487
4609.04010,0.01685
4610.96856,0.02495
4612.89703,0.02898
4614.82550,0.02524
4616.75397,0.02067
4618.68244,0.02135
4620.61091,0.02289
4622.53938,0.01938
4624.46784,0.01488
4626.39631,0.01335
4628.32478,0.01374
4630.25325,0.01642
4632.18172,0.01975
4634.11019,0.01801
4636.03866,0.01095
4637.96713,0.00761
4639.89559,0.01125
4641.82406,0.01026
4643.75253,0.00223
4645.68100,0.00358
4647.60947,0.01376
4649.53794,0.01436
4651.46641,0.00536
4653.39487,0.00199
4655.32334,0.00647
4657.25181,0.00556
4659.18028,-0.00147
4661.10875,-0.00321
4663.03722,0.00608
4664.96569,0.02299
4666.89416,0.03136
4668.82262,0.02836
4670.75109,0.02427
4672.67956,0.01447
4674.60803,0.00295
4676.53650,-0.00060
4678.46497,-0.00413
4680.39344,-0.00700
4682.32190,-0.00143
4684.25037,0.00049
4686.17884,-0.00801
4688.10731,-0.00808
4690.03578,0.00694
4691.96425,0.01840
4693.89272,0.01861
4695.82119,0.01441
4697.74965,0.01130
4699.67812,0.01317
4701.60659,0.01334
4703.53506,0.00652
4705.46353,0.00986
4707.39200,0.02897
4709.32047,0.04321
4711.24893,0.04184
4713.17740,0.03570
4715.10587,0.03437
4717.03434,0.02798
4718.96281,0.01310
4720.89128,0.00723
4722.81975,0.01672
4724.74821,0.02576
4726.67668,0.01662
4728.60515,-0.00193
4730.53362,-0.00298
4732.46209,0.01120
4734.39056,0.01735
4736.31903,0.01847
4738.24750,0.02169
4740.17596,0.01350
4742.10443,0.00055
4744.03290,0.00083
4745.96137,0.00664
4747.88984,0.00758
4749.81831,0.00575
4751.74678,0.00480
4753.67524,0.00776
4755.60371,0.01106
4757.53218,0.01437
4759.46065,0.02294
4761.38912,0.02247
4763.31759,0.00987
4765.24606,0.00710
4767.17453,0.01159
4769.10299,0.00810
4771.03146,0.00059
4772.95993,0.00021
4774.88840,0.00545
4776.81687,0.00524
4778.74534,0.00294
4780.67381,0.00712
4782.60227,0.01206
4784.53074,0.01126
4786.45921,0.00726
4788.38768,0.00433
4790.31615,0.00243
4792.24462,-0.00364
4794.17309,-0.00925
4796.10156,-0.00069
4798.03002,0.01475
4799.95849,0.02286
4801.88696,0.02597
4803.81543,0.02439
4805.74390,0.01947
4807.67237,0.02128
4809.60084,0.02907
4811.52930,0.03224
4813.45777,0.02392
4815.38624,0.00843
4817.31471,0.00302
4819.24318,0.01100
4821.17165,0.01826
4823.10012,0.02417
4825.02859,0.02767
4826.95705,0.01769
4828.88552,0.00242
4830.81399,-0.00277
4832.74246,0.00002
4834.67093,0.00475
4836.59940,0.00955
4838.52787,0.00815
4840.45633,-0.00126
4842.38480,-0.00885
4844.31327,-0.01186
4846.24174,-0.01538
4848.17021,-0.01086
4850.09868,0.00932
4852.02715,0.03148
4853.95562,0.04177
4855.88408,0.03474
4857.81255,0.01979
4859.74102,0.01886
4861.66949,0.02831
4863.59796,0.02664
4865.52643,0.01601
4867.45490,0.01339
4869.38336,0.01840
4871.31183,0.01908
4873.24030,0.01654
4875.16877,0.01893
4877.09724,0.02291
4879.02571,0.01990
4880.95418,0.00927
4882.88265,-0.00158
4884.81111,-0.00468
4886.73958,-0.00340
4888.66805,0.00068
4890.59652,0.00977
4892.52499,0.00877
4894.45346,-0.00112
4896.38193,0.00544
4898.31039,0.02456
4900.23886,0.03320
4902.16733,0.03400
4904.09580,0.03356
4906.02427,0.02634
4907.95274,0.01706
4909.88121,0.01323
4911.80967,0.00587
4913.73814,-0.00693
4915.66661,-0.00677
4917.59508,0.00185
4919.52355,-0.00123
4921.45202,-0.00789
4923.38049,-0.00242
4925.30896,0.00869
4927.23742,0.01457
4929.16589,0.01866
4931.09436,0.02203
4933.02283,0.02125
4934.95130,0.02277
4936.87977,0.03361
4938.80824,0.04251
4940.73670,0.03464
4942.66517,0.02261
4944.59364,0.02055
4946.52211,0.01194
4948.45058,-0.00854
4950.37905,-0.01513
4952.30752,-0.00227
4954.23599,0.01664
4956.16445,0.02800
4958.09292,0.01634
4960.02139,0.00173
4961.94986,0.01675
4963.87833,0.04459
4965.80680,0.04842
4967.73527,0.03347
4969.66373,0.02381
4971.59220,0.01516
4973.52067,0.00322
4975.44914,-0.00512
4977.37761,-0.00543
4979.30608,0.00908
4981.23455,0.03280
4983.16302,0.04945
4985.09148,0.05244
4987.01995,0.03903
4988.94842,0.01038
4990.87689,-0.01279
4992.80536,-0.00946
4994.73383,0.00755
4996.66230,0.01428
4998.59076,0.01285
5000.51923,0.01386
5002.44770,0.02262
5004.37617,0.03669
5006.30464,0.03864
5008.23311,0.02746
5010.16158,0.01693
5012.09005,0.00949
5014.01851,0.00743
5015.94698,0.00653
5017.87545,0.00455
5019.80392,0.00921
5021.73239,0.01446
5023.66086,0.02115
5025.58933,0.03344
5027.51779,0.03652
5029.44626,0.03010
5031.37473,0.03085
5033.30320,0.03220
5035.23167,0.01764
5037.16014,-0.00017
5039.08861,-0.00415
5041.01708,0.00239
5042.94554,0.00489
5044.87401,0.00435
5046.80248,0.01390
5048.73095,0.02117
5050.65942,0.02096
5052.58789,0.02571
5054.51636,0.02431
5056.44482,0.01090
5058.37329,0.00777
5060.30176,0.02310
5062.23023,0.03679
5064.15870,0.03868
5066.08717,0.03479
5068.01564,0.02941
5069.94410,0.02380
5071.87257,0.02152
5073.80104,0.02344
5075.72951,0.02982
5077.65798,0.04090
5079.58645,0.04561
5081.51492,0.04302
5083.44339,0.03498
5085.37185,0.02049
5087.30032,0.01591
5089.22879,0.02278
5091.15726,0.02724
5093.08573,0.02702
5095.01420,0.02579
5096.94267,0.03276
5098.87113,0.04931
5100.79960,0.05478
5102.72807,0.03855
5104.65654,0.02182
5106.58501,0.02094
5108.51348,0.02436
5110.44195,0.02137
5112.37042,0.02187
5114.29888,0.02873
5116.22735,0.02694
5118.15582,0.02364
5120.08429,0.03423
5122.01276,0.04174
5123.94123,0.03579
5125.86970,0.02944
5127.79816,0.02694
5129.72663,0.02600
5131.65510,0.02217
5133.58357,0.01169
5135.51204,0.00741
5137.44051,0.02402
5139.36898,0.04670
5141.29745,0.04667
5143.22591,0.03257
5145.15438,0.03494
5147.08285,0.03897
5149.01132,0.02051
5150.93979,0.00899
5152.86826,0.01905
5154.79673,0.02233
5156.72519,0.01458
5158.65366,0.01084
5160.58213,0.01238
5162.51060,0.01857
5164.43907,0.02736
5166.36754,0.02663
5168.29601,0.01790
5170.22448,0.01876
5172.15294,0.02763
5174.08141,0.03395
5176.00988,0.03673
5177.93835,0.03787
5179.86682,0.04537
5181.79529,0.05458
5183.72376,0.05394
5185.65222,0.04656
5187.58069,0.03835
5189.50916,0.03517
5191.43763,0.03609
5193.36610,0.03220
5195.29457,0.03586
5197.22304,0.06579
5199.15151,0.09903
5201.07997,0.09974
5203.00844,0.08103
5204.93691,0.07144
5206.86538,0.06937
5208.79385,0.06099
5210.72232,0.04642
5212.65079,0.03800
5214.57925,0.04173
5216.50772,0.03900
5218.43619,0.02825
5220.36466,0.04091
5222.29313,0.07085
5224.22160,0.08804
5226.15007,0.08670
5228.07854,0.07019
5230.00700,0.04879
5231.93547,0.03573
5233.86394,0.03377
5235.79241,0.04012
5237.72088,0.05111
5239.64935,0.04622
5241.57782,0.01994
5243.50628,0.00932
5245.43475,0.01374
5247.36322,0.01089
5249.29169,0.03281
5251.22016,0.06588
5253.14863,0.06147
5255.07710,0.03942
5257.00556,0.03385
5258.93403,0.02427
5260.86250,0.00697
5262.79097,0.01582
5264.71944,0.03793
5266.64791,0.04918
5268.57638,0.06461
5270.50485,0.07734
5272.43331,0.07251
5274.36178,0.06532
5276.29025,0.06585
5278.21872,0.05999
5280.14719,0.04352
5282.07566,0.03299
5284.00413,0.02952
5285.93259,0.01983
5287.86106,0.01669
5289.78953,0.03793
5291.71800,0.06462
5293.64647,0.06814
5295.57494,0.04985
5297.50341,0.03179
5299.43188,0.03541
5301.36034,0.05565
5303.28881,0.06399
5305.21728,0.05267
5307.14575,0.04383
5309.07422,0.04480
5311.00269,0.05185
5312.93116,0.06980
5314.85962,0.09310
5316.78809,0.11271
5318.71656,0.11507
5320.64503,0.08831
5322.57350,0.05834
5324.50197,0.05655
5326.43044,0.07560
5328.35891,0.09151
5330.28737,0.08345
5332.21584,0.05686
5334.14431,0.04093
5336.07278,0.03822
5338.00125,0.03987
5339.92972,0.04460
5341.85819,0.05034
5343.78665,0.06403
5345.71512,0.07101
5347.64359,0.06861
5349.57206,0.06563
5351.50053,0.04637
5353.42900,0.03679
5355.35747,0.06140
5357.28594,0.08434
5359.21440,0.09848
5361.14287,0.10064
5363.07134,0.07980
5364.99981,0.06492
5366.92828,0.06429
5368.85675,0.05683
5370.78522,0.05862
5372.71368,0.07539
5374.64215,0.08774
5376.57062,0.09398
5378.49909,0.09557
5380.42756,0.09065
5382.35603,0.07380
5384.28450,0.04963
5386.21297,0.05010
5388.14143,0.07746
5390.06990,0.09462
5391.99837,0.08652
5393.92684,0.07686
5395.85531,0.08868
5397.78378,0.09466
5399.71225,0.08811
5401.64071,0.08481
5403.56918,0.07330
5405.49765,0.05549
5407.42612,0.04513
5409.35459,0.03719
5411.28306,0.03455
5413.21153,0.04516
5415.13999,0.05846
5417.06846,0.07254
5418.99693,0.09501
5420.92540,0.10535
5422.85387,0.08422
5424.78234,0.05826
5426.71081,0.05287
5428.63928,0.05811
5430.56774,0.06132
5432.49621,0.06949
5434.42468,0.08415
5436.35315,0.07776
5438.28162,0.04915
5440.21009,0.03311
5442.13856,0.03916
5444.06702,0.05799
5445.99549,0.07789
5447.92396,0.07187
5449.85243,0.04363
5451.78090,0.03884
5453.70937,0.06688
5455.63784,0.08766
5457.56631,0.08512
5459.49477,0.07433
5461.42324,0.06458
5463.35171,0.07282
5465.28018,0.08618
5467.20865,0.08143
5469.13712,0.06412
5471.06559,0.04930
5472.99405,0.04411
5474.92252,0.04526
5476.85099,0.05126
5478.77946,0.05545
5480.70793,0.05435
5482.63640,0.06137
5484.56487,0.07892
5486.49334,0.08755
5488.42180,0.07429
5490.35027,0.05824
5492.27874,0.06949
5494.20721,0.10321
5496.13568,0.12449
5498.06415,0.11870
5499.99262,0.10880
5501.92108,0.11348
5503.84955,0.11336
5505.77802,0.09775
5507.70649,0.08239
5509.63496,0.07108
5511.56343,0.04959
5513.49190,0.03836
5515.42037,0.05747
5517.34883,0.08063
5519.27730,0.09027
5521.20577,0.08807
5523.13424,0.08561
5525.06271,0.09260
5526.99118,0.09130
5528.91965,0.07053
5530.84811,0.05357
5532.77658,0.05495
5534.70505,0.05908
5536.63352,0.06403
5538.56199,0.07547
5540.49046,0.07882
5542.41893,0.07387
5544.34740,0.07539
5546.27586,0.07593
5548.20433,0.08276
5550.13280,0.10699
5552.06127,0.12586
5553.98974,0.13099
5555.91821,0.12499
5557.84668,0.10333
5559.77514,0.08197
5561.70361,0.07523
5563.63208,0.06801
5565.56055,0.05163
5567.48902,0.04746
5569.41749,0.05291
5571.34596,0.04250
5573.27443,0.02695
5575.20289,0.03312
5577.13136,0.04553
5579.05983,0.04678
5580.98830,0.05627
5582.91677,0.07460
5584.84524,0.08231
5586.77371,0.08486
5588.70217,0.08454
5590.63064,0.07536
5592.55911,0.08168
5594.48758,0.11796
5596.41605,0.12768
5598.34452,0.08095
5600.27299,0.05319
5602.20145,0.07032
5604.12992,0.07736
5606.05839,0.07238
5607.98686,0.07705
5609.91533,0.07724
5611.84380,0.04800
5613.77227,0.02182
5615.70074,0.04810
5617.62920,0.08721
5619.55767,0.08192
5621.48614,0.04785
5623.41461,0.04063
5625.34308,0.05887
5627.27155,0.05857
5629.20002,0.04699
5631.12848,0.04320
5633.05695,0.05655
5634.98542,0.09057
5636.91389,0.11249
5638.84236,0.10023
5640.77083,0.06694
5642.69930,0.04266
5644.62777,0.05657
5646.55623,0.08033
5648.48470,0.07330
5650.41317,0.06626
5652.34164,0.07415
5654.27011,0.07584
5656.19858,0.06660
5658.12705,0.05892
5660.05551,0.07705
5661.98398,0.11249
5663.91245,0.13658
5665.84092,0.14455
5667.76939,0.14421
5669.69786,0.13857
5671.62633,0.11996
5673.55480,0.09778
5675.48326,0.08319
5677.41173,0.06443
5679.34020,0.06055
5681.26867,0.08697
5683.19714,0.10131
5685.12561,0.07771
5687.05408,0.04294
5688.98254,0.03857
5690.91101,0.06816
5692.83948,0.10128
5694.76795,0.12541
5696.69642,0.12805
5698.62489,0.09474
5700.55336,0.05867
5702.48183,0.05594
5704.41029,0.06442
5706.33876,0.06848
5708.26723,0.07893
5710.19570,0.09172
5712.12417,0.10214
5714.05264,0.11802
5715.98111,0.14074
5717.90957,0.14251
5719.83804,0.11633
5721.76651,0.08950
5723.69498,0.07032
5725.62345,0.06288
5727.55192,0.07342
5729.48039,0.10145
5731.40886,0.13239
5733.33732,0.14619
5735.26579,0.14819
5737.19426,0.15944
5739.12273,0.15823
5741.05120,0.11826
5742.97967,0.09505
5744.90814,0.11823
5746.83660,0.14024
5748.76507,0.15556
5750.69354,0.17669
5752.62201,0.16885
5754.55048,0.12941
5756.47895,0.09980
5758.40742,0.10512
5760.33588,0.13174
5762.26435,0.13635
5764.19282,0.10801
5766.12129,0.08876
5768.04976,0.08801
5769.97823,0.09277
5771.90670,0.10193
5773.83517,0.09586
5775.76363,0.09531
5777.69210,0.12142
5779.62057,0.12058
5781.54904,0.08482
5783.47751,0.07816
5785.40598,0.11168
5787.33445,0.12617
5789.26291,0.08838
5791.19138,0.04168
5793.11985,0.04483
5795.04832,0.09535
5796.97679,0.13387
5798.90526,0.13282
5800.83373,0.12589
5802.76220,0.12573
5804.69066,0.11900
5806.61913,0.10647
5808.54760,0.09196
5810.47607,0.09191
5812.40454,0.09742
5814.33301,0.08354
5816.26148,0.06959
5818.18994,0.06922
5820.11841,0.09241
5822.04688,0.12925
5823.97535,0.13092
5825.90382,0.09436
5827.83229,0.04613
5829.76076,0.01855
5831.68923,0.03925
5833.61769,0.07163
5835.54616,0.06443
5837.47463,0.05390
5839.40310,0.07571
5841.33157,0.09040
5843.26004,0.08271
5845.18851,0.07701
5847.11697,0.08181
5849.04544,0.09810
5850.97391,0.08430
5852.90238,0.01523
5854.83085,-0.02428
5856.75932,0.00317
5858.68779,0.02269
5860.61626,0.02770
5862.54472,0.05915
5864.47319,0.08529
5866.40166,0.06078
5868.33013,0.02050
5870.25860,0.01887
5872.18707,0.03755
5874.11554,0.04603
5876.04400,0.05294
5877.97247,0.07150
5879.90094,0.09020
5881.82941,0.08278
5883.75788,0.06247
5885.68635,0.07102
5887.61482,0.10347
5889.54329,0.11028
5891.47175,0.07407
5893.40022,0.04393
5895.32869,0.06315
5897.25716,0.10515
5899.18563,0.11462
5901.11410,0.08737
5903.04257,0.07383
5904.97103,0.09524
5906.89950,0.10973
5908.82797,0.10179
5910.75644,0.10339
5912.68491,0.08923
5914.61338,0.05073
5916.54185,0.06297
5918.47032,0.11505
5920.39878,0.15369
5922.32725,0.17677
5924.25572,0.17158
5926.18419,0.15650
5928.11266,0.13910
5930.04113,0.09840
5931.96960,0.07130
5933.89806,0.06339
5935.82653,0.02584
5937.75500,-0.01338
5939.68347,0.01569
5941.61194,0.08954
5943.54041,0.11180
5945.46888,0.08915
5947.39734,0.09353
5949.32581,0.09759
5951.25428,0.05840
5953.18275,0.03407
5955.11122,0.06883
5957.03969,0.11557
5958.96816,0.12257
5960.89663,0.10144
5962.82509,0.09225
5964.75356,0.09166
5966.68203,0.07312
5968.61050,0.06358
5970.53897,0.08785
5972.46744,0.08425
5974.39591,0.04075
5976.32437,0.03927
5978.25284,0.07310
5980.18131,0.06645
5982.10978,0.03512
5984.03825,0.05496
5985.96672,0.10723
5987.89519,0.11534
5989.82366,0.09779
5991.75212,0.10370
5993.68059,0.13349
5995.60906,0.17226
5997.53753,0.18114
5999.46600,0.14533
6001.39447,0.09829
6003.32294,0.08081
6005.25140,0.11659
6007.17987,0.17502
6009.10834,0.19887
6011.03681,0.16375
6012.96528,0.10784
6014.89375,0.10514
6016.82222,0.14996
6018.75069,0.14985
6020.67915,0.10418
6022.60762,0.08583
6024.53609,0.07205
6026.46456,0.03400
6028.39303,0.01307
6030.32150,0.02123
6032.24997,0.01369
6034.17843,-0.00495
6036.10690,0.00596
6038.03537,0.02799
6039.96384,0.03403
6041.89231,0.03340
6043.82078,0.03763
6045.74925,0.06289
6047.67772,0.11858
6049.60618,0.14852
6051.53465,0.09505
6053.46312,0.04069
6055.39159,0.04647
6057.32006,0.03737
6059.24853,0.00485
6061.17700,0.00562
6063.10546,0.02402
6065.03393,0.04644
6066.96240,0.07531
6068.89087,0.06964
6070.81934,0.05655
6072.74781,0.09936
6074.67628,0.12549
6076.60475,0.07982
6078.53321,0.04355
6080.46168,0.05522
6082.39015,0.07947
6084.31862,0.09969
6086.24709,0.10497
6088.17556,0.11112
6090.10403,0.16801
6092.03249,0.21206
6093.96096,0.15775
6095.88943,0.08640
6097.81790,0.08713
6099.74637,0.12006
6101.67484,0.10443
6103.60331,0.05908
6105.53177,0.05541
6107.46024,0.07877
6109.38871,0.09305
6111.31718,0.10555
6113.24565,0.11378
6115.17412,0.10279
6117.10259,0.08664
6119.03106,0.08442
6120.95952,0.07979
6122.88799,0.08675
6124.81646,0.11653
6126.74493,0.12053
6128.67340,0.07631
6130.60187,0.03890
6132.53034,0.05012
6134.45880,0.07802
6136.38727,0.09189
6138.31574,0.10170
6140.24421,0.09452
6142.17268,0.05558
6144.10115,0.03293
6146.02962,0.05943
6147.95809,0.10973
6149.88655,0.15706
6151.81502,0.17965
6153.74349,0.13050
6155.67196,0.01584
6157.60043,-0.05877
6159.52890,-0.02189
6161.45737,0.07208
6163.38583,0.10681
6165.31430,0.07300
6167.24277,0.05593
6169.17124,0.05297
6171.09971,0.01366
6173.02818,-0.01360
6174.95665,0.02628
6176.88512,0.07010
6178.81358,0.09187
6180.74205,0.13105
6182.67052,0.15752
6184.59899,0.13684
6186.52746,0.09686
6188.45593,0.07139
6190.38440,0.06956
6192.31286,0.09154
6194.24133,0.12079
6196.16980,0.15407
6198.09827,0.17888
6200.02674,0.15630
6201.95521,0.09768
6203.88368,0.04605
6205.81215,0.03296
6207.74061,0.06745
6209.66908,0.12753
6211.59755,0.14406
6213.52602,0.11289
6215.45449,0.07213
6217.38296,0.02036
6219.31143,0.00071
6221.23989,0.04864
6223.16836,0.10602
6225.09683,0.09117
6227.02530,0.05082
6228.95377,0.06278
6230.88224,0.09267
6232.81071,0.09866
6234.73918,0.09725
6236.66764,0.10067
6238.59611,0.08714
6240.52458,0.04832
6242.45305,0.01493
6244.38152,0.02871
6246.30999,0.10804
6248.23846,0.20557
6250.16692,0.22973
6252.09539,0.16205
6254.02386,0.09132
6255.95233,0.07053
6257.88080,0.08721
6259.80927,0.10788
6261.73774,0.10320
6263.66621,0.07735
6265.59467,0.06593
6267.52314,0.06046
6269.45161,0.03748
6271.38008,0.02650
6273.30855,0.02444
6275.23702,0.01880
6277.16549,0.02695
6279.09395,0.03145
6281.02242,0.05095
6282.95089,0.11513
6284.87936,0.14951
6286.80783,0.11895
6288.73630,0.06539
6290.66477,-0.01115
6292.59323,-0.05846
6294.52170,-0.02177
6296.45017,0.04571
6298.37864,0.09890
6300.30711,0.12575
6302.23558,0.11996
6304.16405,0.08500
6306.09252,0.03146
6308.02098,0.01353
6309.94945,0.04706
6311.87792,0.07755
6313.80639,0.10361
6315.73486,0.14873
6317.66333,0.18994
6319.59180,0.20712
6321.52026,0.20406
6323.44873,0.18684
6325.37720,0.15273
6327.30567,0.09167
6329.23414,0.04136
6331.16261,0.06368
6333.09108,0.11335
6335.01955,0.09181
6336.94801,0.01284
6338.87648,-0.01131
6340.80495,0.05642
6342.73342,0.12638
6344.66189,0.14716
6346.59036,0.14947
6348.51883,0.15700
6350.44729,0.12644
6352.37576,0.05203
6354.30423,0.03303
6356.23270,0.07294
6358.16117,0.08371
6360.08964,0.04671
6362.01811,0.03436
6363.94658,0.09018
6365.87504,0.15703
6367.80351,0.15887
6369.73198,0.10951
6371.66045,0.05365
6373.58892,0.03372
6375.51739,0.07799
6377.44586,0.12291
6379.37432,0.09605
6381.30279,0.00871
6383.23126,-0.06857
6385.15973,-0.08434
6387.08820,-0.06086
6389.01667,0.00797
6390.94514,0.09401
6392.87361,0.12166
6394.80207,0.10889
6396.73054,0.12080
6398.65901,0.17060
6400.58748,0.20075
6402.51595,0.15315
6404.44442,0.09140
6406.37289,0.06459
6408.30135,0.02832
6410.22982,0.00326
6412.15829,0.03573
6414.08676,0.07996
6416.01523,0.10216
6417.94370,0.10844
6419.87217,0.11305
6421.80064,0.10291
6423.72910,0.04620
6425.65757,0.00050
6427.58604,0.05603
6429.51451,0.13776
6431.44298,0.10275
6433.37145,0.00605
6435.29992,-0.02344
6437.22838,0.01575
6439.15685,0.07497
6441.08532,0.12111
6443.01379,0.13303
6444.94226,0.10686
6446.87073,0.08520
6448.79920,0.07323
6450.72766,0.03110
6452.65613,-0.00372
6454.58460,0.00781
6456.51307,0.00739
6458.44154,-0.01391
6460.37001,-0.00190
6462.29848,0.03983
6464.22695,0.06860
6466.15541,0.05323
6468.08388,0.02176
6470.01235,0.02584
6471.94082,0.02645
6473.86929,-0.01925
6475.79776,-0.04405
6477.72623,0.03889
6479.65469,0.18596
6481.58316,0.23814
6483.51163,0.15159
6485.44010,0.06510
6487.36857,0.05375
6489.29704,0.06694
6491.22551,0.05796
6493.15398,0.07606
6495.08244,0.13704
6497.01091,0.15318
6498.93938,0.10022
6500.86785,0.06529
6502.79632,0.09595
6504.72479,0.12373
6506.65326,0.13012
6508.58172,0.15363
6510.51019,0.18542
6512.43866,0.19958
6514.36713,0.15958
6516.29560,0.02599
6518.22407,-0.07995
6520.15254,-0.05020
6522.08101,0.02647
6524.00947,0.09829
6525.93794,0.16267
6527.86641,0.16374
6529.79488,0.09614
6531.72335,0.03494
6533.65182,0.03901
6535.58029,0.07248
6537.50875,0.07463
6539.43722,0.06362
6541.36569,0.11359
6543.29416,0.21544
6545.22263,0.26116
6547.15110,0.23585
6549.07957,0.21052
6551.00804,0.21051
6552.93650,0.23832
6554.86497,0.26965
6556.79344,0.21097
6558.72191,0.10419
6560.65038,0.08087
6562.57885,0.04231
6564.50732,-0.11681
6566.43578,-0.22092
6568.36425,-0.17806
6570.29272,-0.11186
6572.22119,-0.05956
6574.14966,0.01056
6576.07813,0.08732
6578.00660,0.14059
6579.93507,0.16393
6581.86353,0.16864
6583.79200,0.15924
6585.72047,0.16128
6587.64894,0.17640
6589.57741,0.19237
6591.50588,0.18306
6593.43435,0.11202
6595.36281,0.06311
6597.29128,0.08466
6599.21975,0.07502
6601.14822,0.03790
6603.07669,0.06400
6605.00516,0.10912
6606.93363,0.12508
6608.86210,0.13321
6610.79056,0.10270
6612.71903,0.00631
6614.64750,-0.07245
6616.57597,-0.06958
6618.50444,-0.01275
6620.43291,0.07718
6622.36138,0.19149
6624.28984,0.23639
6626.21831,0.15902
6628.14678,0.06279
6630.07525,0.04998
6632.00372,0.07294
6633.93219,0.06875
6635.86066,0.01758
6637.78912,-0.06523
6639.71759,-0.11825
6641.64606,-0.12823
6643.57453,-0.08564
6645.50300,0.00850
6647.43147,0.10014
6649.35994,0.13559
6651.28841,0.09161
6653.21687,-0.00466
6655.14534,-0.09341
6657.07381,-0.08547
6659.00228,0.03583
6660.93075,0.10832
6662.85922,0.07653
6664.78769,0.02604
6666.71615,0.03260
6668.64462,0.12621
6670.57309,0.19771
6672.50156,0.16601
6674.43003,0.10702
6676.35850,0.06956
6678.28697,0.03938
6680.21544,0.02513
6682.14390,0.04925
6684.07237,0.10768
6686.00084,0.16109
6687.92931,0.16362
6689.85778,0.13827
6691.78625,0.12679
6693.71472,0.08661
6695.64318,0.05350
6697.57165,0.10875
6699.50012,0.17748
6701.42859,0.17190
6703.35706,0.12039
6705.28553,0.08592
6707.21400,0.11104
6709.14247,0.13752
6711.07093,0.08429
6712.99940,0.01424
6714.92787,-0.00900
6716.85634,0.01044
6718.78481,0.03919
6720.71328,-0.03653
6722.64175,-0.18070
6724.57021,-0.20246
6726.49868,-0.10694
6728.42715,0.01543
6730.35562,0.08870
6732.28409,0.09140
6734.21256,0.08888
6736.14103,0.09380
6738.06950,0.10971
6739.99796,0.12785
6741.92643,0.09636
6743.85490,0.06679
6745.78337,0.09471
6747.71184,0.10413
6749.64031,0.04379
6751.56878,-0.03218
6753.49724,-0.06932
6755.42571,-0.02882
6757.35418,0.07882
6759.28265,0.16423
6761.21112,0.12455
6763.13959,0.03302
6765.06806,0.02184
6766.99653,0.05505
6768.92499,0.04614
6770.85346,0.03645
6772.78193,0.10045
6774.71040,0.19408
6776.63887,0.18965
6778.56734,0.12156
6780.49581,0.15748
6782.42427,0.26544
6784.35274,0.27905
6786.28121,0.19626
6788.20968,0.11539
6790.13815,0.05442
6792.06662,0.02170
6793.99509,0.04059
6795.92355,0.06510
6797.85202,0.04991
6799.78049,0.01732
6801.70896,-0.00901
6803.63743,-0.00193
6805.56590,0.05207
6807.49437,0.08161
6809.42284,0.06779
6811.35130,0.06245
6813.27977,0.08363
6815.20824,0.12228
6817.13671,0.13784
6819.06518,0.10909
6820.99365,0.07146
6822.92212,0.02931
6824.85058,-0.01962
6826.77905,-0.03391
6828.70752,0.03313
6830.63599,0.08614
6832.56446,0.00631
6834.49293,-0.07128
6836.42140,0.00210
6838.34987,0.07407
6840.27833,0.01557
6842.20680,-0.01939
6844.13527,0.05308
6846.06374,0.10882
6847.99221,0.07200
6849.92068,0.03694
6851.84915,0.05075
6853.77761,0.05344
6855.70608,0.05611
6857.63455,0.07409
6859.56302,0.06800
6861.49149,0.03058
6863.41996,0.01848
6865.34843,0.08159
6867.27690,0.13861
6869.20536,0.10462
6871.13383,0.01952
6873.06230,-0.08394
6874.99077,-0.13223
6876.91924,-0.07874
6878.84771,0.03033
6880.77618,0.14264
6882.70464,0.19534
6884.63311,0.14349
6886.56158,0.03169
6888.49005,-0.05102
6890.41852,-0.06797
6892.34699,0.01705
6894.27546,0.13121
6896.20393,0.11812
6898.13239,0.06913
6900.06086,0.10879
6901.98933,0.09977
6903.91780,0.01790
6905.84627,-0.02168
6907.77474,0.00051
6909.70321,0.03547
6911.63167,0.03454
6913.56014,0.00178
6915.48861,0.02922
6917.41708,0.08213
6919.34555,0.03282
6921.27402,-0.03823
6923.20249,-0.03092
6925.13096,0.00173
6927.05942,0.02750
6928.98789,0.03543
6930.91636,0.01134
6932.84483,0.00264
6934.77330,0.06972
6936.70177,0.18790
6938.63024,0.28980
6940.55870,0.27002
6942.48717,0.17324
6944.41564,0.16390
6946.34411,0.23215
6948.27258,0.21229
6950.20105,0.10018
6952.12952,0.09058
6954.05799,0.16614
6955.98645,0.11980
6957.91492,-0.00965
6959.84339,-0.04417
6961.77186,0.02022
6963.70033,0.08244
6965.62880,0.07151
6967.55727,0.01223
6969.48573,0.05934
6971.41420,0.22028
6973.34267,0.27395
6975.27114,0.20990
6977.19961,0.18995
6979.12808,0.12325
6981.05655,-0.03622
6982.98501,-0.09284
6984.91348,0.00237
6986.84195,0.07556
6988.77042,0.09204
6990.69889,0.07909
6992.62736,0.01150
6994.55583,-0.03731
6996.48430,-0.01005
6998.41276,-0.03482
7000.34123,-0.11301
7002.26970,-0.08176
7004.19817,0.02855
7006.12664,0.11811
7008.05511,0.15043
7009.98358,0.12031
7011.91204,0.03421
7013.84051,-0.04292
7015.76898,-0.03466
7017.69745,0.01202
7019.62592,0.05485
7021.55439,0.05945
7023.48286,-0.03348
7025.41133,-0.13720
7027.33979,-0.11734
7029.26826,0.03710
7031.19673,0.20215
7033.12520,0.22831
7035.05367,0.15292
7036.98214,0.12724
7038.91061,0.13015
7040.83907,0.07523
7042.76754,-0.06695
7044.69601,-0.12226
7046.62448,0.05632
7048.55295,0.22427
7050.48142,0.21362
7052.40989,0.19924
7054.33836,0.27469
7056.26682,0.31369
7058.19529,0.17532
7060.12376,-0.00355
7062.05223,-0.04606
7063.98070,-0.00980
7065.90917,0.04671
7067.83764,0.10742
7069.76610,0.08531
7071.69457,0.00662
7073.62304,-0.04031
7075.55151,-0.07478
7077.47998,-0.13461
7079.40845,-0.26088
7081.33692,-0.33070
7083.26539,-0.19120
7085.19385,-0.01469
7087.12232,0.08894
7089.05079,0.16476
7090.97926,0.21310
7092.90773,0.18270
7094.83620,0.15639
7096.76467,0.13911
7098.69313,0.02354
7100.62160,-0.07402
7102.55007,-0.08278
7104.47854,-0.05439
7106.40701,0.02385
7108.33548,0.07880
7110.26395,0.04245
7112.19242,-0.00562
7114.12088,-0.04087
7116.04935,-0.09039
7117.97782,-0.04274
7119.90629,0.11562
7121.83476,0.17223
7123.76323,0.12904
7125.69170,0.15518
7127.62016,0.22860
7129.54863,0.23209
7131.47710,0.18733
7133.40557,0.09686
7135.33404,0.03009
7137.26251,0.09770
7139.19098,0.19661
7141.11944,0.19675
7143.04791,0.15994
7144.97638,0.09995
7146.90485,0.00682
7148.83332,-0.02431
7150.76179,0.02984
7152.69026,0.10880
7154.61873,0.13619
7156.54719,0.11086
7158.47566,0.11248
7160.40413,0.13536
7162.33260,0.06092
7164.26107,-0.03205
7166.18954,0.03484
7168.11801,0.08924
7170.04647,-0.03313
7171.97494,-0.13349
7173.90341,-0.08882
7175.83188,-0.01314
7177.76035,-0.03576
7179.68882,-0.05204
7181.61729,0.12052
7183.54576,0.35048
7185.47422,0.36865
7187.40269,0.28759
7189.33116,0.28948
7191.25963,0.33378
7193.18810,0.26025
7195.11657,0.12164
7197.04504,0.09914
7198.97350,0.19764
7200.90197,0.26920
7202.83044,0.29258
7204.75891,0.28132
7206.68738,0.18323
7208.61585,0.06068
7210.54432,-0.03892
7212.47279,-0.07597
7214.40125,-0.05789
7216.32972,-0.12574
7218.25819,-0.25036
7220.18666,-0.15932
7222.11513,0.02027
7224.04360,0.13601
7225.97207,0.16163
7227.90053,0.17015
7229.82900,0.23717
7231.75747,0.20147
7233.68594,0.02922
7235.61441,-0.05999
7237.54288,-0.03297
7239.47135,0.00302
7241.39982,0.02240
7243.32828,0.05461
7245.25675,0.07315
7247.18522,0.08015
7249.11369,0.03755
7251.04216,0.00612
7252.97063,0.07679
7254.89910,0.09228
7256.82756,0.04158
7258.75603,-0.04829
7260.68450,-0.12763
7262.61297,-0.00426
7264.54144,0.17183
7266.46991,0.18852
7268.39838,0.21538
7270.32685,0.39160
7272.25531,0.48242
7274.18378,0.29665
7276.11225,0.13572
7278.04072,0.09745
7279.96919,0.06547
7281.89766,-0.07664
7283.82613,-0.19868
7285.75459,-0.21245
7287.68306,-0.18299
7289.61153,-0.08561
7291.54000,0.08053
7293.46847,0.14505
7295.39694,0.13693
7297.32541,0.16573
7299.25387,0.19440
7301.18234,0.17131
7303.11081,-0.02674
7305.03928,-0.27548
7306.96775,-0.20502
7308.89622,0.03047
7310.82469,0.11649
7312.75316,0.18557
7314.68162,0.16650
7316.61009,-0.02691
7318.53856,-0.09646
7320.46703,-0.00996
7322.39550,0.02936
7324.32397,0.04325
7326.25244,0.08723
7328.18090,0.07400
7330.10937,-0.05013
7332.03784,-0.12140
7333.96631,-0.10235
7335.89478,-0.13467
7337.82325,-0.25723
7339.75172,-0.27381
7341.68019,0.04114
7343.60865,0.30149
7345.53712,0.29988
7347.46559,0.09004
7349.39406,-0.12959
7351.32253,-0.09468
7353.25100,0.12302
7355.17947,0.21149
7357.10793,0.12117
7359.03640,0.05850
7360.96487,0.10284
7362.89334,0.12225
7364.82181,0.08827
7366.75028,0.05147
7368.67875,0.08926
7370.60722,0.22963
7372.53568,0.38060
7374.46415,0.41030
7376.39262,0.15193
7378.32109,-0.15627
7380.24956,-0.20010
7382.17803,0.06339
7384.10650,0.32248
7386.03496,0.31234
7387.96343,0.15909
7389.89190,0.05456
7391.82037,-0.08236
7393.74884,-0.19776
7395.67731,-0.09917
7397.60578,0.11450
7399.53425,0.25126
7401.46271,0.33856
7403.39118,0.45521
7405.31965,0.49951
7407.24812,0.37899
7409.17659,0.12623
7411.10506,-0.15243
7413.03353,-0.25768
7414.96199,-0.20850
7416.89046,-0.13608
7418.81893,-0.09663
7420.74740,-0.15450
7422.67587,-0.26041
7424.60434,-0.28556
7426.53281,-0.21634
7428.46128,-0.11072
7430.38974,-0.03162
7432.31821,0.06520
7434.24668,0.12029
7436.17515,0.01892
7438.10362,0.08535
7440.03209,0.38197
7441.96056,0.42175
7443.88902,0.18670
7445.81749,0.01263
7447.74596,-0.04631
7449.67443,-0.03737
7451.60290,0.04930
7453.53137,0.12019
7455.45984,0.14574
7457.38831,0.17783
7459.31677,0.10393
7461.24524,-0.01278
7463.17371,0.07845
7465.10218,0.16654
7467.03065,0.12054
7468.95912,0.13082
7470.88759,0.22351
7472.81605,0.30858
7474.74452,0.40287
7476.67299,0.51669
7478.60146,0.52602
7480.52993,0.42084
7482.45840,0.33268
7484.38687,0.22117
7486.31533,0.08749
7488.24380,0.03965
7490.17227,0.04974
7492.10074,0.08585
7494.02921,0.15956
7495.95768,0.18689
7497.88615,0.06696
