399.19301,1.50488
401.12148,0.22963
403.04995,-0.10436
404.97842,-0.08031
406.90689,-0.05838
408.83536,-0.07810
410.76382,0.17225
412.69229,0.67098
414.62076,0.42076
416.54923,-0.26854
418.47770,0.02035
420.40617,1.41464
422.33464,2.06900
424.26311,1.58039
426.19157,0.71088
428.12004,0.18140
430.04851,-0.13071
431.97698,-0.20415
433.90545,-0.07613
435.83392,-0.01049
437.76239,-0.08579
439.69085,-0.18055
441.61932,-0.18612
443.54779,-0.11608
445.47626,-0.04600
447.40473,-0.05447
449.33320,-0.04300
451.26167,0.11012
453.19013,0.26327
455.11860,0.26170
457.04707,0.14060
458.97554,0.03984
460.90401,0.02579
462.83248,0.00079
464.76095,-0.07814
466.68942,-0.09010
468.61788,0.02065
470.54635,0.06148
472.47482,-0.23419
474.40329,-0.57797
476.33176,-0.33492
478.26023,-0.04083
480.18870,0.04543
482.11716,0.06626
484.04563,0.10893
485.97410,0.10047
487.90257,0.09134
489.83104,0.17725
491.75951,0.25960
493.68798,0.23911
495.61645,0.17485
497.54491,0.13403
499.47338,0.13096
501.40185,0.13990
503.33032,0.12164
505.25879,0.05892
507.18726,-0.01115
509.11573,-0.02492
511.04419,-0.01179
512.97266,0.00331
514.90113,0.05456
516.82960,0.13272
518.75807,0.14530
520.68654,0.08491
522.61501,0.05121
524.54348,0.08255
526.47194,0.12801
528.40041,0.14644
530.32888,0.14781
532.25735,0.14103
534.18582,0.13920
536.11429,0.13525
538.04276,0.10252
539.97122,0.06343
541.89969,0.06311
543.82816,0.09341
545.75663,0.11283
547.68510,0.12710
549.61357,0.14351
551.54204,0.13965
553.47051,0.11313
555.39897,0.10005
557.32744,0.11424
559.25591,0.10435
561.18438,0.06896
563.11285,0.05914
565.04132,0.06307
566.96979,0.05937
568.89825,0.07671
570.82672,0.10995
572.75519,0.13095
574.68366,0.14603
576.61213,0.16463
578.54060,0.18593
580.46907,0.19681
582.39754,0.17678
584.32600,0.13900
586.25447,0.11144
588.18294,0.11263
590.11141,0.13559
592.03988,0.12815
593.96835,0.09163
595.89682,0.09847
597.82528,0.13887
599.75375,0.14792
601.68222,0.12037
603.61069,0.09820
605.53916,0.09318
607.46763,0.09293
609.39610,0.10112
611.32456,0.11317
613.25303,0.11724
615.18150,0.11955
617.10997,0.12341
619.03844,0.11980
620.96691,0.12278
622.89538,0.14122
624.82385,0.15288
626.75231,0.15664
628.68078,0.16185
630.60925,0.15737
632.53772,0.14274
634.46619,0.13117
636.39466,0.11838
638.32313,0.10389
640.25159,0.10680
642.18006,0.12178
644.10853,0.13073
646.03700,0.13686
647.96547,0.14116
649.89394,0.14571
651.82241,0.15468
653.75088,0.15442
655.67934,0.13843
657.60781,0.12313
659.53628,0.12754
661.46475,0.14202
663.39322,0.14260
665.32169,0.14072
667.25016,0.15976
669.17862,0.16855
671.10709,0.13374
673.03556,0.10795
674.96403,0.11198
676.89250,0.12975
678.82097,0.14571
680.74944,0.15505
682.67791,0.15697
684.60637,0.16078
686.53484,0.16638
688.46331,0.16324
690.39178,0.15049
692.32025,0.14099
694.24872,0.14261
696.17719,0.14325
698.10565,0.13543
700.03412,0.13235
701.96259,0.13426
703.89106,0.12708
705.81953,0.11676
707.74800,0.10975
709.67647,0.08582
711.60494,0.05921
713.53340,0.07711
715.46187,0.11641
717.39034,0.13309
719.31881,0.14180
721.24728,0.15371
723.17575,0.15730
725.10422,0.15088
727.03268,0.14479
728.96115,0.14643
730.88962,0.14980
732.81809,0.14853
734.74656,0.14470
736.67503,0.14325
738.60350,0.14511
740.53197,0.14606
742.46043,0.14194
744.38890,0.13381
746.31737,0.12781
748.24584,0.13129
750.17431,0.14257
752.10278,0.14877
754.03125,0.14489
755.95971,0.13598
757.88818,0.12941
759.81665,0.13133
761.74512,0.13527
763.67359,0.13273
765.60206,0.12619
767.53053,0.12732
769.45900,0.14200
771.38746,0.15398
773.31593,0.15120
775.24440,0.14572
777.17287,0.14837
779.10134,0.15345
781.02981,0.15407
782.95828,0.15220
784.88674,0.15426
786.81521,0.15899
788.74368,0.15214
790.67215,0.14098
792.60062,0.14666
794.52909,0.15383
796.45756,0.14808
798.38602,0.14756
800.31449,0.14912
802.24296,0.13829
804.17143,0.12639
806.09990,0.12654
808.02837,0.13588
809.95684,0.14393
811.88531,0.14594
813.81377,0.14515
815.74224,0.14822
817.67071,0.15489
819.59918,0.15458
821.52765,0.14665
823.45612,0.13511
825.38459,0.11713
827.31305,0.10914
829.24152,0.12763
831.16999,0.15115
833.09846,0.15850
835.02693,0.15497
836.95540,0.14913
838.88387,0.14341
840.81234,0.14003
842.74080,0.13725
844.66927,0.13273
846.59774,0.13341
848.52621,0.14097
850.45468,0.14599
852.38315,0.14381
854.31162,0.13817
856.24008,0.13403
858.16855,0.12957
860.09702,0.12585
862.02549,0.13038
863.95396,0.13724
865.88243,0.15598
867.81090,0.25201
869.73937,0.40273
871.66783,0.42216
873.59630,0.27801
875.52477,0.16228
877.45324,0.14309
879.38171,0.14604
881.31018,0.14585
883.23865,0.14817
885.16711,0.14747
887.09558,0.14461
889.02405,0.14860
890.95252,0.15791
892.88099,0.16331
894.80946,0.16326
896.73793,0.16298
898.66640,0.16466
900.59486,0.16246
902.52333,0.15691
904.45180,0.15566
906.38027,0.15720
908.30874,0.15671
910.23721,0.15716
912.16568,0.15900
914.09414,0.15310
916.02261,0.14573
917.95108,0.15263
919.87955,0.16249
921.80802,0.16176
923.73649,0.15615
925.66496,0.14665
927.59343,0.13646
929.52189,0.13675
931.45036,0.14981
933.37883,0.16582
935.30730,0.17384
937.23577,0.17310
939.16424,0.16293
941.09271,0.14630
943.02117,0.13965
944.94964,0.14542
946.87811,0.15132
948.80658,0.15596
950.73505,0.16025
952.66352,0.16222
954.59199,0.16341
956.52045,0.16595
958.44892,0.17157
960.37739,0.17756
962.30586,0.17627
964.23433,0.16467
966.16280,0.15142
968.09127,0.14700
970.01974,0.14939
971.94820,0.14981
973.87667,0.14600
975.80514,0.14170
977.73361,0.14033
979.66208,0.14045
981.59055,0.13992
983.51902,0.14484
985.44748,0.15346
987.37595,0.15621
989.30442,0.15586
991.23289,0.15730
993.16136,0.16233
995.08983,0.16802
997.01830,0.16850
998.94677,0.16657
1000.87523,0.16177
1002.80370,0.15211
1004.73217,0.14331
1006.66064,0.14268
1008.58911,0.15476
1010.51758,0.16925
1012.44605,0.17307
1014.37451,0.17097
1016.30298,0.16816
1018.23145,0.16484
1020.15992,0.16173
1022.08839,0.15837
1024.01686,0.15813
1025.94533,0.15339
1027.87380,0.13670
1029.80226,0.13091
1031.73073,0.14911
1033.65920,0.16691
1035.58767,0.16753
1037.51614,0.16120
1039.44461,0.15857
1041.37308,0.15501
1043.30154,0.15068
1045.23001,0.15399
1047.15848,0.16349
1049.08695,0.17178
1051.01542,0.17137
1052.94389,0.16522
1054.87236,0.16452
1056.80083,0.16653
1058.72929,0.16702
1060.65776,0.17139
1062.58623,0.17983
1064.51470,0.18374
1066.44317,0.17960
1068.37164,0.17750
1070.30011,0.18244
1072.22857,0.18672
1074.15704,0.18483
1076.08551,0.17941
1078.01398,0.17394
1079.94245,0.17118
1081.87092,0.17386
1083.79939,0.17481
1085.72786,0.17116
1087.65632,0.17094
1089.58479,0.16919
1091.51326,0.16278
1093.44173,0.16490
1095.37020,0.17549
1097.29867,0.17819
1099.22714,0.17464
1101.15560,0.18263
1103.08407,0.19822
1105.01254,0.20343
1106.94101,0.19955
1108.86948,0.19133
1110.79795,0.17838
1112.72642,0.16929
1114.65489,0.16643
1116.58335,0.16738
1118.51182,0.17197
1120.44029,0.17258
1122.36876,0.16768
1124.29723,0.16238
1126.22570,0.15929
1128.15417,0.16281
1130.08263,0.16821
1132.01110,0.16705
1133.93957,0.16345
1135.86804,0.16429
1137.79651,0.17146
1139.72498,0.17708
1141.65345,0.17248
1143.58191,0.16630
1145.51038,0.16548
1147.43885,0.16487
1149.36732,0.16560
1151.29579,0.16935
1153.22426,0.17292
1155.15273,0.17617
1157.08120,0.17853
1159.00966,0.17797
1160.93813,0.17659
1162.86660,0.17721
1164.79507,0.17773
1166.72354,0.17681
1168.65201,0.17627
1170.58048,0.17655
1172.50894,0.17605
1174.43741,0.17409
1176.36588,0.17272
1178.29435,0.17094
1180.22282,0.16819
1182.15129,0.16873
1184.07976,0.17016
1186.00823,0.16793
1187.93669,0.16789
1189.86516,0.17260
1191.79363,0.17391
1193.72210,0.17039
1195.65057,0.16795
1197.57904,0.16834
1199.50751,0.17000
1201.43597,0.17171
1203.36444,0.17405
1205.29291,0.17716
1207.22138,0.17781
1209.14985,0.17296
1211.07832,0.16550
1213.00679,0.16324
1214.93526,0.16874
1216.86372,0.17457
1218.79219,0.17458
1220.72066,0.17032
1222.64913,0.16679
1224.57760,0.16858
1226.50607,0.17379
1228.43454,0.17663
1230.36300,0.17846
1232.29147,0.18268
1234.21994,0.18374
1236.14841,0.17880
1238.07688,0.17459
1240.00535,0.17456
1241.93382,0.17520
1243.86229,0.17405
1245.79075,0.17326
1247.71922,0.17385
1249.64769,0.17395
1251.57616,0.17196
1253.50463,0.17145
1255.43310,0.17696
1257.36157,0.18271
1259.29003,0.18303
1261.21850,0.18209
1263.14697,0.18409
1265.07544,0.18678
1267.00391,0.18497
1268.93238,0.17800
1270.86085,0.17253
1272.78932,0.17389
1274.71778,0.17795
1276.64625,0.17994
1278.57472,0.17791
1280.50319,0.17063
1282.43166,0.16583
1284.36013,0.16872
1286.28860,0.17289
1288.21706,0.17710
1290.14553,0.18216
1292.07400,0.18364
1294.00247,0.18354
1295.93094,0.18349
1297.85941,0.17924
1299.78788,0.17191
1301.71634,0.16407
1303.64481,0.15648
1305.57328,0.15613
1307.50175,0.16650
1309.43022,0.17801
1311.35869,0.18312
1313.28716,0.18446
1315.21563,0.18459
1317.14409,0.18327
1319.07256,0.18005
1321.00103,0.17519
1322.92950,0.17347
1324.85797,0.17561
1326.78644,0.17804
1328.71491,0.18162
1330.64337,0.18295
1332.57184,0.18092
1334.50031,0.18030
1336.42878,0.17998
1338.35725,0.18115
1340.28572,0.18137
1342.21419,0.17590
1344.14266,0.17287
1346.07112,0.17389
1347.99959,0.17601
1349.92806,0.17960
1351.85653,0.17927
1353.78500,0.17418
1355.71347,0.17290
1357.64194,0.17682
1359.57040,0.18023
1361.49887,0.18153
1363.42734,0.18156
1365.35581,0.18250
1367.28428,0.18542
1369.21275,0.18664
1371.14122,0.18486
1373.06969,0.18392
1374.99815,0.18483
1376.92662,0.18596
1378.85509,0.18843
1380.78356,0.19014
1382.71203,0.18834
1384.64050,0.18713
1386.56897,0.18834
1388.49743,0.18890
1390.42590,0.18966
1392.35437,0.19186
1394.28284,0.19305
1396.21131,0.19101
1398.13978,0.18981
1400.06825,0.19179
1401.99672,0.19319
1403.92518,0.19398
1405.85365,0.19396
1407.78212,0.19244
1409.71059,0.19243
1411.63906,0.19216
1413.56753,0.19111
1415.49600,0.19451
1417.42446,0.20197
1419.35293,0.20473
1421.28140,0.20169
1423.20987,0.19887
1425.13834,0.19614
1427.06681,0.19581
1428.99528,0.19799
1430.92375,0.19934
1432.85221,0.20103
1434.78068,0.20403
1436.70915,0.20253
1438.63762,0.19728
1440.56609,0.19546
1442.49456,0.19348
1444.42303,0.19040
1446.35149,0.19086
1448.27996,0.19539
1450.20843,0.19865
1452.13690,0.19881
1454.06537,0.19939
1455.99384,0.20556
1457.92231,0.21313
1459.85077,0.20806
1461.77924,0.20359
1463.70771,0.20447
1465.63618,0.20195
1467.56465,0.19818
1469.49312,0.20419
1471.42159,0.21807
1473.35006,0.22323
1475.27852,0.21484
1477.20699,0.20577
1479.13546,0.19968
1481.06393,0.19581
1482.99240,0.19197
1484.92087,0.19258
1486.84934,0.20171
1488.77780,0.21176
1490.70627,0.20827
1492.63474,0.19880
1494.56321,0.19836
1496.49168,0.20793
1498.42015,0.21126
1500.34862,0.20362
1502.27709,0.20122
1504.20555,0.21076
1506.13402,0.22979
1508.06249,0.22994
1509.99096,0.21466
1511.91943,0.20794
1513.84790,0.21019
1515.77637,0.21577
1517.70483,0.21667
1519.63330,0.21985
1521.56177,0.23006
1523.49024,0.22957
1525.41871,0.22149
1527.34718,0.21384
1529.27565,0.20709
1531.20412,0.20625
1533.13258,0.21191
1535.06105,0.21529
1536.98952,0.22135
1538.91799,0.24265
1540.84646,0.25926
1542.77493,0.23946
1544.70340,0.21401
1546.63186,0.19746
1548.56033,0.19410
1550.48880,0.20086
1552.41727,0.20944
1554.34574,0.21482
1556.27421,0.22091
1558.20268,0.23199
1560.13115,0.22035
1562.05961,0.20481
1563.98808,0.20192
1565.91655,0.20278
1567.84502,0.20621
1569.77349,0.20963
1571.70196,0.20503
1573.63043,0.20099
1575.55889,0.20118
1577.48736,0.19862
1579.41583,0.19430
1581.34430,0.19233
1583.27277,0.19144
1585.20124,0.19062
1587.12971,0.19169
1589.05818,0.19319
1590.98664,0.19164
1592.91511,0.18848
1594.84358,0.18656
1596.77205,0.18637
1598.70052,0.18778
1600.62899,0.18990
1602.55746,0.19188
1604.48592,0.19350
1606.41439,0.19327
1608.34286,0.19097
1610.27133,0.18866
1612.19980,0.19020
1614.12827,0.19854
1616.05674,0.20932
1617.98521,0.21119
1619.91367,0.21084
1621.84214,0.21626
1623.77061,0.21994
1625.69908,0.21763
1627.62755,0.21467
1629.55602,0.21023
1631.48449,0.20875
1633.41295,0.21746
1635.34142,0.23195
1637.26989,0.22855
1639.19836,0.21675
1641.12683,0.21217
1643.05530,0.21545
1644.98377,0.22605
1646.91223,0.23511
1648.84070,0.23379
1650.76917,0.23638
1652.69764,0.24201
1654.62611,0.23085
1656.55458,0.21981
1658.48305,0.21984
1660.41152,0.23184
1662.33998,0.24406
1664.26845,0.23486
1666.19692,0.22165
1668.12539,0.22652
1670.05386,0.23686
1671.98233,0.22886
1673.91080,0.21748
1675.83926,0.21297
1677.76773,0.21464
1679.69620,0.22023
1681.62467,0.22647
1683.55314,0.22810
1685.48161,0.22181
1687.41008,0.21858
1689.33855,0.21957
1691.26701,0.22076
1693.19548,0.22424
1695.12395,0.23295
1697.05242,0.23795
1698.98089,0.23144
1700.90936,0.22173
1702.83783,0.21966
1704.76629,0.22223
1706.69476,0.21902
1708.62323,0.20979
1710.55170,0.20411
1712.48017,0.20531
1714.40864,0.21454
1716.33711,0.22779
1718.26558,0.22442
1720.19404,0.21134
1722.12251,0.20657
1724.05098,0.20516
1725.97945,0.20161
1727.90792,0.20074
1729.83639,0.20723
1731.76486,0.21837
1733.69332,0.22186
1735.62179,0.21126
1737.55026,0.20783
1739.47873,0.21354
1741.40720,0.21654
1743.33567,0.21323
1745.26414,0.21209
1747.19261,0.21814
1749.12107,0.22438
1751.04954,0.21869
1752.97801,0.20884
1754.90648,0.20659
1756.83495,0.20932
1758.76342,0.21182
1760.69189,0.21214
1762.62035,0.20723
1764.54882,0.20120
1766.47729,0.20125
1768.40576,0.20631
1770.33423,0.21257
1772.26270,0.21633
1774.19117,0.21267
1776.11964,0.20762
1778.04810,0.20630
1779.97657,0.20758
1781.90504,0.20899
1783.83351,0.20907
1785.76198,0.20708
1787.69045,0.20454
1789.61892,0.20498
1791.54738,0.20921
1793.47585,0.21260
1795.40432,0.21222
1797.33279,0.21224
1799.26126,0.21473
1801.18973,0.21427
1803.11820,0.20771
1805.04666,0.20210
1806.97513,0.20047
1808.90360,0.20049
1810.83207,0.20083
1812.76054,0.19991
1814.68901,0.19854
1816.61748,0.20037
1818.54595,0.21286
1820.47441,0.22779
1822.40288,0.22219
1824.33135,0.20627
1826.25982,0.20592
1828.18829,0.21408
1830.11676,0.21699
1832.04523,0.21075
1833.97369,0.20408
1835.90216,0.20430
1837.83063,0.20629
1839.75910,0.20510
1841.68757,0.20445
1843.61604,0.20696
1845.54451,0.20842
1847.47298,0.20827
1849.40144,0.20933
1851.32991,0.20967
1853.25838,0.20809
1855.18685,0.20711
1857.11532,0.20807
1859.04379,0.20906
1860.97226,0.20767
1862.90072,0.20431
1864.82919,0.20454
1866.75766,0.21150
1868.68613,0.21745
1870.61460,0.21331
1872.54307,0.20590
1874.47154,0.20185
1876.40001,0.20108
1878.32847,0.20355
1880.25694,0.20692
1882.18541,0.20786
1884.11388,0.20801
1886.04235,0.20964
1887.97082,0.21128
1889.89929,0.20970
1891.82775,0.20626
1893.75622,0.20379
1895.68469,0.20163
1897.61316,0.20041
1899.54163,0.20007
1901.47010,0.19922
1903.39857,0.19841
1905.32704,0.19987
1907.25550,0.20479
1909.18397,0.20785
1911.11244,0.20461
1913.04091,0.20165
1914.96938,0.20373
1916.89785,0.20632
1918.82632,0.20473
1920.75478,0.20191
1922.68325,0.20042
1924.61172,0.19902
1926.54019,0.19932
1928.46866,0.20165
1930.39713,0.20310
1932.32560,0.20298
1934.25407,0.20314
1936.18253,0.20402
1938.11100,0.20398
1940.03947,0.20304
1941.96794,0.20263
1943.89641,0.20366
1945.82488,0.20558
1947.75335,0.20729
1949.68181,0.20856
1951.61028,0.20808
1953.53875,0.20553
1955.46722,0.20383
1957.39569,0.20451
1959.32416,0.20545
1961.25263,0.20579
1963.18110,0.20635
1965.10956,0.20464
1967.03803,0.20077
1968.96650,0.19932
1970.89497,0.20029
1972.82344,0.20084
1974.75191,0.20033
1976.68038,0.19908
1978.60884,0.19863
1980.53731,0.20069
1982.46578,0.20242
1984.39425,0.20156
1986.32272,0.20026
1988.25119,0.20065
1990.17966,0.20228
1992.10812,0.20179
1994.03659,0.19996
1995.96506,0.20090
1997.89353,0.20315
1999.82200,0.20408
2001.75047,0.20448
2003.67894,0.20438
2005.60741,0.20255
2007.53587,0.20217
2009.46434,0.20585
2011.39281,0.20853
2013.32128,0.20749
2015.24975,0.20704
2017.17822,0.20801
2019.10669,0.20837
2021.03515,0.20892
2022.96362,0.20832
2024.89209,0.20541
2026.82056,0.20313
2028.74903,0.20300
2030.67750,0.20459
2032.60597,0.20650
2034.53444,0.20635
2036.46290,0.20581
2038.39137,0.20653
2040.31984,0.20564
2042.24831,0.20316
2044.17678,0.20196
2046.10525,0.20197
2048.03372,0.20260
2049.96218,0.20426
2051.89065,0.20491
2053.81912,0.20346
2055.74759,0.20369
2057.67606,0.20534
2059.60453,0.20311
2061.53300,0.19888
2063.46147,0.19927
2065.38993,0.20281
2067.31840,0.20473
2069.24687,0.20491
2071.17534,0.20419
2073.10381,0.20435
2075.03228,0.20537
2076.96075,0.20519
2078.88921,0.20500
2080.81768,0.20550
2082.74615,0.20590
2084.67462,0.20625
2086.60309,0.20546
2088.53156,0.20391
2090.46003,0.20396
2092.38850,0.20457
2094.31696,0.20438
2096.24543,0.20431
2098.17390,0.20285
2100.10237,0.20043
2102.03084,0.20117
2103.95931,0.20466
2105.88778,0.20690
2107.81624,0.20642
2109.74471,0.20470
2111.67318,0.20379
2113.60165,0.20384
2115.53012,0.20341
2117.45859,0.20227
2119.38706,0.20187
2121.31553,0.20244
2123.24399,0.20291
2125.17246,0.20254
2127.10093,0.20254
2129.02940,0.20465
2130.95787,0.20607
2132.88634,0.20399
2134.81481,0.20214
2136.74327,0.20323
2138.67174,0.20331
2140.60021,0.20185
2142.52868,0.20218
2144.45715,0.20420
2146.38562,0.20727
2148.31409,0.20935
2150.24255,0.20836
2152.17102,0.20648
2154.09949,0.20666
2156.02796,0.20816
2157.95643,0.20897
2159.88490,0.21004
2161.81337,0.21002
2163.74184,0.20711
2165.67030,0.20405
2167.59877,0.20324
2169.52724,0.20419
2171.45571,0.20478
2173.38418,0.20378
2175.31265,0.20171
2177.24112,0.20007
2179.16958,0.20149
2181.09805,0.20424
2183.02652,0.20323
2184.95499,0.20176
2186.88346,0.20410
2188.81193,0.20703
2190.74040,0.20797
2192.66887,0.20719
2194.59733,0.20614
2196.52580,0.20527
2198.45427,0.20451
2200.38274,0.20397
2202.31121,0.20273
2204.23968,0.20134
2206.16815,0.20123
2208.09661,0.20226
2210.02508,0.20275
2211.95355,0.20219
2213.88202,0.20112
2215.81049,0.20010
2217.73896,0.20027
2219.66743,0.20075
2221.59590,0.19965
2223.52436,0.19762
2225.45283,0.19701
2227.38130,0.19950
2229.30977,0.20408
2231.23824,0.20657
2233.16671,0.20531
2235.09518,0.20295
2237.02364,0.20261
2238.95211,0.20546
2240.88058,0.20775
2242.80905,0.20640
2244.73752,0.20345
2246.66599,0.20196
2248.59446,0.20317
2250.52293,0.20514
2252.45139,0.20528
2254.37986,0.20388
2256.30833,0.20274
2258.23680,0.20147
2260.16527,0.19975
2262.09374,0.19959
2264.02221,0.20206
2265.95067,0.20627
2267.87914,0.20843
2269.80761,0.20577
2271.73608,0.20205
2273.66455,0.20140
2275.59302,0.20261
2277.52149,0.20331
2279.44996,0.20447
2281.37842,0.20619
2283.30689,0.20636
2285.23536,0.20645
2287.16383,0.20663
2289.09230,0.20433
2291.02077,0.20230
2292.94924,0.20407
2294.87770,0.20785
2296.80617,0.21036
2298.73464,0.21026
2300.66311,0.20820
2302.59158,0.20447
2304.52005,0.20038
2306.44852,0.19998
2308.37699,0.20340
2310.30545,0.20644
2312.23392,0.20685
2314.16239,0.20462
2316.09086,0.20069
2318.01933,0.19661
2319.94780,0.19492
2321.87627,0.19403
2323.80473,0.19430
2325.73320,0.19941
2327.66167,0.19922
2329.59014,0.19430
2331.51861,0.20075
2333.44708,0.20993
2335.37555,0.20865
2337.30401,0.20298
2339.23248,0.20055
2341.16095,0.20801
2343.08942,0.22008
2345.01789,0.22143
2346.94636,0.21738
2348.87483,0.21353
2350.80330,0.20866
2352.73176,0.21030
2354.66023,0.22124
2356.58870,0.22100
2358.51717,0.20139
2360.44564,0.17821
2362.37411,0.16224
2364.30258,0.16375
2366.23104,0.18166
2368.15951,0.19344
2370.08798,0.19163
2372.01645,0.18860
2373.94492,0.19241
2375.87339,0.19959
2377.80186,0.20336
2379.73033,0.20368
2381.65879,0.20463
2383.58726,0.20666
2385.51573,0.20684
2387.44420,0.20551
2389.37267,0.20535
2391.30114,0.20506
2393.22961,0.20397
2395.15807,0.20460
2397.08654,0.20540
2399.01501,0.20506
2400.94348,0.20663
2402.87195,0.20968
2404.80042,0.21056
2406.72889,0.20912
2408.65736,0.20761
2410.58582,0.20585
2412.51429,0.20382
2414.44276,0.20426
2416.37123,0.20679
2418.29970,0.20827
2420.22817,0.20812
2422.15664,0.20839
2424.08510,0.20844
2426.01357,0.20578
2427.94204,0.20358
2429.87051,0.20555
2431.79898,0.20878
2433.72745,0.20913
2435.65592,0.20687
2437.58439,0.20420
2439.51285,0.20312
2441.44132,0.20411
2443.36979,0.20486
2445.29826,0.20502
2447.22673,0.20568
2449.15520,0.20541
2451.08367,0.20380
2453.01213,0.20452
2454.94060,0.20576
2456.86907,0.20324
2458.79754,0.20250
2460.72601,0.20376
2462.65448,0.20186
2464.58295,0.20102
2466.51142,0.20507
2468.43988,0.21055
2470.36835,0.21242
2472.29682,0.21042
2474.22529,0.20715
2476.15376,0.20493
2478.08223,0.20570
2480.01070,0.20787
2481.93916,0.20940
2483.86763,0.21134
2485.79610,0.21259
2487.72457,0.20985
2489.65304,0.20642
2491.58151,0.20746
2493.50998,0.20937
2495.43844,0.20819
2497.36691,0.20651
2499.29538,0.20537
2501.22385,0.20452
2503.15232,0.20512
2505.08079,0.20549
2507.00926,0.20391
2508.93773,0.20275
2510.86619,0.20401
2512.79466,0.20615
2514.72313,0.20749
2516.65160,0.20739
2518.58007,0.20552
2520.50854,0.20314
2522.43701,0.20251
2524.36547,0.20499
2526.29394,0.20901
2528.22241,0.21120
2530.15088,0.21005
2532.07935,0.20698
2534.00782,0.20476
2535.93629,0.20442
2537.86476,0.20458
2539.79322,0.20551
2541.72169,0.20832
2543.65016,0.21007
2545.57863,0.20948
2547.50710,0.20920
2549.43557,0.21053
2551.36404,0.21309
2553.29250,0.21442
2555.22097,0.21311
2557.14944,0.21189
2559.07791,0.21115
2561.00638,0.20893
2562.93485,0.20745
2564.86332,0.20861
2566.79179,0.20963
2568.72025,0.20912
2570.64872,0.20996
2572.57719,0.21240
2574.50566,0.21361
2576.43413,0.21347
2578.36260,0.21248
2580.29107,0.21233
2582.21953,0.21377
2584.14800,0.21409
2586.07647,0.21388
2588.00494,0.21414
2589.93341,0.21381
2591.86188,0.21376
2593.79035,0.21334
2595.71882,0.21098
2597.64728,0.20881
2599.57575,0.20839
2601.50422,0.20939
2603.43269,0.21095
2605.36116,0.20973
2607.28963,0.20686
2609.21810,0.20697
2611.14656,0.20904
2613.07503,0.21017
2615.00350,0.21022
2616.93197,0.20993
2618.86044,0.20997
2620.78891,0.21040
2622.71738,0.21071
2624.64585,0.21068
2626.57431,0.20978
2628.50278,0.20899
2630.43125,0.21085
2632.35972,0.21346
2634.28819,0.21325
2636.21666,0.21120
2638.14513,0.21090
2640.07359,0.21305
2642.00206,0.21391
2643.93053,0.21227
2645.85900,0.21107
2647.78747,0.21087
2649.71594,0.21075
2651.64441,0.21220
2653.57288,0.21512
2655.50134,0.21548
2657.42981,0.21292
2659.35828,0.21096
2661.28675,0.21083
2663.21522,0.21297
2665.14369,0.21542
2667.07216,0.21480
2669.00062,0.21314
2670.92909,0.21346
2672.85756,0.21424
2674.78603,0.21362
2676.71450,0.21188
2678.64297,0.21023
2680.57144,0.21078
2682.49990,0.21360
2684.42837,0.21611
2686.35684,0.21718
2688.28531,0.21630
2690.21378,0.21455
2692.14225,0.21480
2694.07072,0.21658
2695.99919,0.21686
2697.92765,0.21549
2699.85612,0.21613
2701.78459,0.21773
2703.71306,0.21594
2705.64153,0.21267
2707.57000,0.21118
2709.49847,0.21171
2711.42693,0.21287
2713.35540,0.21230
2715.28387,0.21103
2717.21234,0.21155
2719.14081,0.21230
2721.06928,0.21240
2722.99775,0.21382
2724.92622,0.21573
2726.85468,0.21618
2728.78315,0.21629
2730.71162,0.21810
2732.64009,0.22114
2734.56856,0.22270
2736.49703,0.22237
2738.42550,0.22150
2740.35396,0.22047
2742.28243,0.22154
2744.21090,0.22424
2746.13937,0.22421
2748.06784,0.22310
2749.99631,0.22345
2751.92478,0.22293
2753.85325,0.22099
2755.78171,0.21948
2757.71018,0.22060
2759.63865,0.22164
2761.56712,0.21833
2763.49559,0.21554
2765.42406,0.21724
2767.35253,0.22196
2769.28099,0.23119
2771.20946,0.24090
2773.13793,0.24030
2775.06640,0.22930
2776.99487,0.22104
2778.92334,0.22111
2780.85181,0.22272
2782.78028,0.22265
2784.70874,0.22194
2786.63721,0.22009
2788.56568,0.21888
2790.49415,0.22098
2792.42262,0.22349
2794.35109,0.22172
2796.27956,0.21739
2798.20802,0.21544
2800.13649,0.21623
2802.06496,0.21685
2803.99343,0.21766
2805.92190,0.21998
2807.85037,0.22176
2809.77884,0.22190
2811.70731,0.22185
2813.63577,0.22140
2815.56424,0.21988
2817.49271,0.21806
2819.42118,0.21731
2821.34965,0.21965
2823.27812,0.22291
2825.20659,0.22426
2827.13505,0.22608
2829.06352,0.22789
2830.99199,0.22771
2832.92046,0.22804
2834.84893,0.22955
2836.77740,0.23052
2838.70587,0.23124
2840.63433,0.23170
2842.56280,0.23099
2844.49127,0.22827
2846.41974,0.22364
2848.34821,0.22087
2850.27668,0.22266
2852.20515,0.22560
2854.13362,0.22574
2856.06208,0.22465
2857.99055,0.22457
2859.91902,0.22405
2861.84749,0.22359
2863.77596,0.22329
2865.70443,0.22178
2867.63290,0.22218
2869.56136,0.22488
2871.48983,0.22699
2873.41830,0.22844
2875.34677,0.22912
2877.27524,0.22872
2879.20371,0.22763
2881.13218,0.22609
2883.06065,0.22487
2884.98911,0.22387
2886.91758,0.22133
2888.84605,0.21842
2890.77452,0.21918
2892.70299,0.22212
2894.63146,0.22200
2896.55993,0.21847
2898.48839,0.21471
2900.41686,0.21363
2902.34533,0.21624
2904.27380,0.21874
2906.20227,0.21791
2908.13074,0.21717
2910.05921,0.21914
2911.98768,0.22046
2913.91614,0.21884
2915.84461,0.21786
2917.77308,0.21963
2919.70155,0.21997
2921.63002,0.21976
2923.55849,0.22019
2925.48696,0.21746
2927.41542,0.22396
2929.34389,0.23850
2931.27236,0.23394
2933.20083,0.22029
2935.12930,0.21837
2937.05777,0.21559
2938.98624,0.21282
2940.91471,0.21987
2942.84317,0.22904
2944.77164,0.23112
2946.70011,0.22484
2948.62858,0.22067
2950.55705,0.22471
2952.48552,0.23016
2954.41399,0.23084
2956.34245,0.22374
2958.27092,0.21684
2960.19939,0.21881
2962.12786,0.22240
2964.05633,0.22204
2965.98480,0.22134
2967.91327,0.22187
2969.84174,0.22352
2971.77020,0.22557
2973.69867,0.22592
2975.62714,0.22292
2977.55561,0.21844
2979.48408,0.22036
2981.41255,0.22953
2983.34102,0.23464
2985.26948,0.23005
2987.19795,0.22327
2989.12642,0.22324
2991.05489,0.22729
2992.98336,0.22980
2994.91183,0.23159
2996.84030,0.23216
2998.76877,0.23360
3000.69723,0.23866
3002.62570,0.24153
3004.55417,0.23940
3006.48264,0.23636
3008.41111,0.23208
3010.33958,0.22147
3012.26805,0.20186
3014.19651,0.17698
3016.12498,0.16094
3018.05345,0.17205
3019.98192,0.20383
3021.91039,0.22910
3023.83886,0.23833
3025.76733,0.23796
3027.69579,0.23548
3029.62426,0.23568
3031.55273,0.23665
3033.48120,0.23695
3035.40967,0.23577
3037.33814,0.23279
3039.26661,0.23174
3041.19508,0.23150
3043.12354,0.22821
3045.05201,0.22306
3046.98048,0.21987
3048.90895,0.22134
3050.83742,0.22544
3052.76589,0.22817
3054.69436,0.22643
3056.62282,0.22099
3058.55129,0.22191
3060.47976,0.22997
3062.40823,0.23076
3064.33670,0.21923
3066.26517,0.20771
3068.19364,0.21253
3070.12211,0.22786
3072.05057,0.23283
3073.97904,0.22597
3075.90751,0.21917
3077.83598,0.21881
3079.76445,0.22430
3081.69292,0.22844
3083.62139,0.22266
3085.54985,0.21447
3087.47832,0.21936
3089.40679,0.23056
3091.33526,0.23138
3093.26373,0.22046
3095.19220,0.21266
3097.12067,0.21857
3099.04914,0.22781
3100.97760,0.22904
3102.90607,0.22432
3104.83454,0.22375
3106.76301,0.22982
3108.69148,0.23456
3110.61995,0.23419
3112.54842,0.23023
3114.47688,0.22768
3116.40535,0.22924
3118.33382,0.23111
3120.26229,0.22999
3122.19076,0.22893
3124.11923,0.23275
3126.04770,0.23746
3127.97617,0.23457
3129.90463,0.22548
3131.83310,0.22337
3133.76157,0.23257
3135.69004,0.23927
3137.61851,0.23387
3139.54698,0.22470
3141.47545,0.22311
3143.40391,0.22670
3145.33238,0.22830
3147.26085,0.22673
3149.18932,0.22526
3151.11779,0.22641
3153.04626,0.22911
3154.97473,0.23318
3156.90320,0.23777
3158.83166,0.24038
3160.76013,0.23950
3162.68860,0.23745
3164.61707,0.23778
3166.54554,0.23922
3168.47401,0.24088
3170.40248,0.24310
3172.33094,0.24358
3174.25941,0.24205
3176.18788,0.24089
3178.11635,0.23973
3180.04482,0.23965
3181.97329,0.24245
3183.90176,0.24030
3185.83022,0.23207
3187.75869,0.23134
3189.68716,0.23939
3191.61563,0.24349
3193.54410,0.24064
3195.47257,0.23934
3197.40104,0.24085
3199.32951,0.24058
3201.25797,0.23847
3203.18644,0.23338
3205.11491,0.22754
3207.04338,0.22799
3208.97185,0.23476
3210.90032,0.24156
3212.82879,0.24394
3214.75725,0.24147
3216.68572,0.23832
3218.61419,0.23747
3220.54266,0.23601
3222.47113,0.23483
3224.39960,0.23480
3226.32807,0.23379
3228.25654,0.23520
3230.18500,0.23737
3232.11347,0.23334
3234.04194,0.22597
3235.97041,0.22378
3237.89888,0.22817
3239.82735,0.23279
3241.75582,0.23281
3243.68428,0.22925
3245.61275,0.22659
3247.54122,0.22796
3249.46969,0.23168
3251.39816,0.23304
3253.32663,0.23011
3255.25510,0.22761
3257.18357,0.22998
3259.11203,0.23432
3261.04050,0.23474
3262.96897,0.23169
3264.89744,0.23051
3266.82591,0.23233
3268.75438,0.23591
3270.68285,0.23790
3272.61131,0.23487
3274.53978,0.23352
3276.46825,0.23681
3278.39672,0.23731
3280.32519,0.23455
3282.25366,0.23038
3284.18213,0.22479
3286.11060,0.22270
3288.03906,0.22624
3289.96753,0.23004
3291.89600,0.23185
3293.82447,0.23438
3295.75294,0.23522
3297.68141,0.23289
3299.60988,0.23110
3301.53834,0.23111
3303.46681,0.23356
3305.39528,0.23752
3307.32375,0.23859
3309.25222,0.23328
3311.18069,0.22601
3313.10916,0.22535
3315.03763,0.22803
3316.96609,0.22909
3318.89456,0.23076
3320.82303,0.23224
3322.75150,0.23563
3324.67997,0.24154
3326.60844,0.24126
3328.53691,0.23505
3330.46537,0.23421
3332.39384,0.23996
3334.32231,0.24382
3336.25078,0.24495
3338.17925,0.24634
3340.10772,0.24686
3342.03619,0.24571
3343.96466,0.24212
3345.89312,0.23786
3347.82159,0.23684
3349.75006,0.23946
3351.67853,0.24304
3353.60700,0.24372
3355.53547,0.24043
3357.46394,0.23711
3359.39240,0.23695
3361.32087,0.23823
3363.24934,0.23816
3365.17781,0.23582
3367.10628,0.23207
3369.03475,0.23138
3370.96322,0.23582
3372.89168,0.23824
3374.82015,0.23464
3376.74862,0.23200
3378.67709,0.23296
3380.60556,0.23430
3382.53403,0.23701
3384.46250,0.24093
3386.39097,0.24199
3388.31943,0.23820
3390.24790,0.23468
3392.17637,0.23513
3394.10484,0.23473
3396.03331,0.23387
3397.96178,0.23687
3399.89025,0.24115
3401.81871,0.24218
3403.74718,0.23804
3405.67565,0.23117
3407.60412,0.22528
3409.53259,0.22267
3411.46106,0.22483
3413.38953,0.22850
3415.31800,0.22979
3417.24646,0.22936
3419.17493,0.22811
3421.10340,0.22819
3423.03187,0.23079
3424.96034,0.23221
3426.88881,0.23291
3428.81728,0.23632
3430.74574,0.23971
3432.67421,0.23912
3434.60268,0.23591
3436.53115,0.23178
3438.45962,0.22659
3440.38809,0.22251
3442.31656,0.22229
3444.24503,0.22477
3446.17349,0.22581
3448.10196,0.22303
3450.03043,0.21988
3451.95890,0.21994
3453.88737,0.21994
3455.81584,0.21631
3457.74431,0.21188
3459.67277,0.20898
3461.60124,0.20664
3463.52971,0.20703
3465.45818,0.21374
3467.38665,0.22066
3469.31512,0.21858
3471.24359,0.21350
3473.17206,0.21401
3475.10052,0.21496
3477.02899,0.21284
3478.95746,0.21093
3480.88593,0.20854
3482.81440,0.20635
3484.74287,0.20824
3486.67134,0.21226
3488.59980,0.21287
3490.52827,0.20884
3492.45674,0.20370
3494.38521,0.20056
3496.31368,0.19951
3498.24215,0.20024
3500.17062,0.20285
3502.09909,0.20551
3504.02755,0.20643
3505.95602,0.20470
3507.88449,0.19837
3509.81296,0.18879
3511.74143,0.18503
3513.66990,0.19043
3515.59837,0.19548
3517.52683,0.19475
3519.45530,0.19365
3521.38377,0.19669
3523.31224,0.20179
3525.24071,0.20631
3527.16918,0.20847
3529.09765,0.20244
3531.02611,0.19005
3532.95458,0.18096
3534.88305,0.17738
3536.81152,0.17747
3538.73999,0.18005
3540.66846,0.18273
3542.59693,0.18537
3544.52540,0.18822
3546.45386,0.18838
3548.38233,0.18648
3550.31080,0.18427
3552.23927,0.18122
3554.16774,0.17841
3556.09621,0.17563
3558.02468,0.17287
3559.95314,0.17415
3561.88161,0.18092
3563.81008,0.18849
3565.73855,0.19300
3567.66702,0.19143
3569.59549,0.18647
3571.52396,0.18293
3573.45243,0.17861
3575.38089,0.17251
3577.30936,0.16816
3579.23783,0.16709
3581.16630,0.16644
3583.09477,0.16714
3585.02324,0.17210
3586.95171,0.17679
3588.88017,0.17496
3590.80864,0.16886
3592.73711,0.16235
3594.66558,0.16184
3596.59405,0.16833
3598.52252,0.17104
3600.45099,0.16669
3602.37946,0.16334
3604.30792,0.16614
3606.23639,0.17100
3608.16486,0.17189
3610.09333,0.17071
3612.02180,0.17285
3613.95027,0.17509
3615.87874,0.17527
3617.80720,0.17862
3619.73567,0.17794
3621.66414,0.16480
3623.59261,0.15551
3625.52108,0.15716
3627.44955,0.16356
3629.37802,0.16909
3631.30649,0.16818
3633.23495,0.16006
3635.16342,0.15188
3637.09189,0.15050
3639.02036,0.15188
3640.94883,0.15277
3642.87730,0.15767
3644.80577,0.16831
3646.73423,0.17954
3648.66270,0.18447
3650.59117,0.17778
3652.51964,0.16728
3654.44811,0.16179
3656.37658,0.15916
3658.30505,0.15472
3660.23352,0.15080
3662.16198,0.14819
3664.09045,0.14600
3666.01892,0.14639
3667.94739,0.15228
3669.87586,0.16114
3671.80433,0.16524
3673.73280,0.17156
3675.66126,0.17909
3677.58973,0.17203
3679.51820,0.16250
3681.44667,0.15755
3683.37514,0.15408
3685.30361,0.15252
3687.23208,0.15465
3689.16055,0.15721
3691.08901,0.15243
3693.01748,0.14455
3694.94595,0.13931
3696.87442,0.13638
3698.80289,0.13654
3700.73136,0.14105
3702.65983,0.14567
3704.58829,0.14590
3706.51676,0.14582
3708.44523,0.15057
3710.37370,0.15717
3712.30217,0.15530
3714.23064,0.14992
3716.15911,0.14618
3718.08757,0.14031
3720.01604,0.13359
3721.94451,0.13471
3723.87298,0.14646
3725.80145,0.15311
3727.72992,0.14714
3729.65839,0.14560
3731.58686,0.15570
3733.51532,0.17042
3735.44379,0.18036
3737.37226,0.17560
3739.30073,0.16791
3741.22920,0.16680
3743.15767,0.16562
3745.08614,0.16143
3747.01460,0.16403
3748.94307,0.17220
3750.87154,0.17107
3752.80001,0.15700
3754.72848,0.14896
3756.65695,0.14842
3758.58542,0.15277
3760.51389,0.15382
3762.44235,0.14823
3764.37082,0.14312
3766.29929,0.14071
3768.22776,0.14226
3770.15623,0.14692
3772.08470,0.14696
3774.01317,0.14307
3775.94163,0.14059
3777.87010,0.14070
3779.79857,0.13966
3781.72704,0.13490
3783.65551,0.13073
3785.58398,0.12729
3787.51245,0.12480
3789.44092,0.12683
3791.36938,0.13223
3793.29785,0.13810
3795.22632,0.14208
3797.15479,0.14329
3799.08326,0.14739
3801.01173,0.15457
3802.94020,0.15080
3804.86866,0.14232
3806.79713,0.13975
3808.72560,0.13758
3810.65407,0.13429
3812.58254,0.13539
3814.51101,0.14112
3816.43948,0.14242
3818.36795,0.13802
3820.29641,0.13956
3822.22488,0.14366
3824.15335,0.14389
3826.08182,0.14488
3828.01029,0.14498
3829.93876,0.14115
3831.86723,0.13558
3833.79569,0.13322
3835.72416,0.13810
3837.65263,0.14765
3839.58110,0.15219
3841.50957,0.15164
3843.43804,0.14935
3845.36651,0.14321
3847.29498,0.13772
3849.22344,0.13810
3851.15191,0.14248
3853.08038,0.15273
3855.00885,0.15852
3856.93732,0.14644
3858.86579,0.13354
3860.79426,0.13014
3862.72272,0.13644
3864.65119,0.14264
3866.57966,0.14232
3868.50813,0.14214
3870.43660,0.14200
3872.36507,0.13834
3874.29354,0.13271
3876.22200,0.12898
3878.15047,0.13296
3880.07894,0.14076
3882.00741,0.14232
3883.93588,0.14295
3885.86435,0.14339
3887.79282,0.13885
3889.72129,0.13796
3891.64975,0.13836
3893.57822,0.13050
3895.50669,0.12416
3897.43516,0.12821
3899.36363,0.14008
3901.29210,0.14901
3903.22057,0.15043
3905.14903,0.14369
3907.07750,0.12934
3909.00597,0.11778
3910.93444,0.11648
3912.86291,0.12251
3914.79138,0.12920
3916.71985,0.13314
3918.64832,0.13342
3920.57678,0.13211
3922.50525,0.12997
3924.43372,0.12609
3926.36219,0.12425
3928.29066,0.12636
3930.21913,0.12785
3932.14760,0.12556
3934.07606,0.12222
3936.00453,0.12283
3937.93300,0.12712
3939.86147,0.13116
3941.78994,0.13182
3943.71841,0.12655
3945.64688,0.12025
3947.57535,0.12182
3949.50381,0.12761
3951.43228,0.12763
3953.36075,0.12505
3955.28922,0.12309
3957.21769,0.11896
3959.14616,0.11680
3961.07463,0.11897
3963.00309,0.12089
3964.93156,0.12265
3966.86003,0.12510
3968.78850,0.12764
3970.71697,0.13219
3972.64544,0.13490
3974.57391,0.12936
3976.50238,0.11963
3978.43084,0.11350
3980.35931,0.11158
3982.28778,0.11311
3984.21625,0.11881
3986.14472,0.12314
3988.07319,0.11858
3990.00166,0.11037
3991.93012,0.10835
3993.85859,0.11191
3995.78706,0.11699
3997.71553,0.12000
3999.64400,0.11908
4001.57247,0.11700
4003.50094,0.11604
4005.42941,0.11480
4007.35787,0.10942
4009.28634,0.10253
4011.21481,0.10417
4013.14328,0.11219
4015.07175,0.11408
4017.00022,0.11089
4018.92869,0.11131
4020.85715,0.11232
4022.78562,0.10928
4024.71409,0.10773
4026.64256,0.11103
4028.57103,0.11483
4030.49950,0.11664
4032.42797,0.11416
4034.35644,0.10979
4036.28490,0.11147
4038.21337,0.11233
4040.14184,0.10561
4042.07031,0.10502
4043.99878,0.11224
4045.92725,0.11135
4047.85572,0.10490
4049.78418,0.10547
4051.71265,0.10866
4053.64112,0.10615
4055.56959,0.10381
4057.49806,0.10558
4059.42653,0.10262
4061.35500,0.09710
4063.28346,0.09927
4065.21193,0.10529
4067.14040,0.10835
4069.06887,0.10739
4070.99734,0.10212
4072.92581,0.09794
4074.85428,0.10158
4076.78275,0.10752
4078.71121,0.10736
4080.63968,0.10253
4082.56815,0.09770
4084.49662,0.09554
4086.42509,0.09651
4088.35356,0.09964
4090.28203,0.10194
4092.21049,0.09857
4094.13896,0.09187
4096.06743,0.08885
4097.99590,0.09067
4099.92437,0.09553
4101.85284,0.09917
4103.78131,0.09849
4105.70978,0.09906
4107.63824,0.10362
4109.56671,0.10386
4111.49518,0.09644
4113.42365,0.09138
4115.35212,0.09343
4117.28059,0.09431
4119.20906,0.09078
4121.13752,0.09076
4123.06599,0.09765
4124.99446,0.10325
4126.92293,0.10032
4128.85140,0.09329
4130.77987,0.09234
4132.70834,0.09801
4134.63681,0.10341
4136.56527,0.10554
4138.49374,0.10369
4140.42221,0.09925
4142.35068,0.09713
4144.27915,0.09737
4146.20762,0.09544
4148.13609,0.09240
4150.06455,0.09078
4151.99302,0.09023
4153.92149,0.08989
4155.84996,0.08922
4157.77843,0.08900
4159.70690,0.08967
4161.63537,0.09112
4163.56384,0.08952
4165.49230,0.08496
4167.42077,0.08674
4169.34924,0.09323
4171.27771,0.09362
4173.20618,0.08985
4175.13465,0.08935
4177.06312,0.08974
4178.99158,0.08677
4180.92005,0.08387
4182.84852,0.08461
4184.77699,0.08522
4186.70546,0.08228
4188.63393,0.08086
4190.56240,0.08179
4192.49087,0.07805
4194.41933,0.07504
4196.34780,0.07794
4198.27627,0.07466
4200.20474,0.06867
4202.13321,0.07349
4204.06168,0.07802
4205.99015,0.07693
4207.91861,0.07997
4209.84708,0.08530
4211.77555,0.08670
4213.70402,0.08186
4215.63249,0.07463
4217.56096,0.07265
4219.48943,0.07671
4221.41789,0.08268
4223.34636,0.08479
4225.27483,0.08306
4227.20330,0.08549
4229.13177,0.09034
4231.06024,0.08942
4232.98871,0.08559
4234.91718,0.08243
4236.84564,0.07632
4238.77411,0.07041
4240.70258,0.07028
4242.63105,0.07222
4244.55952,0.07172
4246.48799,0.06909
4248.41646,0.06510
4250.34492,0.06125
4252.27339,0.06278
4254.20186,0.06804
4256.13033,0.06904
4258.05880,0.06816
4259.98727,0.06749
4261.91574,0.06532
4263.84421,0.06425
4265.77267,0.06486
4267.70114,0.06703
4269.62961,0.07051
4271.55808,0.07331
4273.48655,0.07181
4275.41502,0.06522
4277.34349,0.05848
4279.27195,0.05641
4281.20042,0.06318
4283.12889,0.07450
4285.05736,0.07748
4286.98583,0.07057
4288.91430,0.06331
4290.84277,0.05895
4292.77124,0.05773
4294.69970,0.06201
4296.62817,0.06638
4298.55664,0.06333
4300.48511,0.05668
4302.41358,0.05458
4304.34205,0.05778
4306.27052,0.06039
4308.19898,0.05898
4310.12745,0.05837
4312.05592,0.06121
4313.98439,0.06164
4315.91286,0.06101
4317.84133,0.06440
4319.76980,0.06732
4321.69827,0.06713
4323.62673,0.06647
4325.55520,0.06652
4327.48367,0.06729
4329.41214,0.06539
4331.34061,0.05608
4333.26908,0.04440
4335.19755,0.04325
4337.12601,0.05301
4339.05448,0.06161
4340.98295,0.06804
4342.91142,0.07584
4344.83989,0.07502
4346.76836,0.06154
4348.69683,0.05021
4350.62530,0.04929
4352.55376,0.04964
4354.48223,0.04502
4356.41070,0.03961
4358.33917,0.03826
4360.26764,0.04301
4362.19611,0.04972
4364.12458,0.05281
4366.05304,0.05337
4367.98151,0.05013
4369.90998,0.04181
4371.83845,0.03904
4373.76692,0.04674
4375.69539,0.05555
4377.62386,0.05968
4379.55232,0.05601
4381.48079,0.04843
4383.40926,0.05072
4385.33773,0.05894
4387.26620,0.05562
4389.19467,0.04400
4391.12314,0.03907
4393.05161,0.03900
4394.98007,0.03786
4396.90854,0.03646
4398.83701,0.03261
4400.76548,0.02947
4402.69395,0.03386
4404.62242,0.04230
4406.55089,0.04596
4408.47935,0.04214
4410.40782,0.03735
4412.33629,0.03778
4414.26476,0.04214
4416.19323,0.04606
4418.12170,0.04326
4420.05017,0.03669
4421.97864,0.03480
4423.90710,0.03250
4425.83557,0.02921
4427.76404,0.03038
4429.69251,0.03012
4431.62098,0.02796
4433.54945,0.02970
4435.47792,0.03026
4437.40638,0.02472
4439.33485,0.02307
4441.26332,0.03266
4443.19179,0.04173
4445.12026,0.03758
4447.04873,0.02532
4448.97720,0.01877
4450.90567,0.02359
4452.83413,0.03405
4454.76260,0.04125
4456.69107,0.03952
4458.61954,0.03341
4460.54801,0.03475
4462.47648,0.03945
4464.40495,0.03837
4466.33341,0.03434
4468.26188,0.02752
4470.19035,0.02336
4472.11882,0.02924
4474.04729,0.03385
4475.97576,0.02872
4477.90423,0.02451
4479.83270,0.02365
4481.76116,0.01711
4483.68963,0.00790
4485.61810,0.00484
4487.54657,0.01142
4489.47504,0.02419
4491.40351,0.03246
4493.33198,0.03078
4495.26044,0.02254
4497.18891,0.01256
4499.11738,0.00778
4501.04585,0.01437
4502.97432,0.02585
4504.90279,0.03177
4506.83126,0.03344
4508.75973,0.02902
4510.68819,0.01626
4512.61666,0.00623
4514.54513,0.00325
4516.47360,0.00199
4518.40207,0.00436
4520.33054,0.01288
4522.25901,0.02106
4524.18747,0.02523
4526.11594,0.02943
4528.04441,0.03175
4529.97288,0.02775
4531.90135,0.02454
4533.82982,0.02717
4535.75829,0.02597
4537.68676,0.02276
4539.61522,0.02392
4541.54369,0.01939
4543.47216,0.01155
4545.40063,0.00584
4547.32910,0.00073
4549.25757,0.00317
4551.18604,0.01159
4553.11450,0.02122
4555.04297,0.02939
4556.97144,0.02651
4558.89991,0.01348
4560.82838,0.00591
4562.75685,0.00880
4564.68532,0.00951
4566.61378,0.00329
4568.54225,0.00180
4570.47072,0.01162
4572.39919,0.02190
4574.32766,0.02200
4576.25613,0.01736
4578.18460,0.01775
4580.11307,0.02267
4582.04153,0.02541
4583.97000,0.02704
4585.89847,0.02718
4587.82694,0.02123
4589.75541,0.01533
4591.68388,0.01581
4593.61235,0.01968
4595.54081,0.02193
4597.46928,0.01973
4599.39775,0.01204
4601.32622,0.00380
4603.25469,0.00255
4605.18316,0.00693
4607.11163,0.01095
4609.04010,0.01015
4610.96856,0.00569
4612.89703,0.00478
4614.82550,0.00711
4616.75397,0.00932
4618.68244,0.01237
4620.61091,0.01333
4622.53938,0.01146
4624.46784,0.00831
4626.39631,0.00110
4628.32478,-0.00879
4630.25325,-0.01425
4632.18172,-0.01004
4634.11019,-0.00450
4636.03866,-0.00599
4637.96713,-0.00388
4639.89559,0.00679
4641.82406,0.01608
4643.75253,0.01907
4645.68100,0.01960
4647.60947,0.02182
4649.53794,0.02349
4651.46641,0.01827
4653.39487,0.00812
4655.32334,0.00163
4657.25181,-0.00091
4659.18028,-0.00147
4661.10875,-0.00047
4663.03722,-0.00203
4664.96569,-0.00184
4666.89416,0.00132
4668.82262,0.00054
4670.75109,0.00275
4672.67956,0.01272
4674.60803,0.01959
4676.53650,0.01722
4678.46497,0.01002
4680.39344,0.00529
4682.32190,0.00556
4684.25037,0.00585
4686.17884,0.00123
4688.10731,-0.00326
4690.03578,-0.00307
4691.96425,-0.00168
4693.89272,0.00253
4695.82119,0.00683
4697.74965,0.00370
4699.67812,-0.00334
4701.60659,-0.00552
4703.53506,0.00003
4705.46353,0.00772
4707.39200,0.01017
4709.32047,0.00473
4711.24893,0.00118
4713.17740,0.01009
4715.10587,0.02113
4717.03434,0.02436
4718.96281,0.02593
4720.89128,0.02589
4722.81975,0.01814
4724.74821,0.00989
4726.67668,0.00682
4728.60515,0.00256
4730.53362,-0.00204
4732.46209,-0.00070
4734.39056,0.00492
4736.31903,0.00805
4738.24750,0.00774
4740.17596,0.01327
4742.10443,0.02547
4744.03290,0.02915
4745.96137,0.02370
4747.88984,0.01698
4749.81831,0.00617
4751.74678,-0.00340
4753.67524,-0.00835
4755.60371,-0.00640
4757.53218,0.00890
4759.46065,0.02376
4761.38912,0.02246
4763.31759,0.01281
4765.24606,0.00369
4767.17453,-0.00302
4769.10299,-0.00303
4771.03146,0.00136
4772.95993,0.00031
4774.88840,-0.00347
4776.81687,0.00086
4778.74534,0.00770
4780.67381,0.00541
4782.60227,-0.00253
4784.53074,-0.00458
4786.45921,0.00219
4788.38768,0.01422
4790.31615,0.02459
4792.24462,0.02127
4794.17309,0.00998
4796.10156,0.00640
4798.03002,0.00946
4799.95849,0.01172
4801.88696,0.01176
4803.81543,0.01076
4805.74390,0.00528
4807.67237,-0.00229
4809.60084,-0.00812
4811.52930,-0.01471
4813.45777,-0.01262
4815.38624,-0.00226
4817.31471,-0.00270
4819.24318,-0.01072
4821.17165,-0.01203
4823.10012,-0.01189
4825.02859,-0.01419
4826.95705,-0.01322
4828.88552,-0.00529
4830.81399,0.01000
4832.74246,0.02659
4834.67093,0.03044
4836.59940,0.01697
4838.52787,0.00722
4840.45633,0.01215
4842.38480,0.01641
4844.31327,0.01350
4846.24174,0.01148
4848.17021,0.01255
4850.09868,0.00685
4852.02715,-0.00062
4853.95562,0.00411
4855.88408,0.00785
4857.81255,0.00685
4859.74102,0.01127
4861.66949,0.01194
4863.59796,0.01311
4865.52643,0.02363
4867.45490,0.03051
4869.38336,0.02225
4871.31183,0.00275
4873.24030,-0.00966
4875.16877,-0.00778
4877.09724,0.00268
4879.02571,0.02017
4880.95418,0.03559
4882.88265,0.04175
4884.81111,0.04142
4886.73958,0.03497
4888.66805,0.02273
4890.59652,0.01220
4892.52499,0.00520
4894.45346,0.00205
4896.38193,0.01663
4898.31039,0.04142
4900.23886,0.04649
4902.16733,0.03700
4904.09580,0.03004
4906.02427,0.01782
4907.95274,0.00404
4909.88121,0.00178
4911.80967,0.00570
4913.73814,0.00800
4915.66661,0.01019
4917.59508,0.01312
4919.52355,0.00684
4921.45202,-0.00415
4923.38049,0.00335
4925.30896,0.01414
4927.23742,0.00444
4929.16589,-0.00058
4931.09436,0.00745
4933.02283,0.00750
4934.95130,0.00658
4936.87977,0.01125
4938.80824,0.01001
4940.73670,0.00815
4942.66517,0.01384
4944.59364,0.02577
4946.52211,0.04013
4948.45058,0.03792
4950.37905,0.01703
4952.30752,0.00177
4954.23599,0.00020
4956.16445,0.01012
4958.09292,0.02693
4960.02139,0.03481
4961.94986,0.02620
4963.87833,0.01866
4965.80680,0.02282
4967.73527,0.02201
4969.66373,0.01382
4971.59220,0.01438
4973.52067,0.02410
4975.44914,0.02961
4977.37761,0.02709
4979.30608,0.01833
4981.23455,0.01000
4983.16302,0.01750
4985.09148,0.03444
4987.01995,0.04156
4988.94842,0.03856
4990.87689,0.02822
4992.80536,0.01480
4994.73383,0.01897
4996.66230,0.03659
4998.59076,0.03659
5000.51923,0.02260
5002.44770,0.01368
5004.37617,0.00971
5006.30464,0.00689
5008.23311,0.00471
5010.16158,0.00070
5012.09005,-0.00407
5014.01851,0.00158
5015.94698,0.01932
5017.87545,0.02853
5019.80392,0.01834
5021.73239,0.00603
5023.66086,0.01175
5025.58933,0.03376
5027.51779,0.05165
5029.44626,0.05361
5031.37473,0.04915
5033.30320,0.04539
5035.23167,0.03934
5037.16014,0.03919
5039.08861,0.04624
5041.01708,0.04683
5042.94554,0.04654
5044.87401,0.04600
5046.80248,0.03065
5048.73095,0.01362
5050.65942,0.01135
5052.58789,0.01462
5054.51636,0.01976
5056.44482,0.02566
5058.37329,0.02324
5060.30176,0.02431
5062.23023,0.03707
5064.15870,0.04026
5066.08717,0.02631
5068.01564,0.00767
5069.94410,-0.00600
5071.87257,-0.00839
5073.80104,-0.00243
5075.72951,0.00200
5077.65798,0.00726
5079.58645,0.02114
5081.51492,0.03470
5083.44339,0.03880
5085.37185,0.04098
5087.30032,0.04212
5089.22879,0.03463
5091.15726,0.02650
5093.08573,0.02640
5095.01420,0.02832
5096.94267,0.02578
5098.87113,0.01842
5100.79960,0.01744
5102.72807,0.03176
5104.65654,0.04425
5106.58501,0.03483
5108.51348,0.01837
5110.44195,0.01663
5112.37042,0.01877
5114.29888,0.01168
5116.22735,0.00658
5118.15582,0.01908
5120.08429,0.04222
5122.01276,0.05432
5123.94123,0.05490
5125.86970,0.05456
5127.79816,0.05364
5129.72663,0.05034
5131.65510,0.04334
5133.58357,0.03406
5135.51204,0.02761
5137.44051,0.02570
5139.36898,0.02964
5141.29745,0.03683
5143.22591,0.03301
5145.15438,0.01558
5147.08285,0.00803
5149.01132,0.02612
5150.93979,0.05377
5152.86826,0.06548
5154.79673,0.05965
5156.72519,0.05033
5158.65366,0.04108
5160.58213,0.03526
5162.51060,0.03857
5164.43907,0.03835
5166.36754,0.02647
5168.29601,0.02424
5170.22448,0.04807
5172.15294,0.07529
5174.08141,0.07353
5176.00988,0.04694
5177.93835,0.02152
5179.86682,0.00620
5181.79529,-0.00291
5183.72376,-0.00189
5185.65222,0.01305
5187.58069,0.03171
5189.50916,0.04523
5191.43763,0.05513
5193.36610,0.05575
5195.29457,0.04930
5197.22304,0.04910
5199.15151,0.05424
5201.07997,0.05288
5203.00844,0.03346
5204.93691,0.01062
5206.86538,0.01573
5208.79385,0.03547
5210.72232,0.04613
5212.65079,0.05356
5214.57925,0.05968
5216.50772,0.06203
5218.43619,0.06523
5220.36466,0.07692
5222.29313,0.09119
5224.22160,0.09041
5226.15007,0.07122
5228.07854,0.05039
5230.00700,0.04418
5231.93547,0.05646
5233.86394,0.06779
5235.79241,0.06651
5237.72088,0.06085
5239.64935,0.05278
5241.57782,0.05320
5243.50628,0.06731
5245.43475,0.07475
5247.36322,0.07281
5249.29169,0.07257
5251.22016,0.06099
5253.14863,0.03844
5255.07710,0.02929
5257.00556,0.03076
5258.93403,0.02760
5260.86250,0.02847
5262.79097,0.04043
5264.71944,0.06106
5266.64791,0.07724
5268.57638,0.07707
5270.50485,0.06668
5272.43331,0.05841
5274.36178,0.05431
5276.29025,0.04332
5278.21872,0.03062
5280.14719,0.03170
5282.07566,0.04349
5284.00413,0.05947
5285.93259,0.05667
5287.86106,0.02988
5289.78953,0.02823
5291.71800,0.05992
5293.64647,0.07560
5295.57494,0.06989
5297.50341,0.05762
5299.43188,0.04160
5301.36034,0.02339
5303.28881,0.00123
5305.21728,-0.01522
5307.14575,-0.00418
5309.07422,0.02511
5311.00269,0.03595
5312.93116,0.03278
5314.85962,0.04212
5316.78809,0.05762
5318.71656,0.05601
5320.64503,0.04359
5322.57350,0.04447
5324.50197,0.06107
5326.43044,0.07180
5328.35891,0.05272
5330.28737,0.02023
5332.21584,0.01719
5334.14431,0.04821
5336.07278,0.06969
5338.00125,0.05105
5339.92972,0.02978
5341.85819,0.03602
5343.78665,0.04208
5345.71512,0.05245
5347.64359,0.08503
5349.57206,0.11067
5351.50053,0.10944
5353.42900,0.09439
5355.35747,0.08104
5357.28594,0.07113
5359.21440,0.06769
5361.14287,0.07945
5363.07134,0.09503
5364.99981,0.09263
5366.92828,0.07546
5368.85675,0.05221
5370.78522,0.04010
5372.71368,0.05223
5374.64215,0.06460
5376.57062,0.06546
5378.49909,0.06550
5380.42756,0.05858
5382.35603,0.04977
5384.28450,0.05365
5386.21297,0.07210
5388.14143,0.09305
5390.06990,0.09639
5391.99837,0.07476
5393.92684,0.04630
5395.85531,0.02925
5397.78378,0.02948
5399.71225,0.04755
5401.64071,0.07036
5403.56918,0.08802
5405.49765,0.09686
5407.42612,0.09662
5409.35459,0.09676
5411.28306,0.09432
5413.21153,0.06781
5415.13999,0.03980
5417.06846,0.04283
5418.99693,0.04628
5420.92540,0.02976
5422.85387,0.02381
5424.78234,0.04823
5426.71081,0.07997
5428.63928,0.08527
5430.56774,0.07295
5432.49621,0.06933
5434.42468,0.06989
5436.35315,0.08016
5438.28162,0.09349
5440.21009,0.07814
5442.13856,0.04468
5444.06702,0.02492
5445.99549,0.01936
5447.92396,0.02603
5449.85243,0.04285
5451.78090,0.06293
5453.70937,0.08259
5455.63784,0.09648
5457.56631,0.09348
5459.49477,0.08718
5461.42324,0.08817
5463.35171,0.07343
5465.28018,0.04923
5467.20865,0.04337
5469.13712,0.06423
5471.06559,0.08836
5472.99405,0.08381
5474.92252,0.05472
5476.85099,0.02877
5478.77946,0.02567
5480.70793,0.04652
5482.63640,0.06882
5484.56487,0.07919
5486.49334,0.09556
5488.42180,0.11278
5490.35027,0.11802
5492.27874,0.12148
5494.20721,0.12000
5496.13568,0.11095
5498.06415,0.08765
5499.99262,0.05852
5501.92108,0.05238
5503.84955,0.05483
5505.77802,0.04655
5507.70649,0.03422
5509.63496,0.02476
5511.56343,0.02751
5513.49190,0.04238
5515.42037,0.05480
5517.34883,0.07006
5519.27730,0.09320
5521.20577,0.10557
5523.13424,0.09876
5525.06271,0.08067
5526.99118,0.06952
5528.91965,0.07416
5530.84811,0.08296
5532.77658,0.08314
5534.70505,0.07099
5536.63352,0.07109
5538.56199,0.10219
5540.49046,0.12384
5542.41893,0.09906
5544.34740,0.06922
5546.27586,0.08235
5548.20433,0.09970
5550.13280,0.08342
5552.06127,0.06737
5553.98974,0.06664
5555.91821,0.06192
5557.84668,0.05457
5559.77514,0.05790
5561.70361,0.07826
5563.63208,0.09601
5565.56055,0.08723
5567.48902,0.07341
5569.41749,0.08339
5571.34596,0.11074
5573.27443,0.13042
5575.20289,0.12598
5577.13136,0.11108
5579.05983,0.10071
5580.98830,0.08843
5582.91677,0.07488
5584.84524,0.07737
5586.77371,0.09971
5588.70217,0.11447
5590.63064,0.10371
5592.55911,0.10040
5594.48758,0.11223
5596.41605,0.10672
5598.34452,0.09013
5600.27299,0.09070
5602.20145,0.09453
5604.12992,0.07451
5606.05839,0.06189
5607.98686,0.08395
5609.91533,0.10075
5611.84380,0.08941
5613.77227,0.07415
5615.70074,0.07225
5617.62920,0.07779
5619.55767,0.08546
5621.48614,0.09523
5623.41461,0.08639
5625.34308,0.05939
5627.27155,0.06540
5629.20002,0.10508
5631.12848,0.11317
5633.05695,0.08132
5634.98542,0.05876
5636.91389,0.07070
5638.84236,0.09541
5640.77083,0.10388
5642.69930,0.09382
5644.62777,0.07512
5646.55623,0.05451
5648.48470,0.04541
5650.41317,0.04902
5652.34164,0.06460
5654.27011,0.10748
5656.19858,0.15645
5658.12705,0.16455
5660.05551,0.13898
5661.98398,0.12719
5663.91245,0.13783
5665.84092,0.14443
5667.76939,0.14173
5669.69786,0.14607
5671.62633,0.14375
5673.55480,0.11180
5675.48326,0.08231
5677.41173,0.07829
5679.34020,0.08667
5681.26867,0.10509
5683.19714,0.11312
5685.12561,0.11351
5687.05408,0.12286
5688.98254,0.10399
5690.91101,0.06223
5692.83948,0.06285
5694.76795,0.09350
5696.69642,0.09658
5698.62489,0.06994
5700.55336,0.05188
5702.48183,0.07076
5704.41029,0.10696
5706.33876,0.11976
5708.26723,0.10508
5710.19570,0.08989
5712.12417,0.08649
5714.05264,0.09019
5715.98111,0.11160
5717.90957,0.14050
5719.83804,0.15458
5721.76651,0.14946
5723.69498,0.12051
5725.62345,0.09433
5727.55192,0.08969
5729.48039,0.07933
5731.40886,0.06240
5733.33732,0.06223
5735.26579,0.07183
5737.19426,0.07134
5739.12273,0.05716
5741.05120,0.04306
5742.97967,0.04614
5744.90814,0.05163
5746.83660,0.03801
5748.76507,0.02007
5750.69354,0.03188
5752.62201,0.06105
5754.55048,0.06311
5756.47895,0.05975
5758.40742,0.07385
5760.33588,0.08692
5762.26435,0.11178
5764.19282,0.13991
5766.12129,0.13663
5768.04976,0.12153
5769.97823,0.10699
5771.90670,0.08966
5773.83517,0.09260
5775.76363,0.10587
5777.69210,0.08476
5779.62057,0.04784
5781.54904,0.05966
5783.47751,0.09864
5785.40598,0.09239
5787.33445,0.05665
5789.26291,0.05310
5791.19138,0.07410
5793.11985,0.08473
5795.04832,0.07542
5796.97679,0.06031
5798.90526,0.05734
5800.83373,0.07130
5802.76220,0.09578
5804.69066,0.09975
5806.61913,0.07974
5808.54760,0.07231
5810.47607,0.07717
5812.40454,0.07686
5814.33301,0.08218
5816.26148,0.09588
5818.18994,0.09555
5820.11841,0.08482
5822.04688,0.08032
5823.97535,0.07195
5825.90382,0.05769
5827.83229,0.05309
5829.76076,0.06751
5831.68923,0.09397
5833.61769,0.11030
5835.54616,0.10232
5837.47463,0.09310
5839.40310,0.10680
5841.33157,0.12117
5843.26004,0.10150
5845.18851,0.08435
5847.11697,0.11338
5849.04544,0.13514
5850.97391,0.11110
5852.90238,0.09488
5854.83085,0.12381
5856.75932,0.18644
5858.68779,0.22104
5860.61626,0.19389
5862.54472,0.16176
5864.47319,0.15214
5866.40166,0.13889
5868.33013,0.11221
5870.25860,0.08056
5872.18707,0.08562
5874.11554,0.12245
5876.04400,0.12631
5877.97247,0.10372
5879.90094,0.08730
5881.82941,0.06435
5883.75788,0.06414
5885.68635,0.10039
5887.61482,0.13057
5889.54329,0.14077
5891.47175,0.12420
5893.40022,0.08996
5895.32869,0.06447
5897.25716,0.06126
5899.18563,0.09448
5901.11410,0.14039
5903.04257,0.15716
5904.97103,0.14727
5906.89950,0.13315
5908.82797,0.11919
5910.75644,0.12592
5912.68491,0.13502
5914.61338,0.09271
5916.54185,0.05787
5918.47032,0.06786
5920.39878,0.05540
5922.32725,0.02377
5924.25572,0.01718
5926.18419,0.00966
5928.11266,-0.01428
5930.04113,0.00259
5931.96960,0.07264
5933.89806,0.12509
5935.82653,0.12304
5937.75500,0.11907
5939.68347,0.13181
5941.61194,0.12560
5943.54041,0.11067
5945.46888,0.10906
5947.39734,0.10540
5949.32581,0.08401
5951.25428,0.04759
5953.18275,0.01136
5955.11122,0.00132
5957.03969,0.03563
5958.96816,0.09352
5960.89663,0.13714
5962.82509,0.15038
5964.75356,0.13679
5966.68203,0.13162
5968.61050,0.15775
5970.53897,0.15984
5972.46744,0.12196
5974.39591,0.11000
5976.32437,0.12033
5978.25284,0.10279
5980.18131,0.08259
5982.10978,0.11835
5984.03825,0.19098
5985.96672,0.22840
5987.89519,0.22169
5989.82366,0.19171
5991.75212,0.12261
5993.68059,0.04969
5995.60906,0.05165
5997.53753,0.09091
5999.46600,0.07951
6001.39447,0.04291
6003.32294,0.04674
6005.25140,0.08006
6007.17987,0.10418
6009.10834,0.13860
6011.03681,0.16762
6012.96528,0.13906
6014.89375,0.08593
6016.82222,0.05238
6018.75069,0.02863
6020.67915,0.03432
6022.60762,0.07952
6024.53609,0.12067
6026.46456,0.11281
6028.39303,0.05700
6030.32150,0.01725
6032.24997,0.00453
6034.17843,-0.02075
6036.10690,-0.04080
6038.03537,-0.02346
6039.96384,0.02924
6041.89231,0.09193
6043.82078,0.11974
6045.74925,0.09841
6047.67772,0.07423
6049.60618,0.07383
6051.53465,0.07986
6053.46312,0.09996
6055.39159,0.12902
6057.32006,0.13108
6059.24853,0.12199
6061.17700,0.14220
6063.10546,0.17774
6065.03393,0.18236
6066.96240,0.15915
6068.89087,0.12988
6070.81934,0.08395
6072.74781,0.03348
6074.67628,0.04533
6076.60475,0.12559
6078.53321,0.18274
6080.46168,0.18265
6082.39015,0.15827
6084.31862,0.10465
6086.24709,0.05316
6088.17556,0.06245
6090.10403,0.08174
6092.03249,0.07761
6093.96096,0.08561
6095.88943,0.10563
6097.81790,0.11497
6099.74637,0.08249
6101.67484,0.01053
6103.60331,-0.03690
6105.53177,-0.01864
6107.46024,0.02319
6109.38871,0.03026
6111.31718,0.04848
6113.24565,0.09818
6115.17412,0.11497
6117.10259,0.10639
6119.03106,0.11894
6120.95952,0.14158
6122.88799,0.13492
6124.81646,0.09261
6126.74493,0.04973
6128.67340,0.04451
6130.60187,0.07265
6132.53034,0.10019
6134.45880,0.11053
6136.38727,0.11857
6138.31574,0.13720
6140.24421,0.14466
6142.17268,0.14316
6144.10115,0.15278
6146.02962,0.13605
6147.95809,0.09845
6149.88655,0.09960
6151.81502,0.12915
6153.74349,0.11564
6155.67196,0.06931
6157.60043,0.07809
6159.52890,0.13991
6161.45737,0.14846
6163.38583,0.09196
6165.31430,0.05642
6167.24277,0.05008
6169.17124,0.05992
6171.09971,0.11279
6173.02818,0.16143
6174.95665,0.15180
6176.88512,0.13691
6178.81358,0.14970
6180.74205,0.15628
6182.67052,0.14820
6184.59899,0.14636
6186.52746,0.16539
6188.45593,0.17845
6190.38440,0.15463
6192.31286,0.13193
6194.24133,0.11720
6196.16980,0.06916
6198.09827,0.01623
6200.02674,-0.00319
6201.95521,0.00992
6203.88368,0.06950
6205.81215,0.12239
6207.74061,0.10922
6209.66908,0.05992
6211.59755,0.01666
6213.52602,0.01698
6215.45449,0.05335
6217.38296,0.05246
6219.31143,0.00407
6221.23989,-0.01794
6223.16836,0.00635
6225.09683,0.04032
6227.02530,0.06587
6228.95377,0.08903
6230.88224,0.15245
6232.81071,0.25070
6234.73918,0.27123
6236.66764,0.18566
6238.59611,0.10021
6240.52458,0.10818
6242.45305,0.16452
6244.38152,0.15626
6246.30999,0.08501
6248.23846,0.03872
6250.16692,0.04414
6252.09539,0.05200
6254.02386,0.03083
6255.95233,0.00408
6257.88080,0.00547
6259.80927,0.04216
6261.73774,0.07770
6263.66621,0.06143
6265.59467,0.01755
6267.52314,0.05011
6269.45161,0.13548
6271.38008,0.14479
6273.30855,0.07739
6275.23702,0.05187
6277.16549,0.09901
6279.09395,0.14235
6281.02242,0.15597
6282.95089,0.16937
6284.87936,0.16546
6286.80783,0.12716
6288.73630,0.09297
6290.66477,0.08218
6292.59323,0.09537
6294.52170,0.12405
6296.45017,0.14067
6298.37864,0.13965
6300.30711,0.13571
6302.23558,0.13833
6304.16405,0.16644
6306.09252,0.20344
6308.02098,0.18960
6309.94945,0.13294
6311.87792,0.08750
6313.80639,0.06006
6315.73486,0.02895
6317.66333,0.01512
6319.59180,0.05519
6321.52026,0.09656
6323.44873,0.08650
6325.37720,0.05912
6327.30567,0.03253
6329.23414,0.02365
6331.16261,0.07084
6333.09108,0.12454
6335.01955,0.09023
6336.94801,0.03342
6338.87648,0.08337
6340.80495,0.15199
6342.73342,0.08554
6344.66189,-0.02477
6346.59036,-0.01632
6348.51883,0.07462
6350.44729,0.15530
6352.37576,0.17198
6354.30423,0.14016
6356.23270,0.13478
6358.16117,0.13174
6360.08964,0.12211
6362.01811,0.13636
6363.94658,0.13137
6365.87504,0.10914
6367.80351,0.08832
6369.73198,0.07476
6371.66045,0.08806
6373.58892,0.10941
6375.51739,0.12350
6377.44586,0.11828
6379.37432,0.11073
6381.30279,0.12046
6383.23126,0.11293
6385.15973,0.09023
6387.08820,0.11563
6389.01667,0.18871
6390.94514,0.24488
6392.87361,0.23600
6394.80207,0.19968
6396.73054,0.20939
6398.65901,0.24585
6400.58748,0.22176
6402.51595,0.12819
6404.44442,0.06482
6406.37289,0.08274
6408.30135,0.12930
6410.22982,0.14504
6412.15829,0.15278
6414.08676,0.15648
6416.01523,0.13496
6417.94370,0.11168
6419.87217,0.06283
6421.80064,-0.01141
6423.72910,-0.03656
6425.65757,0.00381
6427.58604,0.06167
6429.51451,0.11427
6431.44298,0.15063
6433.37145,0.14370
6435.29992,0.13660
6437.22838,0.16059
6439.15685,0.15863
6441.08532,0.11552
6443.01379,0.07164
6444.94226,0.05154
6446.87073,0.02086
6448.79920,-0.02262
6450.72766,-0.02595
6452.65613,-0.00387
6454.58460,0.01130
6456.51307,0.03767
6458.44154,0.07470
6460.37001,0.10522
6462.29848,0.12139
6464.22695,0.11012
6466.15541,0.08365
6468.08388,0.06804
6470.01235,0.05321
6471.94082,0.03733
6473.86929,0.05553
6475.79776,0.07763
6477.72623,0.04666
6479.65469,0.03985
6481.58316,0.08984
6483.51163,0.10607
6485.44010,0.08602
6487.36857,0.05122
6489.29704,0.01754
6491.22551,0.03349
6493.15398,0.07969
6495.08244,0.10701
6497.01091,0.11509
6498.93938,0.13368
6500.86785,0.18144
6502.79632,0.18120
6504.72479,0.09030
6506.65326,-0.02645
6508.58172,-0.07893
6510.51019,0.00954
6512.43866,0.16430
6514.36713,0.21612
6516.29560,0.15462
6518.22407,0.07632
6520.15254,0.03387
6522.08101,0.01884
6524.00947,0.00351
6525.93794,-0.00987
6527.86641,0.03246
6529.79488,0.09871
6531.72335,0.09518
6533.65182,0.04298
6535.58029,0.01881
6537.50875,0.04824
6539.43722,0.13295
6541.36569,0.19190
6543.29416,0.12373
6545.22263,0.00974
6547.15110,-0.00854
6549.07957,0.03920
6551.00804,0.04053
6552.93650,0.01839
6554.86497,0.03487
6556.79344,0.03825
6558.72191,0.01576
6560.65038,0.00418
6562.57885,0.00501
6564.50732,0.02630
6566.43578,0.08514
6568.36425,0.12455
6570.29272,0.11439
6572.22119,0.12142
6574.14966,0.14695
6576.07813,0.12269
6578.00660,0.07497
6579.93507,0.09779
6581.86353,0.14861
6583.79200,0.09208
6585.72047,-0.01120
6587.64894,0.00254
6589.57741,0.05045
6591.50588,0.00193
6593.43435,-0.04501
6595.36281,-0.02607
6597.29128,-0.00771
6599.21975,0.01349
6601.14822,0.06414
6603.07669,0.10658
6605.00516,0.11789
6606.93363,0.13664
6608.86210,0.14487
6610.79056,0.09460
6612.71903,0.01058
6614.64750,-0.04400
6616.57597,-0.03271
6618.50444,0.00437
6620.43291,-0.01423
6622.36138,-0.07262
6624.28984,-0.07418
6626.21831,-0.01416
6628.14678,0.03548
6630.07525,0.03961
6632.00372,0.00770
6633.93219,-0.02239
6635.86066,0.00147
6637.78912,0.07427
6639.71759,0.11933
6641.64606,0.11878
6643.57453,0.05993
6645.50300,-0.03469
6647.43147,-0.04089
6649.35994,0.03213
6651.28841,0.03406
6653.21687,-0.02733
6655.14534,-0.03410
6657.07381,0.02104
6659.00228,0.06705
6660.93075,0.06845
6662.85922,0.03061
6664.78769,0.01486
6666.71615,0.03587
6668.64462,0.04403
6670.57309,0.03132
6672.50156,0.01794
6674.43003,-0.00305
6676.35850,-0.02059
6678.28697,0.00744
6680.21544,0.03997
6682.14390,0.02397
6684.07237,-0.00723
6686.00084,-0.03913
6687.92931,-0.05986
6689.85778,-0.02195
6691.78625,0.04979
6693.71472,0.12033
6695.64318,0.19591
6697.57165,0.22092
6699.50012,0.12347
6701.42859,-0.00229
6703.35706,-0.02274
6705.28553,0.02533
6707.21400,0.05088
6709.14247,0.04276
6711.07093,0.03639
6712.99940,0.03555
6714.92787,0.01993
6716.85634,0.02516
6718.78481,0.08503
6720.71328,0.13174
6722.64175,0.07864
6724.57021,-0.01406
6726.49868,0.00098
6728.42715,0.09312
6730.35562,0.11789
6732.28409,0.08422
6734.21256,0.06643
6736.14103,0.06146
6738.06950,0.07348
6739.99796,0.07129
6741.92643,0.00262
6743.85490,-0.07189
6745.78337,-0.05205
6747.71184,0.08205
6749.64031,0.18731
6751.56878,0.14430
6753.49724,0.06780
6755.42571,0.02878
6757.35418,-0.00071
6759.28265,0.01377
6761.21112,0.03624
6763.13959,0.03512
6765.06806,0.10500
6766.99653,0.18531
6768.92499,0.12957
6770.85346,0.02014
6772.78193,0.05166
6774.71040,0.17217
6776.63887,0.17605
6778.56734,0.10520
6780.49581,0.08945
6782.42427,0.07128
6784.35274,0.02678
6786.28121,0.07090
6788.20968,0.17872
6790.13815,0.19009
6792.06662,0.10793
6793.99509,0.06330
6795.92355,0.07783
6797.85202,0.12543
6799.78049,0.17480
6801.70896,0.16902
6803.63743,0.12001
6805.56590,0.09436
6807.49437,0.08504
6809.42284,0.06012
6811.35130,-0.00556
6813.27977,-0.05788
6815.20824,-0.02642
6817.13671,0.03618
6819.06518,0.10093
6820.99365,0.21450
6822.92212,0.27371
6824.85058,0.17605
6826.77905,0.08829
6828.70752,0.09278
6830.63599,0.17342
6832.56446,0.27982
6834.49293,0.29392
6836.42140,0.15643
6838.34987,0.04564
6840.27833,0.12221
6842.20680,0.24740
6844.13527,0.24968
6846.06374,0.20917
6847.99221,0.26047
6849.92068,0.28956
6851.84915,0.21103
6853.77761,0.11447
6855.70608,0.00574
6857.63455,-0.06285
6859.56302,-0.07715
6861.49149,-0.03988
6863.41996,0.06960
6865.34843,0.10859
6867.27690,0.05509
6869.20536,0.05876
6871.13383,0.08292
6873.06230,0.04206
6874.99077,-0.01757
6876.91924,-0.05331
6878.84771,-0.04215
6880.77618,0.01324
6882.70464,0.03117
6884.63311,0.00665
6886.56158,0.01147
6888.49005,0.01939
6890.41852,-0.03963
6892.34699,-0.10826
6894.27546,-0.11818
6896.20393,-0.11227
6898.13239,-0.09175
6900.06086,-0.03307
6901.98933,-0.03933
6903.91780,-0.10261
6905.84627,-0.00984
6907.77474,0.18122
6909.70321,0.22641
6911.63167,0.16512
6913.56014,0.11529
6915.48861,0.08925
6917.41708,0.10843
6919.34555,0.12778
6921.27402,0.08845
6923.20249,0.10324
6925.13096,0.17845
6927.05942,0.20851
6928.98789,0.16197
6930.91636,0.06720
6932.84483,-0.00608
6934.77330,-0.00597
6936.70177,0.01608
6938.63024,0.06416
6940.55870,0.17140
6942.48717,0.21436
6944.41564,0.12198
6946.34411,-0.04050
6948.27258,-0.14018
6950.20105,-0.09180
6952.12952,0.05923
6954.05799,0.19918
6955.98645,0.19054
6957.91492,0.04951
6959.84339,-0.07717
6961.77186,-0.10108
6963.70033,-0.07195
6965.62880,-0.03584
6967.55727,0.03688
6969.48573,0.07443
6971.41420,0.01951
6973.34267,-0.05956
6975.27114,-0.09098
6977.19961,-0.06251
6979.12808,-0.07344
6981.05655,-0.10320
6982.98501,0.00561
6984.91348,0.21060
6986.84195,0.25708
6988.77042,0.07397
6990.69889,-0.10180
6992.62736,-0.11385
6994.55583,-0.05720
6996.48430,-0.01583
6998.41276,0.01247
7000.34123,-0.01518
7002.26970,-0.07804
7004.19817,-0.03063
7006.12664,0.07365
7008.05511,0.05484
7009.98358,0.04711
7011.91204,0.18995
7013.84051,0.28067
7015.76898,0.19511
7017.69745,0.08479
7019.62592,0.00532
7021.55439,0.00245
7023.48286,0.07925
7025.41133,0.15046
7027.33979,0.20071
7029.26826,0.18402
7031.19673,0.15439
7033.12520,0.26209
7035.05367,0.41729
7036.98214,0.44579
7038.91061,0.35435
7040.83907,0.24910
7042.76754,0.19555
7044.69601,0.11799
7046.62448,-0.02075
7048.55295,-0.07610
7050.48142,-0.01944
7052.40989,0.06660
7054.33836,0.16549
7056.26682,0.21597
7058.19529,0.15672
7060.12376,0.14694
7062.05223,0.18326
7063.98070,0.12202
7065.90917,0.05155
7067.83764,0.00322
7069.76610,-0.06094
7071.69457,-0.05087
7073.62304,-0.03233
7075.55151,-0.05382
7077.47998,-0.03404
7079.40845,-0.02970
7081.33692,-0.11405
7083.26539,-0.10786
7085.19385,0.00904
7087.12232,-0.00107
7089.05079,-0.13408
7090.97926,-0.11616
7092.90773,0.04394
7094.83620,0.10114
7096.76467,0.01351
7098.69313,-0.00387
7100.62160,0.10880
7102.55007,0.19945
7104.47854,0.22790
7106.40701,0.17536
7108.33548,0.03068
7110.26395,-0.05914
7112.19242,-0.04281
7114.12088,-0.06160
7116.04935,-0.09689
7117.97782,0.01169
7119.90629,0.17023
7121.83476,0.19804
7123.76323,0.12507
7125.69170,0.10177
7127.62016,0.19037
7129.54863,0.25224
7131.47710,0.21444
7133.40557,0.14296
7135.33404,0.06297
7137.26251,-0.02260
7139.19098,-0.04033
7141.11944,0.00398
7143.04791,0.04344
7144.97638,0.04903
7146.90485,-0.00084
7148.83332,0.04516
7150.76179,0.23104
7152.69026,0.41753
7154.61873,0.48425
7156.54719,0.39647
7158.47566,0.22732
7160.40413,0.01681
7162.33260,-0.19522
7164.26107,-0.31049
7166.18954,-0.29328
7168.11801,-0.16977
7170.04647,-0.00284
7171.97494,0.11617
7173.90341,0.16286
7175.83188,0.15539
7177.76035,0.11416
7179.68882,0.10575
7181.61729,0.18774
7183.54576,0.27556
7185.47422,0.17922
7187.40269,0.01137
7189.33116,-0.00408
7191.25963,0.11284
7193.18810,0.11958
7195.11657,-0.02629
7197.04504,-0.15673
7198.97350,-0.15148
7200.90197,-0.00096
7202.83044,0.23888
7204.75891,0.36171
7206.68738,0.27268
7208.61585,0.17698
7210.54432,0.10667
7212.47279,0.04646
7214.40125,-0.01715
7216.32972,-0.10048
7218.25819,-0.11910
7220.18666,0.03219
7222.11513,0.17765
7224.04360,0.17541
7225.97207,0.09946
7227.90053,0.06243
7229.82900,0.06422
7231.75747,0.09607
7233.68594,0.07523
7235.61441,0.01229
7237.54288,0.03934
7239.47135,0.10809
7241.39982,0.09955
7243.32828,0.08363
7245.25675,0.12521
7247.18522,0.14201
7249.11369,0.06380
7251.04216,-0.04086
7252.97063,-0.03970
7254.89910,-0.02161
7256.82756,-0.13659
7258.75603,-0.26508
7260.68450,-0.28070
7262.61297,-0.20021
7264.54144,-0.00042
7266.46991,0.18323
7268.39838,0.18232
7270.32685,0.07831
7272.25531,-0.00204
7274.18378,-0.05249
7276.11225,-0.10666
7278.04072,-0.06241
7279.96919,0.07928
7281.89766,0.00247
7283.82613,-0.23810
7285.75459,-0.32985
7287.68306,-0.22769
7289.61153,-0.07781
7291.54000,0.02336
7293.46847,0.10013
7295.39694,0.22685
7297.32541,0.30906
7299.25387,0.25752
7301.18234,0.14159
7303.11081,0.07876
7305.03928,0.09875
7306.96775,0.12579
7308.89622,0.17690
7310.82469,0.16966
7312.75316,0.03896
7314.68162,-0.06947
7316.61009,-0.09961
7318.53856,0.00079
7320.46703,0.27367
7322.39550,0.52240
7324.32397,0.58022
7326.25244,0.56008
7328.18090,0.42577
7330.10937,0.16867
7332.03784,0.12365
7333.96631,0.17474
7335.89478,0.08918
7337.82325,-0.07563
7339.75172,-0.20566
7341.68019,-0.20088
7343.60865,-0.14060
7345.53712,-0.10862
7347.46559,-0.14864
7349.39406,-0.23336
7351.32253,-0.18715
7353.25100,0.03952
7355.17947,0.27197
7357.10793,0.37002
7359.03640,0.23921
7360.96487,0.02487
7362.89334,-0.15898
7364.82181,-0.29993
7366.75028,-0.21390
7368.67875,0.04563
7370.60722,0.22163
7372.53568,0.29231
7374.46415,0.25005
7376.39262,0.07841
7378.32109,-0.00488
7380.24956,-0.05694
7382.17803,-0.10070
7384.10650,-0.00686
7386.03496,0.12298
7387.96343,0.18287
7389.89190,0.20217
7391.82037,0.18157
7393.74884,0.12795
7395.67731,0.00612
7397.60578,-0.08181
7399.53425,0.02592
7401.46271,0.20124
7403.39118,0.24071
7405.31965,0.18859
7407.24812,0.14055
7409.17659,0.06173
7411.10506,-0.08245
7413.03353,-0.20710
7414.96199,-0.21963
7416.89046,-0.08751
7418.81893,0.04638
7420.74740,0.02900
7422.67587,-0.06450
7424.60434,-0.10145
7426.53281,-0.08817
7428.46128,-0.07199
7430.38974,0.09265
7432.31821,0.29925
7434.24668,0.27723
7436.17515,0.12695
7438.10362,0.03588
7440.03209,0.05418
7441.96056,0.13394
7443.88902,0.10825
7445.81749,-0.05852
7447.74596,-0.16260
7449.67443,-0.04878
7451.60290,0.16735
7453.53137,0.24240
7455.45984,0.15897
7457.38831,0.00433
7459.31677,-0.14470
7461.24524,-0.16896
7463.17371,-0.08236
7465.10218,-0.06209
7467.03065,-0.08835
7468.95912,-0.03366
7470.88759,-0.00652
7472.81605,-0.00174
7474.74452,0.07512
7476.67299,0.15060
7478.60146,0.17877
7480.52993,0.17746
7482.45840,0.10152
7484.38687,-0.01123
7486.31533,-0.01542
7488.24380,0.06693
7490.17227,0.06173
7492.10074,0.06300
7494.02921,0.25223
7495.95768,0.45561
7497.88615,0.47882
