399.19301,0.59748
401.12148,-0.17518
403.04995,0.40736
404.97842,0.58278
406.90689,0.43135
408.83536,-0.21316
410.76382,-1.28735
412.69229,-0.42549
414.62076,4.51045
416.54923,9.80620
418.47770,8.01540
420.40617,1.26232
422.33464,-0.60268
424.26311,-0.33098
426.19157,-0.18351
428.12004,-0.13169
430.04851,-0.07682
431.97698,0.02696
433.90545,0.12925
435.83392,0.11887
437.76239,0.00707
439.69085,-0.04292
441.61932,0.01405
443.54779,0.09032
445.47626,0.07247
447.40473,-0.02580
449.33320,-0.12233
451.26167,-0.12894
453.19013,-0.05463
455.11860,0.04088
457.04707,0.09359
458.97554,0.04374
460.90401,-0.00938
462.83248,-0.03455
464.76095,-0.05407
466.68942,-0.02683
468.61788,0.03195
470.54635,0.07923
472.47482,0.16102
474.40329,0.23106
476.33176,0.17000
478.26023,0.15066
480.18870,0.18504
482.11716,0.16751
484.04563,0.05421
485.97410,-0.03467
487.90257,-0.00772
489.83104,0.06699
491.75951,0.08721
493.68798,0.05900
495.61645,0.06439
497.54491,0.09729
499.47338,0.09167
501.40185,0.05375
503.33032,0.04580
505.25879,0.08370
507.18726,0.11802
509.11573,0.10155
511.04419,0.06508
512.97266,0.07342
514.90113,0.10934
516.82960,0.11989
518.75807,0.11931
520.68654,0.11960
522.61501,0.10869
524.54348,0.09958
526.47194,0.09144
528.40041,0.06912
530.32888,0.05059
532.25735,0.07215
534.18582,0.13670
536.11429,0.18882
538.04276,0.17388
539.97122,0.10789
541.89969,0.06782
543.82816,0.09503
545.75663,0.13429
547.68510,0.14322
549.61357,0.15920
551.54204,0.22660
553.47051,0.27122
555.39897,0.22024
557.32744,0.15772
559.25591,0.14019
561.18438,0.13315
563.11285,0.13083
565.04132,0.11759
566.96979,0.10343
568.89825,0.12349
570.82672,0.14207
572.75519,0.12469
574.68366,0.10631
576.61213,0.09916
578.54060,0.08477
580.46907,0.08694
582.39754,0.10733
584.32600,0.12115
586.25447,0.11258
588.18294,0.08561
590.11141,0.07651
592.03988,0.09200
593.96835,0.11371
595.89682,0.13758
597.82528,0.16161
599.75375,0.17199
601.68222,0.14698
603.61069,0.09925
605.53916,0.07534
607.46763,0.07990
609.39610,0.08313
611.32456,0.08444
613.25303,0.09192
615.18150,0.09582
617.10997,0.09521
619.03844,0.10468
620.96691,0.11758
622.89538,0.12043
624.82385,0.12298
626.75231,0.13184
628.68078,0.14090
630.60925,0.11772
632.53772,0.07349
634.46619,0.09615
636.39466,0.15821
638.32313,0.17405
640.25159,0.16232
642.18006,0.15726
644.10853,0.15629
646.03700,0.14847
647.96547,0.13162
649.89394,0.12736
651.82241,0.14241
653.75088,0.15341
655.67934,0.15581
657.60781,0.15963
659.53628,0.14839
661.46475,0.13267
663.39322,0.14182
665.32169,0.16489
667.25016,0.18698
669.17862,0.19735
671.10709,0.18913
673.03556,0.16701
674.96403,0.13576
676.89250,0.10981
678.82097,0.10106
680.74944,0.11078
682.67791,0.13209
684.60637,0.15342
686.53484,0.16273
688.46331,0.16646
690.39178,0.16910
692.32025,0.16250
694.24872,0.14945
696.17719,0.13971
698.10565,0.12897
700.03412,0.11743
701.96259,0.11645
703.89106,0.12463
705.81953,0.13404
707.74800,0.16239
709.67647,0.27186
711.60494,0.38317
713.53340,0.31952
715.46187,0.17438
717.39034,0.11924
719.31881,0.12537
721.24728,0.14567
723.17575,0.16239
725.10422,0.15478
727.03268,0.14114
728.96115,0.14406
730.88962,0.15086
732.81809,0.15369
734.74656,0.15559
736.67503,0.14023
738.60350,0.11365
740.53197,0.10792
742.46043,0.12731
744.38890,0.14596
746.31737,0.14674
748.24584,0.14546
750.17431,0.16073
752.10278,0.17204
754.03125,0.15953
755.95971,0.14702
757.88818,0.14845
759.81665,0.14742
761.74512,0.13867
763.67359,0.13206
765.60206,0.13589
767.53053,0.14913
769.45900,0.16033
771.38746,0.15801
773.31593,0.14392
775.24440,0.12922
777.17287,0.12858
779.10134,0.14565
781.02981,0.15967
782.95828,0.15574
784.88674,0.15011
786.81521,0.14883
788.74368,0.12367
790.67215,0.08882
792.60062,0.09507
794.52909,0.12768
796.45756,0.14153
798.38602,0.14050
800.31449,0.14228
802.24296,0.15423
804.17143,0.16558
806.09990,0.15823
808.02837,0.13906
809.95684,0.12662
811.88531,0.12962
813.81377,0.14389
815.74224,0.14913
817.67071,0.14152
819.59918,0.14385
821.52765,0.15490
823.45612,0.15767
825.38459,0.15145
827.31305,0.14413
829.24152,0.14640
831.16999,0.15426
833.09846,0.15273
835.02693,0.14781
836.95540,0.15168
838.88387,0.15578
840.81234,0.15746
842.74080,0.16130
844.66927,0.15970
846.59774,0.15078
848.52621,0.14360
850.45468,0.13913
852.38315,0.13550
854.31162,0.13720
856.24008,0.13986
858.16855,0.14230
860.09702,0.15411
862.02549,0.16912
863.95396,0.17473
865.88243,0.17706
867.81090,0.18123
869.73937,0.17103
871.66783,0.14787
873.59630,0.13568
875.52477,0.13254
877.45324,0.12990
879.38171,0.13634
881.31018,0.14459
883.23865,0.14438
885.16711,0.14326
887.09558,0.14322
889.02405,0.14330
890.95252,0.14431
892.88099,0.14627
894.80946,0.14809
896.73793,0.14494
898.66640,0.14291
900.59486,0.14754
902.52333,0.14946
904.45180,0.14931
906.38027,0.15909
908.30874,0.17259
910.23721,0.17426
912.16568,0.16440
914.09414,0.15365
916.02261,0.14874
917.95108,0.15071
919.87955,0.15515
921.80802,0.15421
923.73649,0.14960
925.66496,0.15028
927.59343,0.15649
929.52189,0.15838
931.45036,0.15263
933.37883,0.14867
935.30730,0.14768
937.23577,0.14573
939.16424,0.14702
941.09271,0.15098
943.02117,0.15340
944.94964,0.15914
946.87811,0.16840
948.80658,0.16779
950.73505,0.15798
952.66352,0.15323
954.59199,0.15471
956.52045,0.15403
958.44892,0.14829
960.37739,0.14467
962.30586,0.14889
964.23433,0.15329
966.16280,0.15077
968.09127,0.14409
970.01974,0.13785
971.94820,0.13956
973.87667,0.15052
975.80514,0.15428
977.73361,0.14356
979.66208,0.13530
981.59055,0.14301
983.51902,0.15859
985.44748,0.16886
987.37595,0.17077
989.30442,0.16725
991.23289,0.16598
993.16136,0.16818
995.08983,0.16731
997.01830,0.16558
998.94677,0.16449
1000.87523,0.16268
1002.80370,0.16200
1004.73217,0.15996
1006.66064,0.15723
1008.58911,0.15993
1010.51758,0.16790
1012.44605,0.17361
1014.37451,0.17081
1016.30298,0.16294
1018.23145,0.15707
1020.15992,0.15881
1022.08839,0.16953
1024.01686,0.17126
1025.94533,0.14740
1027.87380,0.12325
1029.80226,0.13366
1031.73073,0.15989
1033.65920,0.17179
1035.58767,0.17475
1037.51614,0.17416
1039.44461,0.16919
1041.37308,0.16196
1043.30154,0.15778
1045.23001,0.16174
1047.15848,0.17013
1049.08695,0.17471
1051.01542,0.17040
1052.94389,0.16362
1054.87236,0.15888
1056.80083,0.15546
1058.72929,0.15538
1060.65776,0.15754
1062.58623,0.16183
1064.51470,0.16575
1066.44317,0.16421
1068.37164,0.16082
1070.30011,0.16231
1072.22857,0.16711
1074.15704,0.16893
1076.08551,0.16921
1078.01398,0.17142
1079.94245,0.16975
1081.87092,0.16294
1083.79939,0.15836
1085.72786,0.15662
1087.65632,0.15798
1089.58479,0.16645
1091.51326,0.17536
1093.44173,0.17936
1095.37020,0.18114
1097.29867,0.17846
1099.22714,0.17549
1101.15560,0.17714
1103.08407,0.17654
1105.01254,0.17482
1106.94101,0.17900
1108.86948,0.18167
1110.79795,0.17786
1112.72642,0.17608
1114.65489,0.17598
1116.58335,0.17477
1118.51182,0.17618
1120.44029,0.17912
1122.36876,0.17852
1124.29723,0.17312
1126.22570,0.17128
1128.15417,0.17334
1130.08263,0.16837
1132.01110,0.16409
1133.93957,0.17252
1135.86804,0.18047
1137.79651,0.17823
1139.72498,0.17289
1141.65345,0.16419
1143.58191,0.15492
1145.51038,0.15560
1147.43885,0.16402
1149.36732,0.16946
1151.29579,0.17085
1153.22426,0.17394
1155.15273,0.17758
1157.08120,0.17729
1159.00966,0.17705
1160.93813,0.17938
1162.86660,0.17795
1164.79507,0.17234
1166.72354,0.16679
1168.65201,0.16583
1170.58048,0.17084
1172.50894,0.17269
1174.43741,0.17006
1176.36588,0.17131
1178.29435,0.17356
1180.22282,0.17039
1182.15129,0.16752
1184.07976,0.17093
1186.00823,0.17352
1187.93669,0.17057
1189.86516,0.16794
1191.79363,0.16797
1193.72210,0.16917
1195.65057,0.17161
1197.57904,0.17346
1199.50751,0.17348
1201.43597,0.17335
1203.36444,0.17313
1205.29291,0.17259
1207.22138,0.17201
1209.14985,0.17024
1211.07832,0.17001
1213.00679,0.17149
1214.93526,0.16899
1216.86372,0.16691
1218.79219,0.17178
1220.72066,0.17624
1222.64913,0.17431
1224.57760,0.17264
1226.50607,0.17565
1228.43454,0.17889
1230.36300,0.18019
1232.29147,0.17987
1234.21994,0.17643
1236.14841,0.17267
1238.07688,0.17291
1240.00535,0.17366
1241.93382,0.17285
1243.86229,0.17493
1245.79075,0.17649
1247.71922,0.17249
1249.64769,0.16960
1251.57616,0.17199
1253.50463,0.17240
1255.43310,0.16927
1257.36157,0.17042
1259.29003,0.17585
1261.21850,0.17847
1263.14697,0.17877
1265.07544,0.18085
1267.00391,0.18231
1268.93238,0.17993
1270.86085,0.17644
1272.78932,0.17536
1274.71778,0.17507
1276.64625,0.17611
1278.57472,0.18050
1280.50319,0.18295
1282.43166,0.18207
1284.36013,0.18140
1286.28860,0.18093
1288.21706,0.18163
1290.14553,0.18388
1292.07400,0.18412
1294.00247,0.18023
1295.93094,0.17807
1297.85941,0.18142
1299.78788,0.18114
1301.71634,0.16993
1303.64481,0.15655
1305.57328,0.15521
1307.50175,0.16781
1309.43022,0.18131
1311.35869,0.18812
1313.28716,0.19212
1315.21563,0.19155
1317.14409,0.18713
1319.07256,0.18475
1321.00103,0.18274
1322.92950,0.17964
1324.85797,0.17838
1326.78644,0.17943
1328.71491,0.17977
1330.64337,0.17778
1332.57184,0.17677
1334.50031,0.18027
1336.42878,0.18632
1338.35725,0.19310
1340.28572,0.18654
1342.21419,0.16683
1344.14266,0.16057
1346.07112,0.16226
1347.99959,0.16463
1349.92806,0.17387
1351.85653,0.17898
1353.78500,0.17912
1355.71347,0.17958
1357.64194,0.18036
1359.57040,0.18307
1361.49887,0.18500
1363.42734,0.18309
1365.35581,0.17906
1367.28428,0.17777
1369.21275,0.18053
1371.14122,0.18702
1373.06969,0.19654
1374.99815,0.20098
1376.92662,0.19577
1378.85509,0.18883
1380.78356,0.18521
1382.71203,0.18654
1384.64050,0.19077
1386.56897,0.19341
1388.49743,0.19382
1390.42590,0.19289
1392.35437,0.19264
1394.28284,0.19547
1396.21131,0.19947
1398.13978,0.20158
1400.06825,0.20161
1401.99672,0.19994
1403.92518,0.19763
1405.85365,0.19556
1407.78212,0.19272
1409.71059,0.18989
1411.63906,0.18896
1413.56753,0.19080
1415.49600,0.19738
1417.42446,0.20686
1419.35293,0.20701
1421.28140,0.20026
1423.20987,0.19877
1425.13834,0.19638
1427.06681,0.19268
1428.99528,0.19267
1430.92375,0.19296
1432.85221,0.19376
1434.78068,0.19974
1436.70915,0.20604
1438.63762,0.20280
1440.56609,0.19637
1442.49456,0.19293
1444.42303,0.19466
1446.35149,0.19906
1448.27996,0.19808
1450.20843,0.19287
1452.13690,0.19230
1454.06537,0.19879
1455.99384,0.21142
1457.92231,0.21828
1459.85077,0.21131
1461.77924,0.20557
1463.70771,0.20312
1465.63618,0.20076
1467.56465,0.20067
1469.49312,0.20785
1471.42159,0.22174
1473.35006,0.23030
1475.27852,0.22448
1477.20699,0.21414
1479.13546,0.20451
1481.06393,0.19715
1482.99240,0.19523
1484.92087,0.20157
1486.84934,0.21452
1488.77780,0.22404
1490.70627,0.21532
1492.63474,0.20322
1494.56321,0.20414
1496.49168,0.21218
1498.42015,0.21190
1500.34862,0.20103
1502.27709,0.19163
1504.20555,0.19737
1506.13402,0.22342
1508.06249,0.23134
1509.99096,0.21712
1511.91943,0.20967
1513.84790,0.21003
1515.77637,0.21735
1517.70483,0.22240
1519.63330,0.22214
1521.56177,0.22604
1523.49024,0.22839
1525.41871,0.22222
1527.34718,0.21171
1529.27565,0.20557
1531.20412,0.20887
1533.13258,0.21597
1535.06105,0.21705
1536.98952,0.21922
1538.91799,0.23307
1540.84646,0.24931
1542.77493,0.24118
1544.70340,0.22465
1546.63186,0.21382
1548.56033,0.21166
1550.48880,0.21352
1552.41727,0.21600
1554.34574,0.22139
1556.27421,0.23348
1558.20268,0.25075
1560.13115,0.23526
1562.05961,0.21348
1563.98808,0.20692
1565.91655,0.20667
1567.84502,0.21024
1569.77349,0.21267
1571.70196,0.20812
1573.63043,0.20639
1575.55889,0.20999
1577.48736,0.20652
1579.41583,0.19820
1581.34430,0.19433
1583.27277,0.19263
1585.20124,0.19025
1587.12971,0.18819
1589.05818,0.18779
1590.98664,0.18940
1592.91511,0.19257
1594.84358,0.19549
1596.77205,0.19548
1598.70052,0.19341
1600.62899,0.19174
1602.55746,0.19165
1604.48592,0.19268
1606.41439,0.19191
1608.34286,0.18989
1610.27133,0.19095
1612.19980,0.19485
1614.12827,0.19980
1616.05674,0.20524
1617.98521,0.20554
1619.91367,0.20333
1621.84214,0.20505
1623.77061,0.20786
1625.69908,0.20603
1627.62755,0.20247
1629.55602,0.20311
1631.48449,0.20904
1633.41295,0.21882
1635.34142,0.23028
1637.26989,0.22923
1639.19836,0.21746
1641.12683,0.20810
1643.05530,0.20739
1644.98377,0.21572
1646.91223,0.22489
1648.84070,0.22813
1650.76917,0.23781
1652.69764,0.25361
1654.62611,0.23877
1656.55458,0.21931
1658.48305,0.21671
1660.41152,0.22431
1662.33998,0.22971
1664.26845,0.22403
1666.19692,0.21951
1668.12539,0.22564
1670.05386,0.23592
1671.98233,0.23668
1673.91080,0.23079
1675.83926,0.22120
1677.76773,0.21520
1679.69620,0.21588
1681.62467,0.22030
1683.55314,0.22657
1685.48161,0.22501
1687.41008,0.21886
1689.33855,0.21568
1691.26701,0.21395
1693.19548,0.21567
1695.12395,0.22446
1697.05242,0.23571
1698.98089,0.23919
1700.90936,0.23349
1702.83783,0.23027
1704.76629,0.23230
1706.69476,0.22789
1708.62323,0.21798
1710.55170,0.21299
1712.48017,0.21289
1714.40864,0.21701
1716.33711,0.22308
1718.26558,0.21727
1720.19404,0.20617
1722.12251,0.20130
1724.05098,0.20093
1725.97945,0.20260
1727.90792,0.20498
1729.83639,0.20897
1731.76486,0.21627
1733.69332,0.22173
1735.62179,0.21597
1737.55026,0.21039
1739.47873,0.20991
1741.40720,0.20935
1743.33567,0.20738
1745.26414,0.20833
1747.19261,0.21180
1749.12107,0.21323
1751.04954,0.21092
1752.97801,0.20855
1754.90648,0.20937
1756.83495,0.21085
1758.76342,0.21005
1760.69189,0.20880
1762.62035,0.20513
1764.54882,0.20057
1766.47729,0.20220
1768.40576,0.20967
1770.33423,0.21701
1772.26270,0.21759
1774.19117,0.21017
1776.11964,0.20488
1778.04810,0.20503
1779.97657,0.20735
1781.90504,0.20793
1783.83351,0.20637
1785.76198,0.20289
1787.69045,0.20075
1789.61892,0.20519
1791.54738,0.21254
1793.47585,0.21243
1795.40432,0.20808
1797.33279,0.20607
1799.26126,0.20652
1801.18973,0.20731
1803.11820,0.20523
1805.04666,0.20160
1806.97513,0.20064
1808.90360,0.20333
1810.83207,0.20597
1812.76054,0.20496
1814.68901,0.20058
1816.61748,0.19439
1818.54595,0.19183
1820.47441,0.19604
1822.40288,0.20301
1824.33135,0.20903
1826.25982,0.21092
1828.18829,0.21133
1830.11676,0.21124
1832.04523,0.20534
1833.97369,0.19937
1835.90216,0.20005
1837.83063,0.20415
1839.75910,0.20608
1841.68757,0.20835
1843.61604,0.21429
1845.54451,0.21770
1847.47298,0.21366
1849.40144,0.20672
1851.32991,0.20197
1853.25838,0.20213
1855.18685,0.20535
1857.11532,0.20750
1859.04379,0.20715
1860.97226,0.20523
1862.90072,0.20366
1864.82919,0.20645
1866.75766,0.21488
1868.68613,0.21958
1870.61460,0.21388
1872.54307,0.20782
1874.47154,0.20471
1876.40001,0.20250
1878.32847,0.20234
1880.25694,0.20363
1882.18541,0.20380
1884.11388,0.20397
1886.04235,0.20575
1887.97082,0.20781
1889.89929,0.20730
1891.82775,0.20515
1893.75622,0.20586
1895.68469,0.20628
1897.61316,0.20316
1899.54163,0.20133
1901.47010,0.20180
1903.39857,0.20227
1905.32704,0.20320
1907.25550,0.20576
1909.18397,0.20804
1911.11244,0.20582
1913.04091,0.20089
1914.96938,0.19867
1916.89785,0.19993
1918.82632,0.20314
1920.75478,0.20724
1922.68325,0.20887
1924.61172,0.20537
1926.54019,0.20054
1928.46866,0.19821
1930.39713,0.19790
1932.32560,0.19842
1934.25407,0.20030
1936.18253,0.20233
1938.11100,0.20209
1940.03947,0.20118
1941.96794,0.20211
1943.89641,0.20409
1945.82488,0.20526
1947.75335,0.20443
1949.68181,0.20415
1951.61028,0.20708
1953.53875,0.20817
1955.46722,0.20548
1957.39569,0.20374
1959.32416,0.20292
1961.25263,0.20230
1963.18110,0.20464
1965.10956,0.20865
1967.03803,0.20903
1968.96650,0.20673
1970.89497,0.20731
1972.82344,0.20863
1974.75191,0.20818
1976.68038,0.20889
1978.60884,0.20890
1980.53731,0.20669
1982.46578,0.20627
1984.39425,0.20619
1986.32272,0.20506
1988.25119,0.20744
1990.17966,0.21174
1992.10812,0.21266
1994.03659,0.21033
1995.96506,0.20670
1997.89353,0.20400
1999.82200,0.20400
2001.75047,0.20582
2003.67894,0.20840
2005.60741,0.20944
2007.53587,0.20709
2009.46434,0.20460
2011.39281,0.20341
2013.32128,0.20083
2015.24975,0.19774
2017.17822,0.19631
2019.10669,0.19688
2021.03515,0.19926
2022.96362,0.20237
2024.89209,0.20489
2026.82056,0.20512
2028.74903,0.20344
2030.67750,0.20287
2032.60597,0.20391
2034.53444,0.20456
2036.46290,0.20509
2038.39137,0.20608
2040.31984,0.20621
2042.24831,0.20645
2044.17678,0.20754
2046.10525,0.20658
2048.03372,0.20256
2049.96218,0.19910
2051.89065,0.19930
2053.81912,0.20145
2055.74759,0.20189
2057.67606,0.20071
2059.60453,0.20071
2061.53300,0.20208
2063.46147,0.20374
2065.38993,0.20490
2067.31840,0.20577
2069.24687,0.20767
2071.17534,0.20843
2073.10381,0.20646
2075.03228,0.20436
2076.96075,0.20467
2078.88921,0.20667
2080.81768,0.20759
2082.74615,0.20737
2084.67462,0.20745
2086.60309,0.20784
2088.53156,0.20775
2090.46003,0.20734
2092.38850,0.20785
2094.31696,0.20913
2096.24543,0.20908
2098.17390,0.20815
2100.10237,0.20894
2102.03084,0.21058
2103.95931,0.21025
2105.88778,0.20732
2107.81624,0.20505
2109.74471,0.20566
2111.67318,0.20576
2113.60165,0.20471
2115.53012,0.20484
2117.45859,0.20471
2119.38706,0.20345
2121.31553,0.20265
2123.24399,0.20339
2125.17246,0.20556
2127.10093,0.20788
2129.02940,0.20722
2130.95787,0.20525
2132.88634,0.21057
2134.81481,0.22039
2136.74327,0.22205
2138.67174,0.21630
2140.60021,0.21051
2142.52868,0.20646
2144.45715,0.20520
2146.38562,0.20474
2148.31409,0.20254
2150.24255,0.20249
2152.17102,0.20632
2154.09949,0.20762
2156.02796,0.20462
2157.95643,0.20269
2159.88490,0.20298
2161.81337,0.20452
2163.74184,0.20576
2165.67030,0.20457
2167.59877,0.20213
2169.52724,0.20066
2171.45571,0.20220
2173.38418,0.20493
2175.31265,0.20484
2177.24112,0.20345
2179.16958,0.20343
2181.09805,0.20390
2183.02652,0.20506
2184.95499,0.20717
2186.88346,0.20707
2188.81193,0.20480
2190.74040,0.20339
2192.66887,0.20213
2194.59733,0.19961
2196.52580,0.19780
2198.45427,0.19859
2200.38274,0.20020
2202.31121,0.19981
2204.23968,0.19732
2206.16815,0.19711
2208.09661,0.20075
2210.02508,0.20303
2211.95355,0.20352
2213.88202,0.20518
2215.81049,0.20608
2217.73896,0.20576
2219.66743,0.20658
2221.59590,0.20745
2223.52436,0.20708
2225.45283,0.20637
2227.38130,0.20506
2229.30977,0.20393
2231.23824,0.20463
2233.16671,0.20519
2235.09518,0.20494
2237.02364,0.20532
2238.95211,0.20429
2240.88058,0.20171
2242.80905,0.20009
2244.73752,0.19925
2246.66599,0.19989
2248.59446,0.20285
2250.52293,0.20586
2252.45139,0.20636
2254.37986,0.20457
2256.30833,0.20382
2258.23680,0.20463
2260.16527,0.20481
2262.09374,0.20515
2264.02221,0.20574
2265.95067,0.20551
2267.87914,0.20512
2269.80761,0.20490
2271.73608,0.20532
2273.66455,0.20639
2275.59302,0.20618
2277.52149,0.20528
2279.44996,0.20643
2281.37842,0.20681
2283.30689,0.20297
2285.23536,0.19847
2287.16383,0.19676
2289.09230,0.19703
2291.02077,0.19719
2292.94924,0.19622
2294.87770,0.19589
2296.80617,0.19738
2298.73464,0.19916
2300.66311,0.20069
2302.59158,0.20210
2304.52005,0.20254
2306.44852,0.20261
2308.37699,0.20481
2310.30545,0.20940
2312.23392,0.21071
2314.16239,0.20618
2316.09086,0.20076
2318.01933,0.19810
2319.94780,0.19984
2321.87627,0.20290
2323.80473,0.20289
2325.73320,0.20124
2327.66167,0.19879
2329.59014,0.19739
2331.51861,0.19994
2333.44708,0.20677
2335.37555,0.21107
2337.30401,0.20417
2339.23248,0.19746
2341.16095,0.20355
2343.08942,0.20984
2345.01789,0.20825
2346.94636,0.20419
2348.87483,0.20285
2350.80330,0.20736
2352.73176,0.21324
2354.66023,0.20946
2356.58870,0.19957
2358.51717,0.19647
2360.44564,0.19490
2362.37411,0.19198
2364.30258,0.20321
2366.23104,0.21671
2368.15951,0.21249
2370.08798,0.20210
2372.01645,0.19746
2373.94492,0.19595
2375.87339,0.19558
2377.80186,0.19766
2379.73033,0.20111
2381.65879,0.20362
2383.58726,0.20441
2385.51573,0.20515
2387.44420,0.20833
2389.37267,0.21221
2391.30114,0.21215
2393.22961,0.20982
2395.15807,0.21063
2397.08654,0.21230
2399.01501,0.21002
2400.94348,0.20599
2402.87195,0.20425
2404.80042,0.20462
2406.72889,0.20472
2408.65736,0.20410
2410.58582,0.20322
2412.51429,0.20174
2414.44276,0.20166
2416.37123,0.20371
2418.29970,0.20533
2420.22817,0.20738
2422.15664,0.21037
2424.08510,0.21157
2426.01357,0.21117
2427.94204,0.20983
2429.87051,0.20700
2431.79898,0.20446
2433.72745,0.20436
2435.65592,0.20672
2437.58439,0.20890
2439.51285,0.20822
2441.44132,0.20653
2443.36979,0.20766
2445.29826,0.21127
2447.22673,0.21468
2449.15520,0.21686
2451.08367,0.21590
2453.01213,0.21380
2454.94060,0.21383
2456.86907,0.21240
2458.79754,0.21116
2460.72601,0.21296
2462.65448,0.21286
2464.58295,0.20981
2466.51142,0.20806
2468.43988,0.20929
2470.36835,0.21041
2472.29682,0.21035
2474.22529,0.20938
2476.15376,0.20671
2478.08223,0.20579
2480.01070,0.20879
2481.93916,0.21183
2483.86763,0.21151
2485.79610,0.21001
2487.72457,0.20912
2489.65304,0.20691
2491.58151,0.20476
2493.50998,0.20660
2495.43844,0.21072
2497.36691,0.21241
2499.29538,0.21108
2501.22385,0.20836
2503.15232,0.20528
2505.08079,0.20237
2507.00926,0.20080
2508.93773,0.20149
2510.86619,0.20331
2512.79466,0.20554
2514.72313,0.20824
2516.65160,0.20995
2518.58007,0.21046
2520.50854,0.21086
2522.43701,0.21073
2524.36547,0.21092
2526.29394,0.21117
2528.22241,0.20986
2530.15088,0.20930
2532.07935,0.20977
2534.00782,0.20847
2535.93629,0.20729
2537.86476,0.20809
2539.79322,0.20814
2541.72169,0.20698
2543.65016,0.20615
2545.57863,0.20643
2547.50710,0.20829
2549.43557,0.20875
2551.36404,0.20660
2553.29250,0.20527
2555.22097,0.20622
2557.14944,0.20723
2559.07791,0.20589
2561.00638,0.20392
2562.93485,0.20449
2564.86332,0.20598
2566.79179,0.20656
2568.72025,0.20790
2570.64872,0.20954
2572.57719,0.21010
2574.50566,0.20995
2576.43413,0.20832
2578.36260,0.20672
2580.29107,0.20783
2582.21953,0.20849
2584.14800,0.20632
2586.07647,0.20545
2588.00494,0.20849
2589.93341,0.21166
2591.86188,0.21131
2593.79035,0.21052
2595.71882,0.21058
2597.64728,0.20851
2599.57575,0.20816
2601.50422,0.21237
2603.43269,0.21558
2605.36116,0.21405
2607.28963,0.20534
2609.21810,0.19150
2611.14656,0.18781
2613.07503,0.20148
2615.00350,0.21506
2616.93197,0.21504
2618.86044,0.21050
2620.78891,0.21099
2622.71738,0.21431
2624.64585,0.21659
2626.57431,0.21665
2628.50278,0.21418
2630.43125,0.21035
2632.35972,0.20958
2634.28819,0.21267
2636.21666,0.21422
2638.14513,0.21354
2640.07359,0.21496
2642.00206,0.21643
2643.93053,0.21327
2645.85900,0.20994
2647.78747,0.21103
2649.71594,0.21331
2651.64441,0.21362
2653.57288,0.21042
2655.50134,0.20500
2657.42981,0.20349
2659.35828,0.20917
2661.28675,0.21673
2663.21522,0.21935
2665.14369,0.21745
2667.07216,0.21526
2669.00062,0.21449
2670.92909,0.21500
2672.85756,0.21600
2674.78603,0.21438
2676.71450,0.20955
2678.64297,0.20727
2680.57144,0.20951
2682.49990,0.21201
2684.42837,0.21322
2686.35684,0.21441
2688.28531,0.21509
2690.21378,0.21286
2692.14225,0.20989
2694.07072,0.21031
2695.99919,0.21280
2697.92765,0.21510
2699.85612,0.21556
2701.78459,0.21482
2703.71306,0.21576
2705.64153,0.21698
2707.57000,0.21691
2709.49847,0.21636
2711.42693,0.21577
2713.35540,0.21573
2715.28387,0.21585
2717.21234,0.21670
2719.14081,0.21948
2721.06928,0.22154
2722.99775,0.22101
2724.92622,0.21959
2726.85468,0.21865
2728.78315,0.21916
2730.71162,0.21977
2732.64009,0.21837
2734.56856,0.21756
2736.49703,0.21956
2738.42550,0.22086
2740.35396,0.22057
2742.28243,0.22136
2744.21090,0.22153
2746.13937,0.22073
2748.06784,0.22065
2749.99631,0.21918
2751.92478,0.21755
2753.85325,0.21865
2755.78171,0.22078
2757.71018,0.22270
2759.63865,0.22430
2761.56712,0.22567
2763.49559,0.22685
2765.42406,0.22422
2767.35253,0.21707
2769.28099,0.21216
2771.20946,0.21461
2773.13793,0.22164
2775.06640,0.22688
2776.99487,0.22817
2778.92334,0.22656
2780.85181,0.22354
2782.78028,0.22177
2784.70874,0.22241
2786.63721,0.22331
2788.56568,0.22257
2790.49415,0.22183
2792.42262,0.22306
2794.35109,0.22639
2796.27956,0.23051
2798.20802,0.23142
2800.13649,0.22735
2802.06496,0.22317
2803.99343,0.22298
2805.92190,0.22469
2807.85037,0.22451
2809.77884,0.22291
2811.70731,0.22340
2813.63577,0.22400
2815.56424,0.22157
2817.49271,0.22050
2819.42118,0.22288
2821.34965,0.22416
2823.27812,0.22308
2825.20659,0.22312
2827.13505,0.22532
2829.06352,0.22721
2830.99199,0.22698
2832.92046,0.22593
2834.84893,0.22643
2836.77740,0.22753
2838.70587,0.22613
2840.63433,0.22339
2842.56280,0.22382
2844.49127,0.22516
2846.41974,0.22307
2848.34821,0.22179
2850.27668,0.22341
2852.20515,0.22376
2854.13362,0.22277
2856.06208,0.22273
2857.99055,0.22430
2859.91902,0.22614
2861.84749,0.22570
2863.77596,0.22319
2865.70443,0.22203
2867.63290,0.22446
2869.56136,0.22810
2871.48983,0.22934
2873.41830,0.22869
2875.34677,0.22864
2877.27524,0.22880
2879.20371,0.22692
2881.13218,0.22441
2883.06065,0.22369
2884.98911,0.22453
2886.91758,0.22752
2888.84605,0.23104
2890.77452,0.23258
2892.70299,0.23303
2894.63146,0.23292
2896.55993,0.23241
2898.48839,0.23147
2900.41686,0.22986
2902.34533,0.22907
2904.27380,0.22847
2906.20227,0.22629
2908.13074,0.22171
2910.05921,0.21559
2911.98768,0.21516
2913.91614,0.22151
2915.84461,0.22681
2917.77308,0.22937
2919.70155,0.22870
2921.63002,0.22159
2923.55849,0.20531
2925.48696,0.18663
2927.41542,0.18348
2929.34389,0.19975
2931.27236,0.21885
2933.20083,0.22632
2935.12930,0.22295
2937.05777,0.21592
2938.98624,0.21186
2940.91471,0.21325
2942.84317,0.21738
2944.77164,0.22007
2946.70011,0.21907
2948.62858,0.22056
2950.55705,0.22579
2952.48552,0.22718
2954.41399,0.22321
2956.34245,0.21633
2958.27092,0.21455
2960.19939,0.22216
2962.12786,0.23037
2964.05633,0.23342
2965.98480,0.23198
2967.91327,0.22833
2969.84174,0.22743
2971.77020,0.22911
2973.69867,0.22817
2975.62714,0.22262
2977.55561,0.21626
2979.48408,0.21674
2981.41255,0.22386
2983.34102,0.22959
2985.26948,0.23042
2987.19795,0.22711
2989.12642,0.22524
2991.05489,0.22852
2992.98336,0.23106
2994.91183,0.23095
2996.84030,0.23134
2998.76877,0.23268
3000.69723,0.23533
3002.62570,0.23688
3004.55417,0.23475
3006.48264,0.23105
3008.41111,0.22717
3010.33958,0.21962
3012.26805,0.20384
3014.19651,0.18000
3016.12498,0.16141
3018.05345,0.17021
3019.98192,0.20070
3021.91039,0.22176
3023.83886,0.22593
3025.76733,0.22645
3027.69579,0.22785
3029.62426,0.22904
3031.55273,0.23169
3033.48120,0.23520
3035.40967,0.23392
3037.33814,0.22726
3039.26661,0.22428
3041.19508,0.22787
3043.12354,0.23044
3045.05201,0.22784
3046.98048,0.22388
3048.90895,0.22341
3050.83742,0.22542
3052.76589,0.22750
3054.69436,0.22622
3056.62282,0.21998
3058.55129,0.21879
3060.47976,0.22628
3062.40823,0.23205
3064.33670,0.22958
3066.26517,0.22255
3068.19364,0.22031
3070.12211,0.22372
3072.05057,0.22657
3073.97904,0.22558
3075.90751,0.22037
3077.83598,0.21748
3079.76445,0.22154
3081.69292,0.22381
3083.62139,0.21416
3085.54985,0.20460
3087.47832,0.21271
3089.40679,0.22682
3091.33526,0.22857
3093.26373,0.22113
3095.19220,0.21793
3097.12067,0.22251
3099.04914,0.22473
3100.97760,0.21788
3102.90607,0.20944
3104.83454,0.21259
3106.76301,0.22390
3108.69148,0.22932
3110.61995,0.22572
3112.54842,0.22003
3114.47688,0.22168
3116.40535,0.22892
3118.33382,0.23121
3120.26229,0.22598
3122.19076,0.22128
3124.11923,0.22572
3126.04770,0.23250
3127.97617,0.23067
3129.90463,0.22552
3131.83310,0.22640
3133.76157,0.23151
3135.69004,0.23518
3137.61851,0.23629
3139.54698,0.23594
3141.47545,0.23508
3143.40391,0.23476
3145.33238,0.23379
3147.26085,0.23105
3149.18932,0.23042
3151.11779,0.23176
3153.04626,0.23185
3154.97473,0.23334
3156.90320,0.23404
3158.83166,0.22993
3160.76013,0.22594
3162.68860,0.22788
3164.61707,0.23495
3166.54554,0.24093
3168.47401,0.24068
3170.40248,0.23738
3172.33094,0.23691
3174.25941,0.23489
3176.18788,0.22955
3178.11635,0.22815
3180.04482,0.22935
3181.97329,0.23145
3183.90176,0.23650
3185.83022,0.24053
3187.75869,0.24028
3189.68716,0.23818
3191.61563,0.23870
3193.54410,0.24062
3195.47257,0.23989
3197.40104,0.23768
3199.32951,0.23689
3201.25797,0.23809
3203.18644,0.23967
3205.11491,0.23738
3207.04338,0.23107
3208.97185,0.22907
3210.90032,0.23233
3212.82879,0.23451
3214.75725,0.23449
3216.68572,0.23144
3218.61419,0.22959
3220.54266,0.23411
3222.47113,0.23798
3224.39960,0.23758
3226.32807,0.23782
3228.25654,0.23579
3230.18500,0.23048
3232.11347,0.23027
3234.04194,0.23459
3235.97041,0.23743
3237.89888,0.24000
3239.82735,0.24277
3241.75582,0.24313
3243.68428,0.24264
3245.61275,0.24210
3247.54122,0.23641
3249.46969,0.22839
3251.39816,0.22650
3253.32663,0.22768
3255.25510,0.22975
3257.18357,0.23579
3259.11203,0.23831
3261.04050,0.23288
3262.96897,0.22727
3264.89744,0.22418
3266.82591,0.22077
3268.75438,0.21906
3270.68285,0.22156
3272.61131,0.22642
3274.53978,0.23212
3276.46825,0.23681
3278.39672,0.23841
3280.32519,0.23774
3282.25366,0.23552
3284.18213,0.23235
3286.11060,0.22995
3288.03906,0.23056
3289.96753,0.23499
3291.89600,0.23838
3293.82447,0.23530
3295.75294,0.23047
3297.68141,0.22982
3299.60988,0.22908
3301.53834,0.22476
3303.46681,0.22456
3305.39528,0.23308
3307.32375,0.24054
3309.25222,0.23979
3311.18069,0.23470
3313.10916,0.23146
3315.03763,0.23174
3316.96609,0.23289
3318.89456,0.23499
3320.82303,0.23864
3322.75150,0.24205
3324.67997,0.24424
3326.60844,0.24436
3328.53691,0.24114
3330.46537,0.23592
3332.39384,0.23320
3334.32231,0.23597
3336.25078,0.24047
3338.17925,0.23944
3340.10772,0.23422
3342.03619,0.23106
3343.96466,0.23125
3345.89312,0.23348
3347.82159,0.23631
3349.75006,0.23809
3351.67853,0.23582
3353.60700,0.23344
3355.53547,0.23669
3357.46394,0.23803
3359.39240,0.23491
3361.32087,0.23527
3363.24934,0.23848
3365.17781,0.24055
3367.10628,0.24147
3369.03475,0.24076
3370.96322,0.23895
3372.89168,0.23941
3374.82015,0.24381
3376.74862,0.24720
3378.67709,0.24316
3380.60556,0.23302
3382.53403,0.22558
3384.46250,0.22624
3386.39097,0.23316
3388.31943,0.24114
3390.24790,0.24264
3392.17637,0.23735
3394.10484,0.23335
3396.03331,0.23200
3397.96178,0.22841
3399.89025,0.22359
3401.81871,0.22235
3403.74718,0.22374
3405.67565,0.22520
3407.60412,0.22543
3409.53259,0.22203
3411.46106,0.21851
3413.38953,0.22188
3415.31800,0.23085
3417.24646,0.23524
3419.17493,0.23010
3421.10340,0.22465
3423.03187,0.22498
3424.96034,0.22551
3426.88881,0.22532
3428.81728,0.22816
3430.74574,0.23309
3432.67421,0.23542
3434.60268,0.23383
3436.53115,0.23260
3438.45962,0.23150
3440.38809,0.22853
3442.31656,0.23019
3444.24503,0.23641
3446.17349,0.23620
3448.10196,0.22824
3450.03043,0.22091
3451.95890,0.21824
3453.88737,0.22008
3455.81584,0.22285
3457.74431,0.22365
3459.67277,0.22245
3461.60124,0.21640
3463.52971,0.20945
3465.45818,0.21240
3467.38665,0.22161
3469.31512,0.22508
3471.24359,0.22087
3473.17206,0.21485
3475.10052,0.21399
3477.02899,0.21738
3478.95746,0.21696
3480.88593,0.21139
3482.81440,0.20488
3484.74287,0.20221
3486.67134,0.20472
3488.59980,0.20430
3490.52827,0.19790
3492.45674,0.19613
3494.38521,0.20055
3496.31368,0.20087
3498.24215,0.19814
3500.17062,0.19993
3502.09909,0.20333
3504.02755,0.20448
3505.95602,0.20581
3507.88449,0.20547
3509.81296,0.20025
3511.74143,0.19747
3513.66990,0.20064
3515.59837,0.20221
3517.52683,0.20017
3519.45530,0.19722
3521.38377,0.19628
3523.31224,0.20016
3525.24071,0.20319
3527.16918,0.19957
3529.09765,0.19409
3531.02611,0.19152
3532.95458,0.19226
3534.88305,0.19572
3536.81152,0.19776
3538.73999,0.19452
3540.66846,0.19104
3542.59693,0.19228
3544.52540,0.19412
3546.45386,0.19186
3548.38233,0.18785
3550.31080,0.18782
3552.23927,0.19198
3554.16774,0.19110
3556.09621,0.18333
3558.02468,0.17930
3559.95314,0.18282
3561.88161,0.18663
3563.81008,0.18920
3565.73855,0.19400
3567.66702,0.19276
3569.59549,0.18241
3571.52396,0.17576
3573.45243,0.17650
3575.38089,0.17758
3577.30936,0.17347
3579.23783,0.16808
3581.16630,0.16559
3583.09477,0.16841
3585.02324,0.17775
3586.95171,0.18899
3588.88017,0.19037
3590.80864,0.18459
3592.73711,0.18184
3594.66558,0.18036
3596.59405,0.17665
3598.52252,0.17476
3600.45099,0.17398
3602.37946,0.17073
3604.30792,0.16925
3606.23639,0.17346
3608.16486,0.17836
3610.09333,0.17641
3612.02180,0.17329
3613.95027,0.17594
3615.87874,0.18171
3617.80720,0.18695
3619.73567,0.18293
3621.66414,0.16834
3623.59261,0.15915
3625.52108,0.16050
3627.44955,0.17056
3629.37802,0.17810
3631.30649,0.17243
3633.23495,0.16693
3635.16342,0.16305
3637.09189,0.16005
3639.02036,0.16031
3640.94883,0.16008
3642.87730,0.15816
3644.80577,0.15852
3646.73423,0.16270
3648.66270,0.17064
3650.59117,0.16873
3652.51964,0.15769
3654.44811,0.15329
3656.37658,0.15176
3658.30505,0.14551
3660.23352,0.14111
3662.16198,0.14139
3664.09045,0.14317
3666.01892,0.14598
3667.94739,0.14969
3669.87586,0.15110
3671.80433,0.15117
3673.73280,0.15629
3675.66126,0.15966
3677.58973,0.15287
3679.51820,0.14752
3681.44667,0.14546
3683.37514,0.14471
3685.30361,0.14521
3687.23208,0.14723
3689.16055,0.14989
3691.08901,0.14692
3693.01748,0.14233
3694.94595,0.14335
3696.87442,0.14646
3698.80289,0.14733
3700.73136,0.14904
3702.65983,0.15371
3704.58829,0.15768
3706.51676,0.16118
3708.44523,0.16783
3710.37370,0.17787
3712.30217,0.17973
3714.23064,0.16661
3716.15911,0.14822
3718.08757,0.13530
3720.01604,0.13734
3721.94451,0.14648
3723.87298,0.14912
3725.80145,0.14969
3727.72992,0.15314
3729.65839,0.15771
3731.58686,0.16232
3733.51532,0.16086
3735.44379,0.14990
3737.37226,0.14345
3739.30073,0.14662
3741.22920,0.15118
3743.15767,0.15353
3745.08614,0.15419
3747.01460,0.15408
3748.94307,0.15719
3750.87154,0.16262
3752.80001,0.15721
3754.72848,0.14807
3756.65695,0.14610
3758.58542,0.14643
3760.51389,0.13923
3762.44235,0.13293
3764.37082,0.13687
3766.29929,0.14648
3768.22776,0.15303
3770.15623,0.15200
3772.08470,0.14402
3774.01317,0.13859
3775.94163,0.13894
3777.87010,0.14063
3779.79857,0.13934
3781.72704,0.13507
3783.65551,0.13287
3785.58398,0.13554
3787.51245,0.14088
3789.44092,0.14335
3791.36938,0.14009
3793.29785,0.13837
3795.22632,0.14292
3797.15479,0.14953
3799.08326,0.15917
3801.01173,0.16840
3802.94020,0.16084
3804.86866,0.14755
3806.79713,0.13904
3808.72560,0.13304
3810.65407,0.12909
3812.58254,0.12886
3814.51101,0.13516
3816.43948,0.14483
3818.36795,0.15066
3820.29641,0.15305
3822.22488,0.14957
3824.15335,0.14572
3826.08182,0.14453
3828.01029,0.14325
3829.93876,0.14280
3831.86723,0.14517
3833.79569,0.15174
3835.72416,0.16096
3837.65263,0.16250
3839.58110,0.14886
3841.50957,0.14185
3843.43804,0.14715
3845.36651,0.14647
3847.29498,0.13900
3849.22344,0.13530
3851.15191,0.13614
3853.08038,0.13979
3855.00885,0.14520
3856.93732,0.14520
3858.86579,0.14110
3860.79426,0.13714
3862.72272,0.13521
3864.65119,0.13235
3866.57966,0.13036
3868.50813,0.13384
3870.43660,0.13846
3872.36507,0.14163
3874.29354,0.14538
3876.22200,0.14333
3878.15047,0.13831
3880.07894,0.13769
3882.00741,0.13875
3883.93588,0.13637
3885.86435,0.13321
3887.79282,0.13224
3889.72129,0.13056
3891.64975,0.12781
3893.57822,0.12755
3895.50669,0.12956
3897.43516,0.13209
3899.36363,0.13268
3901.29210,0.12979
3903.22057,0.12768
3905.14903,0.12988
3907.07750,0.13059
3909.00597,0.12835
3910.93444,0.12913
3912.86291,0.13422
3914.79138,0.13806
3916.71985,0.13783
3918.64832,0.13950
3920.57678,0.14493
3922.50525,0.14585
3924.43372,0.13886
3926.36219,0.13084
3928.29066,0.12880
3930.21913,0.13063
3932.14760,0.12875
3934.07606,0.12302
3936.00453,0.12162
3937.93300,0.12547
3939.86147,0.13198
3941.78994,0.13680
3943.71841,0.13282
3945.64688,0.12811
3947.57535,0.13030
3949.50381,0.13147
3951.43228,0.12907
3953.36075,0.12475
3955.28922,0.11783
3957.21769,0.11028
3959.14616,0.10482
3961.07463,0.10460
3963.00309,0.10946
3964.93156,0.11568
3966.86003,0.11811
3968.78850,0.11430
3970.71697,0.11127
3972.64544,0.11486
3974.57391,0.11805
3976.50238,0.11581
3978.43084,0.11435
3980.35931,0.11386
3982.28778,0.11139
3984.21625,0.11070
3986.14472,0.11165
3988.07319,0.11044
3990.00166,0.10815
3991.93012,0.11019
3993.85859,0.11599
3995.78706,0.12041
3997.71553,0.12289
3999.64400,0.12276
4001.57247,0.12018
4003.50094,0.11716
4005.42941,0.11370
4007.35787,0.11364
4009.28634,0.11842
4011.21481,0.12007
4013.14328,0.11605
4015.07175,0.11156
4017.00022,0.10848
4018.92869,0.10552
4020.85715,0.10490
4022.78562,0.11133
4024.71409,0.12026
4026.64256,0.12109
4028.57103,0.11546
4030.49950,0.11400
4032.42797,0.11788
4034.35644,0.12078
4036.28490,0.12018
4038.21337,0.11689
4040.14184,0.11464
4042.07031,0.11471
4043.99878,0.11244
4045.92725,0.10816
4047.85572,0.10630
4049.78418,0.10629
4051.71265,0.10470
4053.64112,0.10276
4055.56959,0.10386
4057.49806,0.10639
4059.42653,0.10820
4061.35500,0.10793
4063.28346,0.10442
4065.21193,0.09970
4067.14040,0.09648
4069.06887,0.09742
4070.99734,0.10051
4072.92581,0.09966
4074.85428,0.09767
4076.78275,0.10067
4078.71121,0.10453
4080.63968,0.10585
4082.56815,0.10649
4084.49662,0.10616
4086.42509,0.10589
4088.35356,0.10504
4090.28203,0.10226
4092.21049,0.10199
4094.13896,0.10317
4096.06743,0.09879
4097.99590,0.09250
4099.92437,0.09109
4101.85284,0.09273
4103.78131,0.09632
4105.70978,0.10437
4107.63824,0.11261
4109.56671,0.11124
4111.49518,0.10641
4113.42365,0.10820
4115.35212,0.10818
4117.28059,0.10410
4119.20906,0.10068
4121.13752,0.09773
4123.06599,0.09936
4124.99446,0.10180
4126.92293,0.09764
4128.85140,0.09293
4130.77987,0.09588
4132.70834,0.10243
4134.63681,0.10199
4136.56527,0.09468
4138.49374,0.09063
4140.42221,0.09379
4142.35068,0.09928
4144.27915,0.10095
4146.20762,0.09837
4148.13609,0.09558
4150.06455,0.09535
4151.99302,0.09881
4153.92149,0.09903
4155.84996,0.08986
4157.77843,0.08580
4159.70690,0.09539
4161.63537,0.10092
4163.56384,0.09420
4165.49230,0.08700
4167.42077,0.08658
4169.34924,0.08992
4171.27771,0.09042
4173.20618,0.08702
4175.13465,0.08409
4177.06312,0.08517
4178.99158,0.09183
4180.92005,0.09718
4182.84852,0.09512
4184.77699,0.09125
4186.70546,0.08867
4188.63393,0.08837
4190.56240,0.09129
4192.49087,0.09034
4194.41933,0.08530
4196.34780,0.08501
4198.27627,0.08732
4200.20474,0.08637
4202.13321,0.08436
4204.06168,0.08230
4205.99015,0.08289
4207.91861,0.08733
4209.84708,0.08721
4211.77555,0.08136
4213.70402,0.07589
4215.63249,0.07327
4217.56096,0.07683
4219.48943,0.08324
4221.41789,0.08548
4223.34636,0.08524
4225.27483,0.08578
4227.20330,0.08907
4229.13177,0.09365
4231.06024,0.09316
4232.98871,0.08952
4234.91718,0.08874
4236.84564,0.08942
4238.77411,0.08746
4240.70258,0.07902
4242.63105,0.06864
4244.55952,0.06957
4246.48799,0.08126
4248.41646,0.09035
4250.34492,0.08890
4252.27339,0.07857
4254.20186,0.07198
4256.13033,0.07569
4258.05880,0.08029
4259.98727,0.08241
4261.91574,0.08431
4263.84421,0.08558
4265.77267,0.08729
4267.70114,0.08387
4269.62961,0.07396
4271.55808,0.06984
4273.48655,0.07351
4275.41502,0.07588
4277.34349,0.07420
4279.27195,0.07200
4281.20042,0.07155
4283.12889,0.07146
4285.05736,0.06983
4286.98583,0.06501
4288.91430,0.06045
4290.84277,0.05884
4292.77124,0.05444
4294.69970,0.05040
4296.62817,0.05512
4298.55664,0.06037
4300.48511,0.05816
4302.41358,0.05540
4304.34205,0.05490
4306.27052,0.05636
4308.19898,0.06103
4310.12745,0.06227
4312.05592,0.05856
4313.98439,0.05653
4315.91286,0.05854
4317.84133,0.05968
4319.76980,0.05583
4321.69827,0.05234
4323.62673,0.05266
4325.55520,0.05380
4327.48367,0.05344
4329.41214,0.05291
4331.34061,0.05447
4333.26908,0.05741
4335.19755,0.06199
4337.12601,0.06415
4339.05448,0.05868
4340.98295,0.04963
4342.91142,0.04141
4344.83989,0.03595
4346.76836,0.03486
4348.69683,0.03857
4350.62530,0.04830
4352.55376,0.05914
4354.48223,0.06304
4356.41070,0.06005
4358.33917,0.05238
4360.26764,0.04253
4362.19611,0.03489
4364.12458,0.03053
4366.05304,0.03099
4367.98151,0.03703
4369.90998,0.04686
4371.83845,0.05692
4373.76692,0.06117
4375.69539,0.05984
4377.62386,0.05734
4379.55232,0.05481
4381.48079,0.05261
4383.40926,0.05175
4385.33773,0.05158
4387.26620,0.04874
4389.19467,0.04580
4391.12314,0.04470
4393.05161,0.04128
4394.98007,0.04004
4396.90854,0.04218
4398.83701,0.03920
4400.76548,0.03367
4402.69395,0.03348
4404.62242,0.03615
4406.55089,0.03997
4408.47935,0.04621
4410.40782,0.04753
4412.33629,0.04181
4414.26476,0.03944
4416.19323,0.04419
4418.12170,0.04941
4420.05017,0.04962
4421.97864,0.04401
4423.90710,0.03534
4425.83557,0.02686
4427.76404,0.02644
4429.69251,0.03782
4431.62098,0.04317
4433.54945,0.03531
4435.47792,0.03017
4437.40638,0.02950
4439.33485,0.02831
4441.26332,0.03211
4443.19179,0.03812
4445.12026,0.03689
4447.04873,0.03257
4448.97720,0.03156
4450.90567,0.03120
4452.83413,0.03094
4454.76260,0.03538
4456.69107,0.04424
4458.61954,0.04878
4460.54801,0.04496
4462.47648,0.03735
4464.40495,0.03367
4466.33341,0.03849
4468.26188,0.04337
4470.19035,0.03832
4472.11882,0.03152
4474.04729,0.03264
4475.97576,0.02905
4477.90423,0.01408
4479.83270,0.00612
4481.76116,0.01529
4483.68963,0.02718
4485.61810,0.02828
4487.54657,0.02558
4489.47504,0.02618
4491.40351,0.02764
4493.33198,0.03212
4495.26044,0.03863
4497.18891,0.03585
4499.11738,0.02167
4501.04585,0.01125
4502.97432,0.01347
4504.90279,0.02170
4506.83126,0.02551
4508.75973,0.02187
4510.68819,0.02100
4512.61666,0.02538
4514.54513,0.02460
4516.47360,0.02306
4518.40207,0.02640
4520.33054,0.02656
4522.25901,0.02414
4524.18747,0.02552
4526.11594,0.02803
4528.04441,0.02928
4529.97288,0.03004
4531.90135,0.02622
4533.82982,0.01561
4535.75829,0.00526
4537.68676,0.00336
4539.61522,0.00676
4541.54369,0.01010
4543.47216,0.01637
4545.40063,0.02474
4547.32910,0.03020
4549.25757,0.02866
4551.18604,0.02502
4553.11450,0.02877
4555.04297,0.03340
4556.97144,0.02800
4558.89991,0.01458
4560.82838,0.00605
4562.75685,0.00860
4564.68532,0.01321
4566.61378,0.01609
4568.54225,0.01710
4570.47072,0.00928
4572.39919,-0.00286
4574.32766,-0.00500
4576.25613,0.00480
4578.18460,0.01548
4580.11307,0.01613
4582.04153,0.00921
4583.97000,0.00623
4585.89847,0.01244
4587.82694,0.02116
4589.75541,0.01922
4591.68388,0.00956
4593.61235,0.00904
4595.54081,0.01473
4597.46928,0.01043
4599.39775,0.00220
4601.32622,0.00428
4603.25469,0.01013
4605.18316,0.00926
4607.11163,0.00287
4609.04010,0.00299
4610.96856,0.01719
4612.89703,0.02876
4614.82550,0.02567
4616.75397,0.02048
4618.68244,0.01746
4620.61091,0.01295
4622.53938,0.01133
4624.46784,0.01068
4626.39631,0.00774
4628.32478,0.00596
4630.25325,0.00546
4632.18172,0.00098
4634.11019,-0.00212
4636.03866,0.00759
4637.96713,0.02036
4639.89559,0.02498
4641.82406,0.02639
4643.75253,0.02738
4645.68100,0.02512
4647.60947,0.01618
4649.53794,0.00734
4651.46641,0.01006
4653.39487,0.01734
4655.32334,0.02070
4657.25181,0.02371
4659.18028,0.02111
4661.10875,0.01072
4663.03722,0.00981
4664.96569,0.02420
4666.89416,0.03839
4668.82262,0.04345
4670.75109,0.03988
4672.67956,0.02870
4674.60803,0.01620
4676.53650,0.00664
4678.46497,0.00053
4680.39344,-0.00178
4682.32190,-0.00095
4684.25037,0.00517
4686.17884,0.01356
4688.10731,0.01761
4690.03578,0.01545
4691.96425,0.00877
4693.89272,0.00638
4695.82119,0.01210
4697.74965,0.01585
4699.67812,0.01372
4701.60659,0.01365
4703.53506,0.01671
4705.46353,0.01660
4707.39200,0.01460
4709.32047,0.01505
4711.24893,0.02033
4713.17740,0.03043
4715.10587,0.03215
4717.03434,0.01690
4718.96281,-0.00043
4720.89128,-0.00634
4722.81975,-0.00697
4724.74821,-0.01083
4726.67668,-0.01301
4728.60515,-0.00728
4730.53362,0.00443
4732.46209,0.00948
4734.39056,0.00322
4736.31903,0.00140
4738.24750,0.00772
4740.17596,0.01463
4742.10443,0.01835
4744.03290,0.01887
4745.96137,0.02124
4747.88984,0.02640
4749.81831,0.03308
4751.74678,0.03665
4753.67524,0.03385
4755.60371,0.03157
4757.53218,0.02980
4759.46065,0.02201
4761.38912,0.01320
4763.31759,0.00601
4765.24606,0.00119
4767.17453,0.01110
4769.10299,0.02963
4771.03146,0.03408
4772.95993,0.02612
4774.88840,0.02029
4776.81687,0.01321
4778.74534,-0.00082
4780.67381,-0.01162
4782.60227,-0.00910
4784.53074,-0.00176
4786.45921,-0.00574
4788.38768,-0.01135
4790.31615,-0.00368
4792.24462,0.00583
4794.17309,0.00981
4796.10156,0.01348
4798.03002,0.01454
4799.95849,0.01090
4801.88696,0.00872
4803.81543,0.01163
4805.74390,0.01133
4807.67237,0.00285
4809.60084,-0.00041
4811.52930,0.00900
4813.45777,0.01483
4815.38624,0.00864
4817.31471,0.00373
4819.24318,0.00195
4821.17165,-0.00473
4823.10012,-0.01296
4825.02859,-0.01193
4826.95705,0.00323
4828.88552,0.01830
4830.81399,0.02221
4832.74246,0.01924
4834.67093,0.01311
4836.59940,0.00961
4838.52787,0.00820
4840.45633,0.00413
4842.38480,0.00358
4844.31327,0.00944
4846.24174,0.01371
4848.17021,0.00988
4850.09868,0.00516
4852.02715,0.01175
4853.95562,0.02200
4855.88408,0.02122
4857.81255,0.01297
4859.74102,0.01004
4861.66949,0.01586
4863.59796,0.02402
4865.52643,0.02905
4867.45490,0.02516
4869.38336,0.01218
4871.31183,0.00192
4873.24030,0.00247
4875.16877,0.01016
4877.09724,0.01975
4879.02571,0.03061
4880.95418,0.03706
4882.88265,0.03181
4884.81111,0.01528
4886.73958,-0.00458
4888.66805,-0.01925
4890.59652,-0.02542
4892.52499,-0.02529
4894.45346,-0.02673
4896.38193,-0.02390
4898.31039,-0.00123
4900.23886,0.02342
4902.16733,0.02296
4904.09580,0.01121
4906.02427,0.00826
4907.95274,0.00209
4909.88121,-0.01217
4911.80967,-0.01725
4913.73814,-0.00886
4915.66661,-0.00013
4917.59508,-0.00523
4919.52355,-0.01453
4921.45202,-0.01021
4923.38049,-0.00254
4925.30896,-0.00077
4927.23742,0.00048
4929.16589,-0.00158
4931.09436,-0.01144
4933.02283,-0.02143
4934.95130,-0.01824
4936.87977,-0.00552
4938.80824,0.00050
4940.73670,-0.00056
4942.66517,0.00623
4944.59364,0.01722
4946.52211,0.01721
4948.45058,0.01188
4950.37905,0.00863
4952.30752,0.00737
4954.23599,0.00806
4956.16445,-0.00118
4958.09292,-0.01209
4960.02139,-0.00107
4961.94986,0.02238
4963.87833,0.03887
4965.80680,0.04484
4967.73527,0.03831
4969.66373,0.02507
4971.59220,0.01585
4973.52067,0.00931
4975.44914,0.00711
4977.37761,0.01358
4979.30608,0.01377
4981.23455,-0.00202
4983.16302,-0.01953
4985.09148,-0.02530
4987.01995,-0.02130
4988.94842,-0.01601
4990.87689,-0.01180
4992.80536,-0.00368
4994.73383,0.01135
4996.66230,0.02759
4998.59076,0.03501
5000.51923,0.02844
5002.44770,0.01565
5004.37617,0.01348
5006.30464,0.01627
5008.23311,0.01117
5010.16158,0.01427
5012.09005,0.03130
5014.01851,0.04286
5015.94698,0.04249
5017.87545,0.03551
5019.80392,0.02801
5021.73239,0.02129
5023.66086,0.00882
5025.58933,-0.00282
5027.51779,0.00158
5029.44626,0.01977
5031.37473,0.03927
5033.30320,0.04359
5035.23167,0.02758
5037.16014,0.01063
5039.08861,0.00902
5041.01708,0.01854
5042.94554,0.02257
5044.87401,0.01609
5046.80248,0.01376
5048.73095,0.03246
5050.65942,0.06789
5052.58789,0.08116
5054.51636,0.05423
5056.44482,0.02255
5058.37329,0.00555
5060.30176,0.00120
5062.23023,0.02169
5064.15870,0.04963
5066.08717,0.04815
5068.01564,0.02725
5069.94410,0.02134
5071.87257,0.02636
5073.80104,0.01990
5075.72951,0.01345
5077.65798,0.02269
5079.58645,0.03295
5081.51492,0.03524
5083.44339,0.03804
5085.37185,0.04149
5087.30032,0.03990
5089.22879,0.03131
5091.15726,0.01589
5093.08573,0.00724
5095.01420,0.01828
5096.94267,0.03630
5098.87113,0.04324
5100.79960,0.04236
5102.72807,0.04725
5104.65654,0.05587
5106.58501,0.05557
5108.51348,0.04491
5110.44195,0.03721
5112.37042,0.04473
5114.29888,0.05401
5116.22735,0.04356
5118.15582,0.01993
5120.08429,0.00002
5122.01276,-0.00096
5123.94123,0.02211
5125.86970,0.04016
5127.79816,0.03835
5129.72663,0.03872
5131.65510,0.04321
5133.58357,0.04034
5135.51204,0.03498
5137.44051,0.05050
5139.36898,0.08737
5141.29745,0.10752
5143.22591,0.09579
5145.15438,0.05491
5147.08285,0.01039
5149.01132,0.00415
5150.93979,0.01728
5152.86826,0.02052
5154.79673,0.02924
5156.72519,0.04841
5158.65366,0.06167
5160.58213,0.06454
5162.51060,0.05708
5164.43907,0.04050
5166.36754,0.02682
5168.29601,0.02568
5170.22448,0.03449
5172.15294,0.04022
5174.08141,0.04110
5176.00988,0.04293
5177.93835,0.03962
5179.86682,0.03937
5181.79529,0.05656
5183.72376,0.07016
5185.65222,0.06179
5187.58069,0.05716
5189.50916,0.06522
5191.43763,0.06762
5193.36610,0.06626
5195.29457,0.06992
5197.22304,0.07476
5199.15151,0.07619
5201.07997,0.08016
5203.00844,0.08114
5204.93691,0.06711
5206.86538,0.04964
5208.79385,0.04143
5210.72232,0.03843
5212.65079,0.04002
5214.57925,0.04541
5216.50772,0.04979
5218.43619,0.05170
5220.36466,0.05362
5222.29313,0.06136
5224.22160,0.07386
5226.15007,0.07149
5228.07854,0.05314
5230.00700,0.04585
5231.93547,0.05600
5233.86394,0.06650
5235.79241,0.06948
5237.72088,0.06441
5239.64935,0.05284
5241.57782,0.05558
5243.50628,0.07641
5245.43475,0.08805
5247.36322,0.08226
5249.29169,0.06711
5251.22016,0.04470
5253.14863,0.02643
5255.07710,0.02152
5257.00556,0.02509
5258.93403,0.03813
5260.86250,0.05706
5262.79097,0.07750
5264.71944,0.09372
5266.64791,0.07732
5268.57638,0.03560
5270.50485,0.01698
5272.43331,0.03688
5274.36178,0.05451
5276.29025,0.05038
5278.21872,0.05061
5280.14719,0.06152
5282.07566,0.06451
5284.00413,0.06143
5285.93259,0.06169
5287.86106,0.05377
5289.78953,0.03660
5291.71800,0.04372
5293.64647,0.07779
5295.57494,0.09200
5297.50341,0.07312
5299.43188,0.05609
5301.36034,0.05265
5303.28881,0.04970
5305.21728,0.05215
5307.14575,0.05986
5309.07422,0.05926
5311.00269,0.04938
5312.93116,0.03456
5314.85962,0.02156
5316.78809,0.02202
5318.71656,0.02382
5320.64503,0.01808
5322.57350,0.02882
5324.50197,0.04976
5326.43044,0.04466
5328.35891,0.02810
5330.28737,0.03104
5332.21584,0.04027
5334.14431,0.03465
5336.07278,0.01747
5338.00125,0.02340
5339.92972,0.05837
5341.85819,0.07597
5343.78665,0.06535
5345.71512,0.04635
5347.64359,0.03885
5349.57206,0.04491
5351.50053,0.05072
5353.42900,0.04215
5355.35747,0.03218
5357.28594,0.04478
5359.21440,0.05942
5361.14287,0.04677
5363.07134,0.02657
5364.99981,0.02523
5366.92828,0.03433
5368.85675,0.05092
5370.78522,0.06914
5372.71368,0.07232
5374.64215,0.07363
5376.57062,0.08621
5378.49909,0.09070
5380.42756,0.08135
5382.35603,0.06723
5384.28450,0.05776
5386.21297,0.05121
5388.14143,0.04737
5390.06990,0.05902
5391.99837,0.07801
5393.92684,0.08567
5395.85531,0.08243
5397.78378,0.06719
5399.71225,0.04412
5401.64071,0.04625
5403.56918,0.07734
5405.49765,0.09664
5407.42612,0.09692
5409.35459,0.10058
5411.28306,0.09297
5413.21153,0.06298
5415.13999,0.05097
5417.06846,0.05925
5418.99693,0.06741
5420.92540,0.08155
5422.85387,0.09454
5424.78234,0.09800
5426.71081,0.09888
5428.63928,0.09360
5430.56774,0.08614
5432.49621,0.08192
5434.42468,0.08001
5436.35315,0.07927
5438.28162,0.06927
5440.21009,0.06432
5442.13856,0.07183
5444.06702,0.06628
5445.99549,0.04712
5447.92396,0.03269
5449.85243,0.02941
5451.78090,0.03146
5453.70937,0.04338
5455.63784,0.08051
5457.56631,0.12034
5459.49477,0.11995
5461.42324,0.09813
5463.35171,0.09988
5465.28018,0.11357
5467.20865,0.11209
5469.13712,0.09975
5471.06559,0.08834
5472.99405,0.09417
5474.92252,0.10908
5476.85099,0.09530
5478.77946,0.05975
5480.70793,0.03865
5482.63640,0.04987
5484.56487,0.07356
5486.49334,0.08452
5488.42180,0.08564
5490.35027,0.08208
5492.27874,0.08079
5494.20721,0.08421
5496.13568,0.09332
5498.06415,0.10202
5499.99262,0.09251
5501.92108,0.07484
5503.84955,0.06421
5505.77802,0.06657
5507.70649,0.07317
5509.63496,0.06549
5511.56343,0.06653
5513.49190,0.07595
5515.42037,0.06696
5517.34883,0.06505
5519.27730,0.08480
5521.20577,0.10605
5523.13424,0.11175
5525.06271,0.09670
5526.99118,0.08790
5528.91965,0.09615
5530.84811,0.09865
5532.77658,0.08884
5534.70505,0.07428
5536.63352,0.06032
5538.56199,0.05460
5540.49046,0.05026
5542.41893,0.04693
5544.34740,0.06306
5546.27586,0.06905
5548.20433,0.04943
5550.13280,0.04648
5552.06127,0.05471
5553.98974,0.05518
5555.91821,0.06654
5557.84668,0.09230
5559.77514,0.09945
5561.70361,0.07643
5563.63208,0.06177
5565.56055,0.07743
5567.48902,0.10317
5569.41749,0.11088
5571.34596,0.08855
5573.27443,0.07409
5575.20289,0.09583
5577.13136,0.10271
5579.05983,0.08214
5580.98830,0.07611
5582.91677,0.07903
5584.84524,0.07142
5586.77371,0.07147
5588.70217,0.08624
5590.63064,0.09604
5592.55911,0.09333
5594.48758,0.07854
5596.41605,0.05471
5598.34452,0.05513
5600.27299,0.09920
5602.20145,0.12698
5604.12992,0.09601
5606.05839,0.05377
5607.98686,0.03929
5609.91533,0.05086
5611.84380,0.07072
5613.77227,0.07793
5615.70074,0.07778
5617.62920,0.08508
5619.55767,0.10513
5621.48614,0.12188
5623.41461,0.11308
5625.34308,0.09733
5627.27155,0.09293
5629.20002,0.07439
5631.12848,0.06070
5633.05695,0.09028
5634.98542,0.13876
5636.91389,0.16140
5638.84236,0.15196
5640.77083,0.14693
5642.69930,0.14785
5644.62777,0.12998
5646.55623,0.11201
5648.48470,0.10513
5650.41317,0.09703
5652.34164,0.08364
5654.27011,0.07169
5656.19858,0.06702
5658.12705,0.06425
5660.05551,0.06696
5661.98398,0.07671
5663.91245,0.09121
5665.84092,0.11552
5667.76939,0.13643
5669.69786,0.13378
5671.62633,0.11371
5673.55480,0.08645
5675.48326,0.05356
5677.41173,0.03594
5679.34020,0.04448
5681.26867,0.06067
5683.19714,0.08146
5685.12561,0.09662
5687.05408,0.07979
5688.98254,0.06206
5690.91101,0.07929
5692.83948,0.09949
5694.76795,0.10041
5696.69642,0.07611
5698.62489,0.03133
5700.55336,0.02405
5702.48183,0.07924
5704.41029,0.12972
5706.33876,0.13079
5708.26723,0.10804
5710.19570,0.08151
5712.12417,0.05570
5714.05264,0.04139
5715.98111,0.03011
5717.90957,0.01869
5719.83804,0.03085
5721.76651,0.05629
5723.69498,0.07320
5725.62345,0.09974
5727.55192,0.12373
5729.48039,0.10728
5731.40886,0.08277
5733.33732,0.08778
5735.26579,0.09569
5737.19426,0.08607
5739.12273,0.08734
5741.05120,0.09651
5742.97967,0.09654
5744.90814,0.10595
5746.83660,0.11193
5748.76507,0.09281
5750.69354,0.07053
5752.62201,0.06478
5754.55048,0.07609
5756.47895,0.09151
5758.40742,0.10287
5760.33588,0.13118
5762.26435,0.15638
5764.19282,0.12242
5766.12129,0.06583
5768.04976,0.05754
5769.97823,0.10069
5771.90670,0.16164
5773.83517,0.19013
5775.76363,0.16412
5777.69210,0.11481
5779.62057,0.08436
5781.54904,0.07418
5783.47751,0.07200
5785.40598,0.08040
5787.33445,0.09364
5789.26291,0.10658
5791.19138,0.12290
5793.11985,0.13805
5795.04832,0.12538
5796.97679,0.08407
5798.90526,0.05457
5800.83373,0.05627
5802.76220,0.08852
5804.69066,0.13085
5806.61913,0.14798
5808.54760,0.12325
5810.47607,0.07910
5812.40454,0.06623
5814.33301,0.07789
5816.26148,0.07034
5818.18994,0.06938
5820.11841,0.11061
5822.04688,0.16407
5823.97535,0.18405
5825.90382,0.16826
5827.83229,0.15797
5829.76076,0.17085
5831.68923,0.18266
5833.61769,0.18707
5835.54616,0.17330
5837.47463,0.12174
5839.40310,0.07628
5841.33157,0.09318
5843.26004,0.13055
5845.18851,0.12810
5847.11697,0.11809
5849.04544,0.13904
5850.97391,0.14643
5852.90238,0.11671
5854.83085,0.09387
5856.75932,0.10905
5858.68779,0.12898
5860.61626,0.09659
5862.54472,0.04679
5864.47319,0.04827
5866.40166,0.08549
5868.33013,0.11874
5870.25860,0.13019
5872.18707,0.11507
5874.11554,0.09322
5876.04400,0.08153
5877.97247,0.07209
5879.90094,0.05395
5881.82941,0.03481
5883.75788,0.03419
5885.68635,0.03094
5887.61482,0.00841
5889.54329,-0.00002
5891.47175,0.01591
5893.40022,0.05261
5895.32869,0.10237
5897.25716,0.12253
5899.18563,0.08328
5901.11410,0.03829
5903.04257,0.06130
5904.97103,0.11454
5906.89950,0.12439
5908.82797,0.09602
5910.75644,0.08174
5912.68491,0.10521
5914.61338,0.14349
5916.54185,0.16103
5918.47032,0.14604
5920.39878,0.13275
5922.32725,0.14693
5924.25572,0.15626
5926.18419,0.12681
5928.11266,0.07939
5930.04113,0.06523
5931.96960,0.10183
5933.89806,0.14473
5935.82653,0.13776
5937.75500,0.10116
5939.68347,0.08070
5941.61194,0.07426
5943.54041,0.06684
5945.46888,0.06640
5947.39734,0.08250
5949.32581,0.09556
5951.25428,0.07806
5953.18275,0.04899
5955.11122,0.06207
5957.03969,0.13336
5958.96816,0.20341
5960.89663,0.20136
5962.82509,0.14276
5964.75356,0.09597
5966.68203,0.09877
5968.61050,0.11424
5970.53897,0.09553
5972.46744,0.07389
5974.39591,0.08090
5976.32437,0.08893
5978.25284,0.08482
5980.18131,0.07505
5982.10978,0.06065
5984.03825,0.06478
5985.96672,0.09008
5987.89519,0.10826
5989.82366,0.12754
5991.75212,0.12878
5993.68059,0.06994
5995.60906,0.01750
5997.53753,0.04277
5999.46600,0.07710
6001.39447,0.07038
6003.32294,0.05751
6005.25140,0.06874
6007.17987,0.09510
6009.10834,0.11299
6011.03681,0.10084
6012.96528,0.08180
6014.89375,0.08767
6016.82222,0.08199
6018.75069,0.05878
6020.67915,0.07162
6022.60762,0.08972
6024.53609,0.08211
6026.46456,0.08678
6028.39303,0.09488
6030.32150,0.08877
6032.24997,0.11527
6034.17843,0.14867
6036.10690,0.11418
6038.03537,0.05226
6039.96384,0.02260
6041.89231,0.02619
6043.82078,0.06633
6045.74925,0.12054
6047.67772,0.13319
6049.60618,0.10165
6051.53465,0.09659
6053.46312,0.11023
6055.39159,0.10734
6057.32006,0.11102
6059.24853,0.08726
6061.17700,0.04602
6063.10546,0.06922
6065.03393,0.12486
6066.96240,0.14590
6068.89087,0.12614
6070.81934,0.10769
6072.74781,0.13416
6074.67628,0.16359
6076.60475,0.13900
6078.53321,0.08655
6080.46168,0.07120
6082.39015,0.10818
6084.31862,0.13307
6086.24709,0.10694
6088.17556,0.06989
6090.10403,0.04447
6092.03249,0.03777
6093.96096,0.06552
6095.88943,0.12872
6097.81790,0.19251
6099.74637,0.20951
6101.67484,0.20456
6103.60331,0.19576
6105.53177,0.15085
6107.46024,0.10145
6109.38871,0.11937
6111.31718,0.16254
6113.24565,0.13579
6115.17412,0.08728
6117.10259,0.09414
6119.03106,0.12338
6120.95952,0.11751
6122.88799,0.10164
6124.81646,0.11601
6126.74493,0.15019
6128.67340,0.16561
6130.60187,0.13666
6132.53034,0.11359
6134.45880,0.11641
6136.38727,0.10057
6138.31574,0.07574
6140.24421,0.06209
6142.17268,0.08370
6144.10115,0.11819
6146.02962,0.10213
6147.95809,0.08493
6149.88655,0.10702
6151.81502,0.13595
6153.74349,0.14431
6155.67196,0.12072
6157.60043,0.06709
6159.52890,0.01693
6161.45737,0.01040
6163.38583,0.02694
6165.31430,0.04712
6167.24277,0.06544
6169.17124,0.06847
6171.09971,0.06137
6173.02818,0.03088
6174.95665,-0.00226
6176.88512,0.02553
6178.81358,0.09553
6180.74205,0.12543
6182.67052,0.11940
6184.59899,0.12600
6186.52746,0.12120
6188.45593,0.11667
6190.38440,0.14489
6192.31286,0.13467
6194.24133,0.08813
6196.16980,0.08692
6198.09827,0.10537
6200.02674,0.10138
6201.95521,0.10626
6203.88368,0.09666
6205.81215,0.03527
6207.74061,-0.00618
6209.66908,0.04342
6211.59755,0.12608
6213.52602,0.15034
6215.45449,0.12579
6217.38296,0.08635
6219.31143,0.06229
6221.23989,0.06162
6223.16836,0.06836
6225.09683,0.07082
6227.02530,0.07058
6228.95377,0.06973
6230.88224,0.04773
6232.81071,0.03475
6234.73918,0.07209
6236.66764,0.09552
6238.59611,0.07401
6240.52458,0.05397
6242.45305,0.05765
6244.38152,0.07322
6246.30999,0.08676
6248.23846,0.10002
6250.16692,0.11470
6252.09539,0.11169
6254.02386,0.10387
6255.95233,0.12482
6257.88080,0.15518
6259.80927,0.15685
6261.73774,0.14384
6263.66621,0.13867
6265.59467,0.11958
6267.52314,0.05104
6269.45161,-0.02812
6271.38008,-0.02555
6273.30855,0.07636
6275.23702,0.15999
6277.16549,0.12990
6279.09395,0.06896
6281.02242,0.04759
6282.95089,0.04772
6284.87936,0.09512
6286.80783,0.16242
6288.73630,0.16313
6290.66477,0.12943
6292.59323,0.11685
6294.52170,0.08961
6296.45017,0.07597
6298.37864,0.11884
6300.30711,0.15049
6302.23558,0.12172
6304.16405,0.06129
6306.09252,0.02063
6308.02098,0.03326
6309.94945,0.04922
6311.87792,0.03629
6313.80639,0.03711
6315.73486,0.05401
6317.66333,0.04143
6319.59180,0.01112
6321.52026,0.00871
6323.44873,0.01323
6325.37720,0.02400
6327.30567,0.07445
6329.23414,0.13033
6331.16261,0.14566
6333.09108,0.13754
6335.01955,0.12698
6336.94801,0.11300
6338.87648,0.09776
6340.80495,0.09679
6342.73342,0.13511
6344.66189,0.18356
6346.59036,0.15879
6348.51883,0.10045
6350.44729,0.11403
6352.37576,0.11744
6354.30423,0.04724
6356.23270,0.02426
6358.16117,0.09887
6360.08964,0.18388
6362.01811,0.21469
6363.94658,0.20141
6365.87504,0.16085
6367.80351,0.09401
6369.73198,0.03150
6371.66045,0.01666
6373.58892,0.00440
6375.51739,-0.02541
6377.44586,0.00551
6379.37432,0.08905
6381.30279,0.14290
6383.23126,0.11399
6385.15973,0.06160
6387.08820,0.07065
6389.01667,0.08638
6390.94514,0.05370
6392.87361,0.02201
6394.80207,0.04689
6396.73054,0.07486
6398.65901,0.07125
6400.58748,0.07828
6402.51595,0.09817
6404.44442,0.10784
6406.37289,0.13905
6408.30135,0.16921
6410.22982,0.13966
6412.15829,0.08584
6414.08676,0.05942
6416.01523,0.04250
6417.94370,-0.01343
6419.87217,-0.06871
6421.80064,-0.06536
6423.72910,-0.02639
6425.65757,0.04595
6427.58604,0.11369
6429.51451,0.12761
6431.44298,0.11122
6433.37145,0.12023
6435.29992,0.17739
6437.22838,0.20529
6439.15685,0.14998
6441.08532,0.10137
6443.01379,0.09943
6444.94226,0.07902
6446.87073,0.04020
6448.79920,0.05166
6450.72766,0.06821
6452.65613,0.02581
6454.58460,0.00608
6456.51307,0.05853
6458.44154,0.11538
6460.37001,0.14479
6462.29848,0.15934
6464.22695,0.14576
6466.15541,0.10946
6468.08388,0.05132
6470.01235,-0.02402
6471.94082,-0.05825
6473.86929,-0.02541
6475.79776,0.04454
6477.72623,0.10564
6479.65469,0.13683
6481.58316,0.14469
6483.51163,0.12567
6485.44010,0.08397
6487.36857,0.04385
6489.29704,0.04727
6491.22551,0.08998
6493.15398,0.12495
6495.08244,0.15137
6497.01091,0.16980
6498.93938,0.14903
6500.86785,0.08959
6502.79632,0.06652
6504.72479,0.08806
6506.65326,0.08210
6508.58172,0.05998
6510.51019,0.04119
6512.43866,0.01784
6514.36713,0.01812
6516.29560,0.02065
6518.22407,-0.02477
6520.15254,-0.06681
6522.08101,-0.04508
6524.00947,0.00806
6525.93794,0.07673
6527.86641,0.14310
6529.79488,0.13678
6531.72335,0.07221
6533.65182,0.03846
6535.58029,0.04897
6537.50875,0.03771
6539.43722,0.02157
6541.36569,0.03919
6543.29416,0.03320
6545.22263,0.01768
6547.15110,0.05212
6549.07957,0.09054
6551.00804,0.06752
6552.93650,-0.00611
6554.86497,-0.06347
6556.79344,-0.05566
6558.72191,-0.02921
6560.65038,-0.05366
6562.57885,-0.10467
6564.50732,-0.08838
6566.43578,-0.00552
6568.36425,0.01938
6570.29272,0.00020
6572.22119,0.01931
6574.14966,0.01322
6576.07813,-0.02479
6578.00660,0.01960
6579.93507,0.13553
6581.86353,0.17408
6583.79200,0.10444
6585.72047,0.06419
6587.64894,0.08741
6589.57741,0.10323
6591.50588,0.10311
6593.43435,0.06136
6595.36281,-0.00157
6597.29128,0.01804
6599.21975,0.07499
6601.14822,0.09120
6603.07669,0.05940
6605.00516,-0.01260
6606.93363,-0.05139
6608.86210,-0.01579
6610.79056,0.02725
6612.71903,0.05162
6614.64750,0.08366
6616.57597,0.09938
6618.50444,0.08156
6620.43291,0.05786
6622.36138,0.03124
6624.28984,0.03870
6626.21831,0.07725
6628.14678,0.08976
6630.07525,0.09946
6632.00372,0.12638
6633.93219,0.13057
6635.86066,0.09174
6637.78912,0.05399
6639.71759,0.07470
6641.64606,0.12261
6643.57453,0.10550
6645.50300,0.03101
6647.43147,0.02154
6649.35994,0.05256
6651.28841,0.04275
6653.21687,0.03309
6655.14534,0.03727
6657.07381,0.01781
6659.00228,-0.03282
6660.93075,-0.13990
6662.85922,-0.19706
6664.78769,-0.07108
6666.71615,0.09181
6668.64462,0.11424
6670.57309,0.09004
6672.50156,0.13568
6674.43003,0.16145
6676.35850,0.13703
6678.28697,0.13172
6680.21544,0.10036
6682.14390,0.02641
6684.07237,0.00539
6686.00084,0.06451
6687.92931,0.13776
6689.85778,0.14173
6691.78625,0.07829
6693.71472,0.03588
6695.64318,0.05609
6697.57165,0.11840
6699.50012,0.15068
6701.42859,0.11107
6703.35706,0.04969
6705.28553,0.02313
6707.21400,0.02635
6709.14247,-0.01507
6711.07093,-0.05901
6712.99940,0.01306
6714.92787,0.12004
6716.85634,0.14480
6718.78481,0.13376
6720.71328,0.13021
6722.64175,0.10442
6724.57021,0.05669
6726.49868,0.01718
6728.42715,-0.02135
6730.35562,-0.07829
6732.28409,-0.13530
6734.21256,-0.09472
6736.14103,0.07049
6738.06950,0.23117
6739.99796,0.31659
6741.92643,0.31896
6743.85490,0.26041
6745.78337,0.15085
6747.71184,0.02382
6749.64031,0.00331
6751.56878,0.08189
6753.49724,0.12234
6755.42571,0.08693
6757.35418,0.05979
6759.28265,0.12400
6761.21112,0.24524
6763.13959,0.28600
6765.06806,0.20893
6766.99653,0.09233
6768.92499,0.05351
6770.85346,0.09790
6772.78193,0.14264
6774.71040,0.13943
6776.63887,0.06569
6778.56734,-0.00433
6780.49581,-0.00343
6782.42427,0.03311
6784.35274,0.05897
6786.28121,0.07321
6788.20968,0.12056
6790.13815,0.19379
6792.06662,0.18901
6793.99509,0.10854
6795.92355,0.03676
6797.85202,-0.01510
6799.78049,-0.02246
6801.70896,0.02554
6803.63743,0.05859
6805.56590,0.06226
6807.49437,0.07895
6809.42284,0.11371
6811.35130,0.13448
6813.27977,0.11446
6815.20824,0.05864
6817.13671,-0.03300
6819.06518,-0.08865
6820.99365,-0.02260
6822.92212,0.11416
6824.85058,0.12792
6826.77905,0.06806
6828.70752,0.09664
6830.63599,0.14635
6832.56446,0.11895
6834.49293,0.08023
6836.42140,0.06338
6838.34987,0.05044
6840.27833,0.03676
6842.20680,0.07269
6844.13527,0.18445
6846.06374,0.24701
6847.99221,0.18336
6849.92068,0.11112
6851.84915,0.08233
6853.77761,0.03033
6855.70608,0.00745
6857.63455,0.10001
6859.56302,0.19090
6861.49149,0.12849
6863.41996,-0.00006
6865.34843,-0.02728
6867.27690,-0.01027
6869.20536,-0.05841
6871.13383,-0.13399
6873.06230,-0.12260
6874.99077,-0.04287
6876.91924,0.00084
6878.84771,0.05315
6880.77618,0.16149
6882.70464,0.25484
6884.63311,0.29402
6886.56158,0.26987
6888.49005,0.18385
6890.41852,0.09353
6892.34699,0.06534
6894.27546,0.09104
6896.20393,0.10453
6898.13239,0.07976
6900.06086,0.06600
6901.98933,0.07644
6903.91780,0.05189
6905.84627,-0.01050
6907.77474,-0.03616
6909.70321,-0.07348
6911.63167,-0.15221
6913.56014,-0.11475
6915.48861,0.05389
6917.41708,0.17697
6919.34555,0.20859
6921.27402,0.16227
6923.20249,0.07252
6925.13096,0.02793
6927.05942,0.01737
6928.98789,0.04050
6930.91636,0.15601
6932.84483,0.24450
6934.77330,0.20800
6936.70177,0.12243
6938.63024,0.05587
6940.55870,0.08530
6942.48717,0.15431
6944.41564,0.18060
6946.34411,0.16880
6948.27258,0.10172
6950.20105,0.01616
6952.12952,-0.04351
6954.05799,-0.03619
6955.98645,0.10356
6957.91492,0.25714
6959.84339,0.29425
6961.77186,0.23805
6963.70033,0.13105
6965.62880,-0.01303
6967.55727,-0.17168
6969.48573,-0.20958
6971.41420,-0.05167
6973.34267,0.07211
6975.27114,0.06969
6977.19961,0.10162
6979.12808,0.14978
6981.05655,0.22099
6982.98501,0.27275
6984.91348,0.09394
6986.84195,-0.22620
6988.77042,-0.32819
6990.69889,-0.17659
6992.62736,-0.02713
6994.55583,0.03871
6996.48430,0.08636
6998.41276,0.11834
7000.34123,0.05124
7002.26970,-0.07884
7004.19817,-0.07053
7006.12664,0.07274
7008.05511,0.10846
7009.98358,0.04416
7011.91204,-0.00390
7013.84051,-0.02869
7015.76898,-0.00004
7017.69745,0.09465
7019.62592,0.19254
7021.55439,0.15999
7023.48286,0.07056
7025.41133,0.12228
7027.33979,0.22258
7029.26826,0.15048
7031.19673,-0.00696
7033.12520,0.00400
7035.05367,0.15910
7036.98214,0.24271
7038.91061,0.23432
7040.83907,0.19114
7042.76754,0.15490
7044.69601,0.18544
7046.62448,0.17562
7048.55295,0.06331
7050.48142,-0.00081
7052.40989,0.03212
7054.33836,0.10979
7056.26682,0.12460
7058.19529,0.02925
7060.12376,0.01109
7062.05223,0.10692
7063.98070,0.16166
7065.90917,0.15059
7067.83764,0.21135
7069.76610,0.35963
7071.69457,0.39618
7073.62304,0.28548
7075.55151,0.17029
7077.47998,0.09731
7079.40845,0.09406
7081.33692,0.13754
7083.26539,0.09914
7085.19385,-0.01758
7087.12232,-0.12560
7089.05079,-0.16135
7090.97926,-0.09543
7092.90773,0.01735
7094.83620,0.07270
7096.76467,0.08254
7098.69313,0.09283
7100.62160,0.07779
7102.55007,0.03616
7104.47854,0.02781
7106.40701,0.09716
7108.33548,0.16008
7110.26395,0.13252
7112.19242,0.03919
7114.12088,-0.03660
7116.04935,-0.00692
7117.97782,0.12936
7119.90629,0.16745
7121.83476,0.07656
7123.76323,0.01277
7125.69170,-0.00038
7127.62016,0.01334
7129.54863,0.05506
7131.47710,0.09277
7133.40557,0.04859
7135.33404,-0.02626
7137.26251,0.01314
7139.19098,0.11371
7141.11944,0.18969
7143.04791,0.28640
7144.97638,0.27057
7146.90485,0.10039
7148.83332,0.05675
7150.76179,0.12256
7152.69026,0.07982
7154.61873,-0.09311
7156.54719,-0.17129
7158.47566,-0.08227
7160.40413,0.03347
7162.33260,0.07811
7164.26107,0.10221
7166.18954,0.18690
7168.11801,0.27502
7170.04647,0.29924
7171.97494,0.27865
7173.90341,0.15192
7175.83188,0.00235
7177.76035,0.03191
7179.68882,0.16132
7181.61729,0.22844
7183.54576,0.14049
7185.47422,0.07928
7187.40269,0.19492
7189.33116,0.26395
7191.25963,0.16595
7193.18810,0.10381
7195.11657,0.16566
7197.04504,0.23480
7198.97350,0.23654
7200.90197,0.22007
7202.83044,0.23748
7204.75891,0.23638
7206.68738,0.17964
7208.61585,0.14584
7210.54432,0.13345
7212.47279,0.12753
7214.40125,0.11437
7216.32972,0.06095
7218.25819,-0.00298
7220.18666,-0.03958
7222.11513,-0.02569
7224.04360,0.05109
7225.97207,0.12940
7227.90053,0.20611
7229.82900,0.23603
7231.75747,0.13445
7233.68594,0.09158
7235.61441,0.09467
7237.54288,0.07127
7239.47135,0.18291
7241.39982,0.40839
7243.32828,0.50477
7245.25675,0.40463
7247.18522,0.30667
7249.11369,0.25457
7251.04216,0.12776
7252.97063,-0.09563
7254.89910,-0.13392
7256.82756,0.00226
7258.75603,0.17566
7260.68450,0.34749
7262.61297,0.30306
7264.54144,0.09006
7266.46991,0.14706
7268.39838,0.42161
7270.32685,0.59682
7272.25531,0.52201
7274.18378,0.26486
7276.11225,-0.02444
7278.04072,-0.22623
7279.96919,-0.21197
7281.89766,-0.17466
7283.82613,-0.29045
7285.75459,-0.37194
7287.68306,-0.33858
7289.61153,-0.22458
7291.54000,-0.07388
7293.46847,0.00910
7295.39694,0.01531
7297.32541,0.05691
7299.25387,0.15385
7301.18234,0.18199
7303.11081,0.07102
7305.03928,-0.02333
7306.96775,0.03532
7308.89622,0.19965
7310.82469,0.34657
7312.75316,0.36472
7314.68162,0.26833
7316.61009,0.15971
7318.53856,0.14692
7320.46703,0.10711
7322.39550,-0.03797
7324.32397,-0.08528
7326.25244,0.04411
7328.18090,0.15609
7330.10937,0.14024
7332.03784,0.18118
7333.96631,0.25093
7335.89478,0.20799
7337.82325,0.14820
7339.75172,0.10563
7341.68019,0.00974
7343.60865,-0.00727
7345.53712,0.06255
7347.46559,0.10189
7349.39406,0.10693
7351.32253,0.08160
7353.25100,0.07860
7355.17947,0.12848
7357.10793,0.07454
7359.03640,-0.05519
7360.96487,0.01330
7362.89334,0.21239
7364.82181,0.32111
7366.75028,0.32790
7368.67875,0.26170
7370.60722,0.07211
7372.53568,-0.10209
7374.46415,-0.06429
7376.39262,0.09556
7378.32109,0.14944
7380.24956,0.17531
7382.17803,0.13938
7384.10650,0.13383
7386.03496,0.24825
7387.96343,0.21233
7389.89190,0.02660
7391.82037,-0.11013
7393.74884,-0.11682
7395.67731,0.02464
7397.60578,0.07227
7399.53425,0.00324
7401.46271,0.04799
7403.39118,0.10549
7405.31965,-0.01217
7407.24812,-0.10515
7409.17659,-0.02454
7411.10506,0.13502
7413.03353,0.20885
7414.96199,0.20611
7416.89046,0.20997
7418.81893,0.18959
7420.74740,0.21205
7422.67587,0.28978
7424.60434,0.24962
7426.53281,0.15225
7428.46128,0.13027
7430.38974,0.14114
7432.31821,0.15261
7434.24668,0.19072
7436.17515,0.20810
7438.10362,0.19728
7440.03209,0.14534
7441.96056,0.13488
7443.88902,0.16943
7445.81749,0.13214
7447.74596,0.15313
7449.67443,0.23860
7451.60290,0.08336
7453.53137,-0.17989
7455.45984,-0.18728
7457.38831,-0.01794
7459.31677,0.18382
7461.24524,0.23902
7463.17371,0.15690
7465.10218,0.20058
7467.03065,0.27044
7468.95912,0.11676
7470.88759,-0.15038
7472.81605,-0.35714
7474.74452,-0.43087
7476.67299,-0.26483
7478.60146,0.01932
7480.52993,-0.00471
7482.45840,-0.21445
7484.38687,-0.17100
7486.31533,-0.05978
7488.24380,-0.17652
7490.17227,-0.35819
7492.10074,-0.29285
7494.02921,-0.11510
7495.95768,-0.02873
7497.88615,-0.06922
