399.19301,16.83156
401.12148,4.03629
403.04995,-0.97315
404.97842,-1.68801
406.90689,-1.27181
408.83536,-1.20732
410.76382,-0.60315
412.69229,-0.13538
414.62076,-0.37975
416.54923,0.30989
418.47770,0.82797
420.40617,-0.09641
422.33464,0.10329
424.26311,0.52975
426.19157,0.49604
428.12004,0.59528
430.04851,0.75714
431.97698,0.67035
433.90545,0.47539
435.83392,0.41106
437.76239,0.38829
439.69085,0.37154
441.61932,0.25755
443.54779,0.12516
445.47626,0.16083
447.40473,0.18269
449.33320,0.14913
451.26167,0.12923
453.19013,0.06253
455.11860,-0.05713
457.04707,-0.08376
458.97554,0.02665
460.90401,0.16703
462.83248,0.25450
464.76095,0.24835
466.68942,0.13345
468.61788,-0.02915
470.54635,-0.35160
472.47482,-1.81598
474.40329,-3.48909
476.33176,-2.07053
478.26023,-0.36464
480.18870,0.18544
482.11716,0.23625
484.04563,0.22373
485.97410,0.16126
487.90257,0.10351
489.83104,0.10140
491.75951,0.14753
493.68798,0.13922
495.61645,0.01599
497.54491,-0.10993
499.47338,-0.11592
501.40185,-0.02591
503.33032,0.10534
505.25879,0.19487
507.18726,0.16776
509.11573,0.09650
511.04419,0.10234
512.97266,0.13902
514.90113,0.13918
516.82960,0.13232
518.75807,0.10698
520.68654,0.08465
522.61501,0.10995
524.54348,0.13741
526.47194,0.14927
528.40041,0.15170
530.32888,0.11687
532.25735,0.05795
534.18582,0.02300
536.11429,0.01540
538.04276,0.04186
539.97122,0.10607
541.89969,0.16223
543.82816,0.20201
545.75663,0.23162
547.68510,0.23376
549.61357,0.18415
551.54204,0.17217
553.47051,0.25928
555.39897,0.24740
557.32744,0.12043
559.25591,0.10966
561.18438,0.18366
563.11285,0.21670
565.04132,0.23334
566.96979,0.22344
568.89825,0.15168
570.82672,0.07528
572.75519,0.04923
574.68366,0.07966
576.61213,0.13780
578.54060,0.16793
580.46907,0.14467
582.39754,0.10857
584.32600,0.10768
586.25447,0.11033
588.18294,0.08313
590.11141,0.06058
592.03988,0.05364
593.96835,0.03951
595.89682,0.03714
597.82528,0.07649
599.75375,0.14471
601.68222,0.18946
603.61069,0.16209
605.53916,0.09344
607.46763,0.06453
609.39610,0.08850
611.32456,0.12670
613.25303,0.15744
615.18150,0.16150
617.10997,0.13031
619.03844,0.10107
620.96691,0.10199
622.89538,0.11266
624.82385,0.12173
626.75231,0.13393
628.68078,0.13288
630.60925,0.08345
632.53772,0.00439
634.46619,-0.00018
636.39466,0.08353
638.32313,0.16046
640.25159,0.17537
642.18006,0.12985
644.10853,0.07982
646.03700,0.07266
647.96547,0.09231
649.89394,0.11886
651.82241,0.14099
653.75088,0.14824
655.67934,0.15183
657.60781,0.16954
659.53628,0.19393
661.46475,0.18390
663.39322,0.13967
665.32169,0.11809
667.25016,0.13656
669.17862,0.15912
671.10709,0.18350
673.03556,0.21508
674.96403,0.21687
676.89250,0.17629
678.82097,0.13704
680.74944,0.12672
682.67791,0.11735
684.60637,0.10075
686.53484,0.11093
688.46331,0.14599
690.39178,0.17188
692.32025,0.16096
694.24872,0.12043
696.17719,0.09695
698.10565,0.10345
700.03412,0.11365
701.96259,0.11145
703.89106,0.10522
705.81953,0.10708
707.74800,0.11204
709.67647,-0.01362
711.60494,-0.29315
713.53340,-0.33069
715.46187,-0.05236
717.39034,0.12529
719.31881,0.13625
721.24728,0.13218
723.17575,0.12713
725.10422,0.11637
727.03268,0.12155
728.96115,0.13980
730.88962,0.14737
732.81809,0.14623
734.74656,0.14214
736.67503,0.13503
738.60350,0.12817
740.53197,0.12891
742.46043,0.13259
744.38890,0.13399
746.31737,0.13682
748.24584,0.13729
750.17431,0.13614
752.10278,0.12729
754.03125,0.12498
755.95971,0.14198
757.88818,0.15130
759.81665,0.15843
761.74512,0.17890
763.67359,0.18581
765.60206,0.17264
767.53053,0.15614
769.45900,0.14091
771.38746,0.13880
773.31593,0.15241
775.24440,0.16349
777.17287,0.16010
779.10134,0.14597
781.02981,0.13671
782.95828,0.14695
784.88674,0.16396
786.81521,0.16627
788.74368,0.16245
790.67215,0.16309
792.60062,0.15654
794.52909,0.14390
796.45756,0.13869
798.38602,0.14181
800.31449,0.15497
802.24296,0.17317
804.17143,0.18873
806.09990,0.19174
808.02837,0.16919
809.95684,0.14651
811.88531,0.15353
813.81377,0.16499
815.74224,0.15199
817.67071,0.13193
819.59918,0.11894
821.52765,0.11730
823.45612,0.13090
825.38459,0.14473
827.31305,0.13973
829.24152,0.12333
831.16999,0.12870
833.09846,0.15672
835.02693,0.17418
836.95540,0.17537
838.88387,0.17518
840.81234,0.16392
842.74080,0.14418
844.66927,0.14514
846.59774,0.16155
848.52621,0.15920
850.45468,0.13063
852.38315,0.10834
854.31162,0.11562
856.24008,0.14093
858.16855,0.15604
860.09702,0.14896
862.02549,0.14727
863.95396,0.16367
865.88243,0.18061
867.81090,0.32918
869.73937,0.64819
871.66783,0.71712
873.59630,0.41329
875.52477,0.17454
877.45324,0.13391
879.38171,0.14068
881.31018,0.15027
883.23865,0.15369
885.16711,0.14693
887.09558,0.13821
889.02405,0.13782
890.95252,0.14184
892.88099,0.14668
894.80946,0.15347
896.73793,0.15839
898.66640,0.15780
900.59486,0.15286
902.52333,0.14912
904.45180,0.13685
906.38027,0.11355
908.30874,0.10880
910.23721,0.13595
912.16568,0.16841
914.09414,0.17966
916.02261,0.16604
917.95108,0.15180
919.87955,0.15650
921.80802,0.16056
923.73649,0.14801
925.66496,0.13576
927.59343,0.14068
929.52189,0.15767
931.45036,0.16738
933.37883,0.16321
935.30730,0.16083
937.23577,0.16338
939.16424,0.15794
941.09271,0.14478
943.02117,0.13835
944.94964,0.14288
946.87811,0.14286
948.80658,0.13672
950.73505,0.14169
952.66352,0.15542
954.59199,0.16162
956.52045,0.16688
958.44892,0.17982
960.37739,0.18591
962.30586,0.18160
964.23433,0.17738
966.16280,0.17344
968.09127,0.16544
970.01974,0.15852
971.94820,0.15998
973.87667,0.16504
975.80514,0.16889
977.73361,0.17443
979.66208,0.17834
981.59055,0.17507
983.51902,0.16548
985.44748,0.15617
987.37595,0.15438
989.30442,0.15524
991.23289,0.15203
993.16136,0.15244
995.08983,0.16339
997.01830,0.17465
998.94677,0.17929
1000.87523,0.18346
1002.80370,0.18752
1004.73217,0.18836
1006.66064,0.18101
1008.58911,0.16316
1010.51758,0.14945
1012.44605,0.15206
1014.37451,0.16441
1016.30298,0.17325
1018.23145,0.16862
1020.15992,0.15890
1022.08839,0.16414
1024.01686,0.19180
1025.94533,0.23129
1027.87380,0.24777
1029.80226,0.21545
1031.73073,0.16831
1033.65920,0.15536
1035.58767,0.16544
1037.51614,0.16064
1039.44461,0.15092
1041.37308,0.15652
1043.30154,0.16390
1045.23001,0.16243
1047.15848,0.16250
1049.08695,0.17127
1051.01542,0.17586
1052.94389,0.17089
1054.87236,0.16632
1056.80083,0.16372
1058.72929,0.16500
1060.65776,0.17447
1062.58623,0.18477
1064.51470,0.18602
1066.44317,0.17561
1068.37164,0.15778
1070.30011,0.14567
1072.22857,0.15062
1074.15704,0.16256
1076.08551,0.16706
1078.01398,0.17436
1079.94245,0.19229
1081.87092,0.20257
1083.79939,0.19440
1085.72786,0.17782
1087.65632,0.16397
1089.58479,0.15857
1091.51326,0.16179
1093.44173,0.16467
1095.37020,0.16283
1097.29867,0.16519
1099.22714,0.17455
1101.15560,0.17893
1103.08407,0.17678
1105.01254,0.17898
1106.94101,0.18443
1108.86948,0.18729
1110.79795,0.18223
1112.72642,0.17262
1114.65489,0.17319
1116.58335,0.17781
1118.51182,0.17603
1120.44029,0.17578
1122.36876,0.17875
1124.29723,0.18378
1126.22570,0.19038
1128.15417,0.18537
1130.08263,0.16946
1132.01110,0.16348
1133.93957,0.16669
1135.86804,0.16407
1137.79651,0.15939
1139.72498,0.16068
1141.65345,0.16238
1143.58191,0.16250
1145.51038,0.16837
1147.43885,0.17427
1149.36732,0.17098
1151.29579,0.16653
1153.22426,0.16647
1155.15273,0.16807
1157.08120,0.17452
1159.00966,0.18429
1160.93813,0.18586
1162.86660,0.18184
1164.79507,0.18094
1166.72354,0.17514
1168.65201,0.16603
1170.58048,0.16900
1172.50894,0.17517
1174.43741,0.16828
1176.36588,0.16108
1178.29435,0.16663
1180.22282,0.17567
1182.15129,0.17545
1184.07976,0.18144
1186.00823,0.21535
1187.93669,0.23621
1189.86516,0.20845
1191.79363,0.17200
1193.72210,0.16201
1195.65057,0.17119
1197.57904,0.17996
1199.50751,0.17960
1201.43597,0.17268
1203.36444,0.16576
1205.29291,0.16574
1207.22138,0.16808
1209.14985,0.17033
1211.07832,0.17888
1213.00679,0.18784
1214.93526,0.18677
1216.86372,0.18172
1218.79219,0.17959
1220.72066,0.17688
1222.64913,0.17128
1224.57760,0.16649
1226.50607,0.16968
1228.43454,0.17744
1230.36300,0.17992
1232.29147,0.17848
1234.21994,0.17599
1236.14841,0.16967
1238.07688,0.16270
1240.00535,0.16174
1241.93382,0.16640
1243.86229,0.17207
1245.79075,0.17443
1247.71922,0.17405
1249.64769,0.17529
1251.57616,0.17696
1253.50463,0.17432
1255.43310,0.16957
1257.36157,0.16943
1259.29003,0.17383
1261.21850,0.17636
1263.14697,0.17756
1265.07544,0.18116
1267.00391,0.17821
1268.93238,0.16910
1270.86085,0.17018
1272.78932,0.17656
1274.71778,0.17408
1276.64625,0.16998
1278.57472,0.17213
1280.50319,0.17531
1282.43166,0.17763
1284.36013,0.17977
1286.28860,0.17742
1288.21706,0.17263
1290.14553,0.17716
1292.07400,0.19014
1294.00247,0.19338
1295.93094,0.18417
1297.85941,0.17722
1299.78788,0.17646
1301.71634,0.17259
1303.64481,0.16108
1305.57328,0.15226
1307.50175,0.15358
1309.43022,0.16072
1311.35869,0.16817
1313.28716,0.17384
1315.21563,0.17853
1317.14409,0.18115
1319.07256,0.18289
1321.00103,0.18523
1322.92950,0.18251
1324.85797,0.17537
1326.78644,0.17346
1328.71491,0.17538
1330.64337,0.17314
1332.57184,0.16954
1334.50031,0.16605
1336.42878,0.16177
1338.35725,0.16633
1340.28572,0.17746
1342.21419,0.19106
1344.14266,0.22078
1346.07112,0.23448
1347.99959,0.20431
1349.92806,0.18035
1351.85653,0.18112
1353.78500,0.17871
1355.71347,0.17511
1357.64194,0.17521
1359.57040,0.17589
1361.49887,0.17695
1363.42734,0.17820
1365.35581,0.17934
1367.28428,0.18171
1369.21275,0.18591
1371.14122,0.18881
1373.06969,0.19093
1374.99815,0.19301
1376.92662,0.19205
1378.85509,0.18823
1380.78356,0.18455
1382.71203,0.18036
1384.64050,0.17542
1386.56897,0.17770
1388.49743,0.18562
1390.42590,0.18584
1392.35437,0.18224
1394.28284,0.18483
1396.21131,0.19445
1398.13978,0.20171
1400.06825,0.20069
1401.99672,0.19483
1403.92518,0.18850
1405.85365,0.18664
1407.78212,0.19019
1409.71059,0.19202
1411.63906,0.19040
1413.56753,0.19119
1415.49600,0.19818
1417.42446,0.20753
1419.35293,0.20991
1421.28140,0.20905
1423.20987,0.21068
1425.13834,0.20602
1427.06681,0.19547
1428.99528,0.18615
1430.92375,0.18244
1432.85221,0.18838
1434.78068,0.20259
1436.70915,0.21350
1438.63762,0.20743
1440.56609,0.19845
1442.49456,0.19370
1444.42303,0.19478
1446.35149,0.20434
1448.27996,0.21125
1450.20843,0.20855
1452.13690,0.20780
1454.06537,0.21486
1455.99384,0.22795
1457.92231,0.22792
1459.85077,0.21020
1461.77924,0.20253
1463.70771,0.20449
1465.63618,0.20407
1467.56465,0.19938
1469.49312,0.19910
1471.42159,0.20889
1473.35006,0.22055
1475.27852,0.21839
1477.20699,0.21321
1479.13546,0.21032
1481.06393,0.20714
1482.99240,0.20344
1484.92087,0.20091
1486.84934,0.20075
1488.77780,0.20569
1490.70627,0.20934
1492.63474,0.20529
1494.56321,0.20512
1496.49168,0.21463
1498.42015,0.21855
1500.34862,0.20869
1502.27709,0.20710
1504.20555,0.23273
1506.13402,0.27584
1508.06249,0.25419
1509.99096,0.21547
1511.91943,0.20766
1513.84790,0.21040
1515.77637,0.21549
1517.70483,0.21900
1519.63330,0.22459
1521.56177,0.23253
1523.49024,0.22582
1525.41871,0.21263
1527.34718,0.20463
1529.27565,0.20199
1531.20412,0.20480
1533.13258,0.21239
1535.06105,0.22020
1536.98952,0.23097
1538.91799,0.25458
1540.84646,0.27489
1542.77493,0.25713
1544.70340,0.23227
1546.63186,0.21591
1548.56033,0.20885
1550.48880,0.20764
1552.41727,0.20948
1554.34574,0.21235
1556.27421,0.21758
1558.20268,0.23180
1560.13115,0.22309
1562.05961,0.20217
1563.98808,0.19496
1565.91655,0.19563
1567.84502,0.20083
1569.77349,0.20465
1571.70196,0.19957
1573.63043,0.19672
1575.55889,0.20096
1577.48736,0.19981
1579.41583,0.19305
1581.34430,0.18839
1583.27277,0.18456
1585.20124,0.18376
1587.12971,0.18547
1589.05818,0.18251
1590.98664,0.17679
1592.91511,0.17573
1594.84358,0.17843
1596.77205,0.18505
1598.70052,0.19399
1600.62899,0.19667
1602.55746,0.19451
1604.48592,0.19525
1606.41439,0.19779
1608.34286,0.19860
1610.27133,0.19742
1612.19980,0.19789
1614.12827,0.20470
1616.05674,0.21429
1617.98521,0.21054
1619.91367,0.20130
1621.84214,0.20058
1623.77061,0.20651
1625.69908,0.21012
1627.62755,0.20782
1629.55602,0.20490
1631.48449,0.21018
1633.41295,0.22504
1635.34142,0.23621
1637.26989,0.22145
1639.19836,0.20635
1641.12683,0.20412
1643.05530,0.21098
1644.98377,0.22835
1646.91223,0.24759
1648.84070,0.24502
1650.76917,0.23937
1652.69764,0.24004
1654.62611,0.22671
1656.55458,0.21329
1658.48305,0.20894
1660.41152,0.19555
1662.33998,0.17290
1664.26845,0.18451
1666.19692,0.21671
1668.12539,0.23744
1670.05386,0.24704
1671.98233,0.24472
1673.91080,0.23503
1675.83926,0.22410
1677.76773,0.21692
1679.69620,0.21881
1681.62467,0.23383
1683.55314,0.25297
1685.48161,0.24504
1687.41008,0.22835
1689.33855,0.22024
1691.26701,0.21606
1693.19548,0.21827
1695.12395,0.23543
1697.05242,0.25953
1698.98089,0.25968
1700.90936,0.23378
1702.83783,0.21512
1704.76629,0.21138
1706.69476,0.21474
1708.62323,0.21630
1710.55170,0.21322
1712.48017,0.21265
1714.40864,0.21856
1716.33711,0.22464
1718.26558,0.21989
1720.19404,0.21162
1722.12251,0.20833
1724.05098,0.20775
1725.97945,0.20697
1727.90792,0.20760
1729.83639,0.21260
1731.76486,0.22145
1733.69332,0.22786
1735.62179,0.22374
1737.55026,0.21834
1739.47873,0.21457
1741.40720,0.21229
1743.33567,0.21524
1745.26414,0.22166
1747.19261,0.22889
1749.12107,0.23277
1751.04954,0.22451
1752.97801,0.21174
1754.90648,0.20635
1756.83495,0.20673
1758.76342,0.20926
1760.69189,0.21245
1762.62035,0.20988
1764.54882,0.20123
1766.47729,0.19754
1768.40576,0.20298
1770.33423,0.21405
1772.26270,0.22320
1774.19117,0.21828
1776.11964,0.20775
1778.04810,0.20487
1779.97657,0.20777
1781.90504,0.20662
1783.83351,0.20302
1785.76198,0.20355
1787.69045,0.20557
1789.61892,0.20567
1791.54738,0.20707
1793.47585,0.21204
1795.40432,0.21207
1797.33279,0.20689
1799.26126,0.20235
1801.18973,0.20151
1803.11820,0.20446
1805.04666,0.20797
1806.97513,0.20937
1808.90360,0.20932
1810.83207,0.20937
1812.76054,0.20743
1814.68901,0.20280
1816.61748,0.18906
1818.54595,0.16198
1820.47441,0.14162
1822.40288,0.15109
1824.33135,0.18894
1826.25982,0.21769
1828.18829,0.22089
1830.11676,0.21894
1832.04523,0.21327
1833.97369,0.20780
1835.90216,0.20865
1837.83063,0.20975
1839.75910,0.20728
1841.68757,0.20489
1843.61604,0.20605
1845.54451,0.20877
1847.47298,0.21012
1849.40144,0.20944
1851.32991,0.20654
1853.25838,0.20293
1855.18685,0.20198
1857.11532,0.20280
1859.04379,0.20195
1860.97226,0.20151
1862.90072,0.20171
1864.82919,0.20251
1866.75766,0.20843
1868.68613,0.21867
1870.61460,0.21980
1872.54307,0.21043
1874.47154,0.20130
1876.40001,0.19726
1878.32847,0.19785
1880.25694,0.19959
1882.18541,0.20001
1884.11388,0.20146
1886.04235,0.20564
1887.97082,0.20853
1889.89929,0.20739
1891.82775,0.20680
1893.75622,0.20773
1895.68469,0.20668
1897.61316,0.20564
1899.54163,0.20700
1901.47010,0.20751
1903.39857,0.20526
1905.32704,0.20269
1907.25550,0.20244
1909.18397,0.20359
1911.11244,0.20408
1913.04091,0.20404
1914.96938,0.20233
1916.89785,0.20113
1918.82632,0.20371
1920.75478,0.20655
1922.68325,0.20882
1924.61172,0.20987
1926.54019,0.20731
1928.46866,0.20433
1930.39713,0.20321
1932.32560,0.20062
1934.25407,0.19750
1936.18253,0.19850
1938.11100,0.20114
1940.03947,0.20251
1941.96794,0.20567
1943.89641,0.21029
1945.82488,0.21042
1947.75335,0.20541
1949.68181,0.20165
1951.61028,0.20262
1953.53875,0.20557
1955.46722,0.20733
1957.39569,0.20691
1959.32416,0.20595
1961.25263,0.20525
1963.18110,0.20341
1965.10956,0.20030
1967.03803,0.19847
1968.96650,0.19971
1970.89497,0.20055
1972.82344,0.19887
1974.75191,0.19616
1976.68038,0.19517
1978.60884,0.19897
1980.53731,0.20133
1982.46578,0.19623
1984.39425,0.19319
1986.32272,0.19735
1988.25119,0.20195
1990.17966,0.20364
1992.10812,0.20148
1994.03659,0.19688
1995.96506,0.19526
1997.89353,0.19827
1999.82200,0.20266
2001.75047,0.20530
2003.67894,0.20588
2005.60741,0.20533
2007.53587,0.20402
2009.46434,0.20225
2011.39281,0.20222
2013.32128,0.20297
2015.24975,0.20413
2017.17822,0.20745
2019.10669,0.20801
2021.03515,0.20606
2022.96362,0.20659
2024.89209,0.20823
2026.82056,0.20773
2028.74903,0.20399
2030.67750,0.20164
2032.60597,0.20448
2034.53444,0.20785
2036.46290,0.20762
2038.39137,0.20767
2040.31984,0.20922
2042.24831,0.20762
2044.17678,0.20566
2046.10525,0.20669
2048.03372,0.20645
2049.96218,0.20195
2051.89065,0.19710
2053.81912,0.19918
2055.74759,0.20504
2057.67606,0.20587
2059.60453,0.20362
2061.53300,0.20440
2063.46147,0.20915
2065.38993,0.21305
2067.31840,0.21231
2069.24687,0.20788
2071.17534,0.20174
2073.10381,0.19972
2075.03228,0.20387
2076.96075,0.20734
2078.88921,0.20670
2080.81768,0.20499
2082.74615,0.20333
2084.67462,0.20141
2086.60309,0.20215
2088.53156,0.20522
2090.46003,0.20721
2092.38850,0.20806
2094.31696,0.20919
2096.24543,0.20907
2098.17390,0.20580
2100.10237,0.20223
2102.03084,0.20165
2103.95931,0.20270
2105.88778,0.20344
2107.81624,0.20542
2109.74471,0.20806
2111.67318,0.21009
2113.60165,0.21175
2115.53012,0.21042
2117.45859,0.20830
2119.38706,0.20944
2121.31553,0.21053
2123.24399,0.20903
2125.17246,0.20839
2127.10093,0.20939
2129.02940,0.20876
2130.95787,0.20776
2132.88634,0.20988
2134.81481,0.20357
2136.74327,0.18385
2138.67174,0.18440
2140.60021,0.20808
2142.52868,0.21581
2144.45715,0.20867
2146.38562,0.20339
2148.31409,0.20242
2150.24255,0.20702
2152.17102,0.21044
2154.09949,0.20993
2156.02796,0.20856
2157.95643,0.20570
2159.88490,0.20125
2161.81337,0.19736
2163.74184,0.19574
2165.67030,0.19782
2167.59877,0.20134
2169.52724,0.20158
2171.45571,0.19990
2173.38418,0.19920
2175.31265,0.19922
2177.24112,0.20058
2179.16958,0.20283
2181.09805,0.20320
2183.02652,0.20365
2184.95499,0.20640
2186.88346,0.20767
2188.81193,0.20577
2190.74040,0.20486
2192.66887,0.20685
2194.59733,0.20802
2196.52580,0.20691
2198.45427,0.20467
2200.38274,0.20294
2202.31121,0.20497
2204.23968,0.21076
2206.16815,0.21376
2208.09661,0.20911
2210.02508,0.20167
2211.95355,0.19837
2213.88202,0.20058
2215.81049,0.20353
2217.73896,0.20272
2219.66743,0.20104
2221.59590,0.20195
2223.52436,0.20351
2225.45283,0.20541
2227.38130,0.21104
2229.30977,0.21689
2231.23824,0.21419
2233.16671,0.20463
2235.09518,0.19988
2237.02364,0.20246
2238.95211,0.20456
2240.88058,0.20447
2242.80905,0.20470
2244.73752,0.20518
2246.66599,0.20607
2248.59446,0.20730
2250.52293,0.20677
2252.45139,0.20465
2254.37986,0.20373
2256.30833,0.20387
2258.23680,0.20509
2260.16527,0.20770
2262.09374,0.20910
2264.02221,0.20918
2265.95067,0.20958
2267.87914,0.20848
2269.80761,0.20618
2271.73608,0.20608
2273.66455,0.20798
2275.59302,0.20959
2277.52149,0.20887
2279.44996,0.20573
2281.37842,0.20422
2283.30689,0.20512
2285.23536,0.20530
2287.16383,0.20636
2289.09230,0.20914
2291.02077,0.21132
2292.94924,0.21577
2294.87770,0.22218
2296.80617,0.22386
2298.73464,0.21780
2300.66311,0.20686
2302.59158,0.19938
2304.52005,0.20021
2306.44852,0.20296
2308.37699,0.20188
2310.30545,0.19969
2312.23392,0.19788
2314.16239,0.19634
2316.09086,0.19528
2318.01933,0.19245
2319.94780,0.19110
2321.87627,0.19248
2323.80473,0.18848
2325.73320,0.18131
2327.66167,0.18258
2329.59014,0.19247
2331.51861,0.20378
2333.44708,0.21225
2335.37555,0.21091
2337.30401,0.20433
2339.23248,0.20289
2341.16095,0.19918
2343.08942,0.19260
2345.01789,0.19339
2346.94636,0.19692
2348.87483,0.19876
2350.80330,0.20036
2352.73176,0.20328
2354.66023,0.20463
2356.58870,0.18814
2358.51717,0.16159
2360.44564,0.17079
2362.37411,0.21160
2364.30258,0.22047
2366.23104,0.18702
2368.15951,0.16556
2370.08798,0.16993
2372.01645,0.18186
2373.94492,0.19262
2375.87339,0.19803
2377.80186,0.19978
2379.73033,0.20229
2381.65879,0.20501
2383.58726,0.20528
2385.51573,0.20447
2387.44420,0.20314
2389.37267,0.19998
2391.30114,0.19906
2393.22961,0.20399
2395.15807,0.20969
2397.08654,0.21140
2399.01501,0.21091
2400.94348,0.20857
2402.87195,0.20452
2404.80042,0.20282
2406.72889,0.20492
2408.65736,0.20842
2410.58582,0.21081
2412.51429,0.21111
2414.44276,0.20885
2416.37123,0.20331
2418.29970,0.19849
2420.22817,0.19964
2422.15664,0.20321
2424.08510,0.20429
2426.01357,0.20429
2427.94204,0.20402
2429.87051,0.20255
2431.79898,0.20139
2433.72745,0.20238
2435.65592,0.20449
2437.58439,0.20755
2439.51285,0.21091
2441.44132,0.20932
2443.36979,0.20343
2445.29826,0.20156
2447.22673,0.20437
2449.15520,0.20413
2451.08367,0.19542
2453.01213,0.17970
2454.94060,0.17261
2456.86907,0.18800
2458.79754,0.20866
2460.72601,0.21643
2462.65448,0.21831
2464.58295,0.21843
2466.51142,0.21462
2468.43988,0.20977
2470.36835,0.20744
2472.29682,0.20781
2474.22529,0.20913
2476.15376,0.20997
2478.08223,0.20848
2480.01070,0.20775
2481.93916,0.21027
2483.86763,0.21031
2485.79610,0.20697
2487.72457,0.20589
2489.65304,0.20782
2491.58151,0.21020
2493.50998,0.21086
2495.43844,0.20877
2497.36691,0.20590
2499.29538,0.20403
2501.22385,0.20323
2503.15232,0.20418
2505.08079,0.20572
2507.00926,0.20503
2508.93773,0.20463
2510.86619,0.20721
2512.79466,0.20910
2514.72313,0.20964
2516.65160,0.20911
2518.58007,0.20615
2520.50854,0.20394
2522.43701,0.20257
2524.36547,0.20123
2526.29394,0.20306
2528.22241,0.20802
2530.15088,0.21617
2532.07935,0.22585
2534.00782,0.22816
2535.93629,0.21994
2537.86476,0.21133
2539.79322,0.21047
2541.72169,0.21176
2543.65016,0.20882
2545.57863,0.20687
2547.50710,0.20865
2549.43557,0.20871
2551.36404,0.20879
2553.29250,0.21223
2555.22097,0.21545
2557.14944,0.21657
2559.07791,0.21374
2561.00638,0.20842
2562.93485,0.20821
2564.86332,0.21195
2566.79179,0.21223
2568.72025,0.20912
2570.64872,0.20561
2572.57719,0.20210
2574.50566,0.20263
2576.43413,0.20863
2578.36260,0.21360
2580.29107,0.21575
2582.21953,0.21498
2584.14800,0.20969
2586.07647,0.20641
2588.00494,0.20932
2589.93341,0.21337
2591.86188,0.21500
2593.79035,0.21454
2595.71882,0.21197
2597.64728,0.20657
2599.57575,0.20209
2601.50422,0.20549
2603.43269,0.21441
2605.36116,0.21899
2607.28963,0.21713
2609.21810,0.21746
2611.14656,0.22456
2613.07503,0.22909
2615.00350,0.22249
2616.93197,0.21099
2618.86044,0.20575
2620.78891,0.20766
2622.71738,0.21160
2624.64585,0.21511
2626.57431,0.21624
2628.50278,0.21500
2630.43125,0.21340
2632.35972,0.21225
2634.28819,0.21192
2636.21666,0.21256
2638.14513,0.21358
2640.07359,0.21431
2642.00206,0.21454
2643.93053,0.21485
2645.85900,0.21666
2647.78747,0.21860
2649.71594,0.21671
2651.64441,0.21170
2653.57288,0.20845
2655.50134,0.20813
2657.42981,0.20949
2659.35828,0.21080
2661.28675,0.20973
2663.21522,0.20765
2665.14369,0.20537
2667.07216,0.20436
2669.00062,0.20910
2670.92909,0.21770
2672.85756,0.22393
2674.78603,0.22335
2676.71450,0.21677
2678.64297,0.21232
2680.57144,0.21470
2682.49990,0.21849
2684.42837,0.21858
2686.35684,0.21718
2688.28531,0.21776
2690.21378,0.21917
2692.14225,0.21652
2694.07072,0.20994
2695.99919,0.20729
2697.92765,0.20911
2699.85612,0.20987
2701.78459,0.21187
2703.71306,0.21665
2705.64153,0.22008
2707.57000,0.21852
2709.49847,0.21431
2711.42693,0.21270
2713.35540,0.21184
2715.28387,0.21144
2717.21234,0.21502
2719.14081,0.21772
2721.06928,0.21510
2722.99775,0.21463
2724.92622,0.22015
2726.85468,0.22452
2728.78315,0.22536
2730.71162,0.22454
2732.64009,0.22283
2734.56856,0.22190
2736.49703,0.22211
2738.42550,0.22335
2740.35396,0.22603
2742.28243,0.22899
2744.21090,0.22758
2746.13937,0.22180
2748.06784,0.21868
2749.99631,0.21907
2751.92478,0.22096
2753.85325,0.22529
2755.78171,0.22827
2757.71018,0.22769
2759.63865,0.22587
2761.56712,0.22185
2763.49559,0.21789
2765.42406,0.21807
2767.35253,0.21492
2769.28099,0.20187
2771.20946,0.19679
2773.13793,0.21314
2775.06640,0.22741
2776.99487,0.22630
2778.92334,0.22383
2780.85181,0.22378
2782.78028,0.22471
2784.70874,0.22843
2786.63721,0.23153
2788.56568,0.22960
2790.49415,0.22673
2792.42262,0.22918
2794.35109,0.23288
2796.27956,0.23192
2798.20802,0.22573
2800.13649,0.21821
2802.06496,0.21740
2803.99343,0.22560
2805.92190,0.23227
2807.85037,0.22925
2809.77884,0.22310
2811.70731,0.22170
2813.63577,0.22409
2815.56424,0.22661
2817.49271,0.22866
2819.42118,0.22878
2821.34965,0.22503
2823.27812,0.22150
2825.20659,0.22434
2827.13505,0.23146
2829.06352,0.23439
2830.99199,0.23071
2832.92046,0.22442
2834.84893,0.22005
2836.77740,0.21845
2838.70587,0.21625
2840.63433,0.21483
2842.56280,0.21872
2844.49127,0.22569
2846.41974,0.22950
2848.34821,0.22766
2850.27668,0.22368
2852.20515,0.22370
2854.13362,0.22764
2856.06208,0.22889
2857.99055,0.22779
2859.91902,0.23001
2861.84749,0.23239
2863.77596,0.23155
2865.70443,0.23321
2867.63290,0.23636
2869.56136,0.23392
2871.48983,0.22994
2873.41830,0.22846
2875.34677,0.22458
2877.27524,0.21952
2879.20371,0.21807
2881.13218,0.21938
2883.06065,0.22067
2884.98911,0.21976
2886.91758,0.21737
2888.84605,0.21629
2890.77452,0.21647
2892.70299,0.21624
2894.63146,0.21487
2896.55993,0.21120
2898.48839,0.20945
2900.41686,0.21368
2902.34533,0.21599
2904.27380,0.21555
2906.20227,0.22427
2908.13074,0.23462
2910.05921,0.22945
2911.98768,0.21896
2913.91614,0.21785
2915.84461,0.22097
2917.77308,0.22158
2919.70155,0.22016
2921.63002,0.22053
2923.55849,0.23212
2925.48696,0.24031
2927.41542,0.20722
2929.34389,0.17158
2931.27236,0.19664
2933.20083,0.23456
2935.12930,0.23206
2937.05777,0.22106
2938.98624,0.22677
2940.91471,0.23137
2942.84317,0.22446
2944.77164,0.21685
2946.70011,0.21429
2948.62858,0.21411
2950.55705,0.21340
2952.48552,0.21279
2954.41399,0.21366
2956.34245,0.21487
2958.27092,0.21942
2960.19939,0.22648
2962.12786,0.22672
2964.05633,0.21987
2965.98480,0.21542
2967.91327,0.21557
2969.84174,0.21833
2971.77020,0.22318
2973.69867,0.22855
2975.62714,0.23120
2977.55561,0.22868
2979.48408,0.22746
2981.41255,0.23358
2983.34102,0.23980
2985.26948,0.23714
2987.19795,0.22710
2989.12642,0.22107
2991.05489,0.22573
2992.98336,0.23232
2994.91183,0.23377
2996.84030,0.23263
2998.76877,0.23105
3000.69723,0.23177
3002.62570,0.23545
3004.55417,0.23736
3006.48264,0.23669
3008.41111,0.23663
3010.33958,0.23062
3012.26805,0.20833
3014.19651,0.17624
3016.12498,0.15671
3018.05345,0.16970
3019.98192,0.20600
3021.91039,0.23316
3023.83886,0.23851
3025.76733,0.23413
3027.69579,0.22905
3029.62426,0.22530
3031.55273,0.22743
3033.48120,0.23472
3035.40967,0.23801
3037.33814,0.23519
3039.26661,0.23366
3041.19508,0.23456
3043.12354,0.23111
3045.05201,0.22298
3046.98048,0.21704
3048.90895,0.21812
3050.83742,0.22522
3052.76589,0.23113
3054.69436,0.22825
3056.62282,0.22069
3058.55129,0.22045
3060.47976,0.22560
3062.40823,0.22644
3064.33670,0.22347
3066.26517,0.22198
3068.19364,0.22757
3070.12211,0.23763
3072.05057,0.24039
3073.97904,0.23025
3075.90751,0.21790
3077.83598,0.21925
3079.76445,0.22580
3081.69292,0.22178
3083.62139,0.21075
3085.54985,0.20269
3087.47832,0.20068
3089.40679,0.20167
3091.33526,0.21061
3093.26373,0.21954
3095.19220,0.21583
3097.12067,0.21556
3099.04914,0.22506
3100.97760,0.23034
3102.90607,0.22728
3104.83454,0.22469
3106.76301,0.22647
3108.69148,0.22739
3110.61995,0.22434
3112.54842,0.21984
3114.47688,0.22201
3116.40535,0.22713
3118.33382,0.22648
3120.26229,0.22342
3122.19076,0.22319
3124.11923,0.22768
3126.04770,0.23149
3127.97617,0.22910
3129.90463,0.22475
3131.83310,0.22583
3133.76157,0.23079
3135.69004,0.23169
3137.61851,0.22779
3139.54698,0.22535
3141.47545,0.22660
3143.40391,0.22870
3145.33238,0.22967
3147.26085,0.22804
3149.18932,0.22945
3151.11779,0.23624
3153.04626,0.24059
3154.97473,0.24063
3156.90320,0.23737
3158.83166,0.23429
3160.76013,0.23684
3162.68860,0.24191
3164.61707,0.24733
3166.54554,0.25598
3168.47401,0.26271
3170.40248,0.26244
3172.33094,0.25743
3174.25941,0.24780
3176.18788,0.24049
3178.11635,0.24346
3180.04482,0.24376
3181.97329,0.23335
3183.90176,0.22885
3185.83022,0.23485
3187.75869,0.23946
3189.68716,0.24214
3191.61563,0.24517
3193.54410,0.24687
3195.47257,0.24764
3197.40104,0.24471
3199.32951,0.23761
3201.25797,0.23415
3203.18644,0.23759
3205.11491,0.24089
3207.04338,0.23825
3208.97185,0.23346
3210.90032,0.22911
3212.82879,0.22342
3214.75725,0.21976
3216.68572,0.22080
3218.61419,0.22543
3220.54266,0.23213
3222.47113,0.23999
3224.39960,0.24576
3226.32807,0.24388
3228.25654,0.23746
3230.18500,0.23373
3232.11347,0.23568
3234.04194,0.24009
3235.97041,0.24007
3237.89888,0.23628
3239.82735,0.23050
3241.75582,0.22467
3243.68428,0.23462
3245.61275,0.25799
3247.54122,0.26133
3249.46969,0.24552
3251.39816,0.23825
3253.32663,0.23750
3255.25510,0.23484
3257.18357,0.23400
3259.11203,0.23423
3261.04050,0.23434
3262.96897,0.23429
3264.89744,0.23209
3266.82591,0.22847
3268.75438,0.22582
3270.68285,0.22391
3272.61131,0.22398
3274.53978,0.22790
3276.46825,0.23008
3278.39672,0.22833
3280.32519,0.22785
3282.25366,0.22668
3284.18213,0.22242
3286.11060,0.22063
3288.03906,0.22644
3289.96753,0.23688
3291.89600,0.24148
3293.82447,0.23546
3295.75294,0.23009
3297.68141,0.23265
3299.60988,0.23381
3301.53834,0.23056
3303.46681,0.22755
3305.39528,0.22807
3307.32375,0.23321
3309.25222,0.23320
3311.18069,0.22527
3313.10916,0.22298
3315.03763,0.22823
3316.96609,0.22947
3318.89456,0.22683
3320.82303,0.22964
3322.75150,0.24006
3324.67997,0.25144
3326.60844,0.25568
3328.53691,0.25397
3330.46537,0.25062
3332.39384,0.24484
3334.32231,0.23848
3336.25078,0.23596
3338.17925,0.23658
3340.10772,0.23715
3342.03619,0.23670
3343.96466,0.23604
3345.89312,0.23753
3347.82159,0.24047
3349.75006,0.24044
3351.67853,0.23422
3353.60700,0.22330
3355.53547,0.21452
3357.46394,0.21538
3359.39240,0.22438
3361.32087,0.23130
3363.24934,0.23194
3365.17781,0.23234
3367.10628,0.23584
3369.03475,0.23798
3370.96322,0.23642
3372.89168,0.23197
3374.82015,0.22662
3376.74862,0.22655
3378.67709,0.23264
3380.60556,0.23722
3382.53403,0.23392
3384.46250,0.22816
3386.39097,0.22847
3388.31943,0.23067
3390.24790,0.23082
3392.17637,0.23066
3394.10484,0.23016
3396.03331,0.23154
3397.96178,0.23571
3399.89025,0.24148
3401.81871,0.24102
3403.74718,0.22678
3405.67565,0.21811
3407.60412,0.22985
3409.53259,0.24407
3411.46106,0.24597
3413.38953,0.23651
3415.31800,0.22427
3417.24646,0.22046
3419.17493,0.22671
3421.10340,0.23251
3423.03187,0.22921
3424.96034,0.22291
3426.88881,0.22167
3428.81728,0.22434
3430.74574,0.22421
3432.67421,0.21768
3434.60268,0.20912
3436.53115,0.20691
3438.45962,0.21097
3440.38809,0.21205
3442.31656,0.20982
3444.24503,0.21020
3446.17349,0.21387
3448.10196,0.21763
3450.03043,0.21603
3451.95890,0.21198
3453.88737,0.21479
3455.81584,0.22251
3457.74431,0.22490
3459.67277,0.21941
3461.60124,0.21372
3463.52971,0.21723
3465.45818,0.22453
3467.38665,0.22418
3469.31512,0.21862
3471.24359,0.21540
3473.17206,0.21414
3475.10052,0.21517
3477.02899,0.22302
3478.95746,0.22895
3480.88593,0.22354
3482.81440,0.21202
3484.74287,0.20152
3486.67134,0.20001
3488.59980,0.20830
3490.52827,0.21471
3492.45674,0.21231
3494.38521,0.20552
3496.31368,0.20265
3498.24215,0.20594
3500.17062,0.20993
3502.09909,0.21200
3504.02755,0.21462
3505.95602,0.21290
3507.88449,0.20580
3509.81296,0.20269
3511.74143,0.20389
3513.66990,0.20085
3515.59837,0.19208
3517.52683,0.18873
3519.45530,0.20006
3521.38377,0.21476
3523.31224,0.21908
3525.24071,0.21729
3527.16918,0.21691
3529.09765,0.21383
3531.02611,0.20479
3532.95458,0.19692
3534.88305,0.19361
3536.81152,0.19083
3538.73999,0.18631
3540.66846,0.17955
3542.59693,0.17565
3544.52540,0.18176
3546.45386,0.19151
3548.38233,0.19419
3550.31080,0.19340
3552.23927,0.19434
3554.16774,0.19285
3556.09621,0.18672
3558.02468,0.18154
3559.95314,0.17919
3561.88161,0.17841
3563.81008,0.18211
3565.73855,0.18745
3567.66702,0.18501
3569.59549,0.17737
3571.52396,0.17324
3573.45243,0.17275
3575.38089,0.17049
3577.30936,0.16823
3579.23783,0.16994
3581.16630,0.17102
3583.09477,0.17177
3585.02324,0.17408
3586.95171,0.17300
3588.88017,0.16777
3590.80864,0.16655
3592.73711,0.17091
3594.66558,0.17399
3596.59405,0.16940
3598.52252,0.16500
3600.45099,0.16805
3602.37946,0.17308
3604.30792,0.17465
3606.23639,0.17342
3608.16486,0.16993
3610.09333,0.16560
3612.02180,0.15927
3613.95027,0.15247
3615.87874,0.15707
3617.80720,0.17069
3619.73567,0.17470
3621.66414,0.16555
3623.59261,0.15813
3625.52108,0.16087
3627.44955,0.17049
3629.37802,0.16954
3631.30649,0.16020
3633.23495,0.15785
3635.16342,0.15876
3637.09189,0.15822
3639.02036,0.15808
3640.94883,0.15766
3642.87730,0.15166
3644.80577,0.14801
3646.73423,0.16235
3648.66270,0.18453
3650.59117,0.17621
3652.51964,0.16339
3654.44811,0.16304
3656.37658,0.16091
3658.30505,0.15318
3660.23352,0.15018
3662.16198,0.15119
3664.09045,0.15311
3666.01892,0.15830
3667.94739,0.16680
3669.87586,0.16860
3671.80433,0.16202
3673.73280,0.16897
3675.66126,0.18251
3677.58973,0.17535
3679.51820,0.16336
3681.44667,0.15368
3683.37514,0.14827
3685.30361,0.15309
3687.23208,0.16157
3689.16055,0.16268
3691.08901,0.15834
3693.01748,0.15535
3694.94595,0.15535
3696.87442,0.15607
3698.80289,0.15261
3700.73136,0.14553
3702.65983,0.13711
3704.58829,0.12938
3706.51676,0.12793
3708.44523,0.13482
3710.37370,0.14307
3712.30217,0.14512
3714.23064,0.14690
3716.15911,0.15455
3718.08757,0.16153
3720.01604,0.15642
3721.94451,0.14965
3723.87298,0.15131
3725.80145,0.14430
3727.72992,0.13545
3729.65839,0.13911
3731.58686,0.14690
3733.51532,0.15776
3735.44379,0.17138
3737.37226,0.16989
3739.30073,0.16103
3741.22920,0.15814
3743.15767,0.15952
3745.08614,0.15903
3747.01460,0.16419
3748.94307,0.18250
3750.87154,0.19404
3752.80001,0.17176
3754.72848,0.14715
3756.65695,0.13640
3758.58542,0.13361
3760.51389,0.13620
3762.44235,0.14420
3764.37082,0.15019
3766.29929,0.14732
3768.22776,0.14042
3770.15623,0.13591
3772.08470,0.13196
3774.01317,0.12933
3775.94163,0.12977
3777.87010,0.13167
3779.79857,0.13499
3781.72704,0.13893
3783.65551,0.14205
3785.58398,0.14603
3787.51245,0.14786
3789.44092,0.14261
3791.36938,0.13516
3793.29785,0.13474
3795.22632,0.14461
3797.15479,0.15790
3799.08326,0.16412
3801.01173,0.16455
3802.94020,0.15536
3804.86866,0.14179
3806.79713,0.13797
3808.72560,0.14405
3810.65407,0.14765
3812.58254,0.14626
3814.51101,0.14262
3816.43948,0.14140
3818.36795,0.14664
3820.29641,0.15630
3822.22488,0.15897
3824.15335,0.15244
3826.08182,0.14494
3828.01029,0.13895
3829.93876,0.14052
3831.86723,0.14704
3833.79569,0.14796
3835.72416,0.14495
3837.65263,0.14587
3839.58110,0.15251
3841.50957,0.15852
3843.43804,0.15355
3845.36651,0.13861
3847.29498,0.12886
3849.22344,0.13024
3851.15191,0.13923
3853.08038,0.14949
3855.00885,0.14156
3856.93732,0.13369
3858.86579,0.13922
3860.79426,0.14914
3862.72272,0.15695
3864.65119,0.16012
3866.57966,0.15530
3868.50813,0.14547
3870.43660,0.13584
3872.36507,0.13285
3874.29354,0.13466
3876.22200,0.13896
3878.15047,0.14802
3880.07894,0.15362
3882.00741,0.14317
3883.93588,0.13135
3885.86435,0.12603
3887.79282,0.12343
3889.72129,0.12345
3891.64975,0.12281
3893.57822,0.12269
3895.50669,0.12563
3897.43516,0.12838
3899.36363,0.12939
3901.29210,0.12947
3903.22057,0.13323
3905.14903,0.13933
3907.07750,0.14146
3909.00597,0.14051
3910.93444,0.13642
3912.86291,0.13065
3914.79138,0.12510
3916.71985,0.11980
3918.64832,0.12017
3920.57678,0.12326
3922.50525,0.12177
3924.43372,0.12179
3926.36219,0.12571
3928.29066,0.12929
3930.21913,0.13406
3932.14760,0.13342
3934.07606,0.12343
3936.00453,0.11751
3937.93300,0.12289
3939.86147,0.13432
3941.78994,0.13993
3943.71841,0.13463
3945.64688,0.12761
3947.57535,0.12721
3949.50381,0.13473
3951.43228,0.13722
3953.36075,0.12797
3955.28922,0.12454
3957.21769,0.13047
3959.14616,0.12990
3961.07463,0.12447
3963.00309,0.12235
3964.93156,0.12435
3966.86003,0.12729
3968.78850,0.12399
3970.71697,0.11958
3972.64544,0.12033
3974.57391,0.12134
3976.50238,0.12229
3978.43084,0.12267
3980.35931,0.12017
3982.28778,0.11542
3984.21625,0.11221
3986.14472,0.11522
3988.07319,0.12060
3990.00166,0.12408
3991.93012,0.12752
3993.85859,0.12988
3995.78706,0.12664
3997.71553,0.11987
3999.64400,0.11759
4001.57247,0.11687
4003.50094,0.11307
4005.42941,0.11339
4007.35787,0.11428
4009.28634,0.10544
4011.21481,0.09690
4013.14328,0.10087
4015.07175,0.11044
4017.00022,0.11522
4018.92869,0.11340
4020.85715,0.10768
4022.78562,0.10561
4024.71409,0.11365
4026.64256,0.12361
4028.57103,0.12119
4030.49950,0.11228
4032.42797,0.11184
4034.35644,0.11029
4036.28490,0.09725
4038.21337,0.08911
4040.14184,0.09580
4042.07031,0.10460
4043.99878,0.10408
4045.92725,0.10259
4047.85572,0.11155
4049.78418,0.11842
4051.71265,0.11113
4053.64112,0.10192
4055.56959,0.10101
4057.49806,0.10405
4059.42653,0.10513
4061.35500,0.10327
4063.28346,0.10197
4065.21193,0.09867
4067.14040,0.09604
4069.06887,0.10229
4070.99734,0.10844
4072.92581,0.10809
4074.85428,0.10709
4076.78275,0.10551
4078.71121,0.10237
4080.63968,0.09897
4082.56815,0.09293
4084.49662,0.08560
4086.42509,0.08450
4088.35356,0.08951
4090.28203,0.09366
4092.21049,0.09640
4094.13896,0.09905
4096.06743,0.09804
4097.99590,0.09541
4099.92437,0.09670
4101.85284,0.09999
4103.78131,0.10028
4105.70978,0.09697
4107.63824,0.09379
4109.56671,0.09262
4111.49518,0.09513
4113.42365,0.09972
4115.35212,0.09854
4117.28059,0.09216
4119.20906,0.09254
4121.13752,0.10393
4123.06599,0.11427
4124.99446,0.11440
4126.92293,0.10874
4128.85140,0.10551
4130.77987,0.10635
4132.70834,0.10678
4134.63681,0.10234
4136.56527,0.09236
4138.49374,0.08246
4140.42221,0.07764
4142.35068,0.08007
4144.27915,0.08691
4146.20762,0.09228
4148.13609,0.09602
4150.06455,0.09770
4151.99302,0.09661
4153.92149,0.09475
4155.84996,0.09359
4157.77843,0.09344
4159.70690,0.09037
4161.63537,0.08304
4163.56384,0.08135
4165.49230,0.08731
4167.42077,0.08925
4169.34924,0.08901
4171.27771,0.09032
4173.20618,0.08814
4175.13465,0.08695
4177.06312,0.08685
4178.99158,0.08466
4180.92005,0.08413
4182.84852,0.08508
4184.77699,0.08585
4186.70546,0.08570
4188.63393,0.08301
4190.56240,0.08473
4192.49087,0.10660
4194.41933,0.13778
4196.34780,0.14857
4198.27627,0.13399
4200.20474,0.10089
4202.13321,0.06827
4204.06168,0.06073
4205.99015,0.06865
4207.91861,0.07450
4209.84708,0.07814
4211.77555,0.08061
4213.70402,0.07959
4215.63249,0.07362
4217.56096,0.07253
4219.48943,0.08131
4221.41789,0.08978
4223.34636,0.09401
4225.27483,0.09320
4227.20330,0.08321
4229.13177,0.06972
4231.06024,0.06316
4232.98871,0.06256
4234.91718,0.06697
4236.84564,0.08015
4238.77411,0.08935
4240.70258,0.08338
4242.63105,0.07410
4244.55952,0.07145
4246.48799,0.07190
4248.41646,0.07242
4250.34492,0.07182
4252.27339,0.06845
4254.20186,0.06700
4256.13033,0.06958
4258.05880,0.07146
4259.98727,0.07231
4261.91574,0.07046
4263.84421,0.06773
4265.77267,0.07208
4267.70114,0.07863
4269.62961,0.07860
4271.55808,0.07240
4273.48655,0.06854
4275.41502,0.07746
4277.34349,0.08897
4279.27195,0.08636
4281.20042,0.07494
4283.12889,0.06472
4285.05736,0.05730
4286.98583,0.05886
4288.91430,0.07048
4290.84277,0.08107
4292.77124,0.09040
4294.69970,0.10035
4296.62817,0.09562
4298.55664,0.07420
4300.48511,0.06220
4302.41358,0.06857
4304.34205,0.07317
4306.27052,0.06609
4308.19898,0.05854
4310.12745,0.05858
4312.05592,0.05574
4313.98439,0.04704
4315.91286,0.04565
4317.84133,0.05305
4319.76980,0.06332
4321.69827,0.07477
4323.62673,0.08064
4325.55520,0.07437
4327.48367,0.06679
4329.41214,0.06678
4331.34061,0.05814
4333.26908,0.03503
4335.19755,0.02627
4337.12601,0.04731
4339.05448,0.07390
4340.98295,0.08417
4342.91142,0.07888
4344.83989,0.06859
4346.76836,0.06111
4348.69683,0.05012
4350.62530,0.02913
4352.55376,0.01306
4354.48223,0.01470
4356.41070,0.02499
4358.33917,0.03579
4360.26764,0.04528
4362.19611,0.05340
4364.12458,0.05568
4366.05304,0.04629
4367.98151,0.04106
4369.90998,0.05286
4371.83845,0.06494
4373.76692,0.06138
4375.69539,0.04775
4377.62386,0.03804
4379.55232,0.03609
4381.48079,0.03934
4383.40926,0.04817
4385.33773,0.05192
4387.26620,0.04388
4389.19467,0.03859
4391.12314,0.04556
4393.05161,0.05799
4394.98007,0.06277
4396.90854,0.05599
4398.83701,0.04797
4400.76548,0.04477
4402.69395,0.04473
4404.62242,0.04827
4406.55089,0.05195
4408.47935,0.04899
4410.40782,0.04121
4412.33629,0.03454
4414.26476,0.03135
4416.19323,0.03069
4418.12170,0.03128
4420.05017,0.03348
4421.97864,0.03771
4423.90710,0.04005
4425.83557,0.03860
4427.76404,0.04047
4429.69251,0.04442
4431.62098,0.04427
4433.54945,0.04178
4435.47792,0.03729
4437.40638,0.03144
4439.33485,0.02940
4441.26332,0.03141
4443.19179,0.02982
4445.12026,0.02860
4447.04873,0.03652
4448.97720,0.04286
4450.90567,0.03626
4452.83413,0.02869
4454.76260,0.03170
4456.69107,0.02992
4458.61954,0.01836
4460.54801,0.01652
4462.47648,0.02475
4464.40495,0.02817
4466.33341,0.02837
4468.26188,0.03377
4470.19035,0.03836
4472.11882,0.03446
4474.04729,0.02747
4475.97576,0.02472
4477.90423,0.02927
4479.83270,0.03705
4481.76116,0.03909
4483.68963,0.03475
4485.61810,0.03052
4487.54657,0.02567
4489.47504,0.01538
4491.40351,0.00135
4493.33198,-0.00498
4495.26044,0.00490
4497.18891,0.01808
4499.11738,0.02059
4501.04585,0.02019
4502.97432,0.02408
4504.90279,0.02430
4506.83126,0.01828
4508.75973,0.01402
4510.68819,0.00986
4512.61666,-0.00221
4514.54513,-0.01488
4516.47360,-0.01037
4518.40207,0.00950
4520.33054,0.02831
4522.25901,0.03630
4524.18747,0.02759
4526.11594,0.01157
4528.04441,0.00527
4529.97288,0.00667
4531.90135,0.00589
4533.82982,0.00585
4535.75829,0.01399
4537.68676,0.02368
4539.61522,0.02058
4541.54369,0.00758
4543.47216,0.00386
4545.40063,0.01306
4547.32910,0.02362
4549.25757,0.02546
4551.18604,0.01690
4553.11450,0.01725
4555.04297,0.03395
4556.97144,0.04652
4558.89991,0.04674
4560.82838,0.03742
4562.75685,0.02198
4564.68532,0.01045
4566.61378,0.00614
4568.54225,0.00879
4570.47072,0.01854
4572.39919,0.02692
4574.32766,0.02677
4576.25613,0.02214
4578.18460,0.01980
4580.11307,0.01956
4582.04153,0.01808
4583.97000,0.01716
4585.89847,0.02368
4587.82694,0.03159
4589.75541,0.02670
4591.68388,0.01395
4593.61235,0.00519
4595.54081,0.01008
4597.46928,0.02251
4599.39775,0.02174
4601.32622,0.01586
4603.25469,0.01512
4605.18316,0.01313
4607.11163,0.01629
4609.04010,0.02512
4610.96856,0.02858
4612.89703,0.02520
4614.82550,0.01762
4616.75397,0.00690
4618.68244,0.00173
4620.61091,0.00915
4622.53938,0.01968
4624.46784,0.02415
4626.39631,0.02531
4628.32478,0.02523
4630.25325,0.02597
4632.18172,0.02426
4634.11019,0.01501
4636.03866,0.01430
4637.96713,0.02562
4639.89559,0.03161
4641.82406,0.03041
4643.75253,0.02389
4645.68100,0.01789
4647.60947,0.02107
4649.53794,0.02771
4651.46641,0.03405
4653.39487,0.03733
4655.32334,0.03104
4657.25181,0.01835
4659.18028,0.01286
4661.10875,0.01874
4663.03722,0.01623
4664.96569,0.00017
4666.89416,-0.00645
4668.82262,0.00370
4670.75109,0.02038
4672.67956,0.02242
4674.60803,-0.00191
4676.53650,-0.01502
4678.46497,0.00435
4680.39344,0.01854
4682.32190,0.01424
4684.25037,0.00617
4686.17884,-0.00310
4688.10731,-0.00647
4690.03578,-0.00098
4691.96425,0.00483
4693.89272,0.01009
4695.82119,0.02013
4697.74965,0.02791
4699.67812,0.02358
4701.60659,0.01855
4703.53506,0.02385
4705.46353,0.02966
4707.39200,0.02784
4709.32047,0.02939
4711.24893,0.03945
4713.17740,0.03520
4715.10587,0.00895
4717.03434,-0.00278
4718.96281,0.01481
4720.89128,0.02661
4722.81975,0.02119
4724.74821,0.01693
4726.67668,0.01407
4728.60515,0.01138
4730.53362,0.01698
4732.46209,0.02592
4734.39056,0.02762
4736.31903,0.03178
4738.24750,0.04011
4740.17596,0.03307
4742.10443,0.01872
4744.03290,0.01923
4745.96137,0.02727
4747.88984,0.03009
4749.81831,0.02686
4751.74678,0.01420
4753.67524,-0.00127
4755.60371,-0.00394
4757.53218,0.00514
4759.46065,0.01236
4761.38912,0.00770
4763.31759,-0.00078
4765.24606,0.00467
4767.17453,0.01630
4769.10299,0.01695
4771.03146,0.01561
4772.95993,0.02017
4774.88840,0.01945
4776.81687,0.01043
4778.74534,0.00803
4780.67381,0.01537
4782.60227,0.00888
4784.53074,-0.00819
4786.45921,-0.00636
4788.38768,0.00626
4790.31615,0.00979
4792.24462,0.00897
4794.17309,0.00535
4796.10156,0.00174
4798.03002,0.00784
4799.95849,0.01804
4801.88696,0.02406
4803.81543,0.02153
4805.74390,0.01222
4807.67237,0.00275
4809.60084,-0.01287
4811.52930,-0.02512
4813.45777,-0.01433
4815.38624,0.00595
4817.31471,0.00726
4819.24318,-0.00199
4821.17165,0.00686
4823.10012,0.02689
4825.02859,0.04275
4826.95705,0.05710
4828.88552,0.06477
4830.81399,0.05765
4832.74246,0.03243
4834.67093,0.00296
4836.59940,-0.00775
4838.52787,-0.00576
4840.45633,-0.00528
4842.38480,-0.00349
4844.31327,0.00168
4846.24174,0.01085
4848.17021,0.02012
4850.09868,0.02153
4852.02715,0.01847
4853.95562,0.01685
4855.88408,0.01110
4857.81255,0.00514
4859.74102,0.00970
4861.66949,0.00919
4863.59796,-0.00206
4865.52643,-0.00814
4867.45490,-0.00586
4869.38336,0.00911
4871.31183,0.02462
4873.24030,0.01878
4875.16877,0.00039
4877.09724,-0.01239
4879.02571,-0.01228
4880.95418,-0.00510
4882.88265,-0.00078
4884.81111,0.00348
4886.73958,0.01355
4888.66805,0.02819
4890.59652,0.03075
4892.52499,0.01252
4894.45346,0.00225
4896.38193,0.00905
4898.31039,0.00786
4900.23886,0.00845
4902.16733,0.02418
4904.09580,0.02572
4906.02427,0.01057
4907.95274,0.00779
4909.88121,0.00867
4911.80967,-0.00512
4913.73814,-0.01797
4915.66661,-0.01003
4917.59508,0.00693
4919.52355,0.00859
4921.45202,-0.00059
4923.38049,0.00665
4925.30896,0.02358
4927.23742,0.01249
4929.16589,-0.01277
4931.09436,-0.01554
4933.02283,-0.00058
4934.95130,0.01483
4936.87977,0.01549
4938.80824,0.00372
4940.73670,0.00543
4942.66517,0.01783
4944.59364,0.01832
4946.52211,0.00697
4948.45058,-0.00536
4950.37905,-0.00570
4952.30752,0.01041
4954.23599,0.02360
4956.16445,0.02015
4958.09292,0.00893
4960.02139,0.00098
4961.94986,0.00147
4963.87833,0.01052
4965.80680,0.01510
4967.73527,0.01017
4969.66373,0.00839
4971.59220,0.01180
4973.52067,0.02287
4975.44914,0.03699
4977.37761,0.03348
4979.30608,0.01899
4981.23455,0.01548
4983.16302,0.01604
4985.09148,0.01180
4987.01995,0.01806
4988.94842,0.03505
4990.87689,0.04077
4992.80536,0.02463
4994.73383,0.00148
4996.66230,-0.00082
4998.59076,0.02102
5000.51923,0.04392
5002.44770,0.04882
5004.37617,0.03681
5006.30464,0.02289
5008.23311,0.01688
5010.16158,0.02705
5012.09005,0.04470
5014.01851,0.04142
5015.94698,0.01945
5017.87545,0.00889
5019.80392,0.01336
5021.73239,0.01359
5023.66086,0.00036
5025.58933,-0.00794
5027.51779,0.00725
5029.44626,0.02358
5031.37473,0.02573
5033.30320,0.02544
5035.23167,0.02252
5037.16014,0.01787
5039.08861,0.01456
5041.01708,0.01057
5042.94554,0.02223
5044.87401,0.05430
5046.80248,0.06784
5048.73095,0.04780
5050.65942,0.03380
5052.58789,0.03838
5054.51636,0.03931
5056.44482,0.03393
5058.37329,0.02270
5060.30176,0.00787
5062.23023,0.00462
5064.15870,0.01244
5066.08717,0.02510
5068.01564,0.02958
5069.94410,0.00987
5071.87257,-0.00727
5073.80104,0.01240
5075.72951,0.05643
5077.65798,0.08913
5079.58645,0.08816
5081.51492,0.06063
5083.44339,0.03764
5085.37185,0.03840
5087.30032,0.03448
5089.22879,0.00588
5091.15726,-0.00196
5093.08573,0.01589
5095.01420,0.00852
5096.94267,-0.00687
5098.87113,0.00949
5100.79960,0.03946
5102.72807,0.05579
5104.65654,0.04423
5106.58501,0.01396
5108.51348,-0.00530
5110.44195,-0.00385
5112.37042,0.01427
5114.29888,0.03335
5116.22735,0.03432
5118.15582,0.02789
5120.08429,0.02961
5122.01276,0.03568
5123.94123,0.04419
5125.86970,0.05032
5127.79816,0.04169
5129.72663,0.02405
5131.65510,0.01675
5133.58357,0.02285
5135.51204,0.02723
5137.44051,0.02190
5139.36898,0.00318
5141.29745,-0.02759
5143.22591,-0.04601
5145.15438,-0.03916
5147.08285,-0.01932
5149.01132,0.01142
5150.93979,0.04426
5152.86826,0.05278
5154.79673,0.04282
5156.72519,0.04108
5158.65366,0.04671
5160.58213,0.04047
5162.51060,0.02706
5164.43907,0.03992
5166.36754,0.05785
5168.29601,0.03903
5170.22448,0.02474
5172.15294,0.04508
5174.08141,0.05799
5176.00988,0.05106
5177.93835,0.05092
5179.86682,0.06507
5181.79529,0.07532
5183.72376,0.07029
5185.65222,0.07609
5187.58069,0.10461
5189.50916,0.12245
5191.43763,0.12008
5193.36610,0.10137
5195.29457,0.07075
5197.22304,0.05180
5199.15151,0.05124
5201.07997,0.04747
5203.00844,0.02507
5204.93691,0.00670
5206.86538,0.02685
5208.79385,0.06064
5210.72232,0.06712
5212.65079,0.05631
5214.57925,0.05549
5216.50772,0.05925
5218.43619,0.04889
5220.36466,0.04709
5222.29313,0.05910
5224.22160,0.05205
5226.15007,0.04565
5228.07854,0.06730
5230.00700,0.08407
5231.93547,0.08269
5233.86394,0.07056
5235.79241,0.04796
5237.72088,0.02954
5239.64935,0.03978
5241.57782,0.06884
5243.50628,0.07722
5245.43475,0.06865
5247.36322,0.07682
5249.29169,0.09024
5251.22016,0.08641
5253.14863,0.07723
5255.07710,0.08065
5257.00556,0.09043
5258.93403,0.07786
5260.86250,0.03982
5262.79097,0.01280
5264.71944,0.02517
5266.64791,0.06106
5268.57638,0.08535
5270.50485,0.08731
5272.43331,0.07593
5274.36178,0.06378
5276.29025,0.06143
5278.21872,0.06034
5280.14719,0.04734
5282.07566,0.03830
5284.00413,0.05763
5285.93259,0.08446
5287.86106,0.08734
5289.78953,0.07836
5291.71800,0.07013
5293.64647,0.05984
5295.57494,0.04820
5297.50341,0.04187
5299.43188,0.03915
5301.36034,0.02392
5303.28881,0.00650
5305.21728,0.02077
5307.14575,0.06276
5309.07422,0.09252
5311.00269,0.09134
5312.93116,0.07391
5314.85962,0.05753
5316.78809,0.05337
5318.71656,0.06525
5320.64503,0.08176
5322.57350,0.09026
5324.50197,0.08358
5326.43044,0.07019
5328.35891,0.06828
5330.28737,0.06708
5332.21584,0.05551
5334.14431,0.03920
5336.07278,0.03457
5338.00125,0.04786
5339.92972,0.05306
5341.85819,0.04746
5343.78665,0.04496
5345.71512,0.06365
5347.64359,0.10669
5349.57206,0.12685
5351.50053,0.10285
5353.42900,0.06684
5355.35747,0.03673
5357.28594,0.01363
5359.21440,0.02111
5361.14287,0.04961
5363.07134,0.05655
5364.99981,0.05182
5366.92828,0.07105
5368.85675,0.09996
5370.78522,0.09838
5372.71368,0.07477
5374.64215,0.06686
5376.57062,0.06169
5378.49909,0.05384
5380.42756,0.06129
5382.35603,0.06038
5384.28450,0.05120
5386.21297,0.06495
5388.14143,0.07721
5390.06990,0.06920
5391.99837,0.06744
5393.92684,0.07402
5395.85531,0.08328
5397.78378,0.10555
5399.71225,0.13046
5401.64071,0.15564
5403.56918,0.16998
5405.49765,0.14344
5407.42612,0.10292
5409.35459,0.08493
5411.28306,0.07259
5413.21153,0.04885
5415.13999,0.02879
5417.06846,0.03621
5418.99693,0.06048
5420.92540,0.07165
5422.85387,0.06728
5424.78234,0.06023
5426.71081,0.05397
5428.63928,0.05363
5430.56774,0.05607
5432.49621,0.04388
5434.42468,0.02874
5436.35315,0.03919
5438.28162,0.06356
5440.21009,0.06618
5442.13856,0.04406
5444.06702,0.03149
5445.99549,0.02826
5447.92396,0.03369
5449.85243,0.05729
5451.78090,0.07523
5453.70937,0.08090
5455.63784,0.07074
5457.56631,0.02361
5459.49477,-0.03462
5461.42324,-0.03941
5463.35171,-0.00049
5465.28018,0.01945
5467.20865,0.01783
5469.13712,0.00648
5471.06559,-0.00514
5472.99405,0.01307
5474.92252,0.04259
5476.85099,0.05583
5478.77946,0.08786
5480.70793,0.11901
5482.63640,0.10201
5484.56487,0.06328
5486.49334,0.03731
5488.42180,0.02485
5490.35027,0.02524
5492.27874,0.05443
5494.20721,0.09774
5496.13568,0.10829
5498.06415,0.09974
5499.99262,0.10904
5501.92108,0.11983
5503.84955,0.09420
5505.77802,0.05654
5507.70649,0.06626
5509.63496,0.10700
5511.56343,0.11224
5513.49190,0.07396
5515.42037,0.03588
5517.34883,0.02915
5519.27730,0.04216
5521.20577,0.03760
5523.13424,0.02799
5525.06271,0.05010
5526.99118,0.08425
5528.91965,0.10632
5530.84811,0.12105
5532.77658,0.14027
5534.70505,0.15267
5536.63352,0.13165
5538.56199,0.09055
5540.49046,0.05889
5542.41893,0.05252
5544.34740,0.07537
5546.27586,0.08533
5548.20433,0.05763
5550.13280,0.05633
5552.06127,0.10106
5553.98974,0.11953
5555.91821,0.09342
5557.84668,0.07448
5559.77514,0.07328
5561.70361,0.07463
5563.63208,0.07985
5565.56055,0.08932
5567.48902,0.11660
5569.41749,0.15262
5571.34596,0.16204
5573.27443,0.14726
5575.20289,0.13820
5577.13136,0.12402
5579.05983,0.07637
5580.98830,0.04800
5582.91677,0.08120
5584.84524,0.10394
5586.77371,0.08624
5588.70217,0.07151
5590.63064,0.07625
5592.55911,0.07335
5594.48758,0.04942
5596.41605,0.04096
5598.34452,0.07399
5600.27299,0.11233
5602.20145,0.11077
5604.12992,0.08278
5606.05839,0.07635
5607.98686,0.09892
5609.91533,0.12972
5611.84380,0.15688
5613.77227,0.17774
5615.70074,0.20580
5617.62920,0.22413
5619.55767,0.19198
5621.48614,0.10110
5623.41461,-0.00066
5625.34308,-0.03177
5627.27155,0.02033
5629.20002,0.09004
5631.12848,0.13397
5633.05695,0.16441
5634.98542,0.19292
5636.91389,0.18878
5638.84236,0.14661
5640.77083,0.10197
5642.69930,0.08452
5644.62777,0.09514
5646.55623,0.10649
5648.48470,0.10591
5650.41317,0.10351
5652.34164,0.11412
5654.27011,0.12243
5656.19858,0.10272
5658.12705,0.07021
5660.05551,0.05090
5661.98398,0.06244
5663.91245,0.08043
5665.84092,0.06273
5667.76939,0.03871
5669.69786,0.07337
5671.62633,0.14841
5673.55480,0.16555
5675.48326,0.11417
5677.41173,0.08736
5679.34020,0.11594
5681.26867,0.14512
5683.19714,0.14767
5685.12561,0.13613
5687.05408,0.12221
5688.98254,0.11750
5690.91101,0.11412
5692.83948,0.10055
5694.76795,0.08209
5696.69642,0.05500
5698.62489,0.03301
5700.55336,0.04922
5702.48183,0.07998
5704.41029,0.07549
5706.33876,0.06431
5708.26723,0.08320
5710.19570,0.10432
5712.12417,0.10871
5714.05264,0.10799
5715.98111,0.11335
5717.90957,0.11078
5719.83804,0.10193
5721.76651,0.11663
5723.69498,0.13956
5725.62345,0.15274
5727.55192,0.15747
5729.48039,0.14247
5731.40886,0.11007
5733.33732,0.06864
5735.26579,0.03602
5737.19426,0.02853
5739.12273,0.04255
5741.05120,0.08311
5742.97967,0.12284
5744.90814,0.11840
5746.83660,0.08906
5748.76507,0.06065
5750.69354,0.04417
5752.62201,0.06924
5754.55048,0.09804
5756.47895,0.09276
5758.40742,0.09232
5760.33588,0.10930
5762.26435,0.10917
5764.19282,0.10195
5766.12129,0.12580
5768.04976,0.14460
5769.97823,0.14171
5771.90670,0.13251
5773.83517,0.11313
5775.76363,0.10289
5777.69210,0.10508
5779.62057,0.12641
5781.54904,0.14924
5783.47751,0.13631
5785.40598,0.12104
5787.33445,0.10154
5789.26291,0.03991
5791.19138,0.00699
5793.11985,0.05686
5795.04832,0.11094
5796.97679,0.11193
5798.90526,0.08869
5800.83373,0.08705
5802.76220,0.13051
5804.69066,0.17085
5806.61913,0.14455
5808.54760,0.08068
5810.47607,0.04042
5812.40454,0.04731
5814.33301,0.08875
5816.26148,0.13446
5818.18994,0.18487
5820.11841,0.22685
5822.04688,0.19422
5823.97535,0.11549
5825.90382,0.08840
5827.83229,0.10138
5829.76076,0.09921
5831.68923,0.09098
5833.61769,0.06996
5835.54616,0.05882
5837.47463,0.11610
5839.40310,0.15565
5841.33157,0.09637
5843.26004,0.03845
5845.18851,0.06182
5847.11697,0.11911
5849.04544,0.14259
5850.97391,0.12860
5852.90238,0.11179
5854.83085,0.09075
5856.75932,0.06593
5858.68779,0.06111
5860.61626,0.07695
5862.54472,0.07317
5864.47319,0.03990
5866.40166,0.04549
5868.33013,0.09799
5870.25860,0.10883
5872.18707,0.09246
5874.11554,0.11183
5876.04400,0.11912
5877.97247,0.09885
5879.90094,0.10610
5881.82941,0.12294
5883.75788,0.12577
5885.68635,0.13402
5887.61482,0.14097
5889.54329,0.12241
5891.47175,0.09664
5893.40022,0.08954
5895.32869,0.10355
5897.25716,0.11183
5899.18563,0.07697
5901.11410,0.03820
5903.04257,0.04466
5904.97103,0.06198
5906.89950,0.06700
5908.82797,0.06065
5910.75644,0.03191
5912.68491,0.00589
5914.61338,0.00270
5916.54185,0.00918
5918.47032,0.05986
5920.39878,0.17281
5922.32725,0.24929
5924.25572,0.21519
5926.18419,0.15245
5928.11266,0.15052
5930.04113,0.17404
5931.96960,0.17498
5933.89806,0.15196
5935.82653,0.12236
5937.75500,0.08921
5939.68347,0.03507
5941.61194,-0.01769
5943.54041,-0.02768
5945.46888,0.00097
5947.39734,0.04273
5949.32581,0.09106
5951.25428,0.14220
5953.18275,0.15508
5955.11122,0.12446
5957.03969,0.10731
5958.96816,0.09396
5960.89663,0.05662
5962.82509,0.06840
5964.75356,0.13922
5966.68203,0.14714
5968.61050,0.07312
5970.53897,0.05509
5972.46744,0.10906
5974.39591,0.12814
5976.32437,0.11407
5978.25284,0.11574
5980.18131,0.09479
5982.10978,0.04647
5984.03825,0.04531
5985.96672,0.09008
5987.89519,0.11478
5989.82366,0.12068
5991.75212,0.13062
5993.68059,0.13936
5995.60906,0.16042
5997.53753,0.18875
5999.46600,0.17290
6001.39447,0.11745
6003.32294,0.08772
6005.25140,0.09559
6007.17987,0.10761
6009.10834,0.13512
6011.03681,0.17912
6012.96528,0.21549
6014.89375,0.21546
6016.82222,0.15592
6018.75069,0.09693
6020.67915,0.09283
6022.60762,0.09913
6024.53609,0.08017
6026.46456,0.03911
6028.39303,0.03043
6030.32150,0.07404
6032.24997,0.07826
6034.17843,0.00992
6036.10690,-0.04844
6038.03537,-0.00568
6039.96384,0.10526
6041.89231,0.14456
6043.82078,0.09648
6045.74925,0.07430
6047.67772,0.08857
6049.60618,0.12103
6051.53465,0.18418
6053.46312,0.21890
6055.39159,0.20028
6057.32006,0.19321
6059.24853,0.18524
6061.17700,0.13375
6063.10546,0.10192
6065.03393,0.09418
6066.96240,0.03962
6068.89087,-0.01334
6070.81934,0.02761
6072.74781,0.13584
6074.67628,0.20658
6076.60475,0.20481
6078.53321,0.18121
6080.46168,0.19594
6082.39015,0.24579
6084.31862,0.24664
6086.24709,0.17616
6088.17556,0.10170
6090.10403,0.06435
6092.03249,0.03990
6093.96096,-0.00767
6095.88943,-0.05110
6097.81790,-0.08530
6099.74637,-0.10816
6101.67484,-0.03729
6103.60331,0.07346
6105.53177,0.08833
6107.46024,0.08425
6109.38871,0.15868
6111.31718,0.21734
6113.24565,0.19389
6115.17412,0.11086
6117.10259,0.03994
6119.03106,0.03606
6120.95952,0.03666
6122.88799,0.02768
6124.81646,0.06927
6126.74493,0.11373
6128.67340,0.07298
6130.60187,0.01620
6132.53034,0.03387
6134.45880,0.06783
6136.38727,0.06549
6138.31574,0.06308
6140.24421,0.09651
6142.17268,0.15451
6144.10115,0.18149
6146.02962,0.14156
6147.95809,0.07430
6149.88655,0.03795
6151.81502,0.06599
6153.74349,0.12621
6155.67196,0.16753
6157.60043,0.20463
6159.52890,0.21009
6161.45737,0.13147
6163.38583,0.05691
6165.31430,0.05742
6167.24277,0.05710
6169.17124,0.01625
6171.09971,-0.01270
6173.02818,0.03033
6174.95665,0.08830
6176.88512,0.07054
6178.81358,0.04193
6180.74205,0.07700
6182.67052,0.11539
6184.59899,0.09327
6186.52746,0.02183
6188.45593,-0.01695
6190.38440,0.01962
6192.31286,0.05894
6194.24133,0.07235
6196.16980,0.09727
6198.09827,0.10619
6200.02674,0.04571
6201.95521,-0.04197
6203.88368,-0.07766
6205.81215,-0.04989
6207.74061,0.00377
6209.66908,0.09245
6211.59755,0.17628
6213.52602,0.13753
6215.45449,0.01754
6217.38296,-0.00947
6219.31143,0.05734
6221.23989,0.07834
6223.16836,0.06124
6225.09683,0.03603
6227.02530,-0.01817
6228.95377,-0.01866
6230.88224,0.02082
6232.81071,0.03306
6234.73918,0.06779
6236.66764,0.12969
6238.59611,0.18913
6240.52458,0.20539
6242.45305,0.16355
6244.38152,0.15603
6246.30999,0.20033
6248.23846,0.21257
6250.16692,0.19056
6252.09539,0.17792
6254.02386,0.14187
6255.95233,0.03468
6257.88080,-0.03476
6259.80927,0.02808
6261.73774,0.08317
6263.66621,0.04366
6265.59467,0.02516
6267.52314,0.08291
6269.45161,0.12872
6271.38008,0.12588
6273.30855,0.05122
6275.23702,-0.07841
6277.16549,-0.09894
6279.09395,0.00910
6281.02242,0.08940
6282.95089,0.08178
6284.87936,0.03209
6286.80783,0.02727
6288.73630,0.11103
6290.66477,0.19465
6292.59323,0.15628
6294.52170,0.04081
6296.45017,-0.00714
6298.37864,0.06671
6300.30711,0.15703
6302.23558,0.14661
6304.16405,0.11197
6306.09252,0.14796
6308.02098,0.19245
6309.94945,0.17305
6311.87792,0.10220
6313.80639,0.04627
6315.73486,0.01597
6317.66333,-0.01121
6319.59180,0.05043
6321.52026,0.19737
6323.44873,0.25541
6325.37720,0.19798
6327.30567,0.10138
6329.23414,-0.00692
6331.16261,-0.08582
6333.09108,-0.07119
6335.01955,-0.00389
6336.94801,0.00220
6338.87648,-0.02971
6340.80495,-0.01339
6342.73342,0.05897
6344.66189,0.14043
6346.59036,0.17464
6348.51883,0.14758
6350.44729,0.09738
6352.37576,0.09631
6354.30423,0.14408
6356.23270,0.15903
6358.16117,0.14941
6360.08964,0.17695
6362.01811,0.21440
6363.94658,0.23550
6365.87504,0.23673
6367.80351,0.20279
6369.73198,0.16721
6371.66045,0.11452
6373.58892,0.02695
6375.51739,-0.01827
6377.44586,0.01097
6379.37432,0.09240
6381.30279,0.18658
6383.23126,0.19664
6385.15973,0.13056
6387.08820,0.12784
6389.01667,0.15473
6390.94514,0.13299
6392.87361,0.07924
6394.80207,0.03129
6396.73054,0.05188
6398.65901,0.13947
6400.58748,0.19066
6402.51595,0.16102
6404.44442,0.08606
6406.37289,-0.00286
6408.30135,-0.01135
6410.22982,0.04389
6412.15829,0.04846
6414.08676,0.05114
6416.01523,0.12181
6417.94370,0.24543
6419.87217,0.31440
6421.80064,0.27333
6423.72910,0.18178
6425.65757,0.10159
6427.58604,0.13823
6429.51451,0.26091
6431.44298,0.28170
6433.37145,0.18737
6435.29992,0.10678
6437.22838,0.06221
6439.15685,0.02348
6441.08532,0.03346
6443.01379,0.09402
6444.94226,0.12870
6446.87073,0.13013
6448.79920,0.11925
6450.72766,0.12019
6452.65613,0.14184
6454.58460,0.12611
6456.51307,0.07249
6458.44154,0.06190
6460.37001,0.07779
6462.29848,0.07862
6464.22695,0.09182
6466.15541,0.10574
6468.08388,0.11815
6470.01235,0.11899
6471.94082,0.07194
6473.86929,0.00833
6475.79776,0.02443
6477.72623,0.16161
6479.65469,0.24990
6481.58316,0.21936
6483.51163,0.14461
6485.44010,0.03401
6487.36857,-0.01582
6489.29704,0.05045
6491.22551,0.09255
6493.15398,0.06985
6495.08244,0.10177
6497.01091,0.16106
6498.93938,0.16349
6500.86785,0.15650
6502.79632,0.20105
6504.72479,0.26394
6506.65326,0.27260
6508.58172,0.17931
6510.51019,0.04289
6512.43866,0.01012
6514.36713,0.11118
6516.29560,0.16923
6518.22407,0.14254
6520.15254,0.15523
6522.08101,0.19696
6524.00947,0.21344
6525.93794,0.16702
6527.86641,0.09542
6529.79488,0.07636
6531.72335,0.06201
6533.65182,0.04392
6535.58029,0.07477
6537.50875,0.10530
6539.43722,0.08959
6541.36569,0.11038
6543.29416,0.18080
6545.22263,0.16313
6547.15110,0.05940
6549.07957,0.00050
6551.00804,0.06199
6552.93650,0.13258
6554.86497,0.10752
6556.79344,0.07693
6558.72191,0.07451
6560.65038,0.01465
6562.57885,-0.05743
6564.50732,-0.05167
6566.43578,-0.01499
6568.36425,0.01465
6570.29272,0.08234
6572.22119,0.20199
6574.14966,0.29040
6576.07813,0.23913
6578.00660,0.08873
6579.93507,0.05628
6581.86353,0.17126
6583.79200,0.18730
6585.72047,0.10938
6587.64894,0.08204
6589.57741,0.09045
6591.50588,0.12217
6593.43435,0.10008
6595.36281,0.00146
6597.29128,-0.07098
6599.21975,-0.13238
6601.14822,-0.15037
6603.07669,-0.06968
6605.00516,0.00532
6606.93363,0.04827
6608.86210,0.12821
6610.79056,0.22452
6612.71903,0.26151
6614.64750,0.21066
6616.57597,0.12926
6618.50444,0.08502
6620.43291,0.06441
6622.36138,0.06722
6624.28984,0.07714
6626.21831,0.09495
6628.14678,0.17700
6630.07525,0.26182
6632.00372,0.21707
6633.93219,0.08942
6635.86066,0.07903
6637.78912,0.15850
6639.71759,0.13210
6641.64606,0.11282
6643.57453,0.14455
6645.50300,0.04596
6647.43147,-0.13186
6649.35994,-0.18291
6651.28841,-0.11157
6653.21687,-0.04445
6655.14534,-0.09132
6657.07381,-0.17277
6659.00228,-0.11446
6660.93075,0.01958
6662.85922,0.11868
6664.78769,0.15492
6666.71615,0.09728
6668.64462,-0.01325
6670.57309,-0.05831
6672.50156,0.02368
6674.43003,0.14556
6676.35850,0.20565
6678.28697,0.21901
6680.21544,0.15288
6682.14390,-0.00922
6684.07237,-0.05955
6686.00084,0.06755
6687.92931,0.16698
6689.85778,0.19851
6691.78625,0.21248
6693.71472,0.21106
6695.64318,0.25466
6697.57165,0.31639
6699.50012,0.30292
6701.42859,0.24868
6703.35706,0.19533
6705.28553,0.15018
6707.21400,0.09200
6709.14247,0.00853
6711.07093,-0.00917
6712.99940,0.05513
6714.92787,0.13862
6716.85634,0.19224
6718.78481,0.15397
6720.71328,0.02251
6722.64175,-0.06083
6724.57021,-0.00531
6726.49868,0.07295
6728.42715,0.07712
6730.35562,0.04002
6732.28409,-0.00812
6734.21256,-0.00725
6736.14103,0.05713
6738.06950,0.06122
6739.99796,0.03613
6741.92643,0.10373
6743.85490,0.20597
6745.78337,0.22386
6747.71184,0.10743
6749.64031,-0.00300
6751.56878,0.03953
6753.49724,0.10432
6755.42571,0.07268
6757.35418,0.03186
6759.28265,0.09201
6761.21112,0.16979
6763.13959,0.16406
6765.06806,0.21347
6766.99653,0.33040
6768.92499,0.38197
6770.85346,0.35237
6772.78193,0.29811
6774.71040,0.23816
6776.63887,0.19996
6778.56734,0.23276
6780.49581,0.27458
6782.42427,0.26546
6784.35274,0.17439
6786.28121,0.00321
6788.20968,-0.03460
6790.13815,0.12565
6792.06662,0.19883
6793.99509,0.12377
6795.92355,0.06618
6797.85202,0.07749
6799.78049,0.15776
6801.70896,0.20789
6803.63743,0.15516
6805.56590,0.11144
6807.49437,0.13982
6809.42284,0.19892
6811.35130,0.22691
6813.27977,0.17185
6815.20824,0.00940
6817.13671,-0.15144
6819.06518,-0.12734
6820.99365,-0.00394
6822.92212,0.10509
6824.85058,0.19908
6826.77905,0.20013
6828.70752,0.12012
6830.63599,0.11126
6832.56446,0.15612
6834.49293,0.11903
6836.42140,-0.00185
6838.34987,-0.01625
6840.27833,0.07152
6842.20680,0.05181
6844.13527,0.00187
6846.06374,0.10259
6847.99221,0.20692
6849.92068,0.13751
6851.84915,0.04989
6853.77761,0.03973
6855.70608,0.03986
6857.63455,0.00528
6859.56302,0.00850
6861.49149,0.06450
6863.41996,-0.01203
6865.34843,-0.20256
6867.27690,-0.31264
6869.20536,-0.37123
6871.13383,-0.34297
6873.06230,-0.13803
6874.99077,0.00079
6876.91924,0.01585
6878.84771,0.05341
6880.77618,0.10423
6882.70464,0.19195
6884.63311,0.30518
6886.56158,0.28917
6888.49005,0.08871
6890.41852,-0.13839
6892.34699,-0.20320
6894.27546,-0.16832
6896.20393,-0.13913
6898.13239,-0.04412
6900.06086,0.05878
6901.98933,0.06519
6903.91780,0.06786
6905.84627,0.13648
6907.77474,0.16605
6909.70321,0.14545
6911.63167,0.17253
6913.56014,0.23639
6915.48861,0.25675
6917.41708,0.22263
6919.34555,0.16693
6921.27402,0.12730
6923.20249,0.06812
6925.13096,-0.03056
6927.05942,-0.10556
6928.98789,-0.07848
6930.91636,0.03314
6932.84483,0.06506
6934.77330,0.03015
6936.70177,0.03862
6938.63024,0.01772
6940.55870,-0.04999
6942.48717,-0.03269
6944.41564,0.06865
6946.34411,0.17016
6948.27258,0.22394
6950.20105,0.22337
6952.12952,0.22365
6954.05799,0.21959
6955.98645,0.15565
6957.91492,0.14625
6959.84339,0.11613
6961.77186,-0.06753
6963.70033,-0.19862
6965.62880,-0.16725
6967.55727,-0.02377
6969.48573,0.13966
6971.41420,0.21847
6973.34267,0.19776
6975.27114,0.09761
6977.19961,0.05055
6979.12808,0.07800
6981.05655,0.01332
6982.98501,-0.19225
6984.91348,-0.29083
6986.84195,-0.15712
6988.77042,-0.06505
6990.69889,-0.10380
6992.62736,-0.14993
6994.55583,-0.16230
6996.48430,-0.05026
6998.41276,0.13205
7000.34123,0.16649
7002.26970,0.11629
7004.19817,0.12311
7006.12664,0.18627
7008.05511,0.27704
7009.98358,0.31663
7011.91204,0.24725
7013.84051,0.10624
7015.76898,0.03391
7017.69745,0.05876
7019.62592,0.08700
7021.55439,0.11053
7023.48286,0.15769
7025.41133,0.17064
7027.33979,0.16891
7029.26826,0.22422
7031.19673,0.19513
7033.12520,0.01530
7035.05367,-0.12602
7036.98214,-0.10370
7038.91061,0.01196
7040.83907,0.04699
7042.76754,-0.14914
7044.69601,-0.31080
7046.62448,-0.14147
7048.55295,0.11974
7050.48142,0.24354
7052.40989,0.25015
7054.33836,0.07189
7056.26682,-0.18226
7058.19529,-0.21467
7060.12376,-0.05430
7062.05223,0.13986
7063.98070,0.28200
7065.90917,0.24631
7067.83764,0.13218
7069.76610,0.17017
7071.69457,0.30958
7073.62304,0.30926
7075.55151,0.23176
7077.47998,0.18848
7079.40845,0.18929
7081.33692,0.17027
7083.26539,0.06996
7085.19385,0.01316
7087.12232,0.04671
7089.05079,0.10580
7090.97926,0.14813
7092.90773,0.10107
7094.83620,0.05119
7096.76467,0.07191
7098.69313,0.05227
7100.62160,0.05628
7102.55007,0.07929
7104.47854,0.01863
7106.40701,-0.04265
7108.33548,0.03446
7110.26395,0.21159
7112.19242,0.25248
7114.12088,0.05873
7116.04935,-0.14029
7117.97782,-0.09672
7119.90629,0.18298
7121.83476,0.37250
7123.76323,0.28499
7125.69170,0.08654
7127.62016,-0.03095
7129.54863,-0.11114
7131.47710,-0.19536
7133.40557,-0.18529
7135.33404,-0.04756
7137.26251,0.09459
7139.19098,0.12498
7141.11944,-0.00117
7143.04791,-0.16151
7144.97638,-0.13293
7146.90485,0.01613
7148.83332,0.13912
7150.76179,0.29593
7152.69026,0.34345
7154.61873,0.17361
7156.54719,0.02931
7158.47566,0.00724
7160.40413,0.05732
7162.33260,0.11298
7164.26107,0.15248
7166.18954,0.31043
7168.11801,0.49102
7170.04647,0.45472
7171.97494,0.26233
7173.90341,0.05784
7175.83188,-0.10538
7177.76035,-0.14507
7179.68882,-0.12367
7181.61729,-0.07926
7183.54576,0.10594
7185.47422,0.24001
7187.40269,0.15433
7189.33116,0.04470
7191.25963,0.06575
7193.18810,0.12641
7195.11657,0.03787
7197.04504,-0.10670
7198.97350,-0.12009
7200.90197,-0.06372
7202.83044,0.07043
7204.75891,0.25582
7206.68738,0.26074
7208.61585,0.22591
7210.54432,0.21365
7212.47279,0.14605
7214.40125,0.06266
7216.32972,0.05883
7218.25819,0.17442
7220.18666,0.16300
7222.11513,0.06553
7224.04360,0.01817
7225.97207,-0.14415
7227.90053,-0.40010
7229.82900,-0.48170
7231.75747,-0.27773
7233.68594,0.00469
7235.61441,0.21143
7237.54288,0.46415
7239.47135,0.65804
7241.39982,0.54167
7243.32828,0.20891
7245.25675,0.00309
7247.18522,-0.03839
7249.11369,0.01323
7251.04216,0.08152
7252.97063,0.11733
7254.89910,0.14033
7256.82756,0.17398
7258.75603,0.22156
7260.68450,0.20266
7262.61297,0.08556
7264.54144,0.05914
7266.46991,0.14902
7268.39838,0.21013
7270.32685,0.19939
7272.25531,0.03142
7274.18378,-0.17833
7276.11225,-0.18383
7278.04072,-0.09200
7279.96919,-0.06795
7281.89766,-0.07565
7283.82613,-0.00256
7285.75459,0.01764
7287.68306,-0.22725
7289.61153,-0.38109
7291.54000,-0.15689
7293.46847,-0.06028
7295.39694,-0.17258
7297.32541,-0.05567
7299.25387,0.04543
7301.18234,-0.08907
7303.11081,-0.17138
7305.03928,-0.08559
7306.96775,0.02773
7308.89622,0.17040
7310.82469,0.34219
7312.75316,0.19562
7314.68162,-0.17093
7316.61009,-0.28865
7318.53856,-0.16083
7320.46703,-0.21208
7322.39550,-0.22719
7324.32397,-0.03345
7326.25244,-0.05164
7328.18090,-0.34872
7330.10937,-0.26965
7332.03784,0.12769
7333.96631,0.21898
7335.89478,0.11701
7337.82325,0.13299
7339.75172,0.30537
7341.68019,0.42976
7343.60865,0.55747
7345.53712,0.65490
7347.46559,0.50615
7349.39406,0.27153
7351.32253,0.12620
7353.25100,0.02975
7355.17947,0.17237
7357.10793,0.54677
7359.03640,0.56055
7360.96487,0.10503
7362.89334,-0.31439
7364.82181,-0.37240
7366.75028,-0.14464
7368.67875,-0.07506
7370.60722,-0.08658
7372.53568,0.14695
7374.46415,0.38754
7376.39262,0.26782
7378.32109,0.14111
7380.24956,0.13219
7382.17803,0.11297
7384.10650,-0.04310
7386.03496,-0.28988
7387.96343,-0.26753
7389.89190,0.02741
7391.82037,0.12255
7393.74884,-0.11726
7395.67731,-0.25676
7397.60578,-0.12694
7399.53425,-0.05547
7401.46271,-0.10137
7403.39118,-0.02587
7405.31965,0.18321
7407.24812,0.26946
7409.17659,0.26769
7411.10506,0.17498
7413.03353,0.01704
7414.96199,-0.05476
7416.89046,-0.03714
7418.81893,0.13038
7420.74740,0.39064
7422.67587,0.35395
7424.60434,0.16411
7426.53281,0.05411
7428.46128,0.00762
7430.38974,-0.01023
7432.31821,-0.06713
7434.24668,-0.12850
7436.17515,0.04085
7438.10362,0.37724
7440.03209,0.47685
7441.96056,0.26979
7443.88902,0.07390
7445.81749,0.07755
7447.74596,0.21877
7449.67443,0.37534
7451.60290,0.33856
7453.53137,0.17013
7455.45984,0.12802
7457.38831,0.12199
7459.31677,0.11643
7461.24524,0.14239
7463.17371,0.08761
7465.10218,0.06020
7467.03065,0.18593
7468.95912,0.32254
7470.88759,0.31462
7472.81605,0.19888
7474.74452,0.12733
7476.67299,0.10671
7478.60146,0.18925
7480.52993,0.21240
7482.45840,-0.02110
7484.38687,-0.22406
7486.31533,-0.10293
7488.24380,0.14485
7490.17227,0.13708
7492.10074,-0.03123
7494.02921,-0.10562
7495.95768,-0.07105
7497.88615,-0.08539
