399.19301,-1.64331
401.12148,0.42989
403.04995,0.98420
404.97842,1.17076
406.90689,1.45496
408.83536,1.66559
410.76382,1.51131
412.69229,1.14057
414.62076,0.91488
416.54923,0.74560
418.47770,0.43202
420.40617,0.12959
422.33464,-0.07475
424.26311,-0.31008
426.19157,-0.46360
428.12004,-0.51821
430.04851,-0.58213
431.97698,-0.59455
433.90545,-0.43347
435.83392,-0.21152
437.76239,-0.03123
439.69085,0.15193
441.61932,0.38105
443.54779,0.53842
445.47626,0.53602
447.40473,0.46942
449.33320,0.34442
451.26167,0.15947
453.19013,-0.00178
455.11860,-0.14325
457.04707,-0.28577
458.97554,-0.32441
460.90401,-0.26142
462.83248,-0.16132
464.76095,-0.01860
466.68942,0.11877
468.61788,0.26981
470.54635,0.47361
472.47482,0.60323
474.40329,0.46291
476.33176,0.28794
478.26023,0.16670
480.18870,0.03108
482.11716,-0.06807
484.04563,-0.09116
485.97410,-0.08621
487.90257,-0.14274
489.83104,-0.19412
491.75951,-0.12072
493.68798,0.03238
495.61645,0.18724
497.54491,0.32543
499.47338,0.40745
501.40185,0.38702
503.33032,0.30343
505.25879,0.19768
507.18726,0.05066
509.11573,-0.06731
511.04419,-0.11600
512.97266,-0.14379
514.90113,-0.15301
516.82960,-0.10863
518.75807,0.00058
520.68654,0.13613
522.61501,0.24600
524.54348,0.32711
526.47194,0.38896
528.40041,0.39565
530.32888,0.33108
532.25735,0.24099
534.18582,0.16558
536.11429,0.09053
538.04276,0.02103
539.97122,-0.03658
541.89969,-0.07025
543.82816,-0.03790
545.75663,0.04119
547.68510,0.12006
549.61357,0.18132
551.54204,0.19147
553.47051,0.18506
555.39897,0.23020
557.32744,0.25996
559.25591,0.22059
561.18438,0.15840
563.11285,0.08954
565.04132,0.01953
566.96979,-0.02539
568.89825,-0.02444
570.82672,0.00858
572.75519,0.04668
574.68366,0.09046
576.61213,0.14161
578.54060,0.19613
580.46907,0.24825
582.39754,0.26872
584.32600,0.26121
586.25447,0.24622
588.18294,0.20864
590.11141,0.15082
592.03988,0.09008
593.96835,0.03773
595.89682,0.01680
597.82528,0.02937
599.75375,0.05098
601.68222,0.08951
603.61069,0.15584
605.53916,0.21504
607.46763,0.24555
609.39610,0.25281
611.32456,0.23446
613.25303,0.19317
615.18150,0.15286
617.10997,0.12497
619.03844,0.09015
620.96691,0.05591
622.89538,0.04416
624.82385,0.03883
626.75231,0.04099
628.68078,0.09718
630.60925,0.24137
632.53772,0.38580
634.46619,0.38152
636.39466,0.28986
638.32313,0.23275
640.25159,0.19186
642.18006,0.14372
644.10853,0.10827
646.03700,0.09177
647.96547,0.07794
649.89394,0.05639
651.82241,0.04246
653.75088,0.05676
655.67934,0.11047
657.60781,0.17390
659.53628,0.20134
661.46475,0.20709
663.39322,0.22154
665.32169,0.23132
667.25016,0.20827
669.17862,0.15149
671.10709,0.12155
673.03556,0.09490
674.96403,0.05369
676.89250,0.02681
678.82097,0.03819
680.74944,0.08568
682.67791,0.14114
684.60637,0.17994
686.53484,0.20365
688.46331,0.21784
690.39178,0.21704
692.32025,0.20395
694.24872,0.18195
696.17719,0.15396
698.10565,0.12817
700.03412,0.10284
701.96259,0.08520
703.89106,0.08355
705.81953,0.08756
707.74800,0.10479
709.67647,0.17278
711.60494,0.25326
713.53340,0.25469
715.46187,0.21322
717.39034,0.19679
719.31881,0.18871
721.24728,0.17782
723.17575,0.15828
725.10422,0.12994
727.03268,0.10700
728.96115,0.08484
730.88962,0.06344
732.81809,0.06220
734.74656,0.08309
736.67503,0.11055
738.60350,0.14082
740.53197,0.17565
742.46043,0.20811
744.38890,0.22499
746.31737,0.22298
748.24584,0.20421
750.17431,0.17075
752.10278,0.13294
754.03125,0.10158
755.95971,0.08269
757.88818,0.08150
759.81665,0.09976
761.74512,0.12172
763.67359,0.13198
765.60206,0.13980
767.53053,0.15961
769.45900,0.18632
771.38746,0.20276
773.31593,0.20083
775.24440,0.18315
777.17287,0.16524
779.10134,0.15230
781.02981,0.12877
782.95828,0.09960
784.88674,0.08594
786.81521,0.08685
788.74368,0.07266
790.67215,0.05632
792.60062,0.09075
794.52909,0.15250
796.45756,0.18729
798.38602,0.19454
800.31449,0.18137
802.24296,0.16066
804.17143,0.13767
806.09990,0.11321
808.02837,0.09875
809.95684,0.08964
811.88531,0.08372
813.81377,0.08779
815.74224,0.10088
817.67071,0.11540
819.59918,0.12899
821.52765,0.14727
823.45612,0.16696
825.38459,0.17490
827.31305,0.16904
829.24152,0.15767
831.16999,0.14138
833.09846,0.12583
835.02693,0.11577
836.95540,0.10130
838.88387,0.08807
840.81234,0.09666
842.74080,0.12600
844.66927,0.15394
846.59774,0.17109
848.52621,0.18362
850.45468,0.19458
852.38315,0.20385
854.31162,0.20142
856.24008,0.17796
858.16855,0.14951
860.09702,0.13035
862.02549,0.11423
863.95396,0.10745
865.88243,0.11180
867.81090,0.09819
869.73937,0.07682
871.66783,0.09725
873.59630,0.14839
875.52477,0.18640
877.45324,0.20821
879.38171,0.21984
881.31018,0.21086
883.23865,0.18563
885.16711,0.16197
887.09558,0.14287
889.02405,0.12720
890.95252,0.11609
892.88099,0.10718
894.80946,0.11022
896.73793,0.13209
898.66640,0.15669
900.59486,0.17742
902.52333,0.19969
904.45180,0.20810
906.38027,0.19481
908.30874,0.18046
910.23721,0.17222
912.16568,0.15468
914.09414,0.12750
916.02261,0.10718
917.95108,0.10235
919.87955,0.10789
921.80802,0.11562
923.73649,0.12753
925.66496,0.14897
927.59343,0.17522
929.52189,0.19223
931.45036,0.19313
933.37883,0.18634
935.30730,0.18036
937.23577,0.17003
939.16424,0.15013
941.09271,0.13175
943.02117,0.11917
944.94964,0.10768
946.87811,0.10615
948.80658,0.11806
950.73505,0.13346
952.66352,0.15202
954.59199,0.17509
956.52045,0.19358
958.44892,0.20133
960.37739,0.19669
962.30586,0.18490
964.23433,0.17431
966.16280,0.16233
968.09127,0.14503
970.01974,0.12780
971.94820,0.11983
973.87667,0.12061
975.80514,0.12627
977.73361,0.14148
979.66208,0.16394
981.59055,0.18253
983.51902,0.19228
985.44748,0.19481
987.37595,0.19239
989.30442,0.18488
991.23289,0.17529
993.16136,0.17005
995.08983,0.16318
997.01830,0.14183
998.94677,0.11533
1000.87523,0.10678
1002.80370,0.11884
1004.73217,0.13532
1006.66064,0.14952
1008.58911,0.16961
1010.51758,0.19286
1012.44605,0.20455
1014.37451,0.20397
1016.30298,0.19736
1018.23145,0.18546
1020.15992,0.17080
1022.08839,0.15664
1024.01686,0.14399
1025.94533,0.13684
1027.87380,0.13924
1029.80226,0.14610
1031.73073,0.15113
1033.65920,0.16039
1035.58767,0.18078
1037.51614,0.20240
1039.44461,0.20911
1041.37308,0.20146
1043.30154,0.19551
1045.23001,0.19428
1047.15848,0.18789
1049.08695,0.17731
1051.01542,0.16199
1052.94389,0.14162
1054.87236,0.13220
1056.80083,0.14185
1058.72929,0.15850
1060.65776,0.17560
1062.58623,0.19574
1064.51470,0.21228
1066.44317,0.21627
1068.37164,0.21018
1070.30011,0.20201
1072.22857,0.19425
1074.15704,0.18369
1076.08551,0.16500
1078.01398,0.13686
1079.94245,0.11609
1081.87092,0.12114
1083.79939,0.14134
1085.72786,0.15423
1087.65632,0.16289
1089.58479,0.18338
1091.51326,0.20816
1093.44173,0.21636
1095.37020,0.20472
1097.29867,0.18635
1099.22714,0.17596
1101.15560,0.17314
1103.08407,0.16063
1105.01254,0.13669
1106.94101,0.12124
1108.86948,0.12316
1110.79795,0.13329
1112.72642,0.14472
1114.65489,0.16043
1116.58335,0.18195
1118.51182,0.20007
1120.44029,0.20237
1122.36876,0.19171
1124.29723,0.17946
1126.22570,0.16656
1128.15417,0.15632
1130.08263,0.15358
1132.01110,0.15009
1133.93957,0.14358
1135.86804,0.14073
1137.79651,0.14172
1139.72498,0.14452
1141.65345,0.15144
1143.58191,0.16591
1145.51038,0.18260
1147.43885,0.18933
1149.36732,0.18602
1151.29579,0.18297
1153.22426,0.17900
1155.15273,0.17189
1157.08120,0.16907
1159.00966,0.16822
1160.93813,0.16508
1162.86660,0.16354
1164.79507,0.16397
1166.72354,0.16593
1168.65201,0.17065
1170.58048,0.17903
1172.50894,0.18900
1174.43741,0.19399
1176.36588,0.19061
1178.29435,0.18202
1180.22282,0.17317
1182.15129,0.16725
1184.07976,0.16452
1186.00823,0.16167
1187.93669,0.15538
1189.86516,0.15234
1191.79363,0.16077
1193.72210,0.17314
1195.65057,0.18091
1197.57904,0.18677
1199.50751,0.19144
1201.43597,0.19217
1203.36444,0.19063
1205.29291,0.18926
1207.22138,0.18454
1209.14985,0.17494
1211.07832,0.16687
1213.00679,0.16272
1214.93526,0.15961
1216.86372,0.16040
1218.79219,0.16717
1220.72066,0.17340
1222.64913,0.17660
1224.57760,0.18071
1226.50607,0.18498
1228.43454,0.18491
1230.36300,0.18075
1232.29147,0.17810
1234.21994,0.17742
1236.14841,0.17412
1238.07688,0.16970
1240.00535,0.16644
1241.93382,0.16277
1243.86229,0.16259
1245.79075,0.17042
1247.71922,0.18044
1249.64769,0.18462
1251.57616,0.18505
1253.50463,0.18773
1255.43310,0.19101
1257.36157,0.19073
1259.29003,0.18727
1261.21850,0.18140
1263.14697,0.17183
1265.07544,0.16273
1267.00391,0.16140
1268.93238,0.16511
1270.86085,0.16700
1272.78932,0.16789
1274.71778,0.17310
1276.64625,0.18405
1278.57472,0.19437
1280.50319,0.19528
1282.43166,0.19006
1284.36013,0.18739
1286.28860,0.18499
1288.21706,0.18136
1290.14553,0.17840
1292.07400,0.17280
1294.00247,0.16550
1295.93094,0.16140
1297.85941,0.16083
1299.78788,0.16248
1301.71634,0.16317
1303.64481,0.16156
1305.57328,0.16694
1307.50175,0.18110
1309.43022,0.18950
1311.35869,0.18890
1313.28716,0.18866
1315.21563,0.18718
1317.14409,0.17968
1319.07256,0.17069
1321.00103,0.16487
1322.92950,0.16464
1324.85797,0.17066
1326.78644,0.17747
1328.71491,0.18088
1330.64337,0.18338
1332.57184,0.18726
1334.50031,0.19154
1336.42878,0.19492
1338.35725,0.19592
1340.28572,0.19290
1342.21419,0.20009
1344.14266,0.21815
1346.07112,0.21220
1347.99959,0.18056
1349.92806,0.16114
1351.85653,0.16044
1353.78500,0.16505
1355.71347,0.17125
1357.64194,0.18138
1359.57040,0.19335
1361.49887,0.20041
1363.42734,0.20185
1365.35581,0.20058
1367.28428,0.19922
1369.21275,0.19700
1371.14122,0.19381
1373.06969,0.19306
1374.99815,0.19171
1376.92662,0.18565
1378.85509,0.18042
1380.78356,0.18107
1382.71203,0.18771
1384.64050,0.19777
1386.56897,0.20486
1388.49743,0.20265
1390.42590,0.20037
1392.35437,0.20693
1394.28284,0.21300
1396.21131,0.20444
1398.13978,0.18626
1400.06825,0.17164
1401.99672,0.16725
1403.92518,0.17086
1405.85365,0.18006
1407.78212,0.18878
1409.71059,0.19081
1411.63906,0.19171
1413.56753,0.20019
1415.49600,0.21232
1417.42446,0.21939
1419.35293,0.21570
1421.28140,0.20520
1423.20987,0.19524
1425.13834,0.18753
1427.06681,0.18300
1428.99528,0.18059
1430.92375,0.18068
1432.85221,0.18609
1434.78068,0.19865
1436.70915,0.21224
1438.63762,0.21374
1440.56609,0.20997
1442.49456,0.20755
1444.42303,0.20570
1446.35149,0.20325
1448.27996,0.19884
1450.20843,0.19330
1452.13690,0.18931
1454.06537,0.18633
1455.99384,0.18080
1457.92231,0.17845
1459.85077,0.18467
1461.77924,0.19247
1463.70771,0.20342
1465.63618,0.21171
1467.56465,0.21416
1469.49312,0.22175
1471.42159,0.23308
1473.35006,0.23110
1475.27852,0.21902
1477.20699,0.20853
1479.13546,0.19836
1481.06393,0.19145
1482.99240,0.18627
1484.92087,0.17973
1486.84934,0.17966
1488.77780,0.19434
1490.70627,0.20628
1492.63474,0.20576
1494.56321,0.21107
1496.49168,0.22455
1498.42015,0.22853
1500.34862,0.22180
1502.27709,0.21705
1504.20555,0.21834
1506.13402,0.21694
1508.06249,0.19896
1509.99096,0.19113
1511.91943,0.19375
1513.84790,0.20215
1515.77637,0.21350
1517.70483,0.22170
1519.63330,0.22964
1521.56177,0.23770
1523.49024,0.23651
1525.41871,0.22878
1527.34718,0.21483
1529.27565,0.20195
1531.20412,0.19840
1533.13258,0.19897
1535.06105,0.19532
1536.98952,0.19067
1538.91799,0.19151
1540.84646,0.20702
1542.77493,0.22263
1544.70340,0.22262
1546.63186,0.21460
1548.56033,0.21149
1550.48880,0.21644
1552.41727,0.22139
1554.34574,0.22279
1556.27421,0.22544
1558.20268,0.22167
1560.13115,0.19184
1562.05961,0.17863
1563.98808,0.18079
1565.91655,0.18627
1567.84502,0.19231
1569.77349,0.19898
1571.70196,0.20276
1573.63043,0.20822
1575.55889,0.21760
1577.48736,0.21734
1579.41583,0.20787
1581.34430,0.19872
1583.27277,0.19075
1585.20124,0.18609
1587.12971,0.18464
1589.05818,0.18376
1590.98664,0.18265
1592.91511,0.18216
1594.84358,0.18355
1596.77205,0.18823
1598.70052,0.19707
1600.62899,0.20719
1602.55746,0.21281
1604.48592,0.21211
1606.41439,0.20821
1608.34286,0.20418
1610.27133,0.20021
1612.19980,0.19656
1614.12827,0.19562
1616.05674,0.19818
1617.98521,0.19889
1619.91367,0.19667
1621.84214,0.19666
1623.77061,0.20109
1625.69908,0.20934
1627.62755,0.21638
1629.55602,0.21822
1631.48449,0.22145
1633.41295,0.23298
1635.34142,0.24358
1637.26989,0.22667
1639.19836,0.20317
1641.12683,0.19169
1643.05530,0.18989
1644.98377,0.19437
1646.91223,0.20284
1648.84070,0.20735
1650.76917,0.21194
1652.69764,0.22652
1654.62611,0.23377
1656.55458,0.22595
1658.48305,0.21781
1660.41152,0.21332
1662.33998,0.21482
1664.26845,0.21520
1666.19692,0.21053
1668.12539,0.20567
1670.05386,0.20385
1671.98233,0.20439
1673.91080,0.20627
1675.83926,0.20974
1677.76773,0.21491
1679.69620,0.22352
1681.62467,0.23617
1683.55314,0.24430
1685.48161,0.23287
1687.41008,0.22178
1689.33855,0.21601
1691.26701,0.21179
1693.19548,0.21163
1695.12395,0.21200
1697.05242,0.20522
1698.98089,0.19591
1700.90936,0.19649
1702.83783,0.20534
1704.76629,0.21403
1706.69476,0.21952
1708.62323,0.22029
1710.55170,0.21984
1712.48017,0.22218
1714.40864,0.22961
1716.33711,0.23436
1718.26558,0.22017
1720.19404,0.20145
1722.12251,0.19169
1724.05098,0.18934
1725.97945,0.19170
1727.90792,0.19519
1729.83639,0.20040
1731.76486,0.21113
1733.69332,0.22366
1735.62179,0.22442
1737.55026,0.21996
1739.47873,0.21713
1741.40720,0.21467
1743.33567,0.21120
1745.26414,0.20770
1747.19261,0.20686
1749.12107,0.20832
1751.04954,0.20603
1752.97801,0.20074
1754.90648,0.19957
1756.83495,0.20213
1758.76342,0.20581
1760.69189,0.21092
1762.62035,0.21500
1764.54882,0.21689
1766.47729,0.21903
1768.40576,0.21896
1770.33423,0.21564
1772.26270,0.21112
1774.19117,0.20549
1776.11964,0.20040
1778.04810,0.19804
1779.97657,0.19931
1781.90504,0.20030
1783.83351,0.19967
1785.76198,0.20118
1787.69045,0.20564
1789.61892,0.21372
1791.54738,0.22497
1793.47585,0.22911
1795.40432,0.22222
1797.33279,0.21445
1799.26126,0.21031
1801.18973,0.20536
1803.11820,0.19804
1805.04666,0.19292
1806.97513,0.19229
1808.90360,0.19519
1810.83207,0.20013
1812.76054,0.20573
1814.68901,0.21082
1816.61748,0.21312
1818.54595,0.21155
1820.47441,0.21209
1822.40288,0.21509
1824.33135,0.21287
1826.25982,0.20680
1828.18829,0.20393
1830.11676,0.20252
1832.04523,0.20018
1833.97369,0.19967
1835.90216,0.20080
1837.83063,0.20238
1839.75910,0.20626
1841.68757,0.21331
1843.61604,0.22066
1845.54451,0.22339
1847.47298,0.22213
1849.40144,0.21872
1851.32991,0.21233
1853.25838,0.20402
1855.18685,0.19740
1857.11532,0.19382
1859.04379,0.19287
1860.97226,0.19419
1862.90072,0.19572
1864.82919,0.20013
1866.75766,0.21045
1868.68613,0.21869
1870.61460,0.21727
1872.54307,0.21290
1874.47154,0.20949
1876.40001,0.20673
1878.32847,0.20425
1880.25694,0.20050
1882.18541,0.19576
1884.11388,0.19285
1886.04235,0.19394
1887.97082,0.19856
1889.89929,0.20384
1891.82775,0.20716
1893.75622,0.20775
1895.68469,0.20630
1897.61316,0.20598
1899.54163,0.20759
1901.47010,0.20872
1903.39857,0.20765
1905.32704,0.20352
1907.25550,0.19834
1909.18397,0.19470
1911.11244,0.19254
1913.04091,0.19257
1914.96938,0.19571
1916.89785,0.20165
1918.82632,0.20720
1920.75478,0.20971
1922.68325,0.21100
1924.61172,0.21028
1926.54019,0.20793
1928.46866,0.20704
1930.39713,0.20622
1932.32560,0.20391
1934.25407,0.20170
1936.18253,0.19909
1938.11100,0.19565
1940.03947,0.19423
1941.96794,0.19661
1943.89641,0.20021
1945.82488,0.20143
1947.75335,0.20200
1949.68181,0.20551
1951.61028,0.21042
1953.53875,0.21235
1955.46722,0.21051
1957.39569,0.20741
1959.32416,0.20469
1961.25263,0.20268
1963.18110,0.20164
1965.10956,0.19988
1967.03803,0.19674
1968.96650,0.19520
1970.89497,0.19729
1972.82344,0.20190
1974.75191,0.20446
1976.68038,0.20444
1978.60884,0.20680
1980.53731,0.21037
1982.46578,0.21096
1984.39425,0.20857
1986.32272,0.20497
1988.25119,0.20174
1990.17966,0.19899
1992.10812,0.19703
1994.03659,0.19669
1995.96506,0.19721
1997.89353,0.19787
1999.82200,0.19799
2001.75047,0.19942
2003.67894,0.20318
2005.60741,0.20591
2007.53587,0.20709
2009.46434,0.20799
2011.39281,0.20880
2013.32128,0.20899
2015.24975,0.20625
2017.17822,0.20149
2019.10669,0.19824
2021.03515,0.19706
2022.96362,0.19733
2024.89209,0.19876
2026.82056,0.20061
2028.74903,0.20290
2030.67750,0.20655
2032.60597,0.21068
2034.53444,0.21215
2036.46290,0.21005
2038.39137,0.20762
2040.31984,0.20580
2042.24831,0.20247
2044.17678,0.19844
2046.10525,0.19616
2048.03372,0.19675
2049.96218,0.19947
2051.89065,0.20303
2053.81912,0.20820
2055.74759,0.21382
2057.67606,0.21624
2059.60453,0.21569
2061.53300,0.21436
2063.46147,0.21294
2065.38993,0.21110
2067.31840,0.20752
2069.24687,0.20170
2071.17534,0.19668
2073.10381,0.19603
2075.03228,0.19790
2076.96075,0.20035
2078.88921,0.20458
2080.81768,0.20839
2082.74615,0.20909
2084.67462,0.20974
2086.60309,0.21272
2088.53156,0.21459
2090.46003,0.21455
2092.38850,0.21399
2094.31696,0.20994
2096.24543,0.20277
2098.17390,0.19847
2100.10237,0.19935
2102.03084,0.20289
2103.95931,0.20552
2105.88778,0.20519
2107.81624,0.20346
2109.74471,0.20333
2111.67318,0.20566
2113.60165,0.20882
2115.53012,0.21135
2117.45859,0.21190
2119.38706,0.20901
2121.31553,0.20332
2123.24399,0.19773
2125.17246,0.19451
2127.10093,0.19348
2129.02940,0.19558
2130.95787,0.20083
2132.88634,0.20480
2134.81481,0.20662
2136.74327,0.20990
2138.67174,0.21380
2140.60021,0.21454
2142.52868,0.21192
2144.45715,0.20769
2146.38562,0.20381
2148.31409,0.20215
2150.24255,0.20199
2152.17102,0.20155
2154.09949,0.20040
2156.02796,0.19926
2157.95643,0.20020
2159.88490,0.20367
2161.81337,0.20822
2163.74184,0.21375
2165.67030,0.21878
2167.59877,0.21972
2169.52724,0.21600
2171.45571,0.21105
2173.38418,0.20631
2175.31265,0.20056
2177.24112,0.19619
2179.16958,0.19513
2181.09805,0.19532
2183.02652,0.19702
2184.95499,0.20085
2186.88346,0.20443
2188.81193,0.20680
2190.74040,0.20963
2192.66887,0.21306
2194.59733,0.21410
2196.52580,0.21172
2198.45427,0.20866
2200.38274,0.20590
2202.31121,0.20248
2204.23968,0.19907
2206.16815,0.19672
2208.09661,0.19596
2210.02508,0.19760
2211.95355,0.20106
2213.88202,0.20498
2215.81049,0.20900
2217.73896,0.21152
2219.66743,0.21174
2221.59590,0.21032
2223.52436,0.20725
2225.45283,0.20479
2227.38130,0.20562
2229.30977,0.20843
2231.23824,0.20801
2233.16671,0.20126
2235.09518,0.19461
2237.02364,0.19454
2238.95211,0.19897
2240.88058,0.20428
2242.80905,0.20787
2244.73752,0.20860
2246.66599,0.20882
2248.59446,0.20931
2250.52293,0.20897
2252.45139,0.20914
2254.37986,0.20919
2256.30833,0.20617
2258.23680,0.20022
2260.16527,0.19379
2262.09374,0.19061
2264.02221,0.19221
2265.95067,0.19670
2267.87914,0.20208
2269.80761,0.20642
2271.73608,0.20855
2273.66455,0.20783
2275.59302,0.20655
2277.52149,0.20741
2279.44996,0.20769
2281.37842,0.20520
2283.30689,0.20160
2285.23536,0.19792
2287.16383,0.19332
2289.09230,0.18933
2291.02077,0.18914
2292.94924,0.19230
2294.87770,0.19679
2296.80617,0.20060
2298.73464,0.20152
2300.66311,0.20035
2302.59158,0.19864
2304.52005,0.19442
2306.44852,0.18721
2308.37699,0.17911
2310.30545,0.17093
2312.23392,0.16586
2314.16239,0.16525
2316.09086,0.16434
2318.01933,0.15989
2319.94780,0.15538
2321.87627,0.16145
2323.80473,0.17807
2325.73320,0.18873
2327.66167,0.18786
2329.59014,0.17990
2331.51861,0.16515
2333.44708,0.14916
2335.37555,0.13915
2337.30401,0.12929
2339.23248,0.11623
2341.16095,0.10963
2343.08942,0.11684
2345.01789,0.13585
2346.94636,0.15184
2348.87483,0.15817
2350.80330,0.16131
2352.73176,0.16605
2354.66023,0.17074
2356.58870,0.17149
2358.51717,0.16237
2360.44564,0.13846
2362.37411,0.11550
2364.30258,0.10677
2366.23104,0.10614
2368.15951,0.10719
2370.08798,0.11316
2372.01645,0.13029
2373.94492,0.15411
2375.87339,0.17529
2377.80186,0.18964
2379.73033,0.19817
2381.65879,0.20350
2383.58726,0.20696
2385.51573,0.20793
2387.44420,0.20582
2389.37267,0.20348
2391.30114,0.20362
2393.22961,0.20371
2395.15807,0.20191
2397.08654,0.20075
2399.01501,0.20065
2400.94348,0.20114
2402.87195,0.20489
2404.80042,0.21144
2406.72889,0.21534
2408.65736,0.21420
2410.58582,0.21170
2412.51429,0.21104
2414.44276,0.21141
2416.37123,0.21027
2418.29970,0.20657
2420.22817,0.20272
2422.15664,0.20164
2424.08510,0.20375
2426.01357,0.20690
2427.94204,0.20867
2429.87051,0.20908
2431.79898,0.21019
2433.72745,0.21275
2435.65592,0.21581
2437.58439,0.21720
2439.51285,0.21398
2441.44132,0.20892
2443.36979,0.20674
2445.29826,0.20618
2447.22673,0.20520
2449.15520,0.20293
2451.08367,0.19963
2453.01213,0.20026
2454.94060,0.20572
2456.86907,0.20964
2458.79754,0.21045
2460.72601,0.21057
2462.65448,0.21115
2464.58295,0.21230
2466.51142,0.21232
2468.43988,0.20982
2470.36835,0.20586
2472.29682,0.20308
2474.22529,0.20155
2476.15376,0.20036
2478.08223,0.19943
2480.01070,0.19981
2481.93916,0.20389
2483.86763,0.20909
2485.79610,0.21163
2487.72457,0.21278
2489.65304,0.21335
2491.58151,0.21223
2493.50998,0.21094
2495.43844,0.21048
2497.36691,0.20852
2499.29538,0.20520
2501.22385,0.20259
2503.15232,0.20106
2505.08079,0.20089
2507.00926,0.20268
2508.93773,0.20512
2510.86619,0.20699
2512.79466,0.21023
2514.72313,0.21528
2516.65160,0.21764
2518.58007,0.21549
2520.50854,0.21319
2522.43701,0.21141
2524.36547,0.20731
2526.29394,0.20280
2528.22241,0.20149
2530.15088,0.20274
2532.07935,0.20350
2534.00782,0.20510
2535.93629,0.21014
2537.86476,0.21567
2539.79322,0.21772
2541.72169,0.21636
2543.65016,0.21432
2545.57863,0.21336
2547.50710,0.21214
2549.43557,0.20895
2551.36404,0.20446
2553.29250,0.20074
2555.22097,0.20048
2557.14944,0.20305
2559.07791,0.20411
2561.00638,0.20488
2562.93485,0.20829
2564.86332,0.21051
2566.79179,0.20883
2568.72025,0.20772
2570.64872,0.21180
2572.57719,0.21686
2574.50566,0.21575
2576.43413,0.21103
2578.36260,0.20851
2580.29107,0.20744
2582.21953,0.20643
2584.14800,0.20594
2586.07647,0.20559
2588.00494,0.20716
2589.93341,0.21125
2591.86188,0.21365
2593.79035,0.21302
2595.71882,0.21300
2597.64728,0.21608
2599.57575,0.21905
2601.50422,0.21693
2603.43269,0.21175
2605.36116,0.20829
2607.28963,0.20712
2609.21810,0.20691
2611.14656,0.20564
2613.07503,0.20412
2615.00350,0.20580
2616.93197,0.20836
2618.86044,0.20904
2620.78891,0.21123
2622.71738,0.21658
2624.64585,0.22136
2626.57431,0.22101
2628.50278,0.21552
2630.43125,0.20862
2632.35972,0.20342
2634.28819,0.20132
2636.21666,0.20144
2638.14513,0.20323
2640.07359,0.20560
2642.00206,0.20655
2643.93053,0.20832
2645.85900,0.21304
2647.78747,0.21772
2649.71594,0.21873
2651.64441,0.21614
2653.57288,0.21378
2655.50134,0.21422
2657.42981,0.21499
2659.35828,0.21305
2661.28675,0.21002
2663.21522,0.20824
2665.14369,0.20656
2667.07216,0.20635
2669.00062,0.21022
2670.92909,0.21612
2672.85756,0.22175
2674.78603,0.22585
2676.71450,0.22648
2678.64297,0.22338
2680.57144,0.21830
2682.49990,0.21389
2684.42837,0.21207
2686.35684,0.21161
2688.28531,0.21013
2690.21378,0.20715
2692.14225,0.20436
2694.07072,0.20549
2695.99919,0.21189
2697.92765,0.21978
2699.85612,0.22517
2701.78459,0.22738
2703.71306,0.22697
2705.64153,0.22318
2707.57000,0.21713
2709.49847,0.21170
2711.42693,0.20833
2713.35540,0.20792
2715.28387,0.20876
2717.21234,0.20812
2719.14081,0.20677
2721.06928,0.20822
2722.99775,0.21400
2724.92622,0.22043
2726.85468,0.22513
2728.78315,0.22858
2730.71162,0.22967
2732.64009,0.22757
2734.56856,0.22252
2736.49703,0.21758
2738.42550,0.21542
2740.35396,0.21374
2742.28243,0.21311
2744.21090,0.21497
2746.13937,0.21681
2748.06784,0.21940
2749.99631,0.22435
2751.92478,0.23029
2753.85325,0.23450
2755.78171,0.23461
2757.71018,0.23219
2759.63865,0.22870
2761.56712,0.22371
2763.49559,0.21985
2765.42406,0.21875
2767.35253,0.21751
2769.28099,0.21426
2771.20946,0.21185
2773.13793,0.21299
2775.06640,0.21627
2776.99487,0.22044
2778.92334,0.22546
2780.85181,0.22873
2782.78028,0.22809
2784.70874,0.22550
2786.63721,0.22499
2788.56568,0.22649
2790.49415,0.22596
2792.42262,0.22275
2794.35109,0.21871
2796.27956,0.21702
2798.20802,0.21801
2800.13649,0.21632
2802.06496,0.21442
2803.99343,0.21810
2805.92190,0.22561
2807.85037,0.23212
2809.77884,0.23263
2811.70731,0.23007
2813.63577,0.23113
2815.56424,0.23254
2817.49271,0.22981
2819.42118,0.22542
2821.34965,0.22017
2823.27812,0.21458
2825.20659,0.21343
2827.13505,0.21751
2829.06352,0.22362
2830.99199,0.22982
2832.92046,0.23486
2834.84893,0.23696
2836.77740,0.23597
2838.70587,0.23451
2840.63433,0.23246
2842.56280,0.22833
2844.49127,0.22361
2846.41974,0.22076
2848.34821,0.21838
2850.27668,0.21427
2852.20515,0.21178
2854.13362,0.21343
2856.06208,0.21931
2857.99055,0.22785
2859.91902,0.23488
2861.84749,0.23961
2863.77596,0.24138
2865.70443,0.23704
2867.63290,0.22970
2869.56136,0.22631
2871.48983,0.22557
2873.41830,0.22110
2875.34677,0.21418
2877.27524,0.21202
2879.20371,0.21531
2881.13218,0.21858
2883.06065,0.21973
2884.98911,0.22170
2886.91758,0.22595
2888.84605,0.22974
2890.77452,0.23101
2892.70299,0.22754
2894.63146,0.21948
2896.55993,0.21476
2898.48839,0.21609
2900.41686,0.21662
2902.34533,0.21440
2904.27380,0.21266
2906.20227,0.21085
2908.13074,0.21057
2910.05921,0.21491
2911.98768,0.21995
2913.91614,0.22266
2915.84461,0.22499
2917.77308,0.22724
2919.70155,0.22732
2921.63002,0.22306
2923.55849,0.21439
2925.48696,0.20609
2927.41542,0.20404
2929.34389,0.20851
2931.27236,0.21392
2933.20083,0.21606
2935.12930,0.21516
2937.05777,0.21324
2938.98624,0.21625
2940.91471,0.22577
2942.84317,0.23511
2944.77164,0.23628
2946.70011,0.22852
2948.62858,0.22295
2950.55705,0.22302
2952.48552,0.22261
2954.41399,0.21886
2956.34245,0.21122
2958.27092,0.20713
2960.19939,0.21236
2962.12786,0.22195
2964.05633,0.22873
2965.98480,0.22970
2967.91327,0.22882
2969.84174,0.23105
2971.77020,0.23487
2973.69867,0.23677
2975.62714,0.23277
2977.55561,0.22281
2979.48408,0.21829
2981.41255,0.22199
2983.34102,0.22253
2985.26948,0.21630
2987.19795,0.21100
2989.12642,0.21423
2991.05489,0.22318
2992.98336,0.23172
2994.91183,0.23857
2996.84030,0.24209
2998.76877,0.24204
3000.69723,0.24199
3002.62570,0.24212
3004.55417,0.23663
3006.48264,0.22618
3008.41111,0.21831
3010.33958,0.21398
3012.26805,0.20698
3014.19651,0.19045
3016.12498,0.17427
3018.05345,0.18294
3019.98192,0.21170
3021.91039,0.23100
3023.83886,0.23494
3025.76733,0.23547
3027.69579,0.23693
3029.62426,0.23515
3031.55273,0.22974
3033.48120,0.22724
3035.40967,0.22644
3037.33814,0.22301
3039.26661,0.22003
3041.19508,0.22032
3043.12354,0.22434
3045.05201,0.23086
3046.98048,0.23537
3048.90895,0.23634
3050.83742,0.23802
3052.76589,0.24157
3054.69436,0.23899
3056.62282,0.22674
3058.55129,0.21868
3060.47976,0.22275
3062.40823,0.22615
3064.33670,0.21909
3066.26517,0.20960
3068.19364,0.21142
3070.12211,0.22202
3072.05057,0.23071
3073.97904,0.23546
3075.90751,0.23703
3077.83598,0.23834
3079.76445,0.23977
3081.69292,0.23744
3083.62139,0.23030
3085.54985,0.22135
3087.47832,0.21711
3089.40679,0.21829
3091.33526,0.21887
3093.26373,0.21744
3095.19220,0.21944
3097.12067,0.22659
3099.04914,0.23269
3100.97760,0.23258
3102.90607,0.22784
3104.83454,0.22844
3106.76301,0.23607
3108.69148,0.23792
3110.61995,0.22965
3112.54842,0.22082
3114.47688,0.21899
3116.40535,0.21977
3118.33382,0.21669
3120.26229,0.21221
3122.19076,0.21308
3124.11923,0.22236
3126.04770,0.23415
3127.97617,0.24064
3129.90463,0.24136
3131.83310,0.23983
3133.76157,0.23884
3135.69004,0.23881
3137.61851,0.23471
3139.54698,0.22434
3141.47545,0.21582
3143.40391,0.21195
3145.33238,0.20856
3147.26085,0.20859
3149.18932,0.21683
3151.11779,0.22970
3153.04626,0.24059
3154.97473,0.24720
3156.90320,0.24715
3158.83166,0.24292
3160.76013,0.24225
3162.68860,0.24474
3164.61707,0.24508
3166.54554,0.24139
3168.47401,0.23568
3170.40248,0.23162
3172.33094,0.22972
3174.25941,0.22736
3176.18788,0.22745
3178.11635,0.23513
3180.04482,0.24432
3181.97329,0.24912
3183.90176,0.25326
3185.83022,0.25581
3187.75869,0.25258
3189.68716,0.24750
3191.61563,0.24157
3193.54410,0.23214
3195.47257,0.22596
3197.40104,0.22601
3199.32951,0.22527
3201.25797,0.22358
3203.18644,0.22790
3205.11491,0.23669
3207.04338,0.23984
3208.97185,0.23782
3210.90032,0.23950
3212.82879,0.24460
3214.75725,0.24648
3216.68572,0.24183
3218.61419,0.23137
3220.54266,0.22103
3222.47113,0.21948
3224.39960,0.22362
3226.32807,0.22197
3228.25654,0.21489
3230.18500,0.21331
3232.11347,0.22028
3234.04194,0.22806
3235.97041,0.23235
3237.89888,0.23350
3239.82735,0.22918
3241.75582,0.22212
3243.68428,0.21822
3245.61275,0.21661
3247.54122,0.21505
3249.46969,0.21326
3251.39816,0.21412
3253.32663,0.21949
3255.25510,0.22659
3257.18357,0.23378
3259.11203,0.23713
3261.04050,0.23695
3262.96897,0.23876
3264.89744,0.23909
3266.82591,0.23648
3268.75438,0.23720
3270.68285,0.23865
3272.61131,0.23380
3274.53978,0.22570
3276.46825,0.22030
3278.39672,0.21994
3280.32519,0.22314
3282.25366,0.22726
3284.18213,0.23343
3286.11060,0.23833
3288.03906,0.23835
3289.96753,0.23811
3291.89600,0.23890
3293.82447,0.23901
3295.75294,0.23765
3297.68141,0.23207
3299.60988,0.22578
3301.53834,0.22523
3303.46681,0.22699
3305.39528,0.22560
3307.32375,0.22105
3309.25222,0.21702
3311.18069,0.21742
3313.10916,0.22008
3315.03763,0.22286
3316.96609,0.22634
3318.89456,0.22920
3320.82303,0.23082
3322.75150,0.23133
3324.67997,0.23164
3326.60844,0.23031
3328.53691,0.22438
3330.46537,0.21751
3332.39384,0.21358
3334.32231,0.21370
3336.25078,0.21934
3338.17925,0.22706
3340.10772,0.23508
3342.03619,0.24572
3343.96466,0.25300
3345.89312,0.25036
3347.82159,0.24439
3349.75006,0.24310
3351.67853,0.24362
3353.60700,0.23746
3355.53547,0.22432
3357.46394,0.21695
3359.39240,0.22077
3361.32087,0.22366
3363.24934,0.22019
3365.17781,0.22006
3367.10628,0.22609
3369.03475,0.23533
3370.96322,0.24797
3372.89168,0.25579
3374.82015,0.25047
3376.74862,0.24013
3378.67709,0.23523
3380.60556,0.23308
3382.53403,0.22972
3384.46250,0.22370
3386.39097,0.21584
3388.31943,0.21688
3390.24790,0.22653
3392.17637,0.23319
3394.10484,0.23635
3396.03331,0.23962
3397.96178,0.24079
3399.89025,0.23628
3401.81871,0.23131
3403.74718,0.23133
3405.67565,0.23154
3407.60412,0.22724
3409.53259,0.21989
3411.46106,0.21296
3413.38953,0.20913
3415.31800,0.21170
3417.24646,0.21915
3419.17493,0.22511
3421.10340,0.22884
3423.03187,0.23375
3424.96034,0.23897
3426.88881,0.24310
3428.81728,0.24580
3430.74574,0.24124
3432.67421,0.22834
3434.60268,0.21768
3436.53115,0.21620
3438.45962,0.21814
3440.38809,0.21631
3442.31656,0.21348
3444.24503,0.21410
3446.17349,0.21829
3448.10196,0.22464
3450.03043,0.22746
3451.95890,0.22446
3453.88737,0.22198
3455.81584,0.22430
3457.74431,0.22757
3459.67277,0.22557
3461.60124,0.21917
3463.52971,0.21393
3465.45818,0.20946
3467.38665,0.20467
3469.31512,0.20102
3471.24359,0.20169
3473.17206,0.21151
3475.10052,0.22583
3477.02899,0.23297
3478.95746,0.23021
3480.88593,0.22131
3482.81440,0.21145
3484.74287,0.20839
3486.67134,0.21018
3488.59980,0.20692
3490.52827,0.19793
3492.45674,0.19000
3494.38521,0.18809
3496.31368,0.19202
3498.24215,0.19779
3500.17062,0.20551
3502.09909,0.21326
3504.02755,0.21235
3505.95602,0.20619
3507.88449,0.20553
3509.81296,0.20894
3511.74143,0.20758
3513.66990,0.19799
3515.59837,0.18499
3517.52683,0.17776
3519.45530,0.18095
3521.38377,0.18715
3523.31224,0.18806
3525.24071,0.18771
3527.16918,0.19221
3529.09765,0.19561
3531.02611,0.19343
3532.95458,0.19300
3534.88305,0.19720
3536.81152,0.20077
3538.73999,0.19905
3540.66846,0.19501
3542.59693,0.19336
3544.52540,0.19038
3546.45386,0.18231
3548.38233,0.17656
3550.31080,0.17951
3552.23927,0.18612
3554.16774,0.18923
3556.09621,0.19006
3558.02468,0.19128
3559.95314,0.19087
3561.88161,0.18844
3563.81008,0.18871
3565.73855,0.18955
3567.66702,0.18203
3569.59549,0.17249
3571.52396,0.16859
3573.45243,0.16894
3575.38089,0.17075
3577.30936,0.17092
3579.23783,0.17073
3581.16630,0.17178
3583.09477,0.17385
3585.02324,0.17882
3586.95171,0.18529
3588.88017,0.18601
3590.80864,0.18260
3592.73711,0.17927
3594.66558,0.17663
3596.59405,0.17562
3598.52252,0.17250
3600.45099,0.16374
3602.37946,0.15416
3604.30792,0.15030
3606.23639,0.15398
3608.16486,0.16522
3610.09333,0.17647
3612.02180,0.17913
3613.95027,0.17578
3615.87874,0.17443
3617.80720,0.17580
3619.73567,0.16829
3621.66414,0.15471
3623.59261,0.15086
3625.52108,0.15486
3627.44955,0.16156
3629.37802,0.16176
3631.30649,0.15138
3633.23495,0.14737
3635.16342,0.14999
3637.09189,0.15238
3639.02036,0.15648
3640.94883,0.16327
3642.87730,0.16750
3644.80577,0.16874
3646.73423,0.16908
3648.66270,0.16330
3650.59117,0.15045
3652.51964,0.14307
3654.44811,0.14016
3656.37658,0.13718
3658.30505,0.13473
3660.23352,0.13675
3662.16198,0.14333
3664.09045,0.15016
3666.01892,0.15487
3667.94739,0.16102
3669.87586,0.16949
3671.80433,0.17098
3673.73280,0.16527
3675.66126,0.15655
3677.58973,0.14814
3679.51820,0.14188
3681.44667,0.13981
3683.37514,0.14296
3685.30361,0.14724
3687.23208,0.14633
3689.16055,0.14228
3691.08901,0.14492
3693.01748,0.14913
3694.94595,0.15416
3696.87442,0.15964
3698.80289,0.15888
3700.73136,0.15195
3702.65983,0.14392
3704.58829,0.13550
3706.51676,0.12655
3708.44523,0.12404
3710.37370,0.13599
3712.30217,0.14896
3714.23064,0.14778
3716.15911,0.14472
3718.08757,0.14506
3720.01604,0.14717
3721.94451,0.15194
3723.87298,0.15485
3725.80145,0.14808
3727.72992,0.13925
3729.65839,0.13633
3731.58686,0.13753
3733.51532,0.14215
3735.44379,0.14557
3737.37226,0.14352
3739.30073,0.14241
3741.22920,0.14720
3743.15767,0.15934
3745.08614,0.17158
3747.01460,0.17381
3748.94307,0.17849
3750.87154,0.18852
3752.80001,0.18330
3754.72848,0.16941
3756.65695,0.15940
3758.58542,0.15129
3760.51389,0.14313
3762.44235,0.13871
3764.37082,0.13533
3766.29929,0.13129
3768.22776,0.13579
3770.15623,0.14547
3772.08470,0.14619
3774.01317,0.14293
3775.94163,0.14357
3777.87010,0.14616
3779.79857,0.14499
3781.72704,0.14130
3783.65551,0.13926
3785.58398,0.13733
3787.51245,0.13200
3789.44092,0.12605
3791.36938,0.12667
3793.29785,0.13276
3795.22632,0.13901
3797.15479,0.14436
3799.08326,0.14965
3801.01173,0.15375
3802.94020,0.15359
3804.86866,0.15540
3806.79713,0.15707
3808.72560,0.14717
3810.65407,0.13459
3812.58254,0.12954
3814.51101,0.13013
3816.43948,0.13550
3818.36795,0.14469
3820.29641,0.14857
3822.22488,0.14199
3824.15335,0.13805
3826.08182,0.14139
3828.01029,0.14660
3829.93876,0.15006
3831.86723,0.15087
3833.79569,0.15027
3835.72416,0.14940
3837.65263,0.14529
3839.58110,0.14217
3841.50957,0.14207
3843.43804,0.13742
3845.36651,0.12991
3847.29498,0.12731
3849.22344,0.13122
3851.15191,0.14165
3853.08038,0.16255
3855.00885,0.16885
3856.93732,0.15474
3858.86579,0.14525
3860.79426,0.14510
3862.72272,0.14633
3864.65119,0.14114
3866.57966,0.13245
3868.50813,0.12407
3870.43660,0.11996
3872.36507,0.12221
3874.29354,0.12892
3876.22200,0.14035
3878.15047,0.15217
3880.07894,0.15706
3882.00741,0.15455
3883.93588,0.15513
3885.86435,0.15323
3887.79282,0.14498
3889.72129,0.13796
3891.64975,0.13225
3893.57822,0.12884
3895.50669,0.12776
3897.43516,0.12648
3899.36363,0.12609
3901.29210,0.12826
3903.22057,0.13122
3905.14903,0.13480
3907.07750,0.13817
3909.00597,0.13934
3910.93444,0.13728
3912.86291,0.13223
3914.79138,0.12644
3916.71985,0.12360
3918.64832,0.12148
3920.57678,0.11402
3922.50525,0.11120
3924.43372,0.12194
3926.36219,0.13096
3928.29066,0.12684
3930.21913,0.12142
3932.14760,0.12554
3934.07606,0.13282
3936.00453,0.13474
3937.93300,0.13401
3939.86147,0.13451
3941.78994,0.13165
3943.71841,0.12274
3945.64688,0.11567
3947.57535,0.11569
3949.50381,0.11953
3951.43228,0.11818
3953.36075,0.11466
3955.28922,0.11785
3957.21769,0.12321
3959.14616,0.12440
3961.07463,0.12303
3963.00309,0.12148
3964.93156,0.12165
3966.86003,0.12321
3968.78850,0.12290
3970.71697,0.11972
3972.64544,0.11689
3974.57391,0.11670
3976.50238,0.11418
3978.43084,0.10702
3980.35931,0.10230
3982.28778,0.10479
3984.21625,0.11259
3986.14472,0.12120
3988.07319,0.12681
3990.00166,0.13138
3991.93012,0.13639
3993.85859,0.13414
3995.78706,0.12339
3997.71553,0.11489
3999.64400,0.11097
4001.57247,0.10688
4003.50094,0.10247
4005.42941,0.09793
4007.35787,0.09613
4009.28634,0.10128
4011.21481,0.10991
4013.14328,0.11908
4015.07175,0.12893
4017.00022,0.13352
4018.92869,0.12990
4020.85715,0.12448
4022.78562,0.11928
4024.71409,0.11282
4026.64256,0.10785
4028.57103,0.10322
4030.49950,0.09726
4032.42797,0.09547
4034.35644,0.10038
4036.28490,0.10645
4038.21337,0.10970
4040.14184,0.11037
4042.07031,0.11009
4043.99878,0.11042
4045.92725,0.11157
4047.85572,0.11304
4049.78418,0.11249
4051.71265,0.11064
4053.64112,0.10876
4055.56959,0.10301
4057.49806,0.09423
4059.42653,0.09150
4061.35500,0.09866
4063.28346,0.10713
4065.21193,0.11271
4067.14040,0.11675
4069.06887,0.11517
4070.99734,0.11006
4072.92581,0.10875
4074.85428,0.10771
4076.78275,0.10140
4078.71121,0.09730
4080.63968,0.10049
4082.56815,0.10309
4084.49662,0.09939
4086.42509,0.09346
4088.35356,0.09204
4090.28203,0.09698
4092.21049,0.10502
4094.13896,0.11243
4096.06743,0.11804
4097.99590,0.11671
4099.92437,0.10703
4101.85284,0.10180
4103.78131,0.10402
4105.70978,0.10175
4107.63824,0.09391
4109.56671,0.08953
4111.49518,0.09205
4113.42365,0.09717
4115.35212,0.09884
4117.28059,0.09751
4119.20906,0.09909
4121.13752,0.10453
4123.06599,0.10913
4124.99446,0.11021
4126.92293,0.11064
4128.85140,0.11093
4130.77987,0.10637
4132.70834,0.09719
4134.63681,0.09125
4136.56527,0.09296
4138.49374,0.09561
4140.42221,0.09573
4142.35068,0.09655
4144.27915,0.09694
4146.20762,0.09985
4148.13609,0.10756
4150.06455,0.11113
4151.99302,0.10607
4153.92149,0.10005
4155.84996,0.09932
4157.77843,0.09935
4159.70690,0.09608
4161.63537,0.09280
4163.56384,0.09294
4165.49230,0.09597
4167.42077,0.09568
4169.34924,0.09198
4171.27771,0.09276
4173.20618,0.09526
4175.13465,0.09713
4177.06312,0.10157
4178.99158,0.10182
4180.92005,0.09667
4182.84852,0.09420
4184.77699,0.09185
4186.70546,0.08630
4188.63393,0.08605
4190.56240,0.09346
4192.49087,0.09637
4194.41933,0.08849
4196.34780,0.07647
4198.27627,0.07087
4200.20474,0.07680
4202.13321,0.08819
4204.06168,0.09634
4205.99015,0.09765
4207.91861,0.09186
4209.84708,0.08046
4211.77555,0.07102
4213.70402,0.06866
4215.63249,0.06775
4217.56096,0.06797
4219.48943,0.07221
4221.41789,0.07865
4223.34636,0.08690
4225.27483,0.09109
4227.20330,0.08727
4229.13177,0.08508
4231.06024,0.08895
4232.98871,0.09092
4234.91718,0.08763
4236.84564,0.08226
4238.77411,0.07695
4240.70258,0.07286
4242.63105,0.07151
4244.55952,0.07187
4246.48799,0.07046
4248.41646,0.07076
4250.34492,0.07540
4252.27339,0.07708
4254.20186,0.07372
4256.13033,0.07444
4258.05880,0.08113
4259.98727,0.08539
4261.91574,0.08739
4263.84421,0.08605
4265.77267,0.07418
4267.70114,0.05780
4269.62961,0.04684
4271.55808,0.04419
4273.48655,0.04916
4275.41502,0.05753
4277.34349,0.06454
4279.27195,0.06752
4281.20042,0.07032
4283.12889,0.07505
4285.05736,0.07521
4286.98583,0.07172
4288.91430,0.07030
4290.84277,0.06973
4292.77124,0.06963
4294.69970,0.06894
4296.62817,0.06333
4298.55664,0.05467
4300.48511,0.04952
4302.41358,0.05029
4304.34205,0.05615
4306.27052,0.06340
4308.19898,0.06610
4310.12745,0.06605
4312.05592,0.06755
4313.98439,0.06536
4315.91286,0.05815
4317.84133,0.05366
4319.76980,0.05281
4321.69827,0.05173
4323.62673,0.04854
4325.55520,0.04440
4327.48367,0.04698
4329.41214,0.05694
4331.34061,0.06390
4333.26908,0.06546
4335.19755,0.06485
4337.12601,0.06112
4339.05448,0.05990
4340.98295,0.06098
4342.91142,0.05499
4344.83989,0.05003
4346.76836,0.05083
4348.69683,0.04518
4350.62530,0.03763
4352.55376,0.04027
4354.48223,0.04823
4356.41070,0.05432
4358.33917,0.05677
4360.26764,0.05626
4362.19611,0.05748
4364.12458,0.06037
4366.05304,0.06121
4367.98151,0.05754
4369.90998,0.05081
4371.83845,0.04740
4373.76692,0.04471
4375.69539,0.03685
4377.62386,0.02947
4379.55232,0.02891
4381.48079,0.03293
4383.40926,0.03794
4385.33773,0.04683
4387.26620,0.06041
4389.19467,0.06514
4391.12314,0.05775
4393.05161,0.05616
4394.98007,0.06186
4396.90854,0.06283
4398.83701,0.05860
4400.76548,0.04903
4402.69395,0.03636
4404.62242,0.03060
4406.55089,0.03171
4408.47935,0.03487
4410.40782,0.04042
4412.33629,0.04379
4414.26476,0.04231
4416.19323,0.04047
4418.12170,0.03988
4420.05017,0.04157
4421.97864,0.04799
4423.90710,0.05476
4425.83557,0.05593
4427.76404,0.05353
4429.69251,0.04869
4431.62098,0.04237
4433.54945,0.03648
4435.47792,0.02514
4437.40638,0.01440
4439.33485,0.01800
4441.26332,0.02816
4443.19179,0.03598
4445.12026,0.04318
4447.04873,0.04937
4448.97720,0.05469
4450.90567,0.05241
4452.83413,0.04021
4454.76260,0.02890
4456.69107,0.02269
4458.61954,0.02018
4460.54801,0.01876
4462.47648,0.01763
4464.40495,0.02070
4466.33341,0.02669
4468.26188,0.03397
4470.19035,0.04402
4472.11882,0.05148
4474.04729,0.05142
4475.97576,0.04367
4477.90423,0.02935
4479.83270,0.01733
4481.76116,0.01196
4483.68963,0.00819
4485.61810,0.00742
4487.54657,0.00910
4489.47504,0.00894
4491.40351,0.01254
4493.33198,0.02266
4495.26044,0.03318
4497.18891,0.04071
4499.11738,0.04256
4501.04585,0.04049
4502.97432,0.04173
4504.90279,0.04675
4506.83126,0.04578
4508.75973,0.03258
4510.68819,0.01645
4512.61666,0.00686
4514.54513,0.00328
4516.47360,0.00580
4518.40207,0.01638
4520.33054,0.03228
4522.25901,0.04364
4524.18747,0.04465
4526.11594,0.03846
4528.04441,0.02765
4529.97288,0.01756
4531.90135,0.01742
4533.82982,0.02734
4535.75829,0.03392
4537.68676,0.02726
4539.61522,0.01438
4541.54369,0.00502
4543.47216,0.00192
4545.40063,0.00513
4547.32910,0.01534
4549.25757,0.02995
4551.18604,0.03939
4553.11450,0.03842
4555.04297,0.03166
4556.97144,0.02338
4558.89991,0.01364
4560.82838,0.00549
4562.75685,0.00391
4564.68532,0.00683
4566.61378,0.00494
4568.54225,-0.00321
4570.47072,-0.00433
4572.39919,0.00283
4574.32766,0.00714
4576.25613,0.01249
4578.18460,0.02307
4580.11307,0.03079
4582.04153,0.03529
4583.97000,0.03641
4585.89847,0.02245
4587.82694,0.00346
4589.75541,-0.00017
4591.68388,0.00254
4593.61235,0.00170
4595.54081,0.00301
4597.46928,0.00764
4599.39775,0.01266
4601.32622,0.01779
4603.25469,0.02363
4605.18316,0.02803
4607.11163,0.02985
4609.04010,0.03008
4610.96856,0.02503
4612.89703,0.01164
4614.82550,-0.00339
4616.75397,-0.01274
4618.68244,-0.01290
4620.61091,-0.00468
4622.53938,0.00542
4624.46784,0.01598
4626.39631,0.02378
4628.32478,0.02181
4630.25325,0.01940
4632.18172,0.02553
4634.11019,0.02382
4636.03866,0.00725
4637.96713,-0.00576
4639.89559,-0.00697
4641.82406,-0.00106
4643.75253,0.00170
4645.68100,-0.00506
4647.60947,-0.00946
4649.53794,-0.00844
4651.46641,-0.00748
4653.39487,-0.00098
4655.32334,0.00738
4657.25181,0.01413
4659.18028,0.02264
4661.10875,0.02647
4663.03722,0.02505
4664.96569,0.02149
4666.89416,0.01144
4668.82262,0.00003
4670.75109,-0.00016
4672.67956,0.00769
4674.60803,0.00962
4676.53650,0.00611
4678.46497,0.01024
4680.39344,0.02256
4682.32190,0.02969
4684.25037,0.03043
4686.17884,0.03025
4688.10731,0.02358
4690.03578,0.01248
4691.96425,0.00743
4693.89272,0.00480
4695.82119,-0.00146
4697.74965,-0.00608
4699.67812,-0.00971
4701.60659,-0.01526
4703.53506,-0.01497
4705.46353,-0.00508
4707.39200,0.00895
4709.32047,0.02018
4711.24893,0.02848
4713.17740,0.03402
4715.10587,0.03075
4717.03434,0.02455
4718.96281,0.01930
4720.89128,0.00441
4722.81975,-0.01329
4724.74821,-0.01902
4726.67668,-0.01445
4728.60515,-0.00470
4730.53362,0.00307
4732.46209,0.00781
4734.39056,0.01671
4736.31903,0.02299
4738.24750,0.02152
4740.17596,0.02108
4742.10443,0.02047
4744.03290,0.01604
4745.96137,0.01841
4747.88984,0.02657
4749.81831,0.01928
4751.74678,-0.00323
4753.67524,-0.01584
4755.60371,-0.01029
4757.53218,0.00295
4759.46065,0.01934
4761.38912,0.02901
4763.31759,0.01535
4765.24606,-0.00514
4767.17453,-0.00055
4769.10299,0.02033
4771.03146,0.02844
4772.95993,0.02303
4774.88840,0.01735
4776.81687,0.01293
4778.74534,0.01209
4780.67381,0.01465
4782.60227,0.01304
4784.53074,0.00692
4786.45921,0.00001
4788.38768,0.00104
4790.31615,0.01210
4792.24462,0.02054
4794.17309,0.02350
4796.10156,0.02348
4798.03002,0.01652
4799.95849,0.00638
4801.88696,0.00284
4803.81543,0.00434
4805.74390,-0.00090
4807.67237,-0.01299
4809.60084,-0.01931
4811.52930,-0.01792
4813.45777,-0.01637
4815.38624,-0.01014
4817.31471,0.01003
4819.24318,0.03385
4821.17165,0.03866
4823.10012,0.01933
4825.02859,-0.00322
4826.95705,-0.01192
4828.88552,-0.00809
4830.81399,-0.00305
4832.74246,-0.00926
4834.67093,-0.01866
4836.59940,-0.01653
4838.52787,-0.00652
4840.45633,0.00439
4842.38480,0.00973
4844.31327,0.00382
4846.24174,-0.00591
4848.17021,-0.00263
4850.09868,0.01314
4852.02715,0.01935
4853.95562,0.00693
4855.88408,-0.01279
4857.81255,-0.02410
4859.74102,-0.01989
4861.66949,-0.00694
4863.59796,0.00926
4865.52643,0.01946
4867.45490,0.01304
4869.38336,0.00591
4871.31183,0.01127
4873.24030,0.01781
4875.16877,0.01137
4877.09724,-0.01210
4879.02571,-0.02733
4880.95418,-0.01545
4882.88265,-0.00030
4884.81111,0.00336
4886.73958,0.00464
4888.66805,0.01332
4890.59652,0.03023
4892.52499,0.03957
4894.45346,0.03380
4896.38193,0.02483
4898.31039,0.01963
4900.23886,0.01720
4902.16733,0.01576
4904.09580,0.01544
4906.02427,0.01763
4907.95274,0.01802
4909.88121,0.01596
4911.80967,0.01577
4913.73814,0.01253
4915.66661,0.00717
4917.59508,0.01106
4919.52355,0.01540
4921.45202,0.00749
4923.38049,0.00776
4925.30896,0.02374
4927.23742,0.02897
4929.16589,0.02217
4931.09436,0.02246
4933.02283,0.02159
4934.95130,0.00813
4936.87977,-0.00469
4938.80824,-0.00655
4940.73670,0.00458
4942.66517,0.01538
4944.59364,0.00853
4946.52211,-0.00053
4948.45058,0.00698
4950.37905,0.01884
4952.30752,0.01828
4954.23599,0.01068
4956.16445,0.00787
4958.09292,0.01005
4960.02139,0.01143
4961.94986,0.00660
4963.87833,0.00418
4965.80680,0.00608
4967.73527,-0.00182
4969.66373,-0.01327
4971.59220,-0.01501
4973.52067,-0.01220
4975.44914,-0.00769
4977.37761,0.00895
4979.30608,0.03197
4981.23455,0.03441
4983.16302,0.01814
4985.09148,0.00571
4987.01995,-0.00516
4988.94842,-0.01958
4990.87689,-0.03325
4992.80536,-0.03955
4994.73383,-0.02947
4996.66230,-0.00890
4998.59076,0.01170
5000.51923,0.02789
5002.44770,0.03584
5004.37617,0.03798
5006.30464,0.03593
5008.23311,0.02782
5010.16158,0.01590
5012.09005,0.00682
5014.01851,0.00361
5015.94698,0.00709
5017.87545,0.01556
5019.80392,0.01084
5021.73239,-0.00830
5023.66086,-0.00622
5025.58933,0.01636
5027.51779,0.01872
5029.44626,0.00691
5031.37473,0.01162
5033.30320,0.02759
5035.23167,0.03925
5037.16014,0.04770
5039.08861,0.05129
5041.01708,0.05244
5042.94554,0.06009
5044.87401,0.05743
5046.80248,0.02992
5048.73095,-0.00469
5050.65942,-0.02208
5052.58789,-0.00879
5054.51636,0.02167
5056.44482,0.04830
5058.37329,0.06441
5060.30176,0.06746
5062.23023,0.06927
5064.15870,0.07603
5066.08717,0.06975
5068.01564,0.04868
5069.94410,0.02574
5071.87257,0.00633
5073.80104,0.00156
5075.72951,0.01192
5077.65798,0.01572
5079.58645,0.01269
5081.51492,0.02680
5083.44339,0.04395
5085.37185,0.03582
5087.30032,0.02383
5089.22879,0.03477
5091.15726,0.05358
5093.08573,0.05848
5095.01420,0.04250
5096.94267,0.01048
5098.87113,-0.01883
5100.79960,-0.03250
5102.72807,-0.03331
5104.65654,-0.02273
5106.58501,-0.00582
5108.51348,0.00897
5110.44195,0.03089
5112.37042,0.06236
5114.29888,0.06898
5116.22735,0.04036
5118.15582,0.01616
5120.08429,0.01299
5122.01276,0.01492
5123.94123,0.01799
5125.86970,0.02144
5127.79816,0.01378
5129.72663,0.00333
5131.65510,0.00801
5133.58357,0.01726
5135.51204,0.02245
5137.44051,0.03311
5139.36898,0.05499
5141.29745,0.08281
5143.22591,0.09338
5145.15438,0.08046
5147.08285,0.06567
5149.01132,0.05577
5150.93979,0.05026
5152.86826,0.04936
5154.79673,0.04412
5156.72519,0.03667
5158.65366,0.03765
5160.58213,0.03953
5162.51060,0.03413
5164.43907,0.03653
5166.36754,0.04940
5168.29601,0.05844
5170.22448,0.06858
5172.15294,0.07490
5174.08141,0.06044
5176.00988,0.04319
5177.93835,0.04627
5179.86682,0.05045
5181.79529,0.03870
5183.72376,0.03259
5185.65222,0.04142
5187.58069,0.05114
5189.50916,0.05879
5191.43763,0.05768
5193.36610,0.04616
5195.29457,0.04679
5197.22304,0.05807
5199.15151,0.05770
5201.07997,0.05358
5203.00844,0.04435
5204.93691,0.01751
5206.86538,-0.00231
5208.79385,0.00644
5210.72232,0.02635
5212.65079,0.04078
5214.57925,0.05086
5216.50772,0.07012
5218.43619,0.09296
5220.36466,0.09782
5222.29313,0.08491
5224.22160,0.06986
5226.15007,0.05328
5228.07854,0.03411
5230.00700,0.03297
5231.93547,0.04880
5233.86394,0.05385
5235.79241,0.03712
5237.72088,0.01428
5239.64935,0.01295
5241.57782,0.03332
5243.50628,0.04215
5245.43475,0.03588
5247.36322,0.06236
5249.29169,0.11060
5251.22016,0.12000
5253.14863,0.10667
5255.07710,0.09293
5257.00556,0.06665
5258.93403,0.03633
5260.86250,0.02037
5262.79097,0.02276
5264.71944,0.03436
5266.64791,0.04401
5268.57638,0.04130
5270.50485,0.03400
5272.43331,0.04701
5274.36178,0.07307
5276.29025,0.07964
5278.21872,0.06550
5280.14719,0.05495
5282.07566,0.05029
5284.00413,0.04103
5285.93259,0.02629
5287.86106,0.00510
5289.78953,-0.00655
5291.71800,0.01284
5293.64647,0.03938
5295.57494,0.05247
5297.50341,0.06006
5299.43188,0.07411
5301.36034,0.09166
5303.28881,0.08645
5305.21728,0.06599
5307.14575,0.06277
5309.07422,0.07500
5311.00269,0.08190
5312.93116,0.06643
5314.85962,0.03382
5316.78809,0.01730
5318.71656,0.02375
5320.64503,0.02628
5322.57350,0.01146
5324.50197,0.00154
5326.43044,0.02616
5328.35891,0.06321
5330.28737,0.08297
5332.21584,0.09440
5334.14431,0.09253
5336.07278,0.07249
5338.00125,0.05239
5339.92972,0.04784
5341.85819,0.04939
5343.78665,0.04530
5345.71512,0.03891
5347.64359,0.03529
5349.57206,0.04337
5351.50053,0.07059
5353.42900,0.09432
5355.35747,0.08734
5357.28594,0.07215
5359.21440,0.07773
5361.14287,0.09149
5363.07134,0.08399
5364.99981,0.06336
5366.92828,0.04467
5368.85675,0.02189
5370.78522,0.00747
5372.71368,0.01451
5374.64215,0.03350
5376.57062,0.04198
5378.49909,0.03799
5380.42756,0.04537
5382.35603,0.06509
5384.28450,0.08169
5386.21297,0.09126
5388.14143,0.10087
5390.06990,0.10276
5391.99837,0.08508
5393.92684,0.05226
5395.85531,0.02434
5397.78378,0.01363
5399.71225,0.01918
5401.64071,0.03733
5403.56918,0.05798
5405.49765,0.07425
5407.42612,0.09021
5409.35459,0.10833
5411.28306,0.11864
5413.21153,0.10624
5415.13999,0.08235
5417.06846,0.06349
5418.99693,0.04694
5420.92540,0.03478
5422.85387,0.02918
5424.78234,0.02639
5426.71081,0.02918
5428.63928,0.04107
5430.56774,0.06559
5432.49621,0.10612
5434.42468,0.14201
5436.35315,0.14201
5438.28162,0.11816
5440.21009,0.10086
5442.13856,0.09496
5444.06702,0.07701
5445.99549,0.03567
5447.92396,-0.00724
5449.85243,-0.02364
5451.78090,-0.00773
5453.70937,0.02153
5455.63784,0.03983
5457.56631,0.05121
5459.49477,0.07931
5461.42324,0.09605
5463.35171,0.07656
5465.28018,0.05691
5467.20865,0.05108
5469.13712,0.04548
5471.06559,0.04200
5472.99405,0.04706
5474.92252,0.06284
5476.85099,0.06333
5478.77946,0.03374
5480.70793,0.01725
5482.63640,0.04227
5484.56487,0.07850
5486.49334,0.09803
5488.42180,0.10414
5490.35027,0.09742
5492.27874,0.08804
5494.20721,0.09566
5496.13568,0.11054
5498.06415,0.11068
5499.99262,0.08845
5501.92108,0.06167
5503.84955,0.04965
5505.77802,0.05788
5507.70649,0.08858
5509.63496,0.12081
5511.56343,0.13192
5513.49190,0.13007
5515.42037,0.12099
5517.34883,0.10323
5519.27730,0.08741
5521.20577,0.07803
5523.13424,0.07969
5525.06271,0.08359
5526.99118,0.07344
5528.91965,0.06947
5530.84811,0.08169
5532.77658,0.08354
5534.70505,0.06602
5536.63352,0.05673
5538.56199,0.08408
5540.49046,0.13321
5542.41893,0.16573
5544.34740,0.15755
5546.27586,0.12174
5548.20433,0.10430
5550.13280,0.12234
5552.06127,0.13503
5553.98974,0.11124
5555.91821,0.08083
5557.84668,0.07722
5559.77514,0.08422
5561.70361,0.07942
5563.63208,0.07310
5565.56055,0.09289
5567.48902,0.13264
5569.41749,0.14875
5571.34596,0.13052
5573.27443,0.10968
5575.20289,0.10209
5577.13136,0.09327
5579.05983,0.08347
5580.98830,0.08425
5582.91677,0.07807
5584.84524,0.05276
5586.77371,0.04375
5588.70217,0.06152
5590.63064,0.07166
5592.55911,0.07510
5594.48758,0.08836
5596.41605,0.10270
5598.34452,0.10551
5600.27299,0.10323
5602.20145,0.11275
5604.12992,0.11694
5606.05839,0.10236
5607.98686,0.09554
5609.91533,0.08308
5611.84380,0.03261
5613.77227,0.00222
5615.70074,0.04420
5617.62920,0.09654
5619.55767,0.11008
5621.48614,0.10717
5623.41461,0.08808
5625.34308,0.05894
5627.27155,0.05819
5629.20002,0.07267
5631.12848,0.06582
5633.05695,0.04521
5634.98542,0.04153
5636.91389,0.04926
5638.84236,0.03673
5640.77083,0.02676
5642.69930,0.05493
5644.62777,0.09740
5646.55623,0.11823
5648.48470,0.12764
5650.41317,0.12922
5652.34164,0.10309
5654.27011,0.07432
5656.19858,0.08250
5658.12705,0.11171
5660.05551,0.10738
5661.98398,0.05904
5663.91245,0.03301
5665.84092,0.06143
5667.76939,0.08702
5669.69786,0.08166
5671.62633,0.07340
5673.55480,0.07598
5675.48326,0.09800
5677.41173,0.12651
5679.34020,0.12922
5681.26867,0.11355
5683.19714,0.10163
5685.12561,0.09666
5687.05408,0.08735
5688.98254,0.07557
5690.91101,0.08055
5692.83948,0.09464
5694.76795,0.10699
5696.69642,0.13174
5698.62489,0.15495
5700.55336,0.15204
5702.48183,0.13424
5704.41029,0.11740
5706.33876,0.10610
5708.26723,0.10559
5710.19570,0.11269
5712.12417,0.08841
5714.05264,0.02736
5715.98111,-0.00644
5717.90957,-0.00457
5719.83804,-0.00149
5721.76651,0.01461
5723.69498,0.05519
5725.62345,0.10000
5727.55192,0.12320
5729.48039,0.11375
5731.40886,0.10084
5733.33732,0.09901
5735.26579,0.09218
5737.19426,0.08245
5739.12273,0.07084
5741.05120,0.06077
5742.97967,0.05203
5744.90814,0.03695
5746.83660,0.03777
5748.76507,0.06525
5750.69354,0.09945
5752.62201,0.10946
5754.55048,0.08583
5756.47895,0.08502
5758.40742,0.13357
5760.33588,0.15834
5762.26435,0.12206
5764.19282,0.08516
5766.12129,0.07647
5768.04976,0.06851
5769.97823,0.07103
5771.90670,0.10192
5773.83517,0.10859
5775.76363,0.08970
5777.69210,0.10517
5779.62057,0.14174
5781.54904,0.18267
5783.47751,0.20510
5785.40598,0.16222
5787.33445,0.08981
5789.26291,0.04836
5791.19138,0.05526
5793.11985,0.08840
5795.04832,0.09052
5796.97679,0.06859
5798.90526,0.07205
5800.83373,0.07557
5802.76220,0.05242
5804.69066,0.02513
5806.61913,0.01693
5808.54760,0.03537
5810.47607,0.06402
5812.40454,0.08089
5814.33301,0.08118
5816.26148,0.08678
5818.18994,0.11448
5820.11841,0.13880
5822.04688,0.12646
5823.97535,0.08078
5825.90382,0.04328
5827.83229,0.04462
5829.76076,0.05764
5831.68923,0.05989
5833.61769,0.07819
5835.54616,0.10307
5837.47463,0.11080
5839.40310,0.11677
5841.33157,0.11728
5843.26004,0.10092
5845.18851,0.07872
5847.11697,0.05853
5849.04544,0.04544
5850.97391,0.04560
5852.90238,0.05942
5854.83085,0.08847
5856.75932,0.11428
5858.68779,0.12330
5860.61626,0.14195
5862.54472,0.15496
5864.47319,0.12386
5866.40166,0.08580
5868.33013,0.06799
5870.25860,0.04848
5872.18707,0.04349
5874.11554,0.06601
5876.04400,0.08424
5877.97247,0.08505
5879.90094,0.08819
5881.82941,0.10407
5883.75788,0.12496
5885.68635,0.14027
5887.61482,0.14391
5889.54329,0.14450
5891.47175,0.17013
5893.40022,0.20305
5895.32869,0.17741
5897.25716,0.11016
5899.18563,0.07697
5901.11410,0.05589
5903.04257,0.01377
5904.97103,-0.00697
5906.89950,-0.00324
5908.82797,0.00936
5910.75644,0.04977
5912.68491,0.10210
5914.61338,0.12404
5916.54185,0.11497
5918.47032,0.10663
5920.39878,0.12930
5922.32725,0.16295
5924.25572,0.14572
5926.18419,0.07476
5928.11266,0.02742
5930.04113,0.03598
5931.96960,0.05008
5933.89806,0.03701
5935.82653,0.01255
5937.75500,0.02730
5939.68347,0.09117
5941.61194,0.16440
5943.54041,0.21464
5945.46888,0.19492
5947.39734,0.13634
5949.32581,0.11802
5951.25428,0.10711
5953.18275,0.08161
5955.11122,0.06495
5957.03969,0.04625
5958.96816,0.05718
5960.89663,0.09628
5962.82509,0.11467
5964.75356,0.13153
5966.68203,0.15266
5968.61050,0.15914
5970.53897,0.14894
5972.46744,0.11007
5974.39591,0.06971
5976.32437,0.05982
5978.25284,0.06815
5980.18131,0.08736
5982.10978,0.08986
5984.03825,0.03064
5985.96672,-0.03821
5987.89519,-0.02073
5989.82366,0.04729
5991.75212,0.09119
5993.68059,0.11268
5995.60906,0.11787
5997.53753,0.10714
5999.46600,0.08901
6001.39447,0.07062
6003.32294,0.08620
6005.25140,0.11178
6007.17987,0.07872
6009.10834,0.02805
6011.03681,0.00370
6012.96528,-0.00085
6014.89375,0.01173
6016.82222,0.03257
6018.75069,0.08458
6020.67915,0.14626
6022.60762,0.14507
6024.53609,0.10985
6026.46456,0.11825
6028.39303,0.16125
6030.32150,0.17063
6032.24997,0.13423
6034.17843,0.08719
6036.10690,0.06317
6038.03537,0.04959
6039.96384,0.01315
6041.89231,-0.01724
6043.82078,-0.01641
6045.74925,0.00416
6047.67772,0.05653
6049.60618,0.11926
6051.53465,0.13970
6053.46312,0.11838
6055.39159,0.06815
6057.32006,0.01913
6059.24853,0.01415
6061.17700,0.04150
6063.10546,0.06013
6065.03393,0.05721
6066.96240,0.05731
6068.89087,0.06323
6070.81934,0.06535
6072.74781,0.09359
6074.67628,0.13398
6076.60475,0.12869
6078.53321,0.08152
6080.46168,0.04288
6082.39015,0.05018
6084.31862,0.08163
6086.24709,0.09497
6088.17556,0.07070
6090.10403,0.02752
6092.03249,0.01303
6093.96096,0.02453
6095.88943,0.03548
6097.81790,0.04992
6099.74637,0.06715
6101.67484,0.09636
6103.60331,0.14355
6105.53177,0.18624
6107.46024,0.19468
6109.38871,0.16142
6111.31718,0.13283
6113.24565,0.11377
6115.17412,0.07033
6117.10259,0.04198
6119.03106,0.06092
6120.95952,0.08717
6122.88799,0.10451
6124.81646,0.13873
6126.74493,0.17497
6128.67340,0.17153
6130.60187,0.16394
6132.53034,0.17878
6134.45880,0.16861
6136.38727,0.13552
6138.31574,0.12017
6140.24421,0.08154
6142.17268,0.00616
6144.10115,-0.01331
6146.02962,0.01623
6147.95809,0.03587
6149.88655,0.05588
6151.81502,0.09746
6153.74349,0.14833
6155.67196,0.17953
6157.60043,0.19201
6159.52890,0.18995
6161.45737,0.16533
6163.38583,0.10015
6165.31430,0.01174
6167.24277,-0.03208
6169.17124,-0.01155
6171.09971,0.04775
6173.02818,0.11239
6174.95665,0.15316
6176.88512,0.15216
6178.81358,0.12604
6180.74205,0.10822
6182.67052,0.11199
6184.59899,0.14445
6186.52746,0.16761
6188.45593,0.12172
6190.38440,0.04894
6192.31286,0.01492
6194.24133,0.00624
6196.16980,-0.00737
6198.09827,-0.00518
6200.02674,0.05411
6201.95521,0.12184
6203.88368,0.12394
6205.81215,0.08358
6207.74061,0.05441
6209.66908,0.06005
6211.59755,0.09349
6213.52602,0.09787
6215.45449,0.05191
6217.38296,0.00222
6219.31143,-0.00291
6221.23989,0.01473
6223.16836,0.02401
6225.09683,0.03166
6227.02530,0.04709
6228.95377,0.10418
6230.88224,0.20024
6232.81071,0.22240
6234.73918,0.15953
6236.66764,0.13909
6238.59611,0.16882
6240.52458,0.16469
6242.45305,0.08445
6244.38152,-0.03257
6246.30999,-0.07926
6248.23846,-0.03679
6250.16692,0.00911
6252.09539,0.02745
6254.02386,0.03196
6255.95233,0.02534
6257.88080,0.03676
6259.80927,0.09171
6261.73774,0.15741
6263.66621,0.20535
6265.59467,0.22212
6267.52314,0.17127
6269.45161,0.09890
6271.38008,0.07419
6273.30855,0.07218
6275.23702,0.06299
6277.16549,0.06616
6279.09395,0.07095
6281.02242,0.06804
6282.95089,0.09527
6284.87936,0.13718
6286.80783,0.16073
6288.73630,0.18138
6290.66477,0.17657
6292.59323,0.14620
6294.52170,0.14283
6296.45017,0.15848
6298.37864,0.14909
6300.30711,0.08222
6302.23558,-0.00758
6304.16405,-0.01868
6306.09252,0.01469
6308.02098,0.02099
6309.94945,0.04509
6311.87792,0.08524
6313.80639,0.10536
6315.73486,0.16222
6317.66333,0.23166
6319.59180,0.20423
6321.52026,0.10716
6323.44873,0.03384
6325.37720,-0.00613
6327.30567,-0.00983
6329.23414,0.02835
6331.16261,0.04854
6333.09108,0.05030
6335.01955,0.12188
6336.94801,0.19707
6338.87648,0.15815
6340.80495,0.08483
6342.73342,0.07036
6344.66189,0.07365
6346.59036,0.06180
6348.51883,0.07618
6350.44729,0.13824
6352.37576,0.16576
6354.30423,0.11429
6356.23270,0.07079
6358.16117,0.06482
6360.08964,0.03533
6362.01811,0.01647
6363.94658,0.05420
6365.87504,0.08124
6367.80351,0.06891
6369.73198,0.06852
6371.66045,0.10452
6373.58892,0.13209
6375.51739,0.11636
6377.44586,0.10204
6379.37432,0.10483
6381.30279,0.10051
6383.23126,0.10954
6385.15973,0.14106
6387.08820,0.12532
6389.01667,0.09129
6390.94514,0.12702
6392.87361,0.19612
6394.80207,0.23118
6396.73054,0.22682
6398.65901,0.16486
6400.58748,0.08211
6402.51595,0.05614
6404.44442,0.03959
6406.37289,-0.01331
6408.30135,-0.01514
6410.22982,0.02777
6412.15829,0.01446
6414.08676,-0.01719
6416.01523,0.01438
6417.94370,0.07682
6419.87217,0.09219
6421.80064,0.08029
6423.72910,0.08440
6425.65757,0.11351
6427.58604,0.15544
6429.51451,0.15651
6431.44298,0.07238
6433.37145,-0.03163
6435.29992,-0.05684
6437.22838,0.01102
6439.15685,0.10824
6441.08532,0.15107
6443.01379,0.10381
6444.94226,0.02718
6446.87073,0.01018
6448.79920,0.02967
6450.72766,0.06064
6452.65613,0.11979
6454.58460,0.15094
6456.51307,0.11495
6458.44154,0.07615
6460.37001,0.06153
6462.29848,0.02360
6464.22695,-0.03702
6466.15541,-0.06707
6468.08388,-0.04964
6470.01235,-0.00091
6471.94082,0.06826
6473.86929,0.13153
6475.79776,0.15664
6477.72623,0.13892
6479.65469,0.10998
6481.58316,0.06610
6483.51163,0.02534
6485.44010,0.03783
6487.36857,0.05951
6489.29704,0.04677
6491.22551,0.01086
6493.15398,-0.03738
6495.08244,-0.05884
6497.01091,-0.03796
6498.93938,0.04995
6500.86785,0.22472
6502.79632,0.35222
6504.72479,0.31943
6506.65326,0.20169
6508.58172,0.13482
6510.51019,0.14351
6512.43866,0.11485
6514.36713,0.03066
6516.29560,-0.01764
6518.22407,-0.00951
6520.15254,0.02867
6522.08101,0.08869
6524.00947,0.16343
6525.93794,0.22678
6527.86641,0.24089
6529.79488,0.20885
6531.72335,0.15618
6533.65182,0.07345
6535.58029,-0.03092
6537.50875,-0.08499
6539.43722,-0.08200
6541.36569,-0.10259
6543.29416,-0.12059
6545.22263,-0.07848
6547.15110,-0.03949
6549.07957,-0.01440
6551.00804,0.05070
6552.93650,0.11492
6554.86497,0.11426
6556.79344,0.10068
6558.72191,0.12324
6560.65038,0.15365
6562.57885,0.20300
6564.50732,0.25980
6566.43578,0.23717
6568.36425,0.14457
6570.29272,0.03673
6572.22119,-0.06245
6574.14966,-0.11967
6576.07813,-0.13173
6578.00660,-0.07996
6579.93507,0.04573
6581.86353,0.13718
6583.79200,0.12376
6585.72047,0.11185
6587.64894,0.14364
6589.57741,0.13424
6591.50588,0.05955
6593.43435,-0.02412
6595.36281,-0.05343
6597.29128,-0.02925
6599.21975,0.01330
6601.14822,0.03198
6603.07669,0.03177
6605.00516,0.06237
6606.93363,0.10730
6608.86210,0.13539
6610.79056,0.14257
6612.71903,0.12670
6614.64750,0.08718
6616.57597,0.04457
6618.50444,0.05874
6620.43291,0.09424
6622.36138,0.07099
6624.28984,0.02843
6626.21831,0.01451
6628.14678,-0.01007
6630.07525,-0.04484
6632.00372,-0.03283
6633.93219,0.04964
6635.86066,0.20576
6637.78912,0.32230
6639.71759,0.28097
6641.64606,0.14736
6643.57453,0.03806
6645.50300,0.01377
6647.43147,0.04479
6649.35994,0.04206
6651.28841,-0.01412
6653.21687,-0.07515
6655.14534,-0.09680
6657.07381,-0.03390
6659.00228,0.10467
6660.93075,0.21306
6662.85922,0.22339
6664.78769,0.17838
6666.71615,0.14985
6668.64462,0.15227
6670.57309,0.13540
6672.50156,0.08272
6674.43003,0.06534
6676.35850,0.08889
6678.28697,0.07969
6680.21544,0.06580
6682.14390,0.08179
6684.07237,0.07739
6686.00084,0.10162
6687.92931,0.18219
6689.85778,0.21590
6691.78625,0.21820
6693.71472,0.20718
6695.64318,0.16003
6697.57165,0.12507
6699.50012,0.10149
6701.42859,0.04351
6703.35706,-0.02997
6705.28553,-0.04309
6707.21400,0.03082
6709.14247,0.11637
6711.07093,0.13577
6712.99940,0.09353
6714.92787,0.07311
6716.85634,0.11333
6718.78481,0.17559
6720.71328,0.23543
6722.64175,0.21275
6724.57021,0.07261
6726.49868,-0.06425
6728.42715,-0.12259
6730.35562,-0.08767
6732.28409,0.02939
6734.21256,0.10339
6736.14103,0.03376
6738.06950,-0.05559
6739.99796,-0.00515
6741.92643,0.11562
6743.85490,0.13349
6745.78337,0.10181
6747.71184,0.08725
6749.64031,0.04158
6751.56878,-0.04244
6753.49724,-0.10403
6755.42571,-0.08415
6757.35418,-0.06813
6759.28265,-0.12732
6761.21112,-0.13786
6763.13959,-0.09131
6765.06806,-0.06163
6766.99653,0.01642
6768.92499,0.12301
6770.85346,0.17700
6772.78193,0.21670
6774.71040,0.24955
6776.63887,0.16111
6778.56734,-0.00165
6780.49581,-0.09116
6782.42427,-0.11425
6784.35274,-0.14573
6786.28121,-0.15167
6788.20968,-0.05905
6790.13815,0.08171
6792.06662,0.15149
6793.99509,0.14158
6795.92355,0.11085
6797.85202,0.08313
6799.78049,0.04781
6801.70896,-0.03041
6803.63743,-0.13983
6805.56590,-0.20771
6807.49437,-0.19156
6809.42284,-0.10622
6811.35130,-0.01699
6813.27977,0.01612
6815.20824,0.02153
6817.13671,0.03246
6819.06518,0.05609
6820.99365,0.11839
6822.92212,0.22484
6824.85058,0.28621
6826.77905,0.25818
6828.70752,0.16538
6830.63599,0.07265
6832.56446,0.05606
6834.49293,0.07482
6836.42140,0.04371
6838.34987,-0.01216
6840.27833,-0.03382
6842.20680,-0.01544
6844.13527,0.04958
6846.06374,0.10458
6847.99221,0.12500
6849.92068,0.14790
6851.84915,0.10977
6853.77761,0.03289
6855.70608,-0.01682
6857.63455,-0.03326
6859.56302,-0.03208
6861.49149,-0.04891
6863.41996,-0.09289
6865.34843,-0.06377
6867.27690,0.08292
6869.20536,0.22258
6871.13383,0.27315
6873.06230,0.24411
6874.99077,0.15396
6876.91924,0.01297
6878.84771,-0.08820
6880.77618,-0.09537
6882.70464,-0.12077
6884.63311,-0.15979
6886.56158,-0.13990
6888.49005,-0.04196
6890.41852,0.08767
6892.34699,0.15568
6894.27546,0.14699
6896.20393,0.12801
6898.13239,0.11864
6900.06086,0.11753
6901.98933,0.14245
6903.91780,0.16523
6905.84627,0.13387
6907.77474,0.01356
6909.70321,-0.15461
6911.63167,-0.25667
6913.56014,-0.19939
6915.48861,-0.04516
6917.41708,0.04344
6919.34555,0.04980
6921.27402,0.08791
6923.20249,0.10909
6925.13096,0.02506
6927.05942,-0.08202
6928.98789,-0.09352
6930.91636,0.00328
6932.84483,0.08946
6934.77330,0.02738
6936.70177,-0.12284
6938.63024,-0.24346
6940.55870,-0.26775
6942.48717,-0.20826
6944.41564,-0.11046
6946.34411,0.01054
6948.27258,0.08850
6950.20105,0.12596
6952.12952,0.18060
6954.05799,0.24255
6955.98645,0.28129
6957.91492,0.27220
6959.84339,0.22958
6961.77186,0.18480
6963.70033,0.11208
6965.62880,0.00839
6967.55727,-0.01900
6969.48573,0.05789
6971.41420,0.12667
6973.34267,0.18321
6975.27114,0.22663
6977.19961,0.25332
6979.12808,0.32643
6981.05655,0.36466
6982.98501,0.27410
6984.91348,0.12845
6986.84195,0.00844
6988.77042,-0.07638
6990.69889,-0.07822
6992.62736,0.00754
6994.55583,0.08885
6996.48430,0.08732
6998.41276,0.04707
7000.34123,0.09460
7002.26970,0.24943
7004.19817,0.34756
7006.12664,0.22335
7008.05511,0.04767
7009.98358,0.10497
7011.91204,0.24047
7013.84051,0.22837
7015.76898,0.17242
7017.69745,0.12860
7019.62592,0.01340
7021.55439,-0.03521
7023.48286,0.00238
7025.41133,-0.01851
7027.33979,-0.01905
7029.26826,-0.02809
7031.19673,-0.11826
7033.12520,-0.09912
7035.05367,0.03812
7036.98214,0.12705
7038.91061,0.11926
7040.83907,0.02019
7042.76754,-0.05840
7044.69601,-0.02752
7046.62448,-0.01475
7048.55295,-0.08319
7050.48142,-0.10041
7052.40989,-0.01324
7054.33836,0.02811
7056.26682,-0.05792
7058.19529,-0.13410
7060.12376,-0.06501
7062.05223,0.09950
7063.98070,0.22805
7065.90917,0.24845
7067.83764,0.14344
7069.76610,-0.10157
7071.69457,-0.27160
7073.62304,-0.16909
7075.55151,-0.01085
7077.47998,0.00238
7079.40845,-0.04500
7081.33692,0.02364
7083.26539,0.09574
7085.19385,0.00287
7087.12232,-0.08851
7089.05079,0.04117
7090.97926,0.26459
7092.90773,0.38618
7094.83620,0.38893
7096.76467,0.35558
7098.69313,0.20319
7100.62160,-0.06863
7102.55007,-0.20237
7104.47854,-0.09635
7106.40701,-0.01000
7108.33548,-0.13853
7110.26395,-0.23299
7112.19242,-0.15320
7114.12088,-0.00290
7116.04935,0.17986
7117.97782,0.31017
7119.90629,0.29080
7121.83476,0.33437
7123.76323,0.43434
7125.69170,0.37059
7127.62016,0.22580
7129.54863,0.16389
7131.47710,0.08832
7133.40557,-0.04614
7135.33404,-0.12558
7137.26251,-0.11235
7139.19098,-0.04942
7141.11944,0.00357
7143.04791,-0.00002
7144.97638,0.02525
7146.90485,0.18467
7148.83332,0.32320
7150.76179,0.27815
7152.69026,0.10357
7154.61873,0.01845
7156.54719,0.10385
7158.47566,0.17733
7160.40413,0.09313
7162.33260,-0.02555
7164.26107,-0.05486
7166.18954,-0.12647
7168.11801,-0.18220
7170.04647,-0.02558
7171.97494,0.21014
7173.90341,0.34014
7175.83188,0.33174
7177.76035,0.20915
7179.68882,0.10249
7181.61729,0.08978
7183.54576,0.15689
7185.47422,0.16495
7187.40269,0.06353
7189.33116,-0.04017
7191.25963,-0.05485
7193.18810,-0.02555
7195.11657,-0.00978
7197.04504,0.00021
7198.97350,0.02687
7200.90197,0.12059
7202.83044,0.25337
7204.75891,0.26647
7206.68738,0.18940
7208.61585,0.17886
7210.54432,0.18623
7212.47279,0.12829
7214.40125,-0.05348
7216.32972,-0.26712
7218.25819,-0.28020
7220.18666,-0.16656
7222.11513,-0.11649
7224.04360,-0.07475
7225.97207,0.02491
7227.90053,0.15459
7229.82900,0.23425
7231.75747,0.22330
7233.68594,0.22218
7235.61441,0.24355
7237.54288,0.16670
7239.47135,0.00620
7241.39982,-0.14419
7243.32828,-0.19029
7245.25675,-0.07215
7247.18522,0.13389
7249.11369,0.35974
7251.04216,0.45323
7252.97063,0.33660
7254.89910,0.25141
7256.82756,0.26744
7258.75603,0.23843
7260.68450,0.15264
7262.61297,0.14491
7264.54144,0.19267
7266.46991,0.15050
7268.39838,0.07789
7270.32685,0.07772
7272.25531,0.10534
7274.18378,0.10286
7276.11225,0.11727
7278.04072,0.18786
7279.96919,0.24293
7281.89766,0.14929
7283.82613,0.12496
7285.75459,0.23581
7287.68306,0.22573
7289.61153,0.00384
7291.54000,-0.15957
7293.46847,-0.07636
7295.39694,0.07162
7297.32541,0.14245
7299.25387,0.16930
7301.18234,0.22364
7303.11081,0.27398
7305.03928,0.24591
7306.96775,0.19307
7308.89622,0.14527
7310.82469,0.07928
7312.75316,0.06401
7314.68162,0.09093
7316.61009,0.06116
7318.53856,0.00058
7320.46703,0.05003
7322.39550,0.15200
7324.32397,0.16421
7326.25244,0.13268
7328.18090,0.04709
7330.10937,-0.11596
7332.03784,-0.12464
7333.96631,-0.07249
7335.89478,-0.11246
7337.82325,-0.13893
7339.75172,-0.00406
7341.68019,0.15669
7343.60865,0.13973
7345.53712,0.08799
7347.46559,0.07282
7349.39406,0.02734
7351.32253,0.02005
7353.25100,0.10185
7355.17947,0.22768
7357.10793,0.39282
7359.03640,0.40793
7360.96487,0.20457
7362.89334,0.12306
7364.82181,0.15343
7366.75028,0.11972
7368.67875,0.05446
7370.60722,-0.02470
7372.53568,-0.09107
7374.46415,-0.09318
7376.39262,-0.10049
7378.32109,-0.20660
7380.24956,-0.34783
7382.17803,-0.34651
7384.10650,-0.09284
7386.03496,0.18892
7387.96343,0.23213
7389.89190,0.13786
7391.82037,0.10514
7393.74884,0.14673
7395.67731,0.18937
7397.60578,0.14368
7399.53425,0.02169
7401.46271,-0.02936
7403.39118,-0.02076
7405.31965,-0.09867
7407.24812,-0.10653
7409.17659,0.09635
7411.10506,0.33658
7413.03353,0.37665
7414.96199,0.19290
7416.89046,0.00556
7418.81893,0.10409
7420.74740,0.27052
7422.67587,0.27112
7424.60434,0.23213
7426.53281,0.18341
7428.46128,0.21486
7430.38974,0.35710
7432.31821,0.42916
7434.24668,0.39960
7436.17515,0.32227
7438.10362,0.30784
7440.03209,0.33714
7441.96056,0.18817
7443.88902,-0.07041
7445.81749,-0.27236
7447.74596,-0.38525
7449.67443,-0.32664
7451.60290,-0.13653
7453.53137,0.04917
7455.45984,0.18722
7457.38831,0.25436
7459.31677,0.20657
7461.24524,0.14168
7463.17371,0.21124
7465.10218,0.32781
7467.03065,0.39645
7468.95912,0.34673
7470.88759,0.17530
7472.81605,0.06221
7474.74452,0.06117
7476.67299,0.07634
7478.60146,0.10089
7480.52993,0.09065
7482.45840,0.01819
7484.38687,-0.01072
7486.31533,0.06084
7488.24380,0.13816
7490.17227,0.10734
7492.10074,0.07793
7494.02921,0.15517
7495.95768,0.27841
7497.88615,0.40765
