399.19301,1.05260
401.12148,-0.01788
403.04995,0.15375
404.97842,0.30634
406.90689,0.16231
408.83536,-0.03589
410.76382,-0.08775
412.69229,-0.05368
414.62076,0.05432
416.54923,0.17017
418.47770,0.06333
420.40617,-0.20345
422.33464,-0.23582
424.26311,-0.07614
426.19157,0.13428
428.12004,0.25923
430.04851,0.26138
431.97698,0.23927
433.90545,0.25630
435.83392,0.23599
437.76239,0.15903
439.69085,0.09680
441.61932,0.07837
443.54779,0.09253
445.47626,0.14358
447.40473,0.13683
449.33320,0.09600
451.26167,0.14446
453.19013,0.22199
455.11860,0.22418
457.04707,0.14668
458.97554,0.04911
460.90401,0.05541
462.83248,0.15026
464.76095,0.15644
466.68942,0.07630
468.61788,0.03623
470.54635,0.10869
472.47482,0.57012
474.40329,1.15474
476.33176,0.82187
478.26023,0.32931
480.18870,0.13584
482.11716,0.09657
484.04563,0.10771
485.97410,0.13507
487.90257,0.13259
489.83104,0.11868
491.75951,0.12973
493.68798,0.14206
495.61645,0.13200
497.54491,0.11861
499.47338,0.12498
501.40185,0.14746
503.33032,0.14053
505.25879,0.09434
507.18726,0.05690
509.11573,0.06654
511.04419,0.08181
512.97266,0.08045
514.90113,0.09926
516.82960,0.11847
518.75807,0.10711
520.68654,0.08689
522.61501,0.07066
524.54348,0.07013
526.47194,0.09621
528.40041,0.11923
530.32888,0.11388
532.25735,0.09456
534.18582,0.09156
536.11429,0.11189
538.04276,0.12186
539.97122,0.11493
541.89969,0.11902
543.82816,0.13744
545.75663,0.14750
547.68510,0.14911
549.61357,0.14240
551.54204,0.08082
553.47051,0.01626
555.39897,0.04923
557.32744,0.09952
559.25591,0.09335
561.18438,0.10328
563.11285,0.13453
565.04132,0.13884
566.96979,0.12490
568.89825,0.11157
570.82672,0.09824
572.75519,0.09543
574.68366,0.13118
576.61213,0.18181
578.54060,0.18645
580.46907,0.14811
582.39754,0.11840
584.32600,0.10628
586.25447,0.09516
588.18294,0.09564
590.11141,0.11361
592.03988,0.12862
593.96835,0.11976
595.89682,0.11265
597.82528,0.12630
599.75375,0.13747
601.68222,0.13642
603.61069,0.13279
605.53916,0.12926
607.46763,0.12368
609.39610,0.11444
611.32456,0.10539
613.25303,0.11355
615.18150,0.13544
617.10997,0.14134
619.03844,0.12334
620.96691,0.10905
622.89538,0.11435
624.82385,0.11200
626.75231,0.09116
628.68078,0.08908
630.60925,0.15813
632.53772,0.24848
634.46619,0.22766
636.39466,0.15511
638.32313,0.14827
640.25159,0.17324
642.18006,0.17318
644.10853,0.13896
646.03700,0.10708
647.96547,0.11253
649.89394,0.13560
651.82241,0.14808
653.75088,0.14787
655.67934,0.14482
657.60781,0.14506
659.53628,0.14462
661.46475,0.13754
663.39322,0.12981
665.32169,0.12441
667.25016,0.11690
669.17862,0.12290
671.10709,0.13673
673.03556,0.14077
674.96403,0.14236
676.89250,0.12476
678.82097,0.08565
680.74944,0.07998
682.67791,0.11913
684.60637,0.15638
686.53484,0.16404
688.46331,0.14618
690.39178,0.12388
692.32025,0.11191
694.24872,0.11198
696.17719,0.11401
698.10565,0.11387
700.03412,0.11468
701.96259,0.11654
703.89106,0.12061
705.81953,0.12328
707.74800,0.11750
709.67647,0.09296
711.60494,0.06810
713.53340,0.08422
715.46187,0.12104
717.39034,0.13753
719.31881,0.14548
721.24728,0.15515
723.17575,0.15109
725.10422,0.13120
727.03268,0.11443
728.96115,0.11672
730.88962,0.13829
732.81809,0.16033
734.74656,0.15853
736.67503,0.14162
738.60350,0.13976
740.53197,0.15358
742.46043,0.15842
744.38890,0.15517
746.31737,0.15373
748.24584,0.14777
750.17431,0.13940
752.10278,0.13540
754.03125,0.13310
755.95971,0.12596
757.88818,0.11671
759.81665,0.11391
761.74512,0.12171
763.67359,0.13146
765.60206,0.13340
767.53053,0.13677
769.45900,0.14360
771.38746,0.14359
773.31593,0.13958
775.24440,0.13742
777.17287,0.13101
779.10134,0.12386
781.02981,0.12943
782.95828,0.14274
784.88674,0.15314
786.81521,0.16147
788.74368,0.16148
790.67215,0.14831
792.60062,0.13439
794.52909,0.12720
796.45756,0.13225
798.38602,0.14581
800.31449,0.14828
802.24296,0.14596
804.17143,0.15456
806.09990,0.16148
808.02837,0.15907
809.95684,0.16407
811.88531,0.17043
813.81377,0.15411
815.74224,0.13380
817.67071,0.13607
819.59918,0.14207
821.52765,0.13727
823.45612,0.13768
825.38459,0.14915
827.31305,0.16276
829.24152,0.16528
831.16999,0.15509
833.09846,0.15088
835.02693,0.15724
836.95540,0.16478
838.88387,0.16852
840.81234,0.16242
842.74080,0.15562
844.66927,0.15518
846.59774,0.15149
848.52621,0.15278
850.45468,0.16252
852.38315,0.16680
854.31162,0.16492
856.24008,0.16029
858.16855,0.15735
860.09702,0.16033
862.02549,0.16080
863.95396,0.15389
865.88243,0.15165
867.81090,0.14914
869.73937,0.13450
871.66783,0.12928
873.59630,0.14134
875.52477,0.15207
877.45324,0.15567
879.38171,0.15253
881.31018,0.14443
883.23865,0.13671
885.16711,0.13653
887.09558,0.14616
889.02405,0.15446
890.95252,0.15220
892.88099,0.14313
894.80946,0.13237
896.73793,0.12307
898.66640,0.12459
900.59486,0.13884
902.52333,0.15261
904.45180,0.16011
906.38027,0.16452
908.30874,0.16166
910.23721,0.14946
912.16568,0.14061
914.09414,0.14656
916.02261,0.15587
917.95108,0.15216
919.87955,0.14228
921.80802,0.14133
923.73649,0.14945
925.66496,0.15691
927.59343,0.15812
929.52189,0.15637
931.45036,0.15892
933.37883,0.16536
935.30730,0.16634
937.23577,0.16207
939.16424,0.16057
941.09271,0.16161
943.02117,0.15921
944.94964,0.15269
946.87811,0.15317
948.80658,0.16301
950.73505,0.16568
952.66352,0.15888
954.59199,0.15943
956.52045,0.16461
958.44892,0.15734
960.37739,0.14571
962.30586,0.14710
964.23433,0.15507
966.16280,0.15707
968.09127,0.15840
970.01974,0.15898
971.94820,0.15565
973.87667,0.15569
975.80514,0.15453
977.73361,0.15067
979.66208,0.15442
981.59055,0.16198
983.51902,0.16192
985.44748,0.15493
987.37595,0.15122
989.30442,0.15545
991.23289,0.15961
993.16136,0.15765
995.08983,0.15573
997.01830,0.15938
998.94677,0.16565
1000.87523,0.17107
1002.80370,0.17702
1004.73217,0.17983
1006.66064,0.17590
1008.58911,0.17177
1010.51758,0.16960
1012.44605,0.16542
1014.37451,0.15985
1016.30298,0.16008
1018.23145,0.16530
1020.15992,0.16394
1022.08839,0.15874
1024.01686,0.16050
1025.94533,0.16050
1027.87380,0.15053
1029.80226,0.14769
1031.73073,0.15542
1033.65920,0.15693
1035.58767,0.15597
1037.51614,0.16175
1039.44461,0.17080
1041.37308,0.17365
1043.30154,0.16792
1045.23001,0.16454
1047.15848,0.16740
1049.08695,0.17478
1051.01542,0.18100
1052.94389,0.17601
1054.87236,0.16682
1056.80083,0.16538
1058.72929,0.16831
1060.65776,0.16618
1062.58623,0.15812
1064.51470,0.15705
1066.44317,0.16683
1068.37164,0.17244
1070.30011,0.17180
1072.22857,0.17215
1074.15704,0.16939
1076.08551,0.16612
1078.01398,0.16989
1079.94245,0.17676
1081.87092,0.17959
1083.79939,0.17766
1085.72786,0.17499
1087.65632,0.17121
1089.58479,0.16900
1091.51326,0.17549
1093.44173,0.17945
1095.37020,0.16930
1097.29867,0.16022
1099.22714,0.16466
1101.15560,0.17419
1103.08407,0.17938
1105.01254,0.17737
1106.94101,0.17134
1108.86948,0.16645
1110.79795,0.16747
1112.72642,0.17435
1114.65489,0.17536
1116.58335,0.16663
1118.51182,0.15876
1120.44029,0.15827
1122.36876,0.16456
1124.29723,0.17122
1126.22570,0.17471
1128.15417,0.17773
1130.08263,0.17763
1132.01110,0.17187
1133.93957,0.16423
1135.86804,0.15761
1137.79651,0.15409
1139.72498,0.15777
1141.65345,0.16695
1143.58191,0.17228
1145.51038,0.17244
1147.43885,0.17387
1149.36732,0.17575
1151.29579,0.17554
1153.22426,0.17514
1155.15273,0.17608
1157.08120,0.17638
1159.00966,0.17569
1160.93813,0.17987
1162.86660,0.18547
1164.79507,0.18312
1166.72354,0.17713
1168.65201,0.17437
1170.58048,0.17356
1172.50894,0.17417
1174.43741,0.17655
1176.36588,0.17625
1178.29435,0.17105
1180.22282,0.16570
1182.15129,0.16674
1184.07976,0.17733
1186.00823,0.19120
1187.93669,0.19396
1189.86516,0.18277
1191.79363,0.17169
1193.72210,0.16788
1195.65057,0.16779
1197.57904,0.17035
1199.50751,0.17445
1201.43597,0.17767
1203.36444,0.17810
1205.29291,0.17594
1207.22138,0.17415
1209.14985,0.17237
1211.07832,0.17180
1213.00679,0.17667
1214.93526,0.18161
1216.86372,0.18012
1218.79219,0.17600
1220.72066,0.17409
1222.64913,0.17579
1224.57760,0.17981
1226.50607,0.18178
1228.43454,0.18088
1230.36300,0.18139
1232.29147,0.18242
1234.21994,0.18213
1236.14841,0.18347
1238.07688,0.18419
1240.00535,0.18051
1241.93382,0.17569
1243.86229,0.17337
1245.79075,0.17433
1247.71922,0.17694
1249.64769,0.17589
1251.57616,0.17105
1253.50463,0.16916
1255.43310,0.17312
1257.36157,0.17877
1259.29003,0.17937
1261.21850,0.17467
1263.14697,0.17100
1265.07544,0.17145
1267.00391,0.17409
1268.93238,0.17693
1270.86085,0.17911
1272.78932,0.17838
1274.71778,0.17603
1276.64625,0.17609
1278.57472,0.17774
1280.50319,0.17732
1282.43166,0.17623
1284.36013,0.17955
1286.28860,0.18450
1288.21706,0.18511
1290.14553,0.18287
1292.07400,0.18158
1294.00247,0.18156
1295.93094,0.18078
1297.85941,0.17916
1299.78788,0.17634
1301.71634,0.16979
1303.64481,0.16113
1305.57328,0.15924
1307.50175,0.16776
1309.43022,0.17442
1311.35869,0.17297
1313.28716,0.17403
1315.21563,0.18150
1317.14409,0.18757
1319.07256,0.18756
1321.00103,0.18518
1322.92950,0.18467
1324.85797,0.18245
1326.78644,0.17807
1328.71491,0.17652
1330.64337,0.17491
1332.57184,0.17401
1334.50031,0.17909
1336.42878,0.18487
1338.35725,0.18538
1340.28572,0.17633
1342.21419,0.15348
1344.14266,0.13046
1346.07112,0.13401
1347.99959,0.16194
1349.92806,0.17926
1351.85653,0.17832
1353.78500,0.17591
1355.71347,0.17709
1357.64194,0.18199
1359.57040,0.18736
1361.49887,0.18841
1363.42734,0.18552
1365.35581,0.18271
1367.28428,0.18263
1369.21275,0.18401
1371.14122,0.18632
1373.06969,0.19058
1374.99815,0.19214
1376.92662,0.18767
1378.85509,0.18349
1380.78356,0.18210
1382.71203,0.18070
1384.64050,0.18160
1386.56897,0.18782
1388.49743,0.19271
1390.42590,0.19299
1392.35437,0.19339
1394.28284,0.19307
1396.21131,0.19041
1398.13978,0.18798
1400.06825,0.18766
1401.99672,0.19093
1403.92518,0.19564
1405.85365,0.19635
1407.78212,0.19200
1409.71059,0.18778
1411.63906,0.18704
1413.56753,0.18960
1415.49600,0.19430
1417.42446,0.19740
1419.35293,0.19076
1421.28140,0.18163
1423.20987,0.18182
1425.13834,0.18749
1427.06681,0.19201
1428.99528,0.19302
1430.92375,0.19051
1432.85221,0.18916
1434.78068,0.19292
1436.70915,0.19880
1438.63762,0.19855
1440.56609,0.19536
1442.49456,0.19286
1444.42303,0.19152
1446.35149,0.19428
1448.27996,0.19920
1450.20843,0.20072
1452.13690,0.19971
1454.06537,0.20042
1455.99384,0.20648
1457.92231,0.20861
1459.85077,0.20109
1461.77924,0.19759
1463.70771,0.19856
1465.63618,0.19794
1467.56465,0.19405
1469.49312,0.19446
1471.42159,0.20076
1473.35006,0.20234
1475.27852,0.19750
1477.20699,0.19504
1479.13546,0.19466
1481.06393,0.19634
1482.99240,0.19851
1484.92087,0.20201
1486.84934,0.20945
1488.77780,0.21221
1490.70627,0.20211
1492.63474,0.19448
1494.56321,0.19658
1496.49168,0.20367
1498.42015,0.20485
1500.34862,0.20151
1502.27709,0.20248
1504.20555,0.20811
1506.13402,0.21687
1508.06249,0.21597
1509.99096,0.20508
1511.91943,0.19901
1513.84790,0.20021
1515.77637,0.20467
1517.70483,0.20845
1519.63330,0.21481
1521.56177,0.22254
1523.49024,0.21848
1525.41871,0.21088
1527.34718,0.21019
1529.27565,0.21162
1531.20412,0.21287
1533.13258,0.21317
1535.06105,0.20836
1536.98952,0.20823
1538.91799,0.22622
1540.84646,0.25277
1542.77493,0.24589
1544.70340,0.22500
1546.63186,0.20920
1548.56033,0.20330
1550.48880,0.20385
1552.41727,0.20500
1554.34574,0.20612
1556.27421,0.21316
1558.20268,0.22866
1560.13115,0.22274
1562.05961,0.20741
1563.98808,0.20061
1565.91655,0.19878
1567.84502,0.20106
1569.77349,0.20300
1571.70196,0.20085
1573.63043,0.20171
1575.55889,0.20788
1577.48736,0.20517
1579.41583,0.19357
1581.34430,0.18668
1583.27277,0.18486
1585.20124,0.18569
1587.12971,0.18866
1589.05818,0.19102
1590.98664,0.19178
1592.91511,0.19242
1594.84358,0.19027
1596.77205,0.18620
1598.70052,0.18660
1600.62899,0.18937
1602.55746,0.19072
1604.48592,0.19149
1606.41439,0.19101
1608.34286,0.19101
1610.27133,0.19163
1612.19980,0.19199
1614.12827,0.19695
1616.05674,0.20509
1617.98521,0.20380
1619.91367,0.20096
1621.84214,0.20688
1623.77061,0.21456
1625.69908,0.21577
1627.62755,0.21366
1629.55602,0.20891
1631.48449,0.20542
1633.41295,0.20934
1635.34142,0.21697
1637.26989,0.21265
1639.19836,0.20542
1641.12683,0.20436
1643.05530,0.20964
1644.98377,0.22196
1646.91223,0.23250
1648.84070,0.22794
1650.76917,0.22331
1652.69764,0.22413
1654.62611,0.22046
1656.55458,0.21453
1658.48305,0.21091
1660.41152,0.21052
1662.33998,0.21216
1664.26845,0.21265
1666.19692,0.21529
1668.12539,0.22244
1670.05386,0.22859
1671.98233,0.23019
1673.91080,0.23075
1675.83926,0.22492
1677.76773,0.21623
1679.69620,0.21555
1681.62467,0.22451
1683.55314,0.23603
1685.48161,0.23077
1687.41008,0.21943
1689.33855,0.21381
1691.26701,0.21116
1693.19548,0.21069
1695.12395,0.21393
1697.05242,0.22150
1698.98089,0.22843
1700.90936,0.22629
1702.83783,0.22036
1704.76629,0.21934
1706.69476,0.21701
1708.62323,0.21155
1710.55170,0.21053
1712.48017,0.21471
1714.40864,0.22040
1716.33711,0.22339
1718.26558,0.21793
1720.19404,0.21020
1722.12251,0.20585
1724.05098,0.20391
1725.97945,0.20405
1727.90792,0.20574
1729.83639,0.20869
1731.76486,0.21416
1733.69332,0.21849
1735.62179,0.21471
1737.55026,0.21128
1739.47873,0.21016
1741.40720,0.20677
1743.33567,0.20357
1745.26414,0.20630
1747.19261,0.21309
1749.12107,0.21576
1751.04954,0.20953
1752.97801,0.20285
1754.90648,0.20234
1756.83495,0.20547
1758.76342,0.20849
1760.69189,0.20875
1762.62035,0.20380
1764.54882,0.19951
1766.47729,0.20211
1768.40576,0.20944
1770.33423,0.21736
1772.26270,0.22096
1774.19117,0.21522
1776.11964,0.20741
1778.04810,0.20389
1779.97657,0.20428
1781.90504,0.20430
1783.83351,0.20209
1785.76198,0.19941
1787.69045,0.19819
1789.61892,0.19938
1791.54738,0.20340
1793.47585,0.20686
1795.40432,0.20559
1797.33279,0.20372
1799.26126,0.20546
1801.18973,0.20658
1803.11820,0.20205
1805.04666,0.19946
1806.97513,0.20371
1808.90360,0.20944
1810.83207,0.21038
1812.76054,0.20624
1814.68901,0.20197
1816.61748,0.19909
1818.54595,0.19820
1820.47441,0.20036
1822.40288,0.20281
1824.33135,0.20499
1826.25982,0.20832
1828.18829,0.21213
1830.11676,0.21256
1832.04523,0.20785
1833.97369,0.20512
1835.90216,0.20642
1837.83063,0.20684
1839.75910,0.20551
1841.68757,0.20681
1843.61604,0.20962
1845.54451,0.20853
1847.47298,0.20738
1849.40144,0.20791
1851.32991,0.20534
1853.25838,0.20129
1855.18685,0.20126
1857.11532,0.20361
1859.04379,0.20452
1860.97226,0.20529
1862.90072,0.20639
1864.82919,0.20673
1866.75766,0.20773
1868.68613,0.20813
1870.61460,0.20581
1872.54307,0.20418
1874.47154,0.20384
1876.40001,0.20314
1878.32847,0.20177
1880.25694,0.20023
1882.18541,0.19991
1884.11388,0.20189
1886.04235,0.20465
1887.97082,0.20553
1889.89929,0.20457
1891.82775,0.20505
1893.75622,0.20766
1895.68469,0.20921
1897.61316,0.20709
1899.54163,0.20272
1901.47010,0.19910
1903.39857,0.19838
1905.32704,0.20048
1907.25550,0.20181
1909.18397,0.19952
1911.11244,0.19646
1913.04091,0.19748
1914.96938,0.20168
1916.89785,0.20438
1918.82632,0.20608
1920.75478,0.20974
1922.68325,0.21117
1924.61172,0.20794
1926.54019,0.20506
1928.46866,0.20369
1930.39713,0.20250
1932.32560,0.20329
1934.25407,0.20476
1936.18253,0.20354
1938.11100,0.20175
1940.03947,0.20163
1941.96794,0.20128
1943.89641,0.20080
1945.82488,0.20123
1947.75335,0.20165
1949.68181,0.20260
1951.61028,0.20364
1953.53875,0.20356
1955.46722,0.20313
1957.39569,0.20285
1959.32416,0.20317
1961.25263,0.20473
1963.18110,0.20637
1965.10956,0.20635
1967.03803,0.20485
1968.96650,0.20424
1970.89497,0.20559
1972.82344,0.20664
1974.75191,0.20614
1976.68038,0.20717
1978.60884,0.21082
1980.53731,0.21154
1982.46578,0.20724
1984.39425,0.20363
1986.32272,0.20326
1988.25119,0.20426
1990.17966,0.20440
1992.10812,0.20329
1994.03659,0.20433
1995.96506,0.20577
1997.89353,0.20325
1999.82200,0.19949
2001.75047,0.19943
2003.67894,0.20246
2005.60741,0.20372
2007.53587,0.20133
2009.46434,0.19863
2011.39281,0.19855
2013.32128,0.20024
2015.24975,0.20329
2017.17822,0.20658
2019.10669,0.20686
2021.03515,0.20535
2022.96362,0.20365
2024.89209,0.20064
2026.82056,0.19852
2028.74903,0.19947
2030.67750,0.20114
2032.60597,0.20209
2034.53444,0.20292
2036.46290,0.20340
2038.39137,0.20406
2040.31984,0.20498
2042.24831,0.20540
2044.17678,0.20414
2046.10525,0.20190
2048.03372,0.20204
2049.96218,0.20423
2051.89065,0.20519
2053.81912,0.20525
2055.74759,0.20602
2057.67606,0.20601
2059.60453,0.20424
2061.53300,0.20282
2063.46147,0.20317
2065.38993,0.20372
2067.31840,0.20419
2069.24687,0.20655
2071.17534,0.20925
2073.10381,0.20958
2075.03228,0.20809
2076.96075,0.20732
2078.88921,0.20734
2080.81768,0.20527
2082.74615,0.20271
2084.67462,0.20297
2086.60309,0.20486
2088.53156,0.20620
2090.46003,0.20598
2092.38850,0.20427
2094.31696,0.20344
2096.24543,0.20519
2098.17390,0.20652
2100.10237,0.20517
2102.03084,0.20375
2103.95931,0.20416
2105.88778,0.20599
2107.81624,0.20766
2109.74471,0.20725
2111.67318,0.20549
2113.60165,0.20399
2115.53012,0.20204
2117.45859,0.20089
2119.38706,0.20362
2121.31553,0.20728
2123.24399,0.20662
2125.17246,0.20369
2127.10093,0.20340
2129.02940,0.20481
2130.95787,0.20599
2132.88634,0.20572
2134.81481,0.19986
2136.74327,0.19427
2138.67174,0.19864
2140.60021,0.20580
2142.52868,0.20816
2144.45715,0.20988
2146.38562,0.21228
2148.31409,0.21248
2150.24255,0.21041
2152.17102,0.20668
2154.09949,0.20258
2156.02796,0.20096
2157.95643,0.20106
2159.88490,0.20217
2161.81337,0.20527
2163.74184,0.20703
2165.67030,0.20573
2167.59877,0.20420
2169.52724,0.20415
2171.45571,0.20398
2173.38418,0.20312
2175.31265,0.20349
2177.24112,0.20487
2179.16958,0.20671
2181.09805,0.20774
2183.02652,0.20538
2184.95499,0.20170
2186.88346,0.20138
2188.81193,0.20502
2190.74040,0.20857
2192.66887,0.20914
2194.59733,0.20702
2196.52580,0.20377
2198.45427,0.20145
2200.38274,0.20075
2202.31121,0.20118
2204.23968,0.20278
2206.16815,0.20476
2208.09661,0.20490
2210.02508,0.20284
2211.95355,0.20113
2213.88202,0.20153
2215.81049,0.20248
2217.73896,0.20274
2219.66743,0.20388
2221.59590,0.20503
2223.52436,0.20485
2225.45283,0.20570
2227.38130,0.20712
2229.30977,0.20661
2231.23824,0.20498
2233.16671,0.20373
2235.09518,0.20356
2237.02364,0.20418
2238.95211,0.20418
2240.88058,0.20336
2242.80905,0.20263
2244.73752,0.20237
2246.66599,0.20203
2248.59446,0.20038
2250.52293,0.19950
2252.45139,0.20150
2254.37986,0.20321
2256.30833,0.20345
2258.23680,0.20373
2260.16527,0.20354
2262.09374,0.20325
2264.02221,0.20411
2265.95067,0.20628
2267.87914,0.20768
2269.80761,0.20727
2271.73608,0.20704
2273.66455,0.20676
2275.59302,0.20600
2277.52149,0.20657
2279.44996,0.20807
2281.37842,0.20841
2283.30689,0.20733
2285.23536,0.20500
2287.16383,0.20182
2289.09230,0.19981
2291.02077,0.19881
2292.94924,0.19817
2294.87770,0.19913
2296.80617,0.19875
2298.73464,0.19453
2300.66311,0.18997
2302.59158,0.18788
2304.52005,0.18820
2306.44852,0.19014
2308.37699,0.19178
2310.30545,0.19212
2312.23392,0.19154
2314.16239,0.18901
2316.09086,0.18558
2318.01933,0.18489
2319.94780,0.18722
2321.87627,0.19009
2323.80473,0.19099
2325.73320,0.18901
2327.66167,0.18322
2329.59014,0.17217
2331.51861,0.16677
2333.44708,0.17632
2335.37555,0.18466
2337.30401,0.18156
2339.23248,0.17669
2341.16095,0.17456
2343.08942,0.17393
2345.01789,0.17515
2346.94636,0.17735
2348.87483,0.18102
2350.80330,0.18394
2352.73176,0.17733
2354.66023,0.15527
2356.58870,0.12835
2358.51717,0.11368
2360.44564,0.12113
2362.37411,0.14393
2364.30258,0.16372
2366.23104,0.16626
2368.15951,0.16195
2370.08798,0.16577
2372.01645,0.17483
2373.94492,0.18509
2375.87339,0.19429
2377.80186,0.19855
2379.73033,0.19871
2381.65879,0.19779
2383.58726,0.19762
2385.51573,0.19993
2387.44420,0.20302
2389.37267,0.20396
2391.30114,0.20410
2393.22961,0.20474
2395.15807,0.20455
2397.08654,0.20330
2399.01501,0.20283
2400.94348,0.20406
2402.87195,0.20473
2404.80042,0.20423
2406.72889,0.20567
2408.65736,0.20970
2410.58582,0.21234
2412.51429,0.21055
2414.44276,0.20569
2416.37123,0.20100
2418.29970,0.20075
2420.22817,0.20444
2422.15664,0.20642
2424.08510,0.20693
2426.01357,0.20812
2427.94204,0.20808
2429.87051,0.20679
2431.79898,0.20658
2433.72745,0.20823
2435.65592,0.20910
2437.58439,0.20812
2439.51285,0.20810
2441.44132,0.20934
2443.36979,0.20900
2445.29826,0.20766
2447.22673,0.20807
2449.15520,0.20459
2451.08367,0.19211
2453.01213,0.18369
2454.94060,0.18998
2456.86907,0.20028
2458.79754,0.20353
2460.72601,0.20201
2462.65448,0.20102
2464.58295,0.20227
2466.51142,0.20525
2468.43988,0.20854
2470.36835,0.21080
2472.29682,0.21163
2474.22529,0.21045
2476.15376,0.20713
2478.08223,0.20470
2480.01070,0.20502
2481.93916,0.20570
2483.86763,0.20630
2485.79610,0.20678
2487.72457,0.20601
2489.65304,0.20703
2491.58151,0.21015
2493.50998,0.21086
2495.43844,0.21032
2497.36691,0.21162
2499.29538,0.21300
2501.22385,0.21287
2503.15232,0.21171
2505.08079,0.21140
2507.00926,0.21309
2508.93773,0.21459
2510.86619,0.21337
2512.79466,0.21056
2514.72313,0.20913
2516.65160,0.20968
2518.58007,0.21113
2520.50854,0.21075
2522.43701,0.20838
2524.36547,0.20800
2526.29394,0.20880
2528.22241,0.20898
2530.15088,0.21012
2532.07935,0.21119
2534.00782,0.21017
2535.93629,0.20805
2537.86476,0.20777
2539.79322,0.20919
2541.72169,0.20972
2543.65016,0.21015
2545.57863,0.21080
2547.50710,0.21001
2549.43557,0.20905
2551.36404,0.20818
2553.29250,0.20709
2555.22097,0.20875
2557.14944,0.21207
2559.07791,0.21274
2561.00638,0.21116
2562.93485,0.20985
2564.86332,0.20860
2566.79179,0.20513
2568.72025,0.20116
2570.64872,0.20231
2572.57719,0.20690
2574.50566,0.20939
2576.43413,0.21083
2578.36260,0.21199
2580.29107,0.21222
2582.21953,0.21264
2584.14800,0.21195
2586.07647,0.21103
2588.00494,0.21091
2589.93341,0.21050
2591.86188,0.21148
2593.79035,0.21241
2595.71882,0.20906
2597.64728,0.20387
2599.57575,0.20308
2601.50422,0.20551
2603.43269,0.20604
2605.36116,0.20596
2607.28963,0.20795
2609.21810,0.20887
2611.14656,0.20805
2613.07503,0.20950
2615.00350,0.20924
2616.93197,0.20523
2618.86044,0.20614
2620.78891,0.21206
2622.71738,0.21535
2624.64585,0.21526
2626.57431,0.21440
2628.50278,0.21229
2630.43125,0.20927
2632.35972,0.20859
2634.28819,0.20889
2636.21666,0.20618
2638.14513,0.20367
2640.07359,0.20705
2642.00206,0.21394
2643.93053,0.21723
2645.85900,0.21436
2647.78747,0.20883
2649.71594,0.20698
2651.64441,0.21161
2653.57288,0.21769
2655.50134,0.21929
2657.42981,0.21709
2659.35828,0.21444
2661.28675,0.21244
2663.21522,0.21103
2665.14369,0.21181
2667.07216,0.21673
2669.00062,0.22101
2670.92909,0.21902
2672.85756,0.21534
2674.78603,0.21458
2676.71450,0.21437
2678.64297,0.21335
2680.57144,0.21262
2682.49990,0.21386
2684.42837,0.21728
2686.35684,0.21795
2688.28531,0.21277
2690.21378,0.20768
2692.14225,0.20845
2694.07072,0.21167
2695.99919,0.21255
2697.92765,0.21279
2699.85612,0.21326
2701.78459,0.21245
2703.71306,0.21205
2705.64153,0.21214
2707.57000,0.21216
2709.49847,0.21349
2711.42693,0.21549
2713.35540,0.21622
2715.28387,0.21498
2717.21234,0.21428
2719.14081,0.21672
2721.06928,0.21921
2722.99775,0.21764
2724.92622,0.21381
2726.85468,0.21174
2728.78315,0.21282
2730.71162,0.21601
2732.64009,0.21813
2734.56856,0.21752
2736.49703,0.21748
2738.42550,0.21921
2740.35396,0.22016
2742.28243,0.21980
2744.21090,0.21829
2746.13937,0.21743
2748.06784,0.21913
2749.99631,0.22169
2751.92478,0.22345
2753.85325,0.22348
2755.78171,0.22238
2757.71018,0.22274
2759.63865,0.22440
2761.56712,0.22536
2763.49559,0.22584
2765.42406,0.22503
2767.35253,0.22157
2769.28099,0.21747
2771.20946,0.21596
2773.13793,0.21903
2775.06640,0.22348
2776.99487,0.22454
2778.92334,0.22350
2780.85181,0.22241
2782.78028,0.22044
2784.70874,0.21869
2786.63721,0.21911
2788.56568,0.22163
2790.49415,0.22562
2792.42262,0.22871
2794.35109,0.22973
2796.27956,0.23002
2798.20802,0.22800
2800.13649,0.22393
2802.06496,0.22197
2803.99343,0.22248
2805.92190,0.22367
2807.85037,0.22632
2809.77884,0.23023
2811.70731,0.23212
2813.63577,0.23177
2815.56424,0.23151
2817.49271,0.23060
2819.42118,0.22949
2821.34965,0.22939
2823.27812,0.22894
2825.20659,0.22816
2827.13505,0.22674
2829.06352,0.22399
2830.99199,0.22169
2832.92046,0.22130
2834.84893,0.22287
2836.77740,0.22400
2838.70587,0.22313
2840.63433,0.22299
2842.56280,0.22521
2844.49127,0.22708
2846.41974,0.22514
2848.34821,0.22161
2850.27668,0.22263
2852.20515,0.22614
2854.13362,0.22553
2856.06208,0.22395
2857.99055,0.22578
2859.91902,0.22643
2861.84749,0.22397
2863.77596,0.22272
2865.70443,0.22338
2867.63290,0.22398
2869.56136,0.22499
2871.48983,0.22526
2873.41830,0.22250
2875.34677,0.21947
2877.27524,0.21861
2879.20371,0.21849
2881.13218,0.21947
2883.06065,0.22041
2884.98911,0.22031
2886.91758,0.22285
2888.84605,0.22498
2890.77452,0.22243
2892.70299,0.21985
2894.63146,0.21899
2896.55993,0.21984
2898.48839,0.22316
2900.41686,0.22473
2902.34533,0.22465
2904.27380,0.22547
2906.20227,0.22533
2908.13074,0.22612
2910.05921,0.22883
2911.98768,0.22793
2913.91614,0.22081
2915.84461,0.21368
2917.77308,0.21450
2919.70155,0.22053
2921.63002,0.22322
2923.55849,0.22192
2925.48696,0.22566
2927.41542,0.23490
2929.34389,0.23478
2931.27236,0.22598
2933.20083,0.22283
2935.12930,0.22160
2937.05777,0.21667
2938.98624,0.21716
2940.91471,0.22274
2942.84317,0.22285
2944.77164,0.21767
2946.70011,0.21404
2948.62858,0.21655
2950.55705,0.22233
2952.48552,0.22543
2954.41399,0.22538
2956.34245,0.22112
2958.27092,0.21698
2960.19939,0.21957
2962.12786,0.22401
2964.05633,0.22629
2965.98480,0.22555
2967.91327,0.22105
2969.84174,0.21830
2971.77020,0.21922
2973.69867,0.22183
2975.62714,0.22348
2977.55561,0.22080
2979.48408,0.21918
2981.41255,0.22149
2983.34102,0.22307
2985.26948,0.22145
2987.19795,0.21724
2989.12642,0.21881
2991.05489,0.22857
2992.98336,0.23346
2994.91183,0.22891
2996.84030,0.22403
2998.76877,0.22397
3000.69723,0.22789
3002.62570,0.23020
3004.55417,0.22530
3006.48264,0.21750
3008.41111,0.21350
3010.33958,0.21130
3012.26805,0.20198
3014.19651,0.17950
3016.12498,0.15686
3018.05345,0.16239
3019.98192,0.19454
3021.91039,0.22005
3023.83886,0.22787
3025.76733,0.22770
3027.69579,0.22692
3029.62426,0.22898
3031.55273,0.23009
3033.48120,0.22693
3035.40967,0.22312
3037.33814,0.22279
3039.26661,0.22671
3041.19508,0.23138
3043.12354,0.23120
3045.05201,0.22676
3046.98048,0.22268
3048.90895,0.22310
3050.83742,0.22858
3052.76589,0.23182
3054.69436,0.22839
3056.62282,0.22367
3058.55129,0.22526
3060.47976,0.23180
3062.40823,0.23543
3064.33670,0.23172
3066.26517,0.22384
3068.19364,0.22135
3070.12211,0.22552
3072.05057,0.22818
3073.97904,0.22378
3075.90751,0.21689
3077.83598,0.21656
3079.76445,0.22182
3081.69292,0.22528
3083.62139,0.21942
3085.54985,0.20956
3087.47832,0.21030
3089.40679,0.21773
3091.33526,0.22059
3093.26373,0.21611
3095.19220,0.21121
3097.12067,0.21597
3099.04914,0.22163
3100.97760,0.21717
3102.90607,0.21160
3104.83454,0.21722
3106.76301,0.22906
3108.69148,0.23319
3110.61995,0.22689
3112.54842,0.21755
3114.47688,0.21548
3116.40535,0.22262
3118.33382,0.22729
3120.26229,0.22333
3122.19076,0.21846
3124.11923,0.22084
3126.04770,0.22691
3127.97617,0.22757
3129.90463,0.22398
3131.83310,0.22472
3133.76157,0.22824
3135.69004,0.22910
3137.61851,0.22962
3139.54698,0.22990
3141.47545,0.22867
3143.40391,0.22889
3145.33238,0.23057
3147.26085,0.23218
3149.18932,0.23452
3151.11779,0.23575
3153.04626,0.23668
3154.97473,0.24075
3156.90320,0.24299
3158.83166,0.23945
3160.76013,0.23527
3162.68860,0.23414
3164.61707,0.23399
3166.54554,0.23501
3168.47401,0.23942
3170.40248,0.24387
3172.33094,0.24259
3174.25941,0.23620
3176.18788,0.22957
3178.11635,0.22608
3180.04482,0.22883
3181.97329,0.23388
3183.90176,0.23466
3185.83022,0.23247
3187.75869,0.22947
3189.68716,0.22799
3191.61563,0.22945
3193.54410,0.23026
3195.47257,0.22939
3197.40104,0.22882
3199.32951,0.22644
3201.25797,0.22397
3203.18644,0.22709
3205.11491,0.23184
3207.04338,0.23276
3208.97185,0.23292
3210.90032,0.23500
3212.82879,0.23845
3214.75725,0.24041
3216.68572,0.23438
3218.61419,0.22449
3220.54266,0.22270
3222.47113,0.22822
3224.39960,0.23326
3226.32807,0.23429
3228.25654,0.23201
3230.18500,0.22905
3232.11347,0.22700
3234.04194,0.22564
3235.97041,0.22403
3237.89888,0.22299
3239.82735,0.22296
3241.75582,0.22165
3243.68428,0.22018
3245.61275,0.22272
3247.54122,0.22681
3249.46969,0.22890
3251.39816,0.23256
3253.32663,0.23904
3255.25510,0.24193
3257.18357,0.23883
3259.11203,0.23448
3261.04050,0.23121
3262.96897,0.22962
3264.89744,0.23051
3266.82591,0.23395
3268.75438,0.23807
3270.68285,0.23780
3272.61131,0.23299
3274.53978,0.23031
3276.46825,0.23198
3278.39672,0.23470
3280.32519,0.23919
3282.25366,0.24447
3284.18213,0.24472
3286.11060,0.23885
3288.03906,0.23113
3289.96753,0.22816
3291.89600,0.23118
3293.82447,0.23529
3295.75294,0.23959
3297.68141,0.24355
3299.60988,0.24167
3301.53834,0.23465
3303.46681,0.23148
3305.39528,0.23354
3307.32375,0.23584
3309.25222,0.23567
3311.18069,0.23113
3313.10916,0.22739
3315.03763,0.22999
3316.96609,0.23314
3318.89456,0.23285
3320.82303,0.23110
3322.75150,0.22848
3324.67997,0.22790
3326.60844,0.23030
3328.53691,0.23140
3330.46537,0.23113
3332.39384,0.23150
3334.32231,0.23150
3336.25078,0.23113
3338.17925,0.22989
3340.10772,0.22802
3342.03619,0.22728
3343.96466,0.22635
3345.89312,0.22499
3347.82159,0.22729
3349.75006,0.23428
3351.67853,0.23700
3353.60700,0.23204
3355.53547,0.22912
3357.46394,0.23107
3359.39240,0.23338
3361.32087,0.23425
3363.24934,0.23570
3365.17781,0.23833
3367.10628,0.23760
3369.03475,0.23575
3370.96322,0.23789
3372.89168,0.23921
3374.82015,0.23571
3376.74862,0.23192
3378.67709,0.22946
3380.60556,0.22668
3382.53403,0.22413
3384.46250,0.22106
3386.39097,0.22129
3388.31943,0.22893
3390.24790,0.23673
3392.17637,0.23759
3394.10484,0.23504
3396.03331,0.23627
3397.96178,0.24096
3399.89025,0.24144
3401.81871,0.23541
3403.74718,0.23027
3405.67565,0.23154
3407.60412,0.23553
3409.53259,0.23458
3411.46106,0.22660
3413.38953,0.21975
3415.31800,0.22147
3417.24646,0.23008
3419.17493,0.23788
3421.10340,0.23535
3423.03187,0.22572
3424.96034,0.22061
3426.88881,0.22299
3428.81728,0.23018
3430.74574,0.23389
3432.67421,0.23149
3434.60268,0.23152
3436.53115,0.23303
3438.45962,0.22792
3440.38809,0.21717
3442.31656,0.21083
3444.24503,0.21660
3446.17349,0.22660
3448.10196,0.22702
3450.03043,0.22047
3451.95890,0.21728
3453.88737,0.21971
3455.81584,0.22478
3457.74431,0.22635
3459.67277,0.22174
3461.60124,0.21580
3463.52971,0.21101
3465.45818,0.20771
3467.38665,0.20835
3469.31512,0.20803
3471.24359,0.20643
3473.17206,0.21507
3475.10052,0.22973
3477.02899,0.23505
3478.95746,0.23220
3480.88593,0.22897
3482.81440,0.22267
3484.74287,0.21367
3486.67134,0.20853
3488.59980,0.20653
3490.52827,0.20510
3492.45674,0.20333
3494.38521,0.20106
3496.31368,0.19959
3498.24215,0.19871
3500.17062,0.19838
3502.09909,0.19943
3504.02755,0.20240
3505.95602,0.20514
3507.88449,0.20540
3509.81296,0.20192
3511.74143,0.19569
3513.66990,0.19317
3515.59837,0.19573
3517.52683,0.19605
3519.45530,0.19203
3521.38377,0.18947
3523.31224,0.18942
3525.24071,0.19088
3527.16918,0.19404
3529.09765,0.19312
3531.02611,0.18728
3532.95458,0.18430
3534.88305,0.18558
3536.81152,0.18779
3538.73999,0.18865
3540.66846,0.18561
3542.59693,0.18154
3544.52540,0.18231
3546.45386,0.18593
3548.38233,0.18894
3550.31080,0.19131
3552.23927,0.18864
3554.16774,0.18056
3556.09621,0.17542
3558.02468,0.17585
3559.95314,0.17832
3561.88161,0.17776
3563.81008,0.17420
3565.73855,0.17358
3567.66702,0.17337
3569.59549,0.16881
3571.52396,0.16598
3573.45243,0.16693
3575.38089,0.16871
3577.30936,0.16740
3579.23783,0.16376
3581.16630,0.16374
3583.09477,0.16686
3585.02324,0.16693
3586.95171,0.16221
3588.88017,0.15773
3590.80864,0.16169
3592.73711,0.17150
3594.66558,0.17499
3596.59405,0.17066
3598.52252,0.17062
3600.45099,0.17385
3602.37946,0.17298
3604.30792,0.17152
3606.23639,0.17293
3608.16486,0.17206
3610.09333,0.16805
3612.02180,0.16938
3613.95027,0.17482
3615.87874,0.17583
3617.80720,0.17382
3619.73567,0.17043
3621.66414,0.16477
3623.59261,0.16300
3625.52108,0.16953
3627.44955,0.18053
3629.37802,0.17756
3631.30649,0.16223
3633.23495,0.15400
3635.16342,0.15314
3637.09189,0.15529
3639.02036,0.15449
3640.94883,0.15278
3642.87730,0.15398
3644.80577,0.15444
3646.73423,0.15728
3648.66270,0.17291
3650.59117,0.17655
3652.51964,0.16068
3654.44811,0.15282
3656.37658,0.15597
3658.30505,0.15821
3660.23352,0.15246
3662.16198,0.14530
3664.09045,0.14378
3666.01892,0.14545
3667.94739,0.14582
3669.87586,0.14515
3671.80433,0.14691
3673.73280,0.15152
3675.66126,0.15592
3677.58973,0.15855
3679.51820,0.15886
3681.44667,0.15311
3683.37514,0.14658
3685.30361,0.14763
3687.23208,0.15468
3689.16055,0.16130
3691.08901,0.16122
3693.01748,0.15632
3694.94595,0.15195
3696.87442,0.14895
3698.80289,0.14770
3700.73136,0.14932
3702.65983,0.15046
3704.58829,0.14963
3706.51676,0.14949
3708.44523,0.14860
3710.37370,0.15092
3712.30217,0.15932
3714.23064,0.15862
3716.15911,0.15303
3718.08757,0.15208
3720.01604,0.15051
3721.94451,0.14303
3723.87298,0.13939
3725.80145,0.14220
3727.72992,0.14413
3729.65839,0.14339
3731.58686,0.14213
3733.51532,0.14685
3735.44379,0.15511
3737.37226,0.15434
3739.30073,0.15182
3741.22920,0.15100
3743.15767,0.14775
3745.08614,0.14497
3747.01460,0.15127
3748.94307,0.16441
3750.87154,0.16985
3752.80001,0.15900
3754.72848,0.15289
3756.65695,0.15276
3758.58542,0.15315
3760.51389,0.15129
3762.44235,0.14929
3764.37082,0.15004
3766.29929,0.15011
3768.22776,0.14924
3770.15623,0.14876
3772.08470,0.14370
3774.01317,0.13653
3775.94163,0.13358
3777.87010,0.13802
3779.79857,0.14635
3781.72704,0.14725
3783.65551,0.14182
3785.58398,0.14071
3787.51245,0.14384
3789.44092,0.14430
3791.36938,0.14301
3793.29785,0.14254
3795.22632,0.14270
3797.15479,0.14162
3799.08326,0.13985
3801.01173,0.14171
3802.94020,0.14508
3804.86866,0.14513
3806.79713,0.14296
3808.72560,0.13896
3810.65407,0.13546
3812.58254,0.13408
3814.51101,0.13370
3816.43948,0.13329
3818.36795,0.13871
3820.29641,0.15093
3822.22488,0.15363
3824.15335,0.14328
3826.08182,0.13567
3828.01029,0.13567
3829.93876,0.13982
3831.86723,0.14627
3833.79569,0.15286
3835.72416,0.15557
3837.65263,0.15562
3839.58110,0.15210
3841.50957,0.14118
3843.43804,0.12986
3845.36651,0.12916
3847.29498,0.13907
3849.22344,0.15395
3851.15191,0.16509
3853.08038,0.15530
3855.00885,0.13734
3856.93732,0.13490
3858.86579,0.13325
3860.79426,0.13159
3862.72272,0.13507
3864.65119,0.13789
3866.57966,0.13543
3868.50813,0.13141
3870.43660,0.12344
3872.36507,0.12147
3874.29354,0.12976
3876.22200,0.13609
3878.15047,0.13922
3880.07894,0.14092
3882.00741,0.13873
3883.93588,0.13768
3885.86435,0.13727
3887.79282,0.13663
3889.72129,0.13931
3891.64975,0.13900
3893.57822,0.13127
3895.50669,0.12632
3897.43516,0.12894
3899.36363,0.13780
3901.29210,0.14486
3903.22057,0.14189
3905.14903,0.13424
3907.07750,0.13064
3909.00597,0.13041
3910.93444,0.13091
3912.86291,0.13152
3914.79138,0.13417
3916.71985,0.13748
3918.64832,0.13501
3920.57678,0.12857
3922.50525,0.12361
3924.43372,0.12101
3926.36219,0.12189
3928.29066,0.12408
3930.21913,0.12509
3932.14760,0.12553
3934.07606,0.12357
3936.00453,0.12210
3937.93300,0.12377
3939.86147,0.12294
3941.78994,0.11952
3943.71841,0.11781
3945.64688,0.11740
3947.57535,0.11652
3949.50381,0.11341
3951.43228,0.11083
3953.36075,0.11301
3955.28922,0.11958
3957.21769,0.12621
3959.14616,0.12791
3961.07463,0.12419
3963.00309,0.11887
3964.93156,0.11745
3966.86003,0.12063
3968.78850,0.12420
3970.71697,0.12526
3972.64544,0.12234
3974.57391,0.11714
3976.50238,0.11489
3978.43084,0.11542
3980.35931,0.11376
3982.28778,0.11103
3984.21625,0.11241
3986.14472,0.11488
3988.07319,0.11212
3990.00166,0.10885
3991.93012,0.11254
3993.85859,0.11928
3995.78706,0.12419
3997.71553,0.12747
3999.64400,0.12595
4001.57247,0.11878
4003.50094,0.11394
4005.42941,0.11491
4007.35787,0.11713
4009.28634,0.11793
4011.21481,0.11726
4013.14328,0.11732
4015.07175,0.11810
4017.00022,0.11659
4018.92869,0.11275
4020.85715,0.10616
4022.78562,0.10082
4024.71409,0.10305
4026.64256,0.10921
4028.57103,0.11471
4030.49950,0.11913
4032.42797,0.12083
4034.35644,0.11922
4036.28490,0.11531
4038.21337,0.11120
4040.14184,0.10633
4042.07031,0.10096
4043.99878,0.10118
4045.92725,0.10702
4047.85572,0.10909
4049.78418,0.10354
4051.71265,0.09773
4053.64112,0.09623
4055.56959,0.09648
4057.49806,0.10005
4059.42653,0.10589
4061.35500,0.10730
4063.28346,0.10511
4065.21193,0.10468
4067.14040,0.10538
4069.06887,0.10435
4070.99734,0.10424
4072.92581,0.10602
4074.85428,0.10688
4076.78275,0.10766
4078.71121,0.10899
4080.63968,0.10999
4082.56815,0.10957
4084.49662,0.10865
4086.42509,0.11094
4088.35356,0.11393
4090.28203,0.11299
4092.21049,0.11081
4094.13896,0.10980
4096.06743,0.10757
4097.99590,0.10351
4099.92437,0.10007
4101.85284,0.09713
4103.78131,0.09557
4105.70978,0.10075
4107.63824,0.11059
4109.56671,0.11345
4111.49518,0.10752
4113.42365,0.10295
4115.35212,0.10270
4117.28059,0.10221
4119.20906,0.10050
4121.13752,0.09901
4123.06599,0.09688
4124.99446,0.09444
4126.92293,0.09494
4128.85140,0.09844
4130.77987,0.10132
4132.70834,0.10146
4134.63681,0.10159
4136.56527,0.10057
4138.49374,0.09580
4140.42221,0.09551
4142.35068,0.09941
4144.27915,0.09567
4146.20762,0.08616
4148.13609,0.08226
4150.06455,0.08635
4151.99302,0.09031
4153.92149,0.08851
4155.84996,0.08744
4157.77843,0.09205
4159.70690,0.09541
4161.63537,0.09335
4163.56384,0.08951
4165.49230,0.08706
4167.42077,0.08811
4169.34924,0.09330
4171.27771,0.09831
4173.20618,0.09877
4175.13465,0.09673
4177.06312,0.09468
4178.99158,0.09173
4180.92005,0.08756
4182.84852,0.08820
4184.77699,0.09658
4186.70546,0.10199
4188.63393,0.09783
4190.56240,0.08893
4192.49087,0.08075
4194.41933,0.07733
4196.34780,0.08158
4198.27627,0.09007
4200.20474,0.09276
4202.13321,0.08867
4204.06168,0.08631
4205.99015,0.08778
4207.91861,0.08828
4209.84708,0.08716
4211.77555,0.08615
4213.70402,0.08463
4215.63249,0.08293
4217.56096,0.07961
4219.48943,0.07599
4221.41789,0.07610
4223.34636,0.07639
4225.27483,0.07408
4227.20330,0.07326
4229.13177,0.07448
4231.06024,0.07613
4232.98871,0.07971
4234.91718,0.08404
4236.84564,0.08700
4238.77411,0.08654
4240.70258,0.08180
4242.63105,0.07666
4244.55952,0.07383
4246.48799,0.07346
4248.41646,0.07370
4250.34492,0.07505
4252.27339,0.07816
4254.20186,0.07517
4256.13033,0.06637
4258.05880,0.06440
4259.98727,0.06864
4261.91574,0.06959
4263.84421,0.06833
4265.77267,0.06670
4267.70114,0.06251
4269.62961,0.05826
4271.55808,0.05683
4273.48655,0.05875
4275.41502,0.06248
4277.34349,0.06424
4279.27195,0.06671
4281.20042,0.07058
4283.12889,0.06828
4285.05736,0.06351
4286.98583,0.06538
4288.91430,0.07175
4290.84277,0.07901
4292.77124,0.08543
4294.69970,0.08244
4296.62817,0.06830
4298.55664,0.06099
4300.48511,0.06448
4302.41358,0.06209
4304.34205,0.05442
4306.27052,0.05222
4308.19898,0.05320
4310.12745,0.05405
4312.05592,0.05760
4313.98439,0.05980
4315.91286,0.05644
4317.84133,0.05523
4319.76980,0.06098
4321.69827,0.06725
4323.62673,0.06657
4325.55520,0.05743
4327.48367,0.04757
4329.41214,0.04539
4331.34061,0.04893
4333.26908,0.05402
4335.19755,0.05838
4337.12601,0.05818
4339.05448,0.05451
4340.98295,0.05247
4342.91142,0.05404
4344.83989,0.05591
4346.76836,0.05486
4348.69683,0.05001
4350.62530,0.04272
4352.55376,0.03927
4354.48223,0.03897
4356.41070,0.03837
4358.33917,0.04039
4360.26764,0.04215
4362.19611,0.04209
4364.12458,0.04363
4366.05304,0.04425
4367.98151,0.04174
4369.90998,0.03724
4371.83845,0.03399
4373.76692,0.03606
4375.69539,0.04188
4377.62386,0.04766
4379.55232,0.04958
4381.48079,0.04886
4383.40926,0.05229
4385.33773,0.05351
4387.26620,0.04636
4389.19467,0.03953
4391.12314,0.03902
4393.05161,0.04429
4394.98007,0.04852
4396.90854,0.04479
4398.83701,0.04092
4400.76548,0.04620
4402.69395,0.05305
4404.62242,0.05251
4406.55089,0.04773
4408.47935,0.04367
4410.40782,0.04141
4412.33629,0.03776
4414.26476,0.03318
4416.19323,0.03418
4418.12170,0.04150
4420.05017,0.04806
4421.97864,0.04749
4423.90710,0.04345
4425.83557,0.04293
4427.76404,0.04348
4429.69251,0.04116
4431.62098,0.04017
4433.54945,0.04090
4435.47792,0.03812
4437.40638,0.03503
4439.33485,0.03504
4441.26332,0.03259
4443.19179,0.02511
4445.12026,0.02038
4447.04873,0.02415
4448.97720,0.03395
4450.90567,0.04519
4452.83413,0.04701
4454.76260,0.04085
4456.69107,0.04254
4458.61954,0.04744
4460.54801,0.04312
4462.47648,0.03532
4464.40495,0.03276
4466.33341,0.03473
4468.26188,0.04028
4470.19035,0.04522
4472.11882,0.03973
4474.04729,0.02979
4475.97576,0.02412
4477.90423,0.01732
4479.83270,0.01359
4481.76116,0.02047
4483.68963,0.03106
4485.61810,0.03275
4487.54657,0.02729
4489.47504,0.02959
4491.40351,0.03362
4493.33198,0.02577
4495.26044,0.01830
4497.18891,0.02095
4499.11738,0.02494
4501.04585,0.02347
4502.97432,0.02146
4504.90279,0.02527
4506.83126,0.02877
4508.75973,0.02589
4510.68819,0.02344
4512.61666,0.02767
4514.54513,0.03269
4516.47360,0.03167
4518.40207,0.02855
4520.33054,0.02450
4522.25901,0.01820
4524.18747,0.01679
4526.11594,0.02176
4528.04441,0.02534
4529.97288,0.02591
4531.90135,0.02612
4533.82982,0.02591
4535.75829,0.02755
4537.68676,0.03052
4539.61522,0.03062
4541.54369,0.02785
4543.47216,0.02232
4545.40063,0.01517
4547.32910,0.00828
4549.25757,0.00301
4551.18604,0.00139
4553.11450,0.00370
4555.04297,0.00686
4556.97144,0.00682
4558.89991,0.00734
4560.82838,0.01283
4562.75685,0.02211
4564.68532,0.03306
4566.61378,0.03612
4568.54225,0.02587
4570.47072,0.01713
4572.39919,0.01604
4574.32766,0.01279
4576.25613,0.01429
4578.18460,0.02396
4580.11307,0.02955
4582.04153,0.02948
4583.97000,0.02905
4585.89847,0.02798
4587.82694,0.01977
4589.75541,0.00731
4591.68388,0.00203
4593.61235,0.01019
4595.54081,0.03088
4597.46928,0.04866
4599.39775,0.04920
4601.32622,0.03614
4603.25469,0.02127
4605.18316,0.01417
4607.11163,0.01379
4609.04010,0.01480
4610.96856,0.01166
4612.89703,0.00352
4614.82550,0.00353
4616.75397,0.01505
4618.68244,0.02417
4620.61091,0.02356
4622.53938,0.01415
4624.46784,0.00495
4626.39631,0.00839
4628.32478,0.02266
4630.25325,0.03488
4632.18172,0.03769
4634.11019,0.03657
4636.03866,0.03496
4637.96713,0.02534
4639.89559,0.01094
4641.82406,0.00570
4643.75253,0.00633
4645.68100,0.00477
4647.60947,0.00728
4649.53794,0.01218
4651.46641,0.00771
4653.39487,0.00021
4655.32334,0.00167
4657.25181,0.00497
4659.18028,0.00603
4661.10875,0.01118
4663.03722,0.01712
4664.96569,0.01885
4666.89416,0.01570
4668.82262,0.00642
4670.75109,-0.00275
4672.67956,-0.00623
4674.60803,-0.00524
4676.53650,0.00103
4678.46497,0.00389
4680.39344,0.00155
4682.32190,0.00458
4684.25037,0.01082
4686.17884,0.01573
4688.10731,0.01349
4690.03578,0.00246
4691.96425,-0.00300
4693.89272,0.00513
4695.82119,0.01697
4697.74965,0.02039
4699.67812,0.01465
4701.60659,0.00191
4703.53506,-0.01263
4705.46353,-0.01056
4707.39200,0.00907
4709.32047,0.02318
4711.24893,0.02425
4713.17740,0.01700
4715.10587,0.00537
4717.03434,-0.00266
4718.96281,-0.00166
4720.89128,0.00641
4722.81975,0.01181
4724.74821,0.01235
4726.67668,0.01384
4728.60515,0.01560
4730.53362,0.01272
4732.46209,0.00367
4734.39056,-0.00459
4736.31903,-0.00631
4738.24750,-0.00474
4740.17596,-0.00390
4742.10443,-0.00319
4744.03290,-0.00131
4745.96137,0.00254
4747.88984,0.01041
4749.81831,0.01879
4751.74678,0.01900
4753.67524,0.01734
4755.60371,0.02084
4757.53218,0.01551
4759.46065,0.00210
4761.38912,-0.00417
4763.31759,-0.00236
4765.24606,0.00427
4767.17453,0.01294
4769.10299,0.01851
4771.03146,0.01465
4772.95993,0.00889
4774.88840,0.00939
4776.81687,0.00471
4778.74534,-0.00592
4780.67381,-0.01258
4782.60227,-0.01335
4784.53074,-0.00620
4786.45921,0.00517
4788.38768,0.01053
4790.31615,0.01148
4792.24462,0.02067
4794.17309,0.03399
4796.10156,0.03411
4798.03002,0.02466
4799.95849,0.01968
4801.88696,0.01973
4803.81543,0.02116
4805.74390,0.02413
4807.67237,0.02414
4809.60084,0.01655
4811.52930,0.00689
4813.45777,0.00483
4815.38624,0.01584
4817.31471,0.02319
4819.24318,0.01103
4821.17165,0.00108
4823.10012,0.00666
4825.02859,0.00693
4826.95705,-0.00594
4828.88552,-0.01004
4830.81399,-0.00166
4832.74246,-0.00412
4834.67093,-0.01384
4836.59940,-0.00838
4838.52787,-0.00020
4840.45633,-0.00438
4842.38480,-0.00795
4844.31327,-0.00775
4846.24174,-0.00648
4848.17021,-0.00017
4850.09868,0.00615
4852.02715,0.00736
4853.95562,0.00883
4855.88408,0.01323
4857.81255,0.00964
4859.74102,-0.00838
4861.66949,-0.02437
4863.59796,-0.01966
4865.52643,-0.00008
4867.45490,0.01541
4869.38336,0.01761
4871.31183,0.01770
4873.24030,0.01932
4875.16877,0.00645
4877.09724,-0.00600
4879.02571,0.00066
4880.95418,0.00564
4882.88265,0.00145
4884.81111,0.00435
4886.73958,0.01162
4888.66805,0.01093
4890.59652,0.00887
4892.52499,0.01571
4894.45346,0.02200
4896.38193,0.02008
4898.31039,0.02083
4900.23886,0.02414
4902.16733,0.01438
4904.09580,-0.00308
4906.02427,-0.00768
4907.95274,-0.00481
4909.88121,-0.00559
4911.80967,-0.00024
4913.73814,0.00813
4915.66661,0.01325
4917.59508,0.02055
4919.52355,0.01479
4921.45202,-0.00183
4923.38049,-0.00375
4925.30896,0.00685
4927.23742,0.01561
4929.16589,0.01322
4931.09436,0.00161
4933.02283,-0.00073
4934.95130,0.00529
4936.87977,0.00503
4938.80824,0.00379
4940.73670,0.00429
4942.66517,-0.00031
4944.59364,-0.00260
4946.52211,0.00488
4948.45058,0.01283
4950.37905,0.01547
4952.30752,0.01675
4954.23599,0.01649
4956.16445,0.01127
4958.09292,0.00499
4960.02139,0.00667
4961.94986,0.01442
4963.87833,0.01959
4965.80680,0.01987
4967.73527,0.01754
4969.66373,0.00810
4971.59220,-0.00781
4973.52067,-0.01050
4975.44914,0.00341
4977.37761,0.01647
4979.30608,0.02889
4981.23455,0.04652
4983.16302,0.05517
4985.09148,0.04823
4987.01995,0.04045
4988.94842,0.04028
4990.87689,0.04330
4992.80536,0.04009
4994.73383,0.02945
4996.66230,0.02141
4998.59076,0.02490
5000.51923,0.04219
5002.44770,0.05598
5004.37617,0.04194
5006.30464,0.00825
5008.23311,-0.01639
5010.16158,-0.01592
5012.09005,0.00291
5014.01851,0.01742
5015.94698,0.02099
5017.87545,0.02126
5019.80392,0.01811
5021.73239,0.01544
5023.66086,0.01506
5025.58933,0.01150
5027.51779,0.00544
5029.44626,0.00661
5031.37473,0.01991
5033.30320,0.02349
5035.23167,0.00846
5037.16014,0.00318
5039.08861,0.01454
5041.01708,0.02588
5042.94554,0.02994
5044.87401,0.02189
5046.80248,0.00796
5048.73095,0.00460
5050.65942,0.01468
5052.58789,0.02705
5054.51636,0.02535
5056.44482,0.00546
5058.37329,-0.01064
5060.30176,-0.00437
5062.23023,0.00772
5064.15870,0.01056
5066.08717,0.01848
5068.01564,0.03136
5069.94410,0.03069
5071.87257,0.02102
5073.80104,0.01604
5075.72951,0.02048
5077.65798,0.03515
5079.58645,0.04670
5081.51492,0.04790
5083.44339,0.04671
5085.37185,0.03946
5087.30032,0.02813
5089.22879,0.02015
5091.15726,0.01080
5093.08573,0.00966
5095.01420,0.02457
5096.94267,0.04163
5098.87113,0.04771
5100.79960,0.04121
5102.72807,0.03774
5104.65654,0.03990
5106.58501,0.03126
5108.51348,0.02667
5110.44195,0.03712
5112.37042,0.03710
5114.29888,0.02666
5116.22735,0.02520
5118.15582,0.03117
5120.08429,0.04268
5122.01276,0.05700
5123.94123,0.05910
5125.86970,0.04017
5127.79816,0.01793
5129.72663,0.01362
5131.65510,0.02147
5133.58357,0.02544
5135.51204,0.02133
5137.44051,0.01839
5139.36898,0.02243
5141.29745,0.03624
5143.22591,0.05730
5145.15438,0.06330
5147.08285,0.04635
5149.01132,0.03129
5150.93979,0.02746
5152.86826,0.02141
5154.79673,0.01662
5156.72519,0.01671
5158.65366,0.01555
5160.58213,0.01432
5162.51060,0.01168
5164.43907,0.01744
5166.36754,0.03105
5168.29601,0.03127
5170.22448,0.02798
5172.15294,0.03818
5174.08141,0.04217
5176.00988,0.03185
5177.93835,0.02378
5179.86682,0.01851
5181.79529,0.01937
5183.72376,0.03527
5185.65222,0.05613
5187.58069,0.07084
5189.50916,0.07732
5191.43763,0.07633
5193.36610,0.06939
5195.29457,0.06003
5197.22304,0.04834
5199.15151,0.04133
5201.07997,0.05254
5203.00844,0.06867
5204.93691,0.07301
5206.86538,0.06805
5208.79385,0.06643
5210.72232,0.07200
5212.65079,0.07615
5214.57925,0.07858
5216.50772,0.07295
5218.43619,0.05671
5220.36466,0.05040
5222.29313,0.05530
5224.22160,0.05172
5226.15007,0.03846
5228.07854,0.03620
5230.00700,0.05448
5231.93547,0.07272
5233.86394,0.06975
5235.79241,0.06561
5237.72088,0.06954
5239.64935,0.05054
5241.57782,0.01024
5243.50628,-0.01467
5245.43475,-0.00225
5247.36322,0.03917
5249.29169,0.07493
5251.22016,0.08291
5253.14863,0.07282
5255.07710,0.05480
5257.00556,0.05033
5258.93403,0.06184
5260.86250,0.06462
5262.79097,0.05592
5264.71944,0.05320
5266.64791,0.05877
5268.57638,0.05338
5270.50485,0.03583
5272.43331,0.02951
5274.36178,0.04109
5276.29025,0.05730
5278.21872,0.07195
5280.14719,0.07970
5282.07566,0.06720
5284.00413,0.04400
5285.93259,0.02811
5287.86106,0.03022
5289.78953,0.05304
5291.71800,0.06958
5293.64647,0.06309
5295.57494,0.04385
5297.50341,0.01909
5299.43188,0.00333
5301.36034,0.01149
5303.28881,0.03400
5305.21728,0.05399
5307.14575,0.06997
5309.07422,0.07932
5311.00269,0.07711
5312.93116,0.06166
5314.85962,0.03832
5316.78809,0.02309
5318.71656,0.02776
5320.64503,0.03976
5322.57350,0.04063
5324.50197,0.03157
5326.43044,0.02694
5328.35891,0.04387
5330.28737,0.06043
5332.21584,0.04697
5334.14431,0.03235
5336.07278,0.04896
5338.00125,0.07366
5339.92972,0.07620
5341.85819,0.07798
5343.78665,0.08727
5345.71512,0.07839
5347.64359,0.06279
5349.57206,0.05693
5351.50053,0.05823
5353.42900,0.07222
5355.35747,0.08266
5357.28594,0.06634
5359.21440,0.03861
5361.14287,0.02535
5363.07134,0.03482
5364.99981,0.04239
5366.92828,0.02483
5368.85675,0.01469
5370.78522,0.04073
5372.71368,0.07854
5374.64215,0.09896
5376.57062,0.10473
5378.49909,0.11173
5380.42756,0.11611
5382.35603,0.11366
5384.28450,0.10571
5386.21297,0.09541
5388.14143,0.09169
5390.06990,0.08662
5391.99837,0.07171
5393.92684,0.05808
5395.85531,0.05161
5397.78378,0.04686
5399.71225,0.05049
5401.64071,0.05428
5403.56918,0.04903
5405.49765,0.06353
5407.42612,0.09839
5409.35459,0.11336
5411.28306,0.09576
5413.21153,0.06801
5415.13999,0.05852
5417.06846,0.06411
5418.99693,0.07014
5420.92540,0.07244
5422.85387,0.07403
5424.78234,0.07524
5426.71081,0.07566
5428.63928,0.09231
5430.56774,0.11771
5432.49621,0.12082
5434.42468,0.10137
5436.35315,0.08264
5438.28162,0.08222
5440.21009,0.08838
5442.13856,0.09204
5444.06702,0.10183
5445.99549,0.10846
5447.92396,0.09619
5449.85243,0.07701
5451.78090,0.07236
5453.70937,0.07352
5455.63784,0.07185
5457.56631,0.08898
5459.49477,0.10617
5461.42324,0.08212
5463.35171,0.04625
5465.28018,0.03531
5467.20865,0.03497
5469.13712,0.02912
5471.06559,0.01914
5472.99405,0.02395
5474.92252,0.06427
5476.85099,0.10110
5478.77946,0.08386
5480.70793,0.05032
5482.63640,0.04986
5484.56487,0.06310
5486.49334,0.06559
5488.42180,0.07879
5490.35027,0.09683
5492.27874,0.08764
5494.20721,0.07004
5496.13568,0.07314
5498.06415,0.08693
5499.99262,0.09639
5501.92108,0.08974
5503.84955,0.06633
5505.77802,0.05375
5507.70649,0.08285
5509.63496,0.12115
5511.56343,0.12264
5513.49190,0.10970
5515.42037,0.09829
5517.34883,0.06929
5519.27730,0.03648
5521.20577,0.02395
5523.13424,0.02843
5525.06271,0.03651
5526.99118,0.04272
5528.91965,0.04610
5530.84811,0.05616
5532.77658,0.06920
5534.70505,0.06268
5536.63352,0.05575
5538.56199,0.07383
5540.49046,0.09479
5542.41893,0.09705
5544.34740,0.07546
5546.27586,0.04237
5548.20433,0.03518
5550.13280,0.05624
5552.06127,0.07969
5553.98974,0.10182
5555.91821,0.11090
5557.84668,0.09975
5559.77514,0.08958
5561.70361,0.07881
5563.63208,0.05752
5565.56055,0.04679
5567.48902,0.06151
5569.41749,0.08143
5571.34596,0.08720
5573.27443,0.08878
5575.20289,0.10237
5577.13136,0.11927
5579.05983,0.12281
5580.98830,0.10716
5582.91677,0.07350
5584.84524,0.04920
5586.77371,0.06115
5588.70217,0.08378
5590.63064,0.09194
5592.55911,0.09630
5594.48758,0.09555
5596.41605,0.09197
5598.34452,0.08464
5600.27299,0.05481
5602.20145,0.03070
5604.12992,0.05861
5606.05839,0.10185
5607.98686,0.10123
5609.91533,0.07895
5611.84380,0.06813
5613.77227,0.05595
5615.70074,0.04763
5617.62920,0.06052
5619.55767,0.08595
5621.48614,0.10139
5623.41461,0.09612
5625.34308,0.07744
5627.27155,0.05060
5629.20002,0.03168
5631.12848,0.03355
5633.05695,0.04142
5634.98542,0.05891
5636.91389,0.09259
5638.84236,0.11271
5640.77083,0.10436
5642.69930,0.08687
5644.62777,0.08090
5646.55623,0.08654
5648.48470,0.08894
5650.41317,0.08689
5652.34164,0.08402
5654.27011,0.08341
5656.19858,0.09524
5658.12705,0.12286
5660.05551,0.14736
5661.98398,0.13077
5663.91245,0.08214
5665.84092,0.05564
5667.76939,0.05975
5669.69786,0.07600
5671.62633,0.10434
5673.55480,0.13530
5675.48326,0.14092
5677.41173,0.11923
5679.34020,0.10744
5681.26867,0.11834
5683.19714,0.12345
5685.12561,0.11575
5687.05408,0.11531
5688.98254,0.11002
5690.91101,0.09218
5692.83948,0.09668
5694.76795,0.12717
5696.69642,0.14006
5698.62489,0.12056
5700.55336,0.10060
5702.48183,0.09176
5704.41029,0.08694
5706.33876,0.07827
5708.26723,0.05832
5710.19570,0.04792
5712.12417,0.06915
5714.05264,0.10570
5715.98111,0.11986
5717.90957,0.11026
5719.83804,0.09957
5721.76651,0.07671
5723.69498,0.04634
5725.62345,0.03755
5727.55192,0.04645
5729.48039,0.06172
5731.40886,0.07898
5733.33732,0.09301
5735.26579,0.10482
5737.19426,0.10886
5739.12273,0.10353
5741.05120,0.09200
5742.97967,0.07511
5744.90814,0.06357
5746.83660,0.05949
5748.76507,0.05876
5750.69354,0.06284
5752.62201,0.06285
5754.55048,0.06909
5756.47895,0.09582
5758.40742,0.10776
5760.33588,0.09946
5762.26435,0.10352
5764.19282,0.10177
5766.12129,0.08705
5768.04976,0.08782
5769.97823,0.10259
5771.90670,0.11420
5773.83517,0.12095
5775.76363,0.14110
5777.69210,0.16693
5779.62057,0.17019
5781.54904,0.15259
5783.47751,0.12946
5785.40598,0.10822
5787.33445,0.09809
5789.26291,0.09594
5791.19138,0.08505
5793.11985,0.07356
5795.04832,0.07681
5796.97679,0.09286
5798.90526,0.10772
5800.83373,0.10686
5802.76220,0.09535
5804.69066,0.09677
5806.61913,0.12577
5808.54760,0.15167
5810.47607,0.14795
5812.40454,0.13197
5814.33301,0.12429
5816.26148,0.13476
5818.18994,0.14523
5820.11841,0.11178
5822.04688,0.06597
5823.97535,0.07748
5825.90382,0.10878
5827.83229,0.11985
5829.76076,0.13429
5831.68923,0.13780
5833.61769,0.12118
5835.54616,0.12100
5837.47463,0.13288
5839.40310,0.12719
5841.33157,0.10880
5843.26004,0.09376
5845.18851,0.08190
5847.11697,0.06218
5849.04544,0.03837
5850.97391,0.02202
5852.90238,0.00860
5854.83085,0.01919
5856.75932,0.05720
5858.68779,0.08119
5860.61626,0.08631
5862.54472,0.08479
5864.47319,0.08920
5866.40166,0.13182
5868.33013,0.18984
5870.25860,0.19282
5872.18707,0.14705
5874.11554,0.11923
5876.04400,0.13223
5877.97247,0.15871
5879.90094,0.15950
5881.82941,0.12920
5883.75788,0.11408
5885.68635,0.12148
5887.61482,0.11793
5889.54329,0.09347
5891.47175,0.06776
5893.40022,0.06694
5895.32869,0.07913
5897.25716,0.09004
5899.18563,0.10160
5901.11410,0.10494
5903.04257,0.10426
5904.97103,0.10837
5906.89950,0.11656
5908.82797,0.12669
5910.75644,0.13363
5912.68491,0.12962
5914.61338,0.12422
5916.54185,0.11455
5918.47032,0.06766
5920.39878,0.01872
5922.32725,0.03350
5924.25572,0.08441
5926.18419,0.09877
5928.11266,0.08060
5930.04113,0.07087
5931.96960,0.06074
5933.89806,0.06680
5935.82653,0.09670
5937.75500,0.10707
5939.68347,0.10880
5941.61194,0.10655
5943.54041,0.07346
5945.46888,0.04480
5947.39734,0.06496
5949.32581,0.11009
5951.25428,0.12210
5953.18275,0.10854
5955.11122,0.10830
5957.03969,0.10548
5958.96816,0.06882
5960.89663,0.02564
5962.82509,0.04638
5964.75356,0.09656
5966.68203,0.10812
5968.61050,0.12542
5970.53897,0.17772
5972.46744,0.21221
5974.39591,0.19744
5976.32437,0.16007
5978.25284,0.13712
5980.18131,0.13084
5982.10978,0.12351
5984.03825,0.10498
5985.96672,0.08332
5987.89519,0.06796
5989.82366,0.08263
5991.75212,0.13085
5993.68059,0.15942
5995.60906,0.15040
5997.53753,0.12931
5999.46600,0.10450
6001.39447,0.08947
6003.32294,0.09270
6005.25140,0.08434
6007.17987,0.03905
6009.10834,-0.00049
6011.03681,0.03011
6012.96528,0.11382
6014.89375,0.16585
6016.82222,0.15535
6018.75069,0.13222
6020.67915,0.10764
6022.60762,0.06354
6024.53609,0.02814
6026.46456,-0.00860
6028.39303,-0.03625
6030.32150,0.01248
6032.24997,0.08954
6034.17843,0.10444
6036.10690,0.08273
6038.03537,0.08959
6039.96384,0.10570
6041.89231,0.09430
6043.82078,0.08716
6045.74925,0.11975
6047.67772,0.17596
6049.60618,0.19628
6051.53465,0.16014
6053.46312,0.12422
6055.39159,0.10039
6057.32006,0.07909
6059.24853,0.07350
6061.17700,0.08378
6063.10546,0.11518
6065.03393,0.12333
6066.96240,0.09070
6068.89087,0.07724
6070.81934,0.09460
6072.74781,0.12048
6074.67628,0.14105
6076.60475,0.12754
6078.53321,0.08203
6080.46168,0.03260
6082.39015,-0.01057
6084.31862,-0.02812
6086.24709,0.01359
6088.17556,0.07264
6090.10403,0.06580
6092.03249,0.02973
6093.96096,0.03629
6095.88943,0.06281
6097.81790,0.08679
6099.74637,0.10971
6101.67484,0.12411
6103.60331,0.14232
6105.53177,0.16032
6107.46024,0.15920
6109.38871,0.15734
6111.31718,0.17418
6113.24565,0.18263
6115.17412,0.16771
6117.10259,0.16427
6119.03106,0.17274
6120.95952,0.14344
6122.88799,0.10673
6124.81646,0.10650
6126.74493,0.11444
6128.67340,0.10885
6130.60187,0.12406
6132.53034,0.15564
6134.45880,0.14518
6136.38727,0.10610
6138.31574,0.08579
6140.24421,0.06994
6142.17268,0.03151
6144.10115,-0.01166
6146.02962,-0.01743
6147.95809,0.03643
6149.88655,0.12608
6151.81502,0.18465
6153.74349,0.18518
6155.67196,0.14215
6157.60043,0.08577
6159.52890,0.07276
6161.45737,0.08471
6163.38583,0.08990
6165.31430,0.09646
6167.24277,0.05097
6169.17124,-0.02620
6171.09971,-0.04062
6173.02818,0.00556
6174.95665,0.06320
6176.88512,0.09184
6178.81358,0.05244
6180.74205,0.00413
6182.67052,0.02888
6184.59899,0.06682
6186.52746,0.05218
6188.45593,0.06571
6190.38440,0.12657
6192.31286,0.12996
6194.24133,0.08079
6196.16980,0.05131
6198.09827,0.04704
6200.02674,0.05557
6201.95521,0.07299
6203.88368,0.07019
6205.81215,0.05727
6207.74061,0.04628
6209.66908,0.01363
6211.59755,-0.01600
6213.52602,-0.01233
6215.45449,0.02515
6217.38296,0.06763
6219.31143,0.04950
6221.23989,-0.01692
6223.16836,-0.03175
6225.09683,0.02721
6227.02530,0.06715
6228.95377,0.06083
6230.88224,0.05450
6232.81071,0.04147
6234.73918,0.02003
6236.66764,0.04533
6238.59611,0.08128
6240.52458,0.08939
6242.45305,0.12704
6244.38152,0.15773
6246.30999,0.11196
6248.23846,0.06444
6250.16692,0.08639
6252.09539,0.13187
6254.02386,0.14302
6255.95233,0.12289
6257.88080,0.10394
6259.80927,0.10489
6261.73774,0.10903
6263.66621,0.09940
6265.59467,0.08565
6267.52314,0.08574
6269.45161,0.08259
6271.38008,0.06579
6273.30855,0.06568
6275.23702,0.09890
6277.16549,0.12662
6279.09395,0.10552
6281.02242,0.04240
6282.95089,-0.00333
6284.87936,0.01551
6286.80783,0.05803
6288.73630,0.06520
6290.66477,0.03741
6292.59323,0.02486
6294.52170,0.02938
6296.45017,-0.00211
6298.37864,-0.04310
6300.30711,-0.02475
6302.23558,0.03895
6304.16405,0.09641
6306.09252,0.13820
6308.02098,0.15470
6309.94945,0.14072
6311.87792,0.12490
6313.80639,0.13663
6315.73486,0.14463
6317.66333,0.11561
6319.59180,0.08312
6321.52026,0.06290
6323.44873,0.06187
6325.37720,0.10597
6327.30567,0.15724
6329.23414,0.14123
6331.16261,0.07052
6333.09108,0.04138
6335.01955,0.07486
6336.94801,0.08572
6338.87648,0.02907
6340.80495,-0.02777
6342.73342,-0.02389
6344.66189,0.01858
6346.59036,0.05114
6348.51883,0.03909
6350.44729,0.00936
6352.37576,0.01660
6354.30423,0.07659
6356.23270,0.15970
6358.16117,0.19638
6360.08964,0.18204
6362.01811,0.18323
6363.94658,0.20586
6365.87504,0.23497
6367.80351,0.23157
6369.73198,0.13351
6371.66045,0.00913
6373.58892,-0.00741
6375.51739,0.06167
6377.44586,0.08444
6379.37432,0.04464
6381.30279,0.04793
6383.23126,0.13067
6385.15973,0.15940
6387.08820,0.10590
6389.01667,0.07178
6390.94514,0.06547
6392.87361,0.04806
6394.80207,-0.00993
6396.73054,-0.08567
6398.65901,-0.09810
6400.58748,-0.01819
6402.51595,0.08347
6404.44442,0.13717
6406.37289,0.12366
6408.30135,0.05005
6410.22982,-0.02042
6412.15829,-0.02595
6414.08676,0.02192
6416.01523,0.08843
6417.94370,0.15114
6419.87217,0.14366
6421.80064,0.06271
6423.72910,0.04962
6425.65757,0.13087
6427.58604,0.14600
6429.51451,0.08684
6431.44298,0.08470
6433.37145,0.11995
6435.29992,0.11141
6437.22838,0.09925
6439.15685,0.08438
6441.08532,0.02809
6443.01379,-0.00250
6444.94226,0.04570
6446.87073,0.11647
6448.79920,0.14354
6450.72766,0.11220
6452.65613,0.06623
6454.58460,0.03735
6456.51307,0.02438
6458.44154,0.02787
6460.37001,0.04624
6462.29848,0.06793
6464.22695,0.09293
6466.15541,0.11145
6468.08388,0.10857
6470.01235,0.12125
6471.94082,0.14170
6473.86929,0.12171
6475.79776,0.10913
6477.72623,0.14971
6479.65469,0.19673
6481.58316,0.19872
6483.51163,0.15909
6485.44010,0.12463
6487.36857,0.12076
6489.29704,0.12731
6491.22551,0.12443
6493.15398,0.13811
6495.08244,0.16663
6497.01091,0.15772
6498.93938,0.12412
6500.86785,0.10312
6502.79632,0.06978
6504.72479,0.03251
6506.65326,0.04427
6508.58172,0.09568
6510.51019,0.13081
6512.43866,0.11936
6514.36713,0.07188
6516.29560,0.03249
6518.22407,0.05577
6520.15254,0.13294
6522.08101,0.17974
6524.00947,0.13536
6525.93794,0.05438
6527.86641,-0.00220
6529.79488,-0.03222
6531.72335,-0.00757
6533.65182,0.07095
6535.58029,0.15046
6537.50875,0.16701
6539.43722,0.10275
6541.36569,0.02589
6543.29416,-0.00018
6545.22263,0.01147
6547.15110,0.01035
6549.07957,-0.00594
6551.00804,0.00410
6552.93650,0.02788
6554.86497,0.04979
6556.79344,0.10019
6558.72191,0.12068
6560.65038,0.08418
6562.57885,0.08521
6564.50732,0.10139
6566.43578,0.05022
6568.36425,-0.00855
6570.29272,-0.02074
6572.22119,-0.01968
6574.14966,-0.00215
6576.07813,0.03217
6578.00660,0.03781
6579.93507,0.05268
6581.86353,0.09212
6583.79200,0.09999
6585.72047,0.10065
6587.64894,0.10772
6589.57741,0.10892
6591.50588,0.07946
6593.43435,-0.03097
6595.36281,-0.13747
6597.29128,-0.10313
6599.21975,0.04499
6601.14822,0.16205
6603.07669,0.13441
6605.00516,0.04088
6606.93363,0.01899
6608.86210,0.09865
6610.79056,0.18130
6612.71903,0.22791
6614.64750,0.27250
6616.57597,0.28091
6618.50444,0.23750
6620.43291,0.19035
6622.36138,0.12637
6624.28984,0.03539
6626.21831,-0.02092
6628.14678,0.00377
6630.07525,0.07077
6632.00372,0.11885
6633.93219,0.16172
6635.86066,0.18107
6637.78912,0.16922
6639.71759,0.19202
6641.64606,0.20430
6643.57453,0.15470
6645.50300,0.09941
6647.43147,0.07123
6649.35994,0.03364
6651.28841,-0.03749
6653.21687,-0.09190
6655.14534,-0.07201
6657.07381,0.00406
6659.00228,0.03411
6660.93075,-0.00532
6662.85922,-0.04044
6664.78769,-0.07315
6666.71615,-0.07735
6668.64462,0.01395
6670.57309,0.14900
6672.50156,0.20794
6674.43003,0.15118
6676.35850,0.06907
6678.28697,0.05025
6680.21544,0.05903
6682.14390,0.01538
6684.07237,-0.03448
6686.00084,-0.01595
6687.92931,0.04362
6689.85778,0.05431
6691.78625,0.02715
6693.71472,0.05014
6695.64318,0.08258
6697.57165,0.08356
6699.50012,0.08914
6701.42859,0.07707
6703.35706,0.04765
6705.28553,0.02462
6707.21400,0.01658
6709.14247,0.03506
6711.07093,0.07116
6712.99940,0.12580
6714.92787,0.16237
6716.85634,0.15275
6718.78481,0.15724
6720.71328,0.16481
6722.64175,0.10751
6724.57021,0.02048
6726.49868,-0.04395
6728.42715,-0.06982
6730.35562,-0.08030
6732.28409,-0.07981
6734.21256,0.00253
6736.14103,0.11792
6738.06950,0.14030
6739.99796,0.06872
6741.92643,-0.03332
6743.85490,-0.04690
6745.78337,0.01699
6747.71184,0.00582
6749.64031,-0.07802
6751.56878,-0.08357
6753.49724,0.02047
6755.42571,0.12583
6757.35418,0.13177
6759.28265,0.04805
6761.21112,-0.04955
6763.13959,-0.10368
6765.06806,-0.11640
6766.99653,-0.09435
6768.92499,-0.00107
6770.85346,0.12844
6772.78193,0.12411
6774.71040,-0.01167
6776.63887,-0.06754
6778.56734,0.03620
6780.49581,0.15898
6782.42427,0.18109
6784.35274,0.13131
6786.28121,0.09121
6788.20968,0.08175
6790.13815,0.04492
6792.06662,-0.02471
6793.99509,-0.06798
6795.92355,-0.10062
6797.85202,-0.09930
6799.78049,-0.02913
6801.70896,0.09699
6803.63743,0.22592
6805.56590,0.25743
6807.49437,0.18263
6809.42284,0.11532
6811.35130,0.12372
6813.27977,0.15211
6815.20824,0.20828
6817.13671,0.26082
6819.06518,0.17914
6820.99365,0.05589
6822.92212,0.00682
6824.85058,-0.00046
6826.77905,0.01121
6828.70752,0.04469
6830.63599,0.07529
6832.56446,0.06445
6834.49293,-0.01454
6836.42140,-0.08649
6838.34987,-0.03324
6840.27833,0.06844
6842.20680,0.12445
6844.13527,0.11904
6846.06374,0.05671
6847.99221,-0.01212
6849.92068,-0.08133
6851.84915,-0.12349
6853.77761,-0.07157
6855.70608,0.00304
6857.63455,-0.02049
6859.56302,-0.08544
6861.49149,-0.10021
6863.41996,-0.08961
6865.34843,-0.06270
6867.27690,0.02047
6869.20536,0.10281
6871.13383,0.16999
6873.06230,0.20557
6874.99077,0.14523
6876.91924,0.05949
6878.84771,0.00594
6880.77618,-0.01172
6882.70464,0.05093
6884.63311,0.15654
6886.56158,0.19922
6888.49005,0.13970
6890.41852,0.04534
6892.34699,0.03967
6894.27546,0.16160
6896.20393,0.26570
6898.13239,0.24888
6900.06086,0.21639
6901.98933,0.23620
6903.91780,0.26572
6905.84627,0.26306
6907.77474,0.21642
6909.70321,0.15888
6911.63167,0.14432
6913.56014,0.19965
6915.48861,0.26756
6917.41708,0.26787
6919.34555,0.20313
6921.27402,0.16696
6923.20249,0.15926
6925.13096,0.06085
6927.05942,-0.11494
6928.98789,-0.18870
6930.91636,-0.08436
6932.84483,0.09408
6934.77330,0.22526
6936.70177,0.27860
6938.63024,0.27652
6940.55870,0.18206
6942.48717,0.04176
6944.41564,-0.00841
6946.34411,0.01027
6948.27258,0.02922
6950.20105,0.03364
6952.12952,0.00239
6954.05799,-0.03747
6955.98645,0.01655
6957.91492,0.15540
6959.84339,0.23517
6961.77186,0.16230
6963.70033,0.04914
6965.62880,0.07270
6967.55727,0.16065
6969.48573,0.09982
6971.41420,-0.04343
6973.34267,-0.11220
6975.27114,-0.11238
6977.19961,-0.08308
6979.12808,-0.07786
6981.05655,-0.06235
6982.98501,0.05175
6984.91348,0.23170
6986.84195,0.29887
6988.77042,0.23084
6990.69889,0.16772
6992.62736,0.10545
6994.55583,0.04014
6996.48430,0.02453
6998.41276,0.03596
7000.34123,0.09389
7002.26970,0.16320
7004.19817,0.11895
7006.12664,0.05023
7008.05511,0.08308
7009.98358,0.12945
7011.91204,0.15030
7013.84051,0.18638
7015.76898,0.19763
7017.69745,0.14399
7019.62592,0.10878
7021.55439,0.14222
7023.48286,0.13037
7025.41133,0.06235
7027.33979,0.09749
7029.26826,0.24109
7031.19673,0.24376
7033.12520,0.06542
7035.05367,-0.09730
7036.98214,-0.10775
7038.91061,-0.00967
7040.83907,0.11196
7042.76754,0.18021
7044.69601,0.17639
7046.62448,0.15156
7048.55295,0.12328
7050.48142,0.09964
7052.40989,0.09189
7054.33836,0.03801
7056.26682,-0.05998
7058.19529,-0.02435
7060.12376,0.13888
7062.05223,0.23556
7063.98070,0.23559
7065.90917,0.20754
7067.83764,0.17189
7069.76610,0.15021
7071.69457,0.15157
7073.62304,0.13242
7075.55151,0.11830
7077.47998,0.14323
7079.40845,0.17588
7081.33692,0.18945
7083.26539,0.17539
7085.19385,0.12314
7087.12232,0.05884
7089.05079,0.00799
7090.97926,-0.05687
7092.90773,-0.10253
7094.83620,-0.03523
7096.76467,0.06871
7098.69313,0.04478
7100.62160,-0.00638
7102.55007,0.04536
7104.47854,0.07939
7106.40701,0.00710
7108.33548,-0.04494
7110.26395,-0.01362
7112.19242,0.03109
7114.12088,0.04476
7116.04935,0.04213
7117.97782,0.05922
7119.90629,0.07520
7121.83476,0.02776
7123.76323,-0.00621
7125.69170,0.05846
7127.62016,0.13244
7129.54863,0.17397
7131.47710,0.20851
7133.40557,0.18008
7135.33404,0.09355
7137.26251,-0.00792
7139.19098,-0.13341
7141.11944,-0.25149
7143.04791,-0.27474
7144.97638,-0.15834
7146.90485,0.07953
7148.83332,0.34261
7150.76179,0.44214
7152.69026,0.24578
7154.61873,-0.06276
7156.54719,-0.13935
7158.47566,-0.00302
7160.40413,0.11731
7162.33260,0.13345
7164.26107,0.14658
7166.18954,0.20734
7168.11801,0.24504
7170.04647,0.23315
7171.97494,0.14170
7173.90341,-0.00124
7175.83188,-0.06506
7177.76035,-0.05951
7179.68882,-0.06047
7181.61729,-0.03820
7183.54576,-0.02764
7185.47422,-0.08264
7187.40269,-0.12436
7189.33116,-0.09656
7191.25963,-0.02455
7193.18810,0.06313
7195.11657,0.08696
7197.04504,0.02003
7198.97350,-0.03664
7200.90197,-0.10031
7202.83044,-0.20138
7204.75891,-0.19424
7206.68738,-0.05126
7208.61585,-0.01582
7210.54432,-0.08431
7212.47279,-0.08975
7214.40125,0.00542
7216.32972,0.13385
7218.25819,0.18615
7220.18666,0.10412
7222.11513,0.02089
7224.04360,-0.03700
7225.97207,-0.06445
7227.90053,-0.04539
7229.82900,-0.03010
7231.75747,-0.00366
7233.68594,-0.01144
7235.61441,-0.06742
7237.54288,-0.06036
7239.47135,0.00590
7241.39982,0.06397
7243.32828,0.12627
7245.25675,0.13715
7247.18522,0.08779
7249.11369,0.06641
7251.04216,0.03923
7252.97063,-0.02210
7254.89910,0.02195
7256.82756,0.08210
7258.75603,0.16228
7260.68450,0.31656
7262.61297,0.27657
7264.54144,0.06957
7266.46991,0.03411
7268.39838,0.10521
7270.32685,0.18979
7272.25531,0.27690
7274.18378,0.25943
7276.11225,0.22166
7278.04072,0.20817
7279.96919,0.14076
7281.89766,0.14047
7283.82613,0.22976
7285.75459,0.18251
7287.68306,0.01812
7289.61153,0.01240
7291.54000,0.16554
7293.46847,0.16622
7295.39694,0.00414
7297.32541,-0.16237
7299.25387,-0.19358
7301.18234,-0.00062
7303.11081,0.28589
7305.03928,0.40700
7306.96775,0.26760
7308.89622,-0.01827
7310.82469,-0.12871
7312.75316,-0.01897
7314.68162,0.08663
7316.61009,0.08020
7318.53856,0.05725
7320.46703,0.12658
7322.39550,0.19092
7324.32397,0.18374
7326.25244,0.22141
7328.18090,0.22539
7330.10937,0.00054
7332.03784,-0.11492
7333.96631,0.06113
7335.89478,0.24506
7337.82325,0.31479
7339.75172,0.24297
7341.68019,0.06429
7343.60865,-0.04036
7345.53712,-0.07332
7347.46559,-0.10670
7349.39406,-0.01467
7351.32253,0.15216
7353.25100,0.16119
7355.17947,0.09227
7357.10793,0.03196
7359.03640,-0.06145
7360.96487,-0.09801
7362.89334,-0.04242
7364.82181,0.07317
7366.75028,0.07774
7368.67875,-0.02405
7370.60722,-0.02343
7372.53568,0.04976
7374.46415,0.11425
7376.39262,0.10370
7378.32109,0.00008
7380.24956,-0.09340
7382.17803,-0.00235
7384.10650,0.20122
7386.03496,0.17825
7387.96343,-0.14406
7389.89190,-0.36602
7391.82037,-0.26894
7393.74884,0.04181
7395.67731,0.30375
7397.60578,0.31137
7399.53425,0.19302
7401.46271,0.14771
7403.39118,0.11165
7405.31965,-0.02426
7407.24812,-0.06640
7409.17659,0.04420
7411.10506,0.11690
7413.03353,0.10860
7414.96199,0.10534
7416.89046,0.06485
7418.81893,-0.07454
7420.74740,-0.15127
7422.67587,-0.14951
7424.60434,-0.15734
7426.53281,-0.10418
7428.46128,0.08208
7430.38974,0.28841
7432.31821,0.22603
7434.24668,0.02187
7436.17515,-0.02727
7438.10362,0.01128
7440.03209,-0.01221
7441.96056,0.02593
7443.88902,0.06125
7445.81749,-0.03657
7447.74596,-0.06342
7449.67443,0.11230
7451.60290,0.30613
7453.53137,0.37573
7455.45984,0.34265
7457.38831,0.22750
7459.31677,0.10856
7461.24524,0.02154
7463.17371,-0.11296
7465.10218,-0.17339
7467.03065,-0.05744
7468.95912,0.02045
7470.88759,0.03983
7472.81605,0.19289
7474.74452,0.36160
7476.67299,0.42129
7478.60146,0.39287
7480.52993,0.15731
7482.45840,-0.13098
7484.38687,-0.10157
7486.31533,0.09618
7488.24380,0.24079
7490.17227,0.32759
7492.10074,0.26865
7494.02921,0.14456
7495.95768,0.18730
7497.88615,0.37742
