399.19301,16.32991
401.12148,1.21453
403.04995,-0.02327
404.97842,0.09578
406.90689,0.05279
408.83536,-0.25439
410.76382,-0.46438
412.69229,-0.22633
414.62076,0.14792
416.54923,0.28611
418.47770,0.34316
420.40617,0.35747
422.33464,0.18902
424.26311,-0.03454
426.19157,-0.05205
428.12004,0.06722
430.04851,0.07315
431.97698,0.05787
433.90545,0.09934
435.83392,0.02184
437.76239,-0.12693
439.69085,-0.20558
441.61932,-0.18415
443.54779,-0.07267
445.47626,0.02587
447.40473,0.04151
449.33320,0.05328
451.26167,0.06506
453.19013,-0.04360
455.11860,-0.20222
457.04707,-0.15353
458.97554,0.03152
460.90401,0.09969
462.83248,0.09913
464.76095,0.09669
466.68942,0.03827
468.61788,-0.02484
470.54635,-0.01080
472.47482,0.07789
474.40329,0.18069
476.33176,0.12331
478.26023,0.03767
480.18870,0.06376
482.11716,0.17783
484.04563,0.24780
485.97410,0.22242
487.90257,0.21240
489.83104,0.19402
491.75951,0.11782
493.68798,0.07297
495.61645,0.06322
497.54491,0.04616
499.47338,0.03866
501.40185,0.04288
503.33032,0.04366
505.25879,0.02404
507.18726,0.00038
509.11573,-0.00105
511.04419,0.00301
512.97266,0.01249
514.90113,0.05268
516.82960,0.14201
518.75807,0.23189
520.68654,0.23531
522.61501,0.17245
524.54348,0.13637
526.47194,0.14254
528.40041,0.11486
530.32888,0.07011
532.25735,0.05734
534.18582,0.06732
536.11429,0.08633
538.04276,0.08114
539.97122,0.05867
541.89969,0.06316
543.82816,0.07365
545.75663,0.07776
547.68510,0.10285
549.61357,0.10750
551.54204,0.06457
553.47051,0.06141
555.39897,0.10303
557.32744,0.12082
559.25591,0.14502
561.18438,0.18586
563.11285,0.18707
565.04132,0.13763
566.96979,0.08131
568.89825,0.07162
570.82672,0.10285
572.75519,0.13341
574.68366,0.14823
576.61213,0.16487
578.54060,0.18289
580.46907,0.15957
582.39754,0.11386
584.32600,0.12332
586.25447,0.16597
588.18294,0.17309
590.11141,0.15555
592.03988,0.13746
593.96835,0.11952
595.89682,0.11133
597.82528,0.11462
599.75375,0.12784
601.68222,0.14634
603.61069,0.15381
605.53916,0.14301
607.46763,0.13849
609.39610,0.15252
611.32456,0.15249
613.25303,0.14000
615.18150,0.14220
617.10997,0.13702
619.03844,0.12374
620.96691,0.12728
622.89538,0.13347
624.82385,0.13772
626.75231,0.15177
628.68078,0.16581
630.60925,0.15237
632.53772,0.11000
634.46619,0.08145
636.39466,0.08214
638.32313,0.10005
640.25159,0.13444
642.18006,0.16384
644.10853,0.16654
646.03700,0.15477
647.96547,0.14704
649.89394,0.13164
651.82241,0.10446
653.75088,0.09379
655.67934,0.09998
657.60781,0.11089
659.53628,0.13237
661.46475,0.15682
663.39322,0.16143
665.32169,0.13735
667.25016,0.10061
669.17862,0.08644
671.10709,0.09640
673.03556,0.10953
674.96403,0.12649
676.89250,0.14567
678.82097,0.14373
680.74944,0.10610
682.67791,0.08394
684.60637,0.11008
686.53484,0.13625
688.46331,0.13130
690.39178,0.11996
692.32025,0.12267
694.24872,0.13277
696.17719,0.13441
698.10565,0.13500
700.03412,0.14585
701.96259,0.14842
703.89106,0.13769
705.81953,0.14448
707.74800,0.16316
709.67647,0.18122
711.60494,0.21525
713.53340,0.21999
715.46187,0.17355
717.39034,0.14108
719.31881,0.14708
721.24728,0.16538
723.17575,0.16738
725.10422,0.14912
727.03268,0.13254
728.96115,0.13128
730.88962,0.14268
732.81809,0.15855
734.74656,0.16639
736.67503,0.16201
738.60350,0.15690
740.53197,0.15055
742.46043,0.13632
744.38890,0.12246
746.31737,0.11899
748.24584,0.12541
750.17431,0.13259
752.10278,0.13808
754.03125,0.14717
755.95971,0.15731
757.88818,0.15797
759.81665,0.14813
761.74512,0.13832
763.67359,0.13589
765.60206,0.13781
767.53053,0.14341
769.45900,0.15728
771.38746,0.16553
773.31593,0.15367
775.24440,0.13735
777.17287,0.13730
779.10134,0.14344
781.02981,0.13744
782.95828,0.12704
784.88674,0.12690
786.81521,0.13458
788.74368,0.13855
790.67215,0.14375
792.60062,0.15365
794.52909,0.15802
796.45756,0.16108
798.38602,0.16225
800.31449,0.14960
802.24296,0.12895
804.17143,0.11772
806.09990,0.12262
808.02837,0.13900
809.95684,0.15155
811.88531,0.14647
813.81377,0.13804
815.74224,0.13730
817.67071,0.13169
819.59918,0.12253
821.52765,0.12229
823.45612,0.13686
825.38459,0.15778
827.31305,0.16717
829.24152,0.16427
831.16999,0.16333
833.09846,0.17138
835.02693,0.17993
836.95540,0.18392
838.88387,0.18505
840.81234,0.17131
842.74080,0.14346
844.66927,0.12936
846.59774,0.13977
848.52621,0.15159
850.45468,0.14739
852.38315,0.13759
854.31162,0.13263
856.24008,0.13501
858.16855,0.14847
860.09702,0.15638
862.02549,0.14412
863.95396,0.13416
865.88243,0.13771
867.81090,0.13665
869.73937,0.12535
871.66783,0.11800
873.59630,0.12938
875.52477,0.14742
877.45324,0.14844
879.38171,0.13938
881.31018,0.13834
883.23865,0.14782
885.16711,0.16026
887.09558,0.16276
889.02405,0.15556
890.95252,0.15115
892.88099,0.14951
894.80946,0.14818
896.73793,0.14987
898.66640,0.15152
900.59486,0.15047
902.52333,0.14826
904.45180,0.14334
906.38027,0.13866
908.30874,0.14445
910.23721,0.15746
912.16568,0.16691
914.09414,0.16984
916.02261,0.16424
917.95108,0.15648
919.87955,0.15572
921.80802,0.15513
923.73649,0.14890
925.66496,0.14484
927.59343,0.14443
929.52189,0.14325
931.45036,0.14373
933.37883,0.14502
935.30730,0.14465
937.23577,0.15070
939.16424,0.16126
941.09271,0.16188
943.02117,0.15564
944.94964,0.15320
946.87811,0.15503
948.80658,0.15620
950.73505,0.15067
952.66352,0.14020
954.59199,0.13282
956.52045,0.13485
958.44892,0.14561
960.37739,0.15778
962.30586,0.16362
964.23433,0.16128
966.16280,0.15636
968.09127,0.14973
970.01974,0.14246
971.94820,0.14237
973.87667,0.14749
975.80514,0.15392
977.73361,0.16415
979.66208,0.17282
981.59055,0.17099
983.51902,0.16043
985.44748,0.15334
987.37595,0.15485
989.30442,0.15514
991.23289,0.15232
993.16136,0.15450
995.08983,0.15774
997.01830,0.15913
998.94677,0.16634
1000.87523,0.17468
1002.80370,0.17532
1004.73217,0.17524
1006.66064,0.17820
1008.58911,0.17843
1010.51758,0.17434
1012.44605,0.16586
1014.37451,0.15650
1016.30298,0.15194
1018.23145,0.15517
1020.15992,0.16671
1022.08839,0.17701
1024.01686,0.18001
1025.94533,0.18188
1027.87380,0.18164
1029.80226,0.17485
1031.73073,0.16659
1033.65920,0.16355
1035.58767,0.16211
1037.51614,0.15875
1039.44461,0.16077
1041.37308,0.16997
1043.30154,0.17514
1045.23001,0.16629
1047.15848,0.15319
1049.08695,0.15432
1051.01542,0.16617
1052.94389,0.17201
1054.87236,0.16893
1056.80083,0.16721
1058.72929,0.17136
1060.65776,0.17531
1062.58623,0.17277
1064.51470,0.16698
1066.44317,0.17002
1068.37164,0.18179
1070.30011,0.18891
1072.22857,0.18730
1074.15704,0.17829
1076.08551,0.16334
1078.01398,0.15219
1079.94245,0.15292
1081.87092,0.16442
1083.79939,0.17561
1085.72786,0.17708
1087.65632,0.17384
1089.58479,0.17002
1091.51326,0.16711
1093.44173,0.16409
1095.37020,0.15845
1097.29867,0.16095
1099.22714,0.17338
1101.15560,0.17854
1103.08407,0.17393
1105.01254,0.17170
1106.94101,0.17734
1108.86948,0.18487
1110.79795,0.18443
1112.72642,0.18308
1114.65489,0.18606
1116.58335,0.18321
1118.51182,0.17791
1120.44029,0.17944
1122.36876,0.18622
1124.29723,0.19173
1126.22570,0.18959
1128.15417,0.17863
1130.08263,0.16731
1132.01110,0.16308
1133.93957,0.16587
1135.86804,0.17285
1137.79651,0.17408
1139.72498,0.16753
1141.65345,0.16561
1143.58191,0.17113
1145.51038,0.17498
1147.43885,0.17507
1149.36732,0.17689
1151.29579,0.17856
1153.22426,0.17582
1155.15273,0.17000
1157.08120,0.16571
1159.00966,0.16646
1160.93813,0.16970
1162.86660,0.17170
1164.79507,0.17417
1166.72354,0.17769
1168.65201,0.17811
1170.58048,0.17934
1172.50894,0.18284
1174.43741,0.18088
1176.36588,0.17743
1178.29435,0.17649
1180.22282,0.17325
1182.15129,0.17009
1184.07976,0.17066
1186.00823,0.17322
1187.93669,0.17555
1189.86516,0.17549
1191.79363,0.17316
1193.72210,0.17106
1195.65057,0.16948
1197.57904,0.16660
1199.50751,0.16442
1201.43597,0.16625
1203.36444,0.16907
1205.29291,0.17042
1207.22138,0.17204
1209.14985,0.17476
1211.07832,0.17665
1213.00679,0.17470
1214.93526,0.17208
1216.86372,0.17278
1218.79219,0.17444
1220.72066,0.17597
1222.64913,0.17797
1224.57760,0.17876
1226.50607,0.17790
1228.43454,0.17849
1230.36300,0.18150
1232.29147,0.18167
1234.21994,0.17622
1236.14841,0.17229
1238.07688,0.17337
1240.00535,0.17220
1241.93382,0.16784
1243.86229,0.16732
1245.79075,0.17032
1247.71922,0.17221
1249.64769,0.17101
1251.57616,0.16862
1253.50463,0.16902
1255.43310,0.17040
1257.36157,0.17267
1259.29003,0.17917
1261.21850,0.18309
1263.14697,0.17960
1265.07544,0.17256
1267.00391,0.16547
1268.93238,0.16436
1270.86085,0.16980
1272.78932,0.17467
1274.71778,0.17682
1276.64625,0.17834
1278.57472,0.17917
1280.50319,0.17880
1282.43166,0.17649
1284.36013,0.17371
1286.28860,0.17621
1288.21706,0.18337
1290.14553,0.18692
1292.07400,0.18585
1294.00247,0.18449
1295.93094,0.18135
1297.85941,0.17648
1299.78788,0.17238
1301.71634,0.16600
1303.64481,0.15793
1305.57328,0.15826
1307.50175,0.16831
1309.43022,0.17383
1311.35869,0.17250
1313.28716,0.17444
1315.21563,0.17877
1317.14409,0.18220
1319.07256,0.18489
1321.00103,0.18643
1322.92950,0.18748
1324.85797,0.18415
1326.78644,0.17585
1328.71491,0.17172
1330.64337,0.17403
1332.57184,0.17815
1334.50031,0.18184
1336.42878,0.18288
1338.35725,0.18304
1340.28572,0.18274
1342.21419,0.18007
1344.14266,0.17757
1346.07112,0.17572
1347.99959,0.17579
1349.92806,0.17813
1351.85653,0.17929
1353.78500,0.17747
1355.71347,0.17460
1357.64194,0.17450
1359.57040,0.17796
1361.49887,0.18320
1363.42734,0.18714
1365.35581,0.18853
1367.28428,0.18709
1369.21275,0.18368
1371.14122,0.18398
1373.06969,0.18699
1374.99815,0.18806
1376.92662,0.18939
1378.85509,0.19002
1380.78356,0.18837
1382.71203,0.18876
1384.64050,0.19277
1386.56897,0.19620
1388.49743,0.19491
1390.42590,0.19264
1392.35437,0.19446
1394.28284,0.19732
1396.21131,0.19561
1398.13978,0.19338
1400.06825,0.19289
1401.99672,0.19134
1403.92518,0.19113
1405.85365,0.19385
1407.78212,0.19505
1409.71059,0.19385
1411.63906,0.19181
1413.56753,0.18780
1415.49600,0.18503
1417.42446,0.18920
1419.35293,0.19770
1421.28140,0.20060
1423.20987,0.19761
1425.13834,0.19326
1427.06681,0.19267
1428.99528,0.19600
1430.92375,0.19710
1432.85221,0.19450
1434.78068,0.19361
1436.70915,0.19518
1438.63762,0.19527
1440.56609,0.19518
1442.49456,0.19769
1444.42303,0.19961
1446.35149,0.19615
1448.27996,0.19328
1450.20843,0.19771
1452.13690,0.20318
1454.06537,0.21081
1455.99384,0.22865
1457.92231,0.23495
1459.85077,0.21523
1461.77924,0.20265
1463.70771,0.20157
1465.63618,0.20394
1467.56465,0.20469
1469.49312,0.20915
1471.42159,0.21739
1473.35006,0.21565
1475.27852,0.20176
1477.20699,0.19417
1479.13546,0.19478
1481.06393,0.19526
1482.99240,0.19364
1484.92087,0.19705
1486.84934,0.20699
1488.77780,0.21217
1490.70627,0.20482
1492.63474,0.19975
1494.56321,0.20349
1496.49168,0.21081
1498.42015,0.21167
1500.34862,0.20202
1502.27709,0.18960
1504.20555,0.18140
1506.13402,0.18380
1508.06249,0.20071
1509.99096,0.20868
1511.91943,0.21031
1513.84790,0.21331
1515.77637,0.21775
1517.70483,0.21774
1519.63330,0.21353
1521.56177,0.21038
1523.49024,0.20623
1525.41871,0.20353
1527.34718,0.20156
1529.27565,0.19923
1531.20412,0.20227
1533.13258,0.20792
1535.06105,0.20630
1536.98952,0.20567
1538.91799,0.21457
1540.84646,0.22263
1542.77493,0.21742
1544.70340,0.21077
1546.63186,0.20600
1548.56033,0.20416
1550.48880,0.20226
1552.41727,0.19969
1554.34574,0.20170
1556.27421,0.21157
1558.20268,0.22965
1560.13115,0.22800
1562.05961,0.20995
1563.98808,0.19895
1565.91655,0.19544
1567.84502,0.19615
1569.77349,0.19670
1571.70196,0.19570
1573.63043,0.19525
1575.55889,0.19893
1577.48736,0.20326
1579.41583,0.19858
1581.34430,0.19084
1583.27277,0.18760
1585.20124,0.18893
1587.12971,0.19091
1589.05818,0.19414
1590.98664,0.19764
1592.91511,0.19527
1594.84358,0.18926
1596.77205,0.18671
1598.70052,0.18833
1600.62899,0.19152
1602.55746,0.19341
1604.48592,0.19374
1606.41439,0.19474
1608.34286,0.19581
1610.27133,0.19403
1612.19980,0.19314
1614.12827,0.19691
1616.05674,0.20088
1617.98521,0.19994
1619.91367,0.19832
1621.84214,0.20024
1623.77061,0.20501
1625.69908,0.20793
1627.62755,0.20767
1629.55602,0.20473
1631.48449,0.20430
1633.41295,0.21334
1635.34142,0.22937
1637.26989,0.22723
1639.19836,0.21304
1641.12683,0.20448
1643.05530,0.20489
1644.98377,0.21532
1646.91223,0.22686
1648.84070,0.22600
1650.76917,0.22561
1652.69764,0.22740
1654.62611,0.21479
1656.55458,0.20467
1658.48305,0.20245
1660.41152,0.20293
1662.33998,0.20426
1664.26845,0.20720
1666.19692,0.21203
1668.12539,0.21859
1670.05386,0.22129
1671.98233,0.21766
1673.91080,0.21573
1675.83926,0.21465
1677.76773,0.21255
1679.69620,0.21374
1681.62467,0.22142
1683.55314,0.23331
1685.48161,0.23373
1687.41008,0.22587
1689.33855,0.21725
1691.26701,0.20897
1693.19548,0.20942
1695.12395,0.22180
1697.05242,0.23592
1698.98089,0.23843
1700.90936,0.22894
1702.83783,0.22150
1704.76629,0.22174
1706.69476,0.21747
1708.62323,0.20648
1710.55170,0.20106
1712.48017,0.20379
1714.40864,0.21171
1716.33711,0.22189
1718.26558,0.22139
1720.19404,0.21126
1722.12251,0.20331
1724.05098,0.19740
1725.97945,0.19565
1727.90792,0.20168
1729.83639,0.20975
1731.76486,0.21329
1733.69332,0.21496
1735.62179,0.21416
1737.55026,0.21324
1739.47873,0.21476
1741.40720,0.21679
1743.33567,0.21862
1745.26414,0.21879
1747.19261,0.21660
1749.12107,0.21452
1751.04954,0.21043
1752.97801,0.20392
1754.90648,0.20183
1756.83495,0.20517
1758.76342,0.20864
1760.69189,0.21118
1762.62035,0.21207
1764.54882,0.20921
1766.47729,0.20561
1768.40576,0.20283
1770.33423,0.20395
1772.26270,0.21007
1774.19117,0.21178
1776.11964,0.20872
1778.04810,0.20705
1779.97657,0.20714
1781.90504,0.20603
1783.83351,0.20359
1785.76198,0.20180
1787.69045,0.20149
1789.61892,0.20191
1791.54738,0.20239
1793.47585,0.20381
1795.40432,0.20410
1797.33279,0.20169
1799.26126,0.20035
1801.18973,0.20289
1803.11820,0.20477
1805.04666,0.20431
1806.97513,0.20426
1808.90360,0.20313
1810.83207,0.19959
1812.76054,0.19746
1814.68901,0.19711
1816.61748,0.19561
1818.54595,0.19395
1820.47441,0.19403
1822.40288,0.19564
1824.33135,0.19790
1826.25982,0.20249
1828.18829,0.21044
1830.11676,0.21370
1832.04523,0.20952
1833.97369,0.20723
1835.90216,0.20695
1837.83063,0.20501
1839.75910,0.20284
1841.68757,0.20351
1843.61604,0.20520
1845.54451,0.20425
1847.47298,0.20466
1849.40144,0.20530
1851.32991,0.20158
1853.25838,0.19825
1855.18685,0.20018
1857.11532,0.20342
1859.04379,0.20456
1860.97226,0.20482
1862.90072,0.20507
1864.82919,0.20638
1866.75766,0.20931
1868.68613,0.20942
1870.61460,0.20377
1872.54307,0.19978
1874.47154,0.20083
1876.40001,0.20241
1878.32847,0.20057
1880.25694,0.19794
1882.18541,0.19912
1884.11388,0.20269
1886.04235,0.20444
1887.97082,0.20480
1889.89929,0.20354
1891.82775,0.19997
1893.75622,0.19689
1895.68469,0.19677
1897.61316,0.20074
1899.54163,0.20450
1901.47010,0.20416
1903.39857,0.20253
1905.32704,0.20248
1907.25550,0.20441
1909.18397,0.20643
1911.11244,0.20675
1913.04091,0.20713
1914.96938,0.20726
1916.89785,0.20648
1918.82632,0.20682
1920.75478,0.20795
1922.68325,0.20777
1924.61172,0.20544
1926.54019,0.20227
1928.46866,0.19974
1930.39713,0.19775
1932.32560,0.19751
1934.25407,0.19919
1936.18253,0.19959
1938.11100,0.19960
1940.03947,0.20169
1941.96794,0.20368
1943.89641,0.20373
1945.82488,0.20286
1947.75335,0.20110
1949.68181,0.19989
1951.61028,0.20194
1953.53875,0.20437
1955.46722,0.20407
1957.39569,0.20423
1959.32416,0.20447
1961.25263,0.20200
1963.18110,0.20227
1965.10956,0.20890
1967.03803,0.21305
1968.96650,0.20934
1970.89497,0.20390
1972.82344,0.19990
1974.75191,0.19759
1976.68038,0.19902
1978.60884,0.20373
1980.53731,0.20763
1982.46578,0.20777
1984.39425,0.20550
1986.32272,0.20457
1988.25119,0.20619
1990.17966,0.20842
1992.10812,0.20896
1994.03659,0.20702
1995.96506,0.20392
1997.89353,0.20123
1999.82200,0.20075
2001.75047,0.20211
2003.67894,0.20256
2005.60741,0.20277
2007.53587,0.20398
2009.46434,0.20478
2011.39281,0.20471
2013.32128,0.20421
2015.24975,0.20350
2017.17822,0.20320
2019.10669,0.20489
2021.03515,0.20772
2022.96362,0.20713
2024.89209,0.20286
2026.82056,0.20088
2028.74903,0.20365
2030.67750,0.20691
2032.60597,0.20753
2034.53444,0.20732
2036.46290,0.20763
2038.39137,0.20705
2040.31984,0.20450
2042.24831,0.20064
2044.17678,0.19712
2046.10525,0.19587
2048.03372,0.19840
2049.96218,0.20297
2051.89065,0.20558
2053.81912,0.20586
2055.74759,0.20628
2057.67606,0.20646
2059.60453,0.20515
2061.53300,0.20404
2063.46147,0.20344
2065.38993,0.20324
2067.31840,0.20517
2069.24687,0.20630
2071.17534,0.20490
2073.10381,0.20507
2075.03228,0.20682
2076.96075,0.20746
2078.88921,0.20703
2080.81768,0.20658
2082.74615,0.20675
2084.67462,0.20582
2086.60309,0.20365
2088.53156,0.20268
2090.46003,0.20201
2092.38850,0.20133
2094.31696,0.20281
2096.24543,0.20469
2098.17390,0.20479
2100.10237,0.20383
2102.03084,0.20287
2103.95931,0.20300
2105.88778,0.20308
2107.81624,0.20284
2109.74471,0.20401
2111.67318,0.20423
2113.60165,0.20234
2115.53012,0.20200
2117.45859,0.20403
2119.38706,0.20512
2121.31553,0.20390
2123.24399,0.20220
2125.17246,0.20141
2127.10093,0.20238
2129.02940,0.20552
2130.95787,0.20777
2132.88634,0.20655
2134.81481,0.20450
2136.74327,0.20360
2138.67174,0.20171
2140.60021,0.19973
2142.52868,0.20028
2144.45715,0.20148
2146.38562,0.20172
2148.31409,0.20151
2150.24255,0.20139
2152.17102,0.20409
2154.09949,0.20844
2156.02796,0.20866
2157.95643,0.20538
2159.88490,0.20304
2161.81337,0.20199
2163.74184,0.20167
2165.67030,0.20381
2167.59877,0.20770
2169.52724,0.20887
2171.45571,0.20678
2173.38418,0.20457
2175.31265,0.20222
2177.24112,0.19946
2179.16958,0.19938
2181.09805,0.20261
2183.02652,0.20483
2184.95499,0.20478
2186.88346,0.20479
2188.81193,0.20472
2190.74040,0.20470
2192.66887,0.20467
2194.59733,0.20365
2196.52580,0.20288
2198.45427,0.20257
2200.38274,0.20247
2202.31121,0.20251
2204.23968,0.20100
2206.16815,0.19753
2208.09661,0.19488
2210.02508,0.19621
2211.95355,0.20008
2213.88202,0.20167
2215.81049,0.19966
2217.73896,0.19802
2219.66743,0.19917
2221.59590,0.20142
2223.52436,0.20350
2225.45283,0.20512
2227.38130,0.20508
2229.30977,0.20250
2231.23824,0.19991
2233.16671,0.20028
2235.09518,0.20215
2237.02364,0.20381
2238.95211,0.20644
2240.88058,0.20941
2242.80905,0.21032
2244.73752,0.20971
2246.66599,0.20920
2248.59446,0.20846
2250.52293,0.20799
2252.45139,0.20838
2254.37986,0.20759
2256.30833,0.20601
2258.23680,0.20648
2260.16527,0.20759
2262.09374,0.20652
2264.02221,0.20468
2265.95067,0.20412
2267.87914,0.20386
2269.80761,0.20449
2271.73608,0.20623
2273.66455,0.20660
2275.59302,0.20582
2277.52149,0.20578
2279.44996,0.20567
2281.37842,0.20367
2283.30689,0.20149
2285.23536,0.20115
2287.16383,0.20063
2289.09230,0.19844
2291.02077,0.19582
2292.94924,0.19309
2294.87770,0.18941
2296.80617,0.18553
2298.73464,0.18463
2300.66311,0.18838
2302.59158,0.19363
2304.52005,0.19638
2306.44852,0.19383
2308.37699,0.18600
2310.30545,0.17840
2312.23392,0.17643
2314.16239,0.17791
2316.09086,0.17804
2318.01933,0.17691
2319.94780,0.17470
2321.87627,0.17203
2323.80473,0.16974
2325.73320,0.16498
2327.66167,0.15515
2329.59014,0.14685
2331.51861,0.15518
2333.44708,0.16973
2335.37555,0.17502
2337.30401,0.17783
2339.23248,0.17520
2341.16095,0.17007
2343.08942,0.17295
2345.01789,0.17410
2346.94636,0.17103
2348.87483,0.16932
2350.80330,0.16407
2352.73176,0.15304
2354.66023,0.14694
2356.58870,0.14469
2358.51717,0.13675
2360.44564,0.13078
2362.37411,0.13275
2364.30258,0.14798
2366.23104,0.16083
2368.15951,0.15618
2370.08798,0.15624
2372.01645,0.17068
2373.94492,0.18106
2375.87339,0.18255
2377.80186,0.18478
2379.73033,0.19105
2381.65879,0.19821
2383.58726,0.20181
2385.51573,0.20133
2387.44420,0.20201
2389.37267,0.20607
2391.30114,0.20816
2393.22961,0.20571
2395.15807,0.20417
2397.08654,0.20630
2399.01501,0.20743
2400.94348,0.20554
2402.87195,0.20502
2404.80042,0.20641
2406.72889,0.20600
2408.65736,0.20578
2410.58582,0.20720
2412.51429,0.20643
2414.44276,0.20369
2416.37123,0.20208
2418.29970,0.20347
2420.22817,0.20726
2422.15664,0.20911
2424.08510,0.20768
2426.01357,0.20501
2427.94204,0.20289
2429.87051,0.20336
2431.79898,0.20605
2433.72745,0.20914
2435.65592,0.20930
2437.58439,0.20472
2439.51285,0.19970
2441.44132,0.19766
2443.36979,0.19779
2445.29826,0.19918
2447.22673,0.20092
2449.15520,0.20414
2451.08367,0.21081
2453.01213,0.21430
2454.94060,0.21228
2456.86907,0.21158
2458.79754,0.20934
2460.72601,0.20458
2462.65448,0.20272
2464.58295,0.20378
2466.51142,0.20666
2468.43988,0.20808
2470.36835,0.20876
2472.29682,0.21134
2474.22529,0.21050
2476.15376,0.20641
2478.08223,0.20434
2480.01070,0.20396
2481.93916,0.20528
2483.86763,0.20779
2485.79610,0.20918
2487.72457,0.20938
2489.65304,0.20854
2491.58151,0.20677
2493.50998,0.20618
2495.43844,0.20833
2497.36691,0.21038
2499.29538,0.20978
2501.22385,0.20761
2503.15232,0.20645
2505.08079,0.20754
2507.00926,0.20877
2508.93773,0.20880
2510.86619,0.20811
2512.79466,0.20759
2514.72313,0.20755
2516.65160,0.20696
2518.58007,0.20616
2520.50854,0.20503
2522.43701,0.20314
2524.36547,0.20267
2526.29394,0.20521
2528.22241,0.20813
2530.15088,0.20830
2532.07935,0.20660
2534.00782,0.20569
2535.93629,0.20677
2537.86476,0.20764
2539.79322,0.20591
2541.72169,0.20447
2543.65016,0.20628
2545.57863,0.20932
2547.50710,0.21021
2549.43557,0.20807
2551.36404,0.20500
2553.29250,0.20384
2555.22097,0.20598
2557.14944,0.20929
2559.07791,0.20972
2561.00638,0.20742
2562.93485,0.20595
2564.86332,0.20615
2566.79179,0.20609
2568.72025,0.20599
2570.64872,0.20747
2572.57719,0.21035
2574.50566,0.21208
2576.43413,0.21149
2578.36260,0.21055
2580.29107,0.21027
2582.21953,0.21148
2584.14800,0.21348
2586.07647,0.21317
2588.00494,0.21220
2589.93341,0.21255
2591.86188,0.21206
2593.79035,0.21240
2595.71882,0.21469
2597.64728,0.21610
2599.57575,0.21633
2601.50422,0.21464
2603.43269,0.21111
2605.36116,0.20892
2607.28963,0.20956
2609.21810,0.21167
2611.14656,0.21308
2613.07503,0.21326
2615.00350,0.21309
2616.93197,0.21280
2618.86044,0.21096
2620.78891,0.20802
2622.71738,0.20687
2624.64585,0.20759
2626.57431,0.20800
2628.50278,0.20782
2630.43125,0.20999
2632.35972,0.21468
2634.28819,0.21694
2636.21666,0.21506
2638.14513,0.21303
2640.07359,0.21377
2642.00206,0.21596
2643.93053,0.21632
2645.85900,0.21402
2647.78747,0.21245
2649.71594,0.21283
2651.64441,0.21286
2653.57288,0.21106
2655.50134,0.20823
2657.42981,0.20690
2659.35828,0.20731
2661.28675,0.20766
2663.21522,0.20845
2665.14369,0.21041
2667.07216,0.21085
2669.00062,0.20927
2670.92909,0.21009
2672.85756,0.21251
2674.78603,0.21216
2676.71450,0.21128
2678.64297,0.21169
2680.57144,0.21152
2682.49990,0.21338
2684.42837,0.21824
2686.35684,0.22177
2688.28531,0.22213
2690.21378,0.21993
2692.14225,0.21712
2694.07072,0.21536
2695.99919,0.21383
2697.92765,0.21179
2699.85612,0.21081
2701.78459,0.21284
2703.71306,0.21528
2705.64153,0.21479
2707.57000,0.21461
2709.49847,0.21770
2711.42693,0.21921
2713.35540,0.21675
2715.28387,0.21420
2717.21234,0.21196
2719.14081,0.21043
2721.06928,0.21214
2722.99775,0.21539
2724.92622,0.21813
2726.85468,0.21951
2728.78315,0.21851
2730.71162,0.21598
2732.64009,0.21374
2734.56856,0.21216
2736.49703,0.21215
2738.42550,0.21566
2740.35396,0.21998
2742.28243,0.22061
2744.21090,0.21802
2746.13937,0.21569
2748.06784,0.21657
2749.99631,0.22021
2751.92478,0.22292
2753.85325,0.22320
2755.78171,0.22357
2757.71018,0.22576
2759.63865,0.22813
2761.56712,0.22839
2763.49559,0.22558
2765.42406,0.22070
2767.35253,0.21782
2769.28099,0.21888
2771.20946,0.21992
2773.13793,0.22010
2775.06640,0.22094
2776.99487,0.21988
2778.92334,0.21711
2780.85181,0.21612
2782.78028,0.21807
2784.70874,0.22203
2786.63721,0.22530
2788.56568,0.22548
2790.49415,0.22378
2792.42262,0.22316
2794.35109,0.22317
2796.27956,0.22003
2798.20802,0.21558
2800.13649,0.21584
2802.06496,0.21971
2803.99343,0.22307
2805.92190,0.22557
2807.85037,0.22672
2809.77884,0.22584
2811.70731,0.22453
2813.63577,0.22423
2815.56424,0.22505
2817.49271,0.22597
2819.42118,0.22366
2821.34965,0.21896
2823.27812,0.21890
2825.20659,0.22403
2827.13505,0.22529
2829.06352,0.22050
2830.99199,0.21895
2832.92046,0.22306
2834.84893,0.22669
2836.77740,0.22567
2838.70587,0.22137
2840.63433,0.22167
2842.56280,0.22646
2844.49127,0.22856
2846.41974,0.23038
2848.34821,0.23192
2850.27668,0.22716
2852.20515,0.22063
2854.13362,0.21922
2856.06208,0.22257
2857.99055,0.22807
2859.91902,0.23145
2861.84749,0.22987
2863.77596,0.22449
2865.70443,0.21923
2867.63290,0.21784
2869.56136,0.22008
2871.48983,0.22266
2873.41830,0.22187
2875.34677,0.22081
2877.27524,0.22382
2879.20371,0.22731
2881.13218,0.22952
2883.06065,0.23041
2884.98911,0.22804
2886.91758,0.22465
2888.84605,0.22341
2890.77452,0.22381
2892.70299,0.22271
2894.63146,0.21899
2896.55993,0.21806
2898.48839,0.22393
2900.41686,0.23013
2902.34533,0.23017
2904.27380,0.22653
2906.20227,0.22245
2908.13074,0.21825
2910.05921,0.21451
2911.98768,0.21210
2913.91614,0.20985
2915.84461,0.20798
2917.77308,0.21097
2919.70155,0.21841
2921.63002,0.22432
2923.55849,0.22566
2925.48696,0.22173
2927.41542,0.21598
2929.34389,0.21603
2931.27236,0.22210
2933.20083,0.22675
2935.12930,0.22529
2937.05777,0.21970
2938.98624,0.21687
2940.91471,0.21991
2942.84317,0.22579
2944.77164,0.22762
2946.70011,0.22095
2948.62858,0.21711
2950.55705,0.22503
2952.48552,0.23378
2954.41399,0.23408
2956.34245,0.22817
2958.27092,0.22453
2960.19939,0.22667
2962.12786,0.22665
2964.05633,0.22206
2965.98480,0.21812
2967.91327,0.21803
2969.84174,0.22451
2971.77020,0.23173
2973.69867,0.23168
2975.62714,0.22731
2977.55561,0.22483
2979.48408,0.22699
2981.41255,0.22905
2983.34102,0.22725
2985.26948,0.22506
2987.19795,0.22123
2989.12642,0.21942
2991.05489,0.22636
2992.98336,0.23250
2994.91183,0.23104
2996.84030,0.23071
2998.76877,0.23397
3000.69723,0.23444
3002.62570,0.23193
3004.55417,0.23195
3006.48264,0.23420
3008.41111,0.23166
3010.33958,0.22106
3012.26805,0.20536
3014.19651,0.18559
3016.12498,0.16826
3018.05345,0.17457
3019.98192,0.20404
3021.91039,0.22569
3023.83886,0.23134
3025.76733,0.23203
3027.69579,0.22822
3029.62426,0.22359
3031.55273,0.22479
3033.48120,0.23053
3035.40967,0.23417
3037.33814,0.23135
3039.26661,0.22564
3041.19508,0.22177
3043.12354,0.22369
3045.05201,0.23094
3046.98048,0.23359
3048.90895,0.23058
3050.83742,0.22873
3052.76589,0.22804
3054.69436,0.22678
3056.62282,0.22291
3058.55129,0.22061
3060.47976,0.22447
3062.40823,0.22772
3064.33670,0.22547
3066.26517,0.22090
3068.19364,0.21994
3070.12211,0.22311
3072.05057,0.22521
3073.97904,0.22295
3075.90751,0.21916
3077.83598,0.22279
3079.76445,0.23188
3081.69292,0.23246
3083.62139,0.21942
3085.54985,0.20363
3087.47832,0.19977
3089.40679,0.20779
3091.33526,0.21482
3093.26373,0.21205
3095.19220,0.20824
3097.12067,0.21620
3099.04914,0.22791
3100.97760,0.22925
3102.90607,0.22153
3104.83454,0.21702
3106.76301,0.22016
3108.69148,0.22269
3110.61995,0.21962
3112.54842,0.21602
3114.47688,0.21798
3116.40535,0.22351
3118.33382,0.22779
3120.26229,0.22849
3122.19076,0.22520
3124.11923,0.22229
3126.04770,0.22389
3127.97617,0.22813
3129.90463,0.22937
3131.83310,0.22714
3133.76157,0.22743
3135.69004,0.23035
3137.61851,0.23107
3139.54698,0.23105
3141.47545,0.23440
3143.40391,0.23586
3145.33238,0.23047
3147.26085,0.22565
3149.18932,0.22816
3151.11779,0.23351
3153.04626,0.23411
3154.97473,0.23261
3156.90320,0.23425
3158.83166,0.23614
3160.76013,0.23473
3162.68860,0.23125
3164.61707,0.23163
3166.54554,0.23698
3168.47401,0.23902
3170.40248,0.23424
3172.33094,0.23114
3174.25941,0.23400
3176.18788,0.23522
3178.11635,0.23412
3180.04482,0.23727
3181.97329,0.24164
3183.90176,0.24051
3185.83022,0.23676
3187.75869,0.23463
3189.68716,0.23169
3191.61563,0.22864
3193.54410,0.22857
3195.47257,0.23048
3197.40104,0.23305
3199.32951,0.23663
3201.25797,0.23916
3203.18644,0.23740
3205.11491,0.23151
3207.04338,0.22519
3208.97185,0.22292
3210.90032,0.22375
3212.82879,0.22557
3214.75725,0.23029
3216.68572,0.23538
3218.61419,0.23554
3220.54266,0.23343
3222.47113,0.23231
3224.39960,0.22926
3226.32807,0.22637
3228.25654,0.22724
3230.18500,0.23091
3232.11347,0.23719
3234.04194,0.24204
3235.97041,0.23756
3237.89888,0.22569
3239.82735,0.21959
3241.75582,0.22115
3243.68428,0.22283
3245.61275,0.22523
3247.54122,0.22540
3249.46969,0.22053
3251.39816,0.21825
3253.32663,0.21981
3255.25510,0.21931
3257.18357,0.21818
3259.11203,0.22046
3261.04050,0.22604
3262.96897,0.23183
3264.89744,0.23319
3266.82591,0.23215
3268.75438,0.23242
3270.68285,0.22926
3272.61131,0.22343
3274.53978,0.22428
3276.46825,0.23015
3278.39672,0.23084
3280.32519,0.22704
3282.25366,0.22679
3284.18213,0.23079
3286.11060,0.23377
3288.03906,0.23570
3289.96753,0.23778
3291.89600,0.23362
3293.82447,0.22292
3295.75294,0.21743
3297.68141,0.22290
3299.60988,0.23095
3301.53834,0.23175
3303.46681,0.22727
3305.39528,0.22574
3307.32375,0.22826
3309.25222,0.23173
3311.18069,0.23424
3313.10916,0.23240
3315.03763,0.22674
3316.96609,0.22357
3318.89456,0.22620
3320.82303,0.23010
3322.75150,0.23069
3324.67997,0.23038
3326.60844,0.23070
3328.53691,0.22999
3330.46537,0.22921
3332.39384,0.23049
3334.32231,0.23215
3336.25078,0.23207
3338.17925,0.23314
3340.10772,0.23631
3342.03619,0.23837
3343.96466,0.23602
3345.89312,0.22743
3347.82159,0.22125
3349.75006,0.22555
3351.67853,0.23006
3353.60700,0.22888
3355.53547,0.22824
3357.46394,0.22633
3359.39240,0.22319
3361.32087,0.22316
3363.24934,0.22431
3365.17781,0.22426
3367.10628,0.22250
3369.03475,0.22035
3370.96322,0.21945
3372.89168,0.21954
3374.82015,0.22271
3376.74862,0.22820
3378.67709,0.23014
3380.60556,0.23098
3382.53403,0.23404
3384.46250,0.23079
3386.39097,0.22176
3388.31943,0.21911
3390.24790,0.22117
3392.17637,0.22107
3394.10484,0.22413
3396.03331,0.23020
3397.96178,0.23053
3399.89025,0.22858
3401.81871,0.22822
3403.74718,0.22436
3405.67565,0.22133
3407.60412,0.22595
3409.53259,0.23255
3411.46106,0.23361
3413.38953,0.23034
3415.31800,0.22648
3417.24646,0.22329
3419.17493,0.22350
3421.10340,0.22617
3423.03187,0.22688
3424.96034,0.22691
3426.88881,0.22704
3428.81728,0.22721
3430.74574,0.22784
3432.67421,0.22794
3434.60268,0.22839
3436.53115,0.23033
3438.45962,0.23162
3440.38809,0.22710
3442.31656,0.21983
3444.24503,0.22014
3446.17349,0.22775
3448.10196,0.23302
3450.03043,0.23076
3451.95890,0.22472
3453.88737,0.22047
3455.81584,0.21970
3457.74431,0.21990
3459.67277,0.22132
3461.60124,0.22548
3463.52971,0.22689
3465.45818,0.22433
3467.38665,0.22562
3469.31512,0.23005
3471.24359,0.22817
3473.17206,0.22094
3475.10052,0.21391
3477.02899,0.20501
3478.95746,0.19819
3480.88593,0.20082
3482.81440,0.20715
3484.74287,0.20885
3486.67134,0.20645
3488.59980,0.20150
3490.52827,0.19764
3492.45674,0.19882
3494.38521,0.20260
3496.31368,0.20381
3498.24215,0.19899
3500.17062,0.19316
3502.09909,0.19374
3504.02755,0.19677
3505.95602,0.19772
3507.88449,0.19845
3509.81296,0.19819
3511.74143,0.19381
3513.66990,0.18441
3515.59837,0.17793
3517.52683,0.18178
3519.45530,0.19187
3521.38377,0.20113
3523.31224,0.20301
3525.24071,0.19746
3527.16918,0.19374
3529.09765,0.19241
3531.02611,0.18746
3532.95458,0.18333
3534.88305,0.18545
3536.81152,0.18770
3538.73999,0.18529
3540.66846,0.18283
3542.59693,0.18076
3544.52540,0.17903
3546.45386,0.18289
3548.38233,0.18927
3550.31080,0.19134
3552.23927,0.19022
3554.16774,0.18928
3556.09621,0.18799
3558.02468,0.18483
3559.95314,0.18354
3561.88161,0.18610
3563.81008,0.18763
3565.73855,0.18531
3567.66702,0.18001
3569.59549,0.17531
3571.52396,0.17236
3573.45243,0.17060
3575.38089,0.16937
3577.30936,0.16659
3579.23783,0.16381
3581.16630,0.16456
3583.09477,0.16883
3585.02324,0.17464
3586.95171,0.17987
3588.88017,0.18090
3590.80864,0.17619
3592.73711,0.16885
3594.66558,0.16660
3596.59405,0.17387
3598.52252,0.18016
3600.45099,0.17830
3602.37946,0.17184
3604.30792,0.16479
3606.23639,0.16168
3608.16486,0.16557
3610.09333,0.17028
3612.02180,0.17097
3613.95027,0.16847
3615.87874,0.16592
3617.80720,0.16738
3619.73567,0.16715
3621.66414,0.15961
3623.59261,0.15521
3625.52108,0.16055
3627.44955,0.17456
3629.37802,0.18259
3631.30649,0.17294
3633.23495,0.16260
3635.16342,0.15915
3637.09189,0.16113
3639.02036,0.16018
3640.94883,0.15477
3642.87730,0.15159
3644.80577,0.15301
3646.73423,0.16178
3648.66270,0.17379
3650.59117,0.16532
3652.51964,0.15198
3654.44811,0.15117
3656.37658,0.15592
3658.30505,0.15424
3660.23352,0.14828
3662.16198,0.14524
3664.09045,0.14420
3666.01892,0.14365
3667.94739,0.14682
3669.87586,0.15202
3671.80433,0.15323
3673.73280,0.15447
3675.66126,0.15428
3677.58973,0.15192
3679.51820,0.15287
3681.44667,0.15035
3683.37514,0.14198
3685.30361,0.13588
3687.23208,0.13813
3689.16055,0.14701
3691.08901,0.14807
3693.01748,0.14147
3694.94595,0.13666
3696.87442,0.13284
3698.80289,0.13075
3700.73136,0.13425
3702.65983,0.14024
3704.58829,0.14064
3706.51676,0.13899
3708.44523,0.14181
3710.37370,0.14684
3712.30217,0.14796
3714.23064,0.14742
3716.15911,0.14695
3718.08757,0.14709
3720.01604,0.15078
3721.94451,0.15389
3723.87298,0.14945
3725.80145,0.14229
3727.72992,0.13754
3729.65839,0.13602
3731.58686,0.14094
3733.51532,0.14727
3735.44379,0.14279
3737.37226,0.13933
3739.30073,0.14403
3741.22920,0.15078
3743.15767,0.16063
3745.08614,0.17071
3747.01460,0.17385
3748.94307,0.17467
3750.87154,0.16480
3752.80001,0.14410
3754.72848,0.13371
3756.65695,0.13373
3758.58542,0.14148
3760.51389,0.14922
3762.44235,0.15023
3764.37082,0.14863
3766.29929,0.14407
3768.22776,0.13801
3770.15623,0.13443
3772.08470,0.13015
3774.01317,0.12586
3775.94163,0.12687
3777.87010,0.13478
3779.79857,0.14267
3781.72704,0.14293
3783.65551,0.14164
3785.58398,0.14415
3787.51245,0.14621
3789.44092,0.14199
3791.36938,0.13556
3793.29785,0.13657
3795.22632,0.14270
3797.15479,0.14228
3799.08326,0.13694
3801.01173,0.13880
3802.94020,0.14422
3804.86866,0.14375
3806.79713,0.14298
3808.72560,0.14245
3810.65407,0.14062
3812.58254,0.13866
3814.51101,0.13859
3816.43948,0.14371
3818.36795,0.15153
3820.29641,0.15939
3822.22488,0.16058
3824.15335,0.15385
3826.08182,0.14504
3828.01029,0.13716
3829.93876,0.13623
3831.86723,0.14194
3833.79569,0.14573
3835.72416,0.14472
3837.65263,0.14865
3839.58110,0.15244
3841.50957,0.14552
3843.43804,0.13758
3845.36651,0.13147
3847.29498,0.12808
3849.22344,0.13086
3851.15191,0.13751
3853.08038,0.14192
3855.00885,0.14365
3856.93732,0.14553
3858.86579,0.14573
3860.79426,0.14682
3862.72272,0.15107
3864.65119,0.15201
3866.57966,0.14808
3868.50813,0.14969
3870.43660,0.15621
3872.36507,0.15236
3874.29354,0.14157
3876.22200,0.13728
3878.15047,0.13972
3880.07894,0.14487
3882.00741,0.14643
3883.93588,0.13877
3885.86435,0.12998
3887.79282,0.13092
3889.72129,0.13602
3891.64975,0.13811
3893.57822,0.13513
3895.50669,0.13198
3897.43516,0.13462
3899.36363,0.14198
3901.29210,0.14538
3903.22057,0.14403
3905.14903,0.13891
3907.07750,0.12917
3909.00597,0.12203
3910.93444,0.12267
3912.86291,0.12824
3914.79138,0.13258
3916.71985,0.13132
3918.64832,0.12481
3920.57678,0.12134
3922.50525,0.12499
3924.43372,0.12871
3926.36219,0.12660
3928.29066,0.12536
3930.21913,0.12945
3932.14760,0.13135
3934.07606,0.12646
3936.00453,0.12136
3937.93300,0.11867
3939.86147,0.11739
3941.78994,0.11996
3943.71841,0.12352
3945.64688,0.12274
3947.57535,0.12306
3949.50381,0.12514
3951.43228,0.12407
3953.36075,0.12281
3955.28922,0.12394
3957.21769,0.12471
3959.14616,0.12263
3961.07463,0.11940
3963.00309,0.11684
3964.93156,0.11570
3966.86003,0.11476
3968.78850,0.11244
3970.71697,0.11239
3972.64544,0.11639
3974.57391,0.12056
3976.50238,0.12128
3978.43084,0.11958
3980.35931,0.11927
3982.28778,0.11845
3984.21625,0.11501
3986.14472,0.11551
3988.07319,0.12201
3990.00166,0.12687
3991.93012,0.12606
3993.85859,0.12113
3995.78706,0.11615
3997.71553,0.11558
3999.64400,0.11705
4001.57247,0.11626
4003.50094,0.11633
4005.42941,0.11725
4007.35787,0.11466
4009.28634,0.11206
4011.21481,0.11247
4013.14328,0.11639
4015.07175,0.12183
4017.00022,0.12201
4018.92869,0.11791
4020.85715,0.11435
4022.78562,0.11311
4024.71409,0.11525
4026.64256,0.11812
4028.57103,0.11858
4030.49950,0.11754
4032.42797,0.11417
4034.35644,0.10825
4036.28490,0.10674
4038.21337,0.10963
4040.14184,0.10982
4042.07031,0.10883
4043.99878,0.10750
4045.92725,0.10359
4047.85572,0.10167
4049.78418,0.10472
4051.71265,0.10750
4053.64112,0.10438
4055.56959,0.09899
4057.49806,0.09752
4059.42653,0.09905
4061.35500,0.10186
4063.28346,0.10251
4065.21193,0.09866
4067.14040,0.09541
4069.06887,0.09474
4070.99734,0.09590
4072.92581,0.10190
4074.85428,0.11013
4076.78275,0.11204
4078.71121,0.11047
4080.63968,0.11194
4082.56815,0.11128
4084.49662,0.10502
4086.42509,0.09558
4088.35356,0.08920
4090.28203,0.09221
4092.21049,0.09937
4094.13896,0.10340
4096.06743,0.10246
4097.99590,0.09734
4099.92437,0.09461
4101.85284,0.09859
4103.78131,0.10251
4105.70978,0.09995
4107.63824,0.09377
4109.56671,0.08952
4111.49518,0.09190
4113.42365,0.09836
4115.35212,0.10003
4117.28059,0.09605
4119.20906,0.09218
4121.13752,0.09175
4123.06599,0.09389
4124.99446,0.09522
4126.92293,0.09461
4128.85140,0.09397
4130.77987,0.09343
4132.70834,0.09219
4134.63681,0.09184
4136.56527,0.09209
4138.49374,0.09237
4140.42221,0.09433
4142.35068,0.09569
4144.27915,0.09573
4146.20762,0.09771
4148.13609,0.10026
4150.06455,0.10168
4151.99302,0.10203
4153.92149,0.09846
4155.84996,0.09201
4157.77843,0.08993
4159.70690,0.09217
4161.63537,0.09282
4163.56384,0.09413
4165.49230,0.09868
4167.42077,0.10236
4169.34924,0.10087
4171.27771,0.09538
4173.20618,0.09214
4175.13465,0.09346
4177.06312,0.09631
4178.99158,0.09615
4180.92005,0.09081
4182.84852,0.08619
4184.77699,0.08720
4186.70546,0.08824
4188.63393,0.08464
4190.56240,0.08053
4192.49087,0.07859
4194.41933,0.07757
4196.34780,0.07867
4198.27627,0.08516
4200.20474,0.09611
4202.13321,0.10332
4204.06168,0.10099
4205.99015,0.09472
4207.91861,0.09368
4209.84708,0.09712
4211.77555,0.09847
4213.70402,0.09544
4215.63249,0.08925
4217.56096,0.08330
4219.48943,0.08097
4221.41789,0.08197
4223.34636,0.08189
4225.27483,0.07874
4227.20330,0.07667
4229.13177,0.07883
4231.06024,0.08154
4232.98871,0.07876
4234.91718,0.07635
4236.84564,0.08216
4238.77411,0.08957
4240.70258,0.09206
4242.63105,0.08915
4244.55952,0.08503
4246.48799,0.08481
4248.41646,0.08662
4250.34492,0.08887
4252.27339,0.08741
4254.20186,0.07926
4256.13033,0.07156
4258.05880,0.06991
4259.98727,0.07314
4261.91574,0.07300
4263.84421,0.06813
4265.77267,0.07138
4267.70114,0.08034
4269.62961,0.07907
4271.55808,0.06974
4273.48655,0.06365
4275.41502,0.06145
4277.34349,0.06107
4279.27195,0.06514
4281.20042,0.07103
4283.12889,0.07021
4285.05736,0.06465
4286.98583,0.06402
4288.91430,0.06928
4290.84277,0.07381
4292.77124,0.07334
4294.69970,0.07126
4296.62817,0.07261
4298.55664,0.07661
4300.48511,0.07868
4302.41358,0.07755
4304.34205,0.07627
4306.27052,0.07421
4308.19898,0.06951
4310.12745,0.06611
4312.05592,0.06321
4313.98439,0.05652
4315.91286,0.05326
4317.84133,0.05662
4319.76980,0.05802
4321.69827,0.05865
4323.62673,0.06253
4325.55520,0.06243
4327.48367,0.05432
4329.41214,0.04568
4331.34061,0.04016
4333.26908,0.03882
4335.19755,0.04668
4337.12601,0.05899
4339.05448,0.06576
4340.98295,0.06410
4342.91142,0.05899
4344.83989,0.05471
4346.76836,0.05084
4348.69683,0.05027
4350.62530,0.04927
4352.55376,0.04471
4354.48223,0.04448
4356.41070,0.04545
4358.33917,0.04425
4360.26764,0.04922
4362.19611,0.05427
4364.12458,0.05274
4366.05304,0.05404
4367.98151,0.05613
4369.90998,0.04819
4371.83845,0.03625
4373.76692,0.03368
4375.69539,0.03877
4377.62386,0.04449
4379.55232,0.04992
4381.48079,0.05250
4383.40926,0.05106
4385.33773,0.04591
4387.26620,0.04225
4389.19467,0.04069
4391.12314,0.03060
4393.05161,0.02308
4394.98007,0.02915
4396.90854,0.03228
4398.83701,0.03304
4400.76548,0.04310
4402.69395,0.04990
4404.62242,0.04553
4406.55089,0.04267
4408.47935,0.04442
4410.40782,0.04628
4412.33629,0.05084
4414.26476,0.05401
4416.19323,0.05151
4418.12170,0.04556
4420.05017,0.03805
4421.97864,0.03646
4423.90710,0.04022
4425.83557,0.03910
4427.76404,0.03409
4429.69251,0.03145
4431.62098,0.03194
4433.54945,0.03308
4435.47792,0.03404
4437.40638,0.03996
4439.33485,0.04879
4441.26332,0.04852
4443.19179,0.03988
4445.12026,0.03362
4447.04873,0.03524
4448.97720,0.04107
4450.90567,0.03992
4452.83413,0.02944
4454.76260,0.02140
4456.69107,0.02422
4458.61954,0.03204
4460.54801,0.03408
4462.47648,0.02779
4464.40495,0.02016
4466.33341,0.02099
4468.26188,0.02733
4470.19035,0.02948
4472.11882,0.03024
4474.04729,0.03427
4475.97576,0.03807
4477.90423,0.03716
4479.83270,0.03298
4481.76116,0.03109
4483.68963,0.02888
4485.61810,0.02664
4487.54657,0.03495
4489.47504,0.04659
4491.40351,0.04404
4493.33198,0.03207
4495.26044,0.02641
4497.18891,0.02953
4499.11738,0.03185
4501.04585,0.02662
4502.97432,0.02402
4504.90279,0.03031
4506.83126,0.02923
4508.75973,0.01420
4510.68819,0.00305
4512.61666,0.00702
4514.54513,0.01656
4516.47360,0.02413
4518.40207,0.03308
4520.33054,0.03804
4522.25901,0.03145
4524.18747,0.01986
4526.11594,0.01295
4528.04441,0.01369
4529.97288,0.01950
4531.90135,0.02489
4533.82982,0.02821
4535.75829,0.03212
4537.68676,0.03525
4539.61522,0.03248
4541.54369,0.02732
4543.47216,0.02566
4545.40063,0.01947
4547.32910,0.00652
4549.25757,0.00026
4551.18604,0.00330
4553.11450,0.00641
4555.04297,0.00749
4556.97144,0.01171
4558.89991,0.01730
4560.82838,0.01906
4562.75685,0.02003
4564.68532,0.02334
4566.61378,0.02616
4568.54225,0.02058
4570.47072,0.00520
4572.39919,-0.00066
4574.32766,0.01313
4576.25613,0.02802
4578.18460,0.03290
4580.11307,0.02810
4582.04153,0.01409
4583.97000,0.00222
4585.89847,-0.00085
4587.82694,0.00027
4589.75541,0.00582
4591.68388,0.01468
4593.61235,0.01506
4595.54081,0.00569
4597.46928,0.00160
4599.39775,0.00465
4601.32622,0.00451
4603.25469,0.00072
4605.18316,0.00055
4607.11163,0.00755
4609.04010,0.01249
4610.96856,0.00728
4612.89703,0.00007
4614.82550,0.00116
4616.75397,0.00857
4618.68244,0.01346
4620.61091,0.01490
4622.53938,0.01386
4624.46784,0.01045
4626.39631,0.01305
4628.32478,0.01934
4630.25325,0.01810
4632.18172,0.01650
4634.11019,0.02380
4636.03866,0.02731
4637.96713,0.01959
4639.89559,0.01235
4641.82406,0.00876
4643.75253,0.00281
4645.68100,-0.00277
4647.60947,-0.00502
4649.53794,-0.00535
4651.46641,0.00383
4653.39487,0.02166
4655.32334,0.02849
4657.25181,0.02189
4659.18028,0.01439
4661.10875,0.00999
4663.03722,0.01441
4664.96569,0.02413
4666.89416,0.02228
4668.82262,0.01207
4670.75109,0.00919
4672.67956,0.01152
4674.60803,0.01290
4676.53650,0.01528
4678.46497,0.01776
4680.39344,0.01700
4682.32190,0.01455
4684.25037,0.01357
4686.17884,0.01336
4688.10731,0.01289
4690.03578,0.01326
4691.96425,0.01217
4693.89272,0.01102
4695.82119,0.01622
4697.74965,0.02137
4699.67812,0.01958
4701.60659,0.01632
4703.53506,0.01326
4705.46353,0.00854
4707.39200,0.00382
4709.32047,-0.00295
4711.24893,-0.00907
4713.17740,-0.00350
4715.10587,0.00750
4717.03434,0.01009
4718.96281,0.00719
4720.89128,0.00481
4722.81975,0.00267
4724.74821,0.00263
4726.67668,0.00930
4728.60515,0.01787
4730.53362,0.01826
4732.46209,0.01446
4734.39056,0.01470
4736.31903,0.01299
4738.24750,0.00773
4740.17596,0.00629
4742.10443,0.00992
4744.03290,0.01761
4745.96137,0.02751
4747.88984,0.03702
4749.81831,0.04305
4751.74678,0.04450
4753.67524,0.03721
4755.60371,0.01730
4757.53218,-0.00183
4759.46065,-0.00452
4761.38912,0.00229
4763.31759,0.00153
4765.24606,-0.00388
4767.17453,0.00041
4769.10299,0.01592
4771.03146,0.03118
4772.95993,0.03237
4774.88840,0.02021
4776.81687,0.01131
4778.74534,0.01604
4780.67381,0.02264
4782.60227,0.02011
4784.53074,0.01371
4786.45921,0.00914
4788.38768,0.01017
4790.31615,0.01428
4792.24462,0.01255
4794.17309,0.00794
4796.10156,0.01128
4798.03002,0.01489
4799.95849,0.01012
4801.88696,0.01010
4803.81543,0.02087
4805.74390,0.02852
4807.67237,0.02331
4809.60084,0.01244
4811.52930,0.00499
4813.45777,-0.00090
4815.38624,-0.00741
4817.31471,-0.00940
4819.24318,-0.00439
4821.17165,0.00332
4823.10012,0.00998
4825.02859,0.01036
4826.95705,0.00749
4828.88552,0.01668
4830.81399,0.03336
4832.74246,0.03186
4834.67093,0.01161
4836.59940,0.00469
4838.52787,0.01651
4840.45633,0.02156
4842.38480,0.01660
4844.31327,0.01351
4846.24174,0.01474
4848.17021,0.01239
4850.09868,0.00282
4852.02715,0.00006
4853.95562,0.01095
4855.88408,0.02429
4857.81255,0.03277
4859.74102,0.03608
4861.66949,0.03201
4863.59796,0.01969
4865.52643,0.00696
4867.45490,0.00468
4869.38336,0.00852
4871.31183,0.01242
4873.24030,0.01833
4875.16877,0.01734
4877.09724,0.01097
4879.02571,0.00617
4880.95418,-0.00059
4882.88265,0.00024
4884.81111,0.00843
4886.73958,0.00931
4888.66805,0.01133
4890.59652,0.01978
4892.52499,0.01495
4894.45346,0.00024
4896.38193,-0.00121
4898.31039,0.00259
4900.23886,-0.00675
4902.16733,-0.01881
4904.09580,-0.01875
4906.02427,-0.01170
4907.95274,-0.00758
4909.88121,-0.00980
4911.80967,-0.01614
4913.73814,-0.00952
4915.66661,0.01471
4917.59508,0.02674
4919.52355,0.01084
4921.45202,-0.00470
4923.38049,-0.00314
4925.30896,0.00512
4927.23742,0.01855
4929.16589,0.02907
4931.09436,0.02019
4933.02283,0.00195
4934.95130,-0.00218
4936.87977,0.00376
4938.80824,0.00358
4940.73670,0.00029
4942.66517,0.00321
4944.59364,0.00725
4946.52211,0.00396
4948.45058,0.00325
4950.37905,0.00820
4952.30752,0.00357
4954.23599,-0.00606
4956.16445,-0.00763
4958.09292,-0.00038
4960.02139,0.01675
4961.94986,0.03044
4963.87833,0.02639
4965.80680,0.01930
4967.73527,0.01649
4969.66373,0.00840
4971.59220,0.00314
4973.52067,0.00329
4975.44914,0.00340
4977.37761,0.01135
4979.30608,0.02224
4981.23455,0.02466
4983.16302,0.02250
4985.09148,0.01769
4987.01995,0.01480
4988.94842,0.02254
4990.87689,0.02884
4992.80536,0.02031
4994.73383,0.01389
4996.66230,0.02142
4998.59076,0.02515
5000.51923,0.01828
5002.44770,0.01630
5004.37617,0.02196
5006.30464,0.02555
5008.23311,0.02413
5010.16158,0.01971
5012.09005,0.02325
5014.01851,0.03377
5015.94698,0.03347
5017.87545,0.02156
5019.80392,0.01073
5021.73239,0.00841
5023.66086,0.00931
5025.58933,0.00715
5027.51779,0.00446
5029.44626,0.00121
5031.37473,0.00161
5033.30320,0.01004
5035.23167,0.01885
5037.16014,0.02123
5039.08861,0.01957
5041.01708,0.01728
5042.94554,0.01544
5044.87401,0.01499
5046.80248,0.01480
5048.73095,0.01727
5050.65942,0.02085
5052.58789,0.02881
5054.51636,0.04511
5056.44482,0.04555
5058.37329,0.02932
5060.30176,0.02389
5062.23023,0.02585
5064.15870,0.02178
5066.08717,0.01178
5068.01564,0.01147
5069.94410,0.02472
5071.87257,0.02812
5073.80104,0.02231
5075.72951,0.02555
5077.65798,0.03878
5079.58645,0.05049
5081.51492,0.04406
5083.44339,0.02840
5085.37185,0.02396
5087.30032,0.02820
5089.22879,0.03563
5091.15726,0.03673
5093.08573,0.02294
5095.01420,0.01043
5096.94267,0.00658
5098.87113,0.00215
5100.79960,-0.00106
5102.72807,0.00373
5104.65654,0.02205
5106.58501,0.04426
5108.51348,0.04501
5110.44195,0.02879
5112.37042,0.02801
5114.29888,0.03918
5116.22735,0.02875
5118.15582,0.00793
5120.08429,0.00979
5122.01276,0.01853
5123.94123,0.00880
5125.86970,-0.00400
5127.79816,-0.00162
5129.72663,0.00591
5131.65510,0.00499
5133.58357,0.00308
5135.51204,0.01184
5137.44051,0.02191
5139.36898,0.02686
5141.29745,0.03841
5143.22591,0.05978
5145.15438,0.07641
5147.08285,0.07557
5149.01132,0.06110
5150.93979,0.04150
5152.86826,0.02757
5154.79673,0.02162
5156.72519,0.01020
5158.65366,-0.00090
5160.58213,0.00517
5162.51060,0.02200
5164.43907,0.03239
5166.36754,0.03685
5168.29601,0.04901
5170.22448,0.06065
5172.15294,0.05707
5174.08141,0.04869
5176.00988,0.04385
5177.93835,0.03800
5179.86682,0.02588
5181.79529,0.00975
5183.72376,0.00707
5185.65222,0.03649
5187.58069,0.07629
5189.50916,0.08012
5191.43763,0.05801
5193.36610,0.05147
5195.29457,0.06034
5197.22304,0.06585
5199.15151,0.05885
5201.07997,0.04465
5203.00844,0.03784
5204.93691,0.03873
5206.86538,0.03422
5208.79385,0.02296
5210.72232,0.02554
5212.65079,0.04323
5214.57925,0.04802
5216.50772,0.03753
5218.43619,0.03639
5220.36466,0.04627
5222.29313,0.05461
5224.22160,0.05783
5226.15007,0.05911
5228.07854,0.06165
5230.00700,0.06530
5231.93547,0.07137
5233.86394,0.06850
5235.79241,0.04829
5237.72088,0.03299
5239.64935,0.03262
5241.57782,0.03711
5243.50628,0.05597
5245.43475,0.07665
5247.36322,0.06940
5249.29169,0.04875
5251.22016,0.03401
5253.14863,0.02055
5255.07710,0.00915
5257.00556,0.00580
5258.93403,0.01033
5260.86250,0.01869
5262.79097,0.02945
5264.71944,0.05099
5266.64791,0.08379
5268.57638,0.10583
5270.50485,0.09809
5272.43331,0.07396
5274.36178,0.06264
5276.29025,0.06532
5278.21872,0.06424
5280.14719,0.06118
5282.07566,0.06415
5284.00413,0.06628
5285.93259,0.06578
5287.86106,0.06617
5289.78953,0.06982
5291.71800,0.07691
5293.64647,0.08412
5295.57494,0.08879
5297.50341,0.08048
5299.43188,0.05956
5301.36034,0.04640
5303.28881,0.05006
5305.21728,0.05648
5307.14575,0.05854
5309.07422,0.06109
5311.00269,0.06131
5312.93116,0.05652
5314.85962,0.04129
5316.78809,0.02216
5318.71656,0.03099
5320.64503,0.06981
5322.57350,0.09591
5324.50197,0.08866
5326.43044,0.07012
5328.35891,0.06522
5330.28737,0.07397
5332.21584,0.07025
5334.14431,0.06073
5336.07278,0.07234
5338.00125,0.08215
5339.92972,0.06823
5341.85819,0.05325
5343.78665,0.05577
5345.71512,0.07462
5347.64359,0.08903
5349.57206,0.07993
5351.50053,0.06145
5353.42900,0.07063
5355.35747,0.09526
5357.28594,0.09449
5359.21440,0.06895
5361.14287,0.04816
5363.07134,0.05706
5364.99981,0.08092
5366.92828,0.09259
5368.85675,0.08921
5370.78522,0.07753
5372.71368,0.07049
5374.64215,0.07319
5376.57062,0.06953
5378.49909,0.05831
5380.42756,0.05844
5382.35603,0.08092
5384.28450,0.10346
5386.21297,0.07996
5388.14143,0.04391
5390.06990,0.05030
5391.99837,0.07488
5393.92684,0.08562
5395.85531,0.08879
5397.78378,0.09042
5399.71225,0.08145
5401.64071,0.05963
5403.56918,0.04900
5405.49765,0.07425
5407.42612,0.10587
5409.35459,0.10032
5411.28306,0.07419
5413.21153,0.06060
5415.13999,0.05057
5417.06846,0.04861
5418.99693,0.06157
5420.92540,0.05843
5422.85387,0.03706
5424.78234,0.04347
5426.71081,0.07599
5428.63928,0.07728
5430.56774,0.04175
5432.49621,0.02047
5434.42468,0.02613
5436.35315,0.04386
5438.28162,0.06268
5440.21009,0.07590
5442.13856,0.08381
5444.06702,0.09249
5445.99549,0.09501
5447.92396,0.08393
5449.85243,0.06803
5451.78090,0.05631
5453.70937,0.05310
5455.63784,0.06854
5457.56631,0.10043
5459.49477,0.11723
5461.42324,0.10744
5463.35171,0.08939
5465.28018,0.06716
5467.20865,0.04013
5469.13712,0.02252
5471.06559,0.02607
5472.99405,0.04266
5474.92252,0.05909
5476.85099,0.06981
5478.77946,0.07328
5480.70793,0.07895
5482.63640,0.08962
5484.56487,0.08472
5486.49334,0.06245
5488.42180,0.05177
5490.35027,0.05849
5492.27874,0.06850
5494.20721,0.07957
5496.13568,0.07810
5498.06415,0.07198
5499.99262,0.07379
5501.92108,0.06152
5503.84955,0.05155
5505.77802,0.07698
5507.70649,0.10431
5509.63496,0.09105
5511.56343,0.06234
5513.49190,0.05978
5515.42037,0.08177
5517.34883,0.08766
5519.27730,0.06398
5521.20577,0.04471
5523.13424,0.05131
5525.06271,0.08300
5526.99118,0.11599
5528.91965,0.12122
5530.84811,0.11288
5532.77658,0.11149
5534.70505,0.11437
5536.63352,0.12121
5538.56199,0.12250
5540.49046,0.10972
5542.41893,0.08999
5544.34740,0.08072
5546.27586,0.08875
5548.20433,0.09829
5550.13280,0.10344
5552.06127,0.09643
5553.98974,0.08279
5555.91821,0.09088
5557.84668,0.09789
5559.77514,0.06511
5561.70361,0.01491
5563.63208,0.00421
5565.56055,0.03718
5567.48902,0.06610
5569.41749,0.08677
5571.34596,0.10798
5573.27443,0.11458
5575.20289,0.10914
5577.13136,0.10438
5579.05983,0.10698
5580.98830,0.11367
5582.91677,0.10214
5584.84524,0.06935
5586.77371,0.04152
5588.70217,0.03438
5590.63064,0.03855
5592.55911,0.04829
5594.48758,0.07679
5596.41605,0.11720
5598.34452,0.14292
5600.27299,0.13566
5602.20145,0.09785
5604.12992,0.06483
5606.05839,0.05627
5607.98686,0.05971
5609.91533,0.06859
5611.84380,0.07020
5613.77227,0.06124
5615.70074,0.06353
5617.62920,0.06601
5619.55767,0.05530
5621.48614,0.05791
5623.41461,0.06412
5625.34308,0.04813
5627.27155,0.04492
5629.20002,0.07399
5631.12848,0.10506
5633.05695,0.11934
5634.98542,0.10274
5636.91389,0.07493
5638.84236,0.07953
5640.77083,0.10207
5642.69930,0.10314
5644.62777,0.08490
5646.55623,0.07322
5648.48470,0.07367
5650.41317,0.07633
5652.34164,0.08257
5654.27011,0.09083
5656.19858,0.08274
5658.12705,0.06608
5660.05551,0.07578
5661.98398,0.10409
5663.91245,0.11874
5665.84092,0.11505
5667.76939,0.09914
5669.69786,0.07694
5671.62633,0.06438
5673.55480,0.07293
5675.48326,0.08992
5677.41173,0.10276
5679.34020,0.10781
5681.26867,0.11003
5683.19714,0.11081
5685.12561,0.09685
5687.05408,0.08518
5688.98254,0.08061
5690.91101,0.06269
5692.83948,0.06439
5694.76795,0.09255
5696.69642,0.10454
5698.62489,0.09982
5700.55336,0.09074
5702.48183,0.07731
5704.41029,0.07449
5706.33876,0.09311
5708.26723,0.11287
5710.19570,0.10960
5712.12417,0.09924
5714.05264,0.11139
5715.98111,0.13305
5717.90957,0.11713
5719.83804,0.07256
5721.76651,0.05246
5723.69498,0.06245
5725.62345,0.09204
5727.55192,0.12087
5729.48039,0.11539
5731.40886,0.09226
5733.33732,0.08253
5735.26579,0.09057
5737.19426,0.10902
5739.12273,0.11326
5741.05120,0.09483
5742.97967,0.08076
5744.90814,0.07302
5746.83660,0.05846
5748.76507,0.04600
5750.69354,0.04516
5752.62201,0.05047
5754.55048,0.05750
5756.47895,0.07304
5758.40742,0.08906
5760.33588,0.09783
5762.26435,0.11725
5764.19282,0.14162
5766.12129,0.11985
5768.04976,0.06023
5769.97823,0.04263
5771.90670,0.08172
5773.83517,0.10361
5775.76363,0.08181
5777.69210,0.07213
5779.62057,0.08390
5781.54904,0.08565
5783.47751,0.10213
5785.40598,0.12598
5787.33445,0.11955
5789.26291,0.10001
5791.19138,0.09245
5793.11985,0.10451
5795.04832,0.10910
5796.97679,0.07070
5798.90526,0.03588
5800.83373,0.04977
5802.76220,0.06785
5804.69066,0.06590
5806.61913,0.07849
5808.54760,0.10541
5810.47607,0.11236
5812.40454,0.09991
5814.33301,0.09312
5816.26148,0.08584
5818.18994,0.07608
5820.11841,0.08400
5822.04688,0.09883
5823.97535,0.08744
5825.90382,0.06752
5827.83229,0.07269
5829.76076,0.08583
5831.68923,0.09944
5833.61769,0.11630
5835.54616,0.11314
5837.47463,0.09109
5839.40310,0.05918
5841.33157,0.03570
5843.26004,0.05123
5845.18851,0.07571
5847.11697,0.06676
5849.04544,0.05347
5850.97391,0.06837
5852.90238,0.08372
5854.83085,0.08136
5856.75932,0.08081
5858.68779,0.09463
5860.61626,0.11597
5862.54472,0.13185
5864.47319,0.13166
5866.40166,0.12092
5868.33013,0.10079
5870.25860,0.06447
5872.18707,0.02597
5874.11554,0.00867
5876.04400,0.01847
5877.97247,0.04207
5879.90094,0.07534
5881.82941,0.11083
5883.75788,0.12706
5885.68635,0.12980
5887.61482,0.13539
5889.54329,0.14209
5891.47175,0.15126
5893.40022,0.16500
5895.32869,0.17465
5897.25716,0.15583
5899.18563,0.09857
5901.11410,0.02956
5903.04257,-0.01725
5904.97103,-0.02066
5906.89950,0.00376
5908.82797,0.01789
5910.75644,0.00596
5912.68491,-0.00066
5914.61338,0.02949
5916.54185,0.07767
5918.47032,0.10833
5920.39878,0.10494
5922.32725,0.08439
5924.25572,0.06982
5926.18419,0.06858
5928.11266,0.09206
5930.04113,0.11577
5931.96960,0.08779
5933.89806,0.02248
5935.82653,-0.01571
5937.75500,0.00072
5939.68347,0.03771
5941.61194,0.04682
5943.54041,0.05369
5945.46888,0.10137
5947.39734,0.12864
5949.32581,0.09802
5951.25428,0.10791
5953.18275,0.16992
5955.11122,0.16103
5957.03969,0.08976
5958.96816,0.05851
5960.89663,0.06644
5962.82509,0.07596
5964.75356,0.10837
5966.68203,0.14441
5968.61050,0.13779
5970.53897,0.10392
5972.46744,0.08777
5974.39591,0.09769
5976.32437,0.10307
5978.25284,0.10157
5980.18131,0.10172
5982.10978,0.11421
5984.03825,0.14481
5985.96672,0.14402
5987.89519,0.08512
5989.82366,0.02714
5991.75212,0.02611
5993.68059,0.06432
5995.60906,0.11343
5997.53753,0.15283
5999.46600,0.14336
6001.39447,0.09268
6003.32294,0.05052
6005.25140,0.04702
6007.17987,0.06572
6009.10834,0.08007
6011.03681,0.08016
6012.96528,0.06880
6014.89375,0.09039
6016.82222,0.17420
6018.75069,0.23093
6020.67915,0.18619
6022.60762,0.12827
6024.53609,0.11692
6026.46456,0.10869
6028.39303,0.07410
6030.32150,0.04791
6032.24997,0.06322
6034.17843,0.09743
6036.10690,0.13149
6038.03537,0.16229
6039.96384,0.15939
6041.89231,0.11186
6043.82078,0.07229
6045.74925,0.07219
6047.67772,0.07977
6049.60618,0.09579
6051.53465,0.13450
6053.46312,0.15414
6055.39159,0.14122
6057.32006,0.14809
6059.24853,0.16678
6061.17700,0.13364
6063.10546,0.07098
6065.03393,0.06292
6066.96240,0.09524
6068.89087,0.10276
6070.81934,0.10037
6072.74781,0.11235
6074.67628,0.10802
6076.60475,0.09188
6078.53321,0.09704
6080.46168,0.09670
6082.39015,0.04878
6084.31862,0.00382
6086.24709,0.03991
6088.17556,0.09771
6090.10403,0.09193
6092.03249,0.08585
6093.96096,0.11926
6095.88943,0.11345
6097.81790,0.07302
6099.74637,0.07317
6101.67484,0.08603
6103.60331,0.06005
6105.53177,0.03478
6107.46024,0.06260
6109.38871,0.11417
6111.31718,0.10703
6113.24565,0.04207
6115.17412,0.00998
6117.10259,0.03657
6119.03106,0.05863
6120.95952,0.05142
6122.88799,0.03810
6124.81646,0.04195
6126.74493,0.06599
6128.67340,0.06346
6130.60187,0.04383
6132.53034,0.05172
6134.45880,0.07242
6136.38727,0.07253
6138.31574,0.02962
6140.24421,-0.00626
6142.17268,0.01735
6144.10115,0.06116
6146.02962,0.09344
6147.95809,0.09141
6149.88655,0.04489
6151.81502,0.01626
6153.74349,0.05582
6155.67196,0.12712
6157.60043,0.17963
6159.52890,0.19707
6161.45737,0.17957
6163.38583,0.14785
6165.31430,0.15248
6167.24277,0.18886
6169.17124,0.18857
6171.09971,0.14282
6173.02818,0.10707
6174.95665,0.09162
6176.88512,0.08754
6178.81358,0.09734
6180.74205,0.09059
6182.67052,0.08305
6184.59899,0.11136
6186.52746,0.13344
6188.45593,0.13827
6190.38440,0.15772
6192.31286,0.14155
6194.24133,0.09812
6196.16980,0.10444
6198.09827,0.10489
6200.02674,0.05847
6201.95521,0.04033
6203.88368,0.05703
6205.81215,0.08306
6207.74061,0.09913
6209.66908,0.05478
6211.59755,0.00134
6213.52602,0.03401
6215.45449,0.07838
6217.38296,0.04926
6219.31143,0.02706
6221.23989,0.05134
6223.16836,0.07070
6225.09683,0.09978
6227.02530,0.12336
6228.95377,0.10430
6230.88224,0.09755
6232.81071,0.10388
6234.73918,0.07074
6236.66764,0.04615
6238.59611,0.04200
6240.52458,0.01935
6242.45305,0.03677
6244.38152,0.11456
6246.30999,0.14732
6248.23846,0.09304
6250.16692,0.01133
6252.09539,-0.02334
6254.02386,0.02213
6255.95233,0.10158
6257.88080,0.13605
6259.80927,0.10348
6261.73774,0.02138
6263.66621,-0.05482
6265.59467,-0.04615
6267.52314,0.03430
6269.45161,0.12819
6271.38008,0.19593
6273.30855,0.17696
6275.23702,0.09610
6277.16549,0.08186
6279.09395,0.12627
6281.02242,0.13668
6282.95089,0.10130
6284.87936,0.02819
6286.80783,-0.04273
6288.73630,-0.02708
6290.66477,0.05846
6292.59323,0.11371
6294.52170,0.12410
6296.45017,0.12033
6298.37864,0.11046
6300.30711,0.09118
6302.23558,0.07900
6304.16405,0.09686
6306.09252,0.11202
6308.02098,0.11907
6309.94945,0.15584
6311.87792,0.21439
6313.80639,0.24243
6315.73486,0.18646
6317.66333,0.09826
6319.59180,0.07067
6321.52026,0.09790
6323.44873,0.16475
6325.37720,0.20993
6327.30567,0.16881
6329.23414,0.13559
6331.16261,0.18238
6333.09108,0.20304
6335.01955,0.16161
6336.94801,0.13758
6338.87648,0.12416
6340.80495,0.08944
6342.73342,0.05598
6344.66189,0.02747
6346.59036,0.02013
6348.51883,0.05478
6350.44729,0.12662
6352.37576,0.19629
6354.30423,0.18359
6356.23270,0.10138
6358.16117,0.02975
6360.08964,0.00565
6362.01811,0.00994
6363.94658,-0.00559
6365.87504,-0.02879
6367.80351,0.01192
6369.73198,0.08926
6371.66045,0.13016
6373.58892,0.11990
6375.51739,0.10715
6377.44586,0.11211
6379.37432,0.10837
6381.30279,0.09285
6383.23126,0.04762
6385.15973,0.01425
6387.08820,0.04371
6389.01667,0.07033
6390.94514,0.08308
6392.87361,0.12124
6394.80207,0.16206
6396.73054,0.14704
6398.65901,0.06496
6400.58748,-0.02093
6402.51595,-0.05391
6404.44442,-0.05603
6406.37289,-0.07087
6408.30135,-0.08809
6410.22982,-0.05250
6412.15829,0.04192
6414.08676,0.12930
6416.01523,0.14927
6417.94370,0.10867
6419.87217,0.07607
6421.80064,0.10332
6423.72910,0.14121
6425.65757,0.12316
6427.58604,0.10532
6429.51451,0.12881
6431.44298,0.12712
6433.37145,0.08688
6435.29992,0.05477
6437.22838,0.06167
6439.15685,0.11060
6441.08532,0.14960
6443.01379,0.14402
6444.94226,0.15120
6446.87073,0.19682
6448.79920,0.19625
6450.72766,0.12631
6452.65613,0.06728
6454.58460,0.06321
6456.51307,0.08895
6458.44154,0.10823
6460.37001,0.10204
6462.29848,0.06678
6464.22695,0.02300
6466.15541,0.01831
6468.08388,0.08588
6470.01235,0.15974
6471.94082,0.16259
6473.86929,0.12474
6475.79776,0.08303
6477.72623,0.09085
6479.65469,0.16762
6481.58316,0.20058
6483.51163,0.12660
6485.44010,0.06076
6487.36857,0.06076
6489.29704,0.06166
6491.22551,0.05954
6493.15398,0.08463
6495.08244,0.07317
6497.01091,0.02488
6498.93938,0.01814
6500.86785,0.03870
6502.79632,0.03502
6504.72479,0.04166
6506.65326,0.07677
6508.58172,0.10926
6510.51019,0.10663
6512.43866,0.07267
6514.36713,0.05326
6516.29560,0.05784
6518.22407,0.07582
6520.15254,0.09556
6522.08101,0.08852
6524.00947,0.05316
6525.93794,0.04078
6527.86641,0.04597
6529.79488,-0.00613
6531.72335,-0.04423
6533.65182,0.03724
6535.58029,0.12483
6537.50875,0.11149
6539.43722,0.03813
6541.36569,-0.02754
6543.29416,-0.03222
6545.22263,0.00495
6547.15110,0.02343
6549.07957,0.02171
6551.00804,0.00468
6552.93650,-0.02089
6554.86497,0.01393
6556.79344,0.07879
6558.72191,0.06761
6560.65038,0.01964
6562.57885,0.00050
6564.50732,0.02541
6566.43578,0.09843
6568.36425,0.14014
6570.29272,0.11411
6572.22119,0.09839
6574.14966,0.13971
6576.07813,0.19673
6578.00660,0.22085
6579.93507,0.21379
6581.86353,0.19040
6583.79200,0.12852
6585.72047,0.06769
6587.64894,0.05094
6589.57741,0.04235
6591.50588,0.04759
6593.43435,0.09728
6595.36281,0.10242
6597.29128,0.01227
6599.21975,-0.02309
6601.14822,0.04374
6603.07669,0.05678
6605.00516,0.03888
6606.93363,0.09779
6608.86210,0.18786
6610.79056,0.20848
6612.71903,0.17923
6614.64750,0.16272
6616.57597,0.09379
6618.50444,-0.00329
6620.43291,-0.00397
6622.36138,0.06705
6624.28984,0.14604
6626.21831,0.20382
6628.14678,0.19880
6630.07525,0.11851
6632.00372,0.00876
6633.93219,-0.06849
6635.86066,-0.04940
6637.78912,0.04594
6639.71759,0.11275
6641.64606,0.09847
6643.57453,0.02327
6645.50300,0.00005
6647.43147,0.09698
6649.35994,0.16003
6651.28841,0.10243
6653.21687,0.06117
6655.14534,0.08661
6657.07381,0.08149
6659.00228,0.07225
6660.93075,0.11312
6662.85922,0.11981
6664.78769,0.08190
6666.71615,0.07146
6668.64462,0.08882
6670.57309,0.08855
6672.50156,0.07940
6674.43003,0.09686
6676.35850,0.10759
6678.28697,0.10300
6680.21544,0.11329
6682.14390,0.09415
6684.07237,0.04013
6686.00084,0.00812
6687.92931,-0.00815
6689.85778,-0.00769
6691.78625,0.02987
6693.71472,0.06331
6695.64318,0.05499
6697.57165,0.02469
6699.50012,0.00308
6701.42859,-0.01653
6703.35706,-0.04002
6705.28553,-0.04582
6707.21400,0.02106
6709.14247,0.12030
6711.07093,0.13477
6712.99940,0.07155
6714.92787,0.02359
6716.85634,0.00748
6718.78481,-0.04043
6720.71328,-0.09309
6722.64175,-0.09091
6724.57021,-0.06829
6726.49868,-0.05211
6728.42715,-0.01688
6730.35562,0.06747
6732.28409,0.14423
6734.21256,0.13922
6736.14103,0.06474
6738.06950,-0.03275
6739.99796,-0.06538
6741.92643,0.01465
6743.85490,0.05713
6745.78337,-0.00757
6747.71184,-0.03667
6749.64031,0.04820
6751.56878,0.12330
6753.49724,0.14399
6755.42571,0.14299
6757.35418,0.07736
6759.28265,-0.03166
6761.21112,-0.10546
6763.13959,-0.08687
6765.06806,0.02098
6766.99653,0.07649
6768.92499,-0.00343
6770.85346,-0.07427
6772.78193,-0.04862
6774.71040,0.05277
6776.63887,0.16964
6778.56734,0.19556
6780.49581,0.11900
6782.42427,-0.01363
6784.35274,-0.07620
6786.28121,-0.01388
6788.20968,0.05464
6790.13815,0.06222
6792.06662,0.05251
6793.99509,0.09927
6795.92355,0.17173
6797.85202,0.18286
6799.78049,0.16079
6801.70896,0.15195
6803.63743,0.13463
6805.56590,0.12139
6807.49437,0.14486
6809.42284,0.13143
6811.35130,0.03965
6813.27977,-0.00723
6815.20824,0.02177
6817.13671,0.04909
6819.06518,0.09813
6820.99365,0.16677
6822.92212,0.17162
6824.85058,0.11123
6826.77905,0.04716
6828.70752,-0.01989
6830.63599,-0.05283
6832.56446,0.00547
6834.49293,0.12528
6836.42140,0.18865
6838.34987,0.14691
6840.27833,0.12529
6842.20680,0.16273
6844.13527,0.16535
6846.06374,0.11030
6847.99221,0.06870
6849.92068,0.11286
6851.84915,0.18700
6853.77761,0.17876
6855.70608,0.11882
6857.63455,0.10852
6859.56302,0.11881
6861.49149,0.08207
6863.41996,0.02910
6865.34843,0.02358
6867.27690,0.05615
6869.20536,0.12735
6871.13383,0.24444
6873.06230,0.32830
6874.99077,0.29109
6876.91924,0.21633
6878.84771,0.20250
6880.77618,0.18789
6882.70464,0.11690
6884.63311,0.03984
6886.56158,-0.02335
6888.49005,-0.05577
6890.41852,-0.05162
6892.34699,-0.00945
6894.27546,0.06568
6896.20393,0.11497
6898.13239,0.10038
6900.06086,0.12080
6901.98933,0.21571
6903.91780,0.23624
6905.84627,0.10839
6907.77474,-0.00064
6909.70321,-0.05311
6911.63167,-0.09085
6913.56014,-0.02448
6915.48861,0.10621
6917.41708,0.17609
6919.34555,0.18619
6921.27402,0.13510
6923.20249,0.01035
6925.13096,-0.08549
6927.05942,-0.05684
6928.98789,0.05935
6930.91636,0.16174
6932.84483,0.17817
6934.77330,0.12115
6936.70177,0.03539
6938.63024,-0.02915
6940.55870,0.00265
6942.48717,0.06240
6944.41564,0.10309
6946.34411,0.16667
6948.27258,0.18714
6950.20105,0.17266
6952.12952,0.21458
6954.05799,0.29842
6955.98645,0.34525
6957.91492,0.29662
6959.84339,0.16766
6961.77186,0.05387
6963.70033,0.03166
6965.62880,0.07798
6967.55727,0.14472
6969.48573,0.18167
6971.41420,0.15854
6973.34267,0.14966
6975.27114,0.24688
6977.19961,0.26558
6979.12808,0.14361
6981.05655,0.06082
6982.98501,0.01883
6984.91348,-0.02662
6986.84195,-0.00318
6988.77042,0.07688
6990.69889,0.10021
6992.62736,0.04017
6994.55583,-0.00449
6996.48430,0.01826
6998.41276,0.06780
7000.34123,0.08609
7002.26970,0.07244
7004.19817,0.07371
7006.12664,0.08481
7008.05511,0.10482
7009.98358,0.15855
7011.91204,0.20513
7013.84051,0.21779
7015.76898,0.21268
7017.69745,0.15197
7019.62592,0.05057
7021.55439,-0.03475
7023.48286,-0.10047
7025.41133,-0.09431
7027.33979,-0.03282
7029.26826,-0.01577
7031.19673,-0.02399
7033.12520,-0.00607
7035.05367,-0.02317
7036.98214,-0.04481
7038.91061,0.04627
7040.83907,0.18341
7042.76754,0.19076
7044.69601,0.06763
7046.62448,0.01544
7048.55295,0.00825
7050.48142,-0.09389
7052.40989,-0.17477
7054.33836,-0.09145
7056.26682,0.09468
7058.19529,0.23343
7060.12376,0.21985
7062.05223,0.08633
7063.98070,-0.04423
7065.90917,-0.03415
7067.83764,0.06048
7069.76610,0.10457
7071.69457,0.06948
7073.62304,-0.00287
7075.55151,-0.09959
7077.47998,-0.16701
7079.40845,-0.11916
7081.33692,0.03491
7083.26539,0.09725
7085.19385,0.03088
7087.12232,-0.03113
7089.05079,-0.02280
7090.97926,0.02460
7092.90773,0.08490
7094.83620,0.13900
7096.76467,0.10762
7098.69313,-0.03680
7100.62160,-0.12303
7102.55007,-0.12275
7104.47854,-0.06903
7106.40701,0.08006
7108.33548,0.16552
7110.26395,0.13227
7112.19242,0.13559
7114.12088,0.11778
7116.04935,0.01783
7117.97782,0.06242
7119.90629,0.20759
7121.83476,0.22354
7123.76323,0.24237
7125.69170,0.30311
7127.62016,0.25911
7129.54863,0.12523
7131.47710,0.01803
7133.40557,-0.04526
7135.33404,-0.02758
7137.26251,0.07281
7139.19098,0.15885
7141.11944,0.22288
7143.04791,0.26306
7144.97638,0.25867
7146.90485,0.28175
7148.83332,0.26575
7150.76179,0.16404
7152.69026,0.08675
7154.61873,0.07728
7156.54719,0.10042
7158.47566,0.15669
7160.40413,0.20086
7162.33260,0.15220
7164.26107,0.06486
7166.18954,0.07587
7168.11801,0.12556
7170.04647,0.07050
7171.97494,-0.01027
7173.90341,0.04900
7175.83188,0.16140
7177.76035,0.07854
7179.68882,-0.11614
7181.61729,-0.15034
7183.54576,-0.01513
7185.47422,0.07527
7187.40269,0.09262
7189.33116,0.11773
7191.25963,0.11371
7193.18810,0.01932
7195.11657,0.00996
7197.04504,0.14871
7198.97350,0.19823
7200.90197,0.12208
7202.83044,0.04794
7204.75891,0.03346
7206.68738,0.12653
7208.61585,0.19635
7210.54432,0.12714
7212.47279,0.01622
7214.40125,-0.04776
7216.32972,-0.06286
7218.25819,-0.00238
7220.18666,0.04161
7222.11513,0.04204
7224.04360,0.03290
7225.97207,-0.01330
7227.90053,-0.00347
7229.82900,0.06185
7231.75747,0.06238
7233.68594,0.01256
7235.61441,-0.05028
7237.54288,-0.04778
7239.47135,0.10978
7241.39982,0.26235
7243.32828,0.23673
7245.25675,0.05051
7247.18522,-0.08110
7249.11369,0.00890
7251.04216,0.18799
7252.97063,0.21416
7254.89910,0.14803
7256.82756,0.15714
7258.75603,0.20629
7260.68450,0.24107
7262.61297,0.24551
7264.54144,0.11480
7266.46991,-0.02873
7268.39838,0.00914
7270.32685,0.09832
7272.25531,0.17458
7274.18378,0.20976
7276.11225,0.12919
7278.04072,0.05573
7279.96919,0.11007
7281.89766,0.12613
7283.82613,0.01001
7285.75459,-0.07425
7287.68306,-0.14989
7289.61153,-0.15765
7291.54000,0.02904
7293.46847,0.15194
7295.39694,0.07607
7297.32541,-0.04951
7299.25387,-0.16925
7301.18234,-0.20470
7303.11081,-0.09667
7305.03928,0.08880
7306.96775,0.27024
7308.89622,0.33623
7310.82469,0.32677
7312.75316,0.31485
7314.68162,0.22561
7316.61009,0.13841
7318.53856,0.05662
7320.46703,-0.03911
7322.39550,0.09424
7324.32397,0.30703
7326.25244,0.26751
7328.18090,0.13389
7330.10937,0.10564
7332.03784,0.13582
7333.96631,0.16475
7335.89478,0.14492
7337.82325,0.04418
7339.75172,-0.05382
7341.68019,-0.05555
7343.60865,-0.07073
7345.53712,-0.10371
7347.46559,-0.21180
7349.39406,-0.37115
7351.32253,-0.32963
7353.25100,-0.10417
7355.17947,0.05293
7357.10793,0.14032
7359.03640,0.25808
7360.96487,0.31292
7362.89334,0.21031
7364.82181,0.04964
7366.75028,0.03844
7368.67875,0.21246
7370.60722,0.37222
7372.53568,0.41088
7374.46415,0.27918
7376.39262,0.00546
7378.32109,-0.08732
7380.24956,-0.04933
7382.17803,-0.05024
7384.10650,-0.01803
7386.03496,0.11812
7387.96343,0.13026
7389.89190,-0.00574
7391.82037,-0.15923
7393.74884,-0.34069
7395.67731,-0.41725
7397.60578,-0.24316
7399.53425,0.06193
7401.46271,0.31032
7403.39118,0.32546
7405.31965,0.15716
7407.24812,0.09184
7409.17659,0.07044
7411.10506,0.00711
7413.03353,-0.03501
7414.96199,-0.09142
7416.89046,-0.16487
7418.81893,-0.02936
7420.74740,0.25285
7422.67587,0.26798
7424.60434,0.15853
7426.53281,0.14399
7428.46128,0.22337
7430.38974,0.29083
7432.31821,0.27245
7434.24668,0.18927
7436.17515,0.07955
7438.10362,0.02182
7440.03209,0.07132
7441.96056,0.16209
7443.88902,0.19121
7445.81749,0.14196
7447.74596,0.13866
7449.67443,0.19660
7451.60290,0.16795
7453.53137,0.07517
7455.45984,0.02717
7457.38831,-0.02376
7459.31677,-0.06590
7461.24524,-0.05837
7463.17371,-0.05921
7465.10218,-0.04492
7467.03065,-0.07226
7468.95912,-0.19635
7470.88759,-0.22053
7472.81605,-0.10975
7474.74452,-0.04133
7476.67299,0.01935
7478.60146,0.03697
7480.52993,0.00147
7482.45840,0.01977
7484.38687,0.03664
7486.31533,0.05533
7488.24380,0.15431
7490.17227,0.24089
7492.10074,0.15789
7494.02921,0.00358
7495.95768,-0.13086
7497.88615,-0.24799
