399.19301,1.18434
401.12148,0.15879
403.04995,0.15178
404.97842,0.13685
406.90689,0.23600
408.83536,0.23477
410.76382,-0.03823
412.69229,-0.25131
414.62076,-0.19637
416.54923,-0.01556
418.47770,0.23054
420.40617,0.36359
422.33464,0.28384
424.26311,0.04038
426.19157,-0.11535
428.12004,-0.00232
430.04851,0.06512
431.97698,-0.04500
433.90545,-0.05122
435.83392,-0.01728
437.76239,-0.03028
439.69085,-0.03105
441.61932,-0.02652
443.54779,-0.05882
445.47626,-0.06683
447.40473,-0.01467
449.33320,0.01694
451.26167,0.02000
453.19013,0.03611
455.11860,0.07621
457.04707,0.18122
458.97554,0.27781
460.90401,0.26700
462.83248,0.21888
464.76095,0.16898
466.68942,0.09706
468.61788,0.00031
470.54635,-0.17406
472.47482,-0.73660
474.40329,-1.34455
476.33176,-0.80677
478.26023,-0.11931
480.18870,0.10695
482.11716,0.07486
484.04563,0.02038
485.97410,-0.00677
487.90257,0.02505
489.83104,0.10173
491.75951,0.13901
493.68798,0.14168
495.61645,0.14549
497.54491,0.12750
499.47338,0.10471
501.40185,0.07969
503.33032,0.02292
505.25879,-0.00506
507.18726,0.04698
509.11573,0.10611
511.04419,0.09297
512.97266,0.04189
514.90113,0.02240
516.82960,0.00921
518.75807,-0.03632
520.68654,-0.03288
522.61501,0.04459
524.54348,0.10796
526.47194,0.10100
528.40041,0.06762
530.32888,0.04253
532.25735,0.01377
534.18582,0.00920
536.11429,0.04527
538.04276,0.05311
539.97122,0.02035
541.89969,0.00415
543.82816,0.01834
545.75663,0.05054
547.68510,0.09592
549.61357,0.17974
551.54204,0.33262
553.47051,0.41303
555.39897,0.28309
557.32744,0.12035
559.25591,0.10546
561.18438,0.12082
563.11285,0.09278
565.04132,0.08913
566.96979,0.11807
568.89825,0.13154
570.82672,0.12127
572.75519,0.10737
574.68366,0.11461
576.61213,0.12490
578.54060,0.10658
580.46907,0.09239
582.39754,0.10439
584.32600,0.10870
586.25447,0.10636
588.18294,0.11193
590.11141,0.11369
592.03988,0.11110
593.96835,0.10650
595.89682,0.09832
597.82528,0.08660
599.75375,0.08175
601.68222,0.09655
603.61069,0.11064
605.53916,0.09924
607.46763,0.08496
609.39610,0.09320
611.32456,0.11769
613.25303,0.13723
615.18150,0.12950
617.10997,0.10953
619.03844,0.11005
620.96691,0.12113
622.89538,0.11326
624.82385,0.09346
626.75231,0.08212
628.68078,0.06986
630.60925,0.05541
632.53772,0.06546
634.46619,0.10279
636.39466,0.13322
638.32313,0.13292
640.25159,0.11083
642.18006,0.10181
644.10853,0.12080
646.03700,0.14864
647.96547,0.16033
649.89394,0.14630
651.82241,0.12828
653.75088,0.11983
655.67934,0.11738
657.60781,0.12483
659.53628,0.13217
661.46475,0.12417
663.39322,0.11235
665.32169,0.11371
667.25016,0.13144
669.17862,0.15339
671.10709,0.15071
673.03556,0.12845
674.96403,0.10930
676.89250,0.10873
678.82097,0.10909
680.74944,0.11701
682.67791,0.14599
684.60637,0.16528
686.53484,0.17132
688.46331,0.17754
690.39178,0.16816
692.32025,0.14584
694.24872,0.13365
696.17719,0.13790
698.10565,0.14328
700.03412,0.14451
701.96259,0.14549
703.89106,0.14212
705.81953,0.13977
707.74800,0.14161
709.67647,0.14415
711.60494,0.14925
713.53340,0.15283
715.46187,0.14759
717.39034,0.13795
719.31881,0.13436
721.24728,0.13851
723.17575,0.15004
725.10422,0.16837
727.03268,0.18114
728.96115,0.17376
730.88962,0.15586
732.81809,0.15096
734.74656,0.15778
736.67503,0.15841
738.60350,0.14200
740.53197,0.12020
742.46043,0.11813
744.38890,0.13538
746.31737,0.15546
748.24584,0.16713
750.17431,0.16250
752.10278,0.14741
754.03125,0.13776
755.95971,0.14097
757.88818,0.15338
759.81665,0.16375
761.74512,0.16623
763.67359,0.15924
765.60206,0.14465
767.53053,0.14087
769.45900,0.15164
771.38746,0.15238
773.31593,0.14041
775.24440,0.13742
777.17287,0.14474
779.10134,0.14829
781.02981,0.14696
782.95828,0.14733
784.88674,0.14817
786.81521,0.14601
788.74368,0.14182
790.67215,0.13779
792.60062,0.14089
794.52909,0.15031
796.45756,0.15355
798.38602,0.14937
800.31449,0.14556
802.24296,0.14259
804.17143,0.13691
806.09990,0.13453
808.02837,0.13927
809.95684,0.13794
811.88531,0.12695
813.81377,0.12683
815.74224,0.14224
817.67071,0.15283
819.59918,0.15005
821.52765,0.14228
823.45612,0.13867
825.38459,0.14194
827.31305,0.15146
829.24152,0.15884
831.16999,0.15213
833.09846,0.13557
835.02693,0.12577
836.95540,0.13042
838.88387,0.14112
840.81234,0.14697
842.74080,0.14818
844.66927,0.14729
846.59774,0.14431
848.52621,0.14115
850.45468,0.13395
852.38315,0.12312
854.31162,0.11990
856.24008,0.13438
858.16855,0.16373
860.09702,0.18330
862.02549,0.17603
863.95396,0.15951
865.88243,0.15551
867.81090,0.15234
869.73937,0.13897
871.66783,0.13768
873.59630,0.14799
875.52477,0.14724
877.45324,0.14094
879.38171,0.13980
881.31018,0.14158
883.23865,0.14301
885.16711,0.14408
887.09558,0.14527
889.02405,0.14391
890.95252,0.14184
892.88099,0.14416
894.80946,0.15122
896.73793,0.15938
898.66640,0.16376
900.59486,0.16373
902.52333,0.16563
904.45180,0.17288
906.38027,0.17625
908.30874,0.17040
910.23721,0.16820
912.16568,0.17095
914.09414,0.16415
916.02261,0.15200
917.95108,0.14514
919.87955,0.14203
921.80802,0.13985
923.73649,0.14142
925.66496,0.14975
927.59343,0.15842
929.52189,0.15959
931.45036,0.15535
933.37883,0.15722
935.30730,0.16510
937.23577,0.16580
939.16424,0.16267
941.09271,0.16151
943.02117,0.16007
944.94964,0.15945
946.87811,0.15398
948.80658,0.14299
950.73505,0.13880
952.66352,0.14359
954.59199,0.15397
956.52045,0.16781
958.44892,0.17441
960.37739,0.17066
962.30586,0.16254
964.23433,0.15413
966.16280,0.15067
968.09127,0.15114
970.01974,0.15387
971.94820,0.16057
973.87667,0.16510
975.80514,0.16251
977.73361,0.15828
979.66208,0.15599
981.59055,0.15285
983.51902,0.14853
985.44748,0.14428
987.37595,0.14125
989.30442,0.14193
991.23289,0.14582
993.16136,0.14811
995.08983,0.14820
997.01830,0.15204
998.94677,0.15985
1000.87523,0.16687
1002.80370,0.17134
1004.73217,0.17404
1006.66064,0.17430
1008.58911,0.16772
1010.51758,0.16022
1012.44605,0.16099
1014.37451,0.16488
1016.30298,0.16333
1018.23145,0.15538
1020.15992,0.15039
1022.08839,0.15315
1024.01686,0.15359
1025.94533,0.13035
1027.87380,0.08920
1029.80226,0.08641
1031.73073,0.12821
1033.65920,0.15758
1035.58767,0.16322
1037.51614,0.16406
1039.44461,0.16499
1041.37308,0.16649
1043.30154,0.16465
1045.23001,0.15456
1047.15848,0.14310
1049.08695,0.14214
1051.01542,0.14753
1052.94389,0.15154
1054.87236,0.15479
1056.80083,0.15817
1058.72929,0.16322
1060.65776,0.16654
1062.58623,0.16379
1064.51470,0.15868
1066.44317,0.15868
1068.37164,0.16739
1070.30011,0.18084
1072.22857,0.19430
1074.15704,0.20295
1076.08551,0.19951
1078.01398,0.18670
1079.94245,0.17641
1081.87092,0.17467
1083.79939,0.17783
1085.72786,0.17593
1087.65632,0.16748
1089.58479,0.16280
1091.51326,0.16515
1093.44173,0.17122
1095.37020,0.18089
1097.29867,0.18877
1099.22714,0.18890
1101.15560,0.18526
1103.08407,0.17963
1105.01254,0.17339
1106.94101,0.17162
1108.86948,0.17422
1110.79795,0.17742
1112.72642,0.17836
1114.65489,0.17547
1116.58335,0.16733
1118.51182,0.16140
1120.44029,0.16589
1122.36876,0.17082
1124.29723,0.16719
1126.22570,0.16251
1128.15417,0.16371
1130.08263,0.16515
1132.01110,0.15989
1133.93957,0.15411
1135.86804,0.15496
1137.79651,0.15758
1139.72498,0.15850
1141.65345,0.15955
1143.58191,0.16233
1145.51038,0.16993
1147.43885,0.18061
1149.36732,0.18447
1151.29579,0.17694
1153.22426,0.16785
1155.15273,0.16637
1157.08120,0.17004
1159.00966,0.17390
1160.93813,0.17652
1162.86660,0.17629
1164.79507,0.17377
1166.72354,0.17415
1168.65201,0.17663
1170.58048,0.17595
1172.50894,0.17261
1174.43741,0.16948
1176.36588,0.16987
1178.29435,0.17435
1180.22282,0.17607
1182.15129,0.17128
1184.07976,0.16704
1186.00823,0.16807
1187.93669,0.17010
1189.86516,0.17170
1191.79363,0.17501
1193.72210,0.17963
1195.65057,0.18451
1197.57904,0.18488
1199.50751,0.17900
1201.43597,0.17500
1203.36444,0.17428
1205.29291,0.17175
1207.22138,0.17095
1209.14985,0.17492
1211.07832,0.17852
1213.00679,0.18082
1214.93526,0.18430
1216.86372,0.18464
1218.79219,0.18222
1220.72066,0.18423
1222.64913,0.18738
1224.57760,0.18500
1226.50607,0.17924
1228.43454,0.17405
1230.36300,0.17310
1232.29147,0.17641
1234.21994,0.17767
1236.14841,0.17567
1238.07688,0.17313
1240.00535,0.17036
1241.93382,0.16957
1243.86229,0.17334
1245.79075,0.17953
1247.71922,0.18120
1249.64769,0.17652
1251.57616,0.17188
1253.50463,0.16930
1255.43310,0.16740
1257.36157,0.16700
1259.29003,0.16696
1261.21850,0.16710
1263.14697,0.17128
1265.07544,0.17878
1267.00391,0.18173
1268.93238,0.17746
1270.86085,0.17435
1272.78932,0.17816
1274.71778,0.18216
1276.64625,0.18199
1278.57472,0.18124
1280.50319,0.17946
1282.43166,0.17659
1284.36013,0.17540
1286.28860,0.17480
1288.21706,0.17573
1290.14553,0.17904
1292.07400,0.18021
1294.00247,0.17965
1295.93094,0.17926
1297.85941,0.17894
1299.78788,0.18083
1301.71634,0.17829
1303.64481,0.16740
1305.57328,0.16268
1307.50175,0.17109
1309.43022,0.17976
1311.35869,0.18172
1313.28716,0.18260
1315.21563,0.18414
1317.14409,0.18380
1319.07256,0.18212
1321.00103,0.18048
1322.92950,0.17786
1324.85797,0.17421
1326.78644,0.17306
1328.71491,0.17472
1330.64337,0.17577
1332.57184,0.17733
1334.50031,0.18134
1336.42878,0.18441
1338.35725,0.18307
1340.28572,0.17909
1342.21419,0.17875
1344.14266,0.18314
1346.07112,0.18680
1347.99959,0.18765
1349.92806,0.18730
1351.85653,0.18526
1353.78500,0.18265
1355.71347,0.18201
1357.64194,0.18262
1359.57040,0.18415
1361.49887,0.18789
1363.42734,0.18878
1365.35581,0.18463
1367.28428,0.18334
1369.21275,0.18524
1371.14122,0.18541
1373.06969,0.18604
1374.99815,0.18890
1376.92662,0.18948
1378.85509,0.18834
1380.78356,0.18828
1382.71203,0.18845
1384.64050,0.18815
1386.56897,0.18863
1388.49743,0.19041
1390.42590,0.19160
1392.35437,0.19262
1394.28284,0.19697
1396.21131,0.20214
1398.13978,0.19956
1400.06825,0.19056
1401.99672,0.18345
1403.92518,0.18152
1405.85365,0.18432
1407.78212,0.18790
1409.71059,0.18924
1411.63906,0.18983
1413.56753,0.19236
1415.49600,0.19551
1417.42446,0.19373
1419.35293,0.18662
1421.28140,0.18616
1423.20987,0.19241
1425.13834,0.19696
1427.06681,0.19647
1428.99528,0.19418
1430.92375,0.19401
1432.85221,0.19653
1434.78068,0.20088
1436.70915,0.20397
1438.63762,0.20070
1440.56609,0.19457
1442.49456,0.19005
1444.42303,0.18956
1446.35149,0.19277
1448.27996,0.19830
1450.20843,0.20301
1452.13690,0.20706
1454.06537,0.21264
1455.99384,0.21777
1457.92231,0.21460
1459.85077,0.20515
1461.77924,0.19996
1463.70771,0.19823
1465.63618,0.19606
1467.56465,0.19501
1469.49312,0.19956
1471.42159,0.20921
1473.35006,0.21156
1475.27852,0.20327
1477.20699,0.19929
1479.13546,0.19953
1481.06393,0.19897
1482.99240,0.19771
1484.92087,0.19938
1486.84934,0.20633
1488.77780,0.21445
1490.70627,0.21272
1492.63474,0.20573
1494.56321,0.20284
1496.49168,0.20364
1498.42015,0.20376
1500.34862,0.20127
1502.27709,0.19755
1504.20555,0.19601
1506.13402,0.20538
1508.06249,0.21930
1509.99096,0.21429
1511.91943,0.20609
1513.84790,0.20426
1515.77637,0.20824
1517.70483,0.21357
1519.63330,0.21829
1521.56177,0.21915
1523.49024,0.21370
1525.41871,0.20930
1527.34718,0.20693
1529.27565,0.20585
1531.20412,0.20657
1533.13258,0.20601
1535.06105,0.20360
1536.98952,0.20470
1538.91799,0.21063
1540.84646,0.21571
1542.77493,0.21201
1544.70340,0.20635
1546.63186,0.20213
1548.56033,0.20039
1550.48880,0.20004
1552.41727,0.20025
1554.34574,0.20486
1556.27421,0.21818
1558.20268,0.23382
1560.13115,0.22233
1562.05961,0.20738
1563.98808,0.20153
1565.91655,0.20140
1567.84502,0.20765
1569.77349,0.21185
1571.70196,0.20639
1573.63043,0.20171
1575.55889,0.20089
1577.48736,0.19710
1579.41583,0.19065
1581.34430,0.18549
1583.27277,0.18276
1585.20124,0.18355
1587.12971,0.18637
1589.05818,0.18819
1590.98664,0.18816
1592.91511,0.18796
1594.84358,0.18944
1596.77205,0.19243
1598.70052,0.19547
1600.62899,0.19660
1602.55746,0.19638
1604.48592,0.19792
1606.41439,0.19900
1608.34286,0.19677
1610.27133,0.19425
1612.19980,0.19446
1614.12827,0.19895
1616.05674,0.20659
1617.98521,0.20885
1619.91367,0.20940
1621.84214,0.21426
1623.77061,0.21570
1625.69908,0.21088
1627.62755,0.20753
1629.55602,0.20601
1631.48449,0.20614
1633.41295,0.21177
1635.34142,0.22152
1637.26989,0.22007
1639.19836,0.21282
1641.12683,0.21007
1643.05530,0.21332
1644.98377,0.22337
1646.91223,0.23201
1648.84070,0.22997
1650.76917,0.23135
1652.69764,0.23802
1654.62611,0.22838
1656.55458,0.21548
1658.48305,0.21281
1660.41152,0.21847
1662.33998,0.22253
1664.26845,0.21611
1666.19692,0.21076
1668.12539,0.21472
1670.05386,0.22197
1671.98233,0.22266
1673.91080,0.21878
1675.83926,0.21056
1677.76773,0.20401
1679.69620,0.20566
1681.62467,0.21475
1683.55314,0.22369
1685.48161,0.21936
1687.41008,0.21253
1689.33855,0.21108
1691.26701,0.21272
1693.19548,0.21599
1695.12395,0.22020
1697.05242,0.21970
1698.98089,0.21647
1700.90936,0.21659
1702.83783,0.21491
1704.76629,0.21273
1706.69476,0.21003
1708.62323,0.20483
1710.55170,0.20140
1712.48017,0.20213
1714.40864,0.20481
1716.33711,0.20577
1718.26558,0.20168
1720.19404,0.19834
1722.12251,0.19890
1724.05098,0.20088
1725.97945,0.20271
1727.90792,0.20393
1729.83639,0.20391
1731.76486,0.20348
1733.69332,0.20377
1735.62179,0.20529
1737.55026,0.20778
1739.47873,0.20970
1741.40720,0.21057
1743.33567,0.21220
1745.26414,0.21611
1747.19261,0.22103
1749.12107,0.22109
1751.04954,0.21368
1752.97801,0.20726
1754.90648,0.20633
1756.83495,0.20888
1758.76342,0.21048
1760.69189,0.21017
1762.62035,0.20950
1764.54882,0.20878
1766.47729,0.20945
1768.40576,0.21128
1770.33423,0.21247
1772.26270,0.21272
1774.19117,0.21140
1776.11964,0.20904
1778.04810,0.20682
1779.97657,0.20549
1781.90504,0.20439
1783.83351,0.20201
1785.76198,0.20053
1787.69045,0.20198
1789.61892,0.20348
1791.54738,0.20499
1793.47585,0.20640
1795.40432,0.20352
1797.33279,0.20029
1799.26126,0.20099
1801.18973,0.20382
1803.11820,0.20625
1805.04666,0.20772
1806.97513,0.20773
1808.90360,0.20688
1810.83207,0.20626
1812.76054,0.20573
1814.68901,0.20564
1816.61748,0.20775
1818.54595,0.21366
1820.47441,0.21781
1822.40288,0.21448
1824.33135,0.21002
1826.25982,0.21113
1828.18829,0.21319
1830.11676,0.21046
1832.04523,0.20570
1833.97369,0.20494
1835.90216,0.20556
1837.83063,0.20419
1839.75910,0.20382
1841.68757,0.20585
1843.61604,0.20769
1845.54451,0.20751
1847.47298,0.20689
1849.40144,0.20596
1851.32991,0.20371
1853.25838,0.20168
1855.18685,0.20241
1857.11532,0.20586
1859.04379,0.20754
1860.97226,0.20518
1862.90072,0.20402
1864.82919,0.20812
1866.75766,0.21525
1868.68613,0.21848
1870.61460,0.21288
1872.54307,0.20663
1874.47154,0.20568
1876.40001,0.20561
1878.32847,0.20193
1880.25694,0.19864
1882.18541,0.20059
1884.11388,0.20660
1886.04235,0.21254
1887.97082,0.21394
1889.89929,0.20871
1891.82775,0.20216
1893.75622,0.19922
1895.68469,0.19827
1897.61316,0.19754
1899.54163,0.19830
1901.47010,0.19989
1903.39857,0.20052
1905.32704,0.20168
1907.25550,0.20439
1909.18397,0.20661
1911.11244,0.20665
1913.04091,0.20578
1914.96938,0.20504
1916.89785,0.20421
1918.82632,0.20367
1920.75478,0.20343
1922.68325,0.20343
1924.61172,0.20340
1926.54019,0.20374
1928.46866,0.20536
1930.39713,0.20772
1932.32560,0.20974
1934.25407,0.20927
1936.18253,0.20570
1938.11100,0.20430
1940.03947,0.20782
1941.96794,0.21071
1943.89641,0.20850
1945.82488,0.20454
1947.75335,0.20215
1949.68181,0.20096
1951.61028,0.19987
1953.53875,0.19931
1955.46722,0.20061
1957.39569,0.20309
1959.32416,0.20572
1961.25263,0.20933
1963.18110,0.21176
1965.10956,0.20979
1967.03803,0.20532
1968.96650,0.20196
1970.89497,0.20124
1972.82344,0.20179
1974.75191,0.20010
1976.68038,0.19700
1978.60884,0.19661
1980.53731,0.19949
1982.46578,0.20405
1984.39425,0.20761
1986.32272,0.20756
1988.25119,0.20623
1990.17966,0.20761
1992.10812,0.20967
1994.03659,0.20825
1995.96506,0.20534
1997.89353,0.20405
1999.82200,0.20313
2001.75047,0.20128
2003.67894,0.19959
2005.60741,0.19997
2007.53587,0.20330
2009.46434,0.20741
2011.39281,0.20969
2013.32128,0.20936
2015.24975,0.20774
2017.17822,0.20718
2019.10669,0.20752
2021.03515,0.20712
2022.96362,0.20567
2024.89209,0.20354
2026.82056,0.20212
2028.74903,0.20259
2030.67750,0.20360
2032.60597,0.20329
2034.53444,0.20150
2036.46290,0.20009
2038.39137,0.20072
2040.31984,0.20276
2042.24831,0.20505
2044.17678,0.20583
2046.10525,0.20461
2048.03372,0.20468
2049.96218,0.20626
2051.89065,0.20562
2053.81912,0.20365
2055.74759,0.20324
2057.67606,0.20282
2059.60453,0.20038
2061.53300,0.19794
2063.46147,0.19795
2065.38993,0.19915
2067.31840,0.20042
2069.24687,0.20141
2071.17534,0.20064
2073.10381,0.19981
2075.03228,0.20143
2076.96075,0.20426
2078.88921,0.20677
2080.81768,0.20848
2082.74615,0.20893
2084.67462,0.20777
2086.60309,0.20474
2088.53156,0.20237
2090.46003,0.20349
2092.38850,0.20563
2094.31696,0.20558
2096.24543,0.20299
2098.17390,0.19960
2100.10237,0.19932
2102.03084,0.20209
2103.95931,0.20275
2105.88778,0.20175
2107.81624,0.20349
2109.74471,0.20544
2111.67318,0.20451
2113.60165,0.20331
2115.53012,0.20337
2117.45859,0.20373
2119.38706,0.20501
2121.31553,0.20764
2123.24399,0.20977
2125.17246,0.21009
2127.10093,0.20901
2129.02940,0.20802
2130.95787,0.20795
2132.88634,0.20536
2134.81481,0.19488
2136.74327,0.18397
2138.67174,0.18714
2140.60021,0.19745
2142.52868,0.20117
2144.45715,0.20234
2146.38562,0.20506
2148.31409,0.20625
2150.24255,0.20517
2152.17102,0.20362
2154.09949,0.20446
2156.02796,0.20735
2157.95643,0.20924
2159.88490,0.20932
2161.81337,0.20888
2163.74184,0.20901
2165.67030,0.20900
2167.59877,0.20783
2169.52724,0.20583
2171.45571,0.20374
2173.38418,0.20313
2175.31265,0.20591
2177.24112,0.20959
2179.16958,0.20904
2181.09805,0.20610
2183.02652,0.20478
2184.95499,0.20379
2186.88346,0.20298
2188.81193,0.20237
2190.74040,0.20051
2192.66887,0.20050
2194.59733,0.20396
2196.52580,0.20718
2198.45427,0.20865
2200.38274,0.20807
2202.31121,0.20526
2204.23968,0.20333
2206.16815,0.20398
2208.09661,0.20563
2210.02508,0.20660
2211.95355,0.20510
2213.88202,0.20248
2215.81049,0.20190
2217.73896,0.20208
2219.66743,0.20210
2221.59590,0.20394
2223.52436,0.20623
2225.45283,0.20547
2227.38130,0.20274
2229.30977,0.20200
2231.23824,0.20408
2233.16671,0.20731
2235.09518,0.20992
2237.02364,0.21100
2238.95211,0.21059
2240.88058,0.20861
2242.80905,0.20531
2244.73752,0.20281
2246.66599,0.20194
2248.59446,0.20081
2250.52293,0.20063
2252.45139,0.20217
2254.37986,0.20304
2256.30833,0.20327
2258.23680,0.20362
2260.16527,0.20404
2262.09374,0.20422
2264.02221,0.20402
2265.95067,0.20489
2267.87914,0.20656
2269.80761,0.20589
2271.73608,0.20289
2273.66455,0.20122
2275.59302,0.20107
2277.52149,0.19974
2279.44996,0.19791
2281.37842,0.19873
2283.30689,0.20055
2285.23536,0.20061
2287.16383,0.19968
2289.09230,0.19653
2291.02077,0.19254
2292.94924,0.19126
2294.87770,0.19034
2296.80617,0.18799
2298.73464,0.18740
2300.66311,0.19013
2302.59158,0.19153
2304.52005,0.18753
2306.44852,0.18102
2308.37699,0.17592
2310.30545,0.17124
2312.23392,0.16676
2314.16239,0.16583
2316.09086,0.16502
2318.01933,0.15961
2319.94780,0.15166
2321.87627,0.14056
2323.80473,0.12969
2325.73320,0.12575
2327.66167,0.12111
2329.59014,0.11144
2331.51861,0.10880
2333.44708,0.11868
2335.37555,0.12827
2337.30401,0.12497
2339.23248,0.11357
2341.16095,0.11088
2343.08942,0.12173
2345.01789,0.13475
2346.94636,0.14158
2348.87483,0.14059
2350.80330,0.13138
2352.73176,0.11875
2354.66023,0.11586
2356.58870,0.12896
2358.51717,0.14093
2360.44564,0.13091
2362.37411,0.11725
2364.30258,0.12209
2366.23104,0.13271
2368.15951,0.13982
2370.08798,0.14670
2372.01645,0.15161
2373.94492,0.15520
2375.87339,0.16309
2377.80186,0.17471
2379.73033,0.18488
2381.65879,0.19265
2383.58726,0.19814
2385.51573,0.20079
2387.44420,0.20243
2389.37267,0.20350
2391.30114,0.20326
2393.22961,0.20316
2395.15807,0.20363
2397.08654,0.20434
2399.01501,0.20464
2400.94348,0.20414
2402.87195,0.20442
2404.80042,0.20533
2406.72889,0.20663
2408.65736,0.20861
2410.58582,0.20991
2412.51429,0.21111
2414.44276,0.21132
2416.37123,0.20911
2418.29970,0.20774
2420.22817,0.20804
2422.15664,0.20835
2424.08510,0.20937
2426.01357,0.20934
2427.94204,0.20622
2429.87051,0.20343
2431.79898,0.20449
2433.72745,0.20810
2435.65592,0.21082
2437.58439,0.21099
2439.51285,0.20960
2441.44132,0.20825
2443.36979,0.20832
2445.29826,0.20944
2447.22673,0.21011
2449.15520,0.20959
2451.08367,0.20576
2453.01213,0.20186
2454.94060,0.20527
2456.86907,0.21157
2458.79754,0.21263
2460.72601,0.21030
2462.65448,0.20813
2464.58295,0.20708
2466.51142,0.20835
2468.43988,0.21049
2470.36835,0.21133
2472.29682,0.21218
2474.22529,0.21349
2476.15376,0.21356
2478.08223,0.21279
2480.01070,0.21278
2481.93916,0.21190
2483.86763,0.20923
2485.79610,0.20871
2487.72457,0.21146
2489.65304,0.21343
2491.58151,0.21082
2493.50998,0.20533
2495.43844,0.20368
2497.36691,0.20579
2499.29538,0.20699
2501.22385,0.20812
2503.15232,0.20927
2505.08079,0.20830
2507.00926,0.20657
2508.93773,0.20565
2510.86619,0.20527
2512.79466,0.20532
2514.72313,0.20581
2516.65160,0.20717
2518.58007,0.20859
2520.50854,0.20892
2522.43701,0.20863
2524.36547,0.20849
2526.29394,0.20989
2528.22241,0.21093
2530.15088,0.20874
2532.07935,0.20725
2534.00782,0.20896
2535.93629,0.21038
2537.86476,0.21081
2539.79322,0.21146
2541.72169,0.21090
2543.65016,0.20956
2545.57863,0.20826
2547.50710,0.20474
2549.43557,0.20169
2551.36404,0.20516
2553.29250,0.21247
2555.22097,0.21690
2557.14944,0.21783
2559.07791,0.21608
2561.00638,0.21234
2562.93485,0.20970
2564.86332,0.20908
2566.79179,0.20897
2568.72025,0.20959
2570.64872,0.21160
2572.57719,0.21309
2574.50566,0.21397
2576.43413,0.21593
2578.36260,0.21600
2580.29107,0.21289
2582.21953,0.20981
2584.14800,0.20870
2586.07647,0.21021
2588.00494,0.21182
2589.93341,0.21056
2591.86188,0.21009
2593.79035,0.21235
2595.71882,0.21259
2597.64728,0.21030
2599.57575,0.20855
2601.50422,0.20817
2603.43269,0.20972
2605.36116,0.21223
2607.28963,0.21326
2609.21810,0.21194
2611.14656,0.21189
2613.07503,0.21558
2615.00350,0.21744
2616.93197,0.21391
2618.86044,0.20992
2620.78891,0.20912
2622.71738,0.20934
2624.64585,0.20916
2626.57431,0.20919
2628.50278,0.20990
2630.43125,0.21239
2632.35972,0.21392
2634.28819,0.21272
2636.21666,0.21274
2638.14513,0.21358
2640.07359,0.21286
2642.00206,0.21208
2643.93053,0.21141
2645.85900,0.21110
2647.78747,0.21233
2649.71594,0.21406
2651.64441,0.21541
2653.57288,0.21729
2655.50134,0.21918
2657.42981,0.21879
2659.35828,0.21693
2661.28675,0.21492
2663.21522,0.21228
2665.14369,0.21096
2667.07216,0.21166
2669.00062,0.21292
2670.92909,0.21499
2672.85756,0.21822
2674.78603,0.22089
2676.71450,0.22063
2678.64297,0.21871
2680.57144,0.21810
2682.49990,0.21891
2684.42837,0.21931
2686.35684,0.21883
2688.28531,0.21787
2690.21378,0.21559
2692.14225,0.21345
2694.07072,0.21367
2695.99919,0.21524
2697.92765,0.21696
2699.85612,0.21862
2701.78459,0.21824
2703.71306,0.21547
2705.64153,0.21404
2707.57000,0.21347
2709.49847,0.21150
2711.42693,0.21067
2713.35540,0.21344
2715.28387,0.21793
2717.21234,0.21875
2719.14081,0.21645
2721.06928,0.21596
2722.99775,0.21705
2724.92622,0.21803
2726.85468,0.21773
2728.78315,0.21673
2730.71162,0.21752
2732.64009,0.21891
2734.56856,0.21864
2736.49703,0.21874
2738.42550,0.22120
2740.35396,0.22306
2742.28243,0.22179
2744.21090,0.21830
2746.13937,0.21456
2748.06784,0.21476
2749.99631,0.22069
2751.92478,0.22739
2753.85325,0.23000
2755.78171,0.22844
2757.71018,0.22536
2759.63865,0.22243
2761.56712,0.21966
2763.49559,0.21765
2765.42406,0.21756
2767.35253,0.21919
2769.28099,0.22027
2771.20946,0.21933
2773.13793,0.21794
2775.06640,0.21899
2776.99487,0.22197
2778.92334,0.22461
2780.85181,0.22681
2782.78028,0.22710
2784.70874,0.22492
2786.63721,0.22381
2788.56568,0.22531
2790.49415,0.22700
2792.42262,0.22675
2794.35109,0.22501
2796.27956,0.22450
2798.20802,0.22623
2800.13649,0.22602
2802.06496,0.22324
2803.99343,0.22123
2805.92190,0.21875
2807.85037,0.21789
2809.77884,0.22254
2811.70731,0.22824
2813.63577,0.22962
2815.56424,0.22751
2817.49271,0.22650
2819.42118,0.22841
2821.34965,0.22949
2823.27812,0.22945
2825.20659,0.23077
2827.13505,0.23116
2829.06352,0.22940
2830.99199,0.22727
2832.92046,0.22769
2834.84893,0.23104
2836.77740,0.23188
2838.70587,0.22886
2840.63433,0.22630
2842.56280,0.22670
2844.49127,0.22929
2846.41974,0.23084
2848.34821,0.22859
2850.27668,0.22501
2852.20515,0.22393
2854.13362,0.22371
2856.06208,0.22456
2857.99055,0.22836
2859.91902,0.23066
2861.84749,0.22903
2863.77596,0.22775
2865.70443,0.22966
2867.63290,0.23240
2869.56136,0.23218
2871.48983,0.22890
2873.41830,0.22584
2875.34677,0.22405
2877.27524,0.22299
2879.20371,0.22326
2881.13218,0.22404
2883.06065,0.22416
2884.98911,0.22435
2886.91758,0.22406
2888.84605,0.22287
2890.77452,0.22378
2892.70299,0.22515
2894.63146,0.22271
2896.55993,0.22115
2898.48839,0.22355
2900.41686,0.22487
2902.34533,0.22430
2904.27380,0.22450
2906.20227,0.22424
2908.13074,0.22258
2910.05921,0.22056
2911.98768,0.21874
2913.91614,0.21730
2915.84461,0.21687
2917.77308,0.21833
2919.70155,0.22067
2921.63002,0.22287
2923.55849,0.22246
2925.48696,0.21649
2927.41542,0.21040
2929.34389,0.21140
2931.27236,0.21829
2933.20083,0.22460
2935.12930,0.22451
2937.05777,0.22071
2938.98624,0.22082
2940.91471,0.22368
2942.84317,0.22555
2944.77164,0.22528
2946.70011,0.22195
2948.62858,0.22117
2950.55705,0.22661
2952.48552,0.23164
2954.41399,0.22985
2956.34245,0.22307
2958.27092,0.21996
2960.19939,0.22333
2962.12786,0.22608
2964.05633,0.22773
2965.98480,0.23260
2967.91327,0.23502
2969.84174,0.23171
2971.77020,0.22748
2973.69867,0.22507
2975.62714,0.22537
2977.55561,0.22713
2979.48408,0.22979
2981.41255,0.23235
2983.34102,0.23160
2985.26948,0.22885
2987.19795,0.22567
2989.12642,0.22286
2991.05489,0.22374
2992.98336,0.22600
2994.91183,0.22487
2996.84030,0.22398
2998.76877,0.22802
3000.69723,0.23314
3002.62570,0.23528
3004.55417,0.23633
3006.48264,0.23560
3008.41111,0.23150
3010.33958,0.22632
3012.26805,0.22021
3014.19651,0.20794
3016.12498,0.19301
3018.05345,0.19399
3019.98192,0.21279
3021.91039,0.22922
3023.83886,0.23290
3025.76733,0.23071
3027.69579,0.23284
3029.62426,0.23673
3031.55273,0.23660
3033.48120,0.23701
3035.40967,0.23865
3037.33814,0.23538
3039.26661,0.22995
3041.19508,0.22916
3043.12354,0.23035
3045.05201,0.22884
3046.98048,0.22539
3048.90895,0.22365
3050.83742,0.22444
3052.76589,0.22570
3054.69436,0.22676
3056.62282,0.22750
3058.55129,0.23022
3060.47976,0.23253
3062.40823,0.22849
3064.33670,0.22207
3066.26517,0.22228
3068.19364,0.23042
3070.12211,0.23729
3072.05057,0.23747
3073.97904,0.23412
3075.90751,0.23000
3077.83598,0.22781
3079.76445,0.22824
3081.69292,0.22690
3083.62139,0.21919
3085.54985,0.21104
3087.47832,0.21307
3089.40679,0.22158
3091.33526,0.22621
3093.26373,0.22362
3095.19220,0.21904
3097.12067,0.21958
3099.04914,0.22294
3100.97760,0.22412
3102.90607,0.22314
3104.83454,0.22387
3106.76301,0.22876
3108.69148,0.23199
3110.61995,0.22765
3112.54842,0.22121
3114.47688,0.22292
3116.40535,0.23075
3118.33382,0.23434
3120.26229,0.23205
3122.19076,0.23025
3124.11923,0.23230
3126.04770,0.23262
3127.97617,0.22879
3129.90463,0.22565
3131.83310,0.22519
3133.76157,0.22818
3135.69004,0.23270
3137.61851,0.23598
3139.54698,0.23836
3141.47545,0.23852
3143.40391,0.23701
3145.33238,0.23458
3147.26085,0.22888
3149.18932,0.22415
3151.11779,0.22564
3153.04626,0.22983
3154.97473,0.23292
3156.90320,0.23415
3158.83166,0.23355
3160.76013,0.23230
3162.68860,0.23147
3164.61707,0.23202
3166.54554,0.23476
3168.47401,0.23679
3170.40248,0.23371
3172.33094,0.23048
3174.25941,0.23327
3176.18788,0.23845
3178.11635,0.24123
3180.04482,0.24358
3181.97329,0.24774
3183.90176,0.24694
3185.83022,0.23979
3187.75869,0.23481
3189.68716,0.23509
3191.61563,0.23824
3193.54410,0.23927
3195.47257,0.23752
3197.40104,0.23747
3199.32951,0.23860
3201.25797,0.23997
3203.18644,0.23969
3205.11491,0.23440
3207.04338,0.23005
3208.97185,0.23138
3210.90032,0.23349
3212.82879,0.23348
3214.75725,0.23248
3216.68572,0.23199
3218.61419,0.23253
3220.54266,0.23306
3222.47113,0.23212
3224.39960,0.23039
3226.32807,0.22910
3228.25654,0.22954
3230.18500,0.23325
3232.11347,0.23588
3234.04194,0.23438
3235.97041,0.23259
3237.89888,0.23234
3239.82735,0.23045
3241.75582,0.22614
3243.68428,0.22287
3245.61275,0.22058
3247.54122,0.22118
3249.46969,0.22762
3251.39816,0.23424
3253.32663,0.23587
3255.25510,0.23392
3257.18357,0.23139
3259.11203,0.22997
3261.04050,0.22862
3262.96897,0.22579
3264.89744,0.22284
3266.82591,0.22091
3268.75438,0.21986
3270.68285,0.21859
3272.61131,0.21610
3274.53978,0.21682
3276.46825,0.22264
3278.39672,0.22883
3280.32519,0.23164
3282.25366,0.23032
3284.18213,0.22747
3286.11060,0.22719
3288.03906,0.23062
3289.96753,0.23196
3291.89600,0.22969
3293.82447,0.23089
3295.75294,0.23448
3297.68141,0.23455
3299.60988,0.22886
3301.53834,0.22123
3303.46681,0.21913
3305.39528,0.22086
3307.32375,0.22344
3309.25222,0.23045
3311.18069,0.23640
3313.10916,0.23265
3315.03763,0.22472
3316.96609,0.22191
3318.89456,0.22639
3320.82303,0.23274
3322.75150,0.23329
3324.67997,0.22796
3326.60844,0.22431
3328.53691,0.22738
3330.46537,0.23196
3332.39384,0.23273
3334.32231,0.23152
3336.25078,0.23054
3338.17925,0.22932
3340.10772,0.23006
3342.03619,0.23588
3343.96466,0.23950
3345.89312,0.23565
3347.82159,0.23306
3349.75006,0.23619
3351.67853,0.23696
3353.60700,0.23263
3355.53547,0.22981
3357.46394,0.23019
3359.39240,0.23173
3361.32087,0.23310
3363.24934,0.23393
3365.17781,0.23499
3367.10628,0.23601
3369.03475,0.23726
3370.96322,0.23829
3372.89168,0.23648
3374.82015,0.23269
3376.74862,0.23205
3378.67709,0.23255
3380.60556,0.23052
3382.53403,0.23164
3384.46250,0.23552
3386.39097,0.23472
3388.31943,0.23119
3390.24790,0.22819
3392.17637,0.22436
3394.10484,0.22352
3396.03331,0.22764
3397.96178,0.23022
3399.89025,0.22817
3401.81871,0.22480
3403.74718,0.22389
3405.67565,0.22744
3407.60412,0.23158
3409.53259,0.23087
3411.46106,0.22981
3413.38953,0.23240
3415.31800,0.23329
3417.24646,0.23395
3419.17493,0.23611
3421.10340,0.23315
3423.03187,0.22937
3424.96034,0.22936
3426.88881,0.22790
3428.81728,0.22482
3430.74574,0.22188
3432.67421,0.22110
3434.60268,0.22268
3436.53115,0.22382
3438.45962,0.22505
3440.38809,0.22373
3442.31656,0.21882
3444.24503,0.21570
3446.17349,0.21512
3448.10196,0.21473
3450.03043,0.21545
3451.95890,0.21818
3453.88737,0.22320
3455.81584,0.22874
3457.74431,0.22660
3459.67277,0.21694
3461.60124,0.21125
3463.52971,0.20965
3465.45818,0.20640
3467.38665,0.20581
3469.31512,0.21148
3471.24359,0.21643
3473.17206,0.21714
3475.10052,0.21769
3477.02899,0.21701
3478.95746,0.21467
3480.88593,0.21214
3482.81440,0.20824
3484.74287,0.20405
3486.67134,0.20223
3488.59980,0.20176
3490.52827,0.19984
3492.45674,0.19926
3494.38521,0.20138
3496.31368,0.20359
3498.24215,0.20838
3500.17062,0.21457
3502.09909,0.21454
3504.02755,0.20981
3505.95602,0.20562
3507.88449,0.20105
3509.81296,0.19900
3511.74143,0.19953
3513.66990,0.19771
3515.59837,0.19526
3517.52683,0.19504
3519.45530,0.19515
3521.38377,0.19506
3523.31224,0.19680
3525.24071,0.19886
3527.16918,0.19909
3529.09765,0.19724
3531.02611,0.19379
3532.95458,0.19130
3534.88305,0.19205
3536.81152,0.19182
3538.73999,0.18616
3540.66846,0.18181
3542.59693,0.18400
3544.52540,0.18917
3546.45386,0.19016
3548.38233,0.18412
3550.31080,0.17823
3552.23927,0.17835
3554.16774,0.18171
3556.09621,0.18155
3558.02468,0.17654
3559.95314,0.17246
3561.88161,0.17468
3563.81008,0.17974
3565.73855,0.18158
3567.66702,0.17856
3569.59549,0.17402
3571.52396,0.17094
3573.45243,0.16893
3575.38089,0.16859
3577.30936,0.16998
3579.23783,0.17244
3581.16630,0.17649
3583.09477,0.17932
3585.02324,0.17888
3586.95171,0.17554
3588.88017,0.17039
3590.80864,0.16725
3592.73711,0.16582
3594.66558,0.16487
3596.59405,0.16555
3598.52252,0.16650
3600.45099,0.16448
3602.37946,0.16219
3604.30792,0.16323
3606.23639,0.16470
3608.16486,0.16371
3610.09333,0.16399
3612.02180,0.16855
3613.95027,0.17149
3615.87874,0.16982
3617.80720,0.16818
3619.73567,0.16794
3621.66414,0.16698
3623.59261,0.16501
3625.52108,0.16603
3627.44955,0.17067
3629.37802,0.16986
3631.30649,0.16557
3633.23495,0.16302
3635.16342,0.16083
3637.09189,0.15937
3639.02036,0.15607
3640.94883,0.15262
3642.87730,0.15237
3644.80577,0.15519
3646.73423,0.15903
3648.66270,0.15917
3650.59117,0.15385
3652.51964,0.15278
3654.44811,0.15888
3656.37658,0.16209
3658.30505,0.15535
3660.23352,0.14889
3662.16198,0.14561
3664.09045,0.14413
3666.01892,0.14640
3667.94739,0.15298
3669.87586,0.15798
3671.80433,0.15683
3673.73280,0.15702
3675.66126,0.15661
3677.58973,0.15208
3679.51820,0.14832
3681.44667,0.14544
3683.37514,0.14453
3685.30361,0.14731
3687.23208,0.15366
3689.16055,0.15851
3691.08901,0.15513
3693.01748,0.15095
3694.94595,0.14788
3696.87442,0.14357
3698.80289,0.14294
3700.73136,0.14587
3702.65983,0.14295
3704.58829,0.13575
3706.51676,0.13261
3708.44523,0.13523
3710.37370,0.14150
3712.30217,0.14522
3714.23064,0.14416
3716.15911,0.14168
3718.08757,0.13875
3720.01604,0.13619
3721.94451,0.13725
3723.87298,0.14205
3725.80145,0.14353
3727.72992,0.14165
3729.65839,0.14218
3731.58686,0.14477
3733.51532,0.14736
3735.44379,0.15106
3737.37226,0.15252
3739.30073,0.14744
3741.22920,0.13959
3743.15767,0.13453
3745.08614,0.14105
3747.01460,0.15391
3748.94307,0.15998
3750.87154,0.15343
3752.80001,0.14136
3754.72848,0.13815
3756.65695,0.14070
3758.58542,0.14297
3760.51389,0.14307
3762.44235,0.14494
3764.37082,0.14925
3766.29929,0.15010
3768.22776,0.14515
3770.15623,0.14093
3772.08470,0.13892
3774.01317,0.13681
3775.94163,0.13670
3777.87010,0.14085
3779.79857,0.14749
3781.72704,0.14942
3783.65551,0.14707
3785.58398,0.14567
3787.51245,0.14443
3789.44092,0.14070
3791.36938,0.13549
3793.29785,0.13003
3795.22632,0.12688
3797.15479,0.13190
3799.08326,0.14045
3801.01173,0.14418
3802.94020,0.14547
3804.86866,0.14849
3806.79713,0.14952
3808.72560,0.14287
3810.65407,0.13750
3812.58254,0.13966
3814.51101,0.14330
3816.43948,0.14246
3818.36795,0.14201
3820.29641,0.14596
3822.22488,0.14827
3824.15335,0.14679
3826.08182,0.14734
3828.01029,0.14787
3829.93876,0.14600
3831.86723,0.14557
3833.79569,0.14538
3835.72416,0.14122
3837.65263,0.13470
3839.58110,0.13141
3841.50957,0.13267
3843.43804,0.13293
3845.36651,0.12996
3847.29498,0.12823
3849.22344,0.13309
3851.15191,0.14541
3853.08038,0.15324
3855.00885,0.14390
3856.93732,0.13808
3858.86579,0.13546
3860.79426,0.13424
3862.72272,0.13757
3864.65119,0.14051
3866.57966,0.14007
3868.50813,0.14131
3870.43660,0.14140
3872.36507,0.13653
3874.29354,0.13260
3876.22200,0.13171
3878.15047,0.13433
3880.07894,0.14212
3882.00741,0.14612
3883.93588,0.14188
3885.86435,0.13742
3887.79282,0.13448
3889.72129,0.13201
3891.64975,0.13079
3893.57822,0.12686
3895.50669,0.12382
3897.43516,0.13005
3899.36363,0.14097
3901.29210,0.14438
3903.22057,0.14179
3905.14903,0.13930
3907.07750,0.13701
3909.00597,0.13467
3910.93444,0.13308
3912.86291,0.13014
3914.79138,0.12659
3916.71985,0.12733
3918.64832,0.12844
3920.57678,0.12497
3922.50525,0.12249
3924.43372,0.12687
3926.36219,0.13233
3928.29066,0.12876
3930.21913,0.12237
3932.14760,0.12098
3934.07606,0.11943
3936.00453,0.11737
3937.93300,0.11894
3939.86147,0.12051
3941.78994,0.11740
3943.71841,0.11242
3945.64688,0.10856
3947.57535,0.10780
3949.50381,0.11074
3951.43228,0.11307
3953.36075,0.11671
3955.28922,0.12251
3957.21769,0.12469
3959.14616,0.12212
3961.07463,0.11817
3963.00309,0.11627
3964.93156,0.11846
3966.86003,0.12150
3968.78850,0.12179
3970.71697,0.12125
3972.64544,0.12267
3974.57391,0.12491
3976.50238,0.12495
3978.43084,0.12479
3980.35931,0.12573
3982.28778,0.12375
3984.21625,0.12052
3986.14472,0.12047
3988.07319,0.12124
3990.00166,0.12056
3991.93012,0.12078
3993.85859,0.12011
3995.78706,0.11693
3997.71553,0.11546
3999.64400,0.11673
4001.57247,0.11825
4003.50094,0.11583
4005.42941,0.10915
4007.35787,0.10734
4009.28634,0.11147
4011.21481,0.11049
4013.14328,0.10499
4015.07175,0.10431
4017.00022,0.10828
4018.92869,0.11260
4020.85715,0.11542
4022.78562,0.11416
4024.71409,0.10982
4026.64256,0.10862
4028.57103,0.11073
4030.49950,0.11227
4032.42797,0.11358
4034.35644,0.11475
4036.28490,0.11487
4038.21337,0.11221
4040.14184,0.11019
4042.07031,0.11421
4043.99878,0.11749
4045.92725,0.11570
4047.85572,0.11407
4049.78418,0.11120
4051.71265,0.10617
4053.64112,0.10453
4055.56959,0.10699
4057.49806,0.11050
4059.42653,0.11370
4061.35500,0.11429
4063.28346,0.11243
4065.21193,0.11173
4067.14040,0.11044
4069.06887,0.10365
4070.99734,0.09546
4072.92581,0.09635
4074.85428,0.10384
4076.78275,0.10681
4078.71121,0.10540
4080.63968,0.10200
4082.56815,0.09651
4084.49662,0.09301
4086.42509,0.09311
4088.35356,0.09566
4090.28203,0.10014
4092.21049,0.10305
4094.13896,0.10245
4096.06743,0.10317
4097.99590,0.10784
4099.92437,0.11234
4101.85284,0.11325
4103.78131,0.11185
4105.70978,0.10780
4107.63824,0.10131
4109.56671,0.09983
4111.49518,0.10443
4113.42365,0.10923
4115.35212,0.11197
4117.28059,0.10967
4119.20906,0.10108
4121.13752,0.09218
4123.06599,0.09016
4124.99446,0.09496
4126.92293,0.09858
4128.85140,0.09534
4130.77987,0.09202
4132.70834,0.09370
4134.63681,0.09419
4136.56527,0.09347
4138.49374,0.09604
4140.42221,0.10088
4142.35068,0.10374
4144.27915,0.10070
4146.20762,0.09447
4148.13609,0.09034
4150.06455,0.09088
4151.99302,0.09514
4153.92149,0.09794
4155.84996,0.09812
4157.77843,0.09850
4159.70690,0.09721
4161.63537,0.09441
4163.56384,0.09416
4165.49230,0.09443
4167.42077,0.09159
4169.34924,0.08811
4171.27771,0.08886
4173.20618,0.09363
4175.13465,0.09930
4177.06312,0.10359
4178.99158,0.10467
4180.92005,0.10315
4182.84852,0.09673
4184.77699,0.08691
4186.70546,0.08234
4188.63393,0.08453
4190.56240,0.08674
4192.49087,0.08091
4194.41933,0.07273
4196.34780,0.07596
4198.27627,0.08677
4200.20474,0.09306
4202.13321,0.09319
4204.06168,0.08892
4205.99015,0.08148
4207.91861,0.07524
4209.84708,0.07268
4211.77555,0.07549
4213.70402,0.08408
4215.63249,0.09030
4217.56096,0.08945
4219.48943,0.08757
4221.41789,0.08576
4223.34636,0.07907
4225.27483,0.07329
4227.20330,0.07725
4229.13177,0.08369
4231.06024,0.08489
4232.98871,0.08723
4234.91718,0.09083
4236.84564,0.08631
4238.77411,0.07857
4240.70258,0.07750
4242.63105,0.07757
4244.55952,0.07296
4246.48799,0.07082
4248.41646,0.07628
4250.34492,0.08170
4252.27339,0.08151
4254.20186,0.07928
4256.13033,0.07541
4258.05880,0.06933
4259.98727,0.06487
4261.91574,0.06103
4263.84421,0.05799
4265.77267,0.06283
4267.70114,0.07130
4269.62961,0.07352
4271.55808,0.07240
4273.48655,0.07233
4275.41502,0.07337
4277.34349,0.07559
4279.27195,0.07538
4281.20042,0.07352
4283.12889,0.07677
4285.05736,0.08099
4286.98583,0.07721
4288.91430,0.06772
4290.84277,0.05939
4292.77124,0.05546
4294.69970,0.05790
4296.62817,0.06369
4298.55664,0.06526
4300.48511,0.06349
4302.41358,0.06475
4304.34205,0.06983
4306.27052,0.07241
4308.19898,0.06720
4310.12745,0.06246
4312.05592,0.06543
4313.98439,0.06768
4315.91286,0.06546
4317.84133,0.06384
4319.76980,0.06009
4321.69827,0.05264
4323.62673,0.04827
4325.55520,0.04701
4327.48367,0.04226
4329.41214,0.03721
4331.34061,0.04312
4333.26908,0.05912
4335.19755,0.07338
4337.12601,0.07608
4339.05448,0.06720
4340.98295,0.06017
4342.91142,0.06134
4344.83989,0.06243
4346.76836,0.05824
4348.69683,0.05160
4350.62530,0.04868
4352.55376,0.04892
4354.48223,0.04521
4356.41070,0.03962
4358.33917,0.04334
4360.26764,0.05363
4362.19611,0.05660
4364.12458,0.05449
4366.05304,0.05611
4367.98151,0.05839
4369.90998,0.05366
4371.83845,0.04673
4373.76692,0.04832
4375.69539,0.05056
4377.62386,0.04849
4379.55232,0.04853
4381.48079,0.04673
4383.40926,0.04311
4385.33773,0.04197
4387.26620,0.03826
4389.19467,0.03129
4391.12314,0.03263
4393.05161,0.04058
4394.98007,0.03870
4396.90854,0.03395
4398.83701,0.04030
4400.76548,0.04774
4402.69395,0.05066
4404.62242,0.05250
4406.55089,0.04612
4408.47935,0.03426
4410.40782,0.03243
4412.33629,0.03987
4414.26476,0.04450
4416.19323,0.04366
4418.12170,0.03876
4420.05017,0.03290
4421.97864,0.03220
4423.90710,0.03469
4425.83557,0.03320
4427.76404,0.02999
4429.69251,0.03211
4431.62098,0.03563
4433.54945,0.03722
4435.47792,0.03970
4437.40638,0.04153
4439.33485,0.04203
4441.26332,0.03569
4443.19179,0.02499
4445.12026,0.02582
4447.04873,0.03372
4448.97720,0.03535
4450.90567,0.03259
4452.83413,0.02827
4454.76260,0.02597
4456.69107,0.03170
4458.61954,0.03888
4460.54801,0.03992
4462.47648,0.04038
4464.40495,0.04123
4466.33341,0.03674
4468.26188,0.02933
4470.19035,0.02674
4472.11882,0.02822
4474.04729,0.02771
4475.97576,0.02548
4477.90423,0.02351
4479.83270,0.02451
4481.76116,0.03240
4483.68963,0.03956
4485.61810,0.03704
4487.54657,0.03172
4489.47504,0.03042
4491.40351,0.03013
4493.33198,0.02745
4495.26044,0.02577
4497.18891,0.02861
4499.11738,0.02709
4501.04585,0.01475
4502.97432,0.00191
4504.90279,-0.00085
4506.83126,0.00343
4508.75973,0.00804
4510.68819,0.01396
4512.61666,0.02063
4514.54513,0.02352
4516.47360,0.02352
4518.40207,0.02288
4520.33054,0.02036
4522.25901,0.01854
4524.18747,0.02077
4526.11594,0.01934
4528.04441,0.01152
4529.97288,0.00604
4531.90135,0.00550
4533.82982,0.01034
4535.75829,0.01792
4537.68676,0.02209
4539.61522,0.02380
4541.54369,0.02331
4543.47216,0.01957
4545.40063,0.01357
4547.32910,0.00839
4549.25757,0.01308
4551.18604,0.02582
4553.11450,0.02747
4555.04297,0.01596
4556.97144,0.01235
4558.89991,0.02142
4560.82838,0.02476
4562.75685,0.01192
4564.68532,-0.00126
4566.61378,0.00083
4568.54225,0.00961
4570.47072,0.01686
4572.39919,0.02001
4574.32766,0.01892
4576.25613,0.02027
4578.18460,0.02172
4580.11307,0.01963
4582.04153,0.01832
4583.97000,0.02018
4585.89847,0.02805
4587.82694,0.03279
4589.75541,0.02316
4591.68388,0.01297
4593.61235,0.01101
4595.54081,0.01190
4597.46928,0.01810
4599.39775,0.02484
4601.32622,0.02657
4603.25469,0.02413
4605.18316,0.01693
4607.11163,0.01209
4609.04010,0.01275
4610.96856,0.01562
4612.89703,0.02151
4614.82550,0.02826
4616.75397,0.03114
4618.68244,0.02829
4620.61091,0.02325
4622.53938,0.02097
4624.46784,0.02373
4626.39631,0.03157
4628.32478,0.03936
4630.25325,0.04216
4632.18172,0.04007
4634.11019,0.03876
4636.03866,0.03755
4637.96713,0.02916
4639.89559,0.02379
4641.82406,0.02511
4643.75253,0.01745
4645.68100,0.00186
4647.60947,-0.00845
4649.53794,-0.00565
4651.46641,0.00481
4653.39487,0.00771
4655.32334,0.00191
4657.25181,0.00112
4659.18028,0.01016
4661.10875,0.01768
4663.03722,0.01289
4664.96569,0.00480
4666.89416,0.00669
4668.82262,0.00728
4670.75109,-0.00100
4672.67956,-0.00498
4674.60803,0.00172
4676.53650,0.01297
4678.46497,0.02049
4680.39344,0.02544
4682.32190,0.02391
4684.25037,0.00952
4686.17884,-0.00273
4688.10731,-0.00250
4690.03578,0.00097
4691.96425,0.00452
4693.89272,0.00744
4695.82119,0.00361
4697.74965,-0.00118
4699.67812,-0.00244
4701.60659,-0.00382
4703.53506,-0.00038
4705.46353,0.00935
4707.39200,0.01739
4709.32047,0.01836
4711.24893,0.01109
4713.17740,0.00241
4715.10587,0.00565
4717.03434,0.02014
4718.96281,0.02863
4720.89128,0.02771
4722.81975,0.02566
4724.74821,0.01957
4726.67668,0.00943
4728.60515,0.00496
4730.53362,0.00788
4732.46209,0.00813
4734.39056,-0.00082
4736.31903,-0.00816
4738.24750,-0.00512
4740.17596,-0.00023
4742.10443,0.00069
4744.03290,0.00012
4745.96137,-0.00312
4747.88984,-0.00305
4749.81831,0.00766
4751.74678,0.01505
4753.67524,0.01098
4755.60371,0.00995
4757.53218,0.01791
4759.46065,0.02192
4761.38912,0.01483
4763.31759,0.00577
4765.24606,0.00326
4767.17453,0.00449
4769.10299,0.00095
4771.03146,-0.00620
4772.95993,-0.00444
4774.88840,0.00765
4776.81687,0.01553
4778.74534,0.01408
4780.67381,0.01314
4782.60227,0.01582
4784.53074,0.01625
4786.45921,0.01465
4788.38768,0.01335
4790.31615,0.00821
4792.24462,0.00128
4794.17309,-0.00379
4796.10156,-0.00682
4798.03002,0.00192
4799.95849,0.02198
4801.88696,0.03869
4803.81543,0.04313
4805.74390,0.03071
4807.67237,0.00909
4809.60084,-0.00511
4811.52930,-0.00856
4813.45777,-0.00794
4815.38624,-0.00107
4817.31471,0.01310
4819.24318,0.01652
4821.17165,0.00682
4823.10012,0.00438
4825.02859,0.01124
4826.95705,0.01372
4828.88552,0.00632
4830.81399,-0.00409
4832.74246,-0.01084
4834.67093,-0.01574
4836.59940,-0.01852
4838.52787,-0.00906
4840.45633,0.01153
4842.38480,0.02132
4844.31327,0.01916
4846.24174,0.01908
4848.17021,0.01565
4850.09868,0.00658
4852.02715,0.00208
4853.95562,0.00746
4855.88408,0.02001
4857.81255,0.02577
4859.74102,0.01522
4861.66949,0.00689
4863.59796,0.01468
4865.52643,0.02137
4867.45490,0.01649
4869.38336,0.00766
4871.31183,0.00056
4873.24030,-0.00232
4875.16877,0.00504
4877.09724,0.01888
4879.02571,0.01857
4880.95418,0.00052
4882.88265,-0.01456
4884.81111,-0.01561
4886.73958,-0.01029
4888.66805,-0.01113
4890.59652,-0.01545
4892.52499,-0.00954
4894.45346,0.00958
4896.38193,0.02726
4898.31039,0.02443
4900.23886,0.00642
4902.16733,-0.00483
4904.09580,-0.00231
4906.02427,0.00331
4907.95274,0.00447
4909.88121,0.00463
4911.80967,0.00412
4913.73814,-0.00140
4915.66661,-0.01456
4917.59508,-0.02576
4919.52355,-0.02283
4921.45202,-0.01175
4923.38049,-0.00178
4925.30896,0.00912
4927.23742,0.02006
4929.16589,0.01627
4931.09436,-0.00403
4933.02283,-0.01303
4934.95130,0.00021
4936.87977,0.01542
4938.80824,0.02221
4940.73670,0.02825
4942.66517,0.03349
4944.59364,0.02758
4946.52211,0.02061
4948.45058,0.02818
4950.37905,0.03663
4952.30752,0.03263
4954.23599,0.02123
4956.16445,0.01292
4958.09292,0.01515
4960.02139,0.01979
4961.94986,0.01748
4963.87833,0.01438
4965.80680,0.01207
4967.73527,0.01021
4969.66373,0.01553
4971.59220,0.02070
4973.52067,0.01678
4975.44914,0.00898
4977.37761,0.00553
4979.30608,0.01370
4981.23455,0.02656
4983.16302,0.03177
4985.09148,0.02937
4987.01995,0.01791
4988.94842,0.00244
4990.87689,0.00301
4992.80536,0.02214
4994.73383,0.04136
4996.66230,0.04942
4998.59076,0.04646
5000.51923,0.03808
5002.44770,0.02754
5004.37617,0.02180
5006.30464,0.02731
5008.23311,0.02846
5010.16158,0.01264
5012.09005,-0.00355
5014.01851,-0.00420
5015.94698,0.00226
5017.87545,0.00514
5019.80392,0.01051
5021.73239,0.02135
5023.66086,0.02480
5025.58933,0.01784
5027.51779,0.01407
5029.44626,0.02044
5031.37473,0.02707
5033.30320,0.02197
5035.23167,0.00669
5037.16014,-0.00542
5039.08861,-0.00270
5041.01708,0.00178
5042.94554,-0.00189
5044.87401,0.00288
5046.80248,0.01408
5048.73095,0.01378
5050.65942,0.00434
5052.58789,0.00887
5054.51636,0.03090
5056.44482,0.04531
5058.37329,0.04761
5060.30176,0.04895
5062.23023,0.04484
5064.15870,0.03168
5066.08717,0.02197
5068.01564,0.01630
5069.94410,0.00746
5071.87257,0.00482
5073.80104,0.00727
5075.72951,0.00675
5077.65798,0.00556
5079.58645,0.00756
5081.51492,0.01850
5083.44339,0.03080
5085.37185,0.03013
5087.30032,0.02119
5089.22879,0.01777
5091.15726,0.02548
5093.08573,0.03279
5095.01420,0.02698
5096.94267,0.01776
5098.87113,0.00946
5100.79960,-0.00054
5102.72807,0.00087
5104.65654,0.01173
5106.58501,0.01469
5108.51348,0.01180
5110.44195,0.01311
5112.37042,0.01627
5114.29888,0.02395
5116.22735,0.03584
5118.15582,0.03450
5120.08429,0.01875
5122.01276,0.01084
5123.94123,0.01377
5125.86970,0.00987
5127.79816,0.00989
5129.72663,0.03141
5131.65510,0.05329
5133.58357,0.05535
5135.51204,0.04507
5137.44051,0.03674
5139.36898,0.03086
5141.29745,0.02533
5143.22591,0.03306
5145.15438,0.04924
5147.08285,0.06485
5149.01132,0.07857
5150.93979,0.06712
5152.86826,0.03924
5154.79673,0.02792
5156.72519,0.04187
5158.65366,0.06952
5160.58213,0.08030
5162.51060,0.06816
5164.43907,0.05015
5166.36754,0.03556
5168.29601,0.03147
5170.22448,0.03913
5172.15294,0.04487
5174.08141,0.03660
5176.00988,0.02900
5177.93835,0.03309
5179.86682,0.04086
5181.79529,0.04286
5183.72376,0.03575
5185.65222,0.02998
5187.58069,0.03515
5189.50916,0.04957
5191.43763,0.06035
5193.36610,0.05584
5195.29457,0.04227
5197.22304,0.02889
5199.15151,0.01781
5201.07997,0.02011
5203.00844,0.04061
5204.93691,0.05546
5206.86538,0.05535
5208.79385,0.05884
5210.72232,0.06089
5212.65079,0.05132
5214.57925,0.04068
5216.50772,0.04050
5218.43619,0.05202
5220.36466,0.06067
5222.29313,0.04558
5224.22160,0.02083
5226.15007,0.01588
5228.07854,0.02814
5230.00700,0.03793
5231.93547,0.03052
5233.86394,0.01551
5235.79241,0.02014
5237.72088,0.03256
5239.64935,0.02546
5241.57782,0.00941
5243.50628,-0.00386
5245.43475,-0.00729
5247.36322,0.00871
5249.29169,0.02168
5251.22016,0.02780
5253.14863,0.04578
5255.07710,0.05545
5257.00556,0.04673
5258.93403,0.04082
5260.86250,0.04478
5262.79097,0.05363
5264.71944,0.05430
5266.64791,0.04171
5268.57638,0.03443
5270.50485,0.04361
5272.43331,0.05026
5274.36178,0.04450
5276.29025,0.04914
5278.21872,0.06674
5280.14719,0.07511
5282.07566,0.06416
5284.00413,0.03939
5285.93259,0.01620
5287.86106,0.00550
5289.78953,0.01542
5291.71800,0.03741
5293.64647,0.04427
5295.57494,0.02922
5297.50341,0.01104
5299.43188,0.01785
5301.36034,0.03882
5303.28881,0.04514
5305.21728,0.04505
5307.14575,0.04922
5309.07422,0.04748
5311.00269,0.04356
5312.93116,0.04687
5314.85962,0.04856
5316.78809,0.04748
5318.71656,0.04865
5320.64503,0.04931
5322.57350,0.05212
5324.50197,0.05285
5326.43044,0.05337
5328.35891,0.06123
5330.28737,0.05990
5332.21584,0.04885
5334.14431,0.04027
5336.07278,0.02922
5338.00125,0.02379
5339.92972,0.02889
5341.85819,0.03106
5343.78665,0.03365
5345.71512,0.03701
5347.64359,0.03878
5349.57206,0.04925
5351.50053,0.06233
5353.42900,0.07423
5355.35747,0.08021
5357.28594,0.06481
5359.21440,0.05450
5361.14287,0.06812
5363.07134,0.07815
5364.99981,0.06975
5366.92828,0.05786
5368.85675,0.05742
5370.78522,0.07079
5372.71368,0.08819
5374.64215,0.08673
5376.57062,0.06547
5378.49909,0.06233
5380.42756,0.07836
5382.35603,0.08360
5384.28450,0.06154
5386.21297,0.03071
5388.14143,0.02734
5390.06990,0.05042
5391.99837,0.07868
5393.92684,0.09131
5395.85531,0.08190
5397.78378,0.07752
5399.71225,0.08121
5401.64071,0.06640
5403.56918,0.05243
5405.49765,0.06677
5407.42612,0.07609
5409.35459,0.05639
5411.28306,0.04333
5413.21153,0.04921
5415.13999,0.04603
5417.06846,0.04734
5418.99693,0.06391
5420.92540,0.07588
5422.85387,0.06745
5424.78234,0.05539
5426.71081,0.05589
5428.63928,0.05302
5430.56774,0.05706
5432.49621,0.07563
5434.42468,0.07158
5436.35315,0.04345
5438.28162,0.03317
5440.21009,0.04563
5442.13856,0.06102
5444.06702,0.08192
5445.99549,0.10250
5447.92396,0.09150
5449.85243,0.06648
5451.78090,0.06775
5453.70937,0.08194
5455.63784,0.08909
5457.56631,0.08251
5459.49477,0.05827
5461.42324,0.04135
5463.35171,0.04611
5465.28018,0.05284
5467.20865,0.05120
5469.13712,0.05880
5471.06559,0.08086
5472.99405,0.09424
5474.92252,0.10018
5476.85099,0.09826
5478.77946,0.08449
5480.70793,0.08574
5482.63640,0.10095
5484.56487,0.09579
5486.49334,0.06509
5488.42180,0.04009
5490.35027,0.04392
5492.27874,0.07070
5494.20721,0.09639
5496.13568,0.10319
5498.06415,0.10794
5499.99262,0.12893
5501.92108,0.12960
5503.84955,0.08196
5505.77802,0.04025
5507.70649,0.04182
5509.63496,0.04920
5511.56343,0.04704
5513.49190,0.04616
5515.42037,0.04345
5517.34883,0.04324
5519.27730,0.05429
5521.20577,0.07339
5523.13424,0.08673
5525.06271,0.08007
5526.99118,0.05512
5528.91965,0.03514
5530.84811,0.03317
5532.77658,0.03826
5534.70505,0.05811
5536.63352,0.08874
5538.56199,0.10003
5540.49046,0.09877
5542.41893,0.10160
5544.34740,0.10029
5546.27586,0.09863
5548.20433,0.10329
5550.13280,0.10772
5552.06127,0.11465
5553.98974,0.10902
5555.91821,0.08114
5557.84668,0.06748
5559.77514,0.07561
5561.70361,0.07918
5563.63208,0.07133
5565.56055,0.06831
5567.48902,0.07700
5569.41749,0.06908
5571.34596,0.05394
5573.27443,0.06638
5575.20289,0.08906
5577.13136,0.10246
5579.05983,0.11926
5580.98830,0.13288
5582.91677,0.12532
5584.84524,0.10329
5586.77371,0.08459
5588.70217,0.08809
5590.63064,0.10630
5592.55911,0.10740
5594.48758,0.09016
5596.41605,0.08181
5598.34452,0.09019
5600.27299,0.09070
5602.20145,0.07631
5604.12992,0.06732
5606.05839,0.06835
5607.98686,0.07509
5609.91533,0.08573
5611.84380,0.08238
5613.77227,0.06314
5615.70074,0.06069
5617.62920,0.07189
5619.55767,0.06675
5621.48614,0.06164
5623.41461,0.08507
5625.34308,0.11303
5627.27155,0.10985
5629.20002,0.08826
5631.12848,0.08305
5633.05695,0.09403
5634.98542,0.09364
5636.91389,0.08408
5638.84236,0.07999
5640.77083,0.07934
5642.69930,0.09301
5644.62777,0.11081
5646.55623,0.10797
5648.48470,0.09587
5650.41317,0.08167
5652.34164,0.07000
5654.27011,0.08204
5656.19858,0.10288
5658.12705,0.10952
5660.05551,0.09969
5661.98398,0.07234
5663.91245,0.04681
5665.84092,0.04800
5667.76939,0.07546
5669.69786,0.10294
5671.62633,0.10543
5673.55480,0.09310
5675.48326,0.08129
5677.41173,0.06949
5679.34020,0.06083
5681.26867,0.05573
5683.19714,0.05493
5685.12561,0.06801
5687.05408,0.08165
5688.98254,0.08246
5690.91101,0.08553
5692.83948,0.09228
5694.76795,0.10073
5696.69642,0.10873
5698.62489,0.09600
5700.55336,0.06552
5702.48183,0.05598
5704.41029,0.07846
5706.33876,0.09583
5708.26723,0.09265
5710.19570,0.08733
5712.12417,0.07924
5714.05264,0.05767
5715.98111,0.04323
5717.90957,0.04538
5719.83804,0.04999
5721.76651,0.06172
5723.69498,0.06708
5725.62345,0.05532
5727.55192,0.04706
5729.48039,0.04834
5731.40886,0.04932
5733.33732,0.04671
5735.26579,0.05093
5737.19426,0.06387
5739.12273,0.07473
5741.05120,0.10398
5742.97967,0.15384
5744.90814,0.16616
5746.83660,0.12743
5748.76507,0.08851
5750.69354,0.07073
5752.62201,0.08501
5754.55048,0.11735
5756.47895,0.10848
5758.40742,0.07058
5760.33588,0.05703
5762.26435,0.06868
5764.19282,0.08795
5766.12129,0.10324
5768.04976,0.10211
5769.97823,0.08430
5771.90670,0.05713
5773.83517,0.03535
5775.76363,0.01640
5777.69210,0.00129
5779.62057,0.02777
5781.54904,0.08425
5783.47751,0.10573
5785.40598,0.08135
5787.33445,0.06500
5789.26291,0.08549
5791.19138,0.10308
5793.11985,0.09513
5795.04832,0.09168
5796.97679,0.10217
5798.90526,0.10136
5800.83373,0.09362
5802.76220,0.09994
5804.69066,0.10789
5806.61913,0.11054
5808.54760,0.11488
5810.47607,0.11507
5812.40454,0.11498
5814.33301,0.10495
5816.26148,0.07202
5818.18994,0.04316
5820.11841,0.03725
5822.04688,0.03766
5823.97535,0.03396
5825.90382,0.03402
5827.83229,0.04398
5829.76076,0.04735
5831.68923,0.03413
5833.61769,0.03056
5835.54616,0.03963
5837.47463,0.03198
5839.40310,0.02390
5841.33157,0.05692
5843.26004,0.10932
5845.18851,0.12795
5847.11697,0.11268
5849.04544,0.08205
5850.97391,0.04802
5852.90238,0.03067
5854.83085,0.03979
5856.75932,0.06676
5858.68779,0.09174
5860.61626,0.11641
5862.54472,0.14524
5864.47319,0.16067
5866.40166,0.15106
5868.33013,0.11282
5870.25860,0.07182
5872.18707,0.06177
5874.11554,0.06996
5876.04400,0.07949
5877.97247,0.10091
5879.90094,0.12069
5881.82941,0.10994
5883.75788,0.08494
5885.68635,0.07184
5887.61482,0.07197
5889.54329,0.07819
5891.47175,0.08899
5893.40022,0.09820
5895.32869,0.08653
5897.25716,0.06493
5899.18563,0.05834
5901.11410,0.06165
5903.04257,0.06867
5904.97103,0.05931
5906.89950,0.02718
5908.82797,0.02389
5910.75644,0.05743
5912.68491,0.08288
5914.61338,0.07610
5916.54185,0.03758
5918.47032,0.01952
5920.39878,0.03668
5922.32725,0.04426
5924.25572,0.04933
5926.18419,0.07385
5928.11266,0.09949
5930.04113,0.11124
5931.96960,0.13526
5933.89806,0.16755
5935.82653,0.16089
5937.75500,0.12532
5939.68347,0.10825
5941.61194,0.12630
5943.54041,0.14735
5945.46888,0.13106
5947.39734,0.09370
5949.32581,0.08418
5951.25428,0.11003
5953.18275,0.12303
5955.11122,0.08671
5957.03969,0.03948
5958.96816,0.04084
5960.89663,0.05864
5962.82509,0.05897
5964.75356,0.07387
5966.68203,0.09936
5968.61050,0.11858
5970.53897,0.14114
5972.46744,0.14192
5974.39591,0.08004
5976.32437,-0.00123
5978.25284,-0.01681
5980.18131,0.02905
5982.10978,0.06914
5984.03825,0.08969
5985.96672,0.11010
5987.89519,0.12045
5989.82366,0.11495
5991.75212,0.10781
5993.68059,0.09985
5995.60906,0.07167
5997.53753,0.02954
5999.46600,0.01517
6001.39447,0.04801
6003.32294,0.08791
6005.25140,0.09360
6007.17987,0.09012
6009.10834,0.11289
6011.03681,0.15859
6012.96528,0.17489
6014.89375,0.13839
6016.82222,0.10061
6018.75069,0.08098
6020.67915,0.06490
6022.60762,0.07682
6024.53609,0.09794
6026.46456,0.09787
6028.39303,0.10005
6030.32150,0.08531
6032.24997,0.07407
6034.17843,0.12171
6036.10690,0.13733
6038.03537,0.08931
6039.96384,0.06296
6041.89231,0.04354
6043.82078,0.01488
6045.74925,0.03216
6047.67772,0.10136
6049.60618,0.14650
6051.53465,0.14485
6053.46312,0.14753
6055.39159,0.15743
6057.32006,0.14841
6059.24853,0.11882
6061.17700,0.08212
6063.10546,0.03928
6065.03393,0.00845
6066.96240,0.02212
6068.89087,0.05929
6070.81934,0.08368
6072.74781,0.09790
6074.67628,0.12015
6076.60475,0.13582
6078.53321,0.11017
6080.46168,0.07540
6082.39015,0.08256
6084.31862,0.11156
6086.24709,0.13134
6088.17556,0.13218
6090.10403,0.12249
6092.03249,0.12234
6093.96096,0.11894
6095.88943,0.09090
6097.81790,0.07718
6099.74637,0.11014
6101.67484,0.12227
6103.60331,0.08854
6105.53177,0.09756
6107.46024,0.14765
6109.38871,0.14994
6111.31718,0.12343
6113.24565,0.12288
6115.17412,0.13394
6117.10259,0.12954
6119.03106,0.12620
6120.95952,0.17630
6122.88799,0.23670
6124.81646,0.23399
6126.74493,0.19098
6128.67340,0.15881
6130.60187,0.13126
6132.53034,0.09497
6134.45880,0.09121
6136.38727,0.12506
6138.31574,0.13710
6140.24421,0.11352
6142.17268,0.09993
6144.10115,0.11453
6146.02962,0.12615
6147.95809,0.12322
6149.88655,0.13009
6151.81502,0.14514
6153.74349,0.11841
6155.67196,0.08369
6157.60043,0.11034
6159.52890,0.14498
6161.45737,0.13922
6163.38583,0.10650
6165.31430,0.06355
6167.24277,0.05586
6169.17124,0.06050
6171.09971,0.01926
6173.02818,-0.02369
6174.95665,-0.01837
6176.88512,-0.00209
6178.81358,0.01455
6180.74205,0.06213
6182.67052,0.12299
6184.59899,0.14386
6186.52746,0.10858
6188.45593,0.05643
6190.38440,0.03473
6192.31286,0.06080
6194.24133,0.10900
6196.16980,0.11657
6198.09827,0.07431
6200.02674,0.05324
6201.95521,0.10439
6203.88368,0.17478
6205.81215,0.16232
6207.74061,0.10044
6209.66908,0.07398
6211.59755,0.05455
6213.52602,0.01508
6215.45449,-0.01691
6217.38296,-0.03342
6219.31143,-0.01516
6221.23989,0.04101
6223.16836,0.11472
6225.09683,0.17922
6227.02530,0.18205
6228.95377,0.12937
6230.88224,0.09636
6232.81071,0.09023
6234.73918,0.06215
6236.66764,0.02141
6238.59611,0.02069
6240.52458,0.08954
6242.45305,0.18138
6244.38152,0.20861
6246.30999,0.17306
6248.23846,0.14081
6250.16692,0.11205
6252.09539,0.09705
6254.02386,0.12493
6255.95233,0.15080
6257.88080,0.15684
6259.80927,0.15394
6261.73774,0.11332
6263.66621,0.06148
6265.59467,0.07266
6267.52314,0.10927
6269.45161,0.11409
6271.38008,0.11820
6273.30855,0.11244
6275.23702,0.06562
6277.16549,0.03615
6279.09395,0.06838
6281.02242,0.10181
6282.95089,0.11845
6284.87936,0.13541
6286.80783,0.11624
6288.73630,0.07885
6290.66477,0.08022
6292.59323,0.10349
6294.52170,0.10046
6296.45017,0.07572
6298.37864,0.06946
6300.30711,0.08232
6302.23558,0.07122
6304.16405,0.06702
6306.09252,0.12862
6308.02098,0.20994
6309.94945,0.24790
6311.87792,0.21834
6313.80639,0.14019
6315.73486,0.06545
6317.66333,0.02194
6319.59180,0.03053
6321.52026,0.07227
6323.44873,0.11180
6325.37720,0.16268
6327.30567,0.22252
6329.23414,0.25220
6331.16261,0.25485
6333.09108,0.25446
6335.01955,0.22080
6336.94801,0.16967
6338.87648,0.14206
6340.80495,0.11359
6342.73342,0.10225
6344.66189,0.12607
6346.59036,0.14416
6348.51883,0.15820
6350.44729,0.17254
6352.37576,0.15577
6354.30423,0.10277
6356.23270,0.04442
6358.16117,0.01779
6360.08964,0.02067
6362.01811,0.03335
6363.94658,0.04155
6365.87504,0.03099
6367.80351,0.04268
6369.73198,0.10525
6371.66045,0.15852
6373.58892,0.16862
6375.51739,0.13524
6377.44586,0.07662
6379.37432,0.03277
6381.30279,-0.00290
6383.23126,-0.02234
6385.15973,0.00087
6387.08820,0.03890
6389.01667,0.07063
6390.94514,0.06963
6392.87361,0.00886
6394.80207,-0.04633
6396.73054,-0.01109
6398.65901,0.05151
6400.58748,0.05453
6402.51595,0.03147
6404.44442,0.04958
6406.37289,0.08763
6408.30135,0.09342
6410.22982,0.07122
6412.15829,0.03574
6414.08676,-0.01978
6416.01523,-0.05132
6417.94370,-0.00164
6419.87217,0.10252
6421.80064,0.19619
6423.72910,0.22125
6425.65757,0.17000
6427.58604,0.12984
6429.51451,0.14126
6431.44298,0.14771
6433.37145,0.08067
6435.29992,0.01160
6437.22838,0.02879
6439.15685,0.06478
6441.08532,0.06471
6443.01379,0.07553
6444.94226,0.11246
6446.87073,0.13210
6448.79920,0.11278
6450.72766,0.06364
6452.65613,0.01844
6454.58460,0.00840
6456.51307,0.03889
6458.44154,0.08679
6460.37001,0.09526
6462.29848,0.07325
6464.22695,0.09613
6466.15541,0.14796
6468.08388,0.17034
6470.01235,0.18102
6471.94082,0.18809
6473.86929,0.17474
6475.79776,0.12788
6477.72623,0.05201
6479.65469,0.03041
6481.58316,0.06667
6483.51163,0.05405
6485.44010,0.01404
6487.36857,0.04215
6489.29704,0.10915
6491.22551,0.14674
6493.15398,0.17623
6495.08244,0.19453
6497.01091,0.17827
6498.93938,0.16575
6500.86785,0.19882
6502.79632,0.24565
6504.72479,0.20837
6506.65326,0.06740
6508.58172,-0.06967
6510.51019,-0.08860
6512.43866,-0.01036
6514.36713,0.05248
6516.29560,0.06967
6518.22407,0.05857
6520.15254,0.01704
6522.08101,0.00003
6524.00947,0.05359
6525.93794,0.08019
6527.86641,0.04599
6529.79488,0.03872
6531.72335,0.04113
6533.65182,0.03478
6535.58029,0.07579
6537.50875,0.16845
6539.43722,0.23308
6541.36569,0.19473
6543.29416,0.08937
6545.22263,0.01252
6547.15110,0.01280
6549.07957,0.07943
6551.00804,0.14671
6552.93650,0.14340
6554.86497,0.07050
6556.79344,0.03245
6558.72191,0.10710
6560.65038,0.18646
6562.57885,0.16078
6564.50732,0.10679
6566.43578,0.11484
6568.36425,0.12370
6570.29272,0.09798
6572.22119,0.07200
6574.14966,0.03376
6576.07813,-0.01255
6578.00660,-0.00047
6579.93507,0.11893
6581.86353,0.25459
6583.79200,0.23884
6585.72047,0.09610
6587.64894,-0.00330
6589.57741,0.01077
6591.50588,0.05262
6593.43435,0.02739
6595.36281,-0.01405
6597.29128,-0.01215
6599.21975,0.02500
6601.14822,0.13834
6603.07669,0.23906
6605.00516,0.18512
6606.93363,0.06488
6608.86210,0.02367
6610.79056,0.05872
6612.71903,0.13414
6614.64750,0.22649
6616.57597,0.27519
6618.50444,0.25722
6620.43291,0.21736
6622.36138,0.16306
6624.28984,0.10739
6626.21831,0.09528
6628.14678,0.10026
6630.07525,0.07506
6632.00372,0.03885
6633.93219,-0.00223
6635.86066,-0.03309
6637.78912,-0.01941
6639.71759,0.00528
6641.64606,0.06031
6643.57453,0.15090
6645.50300,0.15008
6647.43147,0.10263
6649.35994,0.13661
6651.28841,0.13656
6653.21687,0.05699
6655.14534,-0.00782
6657.07381,-0.05007
6659.00228,-0.08367
6660.93075,-0.07567
6662.85922,-0.02498
6664.78769,0.05058
6666.71615,0.09690
6668.64462,0.05708
6670.57309,-0.00018
6672.50156,0.00475
6674.43003,0.01037
6676.35850,-0.00694
6678.28697,0.00567
6680.21544,0.02273
6682.14390,0.02898
6684.07237,0.07593
6686.00084,0.14465
6687.92931,0.16214
6689.85778,0.10634
6691.78625,0.02252
6693.71472,-0.03605
6695.64318,-0.06914
6697.57165,-0.08492
6699.50012,-0.02970
6701.42859,0.08253
6703.35706,0.14693
6705.28553,0.15706
6707.21400,0.12689
6709.14247,0.05057
6711.07093,0.00781
6712.99940,0.00080
6714.92787,-0.00676
6716.85634,0.02807
6718.78481,0.08256
6720.71328,0.09032
6722.64175,0.10358
6724.57021,0.14561
6726.49868,0.13564
6728.42715,0.08328
6730.35562,0.07296
6732.28409,0.11231
6734.21256,0.14980
6736.14103,0.16437
6738.06950,0.18428
6739.99796,0.20971
6741.92643,0.22987
6743.85490,0.24901
6745.78337,0.20580
6747.71184,0.10495
6749.64031,0.04864
6751.56878,0.06742
6753.49724,0.05857
6755.42571,-0.03069
6757.35418,-0.04268
6759.28265,0.07962
6761.21112,0.15532
6763.13959,0.12044
6765.06806,0.08393
6766.99653,0.05357
6768.92499,0.01159
6770.85346,-0.00859
6772.78193,-0.02691
6774.71040,-0.01614
6776.63887,0.06003
6778.56734,0.09575
6780.49581,0.08135
6782.42427,0.08132
6784.35274,0.09848
6786.28121,0.09374
6788.20968,0.03711
6790.13815,-0.01066
6792.06662,-0.01659
6793.99509,-0.03963
6795.92355,-0.03337
6797.85202,0.01850
6799.78049,0.01393
6801.70896,-0.08936
6803.63743,-0.12792
6805.56590,0.03920
6807.49437,0.22136
6809.42284,0.29613
6811.35130,0.31252
6813.27977,0.27489
6815.20824,0.19223
6817.13671,0.12383
6819.06518,0.12990
6820.99365,0.17538
6822.92212,0.13919
6824.85058,0.00971
6826.77905,-0.03329
6828.70752,0.06594
6830.63599,0.14081
6832.56446,0.11068
6834.49293,0.04714
6836.42140,-0.01941
6838.34987,-0.02321
6840.27833,0.04169
6842.20680,0.07230
6844.13527,0.05247
6846.06374,0.04091
6847.99221,0.03214
6849.92068,0.01177
6851.84915,0.03023
6853.77761,0.09332
6855.70608,0.14863
6857.63455,0.18918
6859.56302,0.23645
6861.49149,0.27007
6863.41996,0.25397
6865.34843,0.18409
6867.27690,0.14618
6869.20536,0.21226
6871.13383,0.31853
6873.06230,0.35521
6874.99077,0.25873
6876.91924,0.10901
6878.84771,0.04594
6880.77618,0.07427
6882.70464,0.05250
6884.63311,0.01483
6886.56158,0.05971
6888.49005,0.10824
6890.41852,0.05506
6892.34699,-0.01846
6894.27546,-0.01730
6896.20393,0.03830
6898.13239,0.13372
6900.06086,0.20924
6901.98933,0.19663
6903.91780,0.13749
6905.84627,0.11869
6907.77474,0.08435
6909.70321,0.03672
6911.63167,0.07849
6913.56014,0.07423
6915.48861,-0.04943
6917.41708,-0.09037
6919.34555,-0.00856
6921.27402,0.03376
6923.20249,-0.00995
6925.13096,-0.04288
6927.05942,0.00273
6928.98789,0.07081
6930.91636,0.09892
6932.84483,0.11310
6934.77330,0.11094
6936.70177,0.08802
6938.63024,0.10598
6940.55870,0.21114
6942.48717,0.28062
6944.41564,0.23265
6946.34411,0.17081
6948.27258,0.12991
6950.20105,0.05490
6952.12952,0.03878
6954.05799,0.13407
6955.98645,0.18937
6957.91492,0.12807
6959.84339,0.09462
6961.77186,0.17287
6963.70033,0.23901
6965.62880,0.22424
6967.55727,0.20714
6969.48573,0.22787
6971.41420,0.20640
6973.34267,0.08535
6975.27114,-0.07505
6977.19961,-0.15313
6979.12808,-0.08879
6981.05655,0.05159
6982.98501,0.19126
6984.91348,0.25245
6986.84195,0.15681
6988.77042,0.01923
6990.69889,-0.00277
6992.62736,0.04833
6994.55583,0.11004
6996.48430,0.18810
6998.41276,0.25701
7000.34123,0.24389
7002.26970,0.13328
7004.19817,0.04047
7006.12664,0.03393
7008.05511,0.04111
7009.98358,0.05537
7011.91204,0.12222
7013.84051,0.17250
7015.76898,0.15721
7017.69745,0.14938
7019.62592,0.16693
7021.55439,0.15644
7023.48286,0.11063
7025.41133,0.07587
7027.33979,0.08320
7029.26826,0.10715
7031.19673,0.05081
7033.12520,-0.10808
7035.05367,-0.22124
7036.98214,-0.16299
7038.91061,-0.03158
7040.83907,0.04992
7042.76754,0.03073
7044.69601,0.02133
7046.62448,0.07850
7048.55295,0.09709
7050.48142,0.08250
7052.40989,0.09671
7054.33836,0.14706
7056.26682,0.18945
7058.19529,0.10876
7060.12376,-0.04060
7062.05223,-0.06333
7063.98070,0.04696
7065.90917,0.13618
7067.83764,0.11706
7069.76610,-0.00028
7071.69457,-0.05868
7073.62304,0.04513
7075.55151,0.11131
7077.47998,0.05486
7079.40845,0.00006
7081.33692,0.02404
7083.26539,0.08087
7085.19385,0.11015
7087.12232,0.06486
7089.05079,-0.03620
7090.97926,-0.07564
7092.90773,0.03006
7094.83620,0.17900
7096.76467,0.17250
7098.69313,0.04587
7100.62160,-0.01892
7102.55007,-0.01812
7104.47854,0.04629
7106.40701,0.12656
7108.33548,0.07968
7110.26395,-0.06022
7112.19242,-0.13947
7114.12088,-0.09902
7116.04935,-0.00854
7117.97782,0.11032
7119.90629,0.22173
7121.83476,0.22325
7123.76323,0.11863
7125.69170,0.02986
7127.62016,0.02367
7129.54863,0.05000
7131.47710,0.04143
7133.40557,-0.00963
7135.33404,0.00960
7137.26251,0.12656
7139.19098,0.19712
7141.11944,0.18314
7143.04791,0.15531
7144.97638,0.10655
7146.90485,0.07817
7148.83332,0.06607
7150.76179,0.04321
7152.69026,0.01164
7154.61873,-0.06221
7156.54719,-0.09076
7158.47566,-0.07092
7160.40413,-0.06502
7162.33260,-0.01355
7164.26107,0.06659
7166.18954,0.12402
7168.11801,0.21276
7170.04647,0.25986
7171.97494,0.21283
7173.90341,0.22037
7175.83188,0.23422
7177.76035,0.19716
7179.68882,0.22066
7181.61729,0.30396
7183.54576,0.35395
7185.47422,0.30237
7187.40269,0.18487
7189.33116,0.05947
7191.25963,0.02385
7193.18810,0.05983
7195.11657,0.02246
7197.04504,-0.01534
7198.97350,0.04767
7200.90197,0.14302
7202.83044,0.17540
7204.75891,0.04949
7206.68738,-0.06492
7208.61585,-0.01639
7210.54432,-0.00170
7212.47279,-0.02716
7214.40125,0.11203
7216.32972,0.36857
7218.25819,0.34059
7220.18666,0.08986
7222.11513,-0.03307
7224.04360,-0.04565
7225.97207,0.03321
7227.90053,0.08899
7229.82900,-0.02215
7231.75747,-0.14479
7233.68594,-0.05308
7235.61441,0.14340
7237.54288,0.27710
7239.47135,0.24073
7241.39982,0.06936
7243.32828,-0.07335
7245.25675,-0.12658
7247.18522,-0.16827
7249.11369,-0.18994
7251.04216,-0.24337
7252.97063,-0.31147
7254.89910,-0.17766
7256.82756,0.05643
7258.75603,0.25188
7260.68450,0.35170
7262.61297,0.25293
7264.54144,0.04750
7266.46991,-0.04827
7268.39838,-0.03528
7270.32685,0.00559
7272.25531,0.07363
7274.18378,0.15998
7276.11225,0.16141
7278.04072,0.01654
7279.96919,-0.20700
7281.89766,-0.29284
7283.82613,-0.24533
7285.75459,-0.09297
7287.68306,0.08470
7289.61153,0.13235
7291.54000,0.11291
7293.46847,0.14236
7295.39694,0.23154
7297.32541,0.29905
7299.25387,0.20948
7301.18234,0.06993
7303.11081,0.06986
7305.03928,0.18160
7306.96775,0.27567
7308.89622,0.33653
7310.82469,0.32928
7312.75316,0.22671
7314.68162,0.07909
7316.61009,-0.13150
7318.53856,-0.30597
7320.46703,-0.27342
7322.39550,-0.10931
7324.32397,0.01511
7326.25244,0.13593
7328.18090,0.34438
7330.10937,0.43736
7332.03784,0.28814
7333.96631,0.14215
7335.89478,0.07767
7337.82325,0.05758
7339.75172,0.18371
7341.68019,0.34295
7343.60865,0.32820
7345.53712,0.21580
7347.46559,0.05493
7349.39406,0.00737
7351.32253,0.07669
7353.25100,0.06370
7355.17947,-0.01495
7357.10793,-0.05972
7359.03640,-0.09017
7360.96487,-0.16912
7362.89334,-0.19400
7364.82181,-0.07524
7366.75028,-0.00584
7368.67875,-0.08277
7370.60722,-0.11571
7372.53568,-0.05832
7374.46415,0.04864
7376.39262,0.19420
7378.32109,0.16182
7380.24956,-0.03803
7382.17803,-0.13281
7384.10650,-0.01778
7386.03496,0.13126
7387.96343,0.16788
7389.89190,0.15413
7391.82037,0.19778
7393.74884,0.21051
7395.67731,0.13000
7397.60578,0.11797
7399.53425,0.20086
7401.46271,0.23355
7403.39118,0.21080
7405.31965,0.16771
7407.24812,0.09703
7409.17659,0.03428
7411.10506,-0.01430
7413.03353,0.01180
7414.96199,0.07011
7416.89046,0.02906
7418.81893,-0.04018
7420.74740,-0.03045
7422.67587,-0.03230
7424.60434,-0.06555
7426.53281,-0.06806
7428.46128,0.01441
7430.38974,0.11668
7432.31821,0.13184
7434.24668,0.07711
7436.17515,0.06541
7438.10362,0.15654
7440.03209,0.16507
7441.96056,-0.00480
7443.88902,-0.19254
7445.81749,-0.18380
7447.74596,0.05072
7449.67443,0.25870
7451.60290,0.20396
7453.53137,0.14773
7455.45984,0.25204
7457.38831,0.27490
7459.31677,0.11063
7461.24524,0.00320
7463.17371,0.02899
7465.10218,-0.01118
7467.03065,-0.06565
7468.95912,-0.03481
7470.88759,0.06758
7472.81605,0.16844
7474.74452,0.13491
7476.67299,0.11993
7478.60146,0.32676
7480.52993,0.47722
7482.45840,0.33943
7484.38687,0.12916
7486.31533,-0.01883
7488.24380,-0.08432
7490.17227,-0.12720
7492.10074,-0.14642
7494.02921,-0.03880
7495.95768,0.14034
7497.88615,0.35245
