399.19301,1.30027
401.12148,1.09897
403.04995,0.68828
404.97842,0.42471
406.90689,0.59441
408.83536,1.10068
410.76382,1.44156
412.69229,1.79033
414.62076,3.36689
416.54923,6.04862
418.47770,7.17242
420.40617,4.16961
422.33464,1.21985
424.26311,0.14366
426.19157,0.26595
428.12004,0.46612
430.04851,0.32038
431.97698,0.20652
433.90545,0.25628
435.83392,0.16966
437.76239,-0.03537
439.69085,-0.16791
441.61932,-0.17964
443.54779,-0.23886
445.47626,-0.37582
447.40473,-0.39480
449.33320,-0.24511
451.26167,-0.09647
453.19013,-0.05800
455.11860,-0.14630
457.04707,-0.28535
458.97554,-0.28362
460.90401,-0.18338
462.83248,-0.13357
464.76095,-0.07264
466.68942,0.02435
468.61788,0.07246
470.54635,0.01887
472.47482,-0.42903
474.40329,-1.05258
476.33176,-0.64131
478.26023,-0.03412
480.18870,0.19860
482.11716,0.20185
484.04563,0.14791
485.97410,0.16613
487.90257,0.22655
489.83104,0.18272
491.75951,0.05066
493.68798,-0.01286
495.61645,0.04362
497.54491,0.09556
499.47338,0.06963
501.40185,0.05065
503.33032,0.08573
505.25879,0.14133
507.18726,0.18644
509.11573,0.17639
511.04419,0.13311
512.97266,0.09472
514.90113,0.05935
516.82960,0.05437
518.75807,0.10095
520.68654,0.14137
522.61501,0.14418
524.54348,0.14330
526.47194,0.14332
528.40041,0.10672
530.32888,0.06488
532.25735,0.07070
534.18582,0.10803
536.11429,0.14148
538.04276,0.16433
539.97122,0.17836
541.89969,0.17897
543.82816,0.16852
545.75663,0.17003
547.68510,0.16369
549.61357,0.14017
551.54204,0.14362
553.47051,0.14428
555.39897,0.10757
557.32744,0.06037
559.25591,0.04396
561.18438,0.09222
563.11285,0.17100
565.04132,0.20456
566.96979,0.17819
568.89825,0.12818
570.82672,0.07422
572.75519,0.06164
574.68366,0.11298
576.61213,0.15694
578.54060,0.16549
580.46907,0.16306
582.39754,0.15367
584.32600,0.14145
586.25447,0.12797
588.18294,0.10868
590.11141,0.09339
592.03988,0.09524
593.96835,0.11441
595.89682,0.13948
597.82528,0.13881
599.75375,0.11566
601.68222,0.11518
603.61069,0.13580
605.53916,0.13388
607.46763,0.11491
609.39610,0.10541
611.32456,0.09351
613.25303,0.07889
615.18150,0.07287
617.10997,0.07394
619.03844,0.09063
620.96691,0.11564
622.89538,0.12602
624.82385,0.12812
626.75231,0.13429
628.68078,0.13447
630.60925,0.12556
632.53772,0.11427
634.46619,0.11075
636.39466,0.12706
638.32313,0.15107
640.25159,0.16275
642.18006,0.16091
644.10853,0.15016
646.03700,0.14173
647.96547,0.15012
649.89394,0.16187
651.82241,0.15456
653.75088,0.14205
655.67934,0.14264
657.60781,0.14538
659.53628,0.15016
661.46475,0.15996
663.39322,0.15742
665.32169,0.14682
667.25016,0.15382
669.17862,0.17349
671.10709,0.15556
673.03556,0.12743
674.96403,0.12092
676.89250,0.12941
678.82097,0.13341
680.74944,0.13805
682.67791,0.14058
684.60637,0.12710
686.53484,0.11685
688.46331,0.12705
690.39178,0.13882
692.32025,0.13238
694.24872,0.11670
696.17719,0.11446
698.10565,0.12229
700.03412,0.13159
701.96259,0.14859
703.89106,0.16876
705.81953,0.18023
707.74800,0.17574
709.67647,0.14367
711.60494,0.10217
713.53340,0.10124
715.46187,0.13142
717.39034,0.14332
719.31881,0.13478
721.24728,0.13345
723.17575,0.14785
725.10422,0.15816
727.03268,0.15762
728.96115,0.15304
730.88962,0.14358
732.81809,0.13916
734.74656,0.14852
736.67503,0.15833
738.60350,0.15301
740.53197,0.13866
742.46043,0.13407
744.38890,0.13759
746.31737,0.13804
748.24584,0.13897
750.17431,0.13774
752.10278,0.13002
754.03125,0.12955
755.95971,0.13872
757.88818,0.14062
759.81665,0.13213
761.74512,0.12846
763.67359,0.13698
765.60206,0.14327
767.53053,0.13929
769.45900,0.14342
771.38746,0.15992
773.31593,0.16596
775.24440,0.15633
777.17287,0.14659
779.10134,0.14418
781.02981,0.14066
782.95828,0.13355
784.88674,0.13487
786.81521,0.14124
788.74368,0.14111
790.67215,0.13891
792.60062,0.13922
794.52909,0.14167
796.45756,0.14654
798.38602,0.15043
800.31449,0.15034
802.24296,0.14890
804.17143,0.15018
806.09990,0.15101
808.02837,0.14585
809.95684,0.14142
811.88531,0.13868
813.81377,0.12861
815.74224,0.12268
817.67071,0.13409
819.59918,0.15123
821.52765,0.15947
823.45612,0.15894
825.38459,0.15676
827.31305,0.15544
829.24152,0.15279
831.16999,0.14324
833.09846,0.12916
835.02693,0.12566
836.95540,0.13366
838.88387,0.14153
840.81234,0.14764
842.74080,0.15273
844.66927,0.15579
846.59774,0.15940
848.52621,0.15949
850.45468,0.14441
852.38315,0.12310
854.31162,0.11827
856.24008,0.13024
858.16855,0.14814
860.09702,0.16479
862.02549,0.16754
863.95396,0.15244
865.88243,0.13622
867.81090,0.14423
869.73937,0.17941
871.66783,0.19948
873.59630,0.18300
875.52477,0.16551
877.45324,0.16180
879.38171,0.15750
881.31018,0.15129
883.23865,0.14627
885.16711,0.14682
887.09558,0.15412
889.02405,0.15841
890.95252,0.15758
892.88099,0.15845
894.80946,0.15772
896.73793,0.15332
898.66640,0.15136
900.59486,0.15080
902.52333,0.15166
904.45180,0.15838
906.38027,0.16764
908.30874,0.17179
910.23721,0.16786
912.16568,0.16150
914.09414,0.15948
916.02261,0.15759
917.95108,0.14810
919.87955,0.13552
921.80802,0.13273
923.73649,0.14069
925.66496,0.14593
927.59343,0.14385
929.52189,0.14355
931.45036,0.14893
933.37883,0.15525
935.30730,0.15905
937.23577,0.16495
939.16424,0.17365
941.09271,0.17204
943.02117,0.16033
944.94964,0.15190
946.87811,0.14833
948.80658,0.14856
950.73505,0.14884
952.66352,0.14467
954.59199,0.14378
956.52045,0.15128
958.44892,0.15653
960.37739,0.15403
962.30586,0.15416
964.23433,0.15825
966.16280,0.16016
968.09127,0.16104
970.01974,0.15644
971.94820,0.14706
973.87667,0.14613
975.80514,0.15379
977.73361,0.15512
979.66208,0.14726
981.59055,0.14489
983.51902,0.15132
985.44748,0.15701
987.37595,0.16307
989.30442,0.16978
991.23289,0.17007
993.16136,0.16905
995.08983,0.17199
997.01830,0.17203
998.94677,0.16900
1000.87523,0.16913
1002.80370,0.17308
1004.73217,0.17698
1006.66064,0.17868
1008.58911,0.18032
1010.51758,0.17830
1012.44605,0.16793
1014.37451,0.16294
1016.30298,0.16819
1018.23145,0.16436
1020.15992,0.15529
1022.08839,0.15651
1024.01686,0.16155
1025.94533,0.16289
1027.87380,0.15823
1029.80226,0.15252
1031.73073,0.15383
1033.65920,0.16217
1035.58767,0.17029
1037.51614,0.16734
1039.44461,0.15822
1041.37308,0.15467
1043.30154,0.15799
1045.23001,0.16657
1047.15848,0.17515
1049.08695,0.18073
1051.01542,0.18358
1052.94389,0.17812
1054.87236,0.16629
1056.80083,0.16074
1058.72929,0.16661
1060.65776,0.17661
1062.58623,0.18018
1064.51470,0.17796
1066.44317,0.17532
1068.37164,0.17190
1070.30011,0.17430
1072.22857,0.18550
1074.15704,0.19340
1076.08551,0.18928
1078.01398,0.17904
1079.94245,0.17622
1081.87092,0.18092
1083.79939,0.18010
1085.72786,0.17168
1087.65632,0.16374
1089.58479,0.15813
1091.51326,0.15435
1093.44173,0.15552
1095.37020,0.15875
1097.29867,0.16103
1099.22714,0.16708
1101.15560,0.17228
1103.08407,0.17180
1105.01254,0.17420
1106.94101,0.18128
1108.86948,0.18516
1110.79795,0.18315
1112.72642,0.18206
1114.65489,0.18534
1116.58335,0.18789
1118.51182,0.18388
1120.44029,0.17410
1122.36876,0.17015
1124.29723,0.17521
1126.22570,0.17785
1128.15417,0.17385
1130.08263,0.17159
1132.01110,0.17575
1133.93957,0.17907
1135.86804,0.17808
1137.79651,0.17533
1139.72498,0.16966
1141.65345,0.16376
1143.58191,0.16362
1145.51038,0.16804
1147.43885,0.16856
1149.36732,0.16393
1151.29579,0.16211
1153.22426,0.16401
1155.15273,0.16722
1157.08120,0.17263
1159.00966,0.17669
1160.93813,0.17617
1162.86660,0.17624
1164.79507,0.17946
1166.72354,0.17891
1168.65201,0.17311
1170.58048,0.16853
1172.50894,0.16719
1174.43741,0.16934
1176.36588,0.17442
1178.29435,0.17759
1180.22282,0.17714
1182.15129,0.17395
1184.07976,0.17133
1186.00823,0.17486
1187.93669,0.17740
1189.86516,0.17117
1191.79363,0.16500
1193.72210,0.16351
1195.65057,0.16357
1197.57904,0.16533
1199.50751,0.16774
1201.43597,0.17033
1203.36444,0.17358
1205.29291,0.17520
1207.22138,0.17450
1209.14985,0.17497
1211.07832,0.17842
1213.00679,0.18108
1214.93526,0.17864
1216.86372,0.17255
1218.79219,0.16800
1220.72066,0.16687
1222.64913,0.16785
1224.57760,0.17063
1226.50607,0.17514
1228.43454,0.17845
1230.36300,0.17817
1232.29147,0.17669
1234.21994,0.17628
1236.14841,0.17818
1238.07688,0.18174
1240.00535,0.18216
1241.93382,0.17878
1243.86229,0.17649
1245.79075,0.17667
1247.71922,0.17709
1249.64769,0.17593
1251.57616,0.17287
1253.50463,0.17029
1255.43310,0.17156
1257.36157,0.17519
1259.29003,0.17651
1261.21850,0.17594
1263.14697,0.17719
1265.07544,0.18019
1267.00391,0.17979
1268.93238,0.17500
1270.86085,0.17491
1272.78932,0.18089
1274.71778,0.18436
1276.64625,0.18392
1278.57472,0.18185
1280.50319,0.17885
1282.43166,0.17775
1284.36013,0.18050
1286.28860,0.18432
1288.21706,0.18595
1290.14553,0.18538
1292.07400,0.18312
1294.00247,0.17960
1295.93094,0.17646
1297.85941,0.17270
1299.78788,0.16695
1301.71634,0.16184
1303.64481,0.15809
1305.57328,0.16054
1307.50175,0.17252
1309.43022,0.18196
1311.35869,0.18398
1313.28716,0.18568
1315.21563,0.18653
1317.14409,0.18361
1319.07256,0.17848
1321.00103,0.17640
1322.92950,0.18032
1324.85797,0.18153
1326.78644,0.17672
1328.71491,0.17553
1330.64337,0.17739
1332.57184,0.17772
1334.50031,0.17750
1336.42878,0.17666
1338.35725,0.17839
1340.28572,0.17934
1342.21419,0.17483
1344.14266,0.17252
1346.07112,0.17542
1347.99959,0.17901
1349.92806,0.17969
1351.85653,0.17820
1353.78500,0.17685
1355.71347,0.17602
1357.64194,0.17537
1359.57040,0.17652
1361.49887,0.18224
1363.42734,0.18778
1365.35581,0.18651
1367.28428,0.18417
1369.21275,0.18534
1371.14122,0.18770
1373.06969,0.19052
1374.99815,0.19275
1376.92662,0.19095
1378.85509,0.18861
1380.78356,0.18873
1382.71203,0.18804
1384.64050,0.18685
1386.56897,0.18671
1388.49743,0.18529
1390.42590,0.18498
1392.35437,0.18851
1394.28284,0.19389
1396.21131,0.19578
1398.13978,0.19099
1400.06825,0.18432
1401.99672,0.18309
1403.92518,0.18885
1405.85365,0.19497
1407.78212,0.19359
1409.71059,0.18865
1411.63906,0.18706
1413.56753,0.18917
1415.49600,0.19301
1417.42446,0.20060
1419.35293,0.20968
1421.28140,0.21032
1423.20987,0.20268
1425.13834,0.19331
1427.06681,0.19219
1428.99528,0.19809
1430.92375,0.19938
1432.85221,0.19670
1434.78068,0.19886
1436.70915,0.20101
1438.63762,0.19699
1440.56609,0.19345
1442.49456,0.19234
1444.42303,0.19537
1446.35149,0.20122
1448.27996,0.20273
1450.20843,0.19780
1452.13690,0.19321
1454.06537,0.19514
1455.99384,0.20682
1457.92231,0.21898
1459.85077,0.21223
1461.77924,0.20345
1463.70771,0.20226
1465.63618,0.20263
1467.56465,0.19897
1469.49312,0.19785
1471.42159,0.20316
1473.35006,0.21034
1475.27852,0.21162
1477.20699,0.20732
1479.13546,0.20059
1481.06393,0.19599
1482.99240,0.19505
1484.92087,0.19792
1486.84934,0.20520
1488.77780,0.21202
1490.70627,0.20883
1492.63474,0.20333
1494.56321,0.20361
1496.49168,0.20722
1498.42015,0.21011
1500.34862,0.21009
1502.27709,0.20905
1504.20555,0.21319
1506.13402,0.22950
1508.06249,0.23838
1509.99096,0.22920
1511.91943,0.22117
1513.84790,0.21744
1515.77637,0.22023
1517.70483,0.22509
1519.63330,0.22903
1521.56177,0.23161
1523.49024,0.22632
1525.41871,0.22134
1527.34718,0.21843
1529.27565,0.21522
1531.20412,0.21577
1533.13258,0.21813
1535.06105,0.21665
1536.98952,0.21942
1538.91799,0.23011
1540.84646,0.23551
1542.77493,0.23313
1544.70340,0.22824
1546.63186,0.21910
1548.56033,0.21258
1550.48880,0.21008
1552.41727,0.20911
1554.34574,0.21260
1556.27421,0.22823
1558.20268,0.25542
1560.13115,0.24444
1562.05961,0.21793
1563.98808,0.20588
1565.91655,0.20082
1567.84502,0.20250
1569.77349,0.20780
1571.70196,0.20612
1573.63043,0.20335
1575.55889,0.20407
1577.48736,0.20005
1579.41583,0.19140
1581.34430,0.18507
1583.27277,0.18360
1585.20124,0.18561
1587.12971,0.18725
1589.05818,0.18807
1590.98664,0.19002
1592.91511,0.19296
1594.84358,0.19420
1596.77205,0.19341
1598.70052,0.19410
1600.62899,0.19594
1602.55746,0.19588
1604.48592,0.19596
1606.41439,0.19810
1608.34286,0.19756
1610.27133,0.19395
1612.19980,0.19536
1614.12827,0.20462
1616.05674,0.21549
1617.98521,0.21452
1619.91367,0.20964
1621.84214,0.21313
1623.77061,0.21990
1625.69908,0.22066
1627.62755,0.21769
1629.55602,0.21312
1631.48449,0.21179
1633.41295,0.22124
1635.34142,0.23703
1637.26989,0.23078
1639.19836,0.21537
1641.12683,0.21051
1643.05530,0.21421
1644.98377,0.22427
1646.91223,0.23573
1648.84070,0.23425
1650.76917,0.23080
1652.69764,0.23413
1654.62611,0.22907
1656.55458,0.21785
1658.48305,0.20751
1660.41152,0.19391
1662.33998,0.18079
1664.26845,0.18441
1666.19692,0.20261
1668.12539,0.22131
1670.05386,0.22728
1671.98233,0.22225
1673.91080,0.21990
1675.83926,0.21768
1677.76773,0.21436
1679.69620,0.21546
1681.62467,0.22403
1683.55314,0.23803
1685.48161,0.23852
1687.41008,0.22912
1689.33855,0.22174
1691.26701,0.21478
1693.19548,0.21284
1695.12395,0.21959
1697.05242,0.22776
1698.98089,0.22774
1700.90936,0.21985
1702.83783,0.21443
1704.76629,0.21375
1706.69476,0.21031
1708.62323,0.20552
1710.55170,0.20399
1712.48017,0.20438
1714.40864,0.20745
1716.33711,0.21449
1718.26558,0.21630
1720.19404,0.21154
1722.12251,0.20869
1724.05098,0.20695
1725.97945,0.20558
1727.90792,0.20640
1729.83639,0.20777
1731.76486,0.20928
1733.69332,0.21082
1735.62179,0.20721
1737.55026,0.20379
1739.47873,0.20552
1741.40720,0.21047
1743.33567,0.21329
1745.26414,0.21381
1747.19261,0.21624
1749.12107,0.22078
1751.04954,0.22050
1752.97801,0.21573
1754.90648,0.21077
1756.83495,0.20413
1758.76342,0.19947
1760.69189,0.20192
1762.62035,0.20464
1764.54882,0.20328
1766.47729,0.20611
1768.40576,0.21447
1770.33423,0.22223
1772.26270,0.22518
1774.19117,0.22043
1776.11964,0.21224
1778.04810,0.20541
1779.97657,0.20178
1781.90504,0.20073
1783.83351,0.20076
1785.76198,0.20013
1787.69045,0.19995
1789.61892,0.20344
1791.54738,0.21044
1793.47585,0.21474
1795.40432,0.21313
1797.33279,0.21173
1799.26126,0.21174
1801.18973,0.20841
1803.11820,0.20471
1805.04666,0.20604
1806.97513,0.20902
1808.90360,0.20939
1810.83207,0.20765
1812.76054,0.20609
1814.68901,0.20564
1816.61748,0.20836
1818.54595,0.21559
1820.47441,0.22145
1822.40288,0.22138
1824.33135,0.21533
1826.25982,0.20778
1828.18829,0.20915
1830.11676,0.21541
1832.04523,0.21358
1833.97369,0.20844
1835.90216,0.20628
1837.83063,0.20502
1839.75910,0.20552
1841.68757,0.21140
1843.61604,0.21712
1845.54451,0.21439
1847.47298,0.20854
1849.40144,0.20300
1851.32991,0.19816
1853.25838,0.19724
1855.18685,0.19949
1857.11532,0.20145
1859.04379,0.20305
1860.97226,0.20389
1862.90072,0.20289
1864.82919,0.20439
1866.75766,0.21151
1868.68613,0.21646
1870.61460,0.21287
1872.54307,0.20910
1874.47154,0.20810
1876.40001,0.20654
1878.32847,0.20474
1880.25694,0.20433
1882.18541,0.20311
1884.11388,0.19976
1886.04235,0.19742
1887.97082,0.19949
1889.89929,0.20366
1891.82775,0.20449
1893.75622,0.20372
1895.68469,0.20377
1897.61316,0.20407
1899.54163,0.20476
1901.47010,0.20389
1903.39857,0.20248
1905.32704,0.20343
1907.25550,0.20560
1909.18397,0.20730
1911.11244,0.20668
1913.04091,0.20487
1914.96938,0.20539
1916.89785,0.20822
1918.82632,0.20901
1920.75478,0.20747
1922.68325,0.20769
1924.61172,0.20764
1926.54019,0.20499
1928.46866,0.20270
1930.39713,0.20357
1932.32560,0.20521
1934.25407,0.20416
1936.18253,0.20273
1938.11100,0.20184
1940.03947,0.20155
1941.96794,0.20411
1943.89641,0.20665
1945.82488,0.20681
1947.75335,0.20636
1949.68181,0.20388
1951.61028,0.19959
1953.53875,0.19859
1955.46722,0.20202
1957.39569,0.20525
1959.32416,0.20549
1961.25263,0.20331
1963.18110,0.20109
1965.10956,0.20121
1967.03803,0.20273
1968.96650,0.20424
1970.89497,0.20436
1972.82344,0.20136
1974.75191,0.19989
1976.68038,0.20410
1978.60884,0.20855
1980.53731,0.20808
1982.46578,0.20428
1984.39425,0.20169
1986.32272,0.20179
1988.25119,0.20268
1990.17966,0.20455
1992.10812,0.20628
1994.03659,0.20574
1995.96506,0.20560
1997.89353,0.20633
1999.82200,0.20591
2001.75047,0.20384
2003.67894,0.20097
2005.60741,0.20034
2007.53587,0.20280
2009.46434,0.20610
2011.39281,0.20809
2013.32128,0.20790
2015.24975,0.20727
2017.17822,0.20653
2019.10669,0.20554
2021.03515,0.20557
2022.96362,0.20478
2024.89209,0.20274
2026.82056,0.20181
2028.74903,0.20209
2030.67750,0.20242
2032.60597,0.20120
2034.53444,0.20010
2036.46290,0.20171
2038.39137,0.20355
2040.31984,0.20433
2042.24831,0.20583
2044.17678,0.20718
2046.10525,0.20661
2048.03372,0.20504
2049.96218,0.20419
2051.89065,0.20453
2053.81912,0.20612
2055.74759,0.20771
2057.67606,0.20611
2059.60453,0.20143
2061.53300,0.20002
2063.46147,0.20440
2065.38993,0.20756
2067.31840,0.20590
2069.24687,0.20419
2071.17534,0.20431
2073.10381,0.20353
2075.03228,0.20131
2076.96075,0.20002
2078.88921,0.20212
2080.81768,0.20649
2082.74615,0.20902
2084.67462,0.20926
2086.60309,0.20954
2088.53156,0.20926
2090.46003,0.20752
2092.38850,0.20651
2094.31696,0.20659
2096.24543,0.20625
2098.17390,0.20637
2100.10237,0.20665
2102.03084,0.20654
2103.95931,0.20694
2105.88778,0.20722
2107.81624,0.20705
2109.74471,0.20642
2111.67318,0.20433
2113.60165,0.20222
2115.53012,0.20245
2117.45859,0.20318
2119.38706,0.20200
2121.31553,0.20009
2123.24399,0.19966
2125.17246,0.20173
2127.10093,0.20495
2129.02940,0.20582
2130.95787,0.20400
2132.88634,0.20369
2134.81481,0.20185
2136.74327,0.19468
2138.67174,0.19379
2140.60021,0.20252
2142.52868,0.20691
2144.45715,0.20432
2146.38562,0.20194
2148.31409,0.20343
2150.24255,0.20796
2152.17102,0.21019
2154.09949,0.20749
2156.02796,0.20380
2157.95643,0.20499
2159.88490,0.20874
2161.81337,0.20790
2163.74184,0.20526
2165.67030,0.20580
2167.59877,0.20603
2169.52724,0.20454
2171.45571,0.20497
2173.38418,0.20670
2175.31265,0.20674
2177.24112,0.20644
2179.16958,0.20780
2181.09805,0.20837
2183.02652,0.20739
2184.95499,0.20802
2186.88346,0.20947
2188.81193,0.20917
2190.74040,0.20731
2192.66887,0.20607
2194.59733,0.20682
2196.52580,0.20831
2198.45427,0.20941
2200.38274,0.20836
2202.31121,0.20492
2204.23968,0.20362
2206.16815,0.20584
2208.09661,0.20772
2210.02508,0.20767
2211.95355,0.20619
2213.88202,0.20393
2215.81049,0.20193
2217.73896,0.20143
2219.66743,0.20386
2221.59590,0.20699
2223.52436,0.20716
2225.45283,0.20514
2227.38130,0.20301
2229.30977,0.20259
2231.23824,0.20411
2233.16671,0.20481
2235.09518,0.20466
2237.02364,0.20498
2238.95211,0.20438
2240.88058,0.20334
2242.80905,0.20340
2244.73752,0.20352
2246.66599,0.20320
2248.59446,0.20188
2250.52293,0.20012
2252.45139,0.20077
2254.37986,0.20227
2256.30833,0.20310
2258.23680,0.20481
2260.16527,0.20591
2262.09374,0.20492
2264.02221,0.20299
2265.95067,0.20199
2267.87914,0.20280
2269.80761,0.20454
2271.73608,0.20503
2273.66455,0.20320
2275.59302,0.20168
2277.52149,0.20271
2279.44996,0.20504
2281.37842,0.20570
2283.30689,0.20419
2285.23536,0.20281
2287.16383,0.20224
2289.09230,0.20154
2291.02077,0.20248
2292.94924,0.20535
2294.87770,0.20544
2296.80617,0.20335
2298.73464,0.20288
2300.66311,0.20151
2302.59158,0.19761
2304.52005,0.19441
2306.44852,0.19336
2308.37699,0.19316
2310.30545,0.19254
2312.23392,0.19091
2314.16239,0.19095
2316.09086,0.19329
2318.01933,0.19303
2319.94780,0.18767
2321.87627,0.18039
2323.80473,0.17439
2325.73320,0.16836
2327.66167,0.16586
2329.59014,0.17220
2331.51861,0.18607
2333.44708,0.20157
2335.37555,0.20879
2337.30401,0.20484
2339.23248,0.19614
2341.16095,0.18990
2343.08942,0.19093
2345.01789,0.19547
2346.94636,0.19586
2348.87483,0.19137
2350.80330,0.18278
2352.73176,0.17550
2354.66023,0.17429
2356.58870,0.17198
2358.51717,0.17433
2360.44564,0.17079
2362.37411,0.15489
2364.30258,0.16028
2366.23104,0.18180
2368.15951,0.19020
2370.08798,0.18632
2372.01645,0.18160
2373.94492,0.17992
2375.87339,0.18400
2377.80186,0.19189
2379.73033,0.19771
2381.65879,0.20067
2383.58726,0.20284
2385.51573,0.20432
2387.44420,0.20446
2389.37267,0.20365
2391.30114,0.20363
2393.22961,0.20501
2395.15807,0.20600
2397.08654,0.20611
2399.01501,0.20539
2400.94348,0.20313
2402.87195,0.20040
2404.80042,0.20061
2406.72889,0.20566
2408.65736,0.21034
2410.58582,0.20993
2412.51429,0.20685
2414.44276,0.20384
2416.37123,0.20241
2418.29970,0.20374
2420.22817,0.20626
2422.15664,0.20725
2424.08510,0.20608
2426.01357,0.20466
2427.94204,0.20380
2429.87051,0.20419
2431.79898,0.20767
2433.72745,0.21136
2435.65592,0.21207
2437.58439,0.21056
2439.51285,0.20811
2441.44132,0.20779
2443.36979,0.20918
2445.29826,0.20894
2447.22673,0.20849
2449.15520,0.20784
2451.08367,0.20805
2453.01213,0.21514
2454.94060,0.21938
2456.86907,0.20979
2458.79754,0.20214
2460.72601,0.20575
2462.65448,0.20990
2464.58295,0.21081
2466.51142,0.20983
2468.43988,0.20682
2470.36835,0.20477
2472.29682,0.20616
2474.22529,0.20901
2476.15376,0.20992
2478.08223,0.20851
2480.01070,0.20756
2481.93916,0.20717
2483.86763,0.20551
2485.79610,0.20423
2487.72457,0.20491
2489.65304,0.20642
2491.58151,0.20688
2493.50998,0.20579
2495.43844,0.20497
2497.36691,0.20648
2499.29538,0.20901
2501.22385,0.20945
2503.15232,0.20804
2505.08079,0.20810
2507.00926,0.21080
2508.93773,0.21264
2510.86619,0.21150
2512.79466,0.21068
2514.72313,0.21085
2516.65160,0.21028
2518.58007,0.21041
2520.50854,0.21086
2522.43701,0.21149
2524.36547,0.21248
2526.29394,0.21087
2528.22241,0.20796
2530.15088,0.20770
2532.07935,0.20988
2534.00782,0.21235
2535.93629,0.21418
2537.86476,0.21428
2539.79322,0.21205
2541.72169,0.20949
2543.65016,0.20826
2545.57863,0.20753
2547.50710,0.20500
2549.43557,0.20193
2551.36404,0.20304
2553.29250,0.20836
2555.22097,0.21294
2557.14944,0.21402
2559.07791,0.21255
2561.00638,0.20992
2562.93485,0.20743
2564.86332,0.20647
2566.79179,0.20924
2568.72025,0.21355
2570.64872,0.21279
2572.57719,0.20853
2574.50566,0.20728
2576.43413,0.20955
2578.36260,0.21307
2580.29107,0.21521
2582.21953,0.21339
2584.14800,0.21067
2586.07647,0.21027
2588.00494,0.21091
2589.93341,0.21215
2591.86188,0.21122
2593.79035,0.20617
2595.71882,0.20294
2597.64728,0.20597
2599.57575,0.21084
2601.50422,0.21188
2603.43269,0.21052
2605.36116,0.21098
2607.28963,0.21321
2609.21810,0.21553
2611.14656,0.21586
2613.07503,0.21254
2615.00350,0.20964
2616.93197,0.21008
2618.86044,0.21087
2620.78891,0.21054
2622.71738,0.20992
2624.64585,0.20980
2626.57431,0.21004
2628.50278,0.20999
2630.43125,0.20976
2632.35972,0.20980
2634.28819,0.21110
2636.21666,0.21282
2638.14513,0.21297
2640.07359,0.21325
2642.00206,0.21428
2643.93053,0.21448
2645.85900,0.21469
2647.78747,0.21495
2649.71594,0.21559
2651.64441,0.21589
2653.57288,0.21319
2655.50134,0.21093
2657.42981,0.21277
2659.35828,0.21710
2661.28675,0.22005
2663.21522,0.21820
2665.14369,0.21476
2667.07216,0.21337
2669.00062,0.21225
2670.92909,0.21062
2672.85756,0.20930
2674.78603,0.20910
2676.71450,0.21109
2678.64297,0.21342
2680.57144,0.21463
2682.49990,0.21686
2684.42837,0.21878
2686.35684,0.21788
2688.28531,0.21554
2690.21378,0.21244
2692.14225,0.20933
2694.07072,0.20927
2695.99919,0.21270
2697.92765,0.21645
2699.85612,0.21934
2701.78459,0.22161
2703.71306,0.22161
2705.64153,0.21941
2707.57000,0.21921
2709.49847,0.22205
2711.42693,0.22297
2713.35540,0.22175
2715.28387,0.22187
2717.21234,0.22163
2719.14081,0.21953
2721.06928,0.21816
2722.99775,0.21744
2724.92622,0.21441
2726.85468,0.21078
2728.78315,0.21171
2730.71162,0.21708
2732.64009,0.22200
2734.56856,0.22453
2736.49703,0.22501
2738.42550,0.22357
2740.35396,0.22208
2742.28243,0.22182
2744.21090,0.22114
2746.13937,0.21896
2748.06784,0.21865
2749.99631,0.22151
2751.92478,0.22292
2753.85325,0.22269
2755.78171,0.22402
2757.71018,0.22405
2759.63865,0.22073
2761.56712,0.21829
2763.49559,0.21902
2765.42406,0.22081
2767.35253,0.22387
2769.28099,0.22926
2771.20946,0.23283
2773.13793,0.23025
2775.06640,0.22434
2776.99487,0.22198
2778.92334,0.22351
2780.85181,0.22392
2782.78028,0.22346
2784.70874,0.22297
2786.63721,0.22177
2788.56568,0.22216
2790.49415,0.22514
2792.42262,0.22757
2794.35109,0.22662
2796.27956,0.22418
2798.20802,0.22287
2800.13649,0.22320
2802.06496,0.22364
2803.99343,0.22287
2805.92190,0.22343
2807.85037,0.22541
2809.77884,0.22606
2811.70731,0.22518
2813.63577,0.22357
2815.56424,0.22230
2817.49271,0.22245
2819.42118,0.22264
2821.34965,0.21954
2823.27812,0.21525
2825.20659,0.21638
2827.13505,0.22160
2829.06352,0.22601
2830.99199,0.23031
2832.92046,0.23261
2834.84893,0.23099
2836.77740,0.22940
2838.70587,0.22900
2840.63433,0.23004
2842.56280,0.23273
2844.49127,0.23119
2846.41974,0.22485
2848.34821,0.22142
2850.27668,0.22284
2852.20515,0.22570
2854.13362,0.22776
2856.06208,0.22817
2857.99055,0.22629
2859.91902,0.22300
2861.84749,0.22315
2863.77596,0.22855
2865.70443,0.23259
2867.63290,0.23090
2869.56136,0.22835
2871.48983,0.22762
2873.41830,0.22688
2875.34677,0.22757
2877.27524,0.23013
2879.20371,0.23161
2881.13218,0.23023
2883.06065,0.22650
2884.98911,0.22322
2886.91758,0.22475
2888.84605,0.23139
2890.77452,0.23607
2892.70299,0.23248
2894.63146,0.22416
2896.55993,0.22037
2898.48839,0.22429
2900.41686,0.22913
2902.34533,0.22934
2904.27380,0.22837
2906.20227,0.22912
2908.13074,0.23015
2910.05921,0.22743
2911.98768,0.22084
2913.91614,0.21639
2915.84461,0.21418
2917.77308,0.21354
2919.70155,0.21898
2921.63002,0.22664
2923.55849,0.22529
2925.48696,0.22426
2927.41542,0.24392
2929.34389,0.26830
2931.27236,0.26611
2933.20083,0.23982
2935.12930,0.21537
2937.05777,0.20735
2938.98624,0.21349
2940.91471,0.22320
2942.84317,0.22523
2944.77164,0.22031
2946.70011,0.21670
2948.62858,0.21945
2950.55705,0.22587
2952.48552,0.22930
2954.41399,0.22676
2956.34245,0.21886
2958.27092,0.21575
2960.19939,0.22469
2962.12786,0.23303
2964.05633,0.23122
2965.98480,0.22600
2967.91327,0.22198
2969.84174,0.22122
2971.77020,0.22492
2973.69867,0.22813
2975.62714,0.22599
2977.55561,0.21953
2979.48408,0.21754
2981.41255,0.22310
2983.34102,0.22862
2985.26948,0.22827
2987.19795,0.22158
2989.12642,0.21694
2991.05489,0.22026
2992.98336,0.22392
2994.91183,0.22534
2996.84030,0.22785
2998.76877,0.22800
3000.69723,0.22801
3002.62570,0.23355
3004.55417,0.23634
3006.48264,0.22876
3008.41111,0.21971
3010.33958,0.21527
3012.26805,0.20551
3014.19651,0.18078
3016.12498,0.15663
3018.05345,0.16438
3019.98192,0.19791
3021.91039,0.22284
3023.83886,0.23109
3025.76733,0.23053
3027.69579,0.22833
3029.62426,0.23024
3031.55273,0.23206
3033.48120,0.23013
3035.40967,0.22734
3037.33814,0.22613
3039.26661,0.22840
3041.19508,0.23281
3043.12354,0.23471
3045.05201,0.23205
3046.98048,0.22879
3048.90895,0.23088
3050.83742,0.23459
3052.76589,0.23446
3054.69436,0.23203
3056.62282,0.22889
3058.55129,0.22891
3060.47976,0.23255
3062.40823,0.23297
3064.33670,0.22654
3066.26517,0.21822
3068.19364,0.21807
3070.12211,0.22689
3072.05057,0.23344
3073.97904,0.22852
3075.90751,0.21838
3077.83598,0.21878
3079.76445,0.22808
3081.69292,0.23290
3083.62139,0.22908
3085.54985,0.22126
3087.47832,0.22099
3089.40679,0.22934
3091.33526,0.23230
3093.26373,0.22544
3095.19220,0.22036
3097.12067,0.22529
3099.04914,0.23398
3100.97760,0.23671
3102.90607,0.23024
3104.83454,0.22337
3106.76301,0.22509
3108.69148,0.23073
3110.61995,0.23107
3112.54842,0.22579
3114.47688,0.22465
3116.40535,0.22943
3118.33382,0.23069
3120.26229,0.22414
3122.19076,0.21687
3124.11923,0.21947
3126.04770,0.22879
3127.97617,0.23220
3129.90463,0.22698
3131.83310,0.22285
3133.76157,0.22574
3135.69004,0.22978
3137.61851,0.23029
3139.54698,0.23016
3141.47545,0.23119
3143.40391,0.23124
3145.33238,0.23020
3147.26085,0.22946
3149.18932,0.23124
3151.11779,0.23536
3153.04626,0.23745
3154.97473,0.23805
3156.90320,0.23772
3158.83166,0.23411
3160.76013,0.23089
3162.68860,0.23059
3164.61707,0.23036
3166.54554,0.23190
3168.47401,0.23680
3170.40248,0.24186
3172.33094,0.24495
3174.25941,0.24380
3176.18788,0.23942
3178.11635,0.23696
3180.04482,0.23753
3181.97329,0.23693
3183.90176,0.23408
3185.83022,0.23377
3187.75869,0.23678
3189.68716,0.23826
3191.61563,0.23564
3193.54410,0.23305
3195.47257,0.23374
3197.40104,0.23625
3199.32951,0.23890
3201.25797,0.23726
3203.18644,0.23384
3205.11491,0.23425
3207.04338,0.23369
3208.97185,0.23183
3210.90032,0.23426
3212.82879,0.23858
3214.75725,0.23695
3216.68572,0.22984
3218.61419,0.22909
3220.54266,0.23555
3222.47113,0.23845
3224.39960,0.23762
3226.32807,0.23532
3228.25654,0.23115
3230.18500,0.23209
3232.11347,0.23887
3234.04194,0.24182
3235.97041,0.23901
3237.89888,0.23871
3239.82735,0.24285
3241.75582,0.24529
3243.68428,0.24705
3245.61275,0.25014
3247.54122,0.24944
3249.46969,0.24425
3251.39816,0.23994
3253.32663,0.24126
3255.25510,0.24440
3257.18357,0.24127
3259.11203,0.23420
3261.04050,0.23041
3262.96897,0.23191
3264.89744,0.23573
3266.82591,0.23783
3268.75438,0.23748
3270.68285,0.23517
3272.61131,0.23325
3274.53978,0.23389
3276.46825,0.23380
3278.39672,0.23147
3280.32519,0.23001
3282.25366,0.22928
3284.18213,0.22946
3286.11060,0.23227
3288.03906,0.23609
3289.96753,0.24006
3291.89600,0.24219
3293.82447,0.23852
3295.75294,0.23110
3297.68141,0.22663
3299.60988,0.22870
3301.53834,0.23550
3303.46681,0.24156
3305.39528,0.24226
3307.32375,0.23929
3309.25222,0.23852
3311.18069,0.24093
3313.10916,0.23978
3315.03763,0.23381
3316.96609,0.22942
3318.89456,0.22950
3320.82303,0.23164
3322.75150,0.23217
3324.67997,0.23313
3326.60844,0.23747
3328.53691,0.24282
3330.46537,0.24739
3332.39384,0.24913
3334.32231,0.24509
3336.25078,0.23749
3338.17925,0.23159
3340.10772,0.22999
3342.03619,0.23152
3343.96466,0.23062
3345.89312,0.22681
3347.82159,0.22651
3349.75006,0.22960
3351.67853,0.23311
3353.60700,0.23691
3355.53547,0.23874
3357.46394,0.23813
3359.39240,0.23868
3361.32087,0.23908
3363.24934,0.23568
3365.17781,0.23263
3367.10628,0.23438
3369.03475,0.23785
3370.96322,0.24081
3372.89168,0.24348
3374.82015,0.24157
3376.74862,0.23490
3378.67709,0.23109
3380.60556,0.23164
3382.53403,0.23191
3384.46250,0.23195
3386.39097,0.23613
3388.31943,0.24282
3390.24790,0.24441
3392.17637,0.23786
3394.10484,0.23159
3396.03331,0.23433
3397.96178,0.24020
3399.89025,0.24055
3401.81871,0.23321
3403.74718,0.22314
3405.67565,0.22228
3407.60412,0.23098
3409.53259,0.23554
3411.46106,0.23059
3413.38953,0.22703
3415.31800,0.23057
3417.24646,0.23197
3419.17493,0.22862
3421.10340,0.22738
3423.03187,0.23002
3424.96034,0.23407
3426.88881,0.23591
3428.81728,0.23610
3430.74574,0.23789
3432.67421,0.23639
3434.60268,0.23074
3436.53115,0.22834
3438.45962,0.22862
3440.38809,0.23008
3442.31656,0.23335
3444.24503,0.23560
3446.17349,0.23796
3448.10196,0.24044
3450.03043,0.23999
3451.95890,0.23751
3453.88737,0.23049
3455.81584,0.21652
3457.74431,0.20584
3459.67277,0.20606
3461.60124,0.21134
3463.52971,0.21792
3465.45818,0.22281
3467.38665,0.22201
3469.31512,0.21705
3471.24359,0.21271
3473.17206,0.21198
3475.10052,0.21185
3477.02899,0.21247
3478.95746,0.21742
3480.88593,0.22049
3482.81440,0.21627
3484.74287,0.21308
3486.67134,0.21299
3488.59980,0.20774
3490.52827,0.20189
3492.45674,0.20416
3494.38521,0.20979
3496.31368,0.21019
3498.24215,0.20543
3500.17062,0.20038
3502.09909,0.19661
3504.02755,0.19640
3505.95602,0.19986
3507.88449,0.20355
3509.81296,0.20658
3511.74143,0.20712
3513.66990,0.20447
3515.59837,0.20224
3517.52683,0.20206
3519.45530,0.20375
3521.38377,0.20327
3523.31224,0.19555
3525.24071,0.19281
3527.16918,0.20239
3529.09765,0.20604
3531.02611,0.19626
3532.95458,0.18580
3534.88305,0.18462
3536.81152,0.18990
3538.73999,0.19144
3540.66846,0.19101
3542.59693,0.19421
3544.52540,0.19632
3546.45386,0.19238
3548.38233,0.18583
3550.31080,0.18343
3552.23927,0.18628
3554.16774,0.18764
3556.09621,0.18592
3558.02468,0.18432
3559.95314,0.18011
3561.88161,0.17506
3563.81008,0.17833
3565.73855,0.18915
3567.66702,0.19186
3569.59549,0.18354
3571.52396,0.17840
3573.45243,0.17682
3575.38089,0.17426
3577.30936,0.17264
3579.23783,0.17418
3581.16630,0.17526
3583.09477,0.17288
3585.02324,0.17008
3586.95171,0.16953
3588.88017,0.17037
3590.80864,0.17191
3592.73711,0.17266
3594.66558,0.17271
3596.59405,0.17299
3598.52252,0.17253
3600.45099,0.16911
3602.37946,0.16234
3604.30792,0.15916
3606.23639,0.16484
3608.16486,0.17278
3610.09333,0.17132
3612.02180,0.16862
3613.95027,0.17379
3615.87874,0.17844
3617.80720,0.17962
3619.73567,0.17587
3621.66414,0.16570
3623.59261,0.15969
3625.52108,0.16154
3627.44955,0.17008
3629.37802,0.17834
3631.30649,0.17443
3633.23495,0.16508
3635.16342,0.15665
3637.09189,0.15337
3639.02036,0.15557
3640.94883,0.16019
3642.87730,0.16457
3644.80577,0.16970
3646.73423,0.17721
3648.66270,0.17753
3650.59117,0.15943
3652.51964,0.14540
3654.44811,0.14149
3656.37658,0.14091
3658.30505,0.14308
3660.23352,0.14728
3662.16198,0.14825
3664.09045,0.14619
3666.01892,0.14643
3667.94739,0.15072
3669.87586,0.15679
3671.80433,0.16057
3673.73280,0.16373
3675.66126,0.16164
3677.58973,0.14986
3679.51820,0.14408
3681.44667,0.14603
3683.37514,0.14708
3685.30361,0.14608
3687.23208,0.14965
3689.16055,0.16039
3691.08901,0.16545
3693.01748,0.15780
3694.94595,0.14824
3696.87442,0.14312
3698.80289,0.14083
3700.73136,0.14144
3702.65983,0.14645
3704.58829,0.14937
3706.51676,0.14929
3708.44523,0.15183
3710.37370,0.15644
3712.30217,0.15362
3714.23064,0.14453
3716.15911,0.13961
3718.08757,0.14386
3720.01604,0.15424
3721.94451,0.16064
3723.87298,0.15847
3725.80145,0.15091
3727.72992,0.14503
3729.65839,0.14447
3731.58686,0.15080
3733.51532,0.16655
3735.44379,0.17403
3737.37226,0.16112
3739.30073,0.14948
3741.22920,0.14654
3743.15767,0.15195
3745.08614,0.16106
3747.01460,0.16152
3748.94307,0.16056
3750.87154,0.16614
3752.80001,0.16663
3754.72848,0.16072
3756.65695,0.15879
3758.58542,0.15712
3760.51389,0.14781
3762.44235,0.13893
3764.37082,0.13577
3766.29929,0.13784
3768.22776,0.14438
3770.15623,0.14916
3772.08470,0.14722
3774.01317,0.14190
3775.94163,0.13803
3777.87010,0.13912
3779.79857,0.14223
3781.72704,0.14198
3783.65551,0.14001
3785.58398,0.13847
3787.51245,0.13844
3789.44092,0.13856
3791.36938,0.13645
3793.29785,0.13537
3795.22632,0.13946
3797.15479,0.14597
3799.08326,0.15132
3801.01173,0.15508
3802.94020,0.15412
3804.86866,0.15509
3806.79713,0.15939
3808.72560,0.15550
3810.65407,0.14527
3812.58254,0.13923
3814.51101,0.14237
3816.43948,0.15019
3818.36795,0.15296
3820.29641,0.15176
3822.22488,0.14679
3824.15335,0.14572
3826.08182,0.15063
3828.01029,0.15127
3829.93876,0.14490
3831.86723,0.14010
3833.79569,0.13967
3835.72416,0.14184
3837.65263,0.14651
3839.58110,0.14842
3841.50957,0.14684
3843.43804,0.14582
3845.36651,0.14519
3847.29498,0.14393
3849.22344,0.14244
3851.15191,0.14210
3853.08038,0.14306
3855.00885,0.14307
3856.93732,0.13769
3858.86579,0.13004
3860.79426,0.12934
3862.72272,0.14034
3864.65119,0.14943
3866.57966,0.14502
3868.50813,0.14188
3870.43660,0.14886
3872.36507,0.15098
3874.29354,0.14045
3876.22200,0.13177
3878.15047,0.13418
3880.07894,0.13913
3882.00741,0.13719
3883.93588,0.13364
3885.86435,0.13330
3887.79282,0.13448
3889.72129,0.13881
3891.64975,0.14644
3893.57822,0.14612
3895.50669,0.14084
3897.43516,0.14085
3899.36363,0.14620
3901.29210,0.14838
3903.22057,0.13626
3905.14903,0.12079
3907.07750,0.12022
3909.00597,0.12615
3910.93444,0.12994
3912.86291,0.13310
3914.79138,0.13543
3916.71985,0.13196
3918.64832,0.12506
3920.57678,0.12462
3922.50525,0.12927
3924.43372,0.12949
3926.36219,0.12629
3928.29066,0.12887
3930.21913,0.13397
3932.14760,0.13273
3934.07606,0.12801
3936.00453,0.12668
3937.93300,0.12917
3939.86147,0.13155
3941.78994,0.12919
3943.71841,0.12361
3945.64688,0.12206
3947.57535,0.12540
3949.50381,0.12809
3951.43228,0.12673
3953.36075,0.12201
3955.28922,0.11942
3957.21769,0.12237
3959.14616,0.12533
3961.07463,0.12554
3963.00309,0.12360
3964.93156,0.12104
3966.86003,0.12310
3968.78850,0.12934
3970.71697,0.13299
3972.64544,0.13185
3974.57391,0.12838
3976.50238,0.12423
3978.43084,0.12293
3980.35931,0.12473
3982.28778,0.12485
3984.21625,0.12162
3986.14472,0.11479
3988.07319,0.10620
3990.00166,0.10169
3991.93012,0.10438
3993.85859,0.10968
3995.78706,0.11246
3997.71553,0.11325
3999.64400,0.11187
4001.57247,0.10957
4003.50094,0.11128
4005.42941,0.11610
4007.35787,0.11800
4009.28634,0.11636
4011.21481,0.11470
4013.14328,0.11517
4015.07175,0.11884
4017.00022,0.12147
4018.92869,0.11922
4020.85715,0.11590
4022.78562,0.11735
4024.71409,0.12473
4026.64256,0.12953
4028.57103,0.12584
4030.49950,0.11894
4032.42797,0.11428
4034.35644,0.11410
4036.28490,0.11650
4038.21337,0.11659
4040.14184,0.11435
4042.07031,0.11311
4043.99878,0.11170
4045.92725,0.10953
4047.85572,0.11028
4049.78418,0.11279
4051.71265,0.11475
4053.64112,0.11745
4055.56959,0.11803
4057.49806,0.11287
4059.42653,0.10659
4061.35500,0.10537
4063.28346,0.10669
4065.21193,0.10470
4067.14040,0.10182
4069.06887,0.10331
4070.99734,0.10530
4072.92581,0.10410
4074.85428,0.10395
4076.78275,0.10707
4078.71121,0.10942
4080.63968,0.10842
4082.56815,0.10718
4084.49662,0.10669
4086.42509,0.10653
4088.35356,0.10861
4090.28203,0.10741
4092.21049,0.09819
4094.13896,0.09141
4096.06743,0.09273
4097.99590,0.09364
4099.92437,0.09207
4101.85284,0.09227
4103.78131,0.09449
4105.70978,0.09484
4107.63824,0.09136
4109.56671,0.09054
4111.49518,0.09582
4113.42365,0.10196
4115.35212,0.10471
4117.28059,0.10144
4119.20906,0.09299
4121.13752,0.08548
4123.06599,0.08264
4124.99446,0.08550
4126.92293,0.09233
4128.85140,0.09648
4130.77987,0.09594
4132.70834,0.09548
4134.63681,0.09575
4136.56527,0.09255
4138.49374,0.08915
4140.42221,0.09340
4142.35068,0.10298
4144.27915,0.10653
4146.20762,0.09830
4148.13609,0.08817
4150.06455,0.08591
4151.99302,0.08918
4153.92149,0.09461
4155.84996,0.09984
4157.77843,0.10134
4159.70690,0.09849
4161.63537,0.09319
4163.56384,0.08751
4165.49230,0.08387
4167.42077,0.08364
4169.34924,0.08828
4171.27771,0.09356
4173.20618,0.09080
4175.13465,0.08493
4177.06312,0.08577
4178.99158,0.09054
4180.92005,0.09402
4182.84852,0.09600
4184.77699,0.09664
4186.70546,0.09380
4188.63393,0.08923
4190.56240,0.08925
4192.49087,0.08489
4194.41933,0.06650
4196.34780,0.05118
4198.27627,0.05372
4200.20474,0.06794
4202.13321,0.07980
4204.06168,0.08112
4205.99015,0.08260
4207.91861,0.09402
4209.84708,0.10422
4211.77555,0.10031
4213.70402,0.08655
4215.63249,0.07733
4217.56096,0.07732
4219.48943,0.08029
4221.41789,0.08178
4223.34636,0.08034
4225.27483,0.07760
4227.20330,0.07614
4229.13177,0.07633
4231.06024,0.07669
4232.98871,0.07596
4234.91718,0.07342
4236.84564,0.06902
4238.77411,0.06919
4240.70258,0.07349
4242.63105,0.07281
4244.55952,0.06914
4246.48799,0.06781
4248.41646,0.06862
4250.34492,0.06740
4252.27339,0.06368
4254.20186,0.06483
4256.13033,0.06962
4258.05880,0.06944
4259.98727,0.06486
4261.91574,0.06322
4263.84421,0.06675
4265.77267,0.07058
4267.70114,0.07287
4269.62961,0.07442
4271.55808,0.07097
4273.48655,0.06493
4275.41502,0.06401
4277.34349,0.06578
4279.27195,0.06714
4281.20042,0.06708
4283.12889,0.06303
4285.05736,0.06177
4286.98583,0.06631
4288.91430,0.06461
4290.84277,0.05713
4292.77124,0.05553
4294.69970,0.05848
4296.62817,0.06024
4298.55664,0.05971
4300.48511,0.05966
4302.41358,0.06349
4304.34205,0.06984
4306.27052,0.07374
4308.19898,0.07247
4310.12745,0.06763
4312.05592,0.06037
4313.98439,0.05504
4315.91286,0.05502
4317.84133,0.05565
4319.76980,0.05641
4321.69827,0.05958
4323.62673,0.06027
4325.55520,0.05856
4327.48367,0.06054
4329.41214,0.06388
4331.34061,0.06472
4333.26908,0.06661
4335.19755,0.06997
4337.12601,0.06898
4339.05448,0.06396
4340.98295,0.05960
4342.91142,0.05512
4344.83989,0.05026
4346.76836,0.05136
4348.69683,0.06178
4350.62530,0.07049
4352.55376,0.06524
4354.48223,0.05226
4356.41070,0.04520
4358.33917,0.04446
4360.26764,0.04286
4362.19611,0.04163
4364.12458,0.04483
4366.05304,0.04968
4367.98151,0.05214
4369.90998,0.05068
4371.83845,0.04937
4373.76692,0.05326
4375.69539,0.05765
4377.62386,0.05708
4379.55232,0.05349
4381.48079,0.05157
4383.40926,0.05269
4385.33773,0.05177
4387.26620,0.04674
4389.19467,0.04519
4391.12314,0.05220
4393.05161,0.05685
4394.98007,0.05235
4396.90854,0.04741
4398.83701,0.04447
4400.76548,0.04289
4402.69395,0.04112
4404.62242,0.03450
4406.55089,0.03109
4408.47935,0.03681
4410.40782,0.04384
4412.33629,0.04708
4414.26476,0.04718
4416.19323,0.04536
4418.12170,0.04178
4420.05017,0.03685
4421.97864,0.03586
4423.90710,0.04177
4425.83557,0.04432
4427.76404,0.03643
4429.69251,0.02961
4431.62098,0.03087
4433.54945,0.03276
4435.47792,0.03128
4437.40638,0.02945
4439.33485,0.02731
4441.26332,0.02206
4443.19179,0.01742
4445.12026,0.01816
4447.04873,0.02480
4448.97720,0.03074
4450.90567,0.02641
4452.83413,0.02432
4454.76260,0.03950
4456.69107,0.05475
4458.61954,0.05216
4460.54801,0.03895
4462.47648,0.02715
4464.40495,0.02535
4466.33341,0.03528
4468.26188,0.04092
4470.19035,0.03375
4472.11882,0.02587
4474.04729,0.02295
4475.97576,0.02341
4477.90423,0.02548
4479.83270,0.02770
4481.76116,0.03527
4483.68963,0.04202
4485.61810,0.03594
4487.54657,0.02774
4489.47504,0.02912
4491.40351,0.03364
4493.33198,0.03332
4495.26044,0.03017
4497.18891,0.02941
4499.11738,0.02808
4501.04585,0.02432
4502.97432,0.02084
4504.90279,0.01518
4506.83126,0.01133
4508.75973,0.01687
4510.68819,0.02581
4512.61666,0.02929
4514.54513,0.02851
4516.47360,0.02570
4518.40207,0.01997
4520.33054,0.01690
4522.25901,0.01949
4524.18747,0.02209
4526.11594,0.02362
4528.04441,0.02688
4529.97288,0.02933
4531.90135,0.02497
4533.82982,0.01804
4535.75829,0.01686
4537.68676,0.01813
4539.61522,0.01903
4541.54369,0.02216
4543.47216,0.02405
4545.40063,0.02215
4547.32910,0.02073
4549.25757,0.02077
4551.18604,0.01869
4553.11450,0.01403
4555.04297,0.01420
4556.97144,0.02374
4558.89991,0.03234
4560.82838,0.03022
4562.75685,0.02260
4564.68532,0.02139
4566.61378,0.02588
4568.54225,0.02807
4570.47072,0.02717
4572.39919,0.02063
4574.32766,0.00974
4576.25613,0.00104
4578.18460,-0.00509
4580.11307,-0.00748
4582.04153,-0.00059
4583.97000,0.01364
4585.89847,0.01894
4587.82694,0.00936
4589.75541,-0.00064
4591.68388,0.00018
4593.61235,0.01207
4595.54081,0.02173
4597.46928,0.01890
4599.39775,0.01180
4601.32622,0.01065
4603.25469,0.01741
4605.18316,0.02145
4607.11163,0.01532
4609.04010,0.01091
4610.96856,0.01692
4612.89703,0.02312
4614.82550,0.02113
4616.75397,0.01503
4618.68244,0.00679
4620.61091,0.00360
4622.53938,0.01138
4624.46784,0.01846
4626.39631,0.01495
4628.32478,0.00997
4630.25325,0.01198
4632.18172,0.01290
4634.11019,0.01356
4636.03866,0.01794
4637.96713,0.01935
4639.89559,0.02279
4641.82406,0.03066
4643.75253,0.03290
4645.68100,0.02648
4647.60947,0.01835
4649.53794,0.01554
4651.46641,0.01481
4653.39487,0.00870
4655.32334,0.00240
4657.25181,0.00539
4659.18028,0.01248
4661.10875,0.01832
4663.03722,0.02185
4664.96569,0.02325
4666.89416,0.03023
4668.82262,0.03384
4670.75109,0.01927
4672.67956,0.00204
4674.60803,-0.00147
4676.53650,-0.00166
4678.46497,-0.00557
4680.39344,-0.00306
4682.32190,0.00692
4684.25037,0.01778
4686.17884,0.02616
4688.10731,0.02653
4690.03578,0.01851
4691.96425,0.00788
4693.89272,0.00245
4695.82119,0.00605
4697.74965,0.01007
4699.67812,0.00708
4701.60659,0.00531
4703.53506,0.01460
4705.46353,0.02553
4707.39200,0.02382
4709.32047,0.01451
4711.24893,0.00642
4713.17740,-0.00132
4715.10587,-0.00183
4717.03434,0.00899
4718.96281,0.01523
4720.89128,0.01116
4722.81975,0.00986
4724.74821,0.01160
4726.67668,0.00557
4728.60515,-0.00139
4730.53362,0.00242
4732.46209,0.00929
4734.39056,0.01214
4736.31903,0.01353
4738.24750,0.01212
4740.17596,0.01085
4742.10443,0.01229
4744.03290,0.01323
4745.96137,0.01818
4747.88984,0.02592
4749.81831,0.02437
4751.74678,0.01595
4753.67524,0.01275
4755.60371,0.01121
4757.53218,0.00156
4759.46065,-0.00783
4761.38912,-0.00481
4763.31759,0.00548
4765.24606,0.01326
4767.17453,0.01604
4769.10299,0.01514
4771.03146,0.01137
4772.95993,0.00419
4774.88840,-0.00395
4776.81687,-0.00989
4778.74534,-0.00910
4780.67381,0.00166
4782.60227,0.01021
4784.53074,0.00660
4786.45921,-0.00083
4788.38768,-0.00383
4790.31615,-0.00039
4792.24462,0.00843
4794.17309,0.01630
4796.10156,0.01790
4798.03002,0.01403
4799.95849,0.00849
4801.88696,0.00441
4803.81543,0.00121
4805.74390,-0.00133
4807.67237,-0.00178
4809.60084,-0.00031
4811.52930,0.00037
4813.45777,0.00372
4815.38624,0.01538
4817.31471,0.01934
4819.24318,0.00460
4821.17165,-0.00979
4823.10012,-0.01007
4825.02859,-0.00417
4826.95705,-0.00415
4828.88552,-0.00631
4830.81399,-0.00221
4832.74246,-0.00229
4834.67093,-0.01569
4836.59940,-0.02616
4838.52787,-0.01912
4840.45633,-0.00648
4842.38480,-0.00354
4844.31327,-0.00563
4846.24174,-0.00444
4848.17021,0.00174
4850.09868,0.00991
4852.02715,0.00892
4853.95562,0.00467
4855.88408,0.01060
4857.81255,0.02077
4859.74102,0.02758
4861.66949,0.02915
4863.59796,0.02517
4865.52643,0.01632
4867.45490,0.00790
4869.38336,0.00871
4871.31183,0.01825
4873.24030,0.02296
4875.16877,0.01599
4877.09724,0.00871
4879.02571,0.00840
4880.95418,0.01428
4882.88265,0.02012
4884.81111,0.01479
4886.73958,-0.00215
4888.66805,-0.01553
4890.59652,-0.01247
4892.52499,-0.00066
4894.45346,0.00633
4896.38193,0.00820
4898.31039,0.01132
4900.23886,0.01613
4902.16733,0.01857
4904.09580,0.01507
4906.02427,0.00754
4907.95274,0.00516
4909.88121,0.00087
4911.80967,-0.01274
4913.73814,-0.01331
4915.66661,0.00696
4917.59508,0.02034
4919.52355,0.01059
4921.45202,-0.00443
4923.38049,-0.00212
4925.30896,0.01186
4927.23742,0.01852
4929.16589,0.01554
4931.09436,0.01156
4933.02283,0.01199
4934.95130,0.01263
4936.87977,0.00889
4938.80824,0.00360
4940.73670,-0.00090
4942.66517,-0.00490
4944.59364,-0.00483
4946.52211,0.00350
4948.45058,0.01070
4950.37905,0.01630
4952.30752,0.02871
4954.23599,0.03036
4956.16445,0.01662
4958.09292,0.01508
4960.02139,0.03013
4961.94986,0.03501
4963.87833,0.02366
4965.80680,0.01396
4967.73527,0.00849
4969.66373,0.00729
4971.59220,0.01089
4973.52067,0.01007
4975.44914,0.00950
4977.37761,0.01403
4979.30608,0.01183
4981.23455,0.00352
4983.16302,0.00646
4985.09148,0.02103
4987.01995,0.02755
4988.94842,0.01929
4990.87689,0.00793
4992.80536,0.00212
4994.73383,0.00767
4996.66230,0.02497
4998.59076,0.03939
5000.51923,0.04061
5002.44770,0.02884
5004.37617,0.01256
5006.30464,0.01319
5008.23311,0.03236
5010.16158,0.04296
5012.09005,0.03545
5014.01851,0.02529
5015.94698,0.01944
5017.87545,0.01431
5019.80392,0.01346
5021.73239,0.01959
5023.66086,0.02141
5025.58933,0.02119
5027.51779,0.02977
5029.44626,0.03379
5031.37473,0.02623
5033.30320,0.01702
5035.23167,0.01346
5037.16014,0.01670
5039.08861,0.01522
5041.01708,0.00779
5042.94554,-0.00024
5044.87401,-0.00619
5046.80248,0.00487
5048.73095,0.01959
5050.65942,0.01554
5052.58789,0.00601
5054.51636,0.00706
5056.44482,0.01856
5058.37329,0.02493
5060.30176,0.01822
5062.23023,0.01382
5064.15870,0.02369
5066.08717,0.03976
5068.01564,0.04261
5069.94410,0.02866
5071.87257,0.01414
5073.80104,0.01228
5075.72951,0.01979
5077.65798,0.02552
5079.58645,0.02834
5081.51492,0.02900
5083.44339,0.02774
5085.37185,0.03181
5087.30032,0.03122
5089.22879,0.01061
5091.15726,-0.00676
5093.08573,0.00961
5095.01420,0.04133
5096.94267,0.04961
5098.87113,0.04192
5100.79960,0.04506
5102.72807,0.05072
5104.65654,0.05273
5106.58501,0.05658
5108.51348,0.05697
5110.44195,0.05478
5112.37042,0.05190
5114.29888,0.04227
5116.22735,0.03579
5118.15582,0.03901
5120.08429,0.03904
5122.01276,0.04164
5123.94123,0.04974
5125.86970,0.04213
5127.79816,0.02475
5129.72663,0.02733
5131.65510,0.04491
5133.58357,0.04970
5135.51204,0.04211
5137.44051,0.03857
5139.36898,0.04091
5141.29745,0.04366
5143.22591,0.04504
5145.15438,0.04192
5147.08285,0.01975
5149.01132,-0.00866
5150.93979,-0.00836
5152.86826,0.00792
5154.79673,0.01410
5156.72519,0.01440
5158.65366,0.01489
5160.58213,0.01528
5162.51060,0.01329
5164.43907,0.01417
5166.36754,0.02576
5168.29601,0.03899
5170.22448,0.03983
5172.15294,0.03008
5174.08141,0.02053
5176.00988,0.01807
5177.93835,0.02803
5179.86682,0.03902
5181.79529,0.04080
5183.72376,0.04514
5185.65222,0.04735
5187.58069,0.03916
5189.50916,0.03951
5191.43763,0.05341
5193.36610,0.06682
5195.29457,0.07453
5197.22304,0.06954
5199.15151,0.05700
5201.07997,0.05528
5203.00844,0.05067
5204.93691,0.03532
5206.86538,0.03510
5208.79385,0.04969
5210.72232,0.05236
5212.65079,0.04342
5214.57925,0.03929
5216.50772,0.03547
5218.43619,0.02699
5220.36466,0.03664
5222.29313,0.05835
5224.22160,0.06847
5226.15007,0.07308
5228.07854,0.08216
5230.00700,0.08683
5231.93547,0.07653
5233.86394,0.06325
5235.79241,0.05671
5237.72088,0.05015
5239.64935,0.04686
5241.57782,0.04163
5243.50628,0.02921
5245.43475,0.02984
5247.36322,0.04380
5249.29169,0.04531
5251.22016,0.03874
5253.14863,0.04339
5255.07710,0.05980
5257.00556,0.08292
5258.93403,0.10309
5260.86250,0.10588
5262.79097,0.08470
5264.71944,0.05553
5266.64791,0.04558
5268.57638,0.04457
5270.50485,0.03472
5272.43331,0.02741
5274.36178,0.02770
5276.29025,0.03336
5278.21872,0.04177
5280.14719,0.03808
5282.07566,0.01873
5284.00413,0.00395
5285.93259,0.01568
5287.86106,0.04670
5289.78953,0.07463
5291.71800,0.09402
5293.64647,0.10729
5295.57494,0.10430
5297.50341,0.08188
5299.43188,0.05564
5301.36034,0.03696
5303.28881,0.03207
5305.21728,0.03753
5307.14575,0.04320
5309.07422,0.04744
5311.00269,0.04989
5312.93116,0.05603
5314.85962,0.06503
5316.78809,0.06791
5318.71656,0.07030
5320.64503,0.07575
5322.57350,0.07721
5324.50197,0.07908
5326.43044,0.07892
5328.35891,0.05996
5330.28737,0.04388
5332.21584,0.04676
5334.14431,0.04283
5336.07278,0.03816
5338.00125,0.05776
5339.92972,0.07969
5341.85819,0.07452
5343.78665,0.05657
5345.71512,0.06095
5347.64359,0.08252
5349.57206,0.08965
5351.50053,0.08548
5353.42900,0.09012
5355.35747,0.09325
5357.28594,0.07447
5359.21440,0.05450
5361.14287,0.06232
5363.07134,0.08119
5364.99981,0.08267
5366.92828,0.08357
5368.85675,0.10076
5370.78522,0.10709
5372.71368,0.08316
5374.64215,0.05573
5376.57062,0.05023
5378.49909,0.06215
5380.42756,0.07814
5382.35603,0.08079
5384.28450,0.06905
5386.21297,0.05977
5388.14143,0.05759
5390.06990,0.07449
5391.99837,0.10894
5393.92684,0.11251
5395.85531,0.07425
5397.78378,0.04842
5399.71225,0.04937
5401.64071,0.05990
5403.56918,0.06720
5405.49765,0.06848
5407.42612,0.07784
5409.35459,0.09915
5411.28306,0.10873
5413.21153,0.09744
5415.13999,0.09376
5417.06846,0.09613
5418.99693,0.07766
5420.92540,0.06184
5422.85387,0.08048
5424.78234,0.10217
5426.71081,0.09066
5428.63928,0.05380
5430.56774,0.03128
5432.49621,0.03987
5434.42468,0.05952
5436.35315,0.06196
5438.28162,0.04777
5440.21009,0.04051
5442.13856,0.03567
5444.06702,0.02987
5445.99549,0.04346
5447.92396,0.05852
5449.85243,0.05825
5451.78090,0.06424
5453.70937,0.07243
5455.63784,0.06358
5457.56631,0.05085
5459.49477,0.05528
5461.42324,0.06817
5463.35171,0.07535
5465.28018,0.06955
5467.20865,0.06606
5469.13712,0.08423
5471.06559,0.10257
5472.99405,0.10551
5474.92252,0.10244
5476.85099,0.08419
5478.77946,0.05233
5480.70793,0.03059
5482.63640,0.02812
5484.56487,0.04067
5486.49334,0.06514
5488.42180,0.09400
5490.35027,0.11558
5492.27874,0.11916
5494.20721,0.09508
5496.13568,0.06234
5498.06415,0.06807
5499.99262,0.11838
5501.92108,0.14923
5503.84955,0.13188
5505.77802,0.09129
5507.70649,0.05535
5509.63496,0.04426
5511.56343,0.04983
5513.49190,0.05826
5515.42037,0.06448
5517.34883,0.07764
5519.27730,0.10638
5521.20577,0.12009
5523.13424,0.09751
5525.06271,0.07365
5526.99118,0.07530
5528.91965,0.08280
5530.84811,0.07833
5532.77658,0.06773
5534.70505,0.06941
5536.63352,0.09284
5538.56199,0.11778
5540.49046,0.12461
5542.41893,0.12331
5544.34740,0.11619
5546.27586,0.09195
5548.20433,0.08464
5550.13280,0.11567
5552.06127,0.13895
5553.98974,0.12906
5555.91821,0.11160
5557.84668,0.10928
5559.77514,0.10616
5561.70361,0.08331
5563.63208,0.06740
5565.56055,0.07258
5567.48902,0.07634
5569.41749,0.08732
5571.34596,0.10684
5573.27443,0.10162
5575.20289,0.07847
5577.13136,0.07688
5579.05983,0.10006
5580.98830,0.11533
5582.91677,0.10761
5584.84524,0.09224
5586.77371,0.07778
5588.70217,0.07543
5590.63064,0.07504
5592.55911,0.05021
5594.48758,0.01417
5596.41605,-0.00465
5598.34452,-0.00371
5600.27299,0.01441
5602.20145,0.06127
5604.12992,0.11678
5606.05839,0.13315
5607.98686,0.10400
5609.91533,0.06170
5611.84380,0.03094
5613.77227,0.01981
5615.70074,0.02895
5617.62920,0.04755
5619.55767,0.05796
5621.48614,0.06225
5623.41461,0.07967
5625.34308,0.10979
5627.27155,0.12080
5629.20002,0.09929
5631.12848,0.07504
5633.05695,0.06913
5634.98542,0.07810
5636.91389,0.08718
5638.84236,0.09620
5640.77083,0.11483
5642.69930,0.11337
5644.62777,0.07524
5646.55623,0.05309
5648.48470,0.07209
5650.41317,0.08420
5652.34164,0.06354
5654.27011,0.04062
5656.19858,0.04879
5658.12705,0.07662
5660.05551,0.10037
5661.98398,0.11554
5663.91245,0.11321
5665.84092,0.09924
5667.76939,0.09182
5669.69786,0.07910
5671.62633,0.06307
5673.55480,0.07437
5675.48326,0.10066
5677.41173,0.10832
5679.34020,0.11494
5681.26867,0.14217
5683.19714,0.15961
5685.12561,0.14606
5687.05408,0.12141
5688.98254,0.09800
5690.91101,0.09686
5692.83948,0.12726
5694.76795,0.13339
5696.69642,0.09428
5698.62489,0.07246
5700.55336,0.09624
5702.48183,0.12441
5704.41029,0.13037
5706.33876,0.11972
5708.26723,0.10024
5710.19570,0.09228
5712.12417,0.10382
5714.05264,0.10849
5715.98111,0.09517
5717.90957,0.08529
5719.83804,0.09293
5721.76651,0.09529
5723.69498,0.07483
5725.62345,0.05496
5727.55192,0.04495
5729.48039,0.03765
5731.40886,0.05431
5733.33732,0.09428
5735.26579,0.10988
5737.19426,0.09083
5739.12273,0.08765
5741.05120,0.09634
5742.97967,0.09035
5744.90814,0.09770
5746.83660,0.11959
5748.76507,0.12666
5750.69354,0.11088
5752.62201,0.08287
5754.55048,0.07391
5756.47895,0.09392
5758.40742,0.11588
5760.33588,0.12990
5762.26435,0.15595
5764.19282,0.18398
5766.12129,0.17267
5768.04976,0.13083
5769.97823,0.09569
5771.90670,0.08605
5773.83517,0.10308
5775.76363,0.11829
5777.69210,0.11127
5779.62057,0.10778
5781.54904,0.11800
5783.47751,0.12692
5785.40598,0.13114
5787.33445,0.12813
5789.26291,0.13319
5791.19138,0.14480
5793.11985,0.13081
5795.04832,0.10338
5796.97679,0.09098
5798.90526,0.07678
5800.83373,0.06008
5802.76220,0.07145
5804.69066,0.09029
5806.61913,0.07263
5808.54760,0.04380
5810.47607,0.04242
5812.40454,0.05022
5814.33301,0.04154
5816.26148,0.02591
5818.18994,0.02507
5820.11841,0.05042
5822.04688,0.09349
5823.97535,0.13394
5825.90382,0.15528
5827.83229,0.15248
5829.76076,0.12863
5831.68923,0.09651
5833.61769,0.06697
5835.54616,0.06000
5837.47463,0.07860
5839.40310,0.07860
5841.33157,0.04636
5843.26004,0.02088
5845.18851,0.03978
5847.11697,0.09549
5849.04544,0.12123
5850.97391,0.07967
5852.90238,0.03788
5854.83085,0.03919
5856.75932,0.05104
5858.68779,0.07394
5860.61626,0.11580
5862.54472,0.13010
5864.47319,0.12051
5866.40166,0.12271
5868.33013,0.12512
5870.25860,0.12548
5872.18707,0.11818
5874.11554,0.08517
5876.04400,0.06644
5877.97247,0.09438
5879.90094,0.13254
5881.82941,0.14734
5883.75788,0.13992
5885.68635,0.10925
5887.61482,0.05393
5889.54329,0.02127
5891.47175,0.03988
5893.40022,0.08656
5895.32869,0.12417
5897.25716,0.12965
5899.18563,0.13520
5901.11410,0.14868
5903.04257,0.13378
5904.97103,0.10544
5906.89950,0.08797
5908.82797,0.08066
5910.75644,0.09063
5912.68491,0.10023
5914.61338,0.10565
5916.54185,0.13132
5918.47032,0.16676
5920.39878,0.20004
5922.32725,0.21362
5924.25572,0.18171
5926.18419,0.12821
5928.11266,0.08040
5930.04113,0.03582
5931.96960,0.02479
5933.89806,0.06794
5935.82653,0.12159
5937.75500,0.14973
5939.68347,0.13067
5941.61194,0.07701
5943.54041,0.05598
5945.46888,0.07070
5947.39734,0.09132
5949.32581,0.12989
5951.25428,0.15776
5953.18275,0.14295
5955.11122,0.11325
5957.03969,0.07394
5958.96816,0.01984
5960.89663,-0.02536
5962.82509,-0.01130
5964.75356,0.07206
5966.68203,0.13027
5968.61050,0.11361
5970.53897,0.07900
5972.46744,0.05741
5974.39591,0.05790
5976.32437,0.07138
5978.25284,0.07745
5980.18131,0.08407
5982.10978,0.11116
5984.03825,0.15338
5985.96672,0.16184
5987.89519,0.12733
5989.82366,0.09386
5991.75212,0.06720
5993.68059,0.05576
5995.60906,0.08747
5997.53753,0.12655
5999.46600,0.13344
6001.39447,0.13572
6003.32294,0.14902
6005.25140,0.13660
6007.17987,0.08482
6009.10834,0.04710
6011.03681,0.05244
6012.96528,0.07056
6014.89375,0.08948
6016.82222,0.10448
6018.75069,0.10260
6020.67915,0.09352
6022.60762,0.09610
6024.53609,0.11366
6026.46456,0.12176
6028.39303,0.10285
6030.32150,0.07135
6032.24997,0.06900
6034.17843,0.10277
6036.10690,0.10452
6038.03537,0.05851
6039.96384,0.03442
6041.89231,0.05709
6043.82078,0.09596
6045.74925,0.12422
6047.67772,0.12158
6049.60618,0.08324
6051.53465,0.06045
6053.46312,0.08721
6055.39159,0.12204
6057.32006,0.11188
6059.24853,0.08093
6061.17700,0.06160
6063.10546,0.05539
6065.03393,0.06976
6066.96240,0.08293
6068.89087,0.08668
6070.81934,0.08849
6072.74781,0.06958
6074.67628,0.04508
6076.60475,0.06856
6078.53321,0.11352
6080.46168,0.10034
6082.39015,0.07616
6084.31862,0.12027
6086.24709,0.18129
6088.17556,0.19603
6090.10403,0.15949
6092.03249,0.08001
6093.96096,0.01474
6095.88943,0.00383
6097.81790,0.02575
6099.74637,0.08282
6101.67484,0.15886
6103.60331,0.16740
6105.53177,0.08618
6107.46024,0.01154
6109.38871,0.02559
6111.31718,0.06666
6113.24565,0.03982
6115.17412,-0.02337
6117.10259,-0.04028
6119.03106,0.00712
6120.95952,0.06153
6122.88799,0.09791
6124.81646,0.11810
6126.74493,0.09692
6128.67340,0.06472
6130.60187,0.04166
6132.53034,-0.00173
6134.45880,-0.00718
6136.38727,0.04337
6138.31574,0.06573
6140.24421,0.04147
6142.17268,0.02381
6144.10115,0.01996
6146.02962,0.02282
6147.95809,0.06808
6149.88655,0.14784
6151.81502,0.19654
6153.74349,0.17009
6155.67196,0.08138
6157.60043,0.00649
6159.52890,0.01379
6161.45737,0.06184
6163.38583,0.07490
6165.31430,0.07292
6167.24277,0.08423
6169.17124,0.08754
6171.09971,0.07647
6173.02818,0.06282
6174.95665,0.05685
6176.88512,0.05059
6178.81358,0.05762
6180.74205,0.09384
6182.67052,0.12845
6184.59899,0.16274
6186.52746,0.18836
6188.45593,0.15551
6190.38440,0.09716
6192.31286,0.07367
6194.24133,0.07797
6196.16980,0.06686
6198.09827,0.01251
6200.02674,-0.02095
6201.95521,0.02729
6203.88368,0.10204
6205.81215,0.12777
6207.74061,0.10479
6209.66908,0.08362
6211.59755,0.11266
6213.52602,0.15983
6215.45449,0.15261
6217.38296,0.08397
6219.31143,0.04300
6221.23989,0.06559
6223.16836,0.10322
6225.09683,0.08285
6227.02530,-0.02595
6228.95377,-0.11165
6230.88224,-0.06927
6232.81071,0.04867
6234.73918,0.14516
6236.66764,0.18488
6238.59611,0.15716
6240.52458,0.10594
6242.45305,0.08729
6244.38152,0.09075
6246.30999,0.11013
6248.23846,0.13505
6250.16692,0.12017
6252.09539,0.08385
6254.02386,0.08056
6255.95233,0.08498
6257.88080,0.08684
6259.80927,0.10400
6261.73774,0.11446
6263.66621,0.13704
6265.59467,0.18123
6267.52314,0.17290
6269.45161,0.10909
6271.38008,0.06147
6273.30855,0.03246
6275.23702,-0.00089
6277.16549,-0.00721
6279.09395,0.02188
6281.02242,0.05644
6282.95089,0.08133
6284.87936,0.10858
6286.80783,0.13700
6288.73630,0.16053
6290.66477,0.17053
6292.59323,0.12770
6294.52170,0.06026
6296.45017,0.02801
6298.37864,0.03450
6300.30711,0.07967
6302.23558,0.14401
6304.16405,0.15167
6306.09252,0.09229
6308.02098,0.04284
6309.94945,0.02711
6311.87792,0.02248
6313.80639,0.04797
6315.73486,0.07044
6317.66333,0.04938
6319.59180,0.06254
6321.52026,0.11551
6323.44873,0.11652
6325.37720,0.10980
6327.30567,0.12827
6329.23414,0.12412
6331.16261,0.11299
6333.09108,0.12692
6335.01955,0.14195
6336.94801,0.13149
6338.87648,0.12212
6340.80495,0.11682
6342.73342,0.08915
6344.66189,0.08598
6346.59036,0.14503
6348.51883,0.21955
6350.44729,0.24066
6352.37576,0.17243
6354.30423,0.08053
6356.23270,0.03465
6358.16117,0.03481
6360.08964,0.05544
6362.01811,0.10679
6363.94658,0.18162
6365.87504,0.20411
6367.80351,0.15508
6369.73198,0.09034
6371.66045,0.04383
6373.58892,0.01696
6375.51739,0.00911
6377.44586,0.02365
6379.37432,0.02001
6381.30279,-0.00141
6383.23126,0.00931
6385.15973,0.01698
6387.08820,-0.01471
6389.01667,-0.01811
6390.94514,0.03222
6392.87361,0.06862
6394.80207,0.06209
6396.73054,0.05578
6398.65901,0.08249
6400.58748,0.12313
6402.51595,0.11030
6404.44442,0.05034
6406.37289,0.01155
6408.30135,0.01378
6410.22982,0.04304
6412.15829,0.08178
6414.08676,0.08160
6416.01523,0.04852
6417.94370,0.03102
6419.87217,0.01965
6421.80064,0.02590
6423.72910,0.07648
6425.65757,0.11290
6427.58604,0.08620
6429.51451,0.03881
6431.44298,0.02469
6433.37145,0.03410
6435.29992,0.03301
6437.22838,0.03521
6439.15685,0.05093
6441.08532,0.08389
6443.01379,0.13638
6444.94226,0.14652
6446.87073,0.09568
6448.79920,0.04245
6450.72766,0.04362
6452.65613,0.08851
6454.58460,0.10593
6456.51307,0.07886
6458.44154,0.05182
6460.37001,0.07083
6462.29848,0.10301
6464.22695,0.08682
6466.15541,0.07205
6468.08388,0.11923
6470.01235,0.15844
6471.94082,0.12316
6473.86929,0.08047
6475.79776,0.08125
6477.72623,0.10232
6479.65469,0.09446
6481.58316,0.04475
6483.51163,0.00773
6485.44010,-0.00490
6487.36857,-0.02027
6489.29704,-0.01211
6491.22551,0.04917
6493.15398,0.08588
6495.08244,0.05137
6497.01091,0.03172
6498.93938,0.06343
6500.86785,0.13199
6502.79632,0.18727
6504.72479,0.17650
6506.65326,0.13818
6508.58172,0.12364
6510.51019,0.11888
6512.43866,0.08480
6514.36713,0.03627
6516.29560,0.00438
6518.22407,0.01913
6520.15254,0.09293
6522.08101,0.16158
6524.00947,0.16695
6525.93794,0.12055
6527.86641,0.07546
6529.79488,0.07266
6531.72335,0.05788
6533.65182,0.00413
6535.58029,0.00011
6537.50875,0.05289
6539.43722,0.08727
6541.36569,0.10228
6543.29416,0.12629
6545.22263,0.15338
6547.15110,0.19737
6549.07957,0.24134
6551.00804,0.24267
6552.93650,0.22010
6554.86497,0.16922
6556.79344,0.07942
6558.72191,0.00292
6560.65038,0.03132
6562.57885,0.15674
6564.50732,0.20205
6566.43578,0.09763
6568.36425,0.02645
6570.29272,0.08666
6572.22119,0.17963
6574.14966,0.18838
6576.07813,0.10004
6578.00660,0.02283
6579.93507,0.02278
6581.86353,0.03255
6583.79200,0.06167
6585.72047,0.11728
6587.64894,0.11965
6589.57741,0.07780
6591.50588,0.05277
6593.43435,0.03675
6595.36281,-0.00295
6597.29128,-0.03007
6599.21975,-0.03241
6601.14822,-0.04165
6603.07669,-0.01037
6605.00516,0.09390
6606.93363,0.16711
6608.86210,0.11802
6610.79056,0.04704
6612.71903,0.03279
6614.64750,-0.00670
6616.57597,-0.03744
6618.50444,0.01914
6620.43291,0.03684
6622.36138,-0.03218
6624.28984,-0.05652
6626.21831,0.00666
6628.14678,0.12146
6630.07525,0.23905
6632.00372,0.23818
6633.93219,0.13210
6635.86066,0.05681
6637.78912,0.05232
6639.71759,0.06616
6641.64606,0.10662
6643.57453,0.15204
6645.50300,0.12289
6647.43147,0.06469
6649.35994,0.06980
6651.28841,0.09060
6653.21687,0.06013
6655.14534,0.02089
6657.07381,0.03740
6659.00228,0.03443
6660.93075,-0.00304
6662.85922,0.02250
6664.78769,0.09667
6666.71615,0.17010
6668.64462,0.18438
6670.57309,0.07723
6672.50156,-0.07619
6674.43003,-0.12457
6676.35850,-0.05771
6678.28697,0.03293
6680.21544,0.07361
6682.14390,0.09354
6684.07237,0.14667
6686.00084,0.19315
6687.92931,0.19143
6689.85778,0.13776
6691.78625,0.05297
6693.71472,-0.00509
6695.64318,-0.00989
6697.57165,0.02500
6699.50012,0.05958
6701.42859,0.06116
6703.35706,0.06210
6705.28553,0.06830
6707.21400,0.03058
6709.14247,0.00675
6711.07093,0.08377
6712.99940,0.20806
6714.92787,0.25723
6716.85634,0.20773
6718.78481,0.17019
6720.71328,0.19081
6722.64175,0.19912
6724.57021,0.15796
6726.49868,0.09919
6728.42715,0.04024
6730.35562,0.02243
6732.28409,0.08560
6734.21256,0.14772
6736.14103,0.12840
6738.06950,0.08080
6739.99796,0.10131
6741.92643,0.17048
6743.85490,0.15749
6745.78337,0.08735
6747.71184,0.07659
6749.64031,0.11368
6751.56878,0.07455
6753.49724,-0.05334
6755.42571,-0.13585
6757.35418,-0.10369
6759.28265,0.01338
6761.21112,0.09806
6763.13959,0.07560
6765.06806,0.06860
6766.99653,0.08552
6768.92499,0.01644
6770.85346,-0.06164
6772.78193,-0.01271
6774.71040,0.13052
6776.63887,0.21465
6778.56734,0.17019
6780.49581,0.13307
6782.42427,0.17207
6784.35274,0.20087
6786.28121,0.18993
6788.20968,0.19230
6790.13815,0.20670
6792.06662,0.17065
6793.99509,0.07027
6795.92355,-0.01754
6797.85202,0.00015
6799.78049,0.09587
6801.70896,0.17052
6803.63743,0.21195
6805.56590,0.22842
6807.49437,0.17536
6809.42284,0.08633
6811.35130,0.06206
6813.27977,0.12126
6815.20824,0.15866
6817.13671,0.10295
6819.06518,-0.00405
6820.99365,-0.07791
6822.92212,-0.08912
6824.85058,-0.04099
6826.77905,0.02280
6828.70752,-0.00540
6830.63599,-0.09570
6832.56446,-0.13073
6834.49293,-0.12100
6836.42140,-0.06818
6838.34987,-0.01988
6840.27833,0.00187
6842.20680,0.09770
6844.13527,0.21778
6846.06374,0.21835
6847.99221,0.13441
6849.92068,0.03550
6851.84915,-0.04408
6853.77761,-0.01776
6855.70608,0.10411
6857.63455,0.19104
6859.56302,0.19750
6861.49149,0.16959
6863.41996,0.14793
6865.34843,0.13030
6867.27690,0.10724
6869.20536,0.06899
6871.13383,0.00156
6873.06230,-0.04954
6874.99077,-0.01962
6876.91924,0.01633
6878.84771,0.00060
6880.77618,0.01863
6882.70464,0.08658
6884.63311,0.11860
6886.56158,0.10554
6888.49005,0.10274
6890.41852,0.13342
6892.34699,0.16199
6894.27546,0.13463
6896.20393,0.04591
6898.13239,0.01018
6900.06086,0.06922
6901.98933,0.12342
6903.91780,0.14037
6905.84627,0.10916
6907.77474,0.06552
6909.70321,0.05848
6911.63167,0.08499
6913.56014,0.13553
6915.48861,0.16010
6917.41708,0.19251
6919.34555,0.28954
6921.27402,0.29702
6923.20249,0.20056
6925.13096,0.14067
6927.05942,0.09665
6928.98789,0.02066
6930.91636,-0.04126
6932.84483,-0.05575
6934.77330,-0.06382
6936.70177,-0.04075
6938.63024,0.03589
6940.55870,0.07743
6942.48717,0.07684
6944.41564,0.09250
6946.34411,0.08530
6948.27258,0.08945
6950.20105,0.15964
6952.12952,0.18585
6954.05799,0.02281
6955.98645,-0.23719
6957.91492,-0.30345
6959.84339,-0.13517
6961.77186,0.07362
6963.70033,0.17666
6965.62880,0.19768
6967.55727,0.18774
6969.48573,0.18506
6971.41420,0.14313
6973.34267,0.05589
6975.27114,0.06161
6977.19961,0.12754
6979.12808,0.14103
6981.05655,0.14729
6982.98501,0.17818
6984.91348,0.15258
6986.84195,0.03952
6988.77042,-0.05616
6990.69889,-0.04841
6992.62736,0.02167
6994.55583,0.09232
6996.48430,0.15683
6998.41276,0.21082
7000.34123,0.23565
7002.26970,0.21975
7004.19817,0.14986
7006.12664,0.02266
7008.05511,-0.04762
7009.98358,0.02649
7011.91204,0.07714
7013.84051,-0.01088
7015.76898,-0.05001
7017.69745,0.02204
7019.62592,0.03339
7021.55439,0.01645
7023.48286,0.05136
7025.41133,0.06989
7027.33979,0.10366
7029.26826,0.14667
7031.19673,0.13596
7033.12520,0.09875
7035.05367,0.06098
7036.98214,0.09515
7038.91061,0.15859
7040.83907,0.20094
7042.76754,0.24684
7044.69601,0.25449
7046.62448,0.20165
7048.55295,0.15363
7050.48142,0.14154
7052.40989,0.18285
7054.33836,0.21332
7056.26682,0.11888
7058.19529,-0.03615
7060.12376,-0.07849
7062.05223,-0.00851
7063.98070,0.04824
7065.90917,0.03497
7067.83764,-0.00102
7069.76610,-0.02744
7071.69457,0.00311
7073.62304,0.02628
7075.55151,-0.00229
7077.47998,-0.03128
7079.40845,-0.07194
7081.33692,-0.10398
7083.26539,-0.00902
7085.19385,0.08910
7087.12232,0.04006
7089.05079,0.02636
7090.97926,0.14662
7092.90773,0.18759
7094.83620,0.13862
7096.76467,0.18654
7098.69313,0.25427
7100.62160,0.15186
7102.55007,-0.06583
7104.47854,-0.26340
7106.40701,-0.25793
7108.33548,-0.08979
7110.26395,-0.04863
7112.19242,-0.10849
7114.12088,-0.09807
7116.04935,-0.03878
7117.97782,0.05390
7119.90629,0.16154
7121.83476,0.20266
7123.76323,0.17973
7125.69170,0.14721
7127.62016,0.14195
7129.54863,0.16638
7131.47710,0.22150
7133.40557,0.21449
7135.33404,0.09747
7137.26251,0.05577
7139.19098,0.15959
7141.11944,0.18936
7143.04791,0.08769
7144.97638,0.01444
7146.90485,-0.01911
7148.83332,-0.09313
7150.76179,-0.13600
7152.69026,-0.04871
7154.61873,0.05835
7156.54719,0.05874
7158.47566,0.00346
7160.40413,-0.09531
7162.33260,-0.14832
7164.26107,-0.06226
7166.18954,0.04120
7168.11801,0.05223
7170.04647,0.04211
7171.97494,0.08947
7173.90341,0.16787
7175.83188,0.22036
7177.76035,0.21282
7179.68882,0.08306
7181.61729,-0.08772
7183.54576,-0.07172
7185.47422,0.03749
7187.40269,0.05477
7189.33116,0.04284
7191.25963,0.05242
7193.18810,0.04516
7195.11657,0.12762
7197.04504,0.28012
7198.97350,0.31661
7200.90197,0.31395
7202.83044,0.30331
7204.75891,0.12652
7206.68738,0.00653
7208.61585,0.08122
7210.54432,0.11055
7212.47279,0.06956
7214.40125,0.02798
7216.32972,-0.02448
7218.25819,-0.07621
7220.18666,-0.14421
7222.11513,-0.17122
7224.04360,-0.05593
7225.97207,0.15409
7227.90053,0.21276
7229.82900,0.09692
7231.75747,0.01577
7233.68594,0.05491
7235.61441,0.09281
7237.54288,0.11386
7239.47135,0.20739
7241.39982,0.31179
7243.32828,0.25895
7245.25675,0.03861
7247.18522,-0.18655
7249.11369,-0.22797
7251.04216,-0.02507
7252.97063,0.19643
7254.89910,0.24105
7256.82756,0.21461
7258.75603,0.17140
7260.68450,0.15967
7262.61297,0.19091
7264.54144,0.22475
7266.46991,0.27565
7268.39838,0.33884
7270.32685,0.43867
7272.25531,0.45581
7274.18378,0.29568
7276.11225,0.14222
7278.04072,0.01952
7279.96919,-0.01596
7281.89766,0.12173
7283.82613,0.25041
7285.75459,0.28870
7287.68306,0.29364
7289.61153,0.21033
7291.54000,0.04283
7293.46847,-0.01545
7295.39694,0.04013
7297.32541,0.12168
7299.25387,0.16208
7301.18234,0.08778
7303.11081,-0.03081
7305.03928,-0.02719
7306.96775,0.03502
7308.89622,-0.01869
7310.82469,0.05179
7312.75316,0.32441
7314.68162,0.45650
7316.61009,0.27318
7318.53856,0.09703
7320.46703,0.15228
7322.39550,0.21073
7324.32397,0.10014
7326.25244,-0.00906
7328.18090,0.02840
7330.10937,0.00382
7332.03784,-0.18552
7333.96631,-0.24328
7335.89478,-0.11785
7337.82325,0.03472
7339.75172,0.12591
7341.68019,0.09422
7343.60865,0.04051
7345.53712,0.15476
7347.46559,0.35182
7349.39406,0.35065
7351.32253,0.28625
7353.25100,0.27393
7355.17947,0.16773
7357.10793,-0.07779
7359.03640,-0.24212
7360.96487,-0.15829
7362.89334,-0.02716
7364.82181,0.01602
7366.75028,0.09457
7368.67875,0.23758
7370.60722,0.27996
7372.53568,0.30265
7374.46415,0.50786
7376.39262,0.63574
7378.32109,0.47387
7380.24956,0.30242
7382.17803,0.19799
7384.10650,0.06790
7386.03496,-0.12019
7387.96343,-0.17658
7389.89190,-0.03772
7391.82037,0.11458
7393.74884,0.15992
7395.67731,0.08333
7397.60578,-0.02382
7399.53425,-0.06315
7401.46271,-0.01253
7403.39118,0.03381
7405.31965,0.00359
7407.24812,0.05160
7409.17659,0.20299
7411.10506,0.24896
7413.03353,0.12467
7414.96199,-0.00705
7416.89046,-0.00314
7418.81893,0.10940
7420.74740,0.06999
7422.67587,-0.00728
7424.60434,0.10976
7426.53281,0.23010
7428.46128,0.17080
7430.38974,0.07485
7432.31821,0.02782
7434.24668,-0.10600
7436.17515,-0.20990
7438.10362,-0.16951
7440.03209,-0.13039
7441.96056,-0.10705
7443.88902,-0.02245
7445.81749,-0.07097
7447.74596,-0.26206
7449.67443,-0.24525
7451.60290,-0.00934
7453.53137,0.11584
7455.45984,0.21166
7457.38831,0.28265
7459.31677,0.17218
7461.24524,0.06883
7463.17371,0.09971
7465.10218,0.09171
7467.03065,0.05274
7468.95912,-0.01965
7470.88759,-0.13121
7472.81605,-0.15914
7474.74452,-0.11641
7476.67299,-0.12283
7478.60146,-0.11262
7480.52993,0.04641
7482.45840,0.24203
7484.38687,0.30070
7486.31533,0.26164
7488.24380,0.18201
7490.17227,0.04251
7492.10074,-0.07460
7494.02921,-0.05740
7495.95768,0.07359
7497.88615,0.36289
