399.19301,8.15571
401.12148,0.23209
403.04995,-0.43586
404.97842,-0.22543
406.90689,0.04123
408.83536,0.15904
410.76382,0.24638
412.69229,0.30907
414.62076,0.29778
416.54923,0.21647
418.47770,0.16551
420.40617,0.18601
422.33464,0.19837
424.26311,0.16250
426.19157,0.06644
428.12004,-0.00416
430.04851,-0.03867
431.97698,-0.13921
433.90545,-0.23015
435.83392,-0.17743
437.76239,-0.06959
439.69085,0.00309
441.61932,0.02117
443.54779,0.02490
445.47626,0.03124
447.40473,0.01071
449.33320,-0.03024
451.26167,-0.04894
453.19013,-0.02279
455.11860,0.03008
457.04707,0.08632
458.97554,0.10953
460.90401,0.09310
462.83248,0.05908
464.76095,0.01565
466.68942,-0.03199
468.61788,-0.07645
470.54635,-0.03769
472.47482,0.28996
474.40329,0.71374
476.33176,0.56166
478.26023,0.25494
480.18870,0.09779
482.11716,0.08916
484.04563,0.16330
485.97410,0.20778
487.90257,0.15894
489.83104,0.06899
491.75951,0.01536
493.68798,0.03641
495.61645,0.10009
497.54491,0.10808
499.47338,0.06755
501.40185,0.04109
503.33032,0.03476
505.25879,0.03104
507.18726,0.04479
509.11573,0.07589
511.04419,0.08626
512.97266,0.08455
514.90113,0.09888
516.82960,0.13034
518.75807,0.14724
520.68654,0.12592
522.61501,0.10575
524.54348,0.11398
526.47194,0.15013
528.40041,0.18936
530.32888,0.17839
532.25735,0.15409
534.18582,0.16750
536.11429,0.17857
538.04276,0.16063
539.97122,0.12505
541.89969,0.10366
543.82816,0.12140
545.75663,0.13758
547.68510,0.12841
549.61357,0.11596
551.54204,0.08352
553.47051,0.03919
555.39897,0.02315
557.32744,0.02598
559.25591,0.04362
561.18438,0.07230
563.11285,0.09114
565.04132,0.09826
566.96979,0.09782
568.89825,0.11180
570.82672,0.14362
572.75519,0.16346
574.68366,0.15774
576.61213,0.13111
578.54060,0.10852
580.46907,0.11406
582.39754,0.13733
584.32600,0.14317
586.25447,0.11664
588.18294,0.09285
590.11141,0.08701
592.03988,0.07364
593.96835,0.07736
595.89682,0.11801
597.82528,0.14279
599.75375,0.12717
601.68222,0.11616
603.61069,0.12480
605.53916,0.12100
607.46763,0.10485
609.39610,0.10123
611.32456,0.11181
613.25303,0.11671
615.18150,0.11096
617.10997,0.12198
619.03844,0.16229
620.96691,0.17869
622.89538,0.14482
624.82385,0.11402
626.75231,0.10700
628.68078,0.10244
630.60925,0.10024
632.53772,0.10243
634.46619,0.11420
636.39466,0.13673
638.32313,0.14315
640.25159,0.13814
642.18006,0.14786
644.10853,0.15529
646.03700,0.14896
647.96547,0.13589
649.89394,0.11765
651.82241,0.10656
653.75088,0.11064
655.67934,0.12369
657.60781,0.13541
659.53628,0.12799
661.46475,0.10414
663.39322,0.09984
665.32169,0.12300
667.25016,0.14221
669.17862,0.12708
671.10709,0.11802
673.03556,0.12234
674.96403,0.11633
676.89250,0.10251
678.82097,0.09171
680.74944,0.09258
682.67791,0.11012
684.60637,0.13371
686.53484,0.15363
688.46331,0.15853
690.39178,0.14774
692.32025,0.14210
694.24872,0.14483
696.17719,0.14459
698.10565,0.14507
700.03412,0.14647
701.96259,0.13777
703.89106,0.12605
705.81953,0.12972
707.74800,0.14305
709.67647,0.14448
711.60494,0.13623
713.53340,0.13180
715.46187,0.13179
717.39034,0.13617
719.31881,0.13565
721.24728,0.12407
723.17575,0.11869
725.10422,0.12822
727.03268,0.13694
728.96115,0.13041
730.88962,0.12088
732.81809,0.12715
734.74656,0.14482
736.67503,0.15414
738.60350,0.14997
740.53197,0.14335
742.46043,0.13818
744.38890,0.13822
746.31737,0.14752
748.24584,0.15486
750.17431,0.15008
752.10278,0.14311
754.03125,0.14769
755.95971,0.15598
757.88818,0.15382
759.81665,0.14620
761.74512,0.14408
763.67359,0.14732
765.60206,0.15130
767.53053,0.15110
769.45900,0.14542
771.38746,0.14363
773.31593,0.14825
775.24440,0.14810
777.17287,0.13671
779.10134,0.12473
781.02981,0.13090
782.95828,0.15308
784.88674,0.16593
786.81521,0.15235
788.74368,0.13484
790.67215,0.14731
792.60062,0.16916
794.52909,0.16302
796.45756,0.14719
798.38602,0.14521
800.31449,0.14093
802.24296,0.13407
804.17143,0.13348
806.09990,0.12803
808.02837,0.12072
809.95684,0.12026
811.88531,0.12643
813.81377,0.13774
815.74224,0.15137
817.67071,0.16575
819.59918,0.17395
821.52765,0.17008
823.45612,0.15616
825.38459,0.14060
827.31305,0.13332
829.24152,0.13952
831.16999,0.15451
833.09846,0.16062
835.02693,0.14930
836.95540,0.13383
838.88387,0.13139
840.81234,0.14300
842.74080,0.15023
844.66927,0.14577
846.59774,0.14408
848.52621,0.14934
850.45468,0.15512
852.38315,0.15794
854.31162,0.15678
856.24008,0.15418
858.16855,0.14929
860.09702,0.14409
862.02549,0.14314
863.95396,0.14167
865.88243,0.13580
867.81090,0.13265
869.73937,0.13832
871.66783,0.14254
873.59630,0.14419
875.52477,0.15471
877.45324,0.16345
879.38171,0.15935
881.31018,0.15005
883.23865,0.14818
885.16711,0.15576
887.09558,0.15784
889.02405,0.15256
890.95252,0.15048
892.88099,0.14911
894.80946,0.14408
896.73793,0.13827
898.66640,0.14087
900.59486,0.15440
902.52333,0.16368
904.45180,0.15947
906.38027,0.15208
908.30874,0.15133
910.23721,0.15415
912.16568,0.15505
914.09414,0.15786
916.02261,0.16159
917.95108,0.15446
919.87955,0.13941
921.80802,0.13467
923.73649,0.14290
925.66496,0.15043
927.59343,0.15113
929.52189,0.15242
931.45036,0.15990
933.37883,0.16595
935.30730,0.16544
937.23577,0.16233
939.16424,0.15852
941.09271,0.15785
943.02117,0.16240
944.94964,0.16307
946.87811,0.15596
948.80658,0.15085
950.73505,0.15024
952.66352,0.14994
954.59199,0.15253
956.52045,0.15828
958.44892,0.16015
960.37739,0.15754
962.30586,0.15953
964.23433,0.16523
966.16280,0.16449
968.09127,0.15556
970.01974,0.14637
971.94820,0.14753
973.87667,0.15377
975.80514,0.15031
977.73361,0.14296
979.66208,0.14948
981.59055,0.16379
983.51902,0.16442
985.44748,0.15553
987.37595,0.15198
989.30442,0.15467
991.23289,0.15995
993.16136,0.16151
995.08983,0.15767
997.01830,0.15676
998.94677,0.16168
1000.87523,0.16408
1002.80370,0.15837
1004.73217,0.15056
1006.66064,0.15131
1008.58911,0.16010
1010.51758,0.16683
1012.44605,0.16834
1014.37451,0.16509
1016.30298,0.15988
1018.23145,0.15762
1020.15992,0.16023
1022.08839,0.16741
1024.01686,0.17214
1025.94533,0.17659
1027.87380,0.19013
1029.80226,0.19593
1031.73073,0.18143
1033.65920,0.16890
1035.58767,0.16596
1037.51614,0.16332
1039.44461,0.16496
1041.37308,0.17281
1043.30154,0.18046
1045.23001,0.17951
1047.15848,0.16867
1049.08695,0.15698
1051.01542,0.15460
1052.94389,0.16078
1054.87236,0.16580
1056.80083,0.16685
1058.72929,0.16371
1060.65776,0.16075
1062.58623,0.16651
1064.51470,0.17685
1066.44317,0.18134
1068.37164,0.17751
1070.30011,0.17212
1072.22857,0.17587
1074.15704,0.18719
1076.08551,0.19073
1078.01398,0.17914
1079.94245,0.16345
1081.87092,0.15799
1083.79939,0.16142
1085.72786,0.16350
1087.65632,0.16259
1089.58479,0.16455
1091.51326,0.16779
1093.44173,0.16900
1095.37020,0.17001
1097.29867,0.16688
1099.22714,0.16338
1101.15560,0.16422
1103.08407,0.15893
1105.01254,0.14853
1106.94101,0.15048
1108.86948,0.16929
1110.79795,0.18865
1112.72642,0.19416
1114.65489,0.18660
1116.58335,0.17753
1118.51182,0.17922
1120.44029,0.18606
1122.36876,0.18404
1124.29723,0.17739
1126.22570,0.17235
1128.15417,0.16512
1130.08263,0.16147
1132.01110,0.16693
1133.93957,0.17381
1135.86804,0.17353
1137.79651,0.16836
1139.72498,0.16801
1141.65345,0.17585
1143.58191,0.18248
1145.51038,0.18036
1147.43885,0.17714
1149.36732,0.17611
1151.29579,0.17414
1153.22426,0.17709
1155.15273,0.18534
1157.08120,0.18980
1159.00966,0.18862
1160.93813,0.18521
1162.86660,0.17946
1164.79507,0.17381
1166.72354,0.17056
1168.65201,0.16747
1170.58048,0.16633
1172.50894,0.16674
1174.43741,0.16218
1176.36588,0.15580
1178.29435,0.15682
1180.22282,0.16409
1182.15129,0.16841
1184.07976,0.16788
1186.00823,0.16807
1187.93669,0.16908
1189.86516,0.16977
1191.79363,0.16960
1193.72210,0.16614
1195.65057,0.16414
1197.57904,0.17037
1199.50751,0.17889
1201.43597,0.17840
1203.36444,0.17104
1205.29291,0.16830
1207.22138,0.17432
1209.14985,0.18127
1211.07832,0.18027
1213.00679,0.17418
1214.93526,0.17150
1216.86372,0.17190
1218.79219,0.17260
1220.72066,0.17685
1222.64913,0.18261
1224.57760,0.18255
1226.50607,0.17694
1228.43454,0.17425
1230.36300,0.17975
1232.29147,0.18570
1234.21994,0.18242
1236.14841,0.17602
1238.07688,0.17660
1240.00535,0.17974
1241.93382,0.18070
1243.86229,0.18230
1245.79075,0.18189
1247.71922,0.17739
1249.64769,0.17318
1251.57616,0.17241
1253.50463,0.17436
1255.43310,0.17592
1257.36157,0.17506
1259.29003,0.17417
1261.21850,0.17609
1263.14697,0.18219
1265.07544,0.19481
1267.00391,0.20362
1268.93238,0.19739
1270.86085,0.18857
1272.78932,0.18613
1274.71778,0.18458
1276.64625,0.18281
1278.57472,0.18166
1280.50319,0.18079
1282.43166,0.18059
1284.36013,0.18050
1286.28860,0.17986
1288.21706,0.17920
1290.14553,0.18023
1292.07400,0.18294
1294.00247,0.18259
1295.93094,0.17652
1297.85941,0.17107
1299.78788,0.17139
1301.71634,0.17156
1303.64481,0.16666
1305.57328,0.16598
1307.50175,0.17435
1309.43022,0.18025
1311.35869,0.17961
1313.28716,0.18034
1315.21563,0.18376
1317.14409,0.18636
1319.07256,0.18743
1321.00103,0.18641
1322.92950,0.18349
1324.85797,0.17935
1326.78644,0.17580
1328.71491,0.17498
1330.64337,0.17495
1332.57184,0.17513
1334.50031,0.17636
1336.42878,0.17773
1338.35725,0.18113
1340.28572,0.18387
1342.21419,0.18044
1344.14266,0.17483
1346.07112,0.17206
1347.99959,0.17350
1349.92806,0.17691
1351.85653,0.18010
1353.78500,0.18348
1355.71347,0.18464
1357.64194,0.18357
1359.57040,0.18620
1361.49887,0.19223
1363.42734,0.19180
1365.35581,0.18411
1367.28428,0.17893
1369.21275,0.18046
1371.14122,0.18590
1373.06969,0.19021
1374.99815,0.19171
1376.92662,0.19168
1378.85509,0.18976
1380.78356,0.18600
1382.71203,0.18289
1384.64050,0.18198
1386.56897,0.18306
1388.49743,0.18621
1390.42590,0.19084
1392.35437,0.19516
1394.28284,0.19696
1396.21131,0.19512
1398.13978,0.19092
1400.06825,0.18654
1401.99672,0.18588
1403.92518,0.18960
1405.85365,0.19446
1407.78212,0.19737
1409.71059,0.19757
1411.63906,0.19485
1413.56753,0.19224
1415.49600,0.19303
1417.42446,0.19532
1419.35293,0.19654
1421.28140,0.19659
1423.20987,0.19367
1425.13834,0.18834
1427.06681,0.18453
1428.99528,0.18522
1430.92375,0.19061
1432.85221,0.19516
1434.78068,0.19534
1436.70915,0.19205
1438.63762,0.19143
1440.56609,0.19303
1442.49456,0.19124
1444.42303,0.18729
1446.35149,0.18595
1448.27996,0.18941
1450.20843,0.19571
1452.13690,0.20156
1454.06537,0.20792
1455.99384,0.21660
1457.92231,0.21528
1459.85077,0.20272
1461.77924,0.19739
1463.70771,0.19980
1465.63618,0.20197
1467.56465,0.19947
1469.49312,0.19993
1471.42159,0.20800
1473.35006,0.21516
1475.27852,0.20901
1477.20699,0.19961
1479.13546,0.19524
1481.06393,0.19602
1482.99240,0.19865
1484.92087,0.20124
1486.84934,0.20621
1488.77780,0.21245
1490.70627,0.20965
1492.63474,0.20269
1494.56321,0.20255
1496.49168,0.20633
1498.42015,0.20380
1500.34862,0.19817
1502.27709,0.20055
1504.20555,0.21369
1506.13402,0.22739
1508.06249,0.21620
1509.99096,0.20327
1511.91943,0.19908
1513.84790,0.20036
1515.77637,0.20577
1517.70483,0.20845
1519.63330,0.20939
1521.56177,0.21559
1523.49024,0.21927
1525.41871,0.21649
1527.34718,0.20980
1529.27565,0.20316
1531.20412,0.20075
1533.13258,0.20030
1535.06105,0.20124
1536.98952,0.20730
1538.91799,0.21785
1540.84646,0.22285
1542.77493,0.21887
1544.70340,0.21179
1546.63186,0.20354
1548.56033,0.20005
1550.48880,0.20059
1552.41727,0.20229
1554.34574,0.20603
1556.27421,0.21311
1558.20268,0.22277
1560.13115,0.21327
1562.05961,0.19953
1563.98808,0.19696
1565.91655,0.20076
1567.84502,0.20508
1569.77349,0.20331
1571.70196,0.19741
1573.63043,0.19642
1575.55889,0.19873
1577.48736,0.19840
1579.41583,0.19582
1581.34430,0.19364
1583.27277,0.19044
1585.20124,0.18606
1587.12971,0.18581
1589.05818,0.18870
1590.98664,0.18835
1592.91511,0.18936
1594.84358,0.19542
1596.77205,0.19797
1598.70052,0.19547
1600.62899,0.19644
1602.55746,0.20103
1604.48592,0.20021
1606.41439,0.19529
1608.34286,0.19453
1610.27133,0.19778
1612.19980,0.20276
1614.12827,0.20807
1616.05674,0.20733
1617.98521,0.19821
1619.91367,0.19590
1621.84214,0.20214
1623.77061,0.20696
1625.69908,0.20562
1627.62755,0.20394
1629.55602,0.20302
1631.48449,0.20346
1633.41295,0.20864
1635.34142,0.21796
1637.26989,0.21764
1639.19836,0.20948
1641.12683,0.20570
1643.05530,0.20885
1644.98377,0.21636
1646.91223,0.22554
1648.84070,0.23053
1650.76917,0.23328
1652.69764,0.23694
1654.62611,0.23285
1656.55458,0.22602
1658.48305,0.23004
1660.41152,0.25122
1662.33998,0.27031
1664.26845,0.25573
1666.19692,0.23025
1668.12539,0.22184
1670.05386,0.22541
1671.98233,0.22126
1673.91080,0.21664
1675.83926,0.21617
1677.76773,0.21660
1679.69620,0.21990
1681.62467,0.22835
1683.55314,0.23533
1685.48161,0.22362
1687.41008,0.21183
1689.33855,0.20793
1691.26701,0.20716
1693.19548,0.21152
1695.12395,0.22267
1697.05242,0.23061
1698.98089,0.22793
1700.90936,0.22185
1702.83783,0.21794
1704.76629,0.21489
1706.69476,0.20875
1708.62323,0.20368
1710.55170,0.20348
1712.48017,0.20614
1714.40864,0.21172
1716.33711,0.22127
1718.26558,0.22158
1720.19404,0.21093
1722.12251,0.20346
1724.05098,0.19934
1725.97945,0.19768
1727.90792,0.20019
1729.83639,0.20611
1731.76486,0.21269
1733.69332,0.21535
1735.62179,0.21077
1737.55026,0.20797
1739.47873,0.20967
1741.40720,0.21216
1743.33567,0.21409
1745.26414,0.21583
1747.19261,0.21663
1749.12107,0.21719
1751.04954,0.21444
1752.97801,0.20819
1754.90648,0.20467
1756.83495,0.20524
1758.76342,0.20719
1760.69189,0.20789
1762.62035,0.20549
1764.54882,0.20202
1766.47729,0.20106
1768.40576,0.20352
1770.33423,0.20968
1772.26270,0.21645
1774.19117,0.21665
1776.11964,0.21304
1778.04810,0.20993
1779.97657,0.20706
1781.90504,0.20321
1783.83351,0.19918
1785.76198,0.19746
1787.69045,0.19872
1789.61892,0.20329
1791.54738,0.21165
1793.47585,0.21797
1795.40432,0.21855
1797.33279,0.21609
1799.26126,0.21342
1801.18973,0.21269
1803.11820,0.21133
1805.04666,0.20751
1806.97513,0.20331
1808.90360,0.20154
1810.83207,0.20238
1812.76054,0.20367
1814.68901,0.20458
1816.61748,0.20415
1818.54595,0.19740
1820.47441,0.18781
1822.40288,0.19012
1824.33135,0.20287
1826.25982,0.21151
1828.18829,0.21483
1830.11676,0.21187
1832.04523,0.20200
1833.97369,0.19656
1835.90216,0.19875
1837.83063,0.20058
1839.75910,0.19855
1841.68757,0.19833
1843.61604,0.19952
1845.54451,0.19825
1847.47298,0.19857
1849.40144,0.20186
1851.32991,0.20358
1853.25838,0.20212
1855.18685,0.20043
1857.11532,0.19996
1859.04379,0.20020
1860.97226,0.20208
1862.90072,0.20457
1864.82919,0.20608
1866.75766,0.20839
1868.68613,0.20926
1870.61460,0.20610
1872.54307,0.20374
1874.47154,0.20276
1876.40001,0.20145
1878.32847,0.20008
1880.25694,0.19873
1882.18541,0.19819
1884.11388,0.19922
1886.04235,0.20125
1887.97082,0.20467
1889.89929,0.20706
1891.82775,0.20624
1893.75622,0.20512
1895.68469,0.20332
1897.61316,0.20034
1899.54163,0.19890
1901.47010,0.19974
1903.39857,0.20206
1905.32704,0.20518
1907.25550,0.20746
1909.18397,0.20774
1911.11244,0.20717
1913.04091,0.20650
1914.96938,0.20631
1916.89785,0.20665
1918.82632,0.20576
1920.75478,0.20513
1922.68325,0.20612
1924.61172,0.20602
1926.54019,0.20478
1928.46866,0.20424
1930.39713,0.20434
1932.32560,0.20452
1934.25407,0.20456
1936.18253,0.20466
1938.11100,0.20488
1940.03947,0.20492
1941.96794,0.20469
1943.89641,0.20481
1945.82488,0.20450
1947.75335,0.20266
1949.68181,0.20195
1951.61028,0.20381
1953.53875,0.20597
1955.46722,0.20690
1957.39569,0.20593
1959.32416,0.20371
1961.25263,0.20211
1963.18110,0.20230
1965.10956,0.20516
1967.03803,0.20864
1968.96650,0.20895
1970.89497,0.20680
1972.82344,0.20449
1974.75191,0.20343
1976.68038,0.20374
1978.60884,0.20367
1980.53731,0.20288
1982.46578,0.20241
1984.39425,0.20283
1986.32272,0.20301
1988.25119,0.20251
1990.17966,0.20318
1992.10812,0.20521
1994.03659,0.20754
1995.96506,0.20846
1997.89353,0.20786
1999.82200,0.20883
2001.75047,0.20932
2003.67894,0.20646
2005.60741,0.20384
2007.53587,0.20278
2009.46434,0.20243
2011.39281,0.20362
2013.32128,0.20572
2015.24975,0.20769
2017.17822,0.20884
2019.10669,0.20784
2021.03515,0.20508
2022.96362,0.20242
2024.89209,0.20052
2026.82056,0.20016
2028.74903,0.20240
2030.67750,0.20570
2032.60597,0.20662
2034.53444,0.20474
2036.46290,0.20312
2038.39137,0.20266
2040.31984,0.20226
2042.24831,0.20164
2044.17678,0.20169
2046.10525,0.20313
2048.03372,0.20390
2049.96218,0.20279
2051.89065,0.20162
2053.81912,0.20165
2055.74759,0.20269
2057.67606,0.20297
2059.60453,0.20182
2061.53300,0.20099
2063.46147,0.20130
2065.38993,0.20228
2067.31840,0.20235
2069.24687,0.20127
2071.17534,0.20123
2073.10381,0.20266
2075.03228,0.20428
2076.96075,0.20559
2078.88921,0.20673
2080.81768,0.20568
2082.74615,0.20169
2084.67462,0.19926
2086.60309,0.19991
2088.53156,0.20179
2090.46003,0.20371
2092.38850,0.20371
2094.31696,0.20302
2096.24543,0.20352
2098.17390,0.20391
2100.10237,0.20353
2102.03084,0.20337
2103.95931,0.20422
2105.88778,0.20510
2107.81624,0.20550
2109.74471,0.20641
2111.67318,0.20647
2113.60165,0.20496
2115.53012,0.20365
2117.45859,0.20347
2119.38706,0.20579
2121.31553,0.20934
2123.24399,0.21160
2125.17246,0.21275
2127.10093,0.21206
2129.02940,0.20948
2130.95787,0.20691
2132.88634,0.20731
2134.81481,0.20975
2136.74327,0.20980
2138.67174,0.20801
2140.60021,0.20613
2142.52868,0.20490
2144.45715,0.20608
2146.38562,0.20759
2148.31409,0.20658
2150.24255,0.20548
2152.17102,0.20593
2154.09949,0.20574
2156.02796,0.20447
2157.95643,0.20312
2159.88490,0.20282
2161.81337,0.20447
2163.74184,0.20660
2165.67030,0.20750
2167.59877,0.20578
2169.52724,0.20198
2171.45571,0.20030
2173.38418,0.20149
2175.31265,0.20255
2177.24112,0.20377
2179.16958,0.20614
2181.09805,0.20787
2183.02652,0.20806
2184.95499,0.20832
2186.88346,0.20923
2188.81193,0.20929
2190.74040,0.20746
2192.66887,0.20458
2194.59733,0.20327
2196.52580,0.20423
2198.45427,0.20501
2200.38274,0.20448
2202.31121,0.20330
2204.23968,0.20246
2206.16815,0.20316
2208.09661,0.20440
2210.02508,0.20422
2211.95355,0.20282
2213.88202,0.20318
2215.81049,0.20631
2217.73896,0.20691
2219.66743,0.20376
2221.59590,0.20251
2223.52436,0.20422
2225.45283,0.20575
2227.38130,0.20612
2229.30977,0.20666
2231.23824,0.20735
2233.16671,0.20643
2235.09518,0.20435
2237.02364,0.20286
2238.95211,0.20189
2240.88058,0.20127
2242.80905,0.20201
2244.73752,0.20390
2246.66599,0.20501
2248.59446,0.20438
2250.52293,0.20315
2252.45139,0.20264
2254.37986,0.20241
2256.30833,0.20272
2258.23680,0.20384
2260.16527,0.20419
2262.09374,0.20287
2264.02221,0.20050
2265.95067,0.19872
2267.87914,0.19779
2269.80761,0.19868
2271.73608,0.20212
2273.66455,0.20339
2275.59302,0.20241
2277.52149,0.20166
2279.44996,0.19961
2281.37842,0.19934
2283.30689,0.20106
2285.23536,0.20075
2287.16383,0.20051
2289.09230,0.20130
2291.02077,0.19981
2292.94924,0.19669
2294.87770,0.19533
2296.80617,0.19565
2298.73464,0.19343
2300.66311,0.18738
2302.59158,0.18166
2304.52005,0.17852
2306.44852,0.17811
2308.37699,0.17853
2310.30545,0.17540
2312.23392,0.16887
2314.16239,0.16357
2316.09086,0.16083
2318.01933,0.15618
2319.94780,0.15056
2321.87627,0.14895
2323.80473,0.14591
2325.73320,0.14190
2327.66167,0.14435
2329.59014,0.14478
2331.51861,0.13510
2333.44708,0.12696
2335.37555,0.12922
2337.30401,0.13314
2339.23248,0.13020
2341.16095,0.12722
2343.08942,0.13092
2345.01789,0.13837
2346.94636,0.14545
2348.87483,0.15122
2350.80330,0.15395
2352.73176,0.14640
2354.66023,0.13542
2356.58870,0.14161
2358.51717,0.14652
2360.44564,0.13909
2362.37411,0.13769
2364.30258,0.13153
2366.23104,0.11901
2368.15951,0.11729
2370.08798,0.12333
2372.01645,0.13513
2373.94492,0.15172
2375.87339,0.16536
2377.80186,0.17576
2379.73033,0.18484
2381.65879,0.19245
2383.58726,0.19948
2385.51573,0.20572
2387.44420,0.20926
2389.37267,0.21010
2391.30114,0.21049
2393.22961,0.21046
2395.15807,0.20849
2397.08654,0.20515
2399.01501,0.20237
2400.94348,0.20049
2402.87195,0.20054
2404.80042,0.20426
2406.72889,0.20839
2408.65736,0.20860
2410.58582,0.20609
2412.51429,0.20383
2414.44276,0.20276
2416.37123,0.20361
2418.29970,0.20606
2420.22817,0.20705
2422.15664,0.20677
2424.08510,0.20931
2426.01357,0.21289
2427.94204,0.21192
2429.87051,0.20766
2431.79898,0.20534
2433.72745,0.20599
2435.65592,0.20791
2437.58439,0.20924
2439.51285,0.20805
2441.44132,0.20623
2443.36979,0.20670
2445.29826,0.20770
2447.22673,0.20705
2449.15520,0.20578
2451.08367,0.20541
2453.01213,0.20709
2454.94060,0.21016
2456.86907,0.20995
2458.79754,0.20613
2460.72601,0.20508
2462.65448,0.20740
2464.58295,0.20812
2466.51142,0.20607
2468.43988,0.20421
2470.36835,0.20429
2472.29682,0.20517
2474.22529,0.20579
2476.15376,0.20599
2478.08223,0.20597
2480.01070,0.20594
2481.93916,0.20464
2483.86763,0.20171
2485.79610,0.20091
2487.72457,0.20273
2489.65304,0.20243
2491.58151,0.20030
2493.50998,0.20085
2495.43844,0.20452
2497.36691,0.20789
2499.29538,0.20958
2501.22385,0.21129
2503.15232,0.21248
2505.08079,0.21206
2507.00926,0.21202
2508.93773,0.21247
2510.86619,0.21219
2512.79466,0.21243
2514.72313,0.21258
2516.65160,0.21060
2518.58007,0.20840
2520.50854,0.20829
2522.43701,0.20835
2524.36547,0.20715
2526.29394,0.20678
2528.22241,0.20854
2530.15088,0.21040
2532.07935,0.21057
2534.00782,0.21039
2535.93629,0.21026
2537.86476,0.21063
2539.79322,0.21083
2541.72169,0.20763
2543.65016,0.20525
2545.57863,0.20762
2547.50710,0.20973
2549.43557,0.20975
2551.36404,0.21011
2553.29250,0.21038
2555.22097,0.20944
2557.14944,0.20930
2559.07791,0.21078
2561.00638,0.21091
2562.93485,0.20955
2564.86332,0.20864
2566.79179,0.20844
2568.72025,0.21042
2570.64872,0.21414
2572.57719,0.21514
2574.50566,0.21309
2576.43413,0.21217
2578.36260,0.21335
2580.29107,0.21442
2582.21953,0.21337
2584.14800,0.21083
2586.07647,0.20974
2588.00494,0.20995
2589.93341,0.20974
2591.86188,0.21054
2593.79035,0.21271
2595.71882,0.21385
2597.64728,0.21344
2599.57575,0.21252
2601.50422,0.21102
2603.43269,0.20936
2605.36116,0.20862
2607.28963,0.20896
2609.21810,0.20912
2611.14656,0.20831
2613.07503,0.20877
2615.00350,0.21182
2616.93197,0.21413
2618.86044,0.21264
2620.78891,0.20904
2622.71738,0.20656
2624.64585,0.20632
2626.57431,0.20845
2628.50278,0.21138
2630.43125,0.21134
2632.35972,0.20925
2634.28819,0.20975
2636.21666,0.21123
2638.14513,0.20978
2640.07359,0.20812
2642.00206,0.21062
2643.93053,0.21473
2645.85900,0.21623
2647.78747,0.21644
2649.71594,0.21642
2651.64441,0.21539
2653.57288,0.21424
2655.50134,0.21408
2657.42981,0.21494
2659.35828,0.21610
2661.28675,0.21635
2663.21522,0.21616
2665.14369,0.21690
2667.07216,0.21647
2669.00062,0.21456
2670.92909,0.21466
2672.85756,0.21489
2674.78603,0.21172
2676.71450,0.20920
2678.64297,0.21065
2680.57144,0.21235
2682.49990,0.21352
2684.42837,0.21671
2686.35684,0.22020
2688.28531,0.22110
2690.21378,0.22079
2692.14225,0.22197
2694.07072,0.22385
2695.99919,0.22286
2697.92765,0.21893
2699.85612,0.21718
2701.78459,0.21817
2703.71306,0.21764
2705.64153,0.21722
2707.57000,0.22054
2709.49847,0.22317
2711.42693,0.22193
2713.35540,0.22191
2715.28387,0.22234
2717.21234,0.21888
2719.14081,0.21592
2721.06928,0.21689
2722.99775,0.22003
2724.92622,0.22515
2726.85468,0.22774
2728.78315,0.22422
2730.71162,0.22153
2732.64009,0.22170
2734.56856,0.21947
2736.49703,0.21637
2738.42550,0.21749
2740.35396,0.22182
2742.28243,0.22438
2744.21090,0.22373
2746.13937,0.22229
2748.06784,0.22246
2749.99631,0.22323
2751.92478,0.22203
2753.85325,0.22091
2755.78171,0.22121
2757.71018,0.21993
2759.63865,0.21969
2761.56712,0.22261
2763.49559,0.22359
2765.42406,0.22360
2767.35253,0.22495
2769.28099,0.22321
2771.20946,0.21972
2773.13793,0.21956
2775.06640,0.22286
2776.99487,0.22760
2778.92334,0.22971
2780.85181,0.22715
2782.78028,0.22354
2784.70874,0.22247
2786.63721,0.22458
2788.56568,0.22754
2790.49415,0.22894
2792.42262,0.22756
2794.35109,0.22252
2796.27956,0.21739
2798.20802,0.21688
2800.13649,0.21786
2802.06496,0.21712
2803.99343,0.21942
2805.92190,0.22580
2807.85037,0.23094
2809.77884,0.23136
2811.70731,0.22733
2813.63577,0.22410
2815.56424,0.22566
2817.49271,0.22835
2819.42118,0.22753
2821.34965,0.22478
2823.27812,0.22372
2825.20659,0.22417
2827.13505,0.22583
2829.06352,0.22756
2830.99199,0.22554
2832.92046,0.22177
2834.84893,0.22123
2836.77740,0.22285
2838.70587,0.22342
2840.63433,0.22295
2842.56280,0.22368
2844.49127,0.22615
2846.41974,0.22870
2848.34821,0.22864
2850.27668,0.22702
2852.20515,0.22931
2854.13362,0.23228
2856.06208,0.22915
2857.99055,0.22437
2859.91902,0.22388
2861.84749,0.22560
2863.77596,0.22558
2865.70443,0.22448
2867.63290,0.22376
2869.56136,0.22203
2871.48983,0.22233
2873.41830,0.22722
2875.34677,0.23042
2877.27524,0.22945
2879.20371,0.22883
2881.13218,0.22923
2883.06065,0.22842
2884.98911,0.22681
2886.91758,0.22619
2888.84605,0.22530
2890.77452,0.22400
2892.70299,0.22606
2894.63146,0.22790
2896.55993,0.22466
2898.48839,0.22194
2900.41686,0.22171
2902.34533,0.21862
2904.27380,0.21372
2906.20227,0.21361
2908.13074,0.21811
2910.05921,0.22159
2911.98768,0.22406
2913.91614,0.22608
2915.84461,0.22739
2917.77308,0.23083
2919.70155,0.23343
2921.63002,0.23127
2923.55849,0.22917
2925.48696,0.22725
2927.41542,0.21335
2929.34389,0.19638
2931.27236,0.20445
2933.20083,0.22550
2935.12930,0.22857
2937.05777,0.22213
2938.98624,0.22242
2940.91471,0.22421
2942.84317,0.22160
2944.77164,0.21715
2946.70011,0.21595
2948.62858,0.21801
2950.55705,0.21972
2952.48552,0.22094
2954.41399,0.22130
2956.34245,0.21841
2958.27092,0.21509
2960.19939,0.21652
2962.12786,0.22074
2964.05633,0.22366
2965.98480,0.22520
2967.91327,0.22552
2969.84174,0.22589
2971.77020,0.22900
2973.69867,0.23346
2975.62714,0.23180
2977.55561,0.22418
2979.48408,0.22083
2981.41255,0.22204
2983.34102,0.22285
2985.26948,0.22467
2987.19795,0.22752
2989.12642,0.22831
2991.05489,0.22587
2992.98336,0.22575
2994.91183,0.23310
2996.84030,0.24024
2998.76877,0.23991
3000.69723,0.23740
3002.62570,0.23668
3004.55417,0.23413
3006.48264,0.22711
3008.41111,0.22086
3010.33958,0.21947
3012.26805,0.21574
3014.19651,0.20348
3016.12498,0.19138
3018.05345,0.19719
3019.98192,0.21875
3021.91039,0.23321
3023.83886,0.23282
3025.76733,0.22785
3027.69579,0.22860
3029.62426,0.23525
3031.55273,0.24042
3033.48120,0.24147
3035.40967,0.23922
3037.33814,0.23374
3039.26661,0.22802
3041.19508,0.22503
3043.12354,0.22545
3045.05201,0.22739
3046.98048,0.22758
3048.90895,0.22797
3050.83742,0.22874
3052.76589,0.22766
3054.69436,0.22481
3056.62282,0.22021
3058.55129,0.22191
3060.47976,0.23051
3062.40823,0.23459
3064.33670,0.23221
3066.26517,0.22726
3068.19364,0.22550
3070.12211,0.22805
3072.05057,0.22991
3073.97904,0.22848
3075.90751,0.22306
3077.83598,0.21765
3079.76445,0.21520
3081.69292,0.21482
3083.62139,0.21457
3085.54985,0.21417
3087.47832,0.21857
3089.40679,0.22670
3091.33526,0.23081
3093.26373,0.22645
3095.19220,0.22039
3097.12067,0.22339
3099.04914,0.23147
3100.97760,0.23366
3102.90607,0.22887
3104.83454,0.22694
3106.76301,0.23189
3108.69148,0.23688
3110.61995,0.23694
3112.54842,0.23153
3114.47688,0.22582
3116.40535,0.22653
3118.33382,0.23173
3120.26229,0.23305
3122.19076,0.23044
3124.11923,0.23214
3126.04770,0.23766
3127.97617,0.24084
3129.90463,0.24121
3131.83310,0.24019
3133.76157,0.23818
3135.69004,0.23698
3137.61851,0.23476
3139.54698,0.22931
3141.47545,0.22691
3143.40391,0.23167
3145.33238,0.23771
3147.26085,0.23787
3149.18932,0.23420
3151.11779,0.23368
3153.04626,0.23668
3154.97473,0.23872
3156.90320,0.23759
3158.83166,0.23593
3160.76013,0.23512
3162.68860,0.23456
3164.61707,0.23526
3166.54554,0.23653
3168.47401,0.23799
3170.40248,0.23994
3172.33094,0.24134
3174.25941,0.24014
3176.18788,0.23622
3178.11635,0.23339
3180.04482,0.23452
3181.97329,0.23915
3183.90176,0.24379
3185.83022,0.24567
3187.75869,0.24310
3189.68716,0.23676
3191.61563,0.23477
3193.54410,0.23777
3195.47257,0.23537
3197.40104,0.22971
3199.32951,0.23084
3201.25797,0.23318
3203.18644,0.23111
3205.11491,0.23330
3207.04338,0.23849
3208.97185,0.23718
3210.90032,0.23430
3212.82879,0.23578
3214.75725,0.23772
3216.68572,0.23789
3218.61419,0.23592
3220.54266,0.23143
3222.47113,0.22726
3224.39960,0.22522
3226.32807,0.22485
3228.25654,0.22722
3230.18500,0.23314
3232.11347,0.23903
3234.04194,0.24111
3235.97041,0.23991
3237.89888,0.23677
3239.82735,0.23393
3241.75582,0.23416
3243.68428,0.23709
3245.61275,0.24071
3247.54122,0.24098
3249.46969,0.23434
3251.39816,0.22511
3253.32663,0.22117
3255.25510,0.22394
3257.18357,0.22740
3259.11203,0.22798
3261.04050,0.23015
3262.96897,0.23463
3264.89744,0.23556
3266.82591,0.23185
3268.75438,0.22648
3270.68285,0.22386
3272.61131,0.22922
3274.53978,0.23642
3276.46825,0.23786
3278.39672,0.23867
3280.32519,0.23807
3282.25366,0.23188
3284.18213,0.22699
3286.11060,0.22859
3288.03906,0.23114
3289.96753,0.22774
3291.89600,0.22368
3293.82447,0.22525
3295.75294,0.22773
3297.68141,0.22845
3299.60988,0.22843
3301.53834,0.22976
3303.46681,0.23192
3305.39528,0.22867
3307.32375,0.22291
3309.25222,0.22271
3311.18069,0.22482
3313.10916,0.22431
3315.03763,0.22356
3316.96609,0.22267
3318.89456,0.22312
3320.82303,0.22989
3322.75150,0.23609
3324.67997,0.23584
3326.60844,0.23622
3328.53691,0.23722
3330.46537,0.23437
3332.39384,0.22996
3334.32231,0.22646
3336.25078,0.22623
3338.17925,0.22955
3340.10772,0.23242
3342.03619,0.23598
3343.96466,0.24066
3345.89312,0.23929
3347.82159,0.23373
3349.75006,0.23241
3351.67853,0.23112
3353.60700,0.22570
3355.53547,0.22592
3357.46394,0.23256
3359.39240,0.23598
3361.32087,0.23557
3363.24934,0.23312
3365.17781,0.23022
3367.10628,0.23084
3369.03475,0.23398
3370.96322,0.23337
3372.89168,0.23051
3374.82015,0.23223
3376.74862,0.23428
3378.67709,0.23355
3380.60556,0.23441
3382.53403,0.23555
3384.46250,0.23427
3386.39097,0.23057
3388.31943,0.22683
3390.24790,0.22730
3392.17637,0.23021
3394.10484,0.23031
3396.03331,0.22932
3397.96178,0.23186
3399.89025,0.23780
3401.81871,0.24047
3403.74718,0.23360
3405.67565,0.22550
3407.60412,0.22557
3409.53259,0.22722
3411.46106,0.22572
3413.38953,0.22453
3415.31800,0.22580
3417.24646,0.22987
3419.17493,0.23310
3421.10340,0.23237
3423.03187,0.23067
3424.96034,0.22968
3426.88881,0.22777
3428.81728,0.22674
3430.74574,0.22572
3432.67421,0.22129
3434.60268,0.21767
3436.53115,0.21636
3438.45962,0.21589
3440.38809,0.21978
3442.31656,0.22444
3444.24503,0.22374
3446.17349,0.22100
3448.10196,0.22004
3450.03043,0.21905
3451.95890,0.21579
3453.88737,0.21427
3455.81584,0.21766
3457.74431,0.21829
3459.67277,0.21416
3461.60124,0.21320
3463.52971,0.21377
3465.45818,0.21112
3467.38665,0.20994
3469.31512,0.21366
3471.24359,0.21531
3473.17206,0.20845
3475.10052,0.20152
3477.02899,0.20434
3478.95746,0.21017
3480.88593,0.20845
3482.81440,0.20193
3484.74287,0.19994
3486.67134,0.20089
3488.59980,0.19844
3490.52827,0.19741
3492.45674,0.20193
3494.38521,0.20570
3496.31368,0.20758
3498.24215,0.20771
3500.17062,0.20592
3502.09909,0.20921
3504.02755,0.21162
3505.95602,0.20402
3507.88449,0.19679
3509.81296,0.19560
3511.74143,0.19552
3513.66990,0.19683
3515.59837,0.19611
3517.52683,0.18804
3519.45530,0.18308
3521.38377,0.18823
3523.31224,0.19286
3525.24071,0.19155
3527.16918,0.19080
3529.09765,0.19243
3531.02611,0.19282
3532.95458,0.19162
3534.88305,0.18953
3536.81152,0.18576
3538.73999,0.18036
3540.66846,0.17719
3542.59693,0.17912
3544.52540,0.18142
3546.45386,0.18102
3548.38233,0.18251
3550.31080,0.18491
3552.23927,0.18388
3554.16774,0.18133
3556.09621,0.18074
3558.02468,0.18219
3559.95314,0.18491
3561.88161,0.18988
3563.81008,0.19650
3565.73855,0.19735
3567.66702,0.18461
3569.59549,0.16935
3571.52396,0.16328
3573.45243,0.16648
3575.38089,0.17465
3577.30936,0.17836
3579.23783,0.17594
3581.16630,0.17389
3583.09477,0.17433
3585.02324,0.17745
3586.95171,0.17878
3588.88017,0.17047
3590.80864,0.16136
3592.73711,0.15795
3594.66558,0.15724
3596.59405,0.15733
3598.52252,0.15932
3600.45099,0.16288
3602.37946,0.16584
3604.30792,0.16827
3606.23639,0.17237
3608.16486,0.17549
3610.09333,0.17434
3612.02180,0.17184
3613.95027,0.16727
3615.87874,0.16085
3617.80720,0.15788
3619.73567,0.15964
3621.66414,0.16031
3623.59261,0.15784
3625.52108,0.15472
3627.44955,0.15694
3629.37802,0.16509
3631.30649,0.16555
3633.23495,0.16051
3635.16342,0.15486
3637.09189,0.15146
3639.02036,0.14925
3640.94883,0.14652
3642.87730,0.14709
3644.80577,0.15356
3646.73423,0.16739
3648.66270,0.18253
3650.59117,0.17477
3652.51964,0.15959
3654.44811,0.15568
3656.37658,0.15783
3658.30505,0.15826
3660.23352,0.15595
3662.16198,0.15130
3664.09045,0.14790
3666.01892,0.15177
3667.94739,0.15940
3669.87586,0.15732
3671.80433,0.15048
3673.73280,0.15465
3675.66126,0.15916
3677.58973,0.15297
3679.51820,0.14808
3681.44667,0.14517
3683.37514,0.14102
3685.30361,0.14002
3687.23208,0.14757
3689.16055,0.15758
3691.08901,0.15516
3693.01748,0.14798
3694.94595,0.14239
3696.87442,0.13723
3698.80289,0.13523
3700.73136,0.13615
3702.65983,0.13736
3704.58829,0.14060
3706.51676,0.14630
3708.44523,0.15283
3710.37370,0.15854
3712.30217,0.15545
3714.23064,0.14724
3716.15911,0.14449
3718.08757,0.14681
3720.01604,0.15015
3721.94451,0.14951
3723.87298,0.14719
3725.80145,0.14505
3727.72992,0.13964
3729.65839,0.13625
3731.58686,0.13653
3733.51532,0.13615
3735.44379,0.13826
3737.37226,0.14206
3739.30073,0.14244
3741.22920,0.14386
3743.15767,0.15090
3745.08614,0.16110
3747.01460,0.16691
3748.94307,0.17395
3750.87154,0.17553
3752.80001,0.16076
3754.72848,0.14986
3756.65695,0.14679
3758.58542,0.14583
3760.51389,0.14425
3762.44235,0.14406
3764.37082,0.14676
3766.29929,0.14759
3768.22776,0.14333
3770.15623,0.13742
3772.08470,0.13428
3774.01317,0.13627
3775.94163,0.14382
3777.87010,0.15479
3779.79857,0.15953
3781.72704,0.15348
3783.65551,0.14628
3785.58398,0.14067
3787.51245,0.13652
3789.44092,0.13627
3791.36938,0.13655
3793.29785,0.13499
3795.22632,0.13785
3797.15479,0.14627
3799.08326,0.15266
3801.01173,0.15693
3802.94020,0.15702
3804.86866,0.15425
3806.79713,0.15084
3808.72560,0.14201
3810.65407,0.13476
3812.58254,0.13671
3814.51101,0.14735
3816.43948,0.15891
3818.36795,0.16072
3820.29641,0.15305
3822.22488,0.14278
3824.15335,0.14291
3826.08182,0.14607
3828.01029,0.14239
3829.93876,0.13804
3831.86723,0.14021
3833.79569,0.14665
3835.72416,0.15567
3837.65263,0.16473
3839.58110,0.15999
3841.50957,0.14585
3843.43804,0.13934
3845.36651,0.13834
3847.29498,0.13826
3849.22344,0.14081
3851.15191,0.14631
3853.08038,0.15766
3855.00885,0.16061
3856.93732,0.14766
3858.86579,0.13515
3860.79426,0.12956
3862.72272,0.13168
3864.65119,0.13644
3866.57966,0.13800
3868.50813,0.13721
3870.43660,0.13659
3872.36507,0.13904
3874.29354,0.13990
3876.22200,0.13685
3878.15047,0.13806
3880.07894,0.14490
3882.00741,0.14749
3883.93588,0.14481
3885.86435,0.13824
3887.79282,0.12752
3889.72129,0.11970
3891.64975,0.11953
3893.57822,0.12429
3895.50669,0.12683
3897.43516,0.12724
3899.36363,0.12773
3901.29210,0.12985
3903.22057,0.13339
3905.14903,0.13432
3907.07750,0.13319
3909.00597,0.13282
3910.93444,0.13090
3912.86291,0.12625
3914.79138,0.12292
3916.71985,0.12388
3918.64832,0.12367
3920.57678,0.11891
3922.50525,0.11633
3924.43372,0.11885
3926.36219,0.12220
3928.29066,0.12352
3930.21913,0.12441
3932.14760,0.12409
3934.07606,0.12045
3936.00453,0.11809
3937.93300,0.11863
3939.86147,0.11786
3941.78994,0.11620
3943.71841,0.11712
3945.64688,0.11993
3947.57535,0.12447
3949.50381,0.12915
3951.43228,0.12599
3953.36075,0.11873
3955.28922,0.12105
3957.21769,0.12885
3959.14616,0.12796
3961.07463,0.12087
3963.00309,0.11713
3964.93156,0.11729
3966.86003,0.11716
3968.78850,0.11588
3970.71697,0.11483
3972.64544,0.11467
3974.57391,0.11634
3976.50238,0.11788
3978.43084,0.11742
3980.35931,0.12042
3982.28778,0.12623
3984.21625,0.12458
3986.14472,0.11784
3988.07319,0.11644
3990.00166,0.11925
3991.93012,0.11831
3993.85859,0.11388
3995.78706,0.11285
3997.71553,0.11554
3999.64400,0.11878
4001.57247,0.12099
4003.50094,0.12099
4005.42941,0.12002
4007.35787,0.11849
4009.28634,0.11526
4011.21481,0.11141
4013.14328,0.10829
4015.07175,0.10673
4017.00022,0.11010
4018.92869,0.11698
4020.85715,0.11636
4022.78562,0.10728
4024.71409,0.10330
4026.64256,0.10652
4028.57103,0.10749
4030.49950,0.10560
4032.42797,0.10510
4034.35644,0.10749
4036.28490,0.10885
4038.21337,0.10489
4040.14184,0.10067
4042.07031,0.09922
4043.99878,0.09947
4045.92725,0.10385
4047.85572,0.10790
4049.78418,0.10697
4051.71265,0.10437
4053.64112,0.10156
4055.56959,0.10096
4057.49806,0.10451
4059.42653,0.10799
4061.35500,0.10866
4063.28346,0.10636
4065.21193,0.10187
4067.14040,0.10043
4069.06887,0.10394
4070.99734,0.10737
4072.92581,0.10931
4074.85428,0.11075
4076.78275,0.11001
4078.71121,0.10728
4080.63968,0.10352
4082.56815,0.09838
4084.49662,0.09511
4086.42509,0.09566
4088.35356,0.09556
4090.28203,0.09394
4092.21049,0.09658
4094.13896,0.10485
4096.06743,0.11118
4097.99590,0.11121
4099.92437,0.10821
4101.85284,0.10585
4103.78131,0.10580
4105.70978,0.10486
4107.63824,0.10262
4109.56671,0.10078
4111.49518,0.09768
4113.42365,0.09525
4115.35212,0.09351
4117.28059,0.09282
4119.20906,0.09719
4121.13752,0.10010
4123.06599,0.09389
4124.99446,0.08763
4126.92293,0.09141
4128.85140,0.09866
4130.77987,0.10171
4132.70834,0.10396
4134.63681,0.10570
4136.56527,0.10511
4138.49374,0.10415
4140.42221,0.10323
4142.35068,0.10232
4144.27915,0.10041
4146.20762,0.09679
4148.13609,0.09249
4150.06455,0.08949
4151.99302,0.08869
4153.92149,0.09007
4155.84996,0.09567
4157.77843,0.10085
4159.70690,0.09768
4161.63537,0.09041
4163.56384,0.08836
4165.49230,0.08893
4167.42077,0.08729
4169.34924,0.08942
4171.27771,0.09492
4173.20618,0.09581
4175.13465,0.09019
4177.06312,0.08337
4178.99158,0.08369
4180.92005,0.08888
4182.84852,0.09034
4184.77699,0.08942
4186.70546,0.09086
4188.63393,0.09238
4190.56240,0.09311
4192.49087,0.09740
4194.41933,0.10150
4196.34780,0.09698
4198.27627,0.08766
4200.20474,0.08207
4202.13321,0.08034
4204.06168,0.08122
4205.99015,0.08168
4207.91861,0.07943
4209.84708,0.07833
4211.77555,0.07835
4213.70402,0.07713
4215.63249,0.07618
4217.56096,0.07624
4219.48943,0.07696
4221.41789,0.08040
4223.34636,0.08636
4225.27483,0.08815
4227.20330,0.08250
4229.13177,0.07719
4231.06024,0.07838
4232.98871,0.08018
4234.91718,0.07810
4236.84564,0.07337
4238.77411,0.06686
4240.70258,0.06177
4242.63105,0.05943
4244.55952,0.06225
4246.48799,0.07117
4248.41646,0.07830
4250.34492,0.08125
4252.27339,0.08397
4254.20186,0.08384
4256.13033,0.07750
4258.05880,0.07066
4259.98727,0.06983
4261.91574,0.07288
4263.84421,0.07588
4265.77267,0.07928
4267.70114,0.08551
4269.62961,0.09098
4271.55808,0.08914
4273.48655,0.08323
4275.41502,0.08033
4277.34349,0.08058
4279.27195,0.08144
4281.20042,0.08080
4283.12889,0.07568
4285.05736,0.06903
4286.98583,0.06761
4288.91430,0.07144
4290.84277,0.07647
4292.77124,0.07775
4294.69970,0.07405
4296.62817,0.06997
4298.55664,0.06818
4300.48511,0.06801
4302.41358,0.06433
4304.34205,0.05494
4306.27052,0.05040
4308.19898,0.05605
4310.12745,0.06411
4312.05592,0.07074
4313.98439,0.07336
4315.91286,0.06854
4317.84133,0.06061
4319.76980,0.05434
4321.69827,0.05307
4323.62673,0.05796
4325.55520,0.06388
4327.48367,0.06653
4329.41214,0.06600
4331.34061,0.06647
4333.26908,0.06757
4335.19755,0.06274
4337.12601,0.05397
4339.05448,0.04809
4340.98295,0.04556
4342.91142,0.04666
4344.83989,0.05457
4346.76836,0.06408
4348.69683,0.07005
4350.62530,0.07455
4352.55376,0.07276
4354.48223,0.06430
4356.41070,0.05671
4358.33917,0.05069
4360.26764,0.04830
4362.19611,0.05005
4364.12458,0.04886
4366.05304,0.04334
4367.98151,0.03979
4369.90998,0.04134
4371.83845,0.04430
4373.76692,0.04725
4375.69539,0.05094
4377.62386,0.05025
4379.55232,0.04723
4381.48079,0.05012
4383.40926,0.05470
4385.33773,0.05463
4387.26620,0.05375
4389.19467,0.05528
4391.12314,0.05686
4393.05161,0.05833
4394.98007,0.06009
4396.90854,0.05828
4398.83701,0.05410
4400.76548,0.05060
4402.69395,0.04691
4404.62242,0.04684
4406.55089,0.04829
4408.47935,0.04357
4410.40782,0.03810
4412.33629,0.04117
4414.26476,0.04723
4416.19323,0.04147
4418.12170,0.02855
4420.05017,0.02878
4421.97864,0.03953
4423.90710,0.04463
4425.83557,0.04412
4427.76404,0.04265
4429.69251,0.03932
4431.62098,0.03477
4433.54945,0.02918
4435.47792,0.02373
4437.40638,0.02355
4439.33485,0.03014
4441.26332,0.03607
4443.19179,0.03655
4445.12026,0.03675
4447.04873,0.03863
4448.97720,0.03961
4450.90567,0.03843
4452.83413,0.03600
4454.76260,0.03531
4456.69107,0.03787
4458.61954,0.04176
4460.54801,0.04369
4462.47648,0.04519
4464.40495,0.04433
4466.33341,0.03824
4468.26188,0.03228
4470.19035,0.02868
4472.11882,0.02723
4474.04729,0.02775
4475.97576,0.02974
4477.90423,0.03158
4479.83270,0.02688
4481.76116,0.02019
4483.68963,0.02161
4485.61810,0.02369
4487.54657,0.01984
4489.47504,0.01798
4491.40351,0.01992
4493.33198,0.02075
4495.26044,0.02094
4497.18891,0.02156
4499.11738,0.02052
4501.04585,0.02099
4502.97432,0.02468
4504.90279,0.02633
4506.83126,0.02822
4508.75973,0.03156
4510.68819,0.03039
4512.61666,0.02480
4514.54513,0.01872
4516.47360,0.01332
4518.40207,0.00902
4520.33054,0.01312
4522.25901,0.02961
4524.18747,0.04380
4526.11594,0.04123
4528.04441,0.02990
4529.97288,0.02531
4531.90135,0.02728
4533.82982,0.02702
4535.75829,0.02056
4537.68676,0.01259
4539.61522,0.01390
4541.54369,0.02243
4543.47216,0.02336
4545.40063,0.01723
4547.32910,0.01738
4549.25757,0.02421
4551.18604,0.02907
4553.11450,0.02740
4555.04297,0.01998
4556.97144,0.01415
4558.89991,0.01402
4560.82838,0.01273
4562.75685,0.00621
4564.68532,0.00397
4566.61378,0.01274
4568.54225,0.02227
4570.47072,0.02344
4572.39919,0.02069
4574.32766,0.01972
4576.25613,0.01771
4578.18460,0.01173
4580.11307,0.00686
4582.04153,0.00828
4583.97000,0.01515
4585.89847,0.02298
4587.82694,0.02281
4589.75541,0.01152
4591.68388,0.00028
4593.61235,-0.00178
4595.54081,0.00788
4597.46928,0.02590
4599.39775,0.03829
4601.32622,0.03755
4603.25469,0.02770
4605.18316,0.01657
4607.11163,0.00832
4609.04010,0.00187
4610.96856,0.00370
4612.89703,0.01470
4614.82550,0.02213
4616.75397,0.02042
4618.68244,0.01498
4620.61091,0.01486
4622.53938,0.02123
4624.46784,0.02462
4626.39631,0.02363
4628.32478,0.02270
4630.25325,0.01691
4632.18172,0.00415
4634.11019,-0.00675
4636.03866,-0.00784
4637.96713,-0.00172
4639.89559,0.00297
4641.82406,0.00551
4643.75253,0.00679
4645.68100,0.00648
4647.60947,0.00801
4649.53794,0.00261
4651.46641,-0.00932
4653.39487,-0.00768
4655.32334,0.00749
4657.25181,0.01987
4659.18028,0.02206
4661.10875,0.01659
4663.03722,0.01382
4664.96569,0.01825
4666.89416,0.01422
4668.82262,-0.00502
4670.75109,-0.01869
4672.67956,-0.01827
4674.60803,-0.01145
4676.53650,0.00381
4678.46497,0.02209
4680.39344,0.02600
4682.32190,0.01842
4684.25037,0.01603
4686.17884,0.01993
4688.10731,0.02412
4690.03578,0.02132
4691.96425,0.00518
4693.89272,-0.01140
4695.82119,-0.01197
4697.74965,-0.00197
4699.67812,0.00699
4701.60659,0.01011
4703.53506,0.00713
4705.46353,0.00587
4707.39200,0.00983
4709.32047,0.01292
4711.24893,0.01502
4713.17740,0.01788
4715.10587,0.01576
4717.03434,0.00994
4718.96281,0.00918
4720.89128,0.01271
4722.81975,0.01584
4724.74821,0.01417
4726.67668,0.00524
4728.60515,-0.00327
4730.53362,-0.00222
4732.46209,0.00743
4734.39056,0.01436
4736.31903,0.01289
4738.24750,0.01030
4740.17596,0.01336
4742.10443,0.02052
4744.03290,0.02467
4745.96137,0.02415
4747.88984,0.02059
4749.81831,0.01502
4751.74678,0.01615
4753.67524,0.02758
4755.60371,0.03550
4757.53218,0.02901
4759.46065,0.02195
4761.38912,0.02493
4763.31759,0.02446
4765.24606,0.01725
4767.17453,0.00735
4769.10299,-0.00621
4771.03146,-0.01529
4772.95993,-0.01630
4774.88840,-0.01128
4776.81687,-0.00169
4778.74534,0.00663
4780.67381,0.01050
4782.60227,0.01239
4784.53074,0.01222
4786.45921,0.00515
4788.38768,-0.00194
4790.31615,0.00099
4792.24462,0.00605
4794.17309,0.01086
4796.10156,0.01823
4798.03002,0.01911
4799.95849,0.01516
4801.88696,0.01551
4803.81543,0.01710
4805.74390,0.01226
4807.67237,0.00443
4809.60084,0.00446
4811.52930,0.00868
4813.45777,0.00636
4815.38624,-0.00011
4817.31471,-0.00488
4819.24318,-0.00749
4821.17165,-0.00726
4823.10012,-0.00370
4825.02859,0.00280
4826.95705,0.00889
4828.88552,0.00719
4830.81399,0.00049
4832.74246,0.00233
4834.67093,0.01345
4836.59940,0.02154
4838.52787,0.02651
4840.45633,0.03269
4842.38480,0.03268
4844.31327,0.02633
4846.24174,0.02186
4848.17021,0.01850
4850.09868,0.01341
4852.02715,0.00405
4853.95562,-0.00897
4855.88408,-0.01613
4857.81255,-0.01121
4859.74102,0.00525
4861.66949,0.02185
4863.59796,0.02546
4865.52643,0.02292
4867.45490,0.02456
4869.38336,0.02415
4871.31183,0.01523
4873.24030,0.00987
4875.16877,0.01470
4877.09724,0.02025
4879.02571,0.02531
4880.95418,0.02544
4882.88265,0.01408
4884.81111,0.00138
4886.73958,-0.00350
4888.66805,-0.00550
4890.59652,-0.00757
4892.52499,-0.00021
4894.45346,0.01242
4896.38193,0.01695
4898.31039,0.01922
4900.23886,0.02197
4902.16733,0.01563
4904.09580,0.00088
4906.02427,-0.00519
4907.95274,0.00753
4909.88121,0.02007
4911.80967,0.01352
4913.73814,0.00226
4915.66661,0.00805
4917.59508,0.02008
4919.52355,0.01843
4921.45202,0.00936
4923.38049,0.00408
4925.30896,0.00048
4927.23742,0.00032
4929.16589,0.00943
4931.09436,0.01967
4933.02283,0.02157
4934.95130,0.01430
4936.87977,0.00635
4938.80824,0.00955
4940.73670,0.00912
4942.66517,-0.00347
4944.59364,-0.00943
4946.52211,-0.01079
4948.45058,-0.01635
4950.37905,-0.01106
4952.30752,0.00443
4954.23599,0.00959
4956.16445,0.00509
4958.09292,-0.00006
4960.02139,-0.00234
4961.94986,0.00161
4963.87833,0.00317
4965.80680,-0.00245
4967.73527,-0.00376
4969.66373,0.00115
4971.59220,0.00771
4973.52067,0.01764
4975.44914,0.02192
4977.37761,0.01792
4979.30608,0.01818
4981.23455,0.02260
4983.16302,0.02583
4985.09148,0.02735
4987.01995,0.02499
4988.94842,0.02032
4990.87689,0.02144
4992.80536,0.02706
4994.73383,0.02655
4996.66230,0.02500
4998.59076,0.03124
5000.51923,0.03285
5002.44770,0.02396
5004.37617,0.02224
5006.30464,0.02662
5008.23311,0.01712
5010.16158,0.00216
5012.09005,0.00420
5014.01851,0.01756
5015.94698,0.02227
5017.87545,0.01841
5019.80392,0.01275
5021.73239,0.01142
5023.66086,0.02465
5025.58933,0.03864
5027.51779,0.04065
5029.44626,0.04616
5031.37473,0.05205
5033.30320,0.03695
5035.23167,0.01143
5037.16014,0.00718
5039.08861,0.02240
5041.01708,0.02948
5042.94554,0.02200
5044.87401,0.01489
5046.80248,0.01407
5048.73095,0.00829
5050.65942,0.00071
5052.58789,0.00356
5054.51636,0.00648
5056.44482,-0.00331
5058.37329,-0.01871
5060.30176,-0.02437
5062.23023,-0.01567
5064.15870,-0.00301
5066.08717,-0.00464
5068.01564,-0.01399
5069.94410,0.00107
5071.87257,0.03661
5073.80104,0.05987
5075.72951,0.06121
5077.65798,0.05228
5079.58645,0.04322
5081.51492,0.03267
5083.44339,0.02260
5085.37185,0.02195
5087.30032,0.02388
5089.22879,0.01948
5091.15726,0.01452
5093.08573,0.01297
5095.01420,0.02725
5096.94267,0.05819
5098.87113,0.06996
5100.79960,0.05290
5102.72807,0.03409
5104.65654,0.02354
5106.58501,0.02139
5108.51348,0.02520
5110.44195,0.03183
5112.37042,0.04260
5114.29888,0.04419
5116.22735,0.02679
5118.15582,-0.00179
5120.08429,-0.01715
5122.01276,0.00488
5123.94123,0.03524
5125.86970,0.03405
5127.79816,0.01156
5129.72663,-0.00337
5131.65510,0.00624
5133.58357,0.02361
5135.51204,0.01595
5137.44051,0.00258
5139.36898,0.01715
5141.29745,0.03496
5143.22591,0.02961
5145.15438,0.02239
5147.08285,0.03016
5149.01132,0.03752
5150.93979,0.03565
5152.86826,0.03411
5154.79673,0.02992
5156.72519,0.02355
5158.65366,0.03338
5160.58213,0.05092
5162.51060,0.05380
5164.43907,0.04375
5166.36754,0.03280
5168.29601,0.02836
5170.22448,0.02710
5172.15294,0.01917
5174.08141,0.00945
5176.00988,0.01386
5177.93835,0.03045
5179.86682,0.02901
5181.79529,0.00598
5183.72376,0.00266
5185.65222,0.02733
5187.58069,0.04662
5189.50916,0.05230
5191.43763,0.05676
5193.36610,0.06118
5195.29457,0.05618
5197.22304,0.03698
5199.15151,0.01918
5201.07997,0.02090
5203.00844,0.03291
5204.93691,0.04030
5206.86538,0.04749
5208.79385,0.04619
5210.72232,0.02777
5212.65079,0.01805
5214.57925,0.01743
5216.50772,0.01067
5218.43619,0.02226
5220.36466,0.05153
5222.29313,0.05484
5224.22160,0.03725
5226.15007,0.02846
5228.07854,0.02490
5230.00700,0.02239
5231.93547,0.01992
5233.86394,0.01746
5235.79241,0.02358
5237.72088,0.03095
5239.64935,0.03595
5241.57782,0.03834
5243.50628,0.03070
5245.43475,0.02394
5247.36322,0.03480
5249.29169,0.05521
5251.22016,0.06453
5253.14863,0.06790
5255.07710,0.07657
5257.00556,0.07535
5258.93403,0.05849
5260.86250,0.04901
5262.79097,0.05300
5264.71944,0.05164
5266.64791,0.04672
5268.57638,0.04459
5270.50485,0.03593
5272.43331,0.02010
5274.36178,0.01465
5276.29025,0.03415
5278.21872,0.06307
5280.14719,0.07449
5282.07566,0.06720
5284.00413,0.05907
5285.93259,0.05743
5287.86106,0.05016
5289.78953,0.03086
5291.71800,0.01249
5293.64647,0.00790
5295.57494,0.01658
5297.50341,0.02829
5299.43188,0.03756
5301.36034,0.04883
5303.28881,0.05091
5305.21728,0.03574
5307.14575,0.01876
5309.07422,0.01465
5311.00269,0.02679
5312.93116,0.04087
5314.85962,0.04559
5316.78809,0.05053
5318.71656,0.05116
5320.64503,0.04245
5322.57350,0.03638
5324.50197,0.03172
5326.43044,0.03523
5328.35891,0.05593
5330.28737,0.07105
5332.21584,0.06907
5334.14431,0.06464
5336.07278,0.06485
5338.00125,0.05718
5339.92972,0.04223
5341.85819,0.03628
5343.78665,0.03775
5345.71512,0.04183
5347.64359,0.04175
5349.57206,0.03470
5351.50053,0.03816
5353.42900,0.06193
5355.35747,0.07714
5357.28594,0.06629
5359.21440,0.04710
5361.14287,0.04184
5363.07134,0.05507
5364.99981,0.05955
5366.92828,0.05023
5368.85675,0.05322
5370.78522,0.06402
5372.71368,0.06603
5374.64215,0.06551
5376.57062,0.07111
5378.49909,0.08369
5380.42756,0.10330
5382.35603,0.11328
5384.28450,0.10548
5386.21297,0.09994
5388.14143,0.09892
5390.06990,0.09125
5391.99837,0.08120
5393.92684,0.08526
5395.85531,0.10379
5397.78378,0.11606
5399.71225,0.11534
5401.64071,0.10117
5403.56918,0.09137
5405.49765,0.09849
5407.42612,0.10010
5409.35459,0.09224
5411.28306,0.09572
5413.21153,0.09940
5415.13999,0.07969
5417.06846,0.05906
5418.99693,0.05828
5420.92540,0.06281
5422.85387,0.05615
5424.78234,0.05209
5426.71081,0.06196
5428.63928,0.06637
5430.56774,0.05934
5432.49621,0.05832
5434.42468,0.07123
5436.35315,0.09216
5438.28162,0.10220
5440.21009,0.10434
5442.13856,0.10718
5444.06702,0.09756
5445.99549,0.07248
5447.92396,0.04086
5449.85243,0.02385
5451.78090,0.03322
5453.70937,0.04266
5455.63784,0.05076
5457.56631,0.06788
5459.49477,0.07146
5461.42324,0.05467
5463.35171,0.02498
5465.28018,0.00998
5467.20865,0.03804
5469.13712,0.07539
5471.06559,0.08429
5472.99405,0.08305
5474.92252,0.09124
5476.85099,0.11126
5478.77946,0.12433
5480.70793,0.11392
5482.63640,0.09761
5484.56487,0.08873
5486.49334,0.08849
5488.42180,0.11826
5490.35027,0.17198
5492.27874,0.20057
5494.20721,0.17666
5496.13568,0.12916
5498.06415,0.09982
5499.99262,0.10131
5501.92108,0.10874
5503.84955,0.10207
5505.77802,0.08960
5507.70649,0.07499
5509.63496,0.05921
5511.56343,0.06498
5513.49190,0.09420
5515.42037,0.12099
5517.34883,0.13029
5519.27730,0.11090
5521.20577,0.08254
5523.13424,0.07283
5525.06271,0.07227
5526.99118,0.07318
5528.91965,0.08249
5530.84811,0.09603
5532.77658,0.09262
5534.70505,0.07024
5536.63352,0.05299
5538.56199,0.04219
5540.49046,0.03007
5542.41893,0.03434
5544.34740,0.05933
5546.27586,0.07889
5548.20433,0.07808
5550.13280,0.06988
5552.06127,0.07047
5553.98974,0.07519
5555.91821,0.07470
5557.84668,0.08064
5559.77514,0.09245
5561.70361,0.08747
5563.63208,0.07063
5565.56055,0.06288
5567.48902,0.06747
5569.41749,0.08189
5571.34596,0.08122
5573.27443,0.05462
5575.20289,0.04479
5577.13136,0.06131
5579.05983,0.07225
5580.98830,0.07291
5582.91677,0.07304
5584.84524,0.07160
5586.77371,0.07315
5588.70217,0.08472
5590.63064,0.09876
5592.55911,0.11087
5594.48758,0.13228
5596.41605,0.14749
5598.34452,0.12330
5600.27299,0.08057
5602.20145,0.06346
5604.12992,0.08627
5606.05839,0.11315
5607.98686,0.09718
5609.91533,0.06805
5611.84380,0.06216
5613.77227,0.06039
5615.70074,0.04902
5617.62920,0.04492
5619.55767,0.05817
5621.48614,0.06230
5623.41461,0.05127
5625.34308,0.05700
5627.27155,0.07466
5629.20002,0.08178
5631.12848,0.08599
5633.05695,0.08142
5634.98542,0.07545
5636.91389,0.09002
5638.84236,0.10597
5640.77083,0.11351
5642.69930,0.11846
5644.62777,0.11352
5646.55623,0.10366
5648.48470,0.09186
5650.41317,0.06709
5652.34164,0.05051
5654.27011,0.06628
5656.19858,0.09436
5658.12705,0.12087
5660.05551,0.13697
5661.98398,0.13165
5663.91245,0.12764
5665.84092,0.13378
5667.76939,0.11940
5669.69786,0.09322
5671.62633,0.08830
5673.55480,0.07653
5675.48326,0.04669
5677.41173,0.04896
5679.34020,0.08140
5681.26867,0.08847
5683.19714,0.05765
5685.12561,0.02301
5687.05408,0.01977
5688.98254,0.05381
5690.91101,0.08778
5692.83948,0.10273
5694.76795,0.10529
5696.69642,0.09614
5698.62489,0.08286
5700.55336,0.05976
5702.48183,0.03290
5704.41029,0.03205
5706.33876,0.06079
5708.26723,0.09701
5710.19570,0.12146
5712.12417,0.12133
5714.05264,0.09796
5715.98111,0.08672
5717.90957,0.10587
5719.83804,0.11899
5721.76651,0.09904
5723.69498,0.06780
5725.62345,0.05837
5727.55192,0.07861
5729.48039,0.10146
5731.40886,0.10882
5733.33732,0.10262
5735.26579,0.07827
5737.19426,0.05875
5739.12273,0.05712
5741.05120,0.05082
5742.97967,0.04414
5744.90814,0.06185
5746.83660,0.09502
5748.76507,0.11007
5750.69354,0.11674
5752.62201,0.12236
5754.55048,0.10334
5756.47895,0.07084
5758.40742,0.04903
5760.33588,0.04025
5762.26435,0.03362
5764.19282,0.04804
5766.12129,0.09560
5768.04976,0.11915
5769.97823,0.08739
5771.90670,0.04099
5773.83517,0.02160
5775.76363,0.04365
5777.69210,0.08501
5779.62057,0.09586
5781.54904,0.09365
5783.47751,0.11058
5785.40598,0.11106
5787.33445,0.08861
5789.26291,0.08002
5791.19138,0.08504
5793.11985,0.07821
5795.04832,0.07046
5796.97679,0.08281
5798.90526,0.09948
5800.83373,0.12346
5802.76220,0.13438
5804.69066,0.09654
5806.61913,0.07901
5808.54760,0.10672
5810.47607,0.11123
5812.40454,0.09940
5814.33301,0.10435
5816.26148,0.10348
5818.18994,0.08058
5820.11841,0.06835
5822.04688,0.08560
5823.97535,0.09858
5825.90382,0.09879
5827.83229,0.11249
5829.76076,0.13920
5831.68923,0.14932
5833.61769,0.14112
5835.54616,0.12607
5837.47463,0.11231
5839.40310,0.12486
5841.33157,0.15317
5843.26004,0.15735
5845.18851,0.13444
5847.11697,0.10539
5849.04544,0.09072
5850.97391,0.09584
5852.90238,0.10157
5854.83085,0.09388
5856.75932,0.08378
5858.68779,0.08603
5860.61626,0.10260
5862.54472,0.13200
5864.47319,0.14629
5866.40166,0.12798
5868.33013,0.11460
5870.25860,0.13610
5872.18707,0.16663
5874.11554,0.15523
5876.04400,0.12448
5877.97247,0.13840
5879.90094,0.15382
5881.82941,0.11614
5883.75788,0.06645
5885.68635,0.05039
5887.61482,0.07286
5889.54329,0.11025
5891.47175,0.11527
5893.40022,0.08898
5895.32869,0.07102
5897.25716,0.06819
5899.18563,0.07896
5901.11410,0.07897
5903.04257,0.05502
5904.97103,0.05536
5906.89950,0.07747
5908.82797,0.09124
5910.75644,0.11841
5912.68491,0.13898
5914.61338,0.13016
5916.54185,0.12866
5918.47032,0.10931
5920.39878,0.06325
5922.32725,0.04975
5924.25572,0.06567
5926.18419,0.08716
5928.11266,0.11000
5930.04113,0.12466
5931.96960,0.12984
5933.89806,0.12041
5935.82653,0.08942
5937.75500,0.06253
5939.68347,0.07228
5941.61194,0.12599
5943.54041,0.19047
5945.46888,0.20226
5947.39734,0.15667
5949.32581,0.10285
5951.25428,0.07614
5953.18275,0.08452
5955.11122,0.11114
5957.03969,0.12127
5958.96816,0.09299
5960.89663,0.05989
5962.82509,0.06514
5964.75356,0.07305
5966.68203,0.03863
5968.61050,0.01562
5970.53897,0.04832
5972.46744,0.07933
5974.39591,0.08948
5976.32437,0.10127
5978.25284,0.09215
5980.18131,0.05516
5982.10978,0.04138
5984.03825,0.09127
5985.96672,0.16029
5987.89519,0.16795
5989.82366,0.12838
5991.75212,0.11663
5993.68059,0.13838
5995.60906,0.14448
5997.53753,0.12270
5999.46600,0.11472
6001.39447,0.12824
6003.32294,0.13811
6005.25140,0.13116
6007.17987,0.10619
6009.10834,0.09771
6011.03681,0.10724
6012.96528,0.11298
6014.89375,0.12968
6016.82222,0.12243
6018.75069,0.08009
6020.67915,0.07390
6022.60762,0.08269
6024.53609,0.06096
6026.46456,0.04736
6028.39303,0.07360
6030.32150,0.11271
6032.24997,0.11302
6034.17843,0.07038
6036.10690,0.04142
6038.03537,0.05993
6039.96384,0.09356
6041.89231,0.11786
6043.82078,0.12575
6045.74925,0.13152
6047.67772,0.14999
6049.60618,0.12501
6051.53465,0.06548
6053.46312,0.04782
6055.39159,0.05652
6057.32006,0.07057
6059.24853,0.10499
6061.17700,0.12921
6063.10546,0.09464
6065.03393,0.05008
6066.96240,0.05280
6068.89087,0.05166
6070.81934,0.03817
6072.74781,0.06278
6074.67628,0.11029
6076.60475,0.14737
6078.53321,0.16769
6080.46168,0.16906
6082.39015,0.16173
6084.31862,0.12731
6086.24709,0.07263
6088.17556,0.06862
6090.10403,0.11071
6092.03249,0.14440
6093.96096,0.16274
6095.88943,0.18107
6097.81790,0.19963
6099.74637,0.20173
6101.67484,0.16340
6103.60331,0.10728
6105.53177,0.08523
6107.46024,0.09425
6109.38871,0.09535
6111.31718,0.05650
6113.24565,0.00344
6115.17412,0.00148
6117.10259,0.04696
6119.03106,0.08270
6120.95952,0.09210
6122.88799,0.10172
6124.81646,0.09961
6126.74493,0.06742
6128.67340,0.04670
6130.60187,0.08286
6132.53034,0.13216
6134.45880,0.13395
6136.38727,0.12156
6138.31574,0.13805
6140.24421,0.14543
6142.17268,0.11928
6144.10115,0.09520
6146.02962,0.07447
6147.95809,0.03880
6149.88655,0.02629
6151.81502,0.07375
6153.74349,0.11669
6155.67196,0.09906
6157.60043,0.07390
6159.52890,0.07832
6161.45737,0.08010
6163.38583,0.07033
6165.31430,0.08478
6167.24277,0.12290
6169.17124,0.14588
6171.09971,0.12055
6173.02818,0.07439
6174.95665,0.05523
6176.88512,0.05355
6178.81358,0.07757
6180.74205,0.11522
6182.67052,0.12862
6184.59899,0.15055
6186.52746,0.16227
6188.45593,0.10441
6190.38440,0.05525
6192.31286,0.07466
6194.24133,0.11355
6196.16980,0.13657
6198.09827,0.09347
6200.02674,-0.01643
6201.95521,-0.06883
6203.88368,-0.01722
6205.81215,0.03874
6207.74061,0.07545
6209.66908,0.12905
6211.59755,0.15361
6213.52602,0.13534
6215.45449,0.12430
6217.38296,0.13298
6219.31143,0.14145
6221.23989,0.14326
6223.16836,0.14348
6225.09683,0.14080
6227.02530,0.14434
6228.95377,0.17237
6230.88224,0.19964
6232.81071,0.17677
6234.73918,0.13301
6236.66764,0.12902
6238.59611,0.14801
6240.52458,0.13736
6242.45305,0.10329
6244.38152,0.07885
6246.30999,0.06234
6248.23846,0.06185
6250.16692,0.06289
6252.09539,0.05295
6254.02386,0.08056
6255.95233,0.12398
6257.88080,0.12093
6259.80927,0.11712
6261.73774,0.14658
6263.66621,0.15471
6265.59467,0.12280
6267.52314,0.06943
6269.45161,0.00932
6271.38008,-0.02987
6273.30855,-0.03874
6275.23702,-0.04254
6277.16549,-0.05006
6279.09395,-0.01977
6281.02242,0.03664
6282.95089,0.05246
6284.87936,0.05953
6286.80783,0.11281
6288.73630,0.14721
6290.66477,0.12600
6292.59323,0.11446
6294.52170,0.14516
6296.45017,0.16110
6298.37864,0.12856
6300.30711,0.13075
6302.23558,0.21102
6304.16405,0.26858
6306.09252,0.25938
6308.02098,0.22811
6309.94945,0.19952
6311.87792,0.18245
6313.80639,0.16765
6315.73486,0.11336
6317.66333,0.04850
6319.59180,0.04556
6321.52026,0.08582
6323.44873,0.10273
6325.37720,0.09236
6327.30567,0.11028
6329.23414,0.19895
6331.16261,0.27836
6333.09108,0.22938
6335.01955,0.12277
6336.94801,0.08765
6338.87648,0.10615
6340.80495,0.09341
6342.73342,0.03572
6344.66189,-0.00744
6346.59036,0.00114
6348.51883,0.04131
6350.44729,0.06516
6352.37576,0.06048
6354.30423,0.07379
6356.23270,0.11855
6358.16117,0.15412
6360.08964,0.15065
6362.01811,0.10513
6363.94658,0.03866
6365.87504,0.00907
6367.80351,0.02908
6369.73198,0.08763
6371.66045,0.20041
6373.58892,0.27555
6375.51739,0.22722
6377.44586,0.16180
6379.37432,0.16102
6381.30279,0.16644
6383.23126,0.12878
6385.15973,0.08903
6387.08820,0.09281
6389.01667,0.12058
6390.94514,0.14430
6392.87361,0.16147
6394.80207,0.15415
6396.73054,0.11849
6398.65901,0.09502
6400.58748,0.10181
6402.51595,0.09963
6404.44442,0.09435
6406.37289,0.14460
6408.30135,0.19446
6410.22982,0.15360
6412.15829,0.08313
6414.08676,0.05309
6416.01523,0.03167
6417.94370,0.01056
6419.87217,0.02384
6421.80064,0.05612
6423.72910,0.07547
6425.65757,0.10854
6427.58604,0.15939
6429.51451,0.16271
6431.44298,0.13558
6433.37145,0.13379
6435.29992,0.11431
6437.22838,0.05025
6439.15685,0.01146
6441.08532,0.06642
6443.01379,0.14231
6444.94226,0.10029
6446.87073,0.01225
6448.79920,0.01196
6450.72766,0.07113
6452.65613,0.11288
6454.58460,0.11537
6456.51307,0.08173
6458.44154,0.06063
6460.37001,0.07553
6462.29848,0.06827
6464.22695,0.06399
6466.15541,0.11542
6468.08388,0.14640
6470.01235,0.09424
6471.94082,0.00920
6473.86929,-0.04600
6475.79776,-0.08685
6477.72623,-0.10510
6479.65469,-0.07018
6481.58316,-0.01006
6483.51163,0.05850
6485.44010,0.10920
6487.36857,0.12791
6489.29704,0.14834
6491.22551,0.17326
6493.15398,0.13799
6495.08244,0.02875
6497.01091,-0.05429
6498.93938,-0.04048
6500.86785,0.03078
6502.79632,0.07251
6504.72479,0.06922
6506.65326,0.08927
6508.58172,0.14096
6510.51019,0.14686
6512.43866,0.13212
6514.36713,0.15043
6516.29560,0.13044
6518.22407,0.07324
6520.15254,0.06842
6522.08101,0.08538
6524.00947,0.03916
6525.93794,-0.02246
6527.86641,-0.02801
6529.79488,-0.01248
6531.72335,0.01235
6533.65182,0.04652
6535.58029,0.06651
6537.50875,0.10143
6539.43722,0.15492
6541.36569,0.17621
6543.29416,0.17274
6545.22263,0.14241
6547.15110,0.08942
6549.07957,0.06931
6551.00804,0.09849
6552.93650,0.09371
6554.86497,0.03111
6556.79344,0.01023
6558.72191,0.05339
6560.65038,0.10104
6562.57885,0.13051
6564.50732,0.15827
6566.43578,0.17414
6568.36425,0.15031
6570.29272,0.12278
6572.22119,0.11319
6574.14966,0.10489
6576.07813,0.11447
6578.00660,0.13793
6579.93507,0.12610
6581.86353,0.08275
6583.79200,0.04874
6585.72047,0.03163
6587.64894,0.03346
6589.57741,0.06810
6591.50588,0.14278
6593.43435,0.21306
6595.36281,0.22270
6597.29128,0.19748
6599.21975,0.16928
6601.14822,0.13277
6603.07669,0.08398
6605.00516,0.05250
6606.93363,0.06209
6608.86210,0.07791
6610.79056,0.03950
6612.71903,-0.02211
6614.64750,-0.04992
6616.57597,-0.07645
6618.50444,-0.09278
6620.43291,-0.06427
6622.36138,-0.02054
6624.28984,0.00985
6626.21831,0.03122
6628.14678,0.04422
6630.07525,0.04293
6632.00372,0.06206
6633.93219,0.10348
6635.86066,0.10559
6637.78912,0.08118
6639.71759,0.07220
6641.64606,0.03623
6643.57453,-0.03691
6645.50300,-0.07650
6647.43147,-0.02899
6649.35994,0.04963
6651.28841,0.09275
6653.21687,0.10251
6655.14534,0.10999
6657.07381,0.08944
6659.00228,0.01155
6660.93075,-0.02223
6662.85922,0.00953
6664.78769,0.05492
6666.71615,0.11508
6668.64462,0.11712
6670.57309,0.05000
6672.50156,0.07917
6674.43003,0.19131
6676.35850,0.18258
6678.28697,0.06438
6680.21544,0.01520
6682.14390,0.10135
6684.07237,0.18790
6686.00084,0.15093
6687.92931,0.07815
6689.85778,0.07074
6691.78625,0.09372
6693.71472,0.13243
6695.64318,0.16080
6697.57165,0.08981
6699.50012,-0.00434
6701.42859,0.02629
6703.35706,0.12607
6705.28553,0.18063
6707.21400,0.17009
6709.14247,0.14856
6711.07093,0.14988
6712.99940,0.14001
6714.92787,0.13684
6716.85634,0.13931
6718.78481,0.07591
6720.71328,0.02778
6722.64175,0.08524
6724.57021,0.12815
6726.49868,0.11022
6728.42715,0.08881
6730.35562,0.08242
6732.28409,0.08584
6734.21256,0.09471
6736.14103,0.11667
6738.06950,0.12534
6739.99796,0.10232
6741.92643,0.09926
6743.85490,0.13928
6745.78337,0.18083
6747.71184,0.21848
6749.64031,0.25423
6751.56878,0.24309
6753.49724,0.19825
6755.42571,0.20073
6757.35418,0.20518
6759.28265,0.12072
6761.21112,0.01310
6763.13959,-0.02744
6765.06806,-0.03955
6766.99653,-0.03423
6768.92499,0.02796
6770.85346,0.14320
6772.78193,0.24290
6774.71040,0.27363
6776.63887,0.22964
6778.56734,0.15319
6780.49581,0.07627
6782.42427,0.00680
6784.35274,-0.05328
6786.28121,-0.10981
6788.20968,-0.13499
6790.13815,-0.05178
6792.06662,0.10605
6793.99509,0.17698
6795.92355,0.14019
6797.85202,0.09069
6799.78049,0.06539
6801.70896,0.00604
6803.63743,-0.03888
6805.56590,0.03407
6807.49437,0.13050
6809.42284,0.14228
6811.35130,0.05970
6813.27977,-0.02951
6815.20824,-0.06824
6817.13671,-0.07781
6819.06518,-0.05004
6820.99365,-0.01654
6822.92212,-0.01840
6824.85058,0.01162
6826.77905,0.08296
6828.70752,0.10128
6830.63599,0.07626
6832.56446,0.07174
6834.49293,0.07820
6836.42140,0.06777
6838.34987,0.02335
6840.27833,-0.01421
6842.20680,0.02834
6844.13527,0.15421
6846.06374,0.26225
6847.99221,0.24148
6849.92068,0.08171
6851.84915,-0.06513
6853.77761,-0.10560
6855.70608,-0.04636
6857.63455,0.04476
6859.56302,0.10800
6861.49149,0.14052
6863.41996,0.12549
6865.34843,0.08675
6867.27690,0.07570
6869.20536,0.05188
6871.13383,-0.01025
6873.06230,-0.03990
6874.99077,-0.00343
6876.91924,0.05800
6878.84771,0.10589
6880.77618,0.11767
6882.70464,0.13072
6884.63311,0.13200
6886.56158,0.07994
6888.49005,0.03142
6890.41852,0.04675
6892.34699,0.08514
6894.27546,0.08378
6896.20393,0.05589
6898.13239,0.03023
6900.06086,0.00481
6901.98933,0.00207
6903.91780,-0.00452
6905.84627,-0.06680
6907.77474,-0.09269
6909.70321,-0.01530
6911.63167,0.08119
6913.56014,0.07220
6915.48861,-0.04095
6917.41708,-0.13314
6919.34555,-0.14407
6921.27402,-0.10427
6923.20249,-0.04709
6925.13096,-0.02927
6927.05942,-0.09233
6928.98789,-0.16859
6930.91636,-0.11690
6932.84483,0.05869
6934.77330,0.16028
6936.70177,0.19761
6938.63024,0.25676
6940.55870,0.25347
6942.48717,0.21845
6944.41564,0.21673
6946.34411,0.15773
6948.27258,0.08321
6950.20105,0.04153
6952.12952,0.01589
6954.05799,0.02832
6955.98645,0.07776
6957.91492,0.14183
6959.84339,0.20058
6961.77186,0.22464
6963.70033,0.20221
6965.62880,0.12665
6967.55727,0.05781
6969.48573,0.02500
6971.41420,-0.04211
6973.34267,-0.08543
6975.27114,-0.01715
6977.19961,0.05010
6979.12808,-0.00419
6981.05655,-0.06573
6982.98501,0.00515
6984.91348,0.08515
6986.84195,0.00979
6988.77042,-0.08719
6990.69889,-0.02036
6992.62736,0.09562
6994.55583,0.07051
6996.48430,-0.10774
6998.41276,-0.24176
7000.34123,-0.23707
7002.26970,-0.21153
7004.19817,-0.17868
7006.12664,-0.12429
7008.05511,-0.03408
7009.98358,0.09613
7011.91204,0.17996
7013.84051,0.13606
7015.76898,0.04931
7017.69745,0.02230
7019.62592,0.01519
7021.55439,0.02542
7023.48286,0.06459
7025.41133,0.08061
7027.33979,0.06188
7029.26826,0.06140
7031.19673,0.11664
7033.12520,0.18457
7035.05367,0.26770
7036.98214,0.33804
7038.91061,0.29070
7040.83907,0.14805
7042.76754,0.02505
7044.69601,-0.01495
7046.62448,0.00253
7048.55295,-0.00247
7050.48142,-0.06464
7052.40989,-0.08562
7054.33836,-0.02323
7056.26682,0.04228
7058.19529,0.06127
7060.12376,0.04290
7062.05223,0.00599
7063.98070,-0.03032
7065.90917,-0.06161
7067.83764,-0.09688
7069.76610,-0.14131
7071.69457,-0.16244
7073.62304,-0.07529
7075.55151,0.05685
7077.47998,0.13761
7079.40845,0.19120
7081.33692,0.19021
7083.26539,0.07544
7085.19385,-0.03198
7087.12232,-0.02891
7089.05079,0.08949
7090.97926,0.22669
7092.90773,0.28045
7094.83620,0.24304
7096.76467,0.11673
7098.69313,-0.03915
7100.62160,-0.00256
7102.55007,0.15045
7104.47854,0.17871
7106.40701,0.04795
7108.33548,-0.08021
7110.26395,-0.10952
7112.19242,-0.04336
7114.12088,0.07543
7116.04935,0.19590
7117.97782,0.23333
7119.90629,0.12051
7121.83476,0.01965
7123.76323,0.09225
7125.69170,0.23666
7127.62016,0.20935
7129.54863,0.05748
7131.47710,-0.00078
7133.40557,0.03645
7135.33404,0.11716
7137.26251,0.25266
7139.19098,0.31825
7141.11944,0.20878
7143.04791,0.12472
7144.97638,0.18039
7146.90485,0.17090
7148.83332,0.05121
7150.76179,-0.01672
7152.69026,-0.03163
7154.61873,-0.11284
7156.54719,-0.15572
7158.47566,-0.05825
7160.40413,0.02346
7162.33260,0.01397
7164.26107,0.03841
7166.18954,0.10209
7168.11801,0.05562
7170.04647,-0.06369
7171.97494,-0.05946
7173.90341,0.01672
7175.83188,-0.01323
7177.76035,-0.04112
7179.68882,0.09513
7181.61729,0.19125
7183.54576,0.03993
7185.47422,-0.10278
7187.40269,-0.06014
7189.33116,0.07565
7191.25963,0.24071
7193.18810,0.29140
7195.11657,0.16834
7197.04504,0.04546
7198.97350,0.01101
7200.90197,-0.02493
7202.83044,-0.05502
7204.75891,0.02277
7206.68738,0.10892
7208.61585,0.11626
7210.54432,0.11333
7212.47279,0.07969
7214.40125,0.01410
7216.32972,0.00717
7218.25819,0.10708
7220.18666,0.15550
7222.11513,0.08063
7224.04360,-0.01332
7225.97207,-0.01687
7227.90053,0.05416
7229.82900,0.05722
7231.75747,-0.03710
7233.68594,-0.05305
7235.61441,-0.00880
7237.54288,0.00335
7239.47135,0.04217
7241.39982,0.06033
7243.32828,-0.05624
7245.25675,-0.11884
7247.18522,-0.04885
7249.11369,0.03429
7251.04216,0.12197
7252.97063,0.16494
7254.89910,0.03099
7256.82756,-0.11634
7258.75603,-0.15570
7260.68450,-0.08349
7262.61297,-0.00088
7264.54144,0.01778
7266.46991,0.04876
7268.39838,0.04055
7270.32685,-0.08549
7272.25531,-0.10065
7274.18378,0.05640
7276.11225,0.03761
7278.04072,-0.10298
7279.96919,-0.08285
7281.89766,0.13437
7283.82613,0.26196
7285.75459,0.28430
7287.68306,0.28635
7289.61153,0.15024
7291.54000,-0.04546
7293.46847,0.05419
7295.39694,0.23972
7297.32541,0.15205
7299.25387,-0.00113
7301.18234,-0.01640
7303.11081,0.01170
7305.03928,-0.01493
7306.96775,-0.14523
7308.89622,-0.32833
7310.82469,-0.34584
7312.75316,-0.20007
7314.68162,0.04469
7316.61009,0.28058
7318.53856,0.31307
7320.46703,0.30211
7322.39550,0.35120
7324.32397,0.33732
7326.25244,0.30714
7328.18090,0.34620
7330.10937,0.25777
7332.03784,0.02764
7333.96631,-0.10302
7335.89478,-0.11985
7337.82325,-0.06704
7339.75172,0.10589
7341.68019,0.20298
7343.60865,0.10665
7345.53712,0.03967
7347.46559,0.00185
7349.39406,-0.14574
7351.32253,-0.22015
7353.25100,-0.08225
7355.17947,0.10929
7357.10793,0.30068
7359.03640,0.44469
7360.96487,0.33720
7362.89334,0.13391
7364.82181,0.05053
7366.75028,-0.01346
7368.67875,-0.03645
7370.60722,0.00142
7372.53568,-0.01650
7374.46415,0.03386
7376.39262,0.25038
7378.32109,0.34997
7380.24956,0.33056
7382.17803,0.18442
7384.10650,-0.05520
7386.03496,-0.09443
7387.96343,0.06419
7389.89190,0.00630
7391.82037,-0.19878
7393.74884,-0.15306
7395.67731,0.08198
7397.60578,0.12825
7399.53425,0.04023
7401.46271,-0.00255
7403.39118,-0.04533
7405.31965,-0.07044
7407.24812,-0.00594
7409.17659,0.05390
7411.10506,0.01816
7413.03353,-0.06794
7414.96199,-0.06070
7416.89046,0.09737
7418.81893,0.21513
7420.74740,0.09784
7422.67587,-0.00050
7424.60434,0.01973
7426.53281,0.07104
7428.46128,0.15287
7430.38974,0.18431
7432.31821,0.13442
7434.24668,0.10224
7436.17515,0.02393
7438.10362,0.05933
7440.03209,0.38155
7441.96056,0.61509
7443.88902,0.44649
7445.81749,0.16673
7447.74596,0.05565
7449.67443,0.04457
7451.60290,0.07540
7453.53137,0.18445
7455.45984,0.25692
7457.38831,0.22063
7459.31677,0.13596
7461.24524,0.08907
7463.17371,0.01522
7465.10218,-0.14269
7467.03065,-0.19857
7468.95912,-0.05570
7470.88759,0.07593
7472.81605,0.06710
7474.74452,0.04015
7476.67299,-0.01753
7478.60146,-0.16456
7480.52993,-0.20534
7482.45840,-0.04131
7484.38687,0.07834
7486.31533,0.03873
7488.24380,0.03069
7490.17227,0.19790
7492.10074,0.27211
7494.02921,0.15145
7495.95768,0.06115
7497.88615,0.15268
