399.19301,2.58254
401.12148,1.93079
403.04995,1.09209
404.97842,0.84056
406.90689,0.41310
408.83536,0.57356
410.76382,2.01404
412.69229,2.66337
414.62076,2.77204
416.54923,5.16709
418.47770,8.42249
420.40617,6.41054
422.33464,2.34831
424.26311,0.20946
426.19157,-0.18840
428.12004,-0.04519
430.04851,0.01187
431.97698,-0.07083
433.90545,-0.24508
435.83392,-0.27400
437.76239,-0.08634
439.69085,0.12108
441.61932,0.15431
443.54779,0.00433
445.47626,-0.12786
447.40473,-0.13772
449.33320,-0.08093
451.26167,-0.01971
453.19013,0.03120
455.11860,0.10561
457.04707,0.19719
458.97554,0.22505
460.90401,0.18050
462.83248,0.14392
464.76095,0.14007
466.68942,0.10311
468.61788,0.04485
470.54635,0.12764
472.47482,0.83147
474.40329,1.70209
476.33176,1.06085
478.26023,0.29332
480.18870,0.13491
482.11716,0.16681
484.04563,0.12310
485.97410,0.09377
487.90257,0.10227
489.83104,0.08833
491.75951,0.07180
493.68798,0.08483
495.61645,0.08002
497.54491,0.04795
499.47338,0.04993
501.40185,0.11434
503.33032,0.16267
505.25879,0.12236
507.18726,0.06725
509.11573,0.07690
511.04419,0.09751
512.97266,0.08591
514.90113,0.06044
516.82960,0.04820
518.75807,0.07303
520.68654,0.10932
522.61501,0.10255
524.54348,0.05493
526.47194,0.04279
528.40041,0.08867
530.32888,0.13645
532.25735,0.13862
534.18582,0.10068
536.11429,0.07710
538.04276,0.10065
539.97122,0.12962
541.89969,0.12744
543.82816,0.11337
545.75663,0.08978
547.68510,0.06224
549.61357,0.10903
551.54204,0.32553
553.47051,0.54312
555.39897,0.45900
557.32744,0.21082
559.25591,0.12060
561.18438,0.12387
563.11285,0.10505
565.04132,0.09273
566.96979,0.11216
568.89825,0.13657
570.82672,0.14965
572.75519,0.15087
574.68366,0.12533
576.61213,0.09248
578.54060,0.09731
580.46907,0.13701
582.39754,0.15933
584.32600,0.14434
586.25447,0.12467
588.18294,0.12219
590.11141,0.13959
592.03988,0.15053
593.96835,0.12601
595.89682,0.09656
597.82528,0.08190
599.75375,0.07384
601.68222,0.08997
603.61069,0.11974
605.53916,0.13347
607.46763,0.14366
609.39610,0.14871
611.32456,0.14190
613.25303,0.14083
615.18150,0.14303
617.10997,0.12990
619.03844,0.11417
620.96691,0.11679
622.89538,0.12148
624.82385,0.11871
626.75231,0.11589
628.68078,0.09501
630.60925,0.02316
632.53772,-0.04955
634.46619,-0.01501
636.39466,0.08524
638.32313,0.15295
640.25159,0.17408
642.18006,0.16562
644.10853,0.15027
646.03700,0.13845
647.96547,0.12531
649.89394,0.10811
651.82241,0.09795
653.75088,0.09923
655.67934,0.10767
657.60781,0.11953
659.53628,0.12558
661.46475,0.13055
663.39322,0.13124
665.32169,0.11638
667.25016,0.09735
669.17862,0.09926
671.10709,0.11637
673.03556,0.12986
674.96403,0.13928
676.89250,0.15508
678.82097,0.16269
680.74944,0.14046
682.67791,0.12050
684.60637,0.12550
686.53484,0.13026
688.46331,0.12167
690.39178,0.11694
692.32025,0.11879
694.24872,0.11254
696.17719,0.10251
698.10565,0.10268
700.03412,0.11162
701.96259,0.12131
703.89106,0.13053
705.81953,0.14065
707.74800,0.13993
709.67647,0.11987
711.60494,0.10798
713.53340,0.12147
715.46187,0.13554
717.39034,0.14117
719.31881,0.14889
721.24728,0.15279
723.17575,0.14215
725.10422,0.12409
727.03268,0.11527
728.96115,0.12294
730.88962,0.14086
732.81809,0.15684
734.74656,0.16578
736.67503,0.16496
738.60350,0.15058
740.53197,0.14094
742.46043,0.15499
744.38890,0.16995
746.31737,0.16297
748.24584,0.14788
750.17431,0.13893
752.10278,0.14000
754.03125,0.14762
755.95971,0.14730
757.88818,0.14109
759.81665,0.14525
761.74512,0.15323
763.67359,0.15566
765.60206,0.15462
767.53053,0.14388
769.45900,0.12927
771.38746,0.12286
773.31593,0.12036
775.24440,0.12668
777.17287,0.14518
779.10134,0.15529
781.02981,0.15161
782.95828,0.14774
784.88674,0.14868
786.81521,0.14698
788.74368,0.13152
790.67215,0.11965
792.60062,0.13349
794.52909,0.15740
796.45756,0.17009
798.38602,0.16851
800.31449,0.16099
802.24296,0.15943
804.17143,0.15631
806.09990,0.14560
808.02837,0.13831
809.95684,0.14132
811.88531,0.14890
813.81377,0.15040
815.74224,0.14910
817.67071,0.15201
819.59918,0.16061
821.52765,0.17299
823.45612,0.17842
825.38459,0.17387
827.31305,0.16794
829.24152,0.16498
831.16999,0.16081
833.09846,0.15477
835.02693,0.15009
836.95540,0.14795
838.88387,0.14812
840.81234,0.14930
842.74080,0.15418
844.66927,0.15695
846.59774,0.14739
848.52621,0.13673
850.45468,0.13648
852.38315,0.13803
854.31162,0.14253
856.24008,0.15640
858.16855,0.17032
860.09702,0.17916
862.02549,0.18082
863.95396,0.17001
865.88243,0.15776
867.81090,0.16064
869.73937,0.17157
871.66783,0.17292
873.59630,0.16353
875.52477,0.15620
877.45324,0.15471
879.38171,0.14869
881.31018,0.13828
883.23865,0.13400
885.16711,0.14119
887.09558,0.15582
889.02405,0.16195
890.95252,0.15272
892.88099,0.14429
894.80946,0.14484
896.73793,0.14674
898.66640,0.15145
900.59486,0.16077
902.52333,0.16416
904.45180,0.15281
906.38027,0.14198
908.30874,0.15295
910.23721,0.17360
912.16568,0.17914
914.09414,0.16916
916.02261,0.15957
917.95108,0.15866
919.87955,0.15913
921.80802,0.15025
923.73649,0.13896
925.66496,0.14101
927.59343,0.15324
929.52189,0.16145
931.45036,0.15962
933.37883,0.15081
935.30730,0.14231
937.23577,0.13938
939.16424,0.14115
941.09271,0.14565
943.02117,0.15051
944.94964,0.15080
946.87811,0.14600
948.80658,0.14009
950.73505,0.13924
952.66352,0.14488
954.59199,0.14845
956.52045,0.14912
958.44892,0.15145
960.37739,0.14901
962.30586,0.14178
964.23433,0.14095
966.16280,0.14894
968.09127,0.15726
970.01974,0.15738
971.94820,0.15101
973.87667,0.14738
975.80514,0.14734
977.73361,0.14744
979.66208,0.15079
981.59055,0.15646
983.51902,0.15858
985.44748,0.15975
987.37595,0.16196
989.30442,0.16265
991.23289,0.16401
993.16136,0.16628
995.08983,0.16547
997.01830,0.16054
998.94677,0.15466
1000.87523,0.15203
1002.80370,0.15433
1004.73217,0.15939
1006.66064,0.16560
1008.58911,0.17271
1010.51758,0.17529
1012.44605,0.17126
1014.37451,0.17007
1016.30298,0.17625
1018.23145,0.18146
1020.15992,0.17779
1022.08839,0.16747
1024.01686,0.16379
1025.94533,0.16092
1027.87380,0.14179
1029.80226,0.13091
1031.73073,0.14206
1033.65920,0.15353
1035.58767,0.16404
1037.51614,0.16982
1039.44461,0.16611
1041.37308,0.16700
1043.30154,0.17740
1045.23001,0.18509
1047.15848,0.18024
1049.08695,0.17453
1051.01542,0.17592
1052.94389,0.17632
1054.87236,0.17713
1056.80083,0.17921
1058.72929,0.17749
1060.65776,0.17352
1062.58623,0.16927
1064.51470,0.17029
1066.44317,0.17709
1068.37164,0.17849
1070.30011,0.17604
1072.22857,0.17656
1074.15704,0.18180
1076.08551,0.19651
1078.01398,0.20982
1079.94245,0.20360
1081.87092,0.18713
1083.79939,0.17818
1085.72786,0.17549
1087.65632,0.17271
1089.58479,0.17089
1091.51326,0.17050
1093.44173,0.17059
1095.37020,0.17483
1097.29867,0.17951
1099.22714,0.17594
1101.15560,0.16957
1103.08407,0.16641
1105.01254,0.16732
1106.94101,0.17286
1108.86948,0.17581
1110.79795,0.17627
1112.72642,0.17857
1114.65489,0.17559
1116.58335,0.16574
1118.51182,0.15919
1120.44029,0.16148
1122.36876,0.16316
1124.29723,0.15649
1126.22570,0.14857
1128.15417,0.14658
1130.08263,0.15014
1132.01110,0.15684
1133.93957,0.16245
1135.86804,0.16483
1137.79651,0.16793
1139.72498,0.17153
1141.65345,0.17459
1143.58191,0.17842
1145.51038,0.17861
1147.43885,0.17373
1149.36732,0.16851
1151.29579,0.16616
1153.22426,0.16790
1155.15273,0.17405
1157.08120,0.17963
1159.00966,0.18006
1160.93813,0.17853
1162.86660,0.17728
1164.79507,0.17504
1166.72354,0.17311
1168.65201,0.17317
1170.58048,0.17087
1172.50894,0.16564
1174.43741,0.16570
1176.36588,0.17215
1178.29435,0.17634
1180.22282,0.17476
1182.15129,0.16973
1184.07976,0.16048
1186.00823,0.15314
1187.93669,0.15807
1189.86516,0.16890
1191.79363,0.17206
1193.72210,0.17021
1195.65057,0.17457
1197.57904,0.18190
1199.50751,0.18056
1201.43597,0.17283
1203.36444,0.17155
1205.29291,0.17831
1207.22138,0.18234
1209.14985,0.18008
1211.07832,0.17744
1213.00679,0.17881
1214.93526,0.18284
1216.86372,0.18432
1218.79219,0.18263
1220.72066,0.18226
1222.64913,0.18254
1224.57760,0.17895
1226.50607,0.17327
1228.43454,0.17278
1230.36300,0.17704
1232.29147,0.17760
1234.21994,0.17343
1236.14841,0.17368
1238.07688,0.18074
1240.00535,0.18620
1241.93382,0.18702
1243.86229,0.18512
1245.79075,0.18057
1247.71922,0.17615
1249.64769,0.17357
1251.57616,0.17190
1253.50463,0.17252
1255.43310,0.17668
1257.36157,0.18106
1259.29003,0.18121
1261.21850,0.17983
1263.14697,0.18226
1265.07544,0.18357
1267.00391,0.17837
1268.93238,0.17357
1270.86085,0.17428
1272.78932,0.17686
1274.71778,0.17972
1276.64625,0.18606
1278.57472,0.19294
1280.50319,0.19177
1282.43166,0.18616
1284.36013,0.18444
1286.28860,0.18350
1288.21706,0.18074
1290.14553,0.17950
1292.07400,0.18056
1294.00247,0.18284
1295.93094,0.18321
1297.85941,0.17837
1299.78788,0.16913
1301.71634,0.15650
1303.64481,0.14394
1305.57328,0.14271
1307.50175,0.15620
1309.43022,0.16962
1311.35869,0.17455
1313.28716,0.17902
1315.21563,0.18562
1317.14409,0.18888
1319.07256,0.18833
1321.00103,0.18822
1322.92950,0.18909
1324.85797,0.18535
1326.78644,0.17835
1328.71491,0.17535
1330.64337,0.17278
1332.57184,0.16978
1334.50031,0.17230
1336.42878,0.17631
1338.35725,0.17954
1340.28572,0.18442
1342.21419,0.19248
1344.14266,0.20099
1346.07112,0.19662
1347.99959,0.18334
1349.92806,0.17725
1351.85653,0.17496
1353.78500,0.17455
1355.71347,0.17760
1357.64194,0.17901
1359.57040,0.18044
1361.49887,0.18252
1363.42734,0.18017
1365.35581,0.17723
1367.28428,0.17912
1369.21275,0.18401
1371.14122,0.18967
1373.06969,0.19337
1374.99815,0.19077
1376.92662,0.18742
1378.85509,0.19046
1380.78356,0.19495
1382.71203,0.19489
1384.64050,0.19437
1386.56897,0.19714
1388.49743,0.19695
1390.42590,0.19313
1392.35437,0.19342
1394.28284,0.19876
1396.21131,0.20228
1398.13978,0.19873
1400.06825,0.19108
1401.99672,0.18865
1403.92518,0.19293
1405.85365,0.19599
1407.78212,0.19511
1409.71059,0.19357
1411.63906,0.19325
1413.56753,0.19656
1415.49600,0.20266
1417.42446,0.20526
1419.35293,0.19622
1421.28140,0.18714
1423.20987,0.18756
1425.13834,0.18791
1427.06681,0.18505
1428.99528,0.18618
1430.92375,0.19103
1432.85221,0.19510
1434.78068,0.20101
1436.70915,0.20429
1438.63762,0.19884
1440.56609,0.19409
1442.49456,0.19322
1444.42303,0.19608
1446.35149,0.20146
1448.27996,0.20294
1450.20843,0.19805
1452.13690,0.19669
1454.06537,0.20567
1455.99384,0.22015
1457.92231,0.21994
1459.85077,0.20706
1461.77924,0.20340
1463.70771,0.20850
1465.63618,0.21258
1467.56465,0.20993
1469.49312,0.20938
1471.42159,0.21547
1473.35006,0.21764
1475.27852,0.20690
1477.20699,0.19667
1479.13546,0.19391
1481.06393,0.19614
1482.99240,0.19964
1484.92087,0.20531
1486.84934,0.21283
1488.77780,0.21402
1490.70627,0.20529
1492.63474,0.19923
1494.56321,0.19956
1496.49168,0.20286
1498.42015,0.20528
1500.34862,0.20378
1502.27709,0.20198
1504.20555,0.20923
1506.13402,0.23223
1508.06249,0.23733
1509.99096,0.22050
1511.91943,0.21332
1513.84790,0.21423
1515.77637,0.21858
1517.70483,0.22382
1519.63330,0.23145
1521.56177,0.23616
1523.49024,0.22683
1525.41871,0.21633
1527.34718,0.20964
1529.27565,0.20612
1531.20412,0.21034
1533.13258,0.21663
1535.06105,0.21305
1536.98952,0.21181
1538.91799,0.22511
1540.84646,0.23653
1542.77493,0.22385
1544.70340,0.21147
1546.63186,0.20681
1548.56033,0.20728
1550.48880,0.20559
1552.41727,0.20351
1554.34574,0.21124
1556.27421,0.23200
1558.20268,0.26096
1560.13115,0.24821
1562.05961,0.22097
1563.98808,0.20839
1565.91655,0.20339
1567.84502,0.20540
1569.77349,0.20609
1571.70196,0.19977
1573.63043,0.19871
1575.55889,0.20515
1577.48736,0.20547
1579.41583,0.20035
1581.34430,0.19976
1583.27277,0.19883
1585.20124,0.19260
1587.12971,0.18635
1589.05818,0.18505
1590.98664,0.18919
1592.91511,0.19611
1594.84358,0.19795
1596.77205,0.19255
1598.70052,0.18752
1600.62899,0.18776
1602.55746,0.19310
1604.48592,0.19718
1606.41439,0.19570
1608.34286,0.19315
1610.27133,0.19053
1612.19980,0.18906
1614.12827,0.19410
1616.05674,0.20436
1617.98521,0.21062
1619.91367,0.21311
1621.84214,0.21716
1623.77061,0.21821
1625.69908,0.21419
1627.62755,0.21226
1629.55602,0.21229
1631.48449,0.21273
1633.41295,0.21727
1635.34142,0.22684
1637.26989,0.22560
1639.19836,0.21440
1641.12683,0.20940
1643.05530,0.21504
1644.98377,0.22997
1646.91223,0.24340
1648.84070,0.23809
1650.76917,0.23215
1652.69764,0.23395
1654.62611,0.22781
1656.55458,0.21959
1658.48305,0.21510
1660.41152,0.21224
1662.33998,0.21042
1664.26845,0.20983
1666.19692,0.21440
1668.12539,0.22648
1670.05386,0.23776
1671.98233,0.23641
1673.91080,0.22938
1675.83926,0.22040
1677.76773,0.21559
1679.69620,0.21943
1681.62467,0.22980
1683.55314,0.24004
1685.48161,0.23646
1687.41008,0.22951
1689.33855,0.22564
1691.26701,0.22242
1693.19548,0.22214
1695.12395,0.22490
1697.05242,0.22916
1698.98089,0.23193
1700.90936,0.22575
1702.83783,0.21939
1704.76629,0.21987
1706.69476,0.21826
1708.62323,0.21169
1710.55170,0.20712
1712.48017,0.20813
1714.40864,0.21578
1716.33711,0.22706
1718.26558,0.22621
1720.19404,0.21282
1722.12251,0.20315
1724.05098,0.19986
1725.97945,0.20031
1727.90792,0.20387
1729.83639,0.20969
1731.76486,0.21435
1733.69332,0.21516
1735.62179,0.21267
1737.55026,0.21192
1739.47873,0.21325
1741.40720,0.21427
1743.33567,0.21375
1745.26414,0.21367
1747.19261,0.21586
1749.12107,0.21731
1751.04954,0.21217
1752.97801,0.20596
1754.90648,0.20449
1756.83495,0.20496
1758.76342,0.20534
1760.69189,0.20642
1762.62035,0.20609
1764.54882,0.20454
1766.47729,0.20624
1768.40576,0.21135
1770.33423,0.21520
1772.26270,0.21272
1774.19117,0.20684
1776.11964,0.20346
1778.04810,0.20270
1779.97657,0.20420
1781.90504,0.20537
1783.83351,0.20580
1785.76198,0.20638
1787.69045,0.20877
1789.61892,0.21419
1791.54738,0.21669
1793.47585,0.21367
1795.40432,0.21305
1797.33279,0.21319
1799.26126,0.21046
1801.18973,0.20739
1803.11820,0.20560
1805.04666,0.20441
1806.97513,0.20421
1808.90360,0.20659
1810.83207,0.21072
1812.76054,0.21041
1814.68901,0.20572
1816.61748,0.20282
1818.54595,0.20515
1820.47441,0.20827
1822.40288,0.20832
1824.33135,0.20926
1826.25982,0.21058
1828.18829,0.21112
1830.11676,0.21194
1832.04523,0.20990
1833.97369,0.20822
1835.90216,0.20868
1837.83063,0.20759
1839.75910,0.20569
1841.68757,0.20786
1843.61604,0.21255
1845.54451,0.21163
1847.47298,0.20772
1849.40144,0.20543
1851.32991,0.20339
1853.25838,0.20266
1855.18685,0.20363
1857.11532,0.20291
1859.04379,0.20089
1860.97226,0.20105
1862.90072,0.20189
1864.82919,0.20205
1866.75766,0.20402
1868.68613,0.20623
1870.61460,0.20511
1872.54307,0.20306
1874.47154,0.20180
1876.40001,0.20093
1878.32847,0.20057
1880.25694,0.20231
1882.18541,0.20525
1884.11388,0.20687
1886.04235,0.20760
1887.97082,0.20890
1889.89929,0.20989
1891.82775,0.20942
1893.75622,0.20971
1895.68469,0.21019
1897.61316,0.20784
1899.54163,0.20528
1901.47010,0.20612
1903.39857,0.20909
1905.32704,0.21143
1907.25550,0.21240
1909.18397,0.20955
1911.11244,0.20358
1913.04091,0.20092
1914.96938,0.20222
1916.89785,0.20470
1918.82632,0.20783
1920.75478,0.21157
1922.68325,0.21262
1924.61172,0.20792
1926.54019,0.20382
1928.46866,0.20369
1930.39713,0.20378
1932.32560,0.20497
1934.25407,0.20812
1936.18253,0.20830
1938.11100,0.20474
1940.03947,0.20324
1941.96794,0.20560
1943.89641,0.20686
1945.82488,0.20575
1947.75335,0.20484
1949.68181,0.20351
1951.61028,0.20188
1953.53875,0.20205
1955.46722,0.20392
1957.39569,0.20621
1959.32416,0.20779
1961.25263,0.20734
1963.18110,0.20611
1965.10956,0.20652
1967.03803,0.20687
1968.96650,0.20495
1970.89497,0.20293
1972.82344,0.20229
1974.75191,0.20194
1976.68038,0.19971
1978.60884,0.19540
1980.53731,0.19509
1982.46578,0.20076
1984.39425,0.20464
1986.32272,0.20423
1988.25119,0.20433
1990.17966,0.20753
1992.10812,0.21062
1994.03659,0.20905
1995.96506,0.20599
1997.89353,0.20616
1999.82200,0.20734
2001.75047,0.20612
2003.67894,0.20390
2005.60741,0.20303
2007.53587,0.20427
2009.46434,0.20655
2011.39281,0.20849
2013.32128,0.21078
2015.24975,0.21171
2017.17822,0.20911
2019.10669,0.20514
2021.03515,0.20235
2022.96362,0.20163
2024.89209,0.20142
2026.82056,0.20068
2028.74903,0.20168
2030.67750,0.20279
2032.60597,0.20135
2034.53444,0.20062
2036.46290,0.20195
2038.39137,0.20220
2040.31984,0.20052
2042.24831,0.19968
2044.17678,0.20082
2046.10525,0.20159
2048.03372,0.20128
2049.96218,0.20232
2051.89065,0.20586
2053.81912,0.20865
2055.74759,0.20861
2057.67606,0.20742
2059.60453,0.20527
2061.53300,0.20205
2063.46147,0.20080
2065.38993,0.20269
2067.31840,0.20340
2069.24687,0.20185
2071.17534,0.20131
2073.10381,0.20251
2075.03228,0.20456
2076.96075,0.20551
2078.88921,0.20487
2080.81768,0.20485
2082.74615,0.20642
2084.67462,0.20769
2086.60309,0.20654
2088.53156,0.20474
2090.46003,0.20351
2092.38850,0.20153
2094.31696,0.20092
2096.24543,0.20393
2098.17390,0.20730
2100.10237,0.20792
2102.03084,0.20736
2103.95931,0.20634
2105.88778,0.20375
2107.81624,0.20141
2109.74471,0.20145
2111.67318,0.20342
2113.60165,0.20502
2115.53012,0.20479
2117.45859,0.20483
2119.38706,0.20636
2121.31553,0.20691
2123.24399,0.20389
2125.17246,0.19917
2127.10093,0.19716
2129.02940,0.19873
2130.95787,0.20009
2132.88634,0.20104
2134.81481,0.20957
2136.74327,0.21989
2138.67174,0.21598
2140.60021,0.20558
2142.52868,0.20173
2144.45715,0.20104
2146.38562,0.19984
2148.31409,0.19921
2150.24255,0.20052
2152.17102,0.20155
2154.09949,0.19974
2156.02796,0.19952
2157.95643,0.20312
2159.88490,0.20563
2161.81337,0.20642
2163.74184,0.20747
2165.67030,0.20740
2167.59877,0.20757
2169.52724,0.20854
2171.45571,0.20813
2173.38418,0.20716
2175.31265,0.20664
2177.24112,0.20557
2179.16958,0.20417
2181.09805,0.20270
2183.02652,0.20009
2184.95499,0.19782
2186.88346,0.19862
2188.81193,0.20196
2190.74040,0.20482
2192.66887,0.20621
2194.59733,0.20778
2196.52580,0.20861
2198.45427,0.20682
2200.38274,0.20321
2202.31121,0.20014
2204.23968,0.20033
2206.16815,0.20300
2208.09661,0.20490
2210.02508,0.20471
2211.95355,0.20273
2213.88202,0.20157
2215.81049,0.20239
2217.73896,0.20363
2219.66743,0.20542
2221.59590,0.20724
2223.52436,0.20635
2225.45283,0.20334
2227.38130,0.20295
2229.30977,0.20622
2231.23824,0.20858
2233.16671,0.20713
2235.09518,0.20491
2237.02364,0.20397
2238.95211,0.20271
2240.88058,0.20360
2242.80905,0.20678
2244.73752,0.20737
2246.66599,0.20596
2248.59446,0.20553
2250.52293,0.20593
2252.45139,0.20643
2254.37986,0.20587
2256.30833,0.20326
2258.23680,0.20134
2260.16527,0.20373
2262.09374,0.20796
2264.02221,0.20888
2265.95067,0.20691
2267.87914,0.20540
2269.80761,0.20637
2271.73608,0.20819
2273.66455,0.20694
2275.59302,0.20500
2277.52149,0.20503
2279.44996,0.20439
2281.37842,0.20303
2283.30689,0.20247
2285.23536,0.20207
2287.16383,0.20102
2289.09230,0.19919
2291.02077,0.19593
2292.94924,0.19285
2294.87770,0.19230
2296.80617,0.19302
2298.73464,0.19474
2300.66311,0.19692
2302.59158,0.19859
2304.52005,0.20065
2306.44852,0.19990
2308.37699,0.19494
2310.30545,0.19059
2312.23392,0.19088
2314.16239,0.19581
2316.09086,0.19838
2318.01933,0.19301
2319.94780,0.18511
2321.87627,0.18032
2323.80473,0.17574
2325.73320,0.17190
2327.66167,0.17445
2329.59014,0.18106
2331.51861,0.18616
2333.44708,0.18591
2335.37555,0.18183
2337.30401,0.18700
2339.23248,0.19671
2341.16095,0.19010
2343.08942,0.17606
2345.01789,0.17526
2346.94636,0.18302
2348.87483,0.18820
2350.80330,0.18896
2352.73176,0.18533
2354.66023,0.17414
2356.58870,0.14848
2358.51717,0.11972
2360.44564,0.12433
2362.37411,0.15424
2364.30258,0.16542
2366.23104,0.16811
2368.15951,0.18098
2370.08798,0.18815
2372.01645,0.18776
2373.94492,0.18674
2375.87339,0.18814
2377.80186,0.19393
2379.73033,0.19966
2381.65879,0.20137
2383.58726,0.20067
2385.51573,0.20042
2387.44420,0.20206
2389.37267,0.20386
2391.30114,0.20417
2393.22961,0.20419
2395.15807,0.20401
2397.08654,0.20313
2399.01501,0.20209
2400.94348,0.20150
2402.87195,0.20295
2404.80042,0.20573
2406.72889,0.20699
2408.65736,0.20664
2410.58582,0.20650
2412.51429,0.20696
2414.44276,0.20755
2416.37123,0.20824
2418.29970,0.20743
2420.22817,0.20331
2422.15664,0.19887
2424.08510,0.19835
2426.01357,0.20034
2427.94204,0.20163
2429.87051,0.20228
2431.79898,0.20266
2433.72745,0.20334
2435.65592,0.20496
2437.58439,0.20534
2439.51285,0.20349
2441.44132,0.20337
2443.36979,0.20540
2445.29826,0.20527
2447.22673,0.20487
2449.15520,0.20843
2451.08367,0.21417
2453.01213,0.21833
2454.94060,0.21699
2456.86907,0.21100
2458.79754,0.20842
2460.72601,0.21014
2462.65448,0.20928
2464.58295,0.20617
2466.51142,0.20572
2468.43988,0.20684
2470.36835,0.20634
2472.29682,0.20670
2474.22529,0.20864
2476.15376,0.20815
2478.08223,0.20653
2480.01070,0.20752
2481.93916,0.20993
2483.86763,0.21079
2485.79610,0.21019
2487.72457,0.21010
2489.65304,0.20991
2491.58151,0.20799
2493.50998,0.20570
2495.43844,0.20520
2497.36691,0.20617
2499.29538,0.20705
2501.22385,0.20736
2503.15232,0.20676
2505.08079,0.20547
2507.00926,0.20580
2508.93773,0.20759
2510.86619,0.20880
2512.79466,0.20934
2514.72313,0.20960
2516.65160,0.20815
2518.58007,0.20437
2520.50854,0.20148
2522.43701,0.20149
2524.36547,0.20479
2526.29394,0.20933
2528.22241,0.21204
2530.15088,0.21416
2532.07935,0.21502
2534.00782,0.21391
2535.93629,0.21178
2537.86476,0.20845
2539.79322,0.20738
2541.72169,0.20896
2543.65016,0.20812
2545.57863,0.20558
2547.50710,0.20600
2549.43557,0.20727
2551.36404,0.20739
2553.29250,0.20945
2555.22097,0.21181
2557.14944,0.21202
2559.07791,0.21172
2561.00638,0.21174
2562.93485,0.21237
2564.86332,0.21259
2566.79179,0.21162
2568.72025,0.21089
2570.64872,0.20980
2572.57719,0.20761
2574.50566,0.20668
2576.43413,0.20781
2578.36260,0.20970
2580.29107,0.21073
2582.21953,0.20839
2584.14800,0.20484
2586.07647,0.20576
2588.00494,0.21072
2589.93341,0.21507
2591.86188,0.21669
2593.79035,0.21519
2595.71882,0.21213
2597.64728,0.21107
2599.57575,0.21187
2601.50422,0.21139
2603.43269,0.20944
2605.36116,0.20667
2607.28963,0.20255
2609.21810,0.19930
2611.14656,0.20006
2613.07503,0.20396
2615.00350,0.20816
2616.93197,0.21095
2618.86044,0.21167
2620.78891,0.21039
2622.71738,0.20868
2624.64585,0.20917
2626.57431,0.21110
2628.50278,0.21199
2630.43125,0.21210
2632.35972,0.21171
2634.28819,0.21144
2636.21666,0.21301
2638.14513,0.21596
2640.07359,0.21812
2642.00206,0.21773
2643.93053,0.21480
2645.85900,0.21149
2647.78747,0.21005
2649.71594,0.21028
2651.64441,0.21063
2653.57288,0.21128
2655.50134,0.21216
2657.42981,0.21272
2659.35828,0.21376
2661.28675,0.21432
2663.21522,0.21341
2665.14369,0.21364
2667.07216,0.21487
2669.00062,0.21444
2670.92909,0.21437
2672.85756,0.21555
2674.78603,0.21552
2676.71450,0.21554
2678.64297,0.21673
2680.57144,0.21766
2682.49990,0.21839
2684.42837,0.21931
2686.35684,0.21985
2688.28531,0.21988
2690.21378,0.21921
2692.14225,0.21681
2694.07072,0.21395
2695.99919,0.21338
2697.92765,0.21427
2699.85612,0.21471
2701.78459,0.21539
2703.71306,0.21627
2705.64153,0.21548
2707.57000,0.21335
2709.49847,0.21276
2711.42693,0.21443
2713.35540,0.21642
2715.28387,0.21681
2717.21234,0.21635
2719.14081,0.21928
2721.06928,0.22354
2722.99775,0.22294
2724.92622,0.22114
2726.85468,0.22216
2728.78315,0.22226
2730.71162,0.21939
2732.64009,0.21684
2734.56856,0.21696
2736.49703,0.21788
2738.42550,0.21763
2740.35396,0.21563
2742.28243,0.21470
2744.21090,0.21750
2746.13937,0.22033
2748.06784,0.22003
2749.99631,0.21866
2751.92478,0.21806
2753.85325,0.21677
2755.78171,0.21594
2757.71018,0.22035
2759.63865,0.22740
2761.56712,0.22917
2763.49559,0.22600
2765.42406,0.22234
2767.35253,0.21989
2769.28099,0.21917
2771.20946,0.21922
2773.13793,0.22204
2775.06640,0.22721
2776.99487,0.22849
2778.92334,0.22604
2780.85181,0.22407
2782.78028,0.22231
2784.70874,0.22030
2786.63721,0.21944
2788.56568,0.22046
2790.49415,0.22228
2792.42262,0.22126
2794.35109,0.21791
2796.27956,0.21857
2798.20802,0.22284
2800.13649,0.22395
2802.06496,0.22223
2803.99343,0.22330
2805.92190,0.22623
2807.85037,0.22569
2809.77884,0.22173
2811.70731,0.21902
2813.63577,0.21967
2815.56424,0.22285
2817.49271,0.22657
2819.42118,0.22783
2821.34965,0.22647
2823.27812,0.22592
2825.20659,0.22770
2827.13505,0.22839
2829.06352,0.22643
2830.99199,0.22363
2832.92046,0.22113
2834.84893,0.22119
2836.77740,0.22349
2838.70587,0.22585
2840.63433,0.22670
2842.56280,0.22575
2844.49127,0.22653
2846.41974,0.22929
2848.34821,0.22982
2850.27668,0.22770
2852.20515,0.22530
2854.13362,0.22364
2856.06208,0.22355
2857.99055,0.22528
2859.91902,0.22716
2861.84749,0.22747
2863.77596,0.22692
2865.70443,0.22570
2867.63290,0.22219
2869.56136,0.21928
2871.48983,0.22009
2873.41830,0.22246
2875.34677,0.22461
2877.27524,0.22517
2879.20371,0.22538
2881.13218,0.22981
2883.06065,0.23415
2884.98911,0.23036
2886.91758,0.22211
2888.84605,0.21674
2890.77452,0.21630
2892.70299,0.21892
2894.63146,0.21976
2896.55993,0.21932
2898.48839,0.22309
2900.41686,0.22667
2902.34533,0.22391
2904.27380,0.22037
2906.20227,0.22008
2908.13074,0.22101
2910.05921,0.22164
2911.98768,0.22065
2913.91614,0.21630
2915.84461,0.20999
2917.77308,0.20920
2919.70155,0.21646
2921.63002,0.22272
2923.55849,0.21832
2925.48696,0.21348
2927.41542,0.21965
2929.34389,0.21920
2931.27236,0.21159
2933.20083,0.21332
2935.12930,0.21192
2937.05777,0.20536
2938.98624,0.21032
2940.91471,0.22195
2942.84317,0.22797
2944.77164,0.22679
2946.70011,0.22025
2948.62858,0.21436
2950.55705,0.21622
2952.48552,0.22275
2954.41399,0.22629
2956.34245,0.22375
2958.27092,0.22147
2960.19939,0.22619
2962.12786,0.23117
2964.05633,0.22845
2965.98480,0.21967
2967.91327,0.21396
2969.84174,0.21762
2971.77020,0.22381
2973.69867,0.22634
2975.62714,0.22414
2977.55561,0.21637
2979.48408,0.21130
2981.41255,0.21792
2983.34102,0.22967
2985.26948,0.23275
2987.19795,0.22678
2989.12642,0.22523
2991.05489,0.23227
2992.98336,0.23904
2994.91183,0.24181
2996.84030,0.24225
2998.76877,0.24033
3000.69723,0.23671
3002.62570,0.23229
3004.55417,0.22799
3006.48264,0.22619
3008.41111,0.22604
3010.33958,0.22218
3012.26805,0.20851
3014.19651,0.18146
3016.12498,0.15675
3018.05345,0.16452
3019.98192,0.19988
3021.91039,0.22557
3023.83886,0.23160
3025.76733,0.23449
3027.69579,0.23884
3029.62426,0.23851
3031.55273,0.23332
3033.48120,0.22791
3035.40967,0.22523
3037.33814,0.22558
3039.26661,0.22877
3041.19508,0.23386
3043.12354,0.23733
3045.05201,0.23498
3046.98048,0.22863
3048.90895,0.22701
3050.83742,0.23186
3052.76589,0.23491
3054.69436,0.23067
3056.62282,0.22378
3058.55129,0.22623
3060.47976,0.23521
3062.40823,0.23679
3064.33670,0.23042
3066.26517,0.22452
3068.19364,0.22703
3070.12211,0.23380
3072.05057,0.23422
3073.97904,0.22901
3075.90751,0.22728
3077.83598,0.23374
3079.76445,0.23869
3081.69292,0.23350
3083.62139,0.21882
3085.54985,0.20472
3087.47832,0.20798
3089.40679,0.22217
3091.33526,0.22709
3093.26373,0.22041
3095.19220,0.21463
3097.12067,0.21874
3099.04914,0.22837
3100.97760,0.23295
3102.90607,0.22742
3104.83454,0.22269
3106.76301,0.22753
3108.69148,0.23326
3110.61995,0.23012
3112.54842,0.22103
3114.47688,0.21852
3116.40535,0.22293
3118.33382,0.22320
3120.26229,0.21891
3122.19076,0.21871
3124.11923,0.22642
3126.04770,0.23575
3127.97617,0.23957
3129.90463,0.23647
3131.83310,0.23214
3133.76157,0.23351
3135.69004,0.23650
3137.61851,0.23285
3139.54698,0.22531
3141.47545,0.22360
3143.40391,0.22853
3145.33238,0.23433
3147.26085,0.23807
3149.18932,0.23885
3151.11779,0.23861
3153.04626,0.23763
3154.97473,0.23495
3156.90320,0.23346
3158.83166,0.23225
3160.76013,0.22970
3162.68860,0.23023
3164.61707,0.23297
3166.54554,0.23273
3168.47401,0.23067
3170.40248,0.22950
3172.33094,0.22951
3174.25941,0.23273
3176.18788,0.23915
3178.11635,0.24387
3180.04482,0.24418
3181.97329,0.24354
3183.90176,0.24537
3185.83022,0.24699
3187.75869,0.24282
3189.68716,0.23325
3191.61563,0.22648
3193.54410,0.22703
3195.47257,0.22958
3197.40104,0.22913
3199.32951,0.22644
3201.25797,0.22594
3203.18644,0.22901
3205.11491,0.23013
3207.04338,0.22920
3208.97185,0.23287
3210.90032,0.23953
3212.82879,0.24095
3214.75725,0.23569
3216.68572,0.23190
3218.61419,0.23545
3220.54266,0.24083
3222.47113,0.24186
3224.39960,0.23825
3226.32807,0.23106
3228.25654,0.22444
3230.18500,0.22225
3232.11347,0.22523
3234.04194,0.23218
3235.97041,0.23770
3237.89888,0.23881
3239.82735,0.23867
3241.75582,0.23727
3243.68428,0.23182
3245.61275,0.22542
3247.54122,0.22547
3249.46969,0.23117
3251.39816,0.23505
3253.32663,0.23626
3255.25510,0.23690
3257.18357,0.23720
3259.11203,0.23557
3261.04050,0.23102
3262.96897,0.22793
3264.89744,0.22647
3266.82591,0.22495
3268.75438,0.22745
3270.68285,0.23424
3272.61131,0.23947
3274.53978,0.23954
3276.46825,0.23731
3278.39672,0.23859
3280.32519,0.24311
3282.25366,0.24281
3284.18213,0.23621
3286.11060,0.23058
3288.03906,0.22764
3289.96753,0.22639
3291.89600,0.22892
3293.82447,0.23253
3295.75294,0.23359
3297.68141,0.23413
3299.60988,0.23381
3301.53834,0.23264
3303.46681,0.23365
3305.39528,0.23434
3307.32375,0.23226
3309.25222,0.23176
3311.18069,0.23459
3313.10916,0.23545
3315.03763,0.23347
3316.96609,0.23224
3318.89456,0.23310
3320.82303,0.23697
3322.75150,0.23938
3324.67997,0.23615
3326.60844,0.23307
3328.53691,0.23424
3330.46537,0.23907
3332.39384,0.24412
3334.32231,0.24296
3336.25078,0.24042
3338.17925,0.24150
3340.10772,0.23904
3342.03619,0.23512
3343.96466,0.23473
3345.89312,0.23265
3347.82159,0.23003
3349.75006,0.23074
3351.67853,0.22970
3353.60700,0.22760
3355.53547,0.23160
3357.46394,0.23947
3359.39240,0.24502
3361.32087,0.24676
3363.24934,0.24499
3365.17781,0.24008
3367.10628,0.23478
3369.03475,0.23289
3370.96322,0.23561
3372.89168,0.24204
3374.82015,0.24676
3376.74862,0.24625
3378.67709,0.24370
3380.60556,0.24091
3382.53403,0.23846
3384.46250,0.23549
3386.39097,0.23128
3388.31943,0.23083
3390.24790,0.23597
3392.17637,0.24017
3394.10484,0.23945
3396.03331,0.23723
3397.96178,0.23414
3399.89025,0.22651
3401.81871,0.21897
3403.74718,0.22273
3405.67565,0.23487
3407.60412,0.23856
3409.53259,0.23122
3411.46106,0.22472
3413.38953,0.22177
3415.31800,0.22122
3417.24646,0.22678
3419.17493,0.23716
3421.10340,0.24287
3423.03187,0.23931
3424.96034,0.23241
3426.88881,0.22652
3428.81728,0.22205
3430.74574,0.22218
3432.67421,0.22716
3434.60268,0.22872
3436.53115,0.22475
3438.45962,0.22294
3440.38809,0.22744
3442.31656,0.23378
3444.24503,0.23738
3446.17349,0.24071
3448.10196,0.24103
3450.03043,0.23554
3451.95890,0.23061
3453.88737,0.22760
3455.81584,0.22525
3457.74431,0.22409
3459.67277,0.22303
3461.60124,0.21972
3463.52971,0.21388
3465.45818,0.21344
3467.38665,0.22187
3469.31512,0.22796
3471.24359,0.22636
3473.17206,0.22367
3475.10052,0.22206
3477.02899,0.22020
3478.95746,0.21830
3480.88593,0.21856
3482.81440,0.22170
3484.74287,0.21945
3486.67134,0.20760
3488.59980,0.19507
3490.52827,0.18995
3492.45674,0.19199
3494.38521,0.19863
3496.31368,0.20560
3498.24215,0.20846
3500.17062,0.20828
3502.09909,0.20870
3504.02755,0.20721
3505.95602,0.20403
3507.88449,0.20534
3509.81296,0.20647
3511.74143,0.20087
3513.66990,0.19247
3515.59837,0.18780
3517.52683,0.19053
3519.45530,0.19562
3521.38377,0.19559
3523.31224,0.19223
3525.24071,0.19371
3527.16918,0.19882
3529.09765,0.19695
3531.02611,0.18908
3532.95458,0.18559
3534.88305,0.18803
3536.81152,0.18950
3538.73999,0.18617
3540.66846,0.18326
3542.59693,0.18667
3544.52540,0.19380
3546.45386,0.19571
3548.38233,0.19127
3550.31080,0.18706
3552.23927,0.18359
3554.16774,0.17822
3556.09621,0.17454
3558.02468,0.17536
3559.95314,0.17944
3561.88161,0.18563
3563.81008,0.19094
3565.73855,0.19366
3567.66702,0.19270
3569.59549,0.18724
3571.52396,0.18082
3573.45243,0.17589
3575.38089,0.17354
3577.30936,0.17206
3579.23783,0.16966
3581.16630,0.16835
3583.09477,0.16970
3585.02324,0.17230
3586.95171,0.17438
3588.88017,0.17258
3590.80864,0.16784
3592.73711,0.16682
3594.66558,0.16940
3596.59405,0.16866
3598.52252,0.16773
3600.45099,0.16990
3602.37946,0.16783
3604.30792,0.16453
3606.23639,0.17104
3608.16486,0.18341
3610.09333,0.18588
3612.02180,0.17829
3613.95027,0.16678
3615.87874,0.15717
3617.80720,0.15711
3619.73567,0.16279
3621.66414,0.16328
3623.59261,0.16412
3625.52108,0.16862
3627.44955,0.17372
3629.37802,0.17430
3631.30649,0.16868
3633.23495,0.16237
3635.16342,0.15625
3637.09189,0.15429
3639.02036,0.15711
3640.94883,0.15712
3642.87730,0.15217
3644.80577,0.15112
3646.73423,0.16038
3648.66270,0.17384
3650.59117,0.17463
3652.51964,0.16772
3654.44811,0.16252
3656.37658,0.15698
3658.30505,0.15123
3660.23352,0.14878
3662.16198,0.14889
3664.09045,0.15175
3666.01892,0.15596
3667.94739,0.15795
3669.87586,0.15784
3671.80433,0.15874
3673.73280,0.16244
3675.66126,0.16653
3677.58973,0.16248
3679.51820,0.15219
3681.44667,0.14153
3683.37514,0.13677
3685.30361,0.13888
3687.23208,0.14223
3689.16055,0.14493
3691.08901,0.14974
3693.01748,0.15090
3694.94595,0.14636
3696.87442,0.14035
3698.80289,0.13686
3700.73136,0.13748
3702.65983,0.13910
3704.58829,0.13912
3706.51676,0.14292
3708.44523,0.15395
3710.37370,0.16611
3712.30217,0.16714
3714.23064,0.15866
3716.15911,0.14953
3718.08757,0.14621
3720.01604,0.15270
3721.94451,0.16020
3723.87298,0.15830
3725.80145,0.15176
3727.72992,0.14687
3729.65839,0.14441
3731.58686,0.14872
3733.51532,0.15878
3735.44379,0.16197
3737.37226,0.15551
3739.30073,0.14928
3741.22920,0.15080
3743.15767,0.16320
3745.08614,0.17627
3747.01460,0.17382
3748.94307,0.16954
3750.87154,0.16915
3752.80001,0.15952
3754.72848,0.14525
3756.65695,0.13760
3758.58542,0.13912
3760.51389,0.14298
3762.44235,0.14642
3764.37082,0.14998
3766.29929,0.14849
3768.22776,0.14385
3770.15623,0.14052
3772.08470,0.13762
3774.01317,0.13549
3775.94163,0.13648
3777.87010,0.14132
3779.79857,0.14429
3781.72704,0.14243
3783.65551,0.14211
3785.58398,0.14483
3787.51245,0.14696
3789.44092,0.14647
3791.36938,0.14324
3793.29785,0.14017
3795.22632,0.14132
3797.15479,0.14538
3799.08326,0.14720
3801.01173,0.14581
3802.94020,0.14147
3804.86866,0.14059
3806.79713,0.14449
3808.72560,0.14443
3810.65407,0.14106
3812.58254,0.14109
3814.51101,0.14543
3816.43948,0.14987
3818.36795,0.15184
3820.29641,0.15185
3822.22488,0.14628
3824.15335,0.14520
3826.08182,0.14925
3828.01029,0.14993
3829.93876,0.14923
3831.86723,0.14882
3833.79569,0.14431
3835.72416,0.14012
3837.65263,0.14398
3839.58110,0.15173
3841.50957,0.15467
3843.43804,0.15073
3845.36651,0.14034
3847.29498,0.13067
3849.22344,0.13013
3851.15191,0.14312
3853.08038,0.16300
3855.00885,0.16057
3856.93732,0.14974
3858.86579,0.14547
3860.79426,0.14468
3862.72272,0.14494
3864.65119,0.14384
3866.57966,0.14022
3868.50813,0.13623
3870.43660,0.13509
3872.36507,0.13523
3874.29354,0.13472
3876.22200,0.13658
3878.15047,0.13830
3880.07894,0.13471
3882.00741,0.12679
3883.93588,0.12461
3885.86435,0.13071
3887.79282,0.13436
3889.72129,0.13367
3891.64975,0.13356
3893.57822,0.13153
3895.50669,0.12719
3897.43516,0.12297
3899.36363,0.11939
3901.29210,0.11905
3903.22057,0.12498
3905.14903,0.13065
3907.07750,0.12931
3909.00597,0.12627
3910.93444,0.12367
3912.86291,0.12048
3914.79138,0.12057
3916.71985,0.12465
3918.64832,0.12878
3920.57678,0.13132
3922.50525,0.13291
3924.43372,0.13335
3926.36219,0.12842
3928.29066,0.12192
3930.21913,0.12274
3932.14760,0.12818
3934.07606,0.13000
3936.00453,0.13053
3937.93300,0.13193
3939.86147,0.13012
3941.78994,0.12673
3943.71841,0.12400
3945.64688,0.11908
3947.57535,0.11536
3949.50381,0.11749
3951.43228,0.12271
3953.36075,0.12503
3955.28922,0.12278
3957.21769,0.11834
3959.14616,0.11409
3961.07463,0.11261
3963.00309,0.11392
3964.93156,0.11567
3966.86003,0.11679
3968.78850,0.11672
3970.71697,0.11750
3972.64544,0.11905
3974.57391,0.11613
3976.50238,0.11097
3978.43084,0.11066
3980.35931,0.11302
3982.28778,0.11503
3984.21625,0.11938
3986.14472,0.12375
3988.07319,0.12291
3990.00166,0.11928
3991.93012,0.11914
3993.85859,0.12203
3995.78706,0.12110
3997.71553,0.11685
3999.64400,0.11793
4001.57247,0.12312
4003.50094,0.12319
4005.42941,0.11747
4007.35787,0.11157
4009.28634,0.10808
4011.21481,0.10671
4013.14328,0.10832
4015.07175,0.11209
4017.00022,0.11265
4018.92869,0.10896
4020.85715,0.10935
4022.78562,0.11611
4024.71409,0.11845
4026.64256,0.11265
4028.57103,0.10661
4030.49950,0.10605
4032.42797,0.11128
4034.35644,0.11524
4036.28490,0.11271
4038.21337,0.10834
4040.14184,0.10663
4042.07031,0.10699
4043.99878,0.10731
4045.92725,0.10549
4047.85572,0.10137
4049.78418,0.10089
4051.71265,0.10503
4053.64112,0.10623
4055.56959,0.10582
4057.49806,0.10713
4059.42653,0.10435
4061.35500,0.09696
4063.28346,0.09539
4065.21193,0.10183
4067.14040,0.10569
4069.06887,0.10312
4070.99734,0.09957
4072.92581,0.09964
4074.85428,0.10439
4076.78275,0.10820
4078.71121,0.10589
4080.63968,0.10318
4082.56815,0.10652
4084.49662,0.11346
4086.42509,0.11560
4088.35356,0.10786
4090.28203,0.09812
4092.21049,0.09441
4094.13896,0.09552
4096.06743,0.09878
4097.99590,0.10143
4099.92437,0.10334
4101.85284,0.10473
4103.78131,0.10270
4105.70978,0.10000
4107.63824,0.10190
4109.56671,0.10477
4111.49518,0.10263
4113.42365,0.09724
4115.35212,0.09496
4117.28059,0.09669
4119.20906,0.09759
4121.13752,0.09599
4123.06599,0.09349
4124.99446,0.09232
4126.92293,0.09319
4128.85140,0.09399
4130.77987,0.09543
4132.70834,0.09727
4134.63681,0.09470
4136.56527,0.08941
4138.49374,0.08731
4140.42221,0.08798
4142.35068,0.09011
4144.27915,0.09312
4146.20762,0.09081
4148.13609,0.08428
4150.06455,0.08397
4151.99302,0.08662
4153.92149,0.08880
4155.84996,0.09552
4157.77843,0.09886
4159.70690,0.09589
4161.63537,0.09820
4163.56384,0.10464
4165.49230,0.10285
4167.42077,0.09395
4169.34924,0.08788
4171.27771,0.08386
4173.20618,0.08085
4175.13465,0.08373
4177.06312,0.08915
4178.99158,0.08971
4180.92005,0.08741
4182.84852,0.08794
4184.77699,0.09024
4186.70546,0.09015
4188.63393,0.09016
4190.56240,0.09502
4192.49087,0.09988
4194.41933,0.10263
4196.34780,0.10287
4198.27627,0.09487
4200.20474,0.08637
4202.13321,0.08439
4204.06168,0.08301
4205.99015,0.08291
4207.91861,0.08557
4209.84708,0.08575
4211.77555,0.08144
4213.70402,0.07846
4215.63249,0.08123
4217.56096,0.08428
4219.48943,0.08436
4221.41789,0.08296
4223.34636,0.07815
4225.27483,0.07370
4227.20330,0.07497
4229.13177,0.07821
4231.06024,0.07986
4232.98871,0.08085
4234.91718,0.08211
4236.84564,0.08274
4238.77411,0.08356
4240.70258,0.08998
4242.63105,0.09918
4244.55952,0.09702
4246.48799,0.08313
4248.41646,0.07123
4250.34492,0.06593
4252.27339,0.06556
4254.20186,0.06855
4256.13033,0.07215
4258.05880,0.07421
4259.98727,0.07190
4261.91574,0.06516
4263.84421,0.05896
4265.77267,0.05970
4267.70114,0.06836
4269.62961,0.07594
4271.55808,0.07557
4273.48655,0.07240
4275.41502,0.07037
4277.34349,0.06716
4279.27195,0.06445
4281.20042,0.06358
4283.12889,0.06509
4285.05736,0.07097
4286.98583,0.07549
4288.91430,0.07160
4290.84277,0.06129
4292.77124,0.05365
4294.69970,0.05487
4296.62817,0.05852
4298.55664,0.05759
4300.48511,0.05527
4302.41358,0.05320
4304.34205,0.05099
4306.27052,0.05175
4308.19898,0.05488
4310.12745,0.05598
4312.05592,0.05392
4313.98439,0.05288
4315.91286,0.05562
4317.84133,0.06082
4319.76980,0.06521
4321.69827,0.06487
4323.62673,0.06417
4325.55520,0.06540
4327.48367,0.06166
4329.41214,0.05512
4331.34061,0.05138
4333.26908,0.04845
4335.19755,0.04700
4337.12601,0.05203
4339.05448,0.05891
4340.98295,0.05745
4342.91142,0.04968
4344.83989,0.04237
4346.76836,0.03667
4348.69683,0.03357
4350.62530,0.03148
4352.55376,0.03020
4354.48223,0.03520
4356.41070,0.04452
4358.33917,0.05170
4360.26764,0.05575
4362.19611,0.05550
4364.12458,0.05019
4366.05304,0.04214
4367.98151,0.03644
4369.90998,0.03808
4371.83845,0.04521
4373.76692,0.05008
4375.69539,0.04962
4377.62386,0.04979
4379.55232,0.05360
4381.48079,0.05402
4383.40926,0.04687
4385.33773,0.04132
4387.26620,0.04547
4389.19467,0.05402
4391.12314,0.05665
4393.05161,0.04867
4394.98007,0.04007
4396.90854,0.04002
4398.83701,0.03932
4400.76548,0.03686
4402.69395,0.03850
4404.62242,0.03701
4406.55089,0.03393
4408.47935,0.03485
4410.40782,0.03681
4412.33629,0.03954
4414.26476,0.04206
4416.19323,0.04503
4418.12170,0.04888
4420.05017,0.04852
4421.97864,0.04223
4423.90710,0.03662
4425.83557,0.03783
4427.76404,0.04083
4429.69251,0.03897
4431.62098,0.03576
4433.54945,0.03629
4435.47792,0.03651
4437.40638,0.03430
4439.33485,0.03459
4441.26332,0.03874
4443.19179,0.04328
4445.12026,0.04320
4447.04873,0.03945
4448.97720,0.03480
4450.90567,0.03058
4452.83413,0.03056
4454.76260,0.03379
4456.69107,0.03564
4458.61954,0.03467
4460.54801,0.03198
4462.47648,0.02767
4464.40495,0.02767
4466.33341,0.03430
4468.26188,0.03474
4470.19035,0.02771
4472.11882,0.02527
4474.04729,0.02740
4475.97576,0.03104
4477.90423,0.03564
4479.83270,0.03311
4481.76116,0.02522
4483.68963,0.02489
4485.61810,0.03052
4487.54657,0.03230
4489.47504,0.03148
4491.40351,0.03193
4493.33198,0.03011
4495.26044,0.02623
4497.18891,0.02364
4499.11738,0.02233
4501.04585,0.02275
4502.97432,0.02238
4504.90279,0.01863
4506.83126,0.01246
4508.75973,0.00774
4510.68819,0.00807
4512.61666,0.01094
4514.54513,0.01371
4516.47360,0.01787
4518.40207,0.02080
4520.33054,0.01974
4522.25901,0.01934
4524.18747,0.01867
4526.11594,0.01555
4528.04441,0.01516
4529.97288,0.01819
4531.90135,0.02191
4533.82982,0.02002
4535.75829,0.01142
4537.68676,0.01056
4539.61522,0.01845
4541.54369,0.01749
4543.47216,0.00915
4545.40063,0.00733
4547.32910,0.00848
4549.25757,0.00756
4551.18604,0.01362
4553.11450,0.02677
4555.04297,0.03272
4556.97144,0.02852
4558.89991,0.02203
4560.82838,0.01562
4562.75685,0.01003
4564.68532,0.00562
4566.61378,0.00234
4568.54225,0.00226
4570.47072,0.00510
4572.39919,0.00930
4574.32766,0.01496
4576.25613,0.02149
4578.18460,0.02768
4580.11307,0.03161
4582.04153,0.03108
4583.97000,0.02753
4585.89847,0.02042
4587.82694,0.00936
4589.75541,0.00292
4591.68388,0.00177
4593.61235,0.00011
4595.54081,0.00287
4597.46928,0.00706
4599.39775,0.00426
4601.32622,0.00231
4603.25469,0.00884
4605.18316,0.01449
4607.11163,0.00905
4609.04010,0.00238
4610.96856,0.00483
4612.89703,0.01044
4614.82550,0.01197
4616.75397,0.01097
4618.68244,0.01223
4620.61091,0.01192
4622.53938,0.00975
4624.46784,0.01077
4626.39631,0.00844
4628.32478,0.00043
4630.25325,-0.00497
4632.18172,-0.00530
4634.11019,0.00050
4636.03866,0.01385
4637.96713,0.02208
4639.89559,0.01648
4641.82406,0.01072
4643.75253,0.01654
4645.68100,0.02476
4647.60947,0.02404
4649.53794,0.02052
4651.46641,0.01981
4653.39487,0.01270
4655.32334,-0.00043
4657.25181,-0.00378
4659.18028,0.00261
4661.10875,0.00311
4663.03722,0.00108
4664.96569,0.00967
4666.89416,0.01489
4668.82262,-0.00181
4670.75109,-0.02101
4672.67956,-0.01947
4674.60803,-0.00268
4676.53650,0.01647
4678.46497,0.02839
4680.39344,0.02743
4682.32190,0.02171
4684.25037,0.02431
4686.17884,0.02957
4688.10731,0.02942
4690.03578,0.02470
4691.96425,0.01475
4693.89272,0.00472
4695.82119,-0.00187
4697.74965,-0.00470
4699.67812,-0.00214
4701.60659,0.00147
4703.53506,0.00349
4705.46353,0.00809
4707.39200,0.01709
4709.32047,0.02410
4711.24893,0.02389
4713.17740,0.02044
4715.10587,0.01772
4717.03434,0.01359
4718.96281,0.00639
4720.89128,-0.00029
4722.81975,-0.00054
4724.74821,0.00779
4726.67668,0.01918
4728.60515,0.02392
4730.53362,0.02189
4732.46209,0.01812
4734.39056,0.00922
4736.31903,-0.00114
4738.24750,-0.00433
4740.17596,-0.00131
4742.10443,0.00931
4744.03290,0.01722
4745.96137,0.01053
4747.88984,0.00782
4749.81831,0.01774
4751.74678,0.02291
4753.67524,0.01730
4755.60371,0.00604
4757.53218,-0.00020
4759.46065,0.00479
4761.38912,0.01356
4763.31759,0.01982
4765.24606,0.01877
4767.17453,0.01114
4769.10299,0.00661
4771.03146,0.00488
4772.95993,0.00329
4774.88840,0.00392
4776.81687,0.00362
4778.74534,0.00258
4780.67381,0.00446
4782.60227,0.01015
4784.53074,0.01607
4786.45921,0.01873
4788.38768,0.01947
4790.31615,0.01789
4792.24462,0.01313
4794.17309,0.00611
4796.10156,0.00181
4798.03002,0.00369
4799.95849,0.00629
4801.88696,0.00339
4803.81543,-0.00615
4805.74390,-0.01331
4807.67237,-0.01247
4809.60084,-0.00634
4811.52930,0.00046
4813.45777,0.00020
4815.38624,-0.00057
4817.31471,0.00524
4819.24318,0.01154
4821.17165,0.01715
4823.10012,0.01969
4825.02859,0.01518
4826.95705,0.00564
4828.88552,0.00104
4830.81399,0.00583
4832.74246,0.00806
4834.67093,0.00009
4836.59940,-0.01242
4838.52787,-0.01855
4840.45633,-0.01102
4842.38480,0.00377
4844.31327,0.01480
4846.24174,0.02190
4848.17021,0.02881
4850.09868,0.03031
4852.02715,0.02586
4853.95562,0.02340
4855.88408,0.01988
4857.81255,0.01297
4859.74102,0.01057
4861.66949,0.01032
4863.59796,0.00686
4865.52643,0.00651
4867.45490,0.01023
4869.38336,0.01204
4871.31183,0.01482
4873.24030,0.02005
4875.16877,0.01982
4877.09724,0.01490
4879.02571,0.01190
4880.95418,0.00819
4882.88265,0.00075
4884.81111,-0.00450
4886.73958,-0.00087
4888.66805,0.01084
4890.59652,0.02270
4892.52499,0.01901
4894.45346,0.00509
4896.38193,0.00098
4898.31039,0.00086
4900.23886,0.00011
4902.16733,0.00800
4904.09580,0.02079
4906.02427,0.02654
4907.95274,0.02207
4909.88121,0.01132
4911.80967,-0.00288
4913.73814,-0.00757
4915.66661,0.00718
4917.59508,0.02206
4919.52355,0.01824
4921.45202,0.00905
4923.38049,0.00935
4925.30896,0.01296
4927.23742,0.00906
4929.16589,-0.00246
4931.09436,-0.00497
4933.02283,0.00865
4934.95130,0.01741
4936.87977,0.01402
4938.80824,0.01642
4940.73670,0.02482
4942.66517,0.02702
4944.59364,0.02392
4946.52211,0.02350
4948.45058,0.03036
4950.37905,0.03425
4952.30752,0.02611
4954.23599,0.01622
4956.16445,0.01405
4958.09292,0.01516
4960.02139,0.01131
4961.94986,-0.00167
4963.87833,-0.01505
4965.80680,-0.01533
4967.73527,-0.00485
4969.66373,0.00806
4971.59220,0.01343
4973.52067,0.00661
4975.44914,0.00259
4977.37761,0.01003
4979.30608,0.01797
4981.23455,0.01833
4983.16302,0.01813
4985.09148,0.02129
4987.01995,0.02403
4988.94842,0.01920
4990.87689,-0.00048
4992.80536,-0.01624
4994.73383,-0.01000
4996.66230,0.00186
4998.59076,0.01053
5000.51923,0.02063
5002.44770,0.02661
5004.37617,0.02737
5006.30464,0.02661
5008.23311,0.02771
5010.16158,0.02353
5012.09005,0.00540
5014.01851,-0.00333
5015.94698,0.00712
5017.87545,0.01206
5019.80392,0.00966
5021.73239,0.00472
5023.66086,-0.00874
5025.58933,-0.01284
5027.51779,0.00637
5029.44626,0.02704
5031.37473,0.03147
5033.30320,0.02839
5035.23167,0.02406
5037.16014,0.01386
5039.08861,0.00134
5041.01708,-0.00330
5042.94554,0.00610
5044.87401,0.02262
5046.80248,0.03195
5048.73095,0.03247
5050.65942,0.03169
5052.58789,0.02620
5054.51636,0.00860
5056.44482,-0.00818
5058.37329,-0.00493
5060.30176,0.01423
5062.23023,0.02638
5064.15870,0.02078
5066.08717,0.01320
5068.01564,0.01776
5069.94410,0.02471
5071.87257,0.02577
5073.80104,0.02560
5075.72951,0.02277
5077.65798,0.01974
5079.58645,0.01868
5081.51492,0.01351
5083.44339,0.00841
5085.37185,0.00228
5087.30032,-0.00687
5089.22879,-0.00245
5091.15726,0.01849
5093.08573,0.03506
5095.01420,0.04028
5096.94267,0.03769
5098.87113,0.03133
5100.79960,0.02721
5102.72807,0.01815
5104.65654,0.00844
5106.58501,0.01131
5108.51348,0.02161
5110.44195,0.03199
5112.37042,0.03522
5114.29888,0.03493
5116.22735,0.04694
5118.15582,0.06191
5120.08429,0.05999
5122.01276,0.04712
5123.94123,0.04142
5125.86970,0.04410
5127.79816,0.03919
5129.72663,0.02727
5131.65510,0.02492
5133.58357,0.03464
5135.51204,0.04709
5137.44051,0.05398
5139.36898,0.06029
5141.29745,0.07059
5143.22591,0.07090
5145.15438,0.04970
5147.08285,0.01606
5149.01132,-0.00119
5150.93979,0.01081
5152.86826,0.02281
5154.79673,0.02099
5156.72519,0.02557
5158.65366,0.03646
5160.58213,0.04332
5162.51060,0.04757
5164.43907,0.04970
5166.36754,0.05206
5168.29601,0.05503
5170.22448,0.05061
5172.15294,0.03565
5174.08141,0.03054
5176.00988,0.04366
5177.93835,0.05281
5179.86682,0.04852
5181.79529,0.03952
5183.72376,0.03477
5185.65222,0.04248
5187.58069,0.05133
5189.50916,0.03967
5191.43763,0.02085
5193.36610,0.01588
5195.29457,0.01678
5197.22304,0.02208
5199.15151,0.03503
5201.07997,0.04325
5203.00844,0.03971
5204.93691,0.02743
5206.86538,0.02371
5208.79385,0.04511
5210.72232,0.06400
5212.65079,0.05453
5214.57925,0.03340
5216.50772,0.02142
5218.43619,0.01735
5220.36466,0.02096
5222.29313,0.03813
5224.22160,0.05240
5226.15007,0.04579
5228.07854,0.04143
5230.00700,0.05675
5231.93547,0.07213
5233.86394,0.06762
5235.79241,0.05028
5237.72088,0.04107
5239.64935,0.04442
5241.57782,0.04584
5243.50628,0.04621
5245.43475,0.05949
5247.36322,0.06640
5249.29169,0.04897
5251.22016,0.03471
5253.14863,0.03305
5255.07710,0.03655
5257.00556,0.05146
5258.93403,0.05396
5260.86250,0.03067
5262.79097,0.02093
5264.71944,0.03894
5266.64791,0.04849
5268.57638,0.04188
5270.50485,0.04168
5272.43331,0.04710
5274.36178,0.04494
5276.29025,0.03997
5278.21872,0.03646
5280.14719,0.03616
5282.07566,0.04211
5284.00413,0.04903
5285.93259,0.05387
5287.86106,0.06061
5289.78953,0.05853
5291.71800,0.03879
5293.64647,0.02223
5295.57494,0.03033
5297.50341,0.06070
5299.43188,0.08197
5301.36034,0.08170
5303.28881,0.07145
5305.21728,0.04564
5307.14575,0.01446
5309.07422,0.00530
5311.00269,0.01832
5312.93116,0.03949
5314.85962,0.05956
5316.78809,0.06906
5318.71656,0.06449
5320.64503,0.05703
5322.57350,0.06053
5324.50197,0.07179
5326.43044,0.07545
5328.35891,0.06598
5330.28737,0.04979
5332.21584,0.03730
5334.14431,0.04672
5336.07278,0.07990
5338.00125,0.10386
5339.92972,0.09418
5341.85819,0.07665
5343.78665,0.06799
5345.71512,0.05787
5347.64359,0.05096
5349.57206,0.05807
5351.50053,0.07333
5353.42900,0.08819
5355.35747,0.08901
5357.28594,0.08124
5359.21440,0.08190
5361.14287,0.07819
5363.07134,0.06559
5364.99981,0.06336
5366.92828,0.06709
5368.85675,0.06555
5370.78522,0.06300
5372.71368,0.05942
5374.64215,0.05205
5376.57062,0.04593
5378.49909,0.04933
5380.42756,0.06459
5382.35603,0.08131
5384.28450,0.08007
5386.21297,0.06968
5388.14143,0.08178
5390.06990,0.10347
5391.99837,0.10438
5393.92684,0.08770
5395.85531,0.08902
5397.78378,0.09756
5399.71225,0.07786
5401.64071,0.04641
5403.56918,0.03124
5405.49765,0.02935
5407.42612,0.03186
5409.35459,0.04494
5411.28306,0.06197
5413.21153,0.06114
5415.13999,0.04252
5417.06846,0.02700
5418.99693,0.04301
5420.92540,0.08124
5422.85387,0.09637
5424.78234,0.08749
5426.71081,0.08333
5428.63928,0.08184
5430.56774,0.07794
5432.49621,0.08901
5434.42468,0.09267
5436.35315,0.06979
5438.28162,0.05761
5440.21009,0.06488
5442.13856,0.06954
5444.06702,0.07001
5445.99549,0.08611
5447.92396,0.10684
5449.85243,0.09505
5451.78090,0.06412
5453.70937,0.05152
5455.63784,0.06172
5457.56631,0.07577
5459.49477,0.08515
5461.42324,0.09616
5463.35171,0.09696
5465.28018,0.08513
5467.20865,0.08294
5469.13712,0.09146
5471.06559,0.09837
5472.99405,0.09780
5474.92252,0.08055
5476.85099,0.06564
5478.77946,0.07421
5480.70793,0.08383
5482.63640,0.09178
5484.56487,0.11044
5486.49334,0.11196
5488.42180,0.08264
5490.35027,0.06057
5492.27874,0.06733
5494.20721,0.07795
5496.13568,0.08219
5498.06415,0.09908
5499.99262,0.11070
5501.92108,0.09537
5503.84955,0.09951
5505.77802,0.13834
5507.70649,0.15485
5509.63496,0.13280
5511.56343,0.10224
5513.49190,0.08427
5515.42037,0.07850
5517.34883,0.06744
5519.27730,0.06684
5521.20577,0.08897
5523.13424,0.11255
5525.06271,0.11972
5526.99118,0.10033
5528.91965,0.06174
5530.84811,0.03541
5532.77658,0.04259
5534.70505,0.06756
5536.63352,0.08003
5538.56199,0.07593
5540.49046,0.06672
5542.41893,0.06091
5544.34740,0.07024
5546.27586,0.07832
5548.20433,0.06880
5550.13280,0.06011
5552.06127,0.06723
5553.98974,0.09219
5555.91821,0.10954
5557.84668,0.09476
5559.77514,0.07886
5561.70361,0.09851
5563.63208,0.12765
5565.56055,0.12309
5567.48902,0.10006
5569.41749,0.08326
5571.34596,0.07050
5573.27443,0.06001
5575.20289,0.05013
5577.13136,0.04759
5579.05983,0.05752
5580.98830,0.06677
5582.91677,0.06578
5584.84524,0.06578
5586.77371,0.07196
5588.70217,0.07468
5590.63064,0.07060
5592.55911,0.06571
5594.48758,0.05901
5596.41605,0.05031
5598.34452,0.04673
5600.27299,0.04245
5602.20145,0.04710
5604.12992,0.08422
5606.05839,0.12116
5607.98686,0.12328
5609.91533,0.11796
5611.84380,0.11387
5613.77227,0.09249
5615.70074,0.08291
5617.62920,0.10453
5619.55767,0.12761
5621.48614,0.14405
5623.41461,0.14705
5625.34308,0.11439
5627.27155,0.07785
5629.20002,0.06621
5631.12848,0.06651
5633.05695,0.08265
5634.98542,0.10602
5636.91389,0.10719
5638.84236,0.08988
5640.77083,0.08317
5642.69930,0.08535
5644.62777,0.09037
5646.55623,0.10697
5648.48470,0.10968
5650.41317,0.08530
5652.34164,0.06287
5654.27011,0.06127
5656.19858,0.07135
5658.12705,0.06731
5660.05551,0.04398
5661.98398,0.02527
5663.91245,0.02447
5665.84092,0.02978
5667.76939,0.03636
5669.69786,0.05329
5671.62633,0.06935
5673.55480,0.06308
5675.48326,0.05599
5677.41173,0.08108
5679.34020,0.10884
5681.26867,0.11042
5683.19714,0.10445
5685.12561,0.10120
5687.05408,0.08089
5688.98254,0.04949
5690.91101,0.06400
5692.83948,0.10846
5694.76795,0.12139
5696.69642,0.10876
5698.62489,0.08685
5700.55336,0.07410
5702.48183,0.07908
5704.41029,0.08120
5706.33876,0.07946
5708.26723,0.07531
5710.19570,0.07625
5712.12417,0.09125
5714.05264,0.11098
5715.98111,0.13587
5717.90957,0.14807
5719.83804,0.12186
5721.76651,0.08136
5723.69498,0.06402
5725.62345,0.07679
5727.55192,0.09528
5729.48039,0.08538
5731.40886,0.05266
5733.33732,0.02836
5735.26579,0.02603
5737.19426,0.03146
5739.12273,0.04008
5741.05120,0.06066
5742.97967,0.07356
5744.90814,0.07978
5746.83660,0.09332
5748.76507,0.09612
5750.69354,0.08525
5752.62201,0.09473
5754.55048,0.12335
5756.47895,0.11705
5758.40742,0.08344
5760.33588,0.08012
5762.26435,0.10442
5764.19282,0.11204
5766.12129,0.08712
5768.04976,0.05504
5769.97823,0.06369
5771.90670,0.12124
5773.83517,0.15421
5775.76363,0.13117
5777.69210,0.09490
5779.62057,0.06852
5781.54904,0.05876
5783.47751,0.05938
5785.40598,0.05724
5787.33445,0.04665
5789.26291,0.04541
5791.19138,0.08242
5793.11985,0.12823
5795.04832,0.13973
5796.97679,0.12449
5798.90526,0.10321
5800.83373,0.08025
5802.76220,0.06705
5804.69066,0.07078
5806.61913,0.06764
5808.54760,0.04773
5810.47607,0.03641
5812.40454,0.04572
5814.33301,0.06692
5816.26148,0.08894
5818.18994,0.09467
5820.11841,0.09225
5822.04688,0.09195
5823.97535,0.08320
5825.90382,0.07036
5827.83229,0.05109
5829.76076,0.03734
5831.68923,0.06035
5833.61769,0.10255
5835.54616,0.11539
5837.47463,0.09703
5839.40310,0.07771
5841.33157,0.06560
5843.26004,0.05801
5845.18851,0.07568
5847.11697,0.10825
5849.04544,0.11560
5850.97391,0.11965
5852.90238,0.11659
5854.83085,0.06893
5856.75932,0.02951
5858.68779,0.04993
5860.61626,0.09749
5862.54472,0.12804
5864.47319,0.13474
5866.40166,0.11676
5868.33013,0.07058
5870.25860,0.03565
5872.18707,0.04829
5874.11554,0.07632
5876.04400,0.08320
5877.97247,0.08474
5879.90094,0.09153
5881.82941,0.10057
5883.75788,0.11301
5885.68635,0.10089
5887.61482,0.06559
5889.54329,0.05934
5891.47175,0.08012
5893.40022,0.09520
5895.32869,0.09693
5897.25716,0.08089
5899.18563,0.06820
5901.11410,0.07711
5903.04257,0.09620
5904.97103,0.11827
5906.89950,0.12484
5908.82797,0.10555
5910.75644,0.09081
5912.68491,0.08701
5914.61338,0.07757
5916.54185,0.07651
5918.47032,0.09040
5920.39878,0.08125
5922.32725,0.05207
5924.25572,0.06108
5926.18419,0.08637
5928.11266,0.08352
5930.04113,0.07743
5931.96960,0.08408
5933.89806,0.09604
5935.82653,0.09198
5937.75500,0.07262
5939.68347,0.07452
5941.61194,0.10727
5943.54041,0.13595
5945.46888,0.14346
5947.39734,0.15511
5949.32581,0.16534
5951.25428,0.14238
5953.18275,0.09221
5955.11122,0.05241
5957.03969,0.05391
5958.96816,0.07908
5960.89663,0.09180
5962.82509,0.08831
5964.75356,0.07402
5966.68203,0.07140
5968.61050,0.09618
5970.53897,0.12480
5972.46744,0.13630
5974.39591,0.11662
5976.32437,0.09125
5978.25284,0.08988
5980.18131,0.08900
5982.10978,0.07720
5984.03825,0.07148
5985.96672,0.08696
5987.89519,0.12061
5989.82366,0.13527
5991.75212,0.11244
5993.68059,0.08819
5995.60906,0.06137
5997.53753,0.03100
5999.46600,0.07691
6001.39447,0.18840
6003.32294,0.23727
6005.25140,0.17382
6007.17987,0.08481
6009.10834,0.03232
6011.03681,0.01034
6012.96528,0.01452
6014.89375,0.06046
6016.82222,0.14293
6018.75069,0.17557
6020.67915,0.14086
6022.60762,0.13734
6024.53609,0.14584
6026.46456,0.11461
6028.39303,0.09078
6030.32150,0.10207
6032.24997,0.11568
6034.17843,0.11758
6036.10690,0.11449
6038.03537,0.12249
6039.96384,0.14805
6041.89231,0.15483
6043.82078,0.11277
6045.74925,0.06410
6047.67772,0.04828
6049.60618,0.05563
6051.53465,0.08370
6053.46312,0.12587
6055.39159,0.14286
6057.32006,0.12524
6059.24853,0.11107
6061.17700,0.11381
6063.10546,0.10680
6065.03393,0.07482
6066.96240,0.04275
6068.89087,0.02373
6070.81934,0.00784
6072.74781,0.00710
6074.67628,0.01963
6076.60475,0.01033
6078.53321,0.00843
6080.46168,0.07918
6082.39015,0.16300
6084.31862,0.16947
6086.24709,0.14680
6088.17556,0.14302
6090.10403,0.10725
6092.03249,0.02665
6093.96096,-0.00576
6095.88943,0.07431
6097.81790,0.15752
6099.74637,0.14678
6101.67484,0.09170
6103.60331,0.05384
6105.53177,0.04423
6107.46024,0.06653
6109.38871,0.09667
6111.31718,0.09827
6113.24565,0.08188
6115.17412,0.05346
6117.10259,0.02194
6119.03106,0.00730
6120.95952,0.00112
6122.88799,0.01877
6124.81646,0.05943
6126.74493,0.06964
6128.67340,0.05082
6130.60187,0.05836
6132.53034,0.08287
6134.45880,0.08859
6136.38727,0.06399
6138.31574,0.03908
6140.24421,0.05691
6142.17268,0.07387
6144.10115,0.05775
6146.02962,0.05865
6147.95809,0.08468
6149.88655,0.10390
6151.81502,0.10415
6153.74349,0.08953
6155.67196,0.07155
6157.60043,0.07847
6159.52890,0.09826
6161.45737,0.10564
6163.38583,0.10244
6165.31430,0.08741
6167.24277,0.09469
6169.17124,0.12522
6171.09971,0.14481
6173.02818,0.15639
6174.95665,0.14376
6176.88512,0.08941
6178.81358,0.05792
6180.74205,0.06064
6182.67052,0.04113
6184.59899,0.05735
6186.52746,0.12852
6188.45593,0.16443
6190.38440,0.16463
6192.31286,0.17208
6194.24133,0.16956
6196.16980,0.12560
6198.09827,0.07514
6200.02674,0.07145
6201.95521,0.07375
6203.88368,0.06331
6205.81215,0.09680
6207.74061,0.13965
6209.66908,0.12733
6211.59755,0.11489
6213.52602,0.13562
6215.45449,0.15158
6217.38296,0.14721
6219.31143,0.12507
6221.23989,0.11552
6223.16836,0.13010
6225.09683,0.11926
6227.02530,0.08135
6228.95377,0.09742
6230.88224,0.14060
6232.81071,0.12763
6234.73918,0.10776
6236.66764,0.11113
6238.59611,0.09669
6240.52458,0.08707
6242.45305,0.11438
6244.38152,0.13474
6246.30999,0.14990
6248.23846,0.20089
6250.16692,0.22328
6252.09539,0.15738
6254.02386,0.08385
6255.95233,0.07243
6257.88080,0.09187
6259.80927,0.10391
6261.73774,0.10653
6263.66621,0.09947
6265.59467,0.08985
6267.52314,0.08164
6269.45161,0.07316
6271.38008,0.07590
6273.30855,0.09261
6275.23702,0.09859
6277.16549,0.07525
6279.09395,0.06520
6281.02242,0.11341
6282.95089,0.15167
6284.87936,0.12257
6286.80783,0.09993
6288.73630,0.10280
6290.66477,0.08080
6292.59323,0.05730
6294.52170,0.09399
6296.45017,0.15215
6298.37864,0.13995
6300.30711,0.06602
6302.23558,0.00413
6304.16405,-0.02139
6306.09252,-0.02273
6308.02098,0.01837
6309.94945,0.09569
6311.87792,0.14400
6313.80639,0.13392
6315.73486,0.10057
6317.66333,0.09023
6319.59180,0.12493
6321.52026,0.14709
6323.44873,0.10607
6325.37720,0.06597
6327.30567,0.07305
6329.23414,0.10688
6331.16261,0.15011
6333.09108,0.16608
6335.01955,0.13897
6336.94801,0.14754
6338.87648,0.20272
6340.80495,0.20295
6342.73342,0.14537
6344.66189,0.11648
6346.59036,0.13565
6348.51883,0.16128
6350.44729,0.15541
6352.37576,0.10389
6354.30423,0.06910
6356.23270,0.07905
6358.16117,0.08631
6360.08964,0.09977
6362.01811,0.13448
6363.94658,0.12789
6365.87504,0.07533
6367.80351,0.05576
6369.73198,0.08764
6371.66045,0.13658
6373.58892,0.15995
6375.51739,0.13393
6377.44586,0.09167
6379.37432,0.07263
6381.30279,0.08713
6383.23126,0.08030
6385.15973,0.02197
6387.08820,-0.01422
6389.01667,-0.01345
6390.94514,-0.00995
6392.87361,-0.02066
6394.80207,-0.01995
6396.73054,0.01408
6398.65901,0.04788
6400.58748,0.05604
6402.51595,0.03710
6404.44442,0.02297
6406.37289,0.06395
6408.30135,0.13063
6410.22982,0.13053
6412.15829,0.06644
6414.08676,0.05264
6416.01523,0.12973
6417.94370,0.20264
6419.87217,0.18695
6421.80064,0.12406
6423.72910,0.07490
6425.65757,0.07729
6427.58604,0.12276
6429.51451,0.14725
6431.44298,0.11403
6433.37145,0.07307
6435.29992,0.06951
6437.22838,0.09158
6439.15685,0.10827
6441.08532,0.09638
6443.01379,0.07256
6444.94226,0.07120
6446.87073,0.08117
6448.79920,0.08700
6450.72766,0.07301
6452.65613,0.03246
6454.58460,0.01723
6456.51307,0.04745
6458.44154,0.10922
6460.37001,0.17490
6462.29848,0.17701
6464.22695,0.09833
6466.15541,0.00311
6468.08388,-0.03180
6470.01235,-0.00470
6471.94082,0.04504
6473.86929,0.10773
6475.79776,0.14548
6477.72623,0.13876
6479.65469,0.11693
6481.58316,0.08457
6483.51163,0.05168
6485.44010,0.06705
6487.36857,0.11964
6489.29704,0.15028
6491.22551,0.16442
6493.15398,0.17081
6495.08244,0.13520
6497.01091,0.08958
6498.93938,0.09833
6500.86785,0.11030
6502.79632,0.04607
6504.72479,0.00646
6506.65326,0.04126
6508.58172,0.02968
6510.51019,-0.05511
6512.43866,-0.08976
6514.36713,-0.04439
6516.29560,0.00898
6518.22407,0.02675
6520.15254,0.00525
6522.08101,-0.03917
6524.00947,-0.07316
6525.93794,-0.05764
6527.86641,-0.02152
6529.79488,-0.00814
6531.72335,0.02029
6533.65182,0.09731
6535.58029,0.15734
6537.50875,0.14757
6539.43722,0.12413
6541.36569,0.12373
6543.29416,0.09989
6545.22263,0.05160
6547.15110,0.04196
6549.07957,0.08749
6551.00804,0.11652
6552.93650,0.07836
6554.86497,0.02285
6556.79344,-0.01652
6558.72191,-0.02084
6560.65038,0.00798
6562.57885,0.00980
6564.50732,-0.00824
6566.43578,0.05631
6568.36425,0.14346
6570.29272,0.06570
6572.22119,-0.05455
6574.14966,0.01975
6576.07813,0.16411
6578.00660,0.16389
6579.93507,0.09204
6581.86353,0.11112
6583.79200,0.18079
6585.72047,0.22765
6587.64894,0.20522
6589.57741,0.08851
6591.50588,0.03597
6593.43435,0.12810
6595.36281,0.17491
6597.29128,0.11267
6599.21975,0.08012
6601.14822,0.07524
6603.07669,0.04807
6605.00516,0.06810
6606.93363,0.11000
6608.86210,0.08557
6610.79056,0.02718
6612.71903,0.01155
6614.64750,0.05412
6616.57597,0.13713
6618.50444,0.17973
6620.43291,0.13724
6622.36138,0.09838
6624.28984,0.07729
6626.21831,0.06508
6628.14678,0.11683
6630.07525,0.15001
6632.00372,0.09054
6633.93219,0.02177
6635.86066,0.02153
6637.78912,0.07272
6639.71759,0.09725
6641.64606,0.11171
6643.57453,0.14421
6645.50300,0.14777
6647.43147,0.09837
6649.35994,0.04853
6651.28841,0.01296
6653.21687,-0.02556
6655.14534,-0.02414
6657.07381,0.01696
6659.00228,0.02393
6660.93075,0.04947
6662.85922,0.13490
6664.78769,0.18494
6666.71615,0.17479
6668.64462,0.15045
6670.57309,0.11119
6672.50156,0.07820
6674.43003,0.03785
6676.35850,-0.03409
6678.28697,-0.05367
6680.21544,-0.00462
6682.14390,0.05014
6684.07237,0.07898
6686.00084,0.08779
6687.92931,0.06682
6689.85778,-0.00552
6691.78625,-0.04151
6693.71472,0.00634
6695.64318,0.06012
6697.57165,0.06441
6699.50012,0.09057
6701.42859,0.13731
6703.35706,0.12540
6705.28553,0.07889
6707.21400,0.03028
6709.14247,0.02943
6711.07093,0.08593
6712.99940,0.11447
6714.92787,0.11401
6716.85634,0.12818
6718.78481,0.12169
6720.71328,0.09326
6722.64175,0.07425
6724.57021,0.04003
6726.49868,0.00150
6728.42715,-0.01321
6730.35562,0.02031
6732.28409,0.07785
6734.21256,0.08470
6736.14103,0.04979
6738.06950,0.04701
6739.99796,0.08886
6741.92643,0.13825
6743.85490,0.18236
6745.78337,0.19614
6747.71184,0.11241
6749.64031,-0.03847
6751.56878,-0.11152
6753.49724,-0.05559
6755.42571,0.04886
6757.35418,0.11020
6759.28265,0.10199
6761.21112,0.04383
6763.13959,-0.00776
6765.06806,-0.00001
6766.99653,0.02485
6768.92499,0.01076
6770.85346,0.00749
6772.78193,0.03885
6774.71040,0.08028
6776.63887,0.11360
6778.56734,0.12826
6780.49581,0.11367
6782.42427,0.08863
6784.35274,0.09694
6786.28121,0.07767
6788.20968,-0.00116
6790.13815,-0.02196
6792.06662,0.06958
6793.99509,0.13997
6795.92355,0.12905
6797.85202,0.08021
6799.78049,0.01462
6801.70896,0.00562
6803.63743,0.09834
6805.56590,0.15278
6807.49437,0.10741
6809.42284,0.00548
6811.35130,-0.10966
6813.27977,-0.16310
6815.20824,-0.16698
6817.13671,-0.12364
6819.06518,-0.03594
6820.99365,0.00477
6822.92212,-0.02124
6824.85058,0.01122
6826.77905,0.09837
6828.70752,0.11257
6830.63599,0.06256
6832.56446,0.03061
6834.49293,0.00205
6836.42140,-0.05807
6838.34987,-0.08914
6840.27833,0.00338
6842.20680,0.13235
6844.13527,0.16584
6846.06374,0.11272
6847.99221,0.02182
6849.92068,-0.02543
6851.84915,0.03060
6853.77761,0.11865
6855.70608,0.12550
6857.63455,0.06515
6859.56302,0.05100
6861.49149,0.07128
6863.41996,0.07054
6865.34843,0.06153
6867.27690,0.06176
6869.20536,0.07094
6871.13383,0.09417
6873.06230,0.07293
6874.99077,0.02445
6876.91924,0.02335
6878.84771,0.00659
6880.77618,-0.01723
6882.70464,0.03867
6884.63311,0.14082
6886.56158,0.20540
6888.49005,0.17899
6890.41852,0.09579
6892.34699,0.01322
6894.27546,0.00888
6896.20393,0.09160
6898.13239,0.08553
6900.06086,-0.05179
6901.98933,-0.09396
6903.91780,0.01028
6905.84627,0.08249
6907.77474,0.07712
6909.70321,0.11857
6911.63167,0.17619
6913.56014,0.12109
6915.48861,-0.01474
6917.41708,-0.11014
6919.34555,-0.09157
6921.27402,0.00989
6923.20249,0.07826
6925.13096,0.07654
6927.05942,0.07004
6928.98789,0.11212
6930.91636,0.16143
6932.84483,0.18926
6934.77330,0.16368
6936.70177,0.08815
6938.63024,0.04963
6940.55870,0.04667
6942.48717,0.02971
6944.41564,0.07067
6946.34411,0.17226
6948.27258,0.20949
6950.20105,0.16530
6952.12952,0.15360
6954.05799,0.16458
6955.98645,0.14356
6957.91492,0.18344
6959.84339,0.23110
6961.77186,0.14979
6963.70033,0.05683
6965.62880,0.06552
6967.55727,0.09154
6969.48573,0.02937
6971.41420,-0.03929
6973.34267,-0.01501
6975.27114,-0.00715
6977.19961,-0.05780
6979.12808,-0.11247
6981.05655,-0.14397
6982.98501,-0.05334
6984.91348,0.12940
6986.84195,0.17994
6988.77042,0.05588
6990.69889,-0.05231
6992.62736,-0.02704
6994.55583,0.07695
6996.48430,0.11976
6998.41276,0.02922
7000.34123,-0.04939
7002.26970,-0.02829
7004.19817,0.03538
7006.12664,0.12654
7008.05511,0.16169
7009.98358,0.09703
7011.91204,0.04839
7013.84051,0.07528
7015.76898,0.09566
7017.69745,0.01732
7019.62592,-0.10309
7021.55439,-0.14127
7023.48286,-0.09236
7025.41133,-0.02034
7027.33979,0.04926
7029.26826,0.09891
7031.19673,0.06865
7033.12520,-0.00190
7035.05367,0.01414
7036.98214,0.09530
7038.91061,0.11407
7040.83907,0.08073
7042.76754,0.08727
7044.69601,0.10818
7046.62448,0.02149
7048.55295,-0.06907
7050.48142,-0.01023
7052.40989,0.12366
7054.33836,0.19466
7056.26682,0.12439
7058.19529,0.04309
7060.12376,0.12552
7062.05223,0.21370
7063.98070,0.19435
7065.90917,0.10471
7067.83764,-0.07593
7069.76610,-0.25754
7071.69457,-0.18527
7073.62304,0.03319
7075.55151,0.12165
7077.47998,0.14359
7079.40845,0.17684
7081.33692,0.16041
7083.26539,0.13280
7085.19385,0.13237
7087.12232,0.10993
7089.05079,0.06743
7090.97926,0.06798
7092.90773,0.15822
7094.83620,0.27526
7096.76467,0.30169
7098.69313,0.19352
7100.62160,0.05754
7102.55007,0.01461
7104.47854,0.05286
7106.40701,0.11452
7108.33548,0.08975
7110.26395,-0.05500
7112.19242,-0.13175
7114.12088,-0.03025
7116.04935,0.11819
7117.97782,0.16937
7119.90629,0.12176
7121.83476,0.10303
7123.76323,0.13254
7125.69170,0.19168
7127.62016,0.24428
7129.54863,0.26221
7131.47710,0.29215
7133.40557,0.27860
7135.33404,0.18148
7137.26251,0.11775
7139.19098,0.09705
7141.11944,-0.00879
7143.04791,-0.15357
7144.97638,-0.20673
7146.90485,-0.18588
7148.83332,-0.15504
7150.76179,-0.11550
7152.69026,-0.01401
7154.61873,0.13714
7156.54719,0.19827
7158.47566,0.19553
7160.40413,0.20558
7162.33260,0.16804
7164.26107,0.07208
7166.18954,0.00571
7168.11801,-0.03138
7170.04647,-0.08190
7171.97494,-0.09061
7173.90341,-0.01358
7175.83188,0.03365
7177.76035,-0.09344
7179.68882,-0.24992
7181.61729,-0.18355
7183.54576,0.11269
7185.47422,0.32777
7187.40269,0.34553
7189.33116,0.29729
7191.25963,0.29893
7193.18810,0.25957
7195.11657,0.07699
7197.04504,-0.06152
7198.97350,-0.02903
7200.90197,0.04170
7202.83044,0.07804
7204.75891,0.05462
7206.68738,0.05462
7208.61585,0.18122
7210.54432,0.24352
7212.47279,0.19438
7214.40125,0.22378
7216.32972,0.28474
7218.25819,0.18352
7220.18666,0.05630
7222.11513,0.03452
7224.04360,0.09941
7225.97207,0.20663
7227.90053,0.27912
7229.82900,0.25455
7231.75747,0.03886
7233.68594,-0.18484
7235.61441,-0.16819
7237.54288,-0.03040
7239.47135,0.02703
7241.39982,0.06624
7243.32828,0.15076
7245.25675,0.22967
7247.18522,0.28146
7249.11369,0.26011
7251.04216,0.21393
7252.97063,0.29210
7254.89910,0.40432
7256.82756,0.43718
7258.75603,0.43241
7260.68450,0.35675
7262.61297,0.20086
7264.54144,0.08901
7266.46991,0.12402
7268.39838,0.15996
7270.32685,0.08305
7272.25531,0.02498
7274.18378,0.02436
7276.11225,0.03530
7278.04072,0.10750
7279.96919,0.19771
7281.89766,0.16640
7283.82613,0.05984
7285.75459,0.03250
7287.68306,0.08719
7289.61153,0.07262
7291.54000,0.01074
7293.46847,0.10058
7295.39694,0.25463
7297.32541,0.27424
7299.25387,0.20560
7301.18234,0.15816
7303.11081,0.12990
7305.03928,0.08667
7306.96775,0.08659
7308.89622,0.15081
7310.82469,0.11765
7312.75316,0.05795
7314.68162,0.05308
7316.61009,0.05813
7318.53856,0.10842
7320.46703,0.14127
7322.39550,0.10782
7324.32397,0.03526
7326.25244,-0.03398
7328.18090,-0.01792
7330.10937,0.10470
7332.03784,0.26699
7333.96631,0.36083
7335.89478,0.28374
7337.82325,0.13747
7339.75172,0.04102
7341.68019,-0.00434
7343.60865,0.02056
7345.53712,0.10553
7347.46559,0.23711
7349.39406,0.43526
7351.32253,0.56185
7353.25100,0.49779
7355.17947,0.29714
7357.10793,0.06649
7359.03640,-0.03516
7360.96487,-0.00050
7362.89334,-0.05395
7364.82181,-0.21699
7366.75028,-0.29090
7368.67875,-0.28124
7370.60722,-0.28884
7372.53568,-0.29925
7374.46415,-0.23328
7376.39262,-0.04731
7378.32109,0.09618
7380.24956,0.18700
7382.17803,0.23745
7384.10650,0.16798
7386.03496,0.00157
7387.96343,-0.03725
7389.89190,0.13907
7391.82037,0.29649
7393.74884,0.26002
7395.67731,0.16438
7397.60578,0.16374
7399.53425,0.08358
7401.46271,-0.11553
7403.39118,-0.18731
7405.31965,-0.08531
7407.24812,-0.02785
7409.17659,-0.06336
7411.10506,-0.09871
7413.03353,-0.06407
7414.96199,-0.01032
7416.89046,0.06790
7418.81893,0.21929
7420.74740,0.24306
7422.67587,0.11177
7424.60434,0.02439
7426.53281,0.02100
7428.46128,0.06115
7430.38974,0.05176
7432.31821,-0.03337
7434.24668,-0.05123
7436.17515,0.03110
7438.10362,0.13135
7440.03209,0.23823
7441.96056,0.34417
7443.88902,0.35510
7445.81749,0.25171
7447.74596,0.15060
7449.67443,0.09417
7451.60290,0.06386
7453.53137,0.14240
7455.45984,0.32919
7457.38831,0.45138
7459.31677,0.29690
7461.24524,-0.02246
7463.17371,-0.08453
7465.10218,-0.03374
7467.03065,-0.09042
7468.95912,0.00091
7470.88759,0.27495
7472.81605,0.37739
7474.74452,0.32485
7476.67299,0.37058
7478.60146,0.54429
7480.52993,0.58477
7482.45840,0.23565
7484.38687,-0.07394
7486.31533,-0.04895
7488.24380,0.02199
7490.17227,0.01273
7492.10074,0.05145
7494.02921,0.07193
7495.95768,0.09111
7497.88615,0.19624
