399.19301,1.10132
401.12148,-0.20474
403.04995,-0.07254
404.97842,0.27902
406.90689,0.36557
408.83536,0.23129
410.76382,0.11660
412.69229,0.05915
414.62076,-0.06404
416.54923,-0.24912
418.47770,-0.32187
420.40617,-0.17949
422.33464,-0.14203
424.26311,-0.19490
426.19157,-0.13665
428.12004,0.01962
430.04851,0.19412
431.97698,0.29513
433.90545,0.28432
435.83392,0.22887
437.76239,0.15243
439.69085,0.06634
441.61932,-0.01192
443.54779,-0.02491
445.47626,0.00672
447.40473,0.02973
449.33320,0.07783
451.26167,0.14180
453.19013,0.11569
455.11860,0.01115
457.04707,-0.00168
458.97554,0.08306
460.90401,0.09611
462.83248,0.08966
464.76095,0.14628
466.68942,0.17482
468.61788,0.14871
470.54635,0.22049
472.47482,0.81793
474.40329,1.57142
476.33176,1.05301
478.26023,0.37791
480.18870,0.19626
482.11716,0.22470
484.04563,0.22175
485.97410,0.20124
487.90257,0.15466
489.83104,0.06554
491.75951,0.01303
493.68798,0.03054
495.61645,0.07315
497.54491,0.10641
499.47338,0.11769
501.40185,0.11299
503.33032,0.10718
505.25879,0.10445
507.18726,0.09628
509.11573,0.09741
511.04419,0.11764
512.97266,0.11754
514.90113,0.08562
516.82960,0.08548
518.75807,0.14430
520.68654,0.20039
522.61501,0.19263
524.54348,0.12092
526.47194,0.06530
528.40041,0.05954
530.32888,0.06434
532.25735,0.06597
534.18582,0.09155
536.11429,0.15479
538.04276,0.18860
539.97122,0.16554
541.89969,0.13816
543.82816,0.11198
545.75663,0.09549
547.68510,0.11747
549.61357,0.13387
551.54204,0.11025
553.47051,0.10844
555.39897,0.15406
557.32744,0.16979
559.25591,0.13630
561.18438,0.11266
563.11285,0.10702
565.04132,0.10832
566.96979,0.11759
568.89825,0.13429
570.82672,0.15514
572.75519,0.14961
574.68366,0.11858
576.61213,0.11580
578.54060,0.13063
580.46907,0.12802
582.39754,0.12313
584.32600,0.11828
586.25447,0.12236
588.18294,0.13834
590.11141,0.13372
592.03988,0.12751
593.96835,0.14854
595.89682,0.16189
597.82528,0.14206
599.75375,0.10445
601.68222,0.07370
603.61069,0.06654
605.53916,0.08852
607.46763,0.12571
609.39610,0.15278
611.32456,0.15283
613.25303,0.13519
615.18150,0.11765
617.10997,0.10251
619.03844,0.09961
620.96691,0.11004
622.89538,0.11830
624.82385,0.12126
626.75231,0.12543
628.68078,0.13533
630.60925,0.13724
632.53772,0.12938
634.46619,0.14066
636.39466,0.16458
638.32313,0.16345
640.25159,0.13413
642.18006,0.11067
644.10853,0.11479
646.03700,0.13121
647.96547,0.13575
649.89394,0.13722
651.82241,0.15630
653.75088,0.17062
655.67934,0.15297
657.60781,0.12197
659.53628,0.10764
661.46475,0.11406
663.39322,0.13073
665.32169,0.14639
667.25016,0.14899
669.17862,0.15375
671.10709,0.17647
673.03556,0.17513
674.96403,0.14738
676.89250,0.13861
678.82097,0.15584
680.74944,0.15649
682.67791,0.13606
684.60637,0.12097
686.53484,0.11210
688.46331,0.10495
690.39178,0.10856
692.32025,0.12207
694.24872,0.13436
696.17719,0.13481
698.10565,0.12415
700.03412,0.11735
701.96259,0.12327
703.89106,0.13704
705.81953,0.14366
707.74800,0.13466
709.67647,0.12488
711.60494,0.12988
713.53340,0.14634
715.46187,0.15531
717.39034,0.14491
719.31881,0.13372
721.24728,0.14177
723.17575,0.15539
725.10422,0.15754
727.03268,0.15179
728.96115,0.14150
730.88962,0.13537
732.81809,0.15146
734.74656,0.17715
736.67503,0.17908
738.60350,0.15982
740.53197,0.14439
742.46043,0.13885
744.38890,0.13628
746.31737,0.13069
748.24584,0.12826
750.17431,0.13951
752.10278,0.14794
754.03125,0.14094
755.95971,0.13330
757.88818,0.13511
759.81665,0.14633
761.74512,0.15624
763.67359,0.15600
765.60206,0.15097
767.53053,0.14608
769.45900,0.14280
771.38746,0.13533
773.31593,0.12443
775.24440,0.12355
777.17287,0.13173
779.10134,0.13729
781.02981,0.13858
782.95828,0.14281
784.88674,0.14907
786.81521,0.14510
788.74368,0.13558
790.67215,0.14053
792.60062,0.15728
794.52909,0.16506
796.45756,0.16191
798.38602,0.15831
800.31449,0.15379
802.24296,0.14445
804.17143,0.13434
806.09990,0.13452
808.02837,0.14037
809.95684,0.14157
811.88531,0.13888
813.81377,0.12958
815.74224,0.12529
817.67071,0.14051
819.59918,0.15975
821.52765,0.16399
823.45612,0.15751
825.38459,0.15245
827.31305,0.14847
829.24152,0.13999
831.16999,0.13066
833.09846,0.12733
835.02693,0.12992
836.95540,0.13708
838.88387,0.14447
840.81234,0.14418
842.74080,0.14416
844.66927,0.15541
846.59774,0.16869
848.52621,0.17089
850.45468,0.15846
852.38315,0.14115
854.31162,0.13360
856.24008,0.13942
858.16855,0.15193
860.09702,0.15847
862.02549,0.15625
863.95396,0.15355
865.88243,0.14274
867.81090,0.07611
869.73937,-0.04016
871.66783,-0.06305
873.59630,0.04655
875.52477,0.14065
877.45324,0.16036
879.38171,0.15426
881.31018,0.14263
883.23865,0.14017
885.16711,0.15587
887.09558,0.16865
889.02405,0.16243
890.95252,0.14949
892.88099,0.14466
894.80946,0.14500
896.73793,0.14436
898.66640,0.14584
900.59486,0.15356
902.52333,0.16529
904.45180,0.17019
906.38027,0.16637
908.30874,0.16383
910.23721,0.16108
912.16568,0.15412
914.09414,0.14799
916.02261,0.14484
917.95108,0.14537
919.87955,0.15374
921.80802,0.16470
923.73649,0.16588
925.66496,0.15924
927.59343,0.15564
929.52189,0.15541
931.45036,0.15244
933.37883,0.14848
935.30730,0.14584
937.23577,0.14491
939.16424,0.14999
941.09271,0.15577
943.02117,0.15648
944.94964,0.15919
946.87811,0.16290
948.80658,0.15762
950.73505,0.14611
952.66352,0.13958
954.59199,0.14364
956.52045,0.15555
958.44892,0.16240
960.37739,0.15652
962.30586,0.15136
964.23433,0.15751
966.16280,0.16327
968.09127,0.15721
970.01974,0.14672
971.94820,0.14249
973.87667,0.14760
975.80514,0.15948
977.73361,0.16954
979.66208,0.17059
981.59055,0.16164
983.51902,0.14831
985.44748,0.14067
987.37595,0.14261
989.30442,0.14857
991.23289,0.15277
993.16136,0.15499
995.08983,0.15580
997.01830,0.15653
998.94677,0.16146
1000.87523,0.16583
1002.80370,0.16121
1004.73217,0.15384
1006.66064,0.15571
1008.58911,0.16478
1010.51758,0.16773
1012.44605,0.16617
1014.37451,0.16736
1016.30298,0.16267
1018.23145,0.15433
1020.15992,0.15502
1022.08839,0.15971
1024.01686,0.15926
1025.94533,0.15957
1027.87380,0.16350
1029.80226,0.16783
1031.73073,0.17616
1033.65920,0.18463
1035.58767,0.18481
1037.51614,0.18039
1039.44461,0.17701
1041.37308,0.17390
1043.30154,0.17238
1045.23001,0.17133
1047.15848,0.16722
1049.08695,0.16662
1051.01542,0.17406
1052.94389,0.18167
1054.87236,0.18268
1056.80083,0.18043
1058.72929,0.18070
1060.65776,0.18276
1062.58623,0.17938
1064.51470,0.17371
1066.44317,0.17602
1068.37164,0.18089
1070.30011,0.18185
1072.22857,0.17541
1074.15704,0.16447
1076.08551,0.16303
1078.01398,0.16665
1079.94245,0.16511
1081.87092,0.16306
1083.79939,0.16313
1085.72786,0.16141
1087.65632,0.15778
1089.58479,0.16015
1091.51326,0.17146
1093.44173,0.18258
1095.37020,0.18537
1097.29867,0.18377
1099.22714,0.18531
1101.15560,0.18961
1103.08407,0.19127
1105.01254,0.18772
1106.94101,0.18268
1108.86948,0.17588
1110.79795,0.16863
1112.72642,0.16849
1114.65489,0.17463
1116.58335,0.18044
1118.51182,0.17915
1120.44029,0.17214
1122.36876,0.16718
1124.29723,0.16365
1126.22570,0.15917
1128.15417,0.15439
1130.08263,0.15033
1132.01110,0.15053
1133.93957,0.15534
1135.86804,0.16038
1137.79651,0.16438
1139.72498,0.16515
1141.65345,0.16182
1143.58191,0.16066
1145.51038,0.16132
1147.43885,0.16023
1149.36732,0.16272
1151.29579,0.17038
1153.22426,0.17627
1155.15273,0.17796
1157.08120,0.17834
1159.00966,0.17836
1160.93813,0.17613
1162.86660,0.17109
1164.79507,0.16799
1166.72354,0.16971
1168.65201,0.17388
1170.58048,0.17716
1172.50894,0.17430
1174.43741,0.16785
1176.36588,0.16878
1178.29435,0.17529
1180.22282,0.17670
1182.15129,0.17197
1184.07976,0.16894
1186.00823,0.17252
1187.93669,0.17718
1189.86516,0.17800
1191.79363,0.17900
1193.72210,0.18249
1195.65057,0.18542
1197.57904,0.18427
1199.50751,0.17975
1201.43597,0.17624
1203.36444,0.17421
1205.29291,0.17129
1207.22138,0.16865
1209.14985,0.16814
1211.07832,0.16793
1213.00679,0.16906
1214.93526,0.17380
1216.86372,0.17734
1218.79219,0.17768
1220.72066,0.17860
1222.64913,0.18152
1224.57760,0.18429
1226.50607,0.18185
1228.43454,0.17607
1230.36300,0.17435
1232.29147,0.17727
1234.21994,0.18118
1236.14841,0.18182
1238.07688,0.17932
1240.00535,0.17720
1241.93382,0.17374
1243.86229,0.16825
1245.79075,0.16564
1247.71922,0.16900
1249.64769,0.17494
1251.57616,0.17622
1253.50463,0.17296
1255.43310,0.17312
1257.36157,0.17631
1259.29003,0.17561
1261.21850,0.17477
1263.14697,0.18091
1265.07544,0.19134
1267.00391,0.19755
1268.93238,0.19443
1270.86085,0.18781
1272.78932,0.18343
1274.71778,0.18053
1276.64625,0.18007
1278.57472,0.18074
1280.50319,0.17813
1282.43166,0.17524
1284.36013,0.17733
1286.28860,0.18108
1288.21706,0.18188
1290.14553,0.17937
1292.07400,0.17558
1294.00247,0.17395
1295.93094,0.17508
1297.85941,0.17720
1299.78788,0.17673
1301.71634,0.16985
1303.64481,0.16165
1305.57328,0.16285
1307.50175,0.17256
1309.43022,0.18002
1311.35869,0.18394
1313.28716,0.18938
1315.21563,0.19139
1317.14409,0.18572
1319.07256,0.18059
1321.00103,0.18063
1322.92950,0.18150
1324.85797,0.18241
1326.78644,0.18419
1328.71491,0.18374
1330.64337,0.18035
1332.57184,0.17824
1334.50031,0.17871
1336.42878,0.18039
1338.35725,0.18295
1340.28572,0.18346
1342.21419,0.17959
1344.14266,0.17538
1346.07112,0.17469
1347.99959,0.17581
1349.92806,0.17592
1351.85653,0.17634
1353.78500,0.17751
1355.71347,0.17777
1357.64194,0.17856
1359.57040,0.18237
1361.49887,0.18600
1363.42734,0.18442
1365.35581,0.18127
1367.28428,0.18051
1369.21275,0.18098
1371.14122,0.18192
1373.06969,0.18526
1374.99815,0.19123
1376.92662,0.19636
1378.85509,0.19938
1380.78356,0.19949
1382.71203,0.19873
1384.64050,0.19956
1386.56897,0.19984
1388.49743,0.19977
1390.42590,0.20114
1392.35437,0.20255
1394.28284,0.20161
1396.21131,0.19660
1398.13978,0.19096
1400.06825,0.18786
1401.99672,0.18638
1403.92518,0.18610
1405.85365,0.18771
1407.78212,0.18924
1409.71059,0.18842
1411.63906,0.18602
1413.56753,0.18490
1415.49600,0.18667
1417.42446,0.18945
1419.35293,0.19146
1421.28140,0.19588
1423.20987,0.20075
1425.13834,0.19926
1427.06681,0.19355
1428.99528,0.19254
1430.92375,0.19601
1432.85221,0.19748
1434.78068,0.19930
1436.70915,0.20048
1438.63762,0.19458
1440.56609,0.18962
1442.49456,0.18970
1444.42303,0.19081
1446.35149,0.19175
1448.27996,0.19481
1450.20843,0.19746
1452.13690,0.19691
1454.06537,0.19627
1455.99384,0.20043
1457.92231,0.20343
1459.85077,0.19681
1461.77924,0.19358
1463.70771,0.19683
1465.63618,0.19931
1467.56465,0.19692
1469.49312,0.19608
1471.42159,0.19856
1473.35006,0.20180
1475.27852,0.20581
1477.20699,0.20811
1479.13546,0.20568
1481.06393,0.20100
1482.99240,0.19797
1484.92087,0.19953
1486.84934,0.20534
1488.77780,0.20988
1490.70627,0.20854
1492.63474,0.20768
1494.56321,0.21111
1496.49168,0.21377
1498.42015,0.20874
1500.34862,0.20193
1502.27709,0.19949
1504.20555,0.20111
1506.13402,0.20413
1508.06249,0.20425
1509.99096,0.20424
1511.91943,0.20588
1513.84790,0.20968
1515.77637,0.21352
1517.70483,0.21376
1519.63330,0.21461
1521.56177,0.21656
1523.49024,0.21356
1525.41871,0.20767
1527.34718,0.19941
1529.27565,0.19341
1531.20412,0.19324
1533.13258,0.19714
1535.06105,0.20203
1536.98952,0.20943
1538.91799,0.22467
1540.84646,0.23238
1542.77493,0.21682
1544.70340,0.20440
1546.63186,0.19877
1548.56033,0.19661
1550.48880,0.19615
1552.41727,0.19836
1554.34574,0.20448
1556.27421,0.21072
1558.20268,0.20964
1560.13115,0.20047
1562.05961,0.19757
1563.98808,0.19690
1565.91655,0.19596
1567.84502,0.19721
1569.77349,0.20011
1571.70196,0.20132
1573.63043,0.20385
1575.55889,0.20704
1577.48736,0.20412
1579.41583,0.19919
1581.34430,0.19647
1583.27277,0.19339
1585.20124,0.18868
1587.12971,0.18573
1589.05818,0.18712
1590.98664,0.18849
1592.91511,0.18556
1594.84358,0.18206
1596.77205,0.18145
1598.70052,0.18331
1600.62899,0.18658
1602.55746,0.18882
1604.48592,0.18931
1606.41439,0.19051
1608.34286,0.19375
1610.27133,0.19666
1612.19980,0.19936
1614.12827,0.20652
1616.05674,0.21744
1617.98521,0.21929
1619.91367,0.21207
1621.84214,0.20531
1623.77061,0.20313
1625.69908,0.20712
1627.62755,0.21015
1629.55602,0.20769
1631.48449,0.20587
1633.41295,0.21022
1635.34142,0.22032
1637.26989,0.22135
1639.19836,0.21153
1641.12683,0.20450
1643.05530,0.20514
1644.98377,0.21329
1646.91223,0.22373
1648.84070,0.22592
1650.76917,0.22750
1652.69764,0.23321
1654.62611,0.22289
1656.55458,0.20751
1658.48305,0.20107
1660.41152,0.20096
1662.33998,0.20302
1664.26845,0.20683
1666.19692,0.21287
1668.12539,0.21910
1670.05386,0.22179
1671.98233,0.22035
1673.91080,0.21753
1675.83926,0.21253
1677.76773,0.20722
1679.69620,0.20561
1681.62467,0.21012
1683.55314,0.21789
1685.48161,0.21821
1687.41008,0.21545
1689.33855,0.21563
1691.26701,0.21802
1693.19548,0.22240
1695.12395,0.22753
1697.05242,0.22857
1698.98089,0.22726
1700.90936,0.22510
1702.83783,0.21975
1704.76629,0.21613
1706.69476,0.21469
1708.62323,0.21123
1710.55170,0.20712
1712.48017,0.20646
1714.40864,0.21172
1716.33711,0.22099
1718.26558,0.21957
1720.19404,0.20903
1722.12251,0.20300
1724.05098,0.20111
1725.97945,0.20117
1727.90792,0.20476
1729.83639,0.21128
1731.76486,0.21517
1733.69332,0.21319
1735.62179,0.21087
1737.55026,0.21465
1739.47873,0.21991
1741.40720,0.21895
1743.33567,0.21482
1745.26414,0.21476
1747.19261,0.21666
1749.12107,0.21516
1751.04954,0.21103
1752.97801,0.20760
1754.90648,0.20584
1756.83495,0.20707
1758.76342,0.20880
1760.69189,0.20860
1762.62035,0.20737
1764.54882,0.20547
1766.47729,0.20455
1768.40576,0.20588
1770.33423,0.20999
1772.26270,0.21433
1774.19117,0.21334
1776.11964,0.21025
1778.04810,0.20742
1779.97657,0.20384
1781.90504,0.20199
1783.83351,0.20265
1785.76198,0.20156
1787.69045,0.19922
1789.61892,0.20036
1791.54738,0.20643
1793.47585,0.21096
1795.40432,0.20916
1797.33279,0.20615
1799.26126,0.20528
1801.18973,0.20514
1803.11820,0.20358
1805.04666,0.20269
1806.97513,0.20403
1808.90360,0.20579
1810.83207,0.20639
1812.76054,0.20577
1814.68901,0.20503
1816.61748,0.21159
1818.54595,0.23225
1820.47441,0.25134
1822.40288,0.24762
1824.33135,0.22598
1826.25982,0.21185
1828.18829,0.21207
1830.11676,0.21151
1832.04523,0.20750
1833.97369,0.20689
1835.90216,0.20662
1837.83063,0.20265
1839.75910,0.20020
1841.68757,0.20351
1843.61604,0.20799
1845.54451,0.20667
1847.47298,0.20240
1849.40144,0.20119
1851.32991,0.20240
1853.25838,0.20349
1855.18685,0.20330
1857.11532,0.20216
1859.04379,0.20184
1860.97226,0.20237
1862.90072,0.20355
1864.82919,0.20524
1866.75766,0.20618
1868.68613,0.20492
1870.61460,0.20211
1872.54307,0.20129
1874.47154,0.20280
1876.40001,0.20434
1878.32847,0.20393
1880.25694,0.20284
1882.18541,0.20396
1884.11388,0.20407
1886.04235,0.20112
1887.97082,0.20050
1889.89929,0.20273
1891.82775,0.20373
1893.75622,0.20443
1895.68469,0.20591
1897.61316,0.20530
1899.54163,0.20308
1901.47010,0.20288
1903.39857,0.20453
1905.32704,0.20601
1907.25550,0.20694
1909.18397,0.20745
1911.11244,0.20540
1913.04091,0.20139
1914.96938,0.20137
1916.89785,0.20576
1918.82632,0.20790
1920.75478,0.20678
1922.68325,0.20563
1924.61172,0.20433
1926.54019,0.20372
1928.46866,0.20364
1930.39713,0.20243
1932.32560,0.20167
1934.25407,0.20353
1936.18253,0.20674
1938.11100,0.20846
1940.03947,0.20831
1941.96794,0.20759
1943.89641,0.20668
1945.82488,0.20541
1947.75335,0.20436
1949.68181,0.20431
1951.61028,0.20490
1953.53875,0.20580
1955.46722,0.20674
1957.39569,0.20631
1959.32416,0.20509
1961.25263,0.20515
1963.18110,0.20516
1965.10956,0.20418
1967.03803,0.20386
1968.96650,0.20418
1970.89497,0.20509
1972.82344,0.20657
1974.75191,0.20738
1976.68038,0.20729
1978.60884,0.20718
1980.53731,0.20663
1982.46578,0.20434
1984.39425,0.20207
1986.32272,0.20210
1988.25119,0.20294
1990.17966,0.20234
1992.10812,0.20018
1994.03659,0.19971
1995.96506,0.20160
1997.89353,0.20250
1999.82200,0.20304
2001.75047,0.20473
2003.67894,0.20646
2005.60741,0.20722
2007.53587,0.20676
2009.46434,0.20601
2011.39281,0.20389
2013.32128,0.20096
2015.24975,0.20126
2017.17822,0.20353
2019.10669,0.20340
2021.03515,0.20079
2022.96362,0.19903
2024.89209,0.20125
2026.82056,0.20448
2028.74903,0.20535
2030.67750,0.20718
2032.60597,0.20898
2034.53444,0.20494
2036.46290,0.19904
2038.39137,0.19839
2040.31984,0.19869
2042.24831,0.19641
2044.17678,0.19717
2046.10525,0.20013
2048.03372,0.20025
2049.96218,0.20000
2051.89065,0.20185
2053.81912,0.20327
2055.74759,0.20319
2057.67606,0.20401
2059.60453,0.20672
2061.53300,0.20889
2063.46147,0.20754
2065.38993,0.20269
2067.31840,0.19897
2069.24687,0.19918
2071.17534,0.20172
2073.10381,0.20598
2075.03228,0.20949
2076.96075,0.20891
2078.88921,0.20671
2080.81768,0.20619
2082.74615,0.20588
2084.67462,0.20319
2086.60309,0.20007
2088.53156,0.20046
2090.46003,0.20428
2092.38850,0.20778
2094.31696,0.20825
2096.24543,0.20596
2098.17390,0.20242
2100.10237,0.20129
2102.03084,0.20367
2103.95931,0.20483
2105.88778,0.20356
2107.81624,0.20306
2109.74471,0.20478
2111.67318,0.20890
2113.60165,0.21253
2115.53012,0.21180
2117.45859,0.20869
2119.38706,0.20718
2121.31553,0.20694
2123.24399,0.20571
2125.17246,0.20465
2127.10093,0.20588
2129.02940,0.20781
2130.95787,0.20855
2132.88634,0.20721
2134.81481,0.20280
2136.74327,0.19828
2138.67174,0.19940
2140.60021,0.20449
2142.52868,0.20720
2144.45715,0.20692
2146.38562,0.20571
2148.31409,0.20458
2150.24255,0.20477
2152.17102,0.20574
2154.09949,0.20611
2156.02796,0.20672
2157.95643,0.20694
2159.88490,0.20534
2161.81337,0.20426
2163.74184,0.20395
2165.67030,0.20397
2167.59877,0.20568
2169.52724,0.20657
2171.45571,0.20565
2173.38418,0.20556
2175.31265,0.20660
2177.24112,0.20745
2179.16958,0.20703
2181.09805,0.20499
2183.02652,0.20283
2184.95499,0.20262
2186.88346,0.20440
2188.81193,0.20513
2190.74040,0.20288
2192.66887,0.20160
2194.59733,0.20352
2196.52580,0.20497
2198.45427,0.20482
2200.38274,0.20518
2202.31121,0.20563
2204.23968,0.20303
2206.16815,0.19846
2208.09661,0.19847
2210.02508,0.20411
2211.95355,0.20851
2213.88202,0.20825
2215.81049,0.20636
2217.73896,0.20462
2219.66743,0.20311
2221.59590,0.20218
2223.52436,0.20134
2225.45283,0.20107
2227.38130,0.20102
2229.30977,0.20070
2231.23824,0.20191
2233.16671,0.20294
2235.09518,0.20136
2237.02364,0.19975
2238.95211,0.20085
2240.88058,0.20377
2242.80905,0.20487
2244.73752,0.20312
2246.66599,0.20204
2248.59446,0.20274
2250.52293,0.20372
2252.45139,0.20485
2254.37986,0.20519
2256.30833,0.20392
2258.23680,0.20272
2260.16527,0.20265
2262.09374,0.20258
2264.02221,0.20169
2265.95067,0.19996
2267.87914,0.19956
2269.80761,0.20130
2271.73608,0.20057
2273.66455,0.19820
2275.59302,0.20008
2277.52149,0.20373
2279.44996,0.20489
2281.37842,0.20527
2283.30689,0.20480
2285.23536,0.20177
2287.16383,0.19903
2289.09230,0.19815
2291.02077,0.19687
2292.94924,0.19601
2294.87770,0.19621
2296.80617,0.19447
2298.73464,0.19107
2300.66311,0.18814
2302.59158,0.18463
2304.52005,0.17997
2306.44852,0.17568
2308.37699,0.17303
2310.30545,0.17151
2312.23392,0.16971
2314.16239,0.16786
2316.09086,0.16795
2318.01933,0.16996
2319.94780,0.16720
2321.87627,0.15305
2323.80473,0.13437
2325.73320,0.12388
2327.66167,0.12373
2329.59014,0.12808
2331.51861,0.12801
2333.44708,0.12007
2335.37555,0.11738
2337.30401,0.13061
2339.23248,0.14371
2341.16095,0.13925
2343.08942,0.12732
2345.01789,0.12294
2346.94636,0.12731
2348.87483,0.13059
2350.80330,0.12757
2352.73176,0.12265
2354.66023,0.11411
2356.58870,0.08768
2358.51717,0.06136
2360.44564,0.06053
2362.37411,0.07498
2364.30258,0.09515
2366.23104,0.11617
2368.15951,0.13446
2370.08798,0.14447
2372.01645,0.14533
2373.94492,0.14932
2375.87339,0.16070
2377.80186,0.17180
2379.73033,0.17867
2381.65879,0.18470
2383.58726,0.19240
2385.51573,0.19998
2387.44420,0.20501
2389.37267,0.20654
2391.30114,0.20569
2393.22961,0.20456
2395.15807,0.20429
2397.08654,0.20460
2399.01501,0.20441
2400.94348,0.20342
2402.87195,0.20288
2404.80042,0.20316
2406.72889,0.20313
2408.65736,0.20385
2410.58582,0.20653
2412.51429,0.20879
2414.44276,0.20762
2416.37123,0.20455
2418.29970,0.20461
2420.22817,0.20745
2422.15664,0.20796
2424.08510,0.20619
2426.01357,0.20558
2427.94204,0.20604
2429.87051,0.20498
2431.79898,0.20268
2433.72745,0.20262
2435.65592,0.20540
2437.58439,0.20862
2439.51285,0.21044
2441.44132,0.20891
2443.36979,0.20496
2445.29826,0.20337
2447.22673,0.20424
2449.15520,0.20352
2451.08367,0.20217
2453.01213,0.20321
2454.94060,0.20572
2456.86907,0.20727
2458.79754,0.20723
2460.72601,0.20684
2462.65448,0.20705
2464.58295,0.20764
2466.51142,0.20812
2468.43988,0.20868
2470.36835,0.20947
2472.29682,0.21011
2474.22529,0.21028
2476.15376,0.21027
2478.08223,0.20965
2480.01070,0.20784
2481.93916,0.20685
2483.86763,0.20771
2485.79610,0.20817
2487.72457,0.20772
2489.65304,0.20811
2491.58151,0.20858
2493.50998,0.20727
2495.43844,0.20581
2497.36691,0.20679
2499.29538,0.20886
2501.22385,0.20883
2503.15232,0.20860
2505.08079,0.21110
2507.00926,0.21315
2508.93773,0.21227
2510.86619,0.21104
2512.79466,0.21032
2514.72313,0.20881
2516.65160,0.20804
2518.58007,0.20926
2520.50854,0.20991
2522.43701,0.20797
2524.36547,0.20726
2526.29394,0.21091
2528.22241,0.21386
2530.15088,0.21267
2532.07935,0.21045
2534.00782,0.20896
2535.93629,0.20723
2537.86476,0.20635
2539.79322,0.20780
2541.72169,0.20891
2543.65016,0.20859
2545.57863,0.20888
2547.50710,0.20819
2549.43557,0.20561
2551.36404,0.20515
2553.29250,0.20721
2555.22097,0.20839
2557.14944,0.20801
2559.07791,0.20701
2561.00638,0.20765
2562.93485,0.21019
2564.86332,0.21101
2566.79179,0.20978
2568.72025,0.20929
2570.64872,0.20963
2572.57719,0.21063
2574.50566,0.21303
2576.43413,0.21421
2578.36260,0.21198
2580.29107,0.20927
2582.21953,0.20965
2584.14800,0.21193
2586.07647,0.21319
2588.00494,0.21485
2589.93341,0.21718
2591.86188,0.21611
2593.79035,0.21242
2595.71882,0.21030
2597.64728,0.20986
2599.57575,0.21143
2601.50422,0.21425
2603.43269,0.21370
2605.36116,0.21040
2607.28963,0.21021
2609.21810,0.21457
2611.14656,0.21879
2613.07503,0.21812
2615.00350,0.21342
2616.93197,0.21004
2618.86044,0.21030
2620.78891,0.21007
2622.71738,0.20795
2624.64585,0.20794
2626.57431,0.21024
2628.50278,0.21150
2630.43125,0.21216
2632.35972,0.21412
2634.28819,0.21474
2636.21666,0.21296
2638.14513,0.21202
2640.07359,0.21261
2642.00206,0.21379
2643.93053,0.21503
2645.85900,0.21511
2647.78747,0.21440
2649.71594,0.21409
2651.64441,0.21486
2653.57288,0.21525
2655.50134,0.21337
2657.42981,0.21206
2659.35828,0.21367
2661.28675,0.21610
2663.21522,0.21618
2665.14369,0.21356
2667.07216,0.21280
2669.00062,0.21554
2670.92909,0.21669
2672.85756,0.21525
2674.78603,0.21501
2676.71450,0.21502
2678.64297,0.21401
2680.57144,0.21440
2682.49990,0.21594
2684.42837,0.21675
2686.35684,0.21683
2688.28531,0.21688
2690.21378,0.21721
2692.14225,0.21755
2694.07072,0.21782
2695.99919,0.21839
2697.92765,0.21932
2699.85612,0.22019
2701.78459,0.22063
2703.71306,0.22039
2705.64153,0.21957
2707.57000,0.21735
2709.49847,0.21444
2711.42693,0.21435
2713.35540,0.21650
2715.28387,0.21672
2717.21234,0.21436
2719.14081,0.21262
2721.06928,0.21337
2722.99775,0.21505
2724.92622,0.21640
2726.85468,0.21681
2728.78315,0.21698
2730.71162,0.21808
2732.64009,0.21863
2734.56856,0.21845
2736.49703,0.21809
2738.42550,0.21844
2740.35396,0.22114
2742.28243,0.22343
2744.21090,0.22297
2746.13937,0.22241
2748.06784,0.22259
2749.99631,0.22224
2751.92478,0.22056
2753.85325,0.21696
2755.78171,0.21625
2757.71018,0.22222
2759.63865,0.22881
2761.56712,0.23064
2763.49559,0.22934
2765.42406,0.22735
2767.35253,0.22558
2769.28099,0.22533
2771.20946,0.22553
2773.13793,0.22442
2775.06640,0.22421
2776.99487,0.22433
2778.92334,0.22329
2780.85181,0.22350
2782.78028,0.22435
2784.70874,0.22325
2786.63721,0.22068
2788.56568,0.21985
2790.49415,0.22192
2792.42262,0.22418
2794.35109,0.22643
2796.27956,0.22865
2798.20802,0.22761
2800.13649,0.22375
2802.06496,0.22219
2803.99343,0.22434
2805.92190,0.22615
2807.85037,0.22664
2809.77884,0.22784
2811.70731,0.22905
2813.63577,0.22850
2815.56424,0.22528
2817.49271,0.22182
2819.42118,0.22234
2821.34965,0.22621
2823.27812,0.22894
2825.20659,0.22937
2827.13505,0.23029
2829.06352,0.23223
2830.99199,0.23288
2832.92046,0.23159
2834.84893,0.23014
2836.77740,0.23019
2838.70587,0.22987
2840.63433,0.22816
2842.56280,0.22798
2844.49127,0.22807
2846.41974,0.22587
2848.34821,0.22529
2850.27668,0.22867
2852.20515,0.23140
2854.13362,0.23018
2856.06208,0.22735
2857.99055,0.22546
2859.91902,0.22453
2861.84749,0.22279
2863.77596,0.22036
2865.70443,0.21978
2867.63290,0.22035
2869.56136,0.22028
2871.48983,0.21952
2873.41830,0.21987
2875.34677,0.22343
2877.27524,0.22824
2879.20371,0.23153
2881.13218,0.23344
2883.06065,0.23338
2884.98911,0.22948
2886.91758,0.22463
2888.84605,0.22342
2890.77452,0.22429
2892.70299,0.22347
2894.63146,0.22147
2896.55993,0.22126
2898.48839,0.22353
2900.41686,0.22684
2902.34533,0.22765
2904.27380,0.22368
2906.20227,0.21855
2908.13074,0.21675
2910.05921,0.21934
2911.98768,0.22465
2913.91614,0.22856
2915.84461,0.22727
2917.77308,0.22301
2919.70155,0.22160
2921.63002,0.22385
2923.55849,0.22555
2925.48696,0.22482
2927.41542,0.22455
2929.34389,0.22637
2931.27236,0.22902
2933.20083,0.22942
2935.12930,0.22625
2937.05777,0.22313
2938.98624,0.22328
2940.91471,0.22528
2942.84317,0.22505
2944.77164,0.22138
2946.70011,0.21693
2948.62858,0.21666
2950.55705,0.22188
2952.48552,0.22668
2954.41399,0.22576
2956.34245,0.21830
2958.27092,0.21069
2960.19939,0.21168
2962.12786,0.21846
2964.05633,0.22284
2965.98480,0.22592
2967.91327,0.22953
2969.84174,0.23055
2971.77020,0.23050
2973.69867,0.23040
2975.62714,0.22889
2977.55561,0.22868
2979.48408,0.23067
2981.41255,0.23020
2983.34102,0.22577
2985.26948,0.22302
2987.19795,0.22421
2989.12642,0.22752
2991.05489,0.23289
2992.98336,0.23716
2994.91183,0.23655
2996.84030,0.23348
2998.76877,0.23173
3000.69723,0.23185
3002.62570,0.23293
3004.55417,0.23331
3006.48264,0.23092
3008.41111,0.22586
3010.33958,0.21921
3012.26805,0.20904
3014.19651,0.19413
3016.12498,0.18475
3018.05345,0.19528
3019.98192,0.21661
3021.91039,0.22728
3023.83886,0.22794
3025.76733,0.22765
3027.69579,0.22775
3029.62426,0.23150
3031.55273,0.23759
3033.48120,0.23938
3035.40967,0.23588
3037.33814,0.23127
3039.26661,0.23039
3041.19508,0.23140
3043.12354,0.22916
3045.05201,0.22448
3046.98048,0.22140
3048.90895,0.22254
3050.83742,0.22637
3052.76589,0.22879
3054.69436,0.22849
3056.62282,0.22859
3058.55129,0.23033
3060.47976,0.23020
3062.40823,0.22914
3064.33670,0.22942
3066.26517,0.22955
3068.19364,0.23052
3070.12211,0.23191
3072.05057,0.23104
3073.97904,0.22835
3075.90751,0.22688
3077.83598,0.23008
3079.76445,0.23443
3081.69292,0.23397
3083.62139,0.23172
3085.54985,0.23422
3087.47832,0.24124
3089.40679,0.24444
3091.33526,0.23781
3093.26373,0.22820
3095.19220,0.22613
3097.12067,0.22917
3099.04914,0.22897
3100.97760,0.22429
3102.90607,0.21867
3104.83454,0.21883
3106.76301,0.22754
3108.69148,0.23682
3110.61995,0.23611
3112.54842,0.22838
3114.47688,0.22518
3116.40535,0.22729
3118.33382,0.22821
3120.26229,0.22365
3122.19076,0.21789
3124.11923,0.21908
3126.04770,0.22281
3127.97617,0.22288
3129.90463,0.22517
3131.83310,0.23235
3133.76157,0.23731
3135.69004,0.23645
3137.61851,0.23112
3139.54698,0.22637
3141.47545,0.22833
3143.40391,0.23427
3145.33238,0.23708
3147.26085,0.23450
3149.18932,0.23163
3151.11779,0.23161
3153.04626,0.23020
3154.97473,0.22786
3156.90320,0.22796
3158.83166,0.23066
3160.76013,0.23701
3162.68860,0.24323
3164.61707,0.24477
3166.54554,0.24266
3168.47401,0.23853
3170.40248,0.23622
3172.33094,0.23472
3174.25941,0.23108
3176.18788,0.23004
3178.11635,0.23321
3180.04482,0.23605
3181.97329,0.23670
3183.90176,0.23829
3185.83022,0.23961
3187.75869,0.23533
3189.68716,0.22982
3191.61563,0.23224
3193.54410,0.24015
3195.47257,0.24278
3197.40104,0.23699
3199.32951,0.22892
3201.25797,0.22611
3203.18644,0.22998
3205.11491,0.23256
3207.04338,0.22840
3208.97185,0.22643
3210.90032,0.23345
3212.82879,0.23978
3214.75725,0.23756
3216.68572,0.23082
3218.61419,0.22841
3220.54266,0.23346
3222.47113,0.23922
3224.39960,0.23982
3226.32807,0.23702
3228.25654,0.23639
3230.18500,0.23703
3232.11347,0.23280
3234.04194,0.22590
3235.97041,0.22488
3237.89888,0.22909
3239.82735,0.22892
3241.75582,0.22609
3243.68428,0.22861
3245.61275,0.23200
3247.54122,0.23112
3249.46969,0.22793
3251.39816,0.22322
3253.32663,0.22109
3255.25510,0.22583
3257.18357,0.23172
3259.11203,0.23213
3261.04050,0.23029
3262.96897,0.23232
3264.89744,0.23657
3266.82591,0.23774
3268.75438,0.23820
3270.68285,0.24045
3272.61131,0.24039
3274.53978,0.23848
3276.46825,0.23665
3278.39672,0.23457
3280.32519,0.23338
3282.25366,0.23355
3284.18213,0.23516
3286.11060,0.23500
3288.03906,0.23158
3289.96753,0.22735
3291.89600,0.22306
3293.82447,0.22073
3295.75294,0.22264
3297.68141,0.22614
3299.60988,0.22759
3301.53834,0.22942
3303.46681,0.22970
3305.39528,0.22469
3307.32375,0.22147
3309.25222,0.22340
3311.18069,0.22625
3313.10916,0.22829
3315.03763,0.22859
3316.96609,0.22670
3318.89456,0.22638
3320.82303,0.23027
3322.75150,0.23357
3324.67997,0.23169
3326.60844,0.22698
3328.53691,0.22388
3330.46537,0.22435
3332.39384,0.23009
3334.32231,0.23855
3336.25078,0.24058
3338.17925,0.23513
3340.10772,0.22976
3342.03619,0.22838
3343.96466,0.23087
3345.89312,0.23383
3347.82159,0.23489
3349.75006,0.23609
3351.67853,0.23831
3353.60700,0.23945
3355.53547,0.23845
3357.46394,0.23632
3359.39240,0.23338
3361.32087,0.23194
3363.24934,0.23722
3365.17781,0.24595
3367.10628,0.24666
3369.03475,0.24145
3370.96322,0.24403
3372.89168,0.25013
3374.82015,0.24620
3376.74862,0.23839
3378.67709,0.23518
3380.60556,0.23089
3382.53403,0.22559
3384.46250,0.22567
3386.39097,0.22940
3388.31943,0.23273
3390.24790,0.23513
3392.17637,0.23851
3394.10484,0.24245
3396.03331,0.24272
3397.96178,0.23754
3399.89025,0.23097
3401.81871,0.22942
3403.74718,0.22995
3405.67565,0.22717
3407.60412,0.22596
3409.53259,0.22763
3411.46106,0.22670
3413.38953,0.22479
3415.31800,0.22481
3417.24646,0.22465
3419.17493,0.22463
3421.10340,0.22498
3423.03187,0.22207
3424.96034,0.21704
3426.88881,0.21680
3428.81728,0.22066
3430.74574,0.22075
3432.67421,0.21676
3434.60268,0.21301
3436.53115,0.21184
3438.45962,0.21615
3440.38809,0.22367
3442.31656,0.22569
3444.24503,0.22168
3446.17349,0.21806
3448.10196,0.21527
3450.03043,0.21411
3451.95890,0.21608
3453.88737,0.21721
3455.81584,0.21596
3457.74431,0.21732
3459.67277,0.22266
3461.60124,0.22459
3463.52971,0.22044
3465.45818,0.21683
3467.38665,0.21609
3469.31512,0.21382
3471.24359,0.20920
3473.17206,0.20794
3475.10052,0.21045
3477.02899,0.21112
3478.95746,0.21038
3480.88593,0.21013
3482.81440,0.20780
3484.74287,0.20370
3486.67134,0.20310
3488.59980,0.20591
3490.52827,0.20555
3492.45674,0.20121
3494.38521,0.19448
3496.31368,0.18879
3498.24215,0.19115
3500.17062,0.19971
3502.09909,0.20592
3504.02755,0.20594
3505.95602,0.20457
3507.88449,0.20604
3509.81296,0.20670
3511.74143,0.20076
3513.66990,0.19271
3515.59837,0.19067
3517.52683,0.19313
3519.45530,0.19568
3521.38377,0.19457
3523.31224,0.18977
3525.24071,0.18853
3527.16918,0.19133
3529.09765,0.19171
3531.02611,0.18860
3532.95458,0.18543
3534.88305,0.18429
3536.81152,0.18516
3538.73999,0.18686
3540.66846,0.18964
3542.59693,0.19276
3544.52540,0.19194
3546.45386,0.18748
3548.38233,0.18455
3550.31080,0.18454
3552.23927,0.18468
3554.16774,0.18059
3556.09621,0.17650
3558.02468,0.17804
3559.95314,0.17933
3561.88161,0.17713
3563.81008,0.17656
3565.73855,0.18076
3567.66702,0.18846
3569.59549,0.18976
3571.52396,0.18391
3573.45243,0.17657
3575.38089,0.17143
3577.30936,0.16949
3579.23783,0.16691
3581.16630,0.16445
3583.09477,0.16701
3585.02324,0.17341
3586.95171,0.17736
3588.88017,0.17416
3590.80864,0.16867
3592.73711,0.16335
3594.66558,0.16022
3596.59405,0.16188
3598.52252,0.16256
3600.45099,0.15906
3602.37946,0.15529
3604.30792,0.15435
3606.23639,0.15582
3608.16486,0.15708
3610.09333,0.16050
3612.02180,0.16750
3613.95027,0.17103
3615.87874,0.17185
3617.80720,0.17384
3619.73567,0.16970
3621.66414,0.16080
3623.59261,0.15762
3625.52108,0.15920
3627.44955,0.15847
3629.37802,0.14912
3631.30649,0.14355
3633.23495,0.14716
3635.16342,0.15038
3637.09189,0.15018
3639.02036,0.15196
3640.94883,0.15765
3642.87730,0.16261
3644.80577,0.16299
3646.73423,0.16012
3648.66270,0.15677
3650.59117,0.15206
3652.51964,0.14680
3654.44811,0.14485
3656.37658,0.14710
3658.30505,0.15126
3660.23352,0.15359
3662.16198,0.15218
3664.09045,0.14851
3666.01892,0.14628
3667.94739,0.14930
3669.87586,0.15698
3671.80433,0.15978
3673.73280,0.16060
3675.66126,0.16294
3677.58973,0.15926
3679.51820,0.15163
3681.44667,0.14572
3683.37514,0.14512
3685.30361,0.14779
3687.23208,0.14827
3689.16055,0.14434
3691.08901,0.14168
3693.01748,0.14287
3694.94595,0.14305
3696.87442,0.14128
3698.80289,0.14116
3700.73136,0.14412
3702.65983,0.14781
3704.58829,0.15077
3706.51676,0.15089
3708.44523,0.14941
3710.37370,0.15434
3712.30217,0.15828
3714.23064,0.15080
3716.15911,0.14411
3718.08757,0.14367
3720.01604,0.14629
3721.94451,0.14597
3723.87298,0.14237
3725.80145,0.13972
3727.72992,0.13986
3729.65839,0.14155
3731.58686,0.14500
3733.51532,0.14842
3735.44379,0.14719
3737.37226,0.14700
3739.30073,0.14973
3741.22920,0.15064
3743.15767,0.14827
3745.08614,0.14791
3747.01460,0.15288
3748.94307,0.15899
3750.87154,0.15990
3752.80001,0.14887
3754.72848,0.13871
3756.65695,0.13318
3758.58542,0.13295
3760.51389,0.13660
3762.44235,0.13802
3764.37082,0.13896
3766.29929,0.14099
3768.22776,0.14174
3770.15623,0.14030
3772.08470,0.14079
3774.01317,0.14531
3775.94163,0.14968
3777.87010,0.14944
3779.79857,0.14439
3781.72704,0.14274
3783.65551,0.14521
3785.58398,0.14175
3787.51245,0.13434
3789.44092,0.13381
3791.36938,0.13856
3793.29785,0.14239
3795.22632,0.14317
3797.15479,0.14269
3799.08326,0.14542
3801.01173,0.14853
3802.94020,0.14795
3804.86866,0.14889
3806.79713,0.14826
3808.72560,0.14025
3810.65407,0.13282
3812.58254,0.13179
3814.51101,0.13647
3816.43948,0.14190
3818.36795,0.14367
3820.29641,0.14255
3822.22488,0.13641
3824.15335,0.13172
3826.08182,0.13177
3828.01029,0.13403
3829.93876,0.13717
3831.86723,0.14059
3833.79569,0.14225
3835.72416,0.14072
3837.65263,0.13884
3839.58110,0.14286
3841.50957,0.14739
3843.43804,0.14384
3845.36651,0.13785
3847.29498,0.13575
3849.22344,0.13729
3851.15191,0.14518
3853.08038,0.15455
3855.00885,0.14731
3856.93732,0.14203
3858.86579,0.14297
3860.79426,0.14300
3862.72272,0.14075
3864.65119,0.13832
3866.57966,0.13826
3868.50813,0.13911
3870.43660,0.13837
3872.36507,0.13784
3874.29354,0.14059
3876.22200,0.14534
3878.15047,0.14847
3880.07894,0.14857
3882.00741,0.14414
3883.93588,0.13642
3885.86435,0.12883
3887.79282,0.12417
3889.72129,0.12415
3891.64975,0.12874
3893.57822,0.13063
3895.50669,0.12943
3897.43516,0.12969
3899.36363,0.13167
3901.29210,0.13566
3903.22057,0.13789
3905.14903,0.13281
3907.07750,0.12511
3909.00597,0.12116
3910.93444,0.12202
3912.86291,0.12538
3914.79138,0.12604
3916.71985,0.12235
3918.64832,0.12064
3920.57678,0.12242
3922.50525,0.12381
3924.43372,0.12366
3926.36219,0.11908
3928.29066,0.11379
3930.21913,0.11625
3932.14760,0.12076
3934.07606,0.11908
3936.00453,0.11719
3937.93300,0.11636
3939.86147,0.11728
3941.78994,0.12355
3943.71841,0.12936
3945.64688,0.12922
3947.57535,0.12848
3949.50381,0.12987
3951.43228,0.12883
3953.36075,0.12537
3955.28922,0.12311
3957.21769,0.12182
3959.14616,0.12078
3961.07463,0.12144
3963.00309,0.12399
3964.93156,0.12531
3966.86003,0.12382
3968.78850,0.12203
3970.71697,0.12243
3972.64544,0.12447
3974.57391,0.12438
3976.50238,0.11931
3978.43084,0.11466
3980.35931,0.11604
3982.28778,0.11849
3984.21625,0.11769
3986.14472,0.11826
3988.07319,0.12214
3990.00166,0.12365
3991.93012,0.12008
3993.85859,0.11697
3995.78706,0.11734
3997.71553,0.11535
3999.64400,0.10848
4001.57247,0.10365
4003.50094,0.10528
4005.42941,0.10741
4007.35787,0.10392
4009.28634,0.10148
4011.21481,0.10713
4013.14328,0.11465
4015.07175,0.11668
4017.00022,0.11439
4018.92869,0.11394
4020.85715,0.11763
4022.78562,0.12043
4024.71409,0.11673
4026.64256,0.10858
4028.57103,0.10564
4030.49950,0.11128
4032.42797,0.11747
4034.35644,0.11907
4036.28490,0.11771
4038.21337,0.11416
4040.14184,0.11247
4042.07031,0.11627
4043.99878,0.11979
4045.92725,0.11723
4047.85572,0.11409
4049.78418,0.11726
4051.71265,0.11971
4053.64112,0.11429
4055.56959,0.10650
4057.49806,0.10107
4059.42653,0.09925
4061.35500,0.10291
4063.28346,0.10802
4065.21193,0.10696
4067.14040,0.10073
4069.06887,0.09932
4070.99734,0.10237
4072.92581,0.10117
4074.85428,0.09999
4076.78275,0.10370
4078.71121,0.10566
4080.63968,0.10433
4082.56815,0.10380
4084.49662,0.10311
4086.42509,0.10259
4088.35356,0.10606
4090.28203,0.10992
4092.21049,0.10924
4094.13896,0.10750
4096.06743,0.10707
4097.99590,0.10432
4099.92437,0.09936
4101.85284,0.09767
4103.78131,0.10103
4105.70978,0.10658
4107.63824,0.11123
4109.56671,0.11366
4111.49518,0.11331
4113.42365,0.11128
4115.35212,0.10972
4117.28059,0.10792
4119.20906,0.10717
4121.13752,0.10686
4123.06599,0.10393
4124.99446,0.10147
4126.92293,0.10135
4128.85140,0.09880
4130.77987,0.09105
4132.70834,0.08514
4134.63681,0.08611
4136.56527,0.08651
4138.49374,0.08277
4140.42221,0.08123
4142.35068,0.08477
4144.27915,0.08930
4146.20762,0.09178
4148.13609,0.09309
4150.06455,0.09356
4151.99302,0.09137
4153.92149,0.08770
4155.84996,0.08963
4157.77843,0.09810
4159.70690,0.10229
4161.63537,0.09784
4163.56384,0.09276
4165.49230,0.09095
4167.42077,0.09046
4169.34924,0.09025
4171.27771,0.08841
4173.20618,0.08592
4175.13465,0.08581
4177.06312,0.08716
4178.99158,0.08799
4180.92005,0.08753
4182.84852,0.08738
4184.77699,0.08905
4186.70546,0.09118
4188.63393,0.09438
4190.56240,0.09615
4192.49087,0.09015
4194.41933,0.08278
4196.34780,0.08342
4198.27627,0.08603
4200.20474,0.08562
4202.13321,0.08589
4204.06168,0.08592
4205.99015,0.08337
4207.91861,0.08049
4209.84708,0.08256
4211.77555,0.08798
4213.70402,0.08847
4215.63249,0.08679
4217.56096,0.08783
4219.48943,0.08721
4221.41789,0.08523
4223.34636,0.08486
4225.27483,0.08186
4227.20330,0.07656
4229.13177,0.07828
4231.06024,0.08561
4232.98871,0.08703
4234.91718,0.08183
4236.84564,0.07514
4238.77411,0.06841
4240.70258,0.06468
4242.63105,0.06708
4244.55952,0.07254
4246.48799,0.07270
4248.41646,0.06727
4250.34492,0.06517
4252.27339,0.06656
4254.20186,0.06726
4256.13033,0.06733
4258.05880,0.06691
4259.98727,0.07011
4261.91574,0.07907
4263.84421,0.08609
4265.77267,0.08485
4267.70114,0.07981
4269.62961,0.07743
4271.55808,0.07547
4273.48655,0.07178
4275.41502,0.06965
4277.34349,0.07112
4279.27195,0.07606
4281.20042,0.07979
4283.12889,0.07785
4285.05736,0.07523
4286.98583,0.07516
4288.91430,0.07528
4290.84277,0.07435
4292.77124,0.07091
4294.69970,0.06715
4296.62817,0.06611
4298.55664,0.06722
4300.48511,0.06767
4302.41358,0.06514
4304.34205,0.06220
4306.27052,0.06083
4308.19898,0.06233
4310.12745,0.06717
4312.05592,0.06925
4313.98439,0.06736
4315.91286,0.06496
4317.84133,0.05909
4319.76980,0.05250
4321.69827,0.05149
4323.62673,0.05275
4325.55520,0.05199
4327.48367,0.05010
4329.41214,0.05167
4331.34061,0.05673
4333.26908,0.05989
4335.19755,0.06033
4337.12601,0.06180
4339.05448,0.06736
4340.98295,0.07192
4342.91142,0.06756
4344.83989,0.05708
4346.76836,0.05066
4348.69683,0.05333
4350.62530,0.05960
4352.55376,0.06164
4354.48223,0.06027
4356.41070,0.05608
4358.33917,0.04470
4360.26764,0.03356
4362.19611,0.03157
4364.12458,0.03612
4366.05304,0.04340
4367.98151,0.04942
4369.90998,0.05218
4371.83845,0.04967
4373.76692,0.04292
4375.69539,0.03989
4377.62386,0.04192
4379.55232,0.04656
4381.48079,0.05032
4383.40926,0.04912
4385.33773,0.04560
4387.26620,0.04090
4389.19467,0.03715
4391.12314,0.03684
4393.05161,0.03751
4394.98007,0.03914
4396.90854,0.04120
4398.83701,0.04455
4400.76548,0.04710
4402.69395,0.04139
4404.62242,0.03219
4406.55089,0.03112
4408.47935,0.03909
4410.40782,0.04750
4412.33629,0.05061
4414.26476,0.05072
4416.19323,0.04963
4418.12170,0.04676
4420.05017,0.04538
4421.97864,0.04975
4423.90710,0.05590
4425.83557,0.05827
4427.76404,0.05564
4429.69251,0.04959
4431.62098,0.04492
4433.54945,0.04036
4435.47792,0.03615
4437.40638,0.03576
4439.33485,0.03474
4441.26332,0.03415
4443.19179,0.03313
4445.12026,0.02901
4447.04873,0.03218
4448.97720,0.04139
4450.90567,0.04380
4452.83413,0.04154
4454.76260,0.04211
4456.69107,0.04197
4458.61954,0.03706
4460.54801,0.03026
4462.47648,0.02332
4464.40495,0.01793
4466.33341,0.01933
4468.26188,0.02450
4470.19035,0.02660
4472.11882,0.02913
4474.04729,0.02855
4475.97576,0.02022
4477.90423,0.01692
4479.83270,0.02117
4481.76116,0.02376
4483.68963,0.02059
4485.61810,0.01230
4487.54657,0.00910
4489.47504,0.01290
4491.40351,0.01342
4493.33198,0.01484
4495.26044,0.02590
4497.18891,0.03982
4499.11738,0.04831
4501.04585,0.05359
4502.97432,0.05155
4504.90279,0.03490
4506.83126,0.01956
4508.75973,0.01836
4510.68819,0.01693
4512.61666,0.00888
4514.54513,0.00786
4516.47360,0.01706
4518.40207,0.02318
4520.33054,0.02160
4522.25901,0.01790
4524.18747,0.01577
4526.11594,0.01798
4528.04441,0.02114
4529.97288,0.01613
4531.90135,0.00380
4533.82982,-0.00180
4535.75829,0.00723
4537.68676,0.01764
4539.61522,0.01597
4541.54369,0.01147
4543.47216,0.01129
4545.40063,0.00888
4547.32910,0.00721
4549.25757,0.01316
4551.18604,0.02336
4553.11450,0.02849
4555.04297,0.02524
4556.97144,0.02043
4558.89991,0.01779
4560.82838,0.01731
4562.75685,0.02244
4564.68532,0.03053
4566.61378,0.03104
4568.54225,0.02222
4570.47072,0.01404
4572.39919,0.01123
4574.32766,0.00771
4576.25613,0.00317
4578.18460,0.00868
4580.11307,0.02488
4582.04153,0.03399
4583.97000,0.02929
4585.89847,0.02313
4587.82694,0.01966
4589.75541,0.01512
4591.68388,0.01275
4593.61235,0.01565
4595.54081,0.02001
4597.46928,0.01905
4599.39775,0.01396
4601.32622,0.01185
4603.25469,0.01336
4605.18316,0.01537
4607.11163,0.01185
4609.04010,0.00318
4610.96856,-0.00450
4612.89703,-0.01165
4614.82550,-0.01338
4616.75397,-0.00738
4618.68244,-0.00640
4620.61091,-0.00921
4622.53938,-0.00215
4624.46784,0.00731
4626.39631,0.01203
4628.32478,0.02085
4630.25325,0.02609
4632.18172,0.02100
4634.11019,0.02097
4636.03866,0.02956
4637.96713,0.03117
4639.89559,0.01991
4641.82406,0.00666
4643.75253,0.00480
4645.68100,0.01377
4647.60947,0.02010
4649.53794,0.02104
4651.46641,0.01704
4653.39487,0.00357
4655.32334,-0.00568
4657.25181,-0.00552
4659.18028,-0.00870
4661.10875,-0.01008
4663.03722,-0.00413
4664.96569,0.00189
4666.89416,0.00666
4668.82262,0.01385
4670.75109,0.02030
4672.67956,0.01766
4674.60803,0.00791
4676.53650,-0.00194
4678.46497,-0.00780
4680.39344,-0.00403
4682.32190,0.00600
4684.25037,0.00989
4686.17884,-0.00143
4688.10731,-0.01965
4690.03578,-0.02131
4691.96425,-0.00813
4693.89272,0.00021
4695.82119,0.00385
4697.74965,0.00631
4699.67812,0.00548
4701.60659,0.00668
4703.53506,0.01444
4705.46353,0.02001
4707.39200,0.01661
4709.32047,0.00961
4711.24893,0.00583
4713.17740,0.00754
4715.10587,0.00891
4717.03434,0.00832
4718.96281,0.00924
4720.89128,0.00732
4722.81975,0.00396
4724.74821,0.00606
4726.67668,0.00975
4728.60515,0.00991
4730.53362,0.00557
4732.46209,-0.00235
4734.39056,-0.00589
4736.31903,0.00247
4738.24750,0.01825
4740.17596,0.02837
4742.10443,0.02735
4744.03290,0.02463
4745.96137,0.02466
4747.88984,0.02350
4749.81831,0.02311
4751.74678,0.02214
4753.67524,0.01399
4755.60371,0.00870
4757.53218,0.01456
4759.46065,0.01788
4761.38912,0.01007
4763.31759,-0.00411
4765.24606,-0.01941
4767.17453,-0.02392
4769.10299,-0.00650
4771.03146,0.01859
4772.95993,0.02864
4774.88840,0.02487
4776.81687,0.01800
4778.74534,0.01252
4780.67381,0.00368
4782.60227,-0.00853
4784.53074,-0.00963
4786.45921,-0.00381
4788.38768,-0.00543
4790.31615,-0.00929
4792.24462,-0.00335
4794.17309,0.01051
4796.10156,0.01638
4798.03002,0.01184
4799.95849,0.01245
4801.88696,0.01787
4803.81543,0.00981
4805.74390,-0.00901
4807.67237,-0.01608
4809.60084,-0.00816
4811.52930,0.00207
4813.45777,0.00953
4815.38624,0.01671
4817.31471,0.01842
4819.24318,0.00799
4821.17165,-0.00328
4823.10012,-0.00686
4825.02859,-0.01013
4826.95705,-0.01296
4828.88552,-0.00618
4830.81399,0.00331
4832.74246,0.00255
4834.67093,-0.00296
4836.59940,0.00061
4838.52787,0.00919
4840.45633,0.00418
4842.38480,-0.01145
4844.31327,-0.01847
4846.24174,-0.01334
4848.17021,0.00039
4850.09868,0.01541
4852.02715,0.02116
4853.95562,0.01647
4855.88408,0.01142
4857.81255,0.01642
4859.74102,0.02204
4861.66949,0.02146
4863.59796,0.02434
4865.52643,0.02370
4867.45490,0.01605
4869.38336,0.01570
4871.31183,0.02304
4873.24030,0.03094
4875.16877,0.04004
4877.09724,0.04683
4879.02571,0.04314
4880.95418,0.03123
4882.88265,0.02118
4884.81111,0.01349
4886.73958,0.00802
4888.66805,0.01109
4890.59652,0.01821
4892.52499,0.01555
4894.45346,0.00280
4896.38193,-0.00574
4898.31039,-0.00351
4900.23886,0.00514
4902.16733,0.01664
4904.09580,0.02276
4906.02427,0.01421
4907.95274,0.00220
4909.88121,0.00022
4911.80967,-0.00164
4913.73814,-0.00567
4915.66661,0.00157
4917.59508,0.02015
4919.52355,0.03841
4921.45202,0.04502
4923.38049,0.03228
4925.30896,0.00648
4927.23742,-0.01127
4929.16589,-0.01876
4931.09436,-0.02056
4933.02283,-0.01141
4934.95130,0.00038
4936.87977,0.00654
4938.80824,0.00939
4940.73670,0.01321
4942.66517,0.01817
4944.59364,0.02170
4946.52211,0.01933
4948.45058,0.01017
4950.37905,0.00479
4952.30752,0.00247
4954.23599,-0.00247
4956.16445,0.00188
4958.09292,0.01490
4960.02139,0.01526
4961.94986,0.00606
4963.87833,0.00837
4965.80680,0.01507
4967.73527,0.00560
4969.66373,-0.01320
4971.59220,-0.01142
4973.52067,0.01459
4975.44914,0.03285
4977.37761,0.03329
4979.30608,0.03201
4981.23455,0.02578
4983.16302,0.01712
4985.09148,0.01701
4987.01995,0.01499
4988.94842,0.01552
4990.87689,0.01904
4992.80536,0.01337
4994.73383,0.01507
4996.66230,0.02695
4998.59076,0.02500
5000.51923,0.01061
5002.44770,0.00337
5004.37617,0.00602
5006.30464,0.01104
5008.23311,0.01473
5010.16158,0.01877
5012.09005,0.02438
5014.01851,0.02218
5015.94698,0.01213
5017.87545,0.00599
5019.80392,0.01088
5021.73239,0.02560
5023.66086,0.03756
5025.58933,0.03291
5027.51779,0.01620
5029.44626,0.01165
5031.37473,0.02993
5033.30320,0.05178
5035.23167,0.05621
5037.16014,0.04400
5039.08861,0.02762
5041.01708,0.01780
5042.94554,0.01315
5044.87401,0.00767
5046.80248,0.01158
5048.73095,0.02293
5050.65942,0.02181
5052.58789,0.01672
5054.51636,0.01810
5056.44482,0.01559
5058.37329,0.01468
5060.30176,0.02556
5062.23023,0.03655
5064.15870,0.03690
5066.08717,0.03728
5068.01564,0.04156
5069.94410,0.03891
5071.87257,0.03152
5073.80104,0.02649
5075.72951,0.02502
5077.65798,0.03001
5079.58645,0.04203
5081.51492,0.05103
5083.44339,0.04771
5085.37185,0.03646
5087.30032,0.02775
5089.22879,0.02901
5091.15726,0.03858
5093.08573,0.04662
5095.01420,0.04372
5096.94267,0.03622
5098.87113,0.04004
5100.79960,0.04955
5102.72807,0.04395
5104.65654,0.02196
5106.58501,0.00582
5108.51348,0.00769
5110.44195,0.01583
5112.37042,0.01921
5114.29888,0.02318
5116.22735,0.03525
5118.15582,0.04055
5120.08429,0.02619
5122.01276,0.01569
5123.94123,0.02951
5125.86970,0.04976
5127.79816,0.05131
5129.72663,0.04359
5131.65510,0.05317
5133.58357,0.06810
5135.51204,0.06214
5137.44051,0.04176
5139.36898,0.01979
5141.29745,0.00946
5143.22591,0.01753
5145.15438,0.02346
5147.08285,0.01785
5149.01132,0.01937
5150.93979,0.03340
5152.86826,0.04035
5154.79673,0.02601
5156.72519,0.00767
5158.65366,0.01130
5160.58213,0.02517
5162.51060,0.02896
5164.43907,0.03101
5166.36754,0.04150
5168.29601,0.04881
5170.22448,0.04634
5172.15294,0.04685
5174.08141,0.05168
5176.00988,0.05227
5177.93835,0.05785
5179.86682,0.06697
5181.79529,0.05589
5183.72376,0.03488
5185.65222,0.03289
5187.58069,0.03853
5189.50916,0.03491
5191.43763,0.04119
5193.36610,0.07241
5195.29457,0.09730
5197.22304,0.08954
5199.15151,0.06533
5201.07997,0.04259
5203.00844,0.02854
5204.93691,0.02130
5206.86538,0.01881
5208.79385,0.03177
5210.72232,0.05674
5212.65079,0.08288
5214.57925,0.09141
5216.50772,0.06383
5218.43619,0.03192
5220.36466,0.03895
5222.29313,0.06242
5224.22160,0.06888
5226.15007,0.05566
5228.07854,0.03712
5230.00700,0.03205
5231.93547,0.04041
5233.86394,0.04191
5235.79241,0.02727
5237.72088,0.01546
5239.64935,0.02594
5241.57782,0.04765
5243.50628,0.06114
5245.43475,0.06629
5247.36322,0.06735
5249.29169,0.06785
5251.22016,0.06937
5253.14863,0.05759
5255.07710,0.03319
5257.00556,0.02684
5258.93403,0.04566
5260.86250,0.05879
5262.79097,0.05097
5264.71944,0.04672
5266.64791,0.05482
5268.57638,0.05268
5270.50485,0.03471
5272.43331,0.01804
5274.36178,0.02451
5276.29025,0.05231
5278.21872,0.06297
5280.14719,0.04746
5282.07566,0.04589
5284.00413,0.06874
5285.93259,0.08169
5287.86106,0.07210
5289.78953,0.06157
5291.71800,0.05293
5293.64647,0.04438
5295.57494,0.04572
5297.50341,0.04263
5299.43188,0.02534
5301.36034,0.01960
5303.28881,0.03312
5305.21728,0.04650
5307.14575,0.05755
5309.07422,0.06383
5311.00269,0.05920
5312.93116,0.05082
5314.85962,0.04626
5316.78809,0.04206
5318.71656,0.03372
5320.64503,0.03724
5322.57350,0.05773
5324.50197,0.06747
5326.43044,0.05715
5328.35891,0.05492
5330.28737,0.06536
5332.21584,0.06498
5334.14431,0.04841
5336.07278,0.03560
5338.00125,0.04481
5339.92972,0.05533
5341.85819,0.05455
5343.78665,0.06222
5345.71512,0.06752
5347.64359,0.06625
5349.57206,0.07553
5351.50053,0.07856
5353.42900,0.06266
5355.35747,0.05273
5357.28594,0.05519
5359.21440,0.05124
5361.14287,0.04873
5363.07134,0.06837
5364.99981,0.09222
5366.92828,0.09291
5368.85675,0.08089
5370.78522,0.07054
5372.71368,0.06032
5374.64215,0.04922
5376.57062,0.05137
5378.49909,0.07932
5380.42756,0.11252
5382.35603,0.13001
5384.28450,0.12829
5386.21297,0.10853
5388.14143,0.07643
5390.06990,0.04583
5391.99837,0.02799
5393.92684,0.02968
5395.85531,0.05115
5397.78378,0.07061
5399.71225,0.07611
5401.64071,0.08024
5403.56918,0.07187
5405.49765,0.05624
5407.42612,0.06166
5409.35459,0.07414
5411.28306,0.09436
5413.21153,0.12618
5415.13999,0.12318
5417.06846,0.09158
5418.99693,0.06482
5420.92540,0.04978
5422.85387,0.04836
5424.78234,0.04963
5426.71081,0.05071
5428.63928,0.07318
5430.56774,0.10743
5432.49621,0.11286
5434.42468,0.09175
5436.35315,0.07975
5438.28162,0.06973
5440.21009,0.05035
5442.13856,0.04897
5444.06702,0.07398
5445.99549,0.10266
5447.92396,0.10555
5449.85243,0.08086
5451.78090,0.05210
5453.70937,0.02863
5455.63784,0.01986
5457.56631,0.03662
5459.49477,0.06015
5461.42324,0.07401
5463.35171,0.08412
5465.28018,0.08718
5467.20865,0.07988
5469.13712,0.07562
5471.06559,0.08547
5472.99405,0.09809
5474.92252,0.09389
5476.85099,0.07544
5478.77946,0.06653
5480.70793,0.06804
5482.63640,0.07044
5484.56487,0.07787
5486.49334,0.08522
5488.42180,0.08843
5490.35027,0.09536
5492.27874,0.10096
5494.20721,0.10535
5496.13568,0.11209
5498.06415,0.10710
5499.99262,0.08136
5501.92108,0.05595
5503.84955,0.05399
5505.77802,0.07344
5507.70649,0.10051
5509.63496,0.12496
5511.56343,0.13748
5513.49190,0.11911
5515.42037,0.08029
5517.34883,0.06958
5519.27730,0.09525
5521.20577,0.10855
5523.13424,0.09677
5525.06271,0.09227
5526.99118,0.09098
5528.91965,0.07704
5530.84811,0.06621
5532.77658,0.06896
5534.70505,0.08064
5536.63352,0.09392
5538.56199,0.09245
5540.49046,0.06883
5542.41893,0.04310
5544.34740,0.03889
5546.27586,0.05638
5548.20433,0.07753
5550.13280,0.07577
5552.06127,0.04812
5553.98974,0.03646
5555.91821,0.05617
5557.84668,0.06619
5559.77514,0.05670
5561.70361,0.04886
5563.63208,0.05101
5565.56055,0.07055
5567.48902,0.08573
5569.41749,0.07712
5571.34596,0.07154
5573.27443,0.06481
5575.20289,0.03850
5577.13136,0.02926
5579.05983,0.05713
5580.98830,0.08472
5582.91677,0.08282
5584.84524,0.07259
5586.77371,0.06643
5588.70217,0.06585
5590.63064,0.07415
5592.55911,0.06717
5594.48758,0.05227
5596.41605,0.07812
5598.34452,0.12187
5600.27299,0.11195
5602.20145,0.07793
5604.12992,0.08442
5606.05839,0.11064
5607.98686,0.13022
5609.91533,0.14516
5611.84380,0.14135
5613.77227,0.11449
5615.70074,0.08713
5617.62920,0.07040
5619.55767,0.06491
5621.48614,0.07681
5623.41461,0.09827
5625.34308,0.11355
5627.27155,0.10897
5629.20002,0.07987
5631.12848,0.06069
5633.05695,0.07359
5634.98542,0.10007
5636.91389,0.12404
5638.84236,0.12592
5640.77083,0.09334
5642.69930,0.05511
5644.62777,0.05140
5646.55623,0.08072
5648.48470,0.09383
5650.41317,0.07782
5652.34164,0.06822
5654.27011,0.07154
5656.19858,0.08067
5658.12705,0.09900
5660.05551,0.11239
5661.98398,0.12575
5663.91245,0.15145
5665.84092,0.14232
5667.76939,0.07593
5669.69786,0.02612
5671.62633,0.04321
5673.55480,0.06652
5675.48326,0.05261
5677.41173,0.04984
5679.34020,0.09380
5681.26867,0.14847
5683.19714,0.17234
5685.12561,0.16611
5687.05408,0.14439
5688.98254,0.12198
5690.91101,0.10458
5692.83948,0.07785
5694.76795,0.04652
5696.69642,0.04234
5698.62489,0.07279
5700.55336,0.10067
5702.48183,0.09648
5704.41029,0.07749
5706.33876,0.08209
5708.26723,0.10333
5710.19570,0.11333
5712.12417,0.12188
5714.05264,0.13134
5715.98111,0.12749
5717.90957,0.11643
5719.83804,0.11759
5721.76651,0.12283
5723.69498,0.10407
5725.62345,0.06965
5727.55192,0.04308
5729.48039,0.04591
5731.40886,0.08205
5733.33732,0.11137
5735.26579,0.10659
5737.19426,0.09072
5739.12273,0.08340
5741.05120,0.08123
5742.97967,0.08115
5744.90814,0.08661
5746.83660,0.09971
5748.76507,0.10717
5750.69354,0.10384
5752.62201,0.10183
5754.55048,0.10234
5756.47895,0.08640
5758.40742,0.06070
5760.33588,0.07119
5762.26435,0.11406
5764.19282,0.12813
5766.12129,0.11036
5768.04976,0.09544
5769.97823,0.07965
5771.90670,0.06285
5773.83517,0.04745
5775.76363,0.03528
5777.69210,0.04697
5779.62057,0.06817
5781.54904,0.08091
5783.47751,0.09634
5785.40598,0.11592
5787.33445,0.12996
5789.26291,0.12953
5791.19138,0.13322
5793.11985,0.14296
5795.04832,0.13276
5796.97679,0.12074
5798.90526,0.11584
5800.83373,0.09242
5802.76220,0.09267
5804.69066,0.14038
5806.61913,0.14781
5808.54760,0.09667
5810.47607,0.04841
5812.40454,0.03740
5814.33301,0.06283
5816.26148,0.07960
5818.18994,0.07961
5820.11841,0.08689
5822.04688,0.08952
5823.97535,0.09727
5825.90382,0.12004
5827.83229,0.12917
5829.76076,0.12138
5831.68923,0.12353
5833.61769,0.14141
5835.54616,0.16614
5837.47463,0.17232
5839.40310,0.13910
5841.33157,0.09423
5843.26004,0.06260
5845.18851,0.04133
5847.11697,0.03479
5849.04544,0.06107
5850.97391,0.10260
5852.90238,0.09762
5854.83085,0.05978
5856.75932,0.04801
5858.68779,0.06859
5860.61626,0.09943
5862.54472,0.12189
5864.47319,0.15049
5866.40166,0.17675
5868.33013,0.15616
5870.25860,0.11886
5872.18707,0.09970
5874.11554,0.08588
5876.04400,0.08244
5877.97247,0.08955
5879.90094,0.09184
5881.82941,0.07872
5883.75788,0.04623
5885.68635,0.02236
5887.61482,0.03700
5889.54329,0.07856
5891.47175,0.12404
5893.40022,0.15834
5895.32869,0.15529
5897.25716,0.10987
5899.18563,0.06577
5901.11410,0.05374
5903.04257,0.07065
5904.97103,0.09559
5906.89950,0.10284
5908.82797,0.10647
5910.75644,0.12956
5912.68491,0.14625
5914.61338,0.12424
5916.54185,0.09196
5918.47032,0.08952
5920.39878,0.09968
5922.32725,0.10497
5924.25572,0.09720
5926.18419,0.06382
5928.11266,0.03955
5930.04113,0.05749
5931.96960,0.08845
5933.89806,0.08905
5935.82653,0.06376
5937.75500,0.05171
5939.68347,0.07720
5941.61194,0.11523
5943.54041,0.10749
5945.46888,0.06835
5947.39734,0.04958
5949.32581,0.04441
5951.25428,0.04734
5953.18275,0.07839
5955.11122,0.11405
5957.03969,0.11545
5958.96816,0.09688
5960.89663,0.09069
5962.82509,0.09530
5964.75356,0.12082
5966.68203,0.16709
5968.61050,0.18348
5970.53897,0.15031
5972.46744,0.10373
5974.39591,0.07269
5976.32437,0.05675
5978.25284,0.05432
5980.18131,0.06807
5982.10978,0.10127
5984.03825,0.14654
5985.96672,0.15227
5987.89519,0.09680
5989.82366,0.04528
5991.75212,0.06296
5993.68059,0.13212
5995.60906,0.15612
5997.53753,0.11068
5999.46600,0.08359
6001.39447,0.09639
6003.32294,0.09825
6005.25140,0.07625
6007.17987,0.07417
6009.10834,0.11408
6011.03681,0.15120
6012.96528,0.16418
6014.89375,0.17000
6016.82222,0.12942
6018.75069,0.05430
6020.67915,0.03591
6022.60762,0.05208
6024.53609,0.05147
6026.46456,0.06961
6028.39303,0.12551
6030.32150,0.16860
6032.24997,0.17619
6034.17843,0.16667
6036.10690,0.13743
6038.03537,0.08809
6039.96384,0.05202
6041.89231,0.05369
6043.82078,0.07817
6045.74925,0.10165
6047.67772,0.11091
6049.60618,0.11121
6051.53465,0.10946
6053.46312,0.08639
6055.39159,0.06865
6057.32006,0.09858
6059.24853,0.14072
6061.17700,0.15607
6063.10546,0.13270
6065.03393,0.10755
6066.96240,0.12438
6068.89087,0.14240
6070.81934,0.11818
6072.74781,0.06919
6074.67628,0.05858
6076.60475,0.10614
6078.53321,0.13725
6080.46168,0.12359
6082.39015,0.11271
6084.31862,0.13321
6086.24709,0.13549
6088.17556,0.08202
6090.10403,0.04672
6092.03249,0.06016
6093.96096,0.07249
6095.88943,0.06896
6097.81790,0.08007
6099.74637,0.08575
6101.67484,0.05238
6103.60331,0.03450
6105.53177,0.04854
6107.46024,0.03258
6109.38871,-0.02125
6111.31718,-0.04770
6113.24565,-0.01787
6115.17412,0.02218
6117.10259,0.04402
6119.03106,0.05820
6120.95952,0.07188
6122.88799,0.10079
6124.81646,0.13947
6126.74493,0.16422
6128.67340,0.17161
6130.60187,0.15802
6132.53034,0.13079
6134.45880,0.08724
6136.38727,0.04821
6138.31574,0.07544
6140.24421,0.13539
6142.17268,0.15825
6144.10115,0.14629
6146.02962,0.11364
6147.95809,0.09928
6149.88655,0.12260
6151.81502,0.15351
6153.74349,0.17645
6155.67196,0.17251
6157.60043,0.13651
6159.52890,0.11528
6161.45737,0.10758
6163.38583,0.05760
6165.31430,0.00806
6167.24277,0.02936
6169.17124,0.08448
6171.09971,0.12118
6173.02818,0.12771
6174.95665,0.09291
6176.88512,0.04200
6178.81358,0.05265
6180.74205,0.10863
6182.67052,0.12074
6184.59899,0.09789
6186.52746,0.08379
6188.45593,0.06408
6190.38440,0.02726
6192.31286,-0.01989
6194.24133,-0.06188
6196.16980,-0.05155
6198.09827,0.03420
6200.02674,0.14071
6201.95521,0.19129
6203.88368,0.20285
6205.81215,0.24899
6207.74061,0.28359
6209.66908,0.25398
6211.59755,0.20851
6213.52602,0.15992
6215.45449,0.10670
6217.38296,0.08891
6219.31143,0.11936
6221.23989,0.16938
6223.16836,0.19117
6225.09683,0.15725
6227.02530,0.10175
6228.95377,0.09851
6230.88224,0.16212
6232.81071,0.21745
6234.73918,0.21122
6236.66764,0.16048
6238.59611,0.10789
6240.52458,0.06703
6242.45305,0.02181
6244.38152,-0.00068
6246.30999,0.01576
6248.23846,0.04609
6250.16692,0.06194
6252.09539,0.04303
6254.02386,0.02207
6255.95233,0.00393
6257.88080,-0.03548
6259.80927,-0.06926
6261.73774,-0.06446
6263.66621,-0.01693
6265.59467,0.00355
6267.52314,-0.04455
6269.45161,-0.04794
6271.38008,0.02889
6273.30855,0.09677
6275.23702,0.11742
6277.16549,0.10469
6279.09395,0.06414
6281.02242,0.05493
6282.95089,0.08442
6284.87936,0.11024
6286.80783,0.14780
6288.73630,0.15998
6290.66477,0.11421
6292.59323,0.09567
6294.52170,0.13723
6296.45017,0.14473
6298.37864,0.08911
6300.30711,0.05099
6302.23558,0.05133
6304.16405,0.06207
6306.09252,0.09877
6308.02098,0.15551
6309.94945,0.17480
6311.87792,0.13156
6313.80639,0.09139
6315.73486,0.08566
6317.66333,0.08053
6319.59180,0.06262
6321.52026,0.04385
6323.44873,0.04599
6325.37720,0.05714
6327.30567,0.04383
6329.23414,0.00637
6331.16261,-0.01308
6333.09108,0.00537
6335.01955,0.02984
6336.94801,0.03856
6338.87648,0.04685
6340.80495,0.06767
6342.73342,0.07067
6344.66189,0.02711
6346.59036,-0.02041
6348.51883,0.01402
6350.44729,0.10318
6352.37576,0.12506
6354.30423,0.10205
6356.23270,0.09694
6358.16117,0.08301
6360.08964,0.04667
6362.01811,0.00739
6363.94658,-0.00382
6365.87504,-0.00638
6367.80351,-0.05236
6369.73198,-0.07881
6371.66045,-0.02777
6373.58892,0.05029
6375.51739,0.11957
6377.44586,0.17156
6379.37432,0.17265
6381.30279,0.12949
6383.23126,0.10261
6385.15973,0.13488
6387.08820,0.16851
6389.01667,0.13095
6390.94514,0.05730
6392.87361,0.04391
6394.80207,0.09527
6396.73054,0.14667
6398.65901,0.17052
6400.58748,0.15000
6402.51595,0.10598
6404.44442,0.09326
6406.37289,0.10924
6408.30135,0.09775
6410.22982,0.08130
6412.15829,0.10342
6414.08676,0.12412
6416.01523,0.12933
6417.94370,0.09179
6419.87217,0.02078
6421.80064,0.01415
6423.72910,0.05751
6425.65757,0.07098
6427.58604,0.04784
6429.51451,0.06356
6431.44298,0.11531
6433.37145,0.11149
6435.29992,0.07705
6437.22838,0.06131
6439.15685,0.06346
6441.08532,0.08685
6443.01379,0.12123
6444.94226,0.13202
6446.87073,0.11082
6448.79920,0.06551
6450.72766,0.00823
6452.65613,-0.01199
6454.58460,0.02447
6456.51307,0.09316
6458.44154,0.13781
6460.37001,0.11809
6462.29848,0.07652
6464.22695,0.05257
6466.15541,0.05380
6468.08388,0.11892
6470.01235,0.23388
6471.94082,0.28533
6473.86929,0.21593
6475.79776,0.09443
6477.72623,0.00290
6479.65469,-0.04065
6481.58316,-0.01869
6483.51163,0.04997
6485.44010,0.11075
6487.36857,0.13384
6489.29704,0.10285
6491.22551,0.07207
6493.15398,0.09168
6495.08244,0.12273
6497.01091,0.14068
6498.93938,0.15056
6500.86785,0.13305
6502.79632,0.08564
6504.72479,0.06386
6506.65326,0.06440
6508.58172,0.05446
6510.51019,0.03641
6512.43866,0.01793
6514.36713,0.03462
6516.29560,0.04160
6518.22407,-0.01009
6520.15254,-0.04667
6522.08101,-0.04324
6524.00947,-0.02980
6525.93794,-0.00748
6527.86641,0.05632
6529.79488,0.14303
6531.72335,0.14261
6533.65182,0.06174
6535.58029,0.01633
6537.50875,0.02799
6539.43722,0.08818
6541.36569,0.15214
6543.29416,0.11729
6545.22263,0.04310
6547.15110,0.05608
6549.07957,0.11737
6551.00804,0.15954
6552.93650,0.16561
6554.86497,0.11299
6556.79344,0.04374
6558.72191,0.03806
6560.65038,0.07638
6562.57885,0.06021
6564.50732,-0.00430
6566.43578,-0.02804
6568.36425,-0.00145
6570.29272,0.07393
6572.22119,0.15780
6574.14966,0.18479
6576.07813,0.17762
6578.00660,0.16601
6579.93507,0.16882
6581.86353,0.17147
6583.79200,0.14244
6585.72047,0.11325
6587.64894,0.11862
6589.57741,0.13122
6591.50588,0.09635
6593.43435,0.02480
6595.36281,-0.00584
6597.29128,0.03933
6599.21975,0.11725
6601.14822,0.16966
6603.07669,0.18469
6605.00516,0.18522
6606.93363,0.20350
6608.86210,0.22256
6610.79056,0.19823
6612.71903,0.14648
6614.64750,0.06506
6616.57597,-0.03395
6618.50444,-0.09875
6620.43291,-0.12947
6622.36138,-0.11080
6624.28984,-0.00898
6626.21831,0.14569
6628.14678,0.23854
6630.07525,0.17471
6632.00372,0.06807
6633.93219,0.06023
6635.86066,0.12591
6637.78912,0.15141
6639.71759,0.09113
6641.64606,-0.01572
6643.57453,-0.08635
6645.50300,-0.08532
6647.43147,-0.07058
6649.35994,-0.08037
6651.28841,-0.08889
6653.21687,-0.07530
6655.14534,-0.07397
6657.07381,-0.09423
6659.00228,-0.09248
6660.93075,-0.03335
6662.85922,0.03257
6664.78769,0.01076
6666.71615,-0.03955
6668.64462,-0.04005
6670.57309,-0.01486
6672.50156,0.01836
6674.43003,0.04565
6676.35850,0.09797
6678.28697,0.18424
6680.21544,0.20729
6682.14390,0.13455
6684.07237,0.06315
6686.00084,0.06025
6687.92931,0.02271
6689.85778,-0.07825
6691.78625,-0.08964
6693.71472,-0.04616
6695.64318,-0.01523
6697.57165,0.04784
6699.50012,0.09006
6701.42859,0.06587
6703.35706,0.04543
6705.28553,0.02372
6707.21400,-0.01583
6709.14247,0.01944
6711.07093,0.14704
6712.99940,0.26284
6714.92787,0.28693
6716.85634,0.21273
6718.78481,0.09934
6720.71328,0.03970
6722.64175,0.08928
6724.57021,0.17059
6726.49868,0.19532
6728.42715,0.18604
6730.35562,0.15977
6732.28409,0.11992
6734.21256,0.11907
6736.14103,0.14812
6738.06950,0.15850
6739.99796,0.16274
6741.92643,0.14718
6743.85490,0.06543
6745.78337,-0.02760
6747.71184,-0.05891
6749.64031,-0.05540
6751.56878,-0.04032
6753.49724,0.00650
6755.42571,0.05353
6757.35418,0.05218
6759.28265,-0.00007
6761.21112,-0.00905
6763.13959,0.05099
6765.06806,0.04904
6766.99653,-0.04041
6768.92499,-0.07915
6770.85346,-0.01754
6772.78193,0.03836
6774.71040,0.05076
6776.63887,0.05427
6778.56734,0.06580
6780.49581,0.06606
6782.42427,0.00802
6784.35274,-0.05163
6786.28121,-0.04849
6788.20968,-0.04961
6790.13815,-0.03139
6792.06662,0.07926
6793.99509,0.14707
6795.92355,0.12960
6797.85202,0.13379
6799.78049,0.16871
6801.70896,0.20027
6803.63743,0.18129
6805.56590,0.08474
6807.49437,-0.00892
6809.42284,-0.04804
6811.35130,-0.02648
6813.27977,0.05591
6815.20824,0.10375
6817.13671,0.08259
6819.06518,0.11191
6820.99365,0.16730
6822.92212,0.15589
6824.85058,0.11744
6826.77905,0.05149
6828.70752,-0.02288
6830.63599,0.00924
6832.56446,0.09903
6834.49293,0.13621
6836.42140,0.12212
6838.34987,0.07041
6840.27833,-0.00300
6842.20680,0.00224
6844.13527,0.10743
6846.06374,0.15005
6847.99221,0.07227
6849.92068,0.07091
6851.84915,0.15106
6853.77761,0.16851
6855.70608,0.17833
6857.63455,0.20067
6859.56302,0.18332
6861.49149,0.13702
6863.41996,0.07141
6865.34843,0.02902
6867.27690,0.00918
6869.20536,-0.02124
6871.13383,-0.01241
6873.06230,0.02806
6874.99077,0.03811
6876.91924,0.03689
6878.84771,0.00904
6880.77618,-0.05738
6882.70464,-0.05604
6884.63311,0.05371
6886.56158,0.16433
6888.49005,0.14953
6890.41852,0.00922
6892.34699,-0.09175
6894.27546,-0.03042
6896.20393,0.10290
6898.13239,0.14057
6900.06086,0.06171
6901.98933,0.01896
6903.91780,0.05025
6905.84627,0.04979
6907.77474,-0.01943
6909.70321,-0.07728
6911.63167,-0.08471
6913.56014,-0.06508
6915.48861,-0.03629
6917.41708,0.01329
6919.34555,0.07591
6921.27402,0.11281
6923.20249,0.14384
6925.13096,0.16008
6927.05942,0.15897
6928.98789,0.14852
6930.91636,0.08380
6932.84483,0.05940
6934.77330,0.09947
6936.70177,0.05512
6938.63024,-0.07870
6940.55870,-0.13521
6942.48717,-0.03205
6944.41564,0.03609
6946.34411,0.03195
6948.27258,0.09600
6950.20105,0.22125
6952.12952,0.30375
6954.05799,0.30322
6955.98645,0.25261
6957.91492,0.23273
6959.84339,0.19062
6961.77186,0.02390
6963.70033,-0.12881
6965.62880,-0.11144
6967.55727,0.02031
6969.48573,0.09551
6971.41420,0.08571
6973.34267,0.12668
6975.27114,0.15171
6977.19961,0.06999
6979.12808,0.04629
6981.05655,0.11644
6982.98501,0.15686
6984.91348,0.13159
6986.84195,0.09188
6988.77042,0.08812
6990.69889,0.12606
6992.62736,0.14808
6994.55583,0.15320
6996.48430,0.14669
6998.41276,0.14310
7000.34123,0.19994
7002.26970,0.20309
7004.19817,0.09312
7006.12664,0.02381
7008.05511,0.07299
7009.98358,0.12381
7011.91204,0.11098
7013.84051,0.10429
7015.76898,0.14966
7017.69745,0.17971
7019.62592,0.13946
7021.55439,0.03823
7023.48286,-0.06225
7025.41133,-0.08212
7027.33979,-0.03412
7029.26826,0.03399
7031.19673,0.12760
7033.12520,0.23335
7035.05367,0.28027
7036.98214,0.19531
7038.91061,0.03363
7040.83907,-0.03447
7042.76754,0.06678
7044.69601,0.13306
7046.62448,0.06659
7048.55295,0.01120
7050.48142,0.04776
7052.40989,0.11008
7054.33836,0.07403
7056.26682,-0.01710
7058.19529,-0.03275
7060.12376,-0.01323
7062.05223,-0.01649
7063.98070,-0.03830
7065.90917,-0.00953
7067.83764,0.10345
7069.76610,0.22490
7071.69457,0.24629
7073.62304,0.14386
7075.55151,0.06526
7077.47998,0.07413
7079.40845,0.10796
7081.33692,0.12469
7083.26539,0.10247
7085.19385,0.09023
7087.12232,0.12275
7089.05079,0.14901
7090.97926,0.15746
7092.90773,0.11014
7094.83620,-0.00095
7096.76467,-0.01503
7098.69313,0.08428
7100.62160,0.07391
7102.55007,-0.02827
7104.47854,-0.02910
7106.40701,0.06029
7108.33548,0.03495
7110.26395,-0.06803
7112.19242,-0.08286
7114.12088,-0.02309
7116.04935,0.07459
7117.97782,0.23101
7119.90629,0.25123
7121.83476,0.05633
7123.76323,-0.14693
7125.69170,-0.17886
7127.62016,-0.06952
7129.54863,0.02315
7131.47710,0.09442
7133.40557,0.20067
7135.33404,0.30424
7137.26251,0.32922
7139.19098,0.24719
7141.11944,0.14572
7143.04791,0.12233
7144.97638,0.13210
7146.90485,0.05915
7148.83332,-0.02564
7150.76179,0.00558
7152.69026,0.12789
7154.61873,0.16352
7156.54719,0.05609
7158.47566,0.01505
7160.40413,0.11452
7162.33260,0.16135
7164.26107,0.03992
7166.18954,-0.05711
7168.11801,-0.05243
7170.04647,-0.07963
7171.97494,0.00870
7173.90341,0.24566
7175.83188,0.31011
7177.76035,0.12844
7179.68882,-0.00722
7181.61729,-0.01656
7183.54576,0.04833
7185.47422,0.12909
7187.40269,0.14484
7189.33116,0.12301
7191.25963,0.12176
7193.18810,0.11789
7195.11657,0.04143
7197.04504,-0.07435
7198.97350,-0.12219
7200.90197,-0.08920
7202.83044,0.00012
7204.75891,0.11760
7206.68738,0.15405
7208.61585,0.10548
7210.54432,0.07411
7212.47279,0.13384
7214.40125,0.27153
7216.32972,0.36517
7218.25819,0.25164
7220.18666,0.03591
7222.11513,-0.11339
7224.04360,-0.17378
7225.97207,-0.06735
7227.90053,0.16298
7229.82900,0.28948
7231.75747,0.16632
7233.68594,-0.07340
7235.61441,-0.23027
7237.54288,-0.22306
7239.47135,-0.15348
7241.39982,-0.17143
7243.32828,-0.14439
7245.25675,-0.02634
7247.18522,0.03952
7249.11369,0.09137
7251.04216,0.09145
7252.97063,0.00016
7254.89910,-0.06472
7256.82756,-0.11232
7258.75603,-0.09811
7260.68450,0.04911
7262.61297,0.12115
7264.54144,0.06674
7266.46991,0.05379
7268.39838,0.01182
7270.32685,-0.07333
7272.25531,0.02010
7274.18378,0.16930
7276.11225,0.09306
7278.04072,-0.03942
7279.96919,0.00489
7281.89766,0.20394
7283.82613,0.27203
7285.75459,0.21706
7287.68306,0.17819
7289.61153,0.10978
7291.54000,0.00039
7293.46847,-0.01270
7295.39694,0.07152
7297.32541,0.10049
7299.25387,0.00342
7301.18234,-0.06361
7303.11081,-0.03252
7305.03928,-0.03127
7306.96775,0.00865
7308.89622,0.20634
7310.82469,0.29415
7312.75316,0.20217
7314.68162,0.06382
7316.61009,-0.11403
7318.53856,-0.21205
7320.46703,-0.09365
7322.39550,0.11089
7324.32397,0.19395
7326.25244,0.22893
7328.18090,0.39294
7330.10937,0.56875
7332.03784,0.47064
7333.96631,0.15901
7335.89478,-0.11963
7337.82325,-0.22881
7339.75172,-0.09810
7341.68019,0.06908
7343.60865,0.14336
7345.53712,0.22507
7347.46559,0.19032
7349.39406,0.06322
7351.32253,0.08399
7353.25100,0.24299
7355.17947,0.40172
7357.10793,0.49486
7359.03640,0.34507
7360.96487,0.05465
7362.89334,0.04023
7364.82181,0.32100
7366.75028,0.53904
7368.67875,0.43841
7370.60722,0.21065
7372.53568,0.13096
7374.46415,0.11264
7376.39262,-0.05375
7378.32109,-0.19922
7380.24956,-0.18865
7382.17803,-0.07835
7384.10650,0.04803
7386.03496,0.13762
7387.96343,0.14071
7389.89190,0.12690
7391.82037,0.17269
7393.74884,0.19111
7395.67731,0.16174
7397.60578,0.17737
7399.53425,0.17468
7401.46271,0.10566
7403.39118,0.07825
7405.31965,0.17446
7407.24812,0.24368
7409.17659,0.17088
7411.10506,0.02479
7413.03353,-0.02500
7414.96199,0.05278
7416.89046,0.03372
7418.81893,-0.21544
7420.74740,-0.22610
7422.67587,0.05424
7424.60434,0.17439
7426.53281,0.08751
7428.46128,0.01595
7430.38974,0.12745
7432.31821,0.20606
7434.24668,0.05896
7436.17515,0.01819
7438.10362,0.24478
7440.03209,0.40461
7441.96056,0.41258
7443.88902,0.31383
7445.81749,0.17278
7447.74596,0.06230
7449.67443,-0.00708
7451.60290,0.01736
7453.53137,0.01965
7455.45984,-0.08574
7457.38831,-0.10999
7459.31677,0.00312
7461.24524,-0.01794
7463.17371,-0.16924
7465.10218,-0.25209
7467.03065,-0.25687
7468.95912,-0.16388
7470.88759,0.05891
7472.81605,0.29816
7474.74452,0.39906
7476.67299,0.31338
7478.60146,0.10474
7480.52993,0.01313
7482.45840,0.06645
7484.38687,0.07297
7486.31533,0.01000
7488.24380,-0.06560
7490.17227,-0.10158
7492.10074,-0.03976
7494.02921,0.04034
7495.95768,0.00181
7497.88615,-0.13682
