399.19301,0.95437
401.12148,0.32646
403.04995,0.38895
404.97842,0.55579
406.90689,0.42679
408.83536,0.13288
410.76382,0.00903
412.69229,0.18299
414.62076,0.32827
416.54923,0.29221
418.47770,0.16371
420.40617,0.04145
422.33464,-0.02693
424.26311,-0.06209
426.19157,-0.03452
428.12004,0.04251
430.04851,0.15243
431.97698,0.25204
433.90545,0.20770
435.83392,0.12479
437.76239,0.13591
439.69085,0.15635
441.61932,0.10694
443.54779,0.03281
445.47626,-0.00422
447.40473,0.01716
449.33320,0.07729
451.26167,0.10606
453.19013,0.08588
455.11860,0.05401
457.04707,0.01935
458.97554,0.01301
460.90401,0.04483
462.83248,0.06782
464.76095,0.09427
466.68942,0.13968
468.61788,0.15815
470.54635,0.16945
472.47482,0.36544
474.40329,0.66328
476.33176,0.50288
478.26023,0.23270
480.18870,0.11537
482.11716,0.06819
484.04563,-0.00023
485.97410,-0.03699
487.90257,0.02249
489.83104,0.10706
491.75951,0.10350
493.68798,0.05333
495.61645,0.05269
497.54491,0.06338
499.47338,0.06004
501.40185,0.09746
503.33032,0.15029
505.25879,0.16590
507.18726,0.16861
509.11573,0.17481
511.04419,0.16906
512.97266,0.16311
514.90113,0.15555
516.82960,0.10982
518.75807,0.06242
520.68654,0.08289
522.61501,0.12772
524.54348,0.13017
526.47194,0.11090
528.40041,0.11535
530.32888,0.13887
532.25735,0.15040
534.18582,0.14433
536.11429,0.14569
538.04276,0.14754
539.97122,0.13583
541.89969,0.11929
543.82816,0.10813
545.75663,0.12032
547.68510,0.15144
549.61357,0.18385
551.54204,0.26762
553.47051,0.34407
555.39897,0.26202
557.32744,0.12029
559.25591,0.08195
561.18438,0.10325
563.11285,0.11488
565.04132,0.09885
566.96979,0.07892
568.89825,0.08176
570.82672,0.10400
572.75519,0.12912
574.68366,0.14049
576.61213,0.15224
578.54060,0.17317
580.46907,0.17523
582.39754,0.14557
584.32600,0.11369
586.25447,0.10247
588.18294,0.10585
590.11141,0.11031
592.03988,0.11569
593.96835,0.12189
595.89682,0.11506
597.82528,0.09762
599.75375,0.09450
601.68222,0.11919
603.61069,0.14036
605.53916,0.13776
607.46763,0.13481
609.39610,0.13183
611.32456,0.11788
613.25303,0.10032
615.18150,0.09819
617.10997,0.11015
619.03844,0.11389
620.96691,0.11500
622.89538,0.11640
624.82385,0.10434
626.75231,0.09460
628.68078,0.07315
630.60925,-0.06306
632.53772,-0.21790
634.46619,-0.13197
636.39466,0.05446
638.32313,0.11212
640.25159,0.10946
642.18006,0.12553
644.10853,0.13965
646.03700,0.14561
647.96547,0.15370
649.89394,0.15055
651.82241,0.13817
653.75088,0.14059
655.67934,0.15301
657.60781,0.14497
659.53628,0.11347
661.46475,0.10268
663.39322,0.10624
665.32169,0.08598
667.25016,0.05431
669.17862,0.07576
671.10709,0.12398
673.03556,0.14296
674.96403,0.13733
676.89250,0.12181
678.82097,0.11245
680.74944,0.10693
682.67791,0.11037
684.60637,0.12877
686.53484,0.14568
688.46331,0.15291
690.39178,0.15609
692.32025,0.15024
694.24872,0.13329
696.17719,0.12685
698.10565,0.13254
700.03412,0.12987
701.96259,0.12684
703.89106,0.13105
705.81953,0.13874
707.74800,0.15387
709.67647,0.16812
711.60494,0.17296
713.53340,0.16474
715.46187,0.14371
717.39034,0.13110
719.31881,0.13987
721.24728,0.15500
723.17575,0.15288
725.10422,0.13304
727.03268,0.12186
728.96115,0.13636
730.88962,0.16205
732.81809,0.17450
734.74656,0.16703
736.67503,0.15149
738.60350,0.14472
740.53197,0.14821
742.46043,0.15296
744.38890,0.15284
746.31737,0.14374
748.24584,0.13851
750.17431,0.14335
752.10278,0.14455
754.03125,0.14286
755.95971,0.14665
757.88818,0.14650
759.81665,0.13580
761.74512,0.12529
763.67359,0.12256
765.60206,0.12851
767.53053,0.14185
769.45900,0.15247
771.38746,0.15136
773.31593,0.14757
775.24440,0.15334
777.17287,0.15898
779.10134,0.15112
781.02981,0.14208
782.95828,0.14249
784.88674,0.14416
786.81521,0.14470
788.74368,0.14054
790.67215,0.13739
792.60062,0.15001
794.52909,0.16115
796.45756,0.15493
798.38602,0.14875
800.31449,0.14789
802.24296,0.14706
804.17143,0.15304
806.09990,0.16156
808.02837,0.16067
809.95684,0.15099
811.88531,0.13732
813.81377,0.12794
815.74224,0.13442
817.67071,0.14964
819.59918,0.15417
821.52765,0.15140
823.45612,0.14908
825.38459,0.14033
827.31305,0.13084
829.24152,0.13136
831.16999,0.13966
833.09846,0.15264
835.02693,0.16357
836.95540,0.16107
838.88387,0.14994
840.81234,0.14242
842.74080,0.14362
844.66927,0.15272
846.59774,0.15856
848.52621,0.15551
850.45468,0.15339
852.38315,0.15989
854.31162,0.16639
856.24008,0.16612
858.16855,0.16296
860.09702,0.15967
862.02549,0.15846
863.95396,0.15847
865.88243,0.16481
867.81090,0.17711
869.73937,0.17559
871.66783,0.15810
873.59630,0.14826
875.52477,0.15272
877.45324,0.15614
879.38171,0.15005
881.31018,0.13845
883.23865,0.13471
885.16711,0.14313
887.09558,0.15097
889.02405,0.15343
890.95252,0.15732
892.88099,0.16146
894.80946,0.15588
896.73793,0.14364
898.66640,0.13908
900.59486,0.14642
902.52333,0.15500
904.45180,0.15581
906.38027,0.15291
908.30874,0.15106
910.23721,0.15039
912.16568,0.14794
914.09414,0.14618
916.02261,0.14852
917.95108,0.15180
919.87955,0.15854
921.80802,0.16525
923.73649,0.15946
925.66496,0.14442
927.59343,0.13491
929.52189,0.13844
931.45036,0.15072
933.37883,0.15826
935.30730,0.15491
937.23577,0.14990
939.16424,0.14920
941.09271,0.14969
943.02117,0.14979
944.94964,0.15316
946.87811,0.15966
948.80658,0.16083
950.73505,0.15362
952.66352,0.14660
954.59199,0.14397
956.52045,0.14307
958.44892,0.14852
960.37739,0.16200
962.30586,0.17279
964.23433,0.17019
966.16280,0.15886
968.09127,0.15203
970.01974,0.15418
971.94820,0.16390
973.87667,0.17439
975.80514,0.17796
977.73361,0.17627
979.66208,0.17184
981.59055,0.16363
983.51902,0.15783
985.44748,0.15805
987.37595,0.15944
989.30442,0.16409
991.23289,0.16650
993.16136,0.15952
995.08983,0.15662
997.01830,0.16310
998.94677,0.16814
1000.87523,0.16623
1002.80370,0.15876
1004.73217,0.15081
1006.66064,0.14854
1008.58911,0.15338
1010.51758,0.16234
1012.44605,0.17207
1014.37451,0.17590
1016.30298,0.17323
1018.23145,0.17270
1020.15992,0.17571
1022.08839,0.17733
1024.01686,0.17410
1025.94533,0.16487
1027.87380,0.15419
1029.80226,0.14933
1031.73073,0.15359
1033.65920,0.16413
1035.58767,0.17410
1037.51614,0.17931
1039.44461,0.17700
1041.37308,0.16849
1043.30154,0.16556
1045.23001,0.17176
1047.15848,0.17578
1049.08695,0.17231
1051.01542,0.16859
1052.94389,0.16675
1054.87236,0.16439
1056.80083,0.16915
1058.72929,0.18185
1060.65776,0.18862
1062.58623,0.18704
1064.51470,0.18774
1066.44317,0.18783
1068.37164,0.17975
1070.30011,0.16851
1072.22857,0.15984
1074.15704,0.15988
1076.08551,0.17097
1078.01398,0.18388
1079.94245,0.18744
1081.87092,0.18181
1083.79939,0.17629
1085.72786,0.17308
1087.65632,0.17022
1089.58479,0.17006
1091.51326,0.17113
1093.44173,0.17037
1095.37020,0.17058
1097.29867,0.17113
1099.22714,0.16808
1101.15560,0.16433
1103.08407,0.16502
1105.01254,0.16909
1106.94101,0.17161
1108.86948,0.17352
1110.79795,0.17786
1112.72642,0.18130
1114.65489,0.18000
1116.58335,0.17381
1118.51182,0.16670
1120.44029,0.16478
1122.36876,0.16835
1124.29723,0.17195
1126.22570,0.17164
1128.15417,0.16702
1130.08263,0.16343
1132.01110,0.16418
1133.93957,0.16204
1135.86804,0.15476
1137.79651,0.15171
1139.72498,0.15502
1141.65345,0.15796
1143.58191,0.16010
1145.51038,0.16519
1147.43885,0.17143
1149.36732,0.17460
1151.29579,0.17422
1153.22426,0.17254
1155.15273,0.17261
1157.08120,0.17354
1159.00966,0.17286
1160.93813,0.17292
1162.86660,0.17205
1164.79507,0.16891
1166.72354,0.16936
1168.65201,0.17364
1170.58048,0.17889
1172.50894,0.18349
1174.43741,0.18230
1176.36588,0.17625
1178.29435,0.17196
1180.22282,0.16991
1182.15129,0.17010
1184.07976,0.17355
1186.00823,0.17636
1187.93669,0.17480
1189.86516,0.17066
1191.79363,0.16962
1193.72210,0.17014
1195.65057,0.16803
1197.57904,0.17059
1199.50751,0.17960
1201.43597,0.18308
1203.36444,0.17778
1205.29291,0.17189
1207.22138,0.16883
1209.14985,0.16715
1211.07832,0.16838
1213.00679,0.17354
1214.93526,0.17969
1216.86372,0.18307
1218.79219,0.18360
1220.72066,0.18324
1222.64913,0.18147
1224.57760,0.17846
1226.50607,0.17686
1228.43454,0.17727
1230.36300,0.17808
1232.29147,0.17789
1234.21994,0.17608
1236.14841,0.17472
1238.07688,0.17564
1240.00535,0.17782
1241.93382,0.18117
1243.86229,0.18379
1245.79075,0.18227
1247.71922,0.17889
1249.64769,0.17834
1251.57616,0.17840
1253.50463,0.17605
1255.43310,0.17844
1257.36157,0.18643
1259.29003,0.18920
1261.21850,0.18519
1263.14697,0.18212
1265.07544,0.18379
1267.00391,0.18481
1268.93238,0.18107
1270.86085,0.18006
1272.78932,0.18343
1274.71778,0.18236
1276.64625,0.17687
1278.57472,0.17596
1280.50319,0.18047
1282.43166,0.18310
1284.36013,0.18117
1286.28860,0.17913
1288.21706,0.18052
1290.14553,0.18142
1292.07400,0.17891
1294.00247,0.17806
1295.93094,0.18095
1297.85941,0.18089
1299.78788,0.17622
1301.71634,0.17317
1303.64481,0.17202
1305.57328,0.17222
1307.50175,0.17887
1309.43022,0.18857
1311.35869,0.19297
1313.28716,0.19200
1315.21563,0.18887
1317.14409,0.18704
1319.07256,0.18733
1321.00103,0.18604
1322.92950,0.18422
1324.85797,0.18472
1326.78644,0.18340
1328.71491,0.17902
1330.64337,0.17666
1332.57184,0.17733
1334.50031,0.17921
1336.42878,0.18256
1338.35725,0.18693
1340.28572,0.18779
1342.21419,0.19481
1344.14266,0.21031
1346.07112,0.20712
1347.99959,0.18651
1349.92806,0.17723
1351.85653,0.17904
1353.78500,0.18267
1355.71347,0.18594
1357.64194,0.18637
1359.57040,0.18465
1361.49887,0.18442
1363.42734,0.18757
1365.35581,0.18810
1367.28428,0.18523
1369.21275,0.18302
1371.14122,0.18266
1373.06969,0.18569
1374.99815,0.19109
1376.92662,0.19297
1378.85509,0.19287
1380.78356,0.19401
1382.71203,0.19573
1384.64050,0.19663
1386.56897,0.19315
1388.49743,0.18706
1390.42590,0.18578
1392.35437,0.18948
1394.28284,0.19502
1396.21131,0.19827
1398.13978,0.19759
1400.06825,0.19455
1401.99672,0.19197
1403.92518,0.18946
1405.85365,0.18555
1407.78212,0.18316
1409.71059,0.18207
1411.63906,0.18149
1413.56753,0.18516
1415.49600,0.19177
1417.42446,0.19591
1419.35293,0.19349
1421.28140,0.18794
1423.20987,0.18630
1425.13834,0.18829
1427.06681,0.19165
1428.99528,0.19656
1430.92375,0.19869
1432.85221,0.19582
1434.78068,0.19470
1436.70915,0.19663
1438.63762,0.19839
1440.56609,0.20075
1442.49456,0.20229
1444.42303,0.20187
1446.35149,0.20034
1448.27996,0.19957
1450.20843,0.20070
1452.13690,0.20164
1454.06537,0.20432
1455.99384,0.21382
1457.92231,0.22174
1459.85077,0.21407
1461.77924,0.20558
1463.70771,0.20008
1465.63618,0.19535
1467.56465,0.19553
1469.49312,0.20288
1471.42159,0.21458
1473.35006,0.21833
1475.27852,0.20695
1477.20699,0.19704
1479.13546,0.19426
1481.06393,0.19272
1482.99240,0.19163
1484.92087,0.19566
1486.84934,0.20389
1488.77780,0.20772
1490.70627,0.20105
1492.63474,0.19651
1494.56321,0.20050
1496.49168,0.20798
1498.42015,0.20851
1500.34862,0.20088
1502.27709,0.19628
1504.20555,0.20310
1506.13402,0.22414
1508.06249,0.22810
1509.99096,0.21058
1511.91943,0.20162
1513.84790,0.20032
1515.77637,0.20229
1517.70483,0.20714
1519.63330,0.21138
1521.56177,0.21175
1523.49024,0.21268
1525.41871,0.21445
1527.34718,0.21145
1529.27565,0.20593
1531.20412,0.20281
1533.13258,0.20149
1535.06105,0.20166
1536.98952,0.20603
1538.91799,0.21779
1540.84646,0.23110
1542.77493,0.22643
1544.70340,0.21130
1546.63186,0.19978
1548.56033,0.19718
1550.48880,0.19789
1552.41727,0.19737
1554.34574,0.19809
1556.27421,0.20343
1558.20268,0.21087
1560.13115,0.20296
1562.05961,0.19288
1563.98808,0.18957
1565.91655,0.19188
1567.84502,0.19826
1569.77349,0.20276
1571.70196,0.20213
1573.63043,0.20104
1575.55889,0.19942
1577.48736,0.19556
1579.41583,0.19375
1581.34430,0.19311
1583.27277,0.19079
1585.20124,0.18875
1587.12971,0.18812
1589.05818,0.18758
1590.98664,0.18875
1592.91511,0.19085
1594.84358,0.19052
1596.77205,0.18962
1598.70052,0.19067
1600.62899,0.19153
1602.55746,0.19144
1604.48592,0.19177
1606.41439,0.19227
1608.34286,0.19245
1610.27133,0.19383
1612.19980,0.19800
1614.12827,0.20313
1616.05674,0.20706
1617.98521,0.20673
1619.91367,0.20489
1621.84214,0.20632
1623.77061,0.20887
1625.69908,0.21003
1627.62755,0.20958
1629.55602,0.20545
1631.48449,0.20279
1633.41295,0.20703
1635.34142,0.21544
1637.26989,0.21646
1639.19836,0.21264
1641.12683,0.20888
1643.05530,0.20693
1644.98377,0.21175
1646.91223,0.22418
1648.84070,0.22935
1650.76917,0.22515
1652.69764,0.21848
1654.62611,0.21566
1656.55458,0.21246
1658.48305,0.20738
1660.41152,0.20542
1662.33998,0.20943
1664.26845,0.21118
1666.19692,0.20681
1668.12539,0.20622
1670.05386,0.21455
1671.98233,0.21995
1673.91080,0.21897
1675.83926,0.21367
1677.76773,0.20739
1679.69620,0.20514
1681.62467,0.20816
1683.55314,0.21654
1685.48161,0.22091
1687.41008,0.21641
1689.33855,0.21111
1691.26701,0.20908
1693.19548,0.21188
1695.12395,0.21905
1697.05242,0.22547
1698.98089,0.22389
1700.90936,0.21746
1702.83783,0.21434
1704.76629,0.21413
1706.69476,0.21475
1708.62323,0.21466
1710.55170,0.21147
1712.48017,0.20607
1714.40864,0.20409
1716.33711,0.20953
1718.26558,0.21475
1720.19404,0.21039
1722.12251,0.20134
1724.05098,0.19421
1725.97945,0.19400
1727.90792,0.19833
1729.83639,0.20282
1731.76486,0.20865
1733.69332,0.21855
1735.62179,0.21964
1737.55026,0.21051
1739.47873,0.20364
1741.40720,0.20317
1743.33567,0.20549
1745.26414,0.21001
1747.19261,0.21438
1749.12107,0.21417
1751.04954,0.21080
1752.97801,0.20740
1754.90648,0.20407
1756.83495,0.20037
1758.76342,0.19857
1760.69189,0.20049
1762.62035,0.20263
1764.54882,0.20266
1766.47729,0.20456
1768.40576,0.20865
1770.33423,0.20997
1772.26270,0.20802
1774.19117,0.20643
1776.11964,0.20561
1778.04810,0.20663
1779.97657,0.20807
1781.90504,0.20647
1783.83351,0.20542
1785.76198,0.20629
1787.69045,0.20658
1789.61892,0.20838
1791.54738,0.21227
1793.47585,0.21195
1795.40432,0.20859
1797.33279,0.20930
1799.26126,0.21106
1801.18973,0.20851
1803.11820,0.20558
1805.04666,0.20611
1806.97513,0.20804
1808.90360,0.20873
1810.83207,0.20825
1812.76054,0.20610
1814.68901,0.20240
1816.61748,0.20121
1818.54595,0.20311
1820.47441,0.20254
1822.40288,0.20082
1824.33135,0.20462
1826.25982,0.20969
1828.18829,0.20945
1830.11676,0.20737
1832.04523,0.20680
1833.97369,0.20746
1835.90216,0.20841
1837.83063,0.20775
1839.75910,0.20596
1841.68757,0.20703
1843.61604,0.21102
1845.54451,0.20967
1847.47298,0.20278
1849.40144,0.19807
1851.32991,0.19627
1853.25838,0.19510
1855.18685,0.19567
1857.11532,0.19781
1859.04379,0.19935
1860.97226,0.20065
1862.90072,0.20167
1864.82919,0.20372
1866.75766,0.20928
1868.68613,0.21305
1870.61460,0.20878
1872.54307,0.20290
1874.47154,0.20120
1876.40001,0.20233
1878.32847,0.20200
1880.25694,0.20059
1882.18541,0.20093
1884.11388,0.20227
1886.04235,0.20246
1887.97082,0.20158
1889.89929,0.20039
1891.82775,0.20029
1893.75622,0.20321
1895.68469,0.20658
1897.61316,0.20573
1899.54163,0.20217
1901.47010,0.20019
1903.39857,0.20118
1905.32704,0.20367
1907.25550,0.20476
1909.18397,0.20324
1911.11244,0.20150
1913.04091,0.20203
1914.96938,0.20429
1916.89785,0.20545
1918.82632,0.20495
1920.75478,0.20626
1922.68325,0.20636
1924.61172,0.20131
1926.54019,0.19783
1928.46866,0.19984
1930.39713,0.20270
1932.32560,0.20335
1934.25407,0.20228
1936.18253,0.20063
1938.11100,0.20092
1940.03947,0.20426
1941.96794,0.20880
1943.89641,0.21048
1945.82488,0.20690
1947.75335,0.20314
1949.68181,0.20369
1951.61028,0.20512
1953.53875,0.20481
1955.46722,0.20525
1957.39569,0.20656
1959.32416,0.20654
1961.25263,0.20600
1963.18110,0.20645
1965.10956,0.20706
1967.03803,0.20627
1968.96650,0.20460
1970.89497,0.20373
1972.82344,0.20393
1974.75191,0.20370
1976.68038,0.20133
1978.60884,0.19944
1980.53731,0.20031
1982.46578,0.20112
1984.39425,0.20197
1986.32272,0.20476
1988.25119,0.20704
1990.17966,0.20785
1992.10812,0.20764
1994.03659,0.20623
1995.96506,0.20640
1997.89353,0.20755
1999.82200,0.20525
2001.75047,0.20092
2003.67894,0.19988
2005.60741,0.20181
2007.53587,0.20320
2009.46434,0.20396
2011.39281,0.20398
2013.32128,0.20281
2015.24975,0.20283
2017.17822,0.20483
2019.10669,0.20494
2021.03515,0.20205
2022.96362,0.20027
2024.89209,0.20131
2026.82056,0.20270
2028.74903,0.20229
2030.67750,0.20143
2032.60597,0.20222
2034.53444,0.20434
2036.46290,0.20706
2038.39137,0.20862
2040.31984,0.20664
2042.24831,0.20279
2044.17678,0.20145
2046.10525,0.20342
2048.03372,0.20557
2049.96218,0.20635
2051.89065,0.20679
2053.81912,0.20574
2055.74759,0.20117
2057.67606,0.19627
2059.60453,0.19684
2061.53300,0.20173
2063.46147,0.20467
2065.38993,0.20571
2067.31840,0.20703
2069.24687,0.20523
2071.17534,0.20087
2073.10381,0.20005
2075.03228,0.20351
2076.96075,0.20558
2078.88921,0.20402
2080.81768,0.20341
2082.74615,0.20500
2084.67462,0.20491
2086.60309,0.20403
2088.53156,0.20472
2090.46003,0.20521
2092.38850,0.20560
2094.31696,0.20550
2096.24543,0.20340
2098.17390,0.20250
2100.10237,0.20380
2102.03084,0.20317
2103.95931,0.20007
2105.88778,0.19840
2107.81624,0.19971
2109.74471,0.20218
2111.67318,0.20479
2113.60165,0.20665
2115.53012,0.20664
2117.45859,0.20600
2119.38706,0.20647
2121.31553,0.20695
2123.24399,0.20618
2125.17246,0.20551
2127.10093,0.20710
2129.02940,0.20946
2130.95787,0.20922
2132.88634,0.20829
2134.81481,0.20873
2136.74327,0.20774
2138.67174,0.20548
2140.60021,0.20577
2142.52868,0.20785
2144.45715,0.20774
2146.38562,0.20678
2148.31409,0.20810
2150.24255,0.20933
2152.17102,0.20755
2154.09949,0.20369
2156.02796,0.20047
2157.95643,0.20007
2159.88490,0.20200
2161.81337,0.20444
2163.74184,0.20698
2165.67030,0.20970
2167.59877,0.21078
2169.52724,0.20927
2171.45571,0.20750
2173.38418,0.20698
2175.31265,0.20704
2177.24112,0.20712
2179.16958,0.20742
2181.09805,0.20815
2183.02652,0.20833
2184.95499,0.20747
2186.88346,0.20714
2188.81193,0.20821
2190.74040,0.20950
2192.66887,0.20964
2194.59733,0.20767
2196.52580,0.20467
2198.45427,0.20345
2200.38274,0.20443
2202.31121,0.20590
2204.23968,0.20682
2206.16815,0.20739
2208.09661,0.20771
2210.02508,0.20671
2211.95355,0.20476
2213.88202,0.20425
2215.81049,0.20470
2217.73896,0.20420
2219.66743,0.20392
2221.59590,0.20448
2223.52436,0.20588
2225.45283,0.20892
2227.38130,0.21090
2229.30977,0.20816
2231.23824,0.20355
2233.16671,0.20217
2235.09518,0.20322
2237.02364,0.20515
2238.95211,0.20761
2240.88058,0.20780
2242.80905,0.20541
2244.73752,0.20337
2246.66599,0.20313
2248.59446,0.20415
2250.52293,0.20495
2252.45139,0.20450
2254.37986,0.20392
2256.30833,0.20446
2258.23680,0.20451
2260.16527,0.20318
2262.09374,0.20290
2264.02221,0.20422
2265.95067,0.20535
2267.87914,0.20519
2269.80761,0.20308
2271.73608,0.20051
2273.66455,0.19911
2275.59302,0.19723
2277.52149,0.19434
2279.44996,0.19416
2281.37842,0.19717
2283.30689,0.19860
2285.23536,0.19821
2287.16383,0.19786
2289.09230,0.19718
2291.02077,0.19616
2292.94924,0.19334
2294.87770,0.19035
2296.80617,0.19101
2298.73464,0.19163
2300.66311,0.18672
2302.59158,0.17893
2304.52005,0.17443
2306.44852,0.17366
2308.37699,0.17191
2310.30545,0.16923
2312.23392,0.17012
2314.16239,0.17013
2316.09086,0.16337
2318.01933,0.15592
2319.94780,0.15329
2321.87627,0.15137
2323.80473,0.14819
2325.73320,0.14525
2327.66167,0.14038
2329.59014,0.13644
2331.51861,0.13825
2333.44708,0.14440
2335.37555,0.14839
2337.30401,0.14483
2339.23248,0.13728
2341.16095,0.12967
2343.08942,0.12384
2345.01789,0.12546
2346.94636,0.13557
2348.87483,0.14404
2350.80330,0.14482
2352.73176,0.14053
2354.66023,0.13731
2356.58870,0.13100
2358.51717,0.11245
2360.44564,0.09643
2362.37411,0.10182
2364.30258,0.12116
2366.23104,0.14078
2368.15951,0.15268
2370.08798,0.15538
2372.01645,0.15271
2373.94492,0.15274
2375.87339,0.16153
2377.80186,0.17336
2379.73033,0.18070
2381.65879,0.18684
2383.58726,0.19498
2385.51573,0.20068
2387.44420,0.20269
2389.37267,0.20340
2391.30114,0.20159
2393.22961,0.19859
2395.15807,0.19973
2397.08654,0.20433
2399.01501,0.20731
2400.94348,0.20735
2402.87195,0.20628
2404.80042,0.20638
2406.72889,0.20774
2408.65736,0.20904
2410.58582,0.20954
2412.51429,0.20838
2414.44276,0.20717
2416.37123,0.20770
2418.29970,0.20813
2420.22817,0.20701
2422.15664,0.20573
2424.08510,0.20672
2426.01357,0.20866
2427.94204,0.20810
2429.87051,0.20683
2431.79898,0.20828
2433.72745,0.20956
2435.65592,0.20672
2437.58439,0.20272
2439.51285,0.20255
2441.44132,0.20611
2443.36979,0.20884
2445.29826,0.20837
2447.22673,0.20759
2449.15520,0.21010
2451.08367,0.21511
2453.01213,0.21664
2454.94060,0.21212
2456.86907,0.20676
2458.79754,0.20509
2460.72601,0.20627
2462.65448,0.20791
2464.58295,0.20905
2466.51142,0.20860
2468.43988,0.20775
2470.36835,0.20886
2472.29682,0.21019
2474.22529,0.21032
2476.15376,0.21019
2478.08223,0.21074
2480.01070,0.21147
2481.93916,0.21041
2483.86763,0.20810
2485.79610,0.20601
2487.72457,0.20542
2489.65304,0.20715
2491.58151,0.20749
2493.50998,0.20502
2495.43844,0.20489
2497.36691,0.20807
2499.29538,0.20911
2501.22385,0.20729
2503.15232,0.20706
2505.08079,0.20843
2507.00926,0.20780
2508.93773,0.20577
2510.86619,0.20581
2512.79466,0.20779
2514.72313,0.20895
2516.65160,0.20861
2518.58007,0.20860
2520.50854,0.20922
2522.43701,0.20864
2524.36547,0.20840
2526.29394,0.21052
2528.22241,0.21218
2530.15088,0.21202
2532.07935,0.21275
2534.00782,0.21339
2535.93629,0.21196
2537.86476,0.21111
2539.79322,0.21022
2541.72169,0.20627
2543.65016,0.20279
2545.57863,0.20390
2547.50710,0.20717
2549.43557,0.20883
2551.36404,0.20862
2553.29250,0.20701
2555.22097,0.20485
2557.14944,0.20391
2559.07791,0.20505
2561.00638,0.20804
2562.93485,0.21083
2564.86332,0.21152
2566.79179,0.21239
2568.72025,0.21389
2570.64872,0.21222
2572.57719,0.20866
2574.50566,0.20793
2576.43413,0.21056
2578.36260,0.21215
2580.29107,0.20961
2582.21953,0.20697
2584.14800,0.20684
2586.07647,0.20764
2588.00494,0.20919
2589.93341,0.21091
2591.86188,0.21106
2593.79035,0.20946
2595.71882,0.20872
2597.64728,0.20936
2599.57575,0.20945
2601.50422,0.20926
2603.43269,0.20983
2605.36116,0.21132
2607.28963,0.21267
2609.21810,0.21350
2611.14656,0.21494
2613.07503,0.21625
2615.00350,0.21469
2616.93197,0.21036
2618.86044,0.20753
2620.78891,0.20765
2622.71738,0.20874
2624.64585,0.21074
2626.57431,0.21237
2628.50278,0.21308
2630.43125,0.21511
2632.35972,0.21612
2634.28819,0.21296
2636.21666,0.21017
2638.14513,0.21187
2640.07359,0.21389
2642.00206,0.21364
2643.93053,0.21416
2645.85900,0.21509
2647.78747,0.21473
2649.71594,0.21503
2651.64441,0.21718
2653.57288,0.21694
2655.50134,0.21285
2657.42981,0.21166
2659.35828,0.21321
2661.28675,0.21179
2663.21522,0.21008
2665.14369,0.21066
2667.07216,0.21100
2669.00062,0.21097
2670.92909,0.21163
2672.85756,0.21134
2674.78603,0.21056
2676.71450,0.21136
2678.64297,0.21280
2680.57144,0.21432
2682.49990,0.21458
2684.42837,0.21217
2686.35684,0.21128
2688.28531,0.21382
2690.21378,0.21479
2692.14225,0.21352
2694.07072,0.21384
2695.99919,0.21597
2697.92765,0.21811
2699.85612,0.21780
2701.78459,0.21498
2703.71306,0.21364
2705.64153,0.21496
2707.57000,0.21652
2709.49847,0.21620
2711.42693,0.21475
2713.35540,0.21530
2715.28387,0.21699
2717.21234,0.21674
2719.14081,0.21614
2721.06928,0.21718
2722.99775,0.21919
2724.92622,0.22055
2726.85468,0.21931
2728.78315,0.21655
2730.71162,0.21561
2732.64009,0.21726
2734.56856,0.22053
2736.49703,0.22250
2738.42550,0.21941
2740.35396,0.21636
2742.28243,0.21780
2744.21090,0.21873
2746.13937,0.22063
2748.06784,0.22583
2749.99631,0.22714
2751.92478,0.22279
2753.85325,0.22053
2755.78171,0.22309
2757.71018,0.22541
2759.63865,0.22492
2761.56712,0.22218
2763.49559,0.21876
2765.42406,0.21857
2767.35253,0.22092
2769.28099,0.21989
2771.20946,0.21697
2773.13793,0.21889
2775.06640,0.22426
2776.99487,0.22699
2778.92334,0.22615
2780.85181,0.22508
2782.78028,0.22585
2784.70874,0.22635
2786.63721,0.22460
2788.56568,0.22402
2790.49415,0.22445
2792.42262,0.22216
2794.35109,0.21978
2796.27956,0.22131
2798.20802,0.22552
2800.13649,0.22706
2802.06496,0.22467
2803.99343,0.22290
2805.92190,0.22373
2807.85037,0.22429
2809.77884,0.22296
2811.70731,0.22179
2813.63577,0.22288
2815.56424,0.22573
2817.49271,0.22717
2819.42118,0.22837
2821.34965,0.23013
2823.27812,0.22908
2825.20659,0.22670
2827.13505,0.22468
2829.06352,0.22359
2830.99199,0.22569
2832.92046,0.23043
2834.84893,0.23387
2836.77740,0.23352
2838.70587,0.23153
2840.63433,0.23036
2842.56280,0.22945
2844.49127,0.22816
2846.41974,0.22801
2848.34821,0.22810
2850.27668,0.22654
2852.20515,0.22600
2854.13362,0.22823
2856.06208,0.22994
2857.99055,0.22990
2859.91902,0.23146
2861.84749,0.23376
2863.77596,0.23191
2865.70443,0.22755
2867.63290,0.22545
2869.56136,0.22521
2871.48983,0.22627
2873.41830,0.22846
2875.34677,0.22896
2877.27524,0.22796
2879.20371,0.22867
2881.13218,0.23005
2883.06065,0.22841
2884.98911,0.22504
2886.91758,0.22255
2888.84605,0.22190
2890.77452,0.22347
2892.70299,0.22493
2894.63146,0.22429
2896.55993,0.22334
2898.48839,0.22479
2900.41686,0.22609
2902.34533,0.22502
2904.27380,0.22405
2906.20227,0.22279
2908.13074,0.22235
2910.05921,0.22407
2911.98768,0.22303
2913.91614,0.21887
2915.84461,0.21668
2917.77308,0.21708
2919.70155,0.21830
2921.63002,0.21989
2923.55849,0.22021
2925.48696,0.21617
2927.41542,0.21262
2929.34389,0.21711
2931.27236,0.22360
2933.20083,0.22569
2935.12930,0.22625
2937.05777,0.22675
2938.98624,0.22766
2940.91471,0.22857
2942.84317,0.22782
2944.77164,0.22547
2946.70011,0.22311
2948.62858,0.22408
2950.55705,0.22713
2952.48552,0.22763
2954.41399,0.22552
2956.34245,0.22110
2958.27092,0.21826
2960.19939,0.22265
2962.12786,0.22766
2964.05633,0.22607
2965.98480,0.22299
2967.91327,0.22336
2969.84174,0.22484
2971.77020,0.22529
2973.69867,0.22713
2975.62714,0.22966
2977.55561,0.22931
2979.48408,0.22994
2981.41255,0.23326
2983.34102,0.23455
2985.26948,0.23359
2987.19795,0.23223
2989.12642,0.23175
2991.05489,0.23151
2992.98336,0.22977
2994.91183,0.22892
2996.84030,0.23001
2998.76877,0.23273
3000.69723,0.23863
3002.62570,0.24390
3004.55417,0.24359
3006.48264,0.23855
3008.41111,0.23075
3010.33958,0.22457
3012.26805,0.21845
3014.19651,0.20267
3016.12498,0.18499
3018.05345,0.18795
3019.98192,0.21152
3021.91039,0.23115
3023.83886,0.23406
3025.76733,0.22736
3027.69579,0.22303
3029.62426,0.22660
3031.55273,0.23234
3033.48120,0.23364
3035.40967,0.23008
3037.33814,0.22734
3039.26661,0.23140
3041.19508,0.23821
3043.12354,0.23913
3045.05201,0.23410
3046.98048,0.23033
3048.90895,0.22856
3050.83742,0.22620
3052.76589,0.22650
3054.69436,0.22750
3056.62282,0.22617
3058.55129,0.22901
3060.47976,0.23598
3062.40823,0.23674
3064.33670,0.22889
3066.26517,0.22222
3068.19364,0.22424
3070.12211,0.22957
3072.05057,0.23076
3073.97904,0.22669
3075.90751,0.22139
3077.83598,0.22219
3079.76445,0.22734
3081.69292,0.22650
3083.62139,0.21850
3085.54985,0.21178
3087.47832,0.21089
3089.40679,0.21453
3091.33526,0.21872
3093.26373,0.21860
3095.19220,0.21764
3097.12067,0.22025
3099.04914,0.22198
3100.97760,0.22155
3102.90607,0.21998
3104.83454,0.22179
3106.76301,0.23102
3108.69148,0.23634
3110.61995,0.23204
3112.54842,0.22887
3114.47688,0.22975
3116.40535,0.23131
3118.33382,0.23238
3120.26229,0.23034
3122.19076,0.22904
3124.11923,0.23079
3126.04770,0.23091
3127.97617,0.23008
3129.90463,0.22884
3131.83310,0.22814
3133.76157,0.23269
3135.69004,0.23870
3137.61851,0.23806
3139.54698,0.23271
3141.47545,0.22932
3143.40391,0.22992
3145.33238,0.23492
3147.26085,0.24094
3149.18932,0.24396
3151.11779,0.24509
3153.04626,0.24477
3154.97473,0.24312
3156.90320,0.24207
3158.83166,0.23982
3160.76013,0.23401
3162.68860,0.23121
3164.61707,0.23616
3166.54554,0.24165
3168.47401,0.24218
3170.40248,0.24043
3172.33094,0.23779
3174.25941,0.23414
3176.18788,0.23466
3178.11635,0.23996
3180.04482,0.24180
3181.97329,0.23819
3183.90176,0.23417
3185.83022,0.23320
3187.75869,0.23390
3189.68716,0.23478
3191.61563,0.23843
3193.54410,0.24432
3195.47257,0.24705
3197.40104,0.24269
3199.32951,0.23687
3201.25797,0.23576
3203.18644,0.23529
3205.11491,0.23291
3207.04338,0.23072
3208.97185,0.22998
3210.90032,0.22945
3212.82879,0.22662
3214.75725,0.22365
3216.68572,0.22342
3218.61419,0.22323
3220.54266,0.22316
3222.47113,0.22829
3224.39960,0.23423
3226.32807,0.23245
3228.25654,0.22624
3230.18500,0.22378
3232.11347,0.22789
3234.04194,0.23326
3235.97041,0.23369
3237.89888,0.23084
3239.82735,0.22962
3241.75582,0.23197
3243.68428,0.23554
3245.61275,0.23631
3247.54122,0.23456
3249.46969,0.23372
3251.39816,0.23198
3253.32663,0.22805
3255.25510,0.22833
3257.18357,0.23282
3259.11203,0.23382
3261.04050,0.23065
3262.96897,0.22554
3264.89744,0.21970
3266.82591,0.21896
3268.75438,0.22282
3270.68285,0.22272
3272.61131,0.22201
3274.53978,0.22815
3276.46825,0.23503
3278.39672,0.23775
3280.32519,0.23664
3282.25366,0.23153
3284.18213,0.22754
3286.11060,0.22705
3288.03906,0.22902
3289.96753,0.23434
3291.89600,0.23886
3293.82447,0.23889
3295.75294,0.23607
3297.68141,0.23287
3299.60988,0.23115
3301.53834,0.22977
3303.46681,0.22885
3305.39528,0.23001
3307.32375,0.23359
3309.25222,0.23933
3311.18069,0.24063
3313.10916,0.23217
3315.03763,0.22192
3316.96609,0.22012
3318.89456,0.22508
3320.82303,0.22848
3322.75150,0.22903
3324.67997,0.22960
3326.60844,0.22777
3328.53691,0.22417
3330.46537,0.22528
3332.39384,0.22810
3334.32231,0.22759
3336.25078,0.22872
3338.17925,0.23367
3340.10772,0.23750
3342.03619,0.23542
3343.96466,0.23063
3345.89312,0.22842
3347.82159,0.22622
3349.75006,0.22537
3351.67853,0.22762
3353.60700,0.22799
3355.53547,0.22801
3357.46394,0.23013
3359.39240,0.23173
3361.32087,0.23199
3363.24934,0.23141
3365.17781,0.23297
3367.10628,0.23642
3369.03475,0.23807
3370.96322,0.23773
3372.89168,0.23391
3374.82015,0.22768
3376.74862,0.22518
3378.67709,0.22708
3380.60556,0.22860
3382.53403,0.22846
3384.46250,0.22866
3386.39097,0.22880
3388.31943,0.22942
3390.24790,0.23281
3392.17637,0.23693
3394.10484,0.23728
3396.03331,0.23383
3397.96178,0.23139
3399.89025,0.23101
3401.81871,0.22839
3403.74718,0.22466
3405.67565,0.22503
3407.60412,0.22757
3409.53259,0.22751
3411.46106,0.22596
3413.38953,0.22667
3415.31800,0.22892
3417.24646,0.22709
3419.17493,0.22198
3421.10340,0.22236
3423.03187,0.22842
3424.96034,0.23149
3426.88881,0.23010
3428.81728,0.22894
3430.74574,0.22628
3432.67421,0.21994
3434.60268,0.21777
3436.53115,0.22301
3438.45962,0.22769
3440.38809,0.22654
3442.31656,0.22138
3444.24503,0.21781
3446.17349,0.21830
3448.10196,0.21881
3450.03043,0.21825
3451.95890,0.21614
3453.88737,0.20949
3455.81584,0.20405
3457.74431,0.20748
3459.67277,0.21364
3461.60124,0.21464
3463.52971,0.21429
3465.45818,0.21532
3467.38665,0.21589
3469.31512,0.21563
3471.24359,0.21486
3473.17206,0.21348
3475.10052,0.21099
3477.02899,0.21005
3478.95746,0.21041
3480.88593,0.20865
3482.81440,0.20513
3484.74287,0.20383
3486.67134,0.20620
3488.59980,0.20638
3490.52827,0.20616
3492.45674,0.21093
3494.38521,0.21341
3496.31368,0.21025
3498.24215,0.20773
3500.17062,0.20779
3502.09909,0.20733
3504.02755,0.20255
3505.95602,0.19706
3507.88449,0.19937
3509.81296,0.20703
3511.74143,0.20935
3513.66990,0.20487
3515.59837,0.19916
3517.52683,0.19455
3519.45530,0.19425
3521.38377,0.20074
3523.31224,0.20543
3525.24071,0.20183
3527.16918,0.19653
3529.09765,0.19373
3531.02611,0.18945
3532.95458,0.18222
3534.88305,0.17817
3536.81152,0.18048
3538.73999,0.18419
3540.66846,0.18659
3542.59693,0.18913
3544.52540,0.19151
3546.45386,0.19228
3548.38233,0.19018
3550.31080,0.18792
3552.23927,0.18607
3554.16774,0.18083
3556.09621,0.17672
3558.02468,0.17683
3559.95314,0.17645
3561.88161,0.17565
3563.81008,0.17991
3565.73855,0.18744
3567.66702,0.18647
3569.59549,0.17923
3571.52396,0.17566
3573.45243,0.17430
3575.38089,0.17431
3577.30936,0.17780
3579.23783,0.18201
3581.16630,0.18049
3583.09477,0.17299
3585.02324,0.16733
3586.95171,0.17086
3588.88017,0.17356
3590.80864,0.16849
3592.73711,0.16812
3594.66558,0.17567
3596.59405,0.17833
3598.52252,0.17028
3600.45099,0.16204
3602.37946,0.16145
3604.30792,0.16617
3606.23639,0.17213
3608.16486,0.17426
3610.09333,0.17188
3612.02180,0.17132
3613.95027,0.16786
3615.87874,0.15819
3617.80720,0.15169
3619.73567,0.15079
3621.66414,0.15022
3623.59261,0.14857
3625.52108,0.14931
3627.44955,0.15398
3629.37802,0.15351
3631.30649,0.14830
3633.23495,0.14702
3635.16342,0.14691
3637.09189,0.14690
3639.02036,0.15021
3640.94883,0.15510
3642.87730,0.15398
3644.80577,0.15006
3646.73423,0.15082
3648.66270,0.15256
3650.59117,0.15313
3652.51964,0.15634
3654.44811,0.15686
3656.37658,0.15426
3658.30505,0.15352
3660.23352,0.15221
3662.16198,0.14813
3664.09045,0.14572
3666.01892,0.14558
3667.94739,0.14536
3669.87586,0.14610
3671.80433,0.15224
3673.73280,0.16246
3675.66126,0.16817
3677.58973,0.16329
3679.51820,0.15696
3681.44667,0.15187
3683.37514,0.14986
3685.30361,0.15270
3687.23208,0.15666
3689.16055,0.15406
3691.08901,0.14848
3693.01748,0.14631
3694.94595,0.14321
3696.87442,0.13957
3698.80289,0.13964
3700.73136,0.14427
3702.65983,0.14701
3704.58829,0.14390
3706.51676,0.14275
3708.44523,0.14834
3710.37370,0.15321
3712.30217,0.14651
3714.23064,0.13934
3716.15911,0.13995
3718.08757,0.14244
3720.01604,0.14229
3721.94451,0.14174
3723.87298,0.14093
3725.80145,0.13820
3727.72992,0.13683
3729.65839,0.13778
3731.58686,0.13581
3733.51532,0.12796
3735.44379,0.12919
3737.37226,0.14211
3739.30073,0.14637
3741.22920,0.14292
3743.15767,0.13975
3745.08614,0.14041
3747.01460,0.14371
3748.94307,0.14966
3750.87154,0.15706
3752.80001,0.15869
3754.72848,0.15669
3756.65695,0.15634
3758.58542,0.15805
3760.51389,0.15663
3762.44235,0.15228
3764.37082,0.14823
3766.29929,0.14582
3768.22776,0.14804
3770.15623,0.14782
3772.08470,0.13817
3774.01317,0.13088
3775.94163,0.13243
3777.87010,0.13766
3779.79857,0.14039
3781.72704,0.14074
3783.65551,0.14077
3785.58398,0.13945
3787.51245,0.13809
3789.44092,0.13898
3791.36938,0.14107
3793.29785,0.14168
3795.22632,0.14043
3797.15479,0.14148
3799.08326,0.14644
3801.01173,0.15204
3802.94020,0.15392
3804.86866,0.15287
3806.79713,0.14868
3808.72560,0.13904
3810.65407,0.13198
3812.58254,0.13313
3814.51101,0.14030
3816.43948,0.14470
3818.36795,0.14293
3820.29641,0.14232
3822.22488,0.14284
3824.15335,0.14404
3826.08182,0.14734
3828.01029,0.14632
3829.93876,0.13865
3831.86723,0.13351
3833.79569,0.13748
3835.72416,0.14591
3837.65263,0.15046
3839.58110,0.14682
3841.50957,0.14052
3843.43804,0.13523
3845.36651,0.13228
3847.29498,0.13330
3849.22344,0.13664
3851.15191,0.13741
3853.08038,0.13187
3855.00885,0.13147
3856.93732,0.13691
3858.86579,0.14017
3860.79426,0.14054
3862.72272,0.13767
3864.65119,0.13595
3866.57966,0.14135
3868.50813,0.14853
3870.43660,0.14630
3872.36507,0.13804
3874.29354,0.13492
3876.22200,0.13372
3878.15047,0.13142
3880.07894,0.13041
3882.00741,0.13489
3883.93588,0.14114
3885.86435,0.14156
3887.79282,0.13844
3889.72129,0.13806
3891.64975,0.13611
3893.57822,0.12913
3895.50669,0.12499
3897.43516,0.12783
3899.36363,0.13468
3901.29210,0.13763
3903.22057,0.13892
3905.14903,0.13893
3907.07750,0.12935
3909.00597,0.11954
3910.93444,0.11896
3912.86291,0.12400
3914.79138,0.12853
3916.71985,0.13107
3918.64832,0.13298
3920.57678,0.13531
3922.50525,0.13571
3924.43372,0.13267
3926.36219,0.12940
3928.29066,0.12896
3930.21913,0.12898
3932.14760,0.12587
3934.07606,0.12478
3936.00453,0.12802
3937.93300,0.12907
3939.86147,0.12662
3941.78994,0.12460
3943.71841,0.12548
3945.64688,0.12837
3947.57535,0.13077
3949.50381,0.13013
3951.43228,0.12872
3953.36075,0.12854
3955.28922,0.12726
3957.21769,0.12601
3959.14616,0.12393
3961.07463,0.12085
3963.00309,0.12037
3964.93156,0.11945
3966.86003,0.11552
3968.78850,0.11457
3970.71697,0.11826
3972.64544,0.12078
3974.57391,0.12119
3976.50238,0.11970
3978.43084,0.11606
3980.35931,0.11361
3982.28778,0.11456
3984.21625,0.11807
3986.14472,0.12143
3988.07319,0.12202
3990.00166,0.11947
3991.93012,0.11622
3993.85859,0.11516
3995.78706,0.11600
3997.71553,0.11500
3999.64400,0.11241
4001.57247,0.11170
4003.50094,0.11253
4005.42941,0.11432
4007.35787,0.11455
4009.28634,0.10888
4011.21481,0.10353
4013.14328,0.10728
4015.07175,0.11406
4017.00022,0.11509
4018.92869,0.11204
4020.85715,0.10867
4022.78562,0.10610
4024.71409,0.10652
4026.64256,0.10956
4028.57103,0.10861
4030.49950,0.10659
4032.42797,0.10994
4034.35644,0.11022
4036.28490,0.10665
4038.21337,0.10983
4040.14184,0.11503
4042.07031,0.11430
4043.99878,0.11146
4045.92725,0.10964
4047.85572,0.10872
4049.78418,0.10673
4051.71265,0.10524
4053.64112,0.10751
4055.56959,0.10819
4057.49806,0.10751
4059.42653,0.10871
4061.35500,0.10851
4063.28346,0.10839
4065.21193,0.10995
4067.14040,0.11101
4069.06887,0.10919
4070.99734,0.10618
4072.92581,0.10611
4074.85428,0.10578
4076.78275,0.10404
4078.71121,0.10505
4080.63968,0.10668
4082.56815,0.10497
4084.49662,0.10004
4086.42509,0.09677
4088.35356,0.10120
4090.28203,0.11013
4092.21049,0.11421
4094.13896,0.11110
4096.06743,0.10629
4097.99590,0.10477
4099.92437,0.10782
4101.85284,0.11413
4103.78131,0.11713
4105.70978,0.11195
4107.63824,0.10341
4109.56671,0.09561
4111.49518,0.09047
4113.42365,0.08965
4115.35212,0.09007
4117.28059,0.09249
4119.20906,0.09871
4121.13752,0.10330
4123.06599,0.10240
4124.99446,0.09829
4126.92293,0.09597
4128.85140,0.09797
4130.77987,0.10059
4132.70834,0.10212
4134.63681,0.10388
4136.56527,0.10164
4138.49374,0.09385
4140.42221,0.08962
4142.35068,0.09500
4144.27915,0.10189
4146.20762,0.10190
4148.13609,0.10020
4150.06455,0.10225
4151.99302,0.10269
4153.92149,0.09755
4155.84996,0.09233
4157.77843,0.09155
4159.70690,0.09394
4161.63537,0.09787
4163.56384,0.09729
4165.49230,0.08971
4167.42077,0.08705
4169.34924,0.09353
4171.27771,0.09677
4173.20618,0.09159
4175.13465,0.08672
4177.06312,0.08934
4178.99158,0.09281
4180.92005,0.08953
4182.84852,0.08542
4184.77699,0.08793
4186.70546,0.09462
4188.63393,0.09763
4190.56240,0.09636
4192.49087,0.09474
4194.41933,0.09277
4196.34780,0.09381
4198.27627,0.09574
4200.20474,0.09026
4202.13321,0.08255
4204.06168,0.08060
4205.99015,0.08396
4207.91861,0.08862
4209.84708,0.08957
4211.77555,0.08833
4213.70402,0.08854
4215.63249,0.08859
4217.56096,0.08789
4219.48943,0.08716
4221.41789,0.08553
4223.34636,0.08589
4225.27483,0.08970
4227.20330,0.08897
4229.13177,0.08227
4231.06024,0.07939
4232.98871,0.08148
4234.91718,0.08218
4236.84564,0.08097
4238.77411,0.07790
4240.70258,0.07348
4242.63105,0.07074
4244.55952,0.06828
4246.48799,0.06769
4248.41646,0.07221
4250.34492,0.07733
4252.27339,0.07788
4254.20186,0.07446
4256.13033,0.07047
4258.05880,0.06849
4259.98727,0.07253
4261.91574,0.07937
4263.84421,0.07727
4265.77267,0.06675
4267.70114,0.05963
4269.62961,0.06012
4271.55808,0.06345
4273.48655,0.06740
4275.41502,0.07206
4277.34349,0.07554
4279.27195,0.07689
4281.20042,0.07900
4283.12889,0.08098
4285.05736,0.07703
4286.98583,0.06971
4288.91430,0.06448
4290.84277,0.06085
4292.77124,0.05947
4294.69970,0.06116
4296.62817,0.06274
4298.55664,0.06344
4300.48511,0.06433
4302.41358,0.06548
4304.34205,0.06878
4306.27052,0.06799
4308.19898,0.06058
4310.12745,0.06314
4312.05592,0.07518
4313.98439,0.07400
4315.91286,0.05843
4317.84133,0.04587
4319.76980,0.04314
4321.69827,0.04833
4323.62673,0.05602
4325.55520,0.05752
4327.48367,0.05364
4329.41214,0.05321
4331.34061,0.05534
4333.26908,0.05592
4335.19755,0.05835
4337.12601,0.06502
4339.05448,0.07124
4340.98295,0.06903
4342.91142,0.06258
4344.83989,0.06221
4346.76836,0.06487
4348.69683,0.06632
4350.62530,0.06717
4352.55376,0.06106
4354.48223,0.04732
4356.41070,0.04171
4358.33917,0.04693
4360.26764,0.05090
4362.19611,0.05377
4364.12458,0.05624
4366.05304,0.05263
4367.98151,0.04318
4369.90998,0.03499
4371.83845,0.03387
4373.76692,0.03531
4375.69539,0.03541
4377.62386,0.03975
4379.55232,0.04474
4381.48079,0.04123
4383.40926,0.03626
4385.33773,0.03764
4387.26620,0.04364
4389.19467,0.05317
4391.12314,0.05948
4393.05161,0.05577
4394.98007,0.04946
4396.90854,0.04739
4398.83701,0.04751
4400.76548,0.05004
4402.69395,0.05377
4404.62242,0.05571
4406.55089,0.05257
4408.47935,0.04334
4410.40782,0.03855
4412.33629,0.04132
4414.26476,0.04270
4416.19323,0.04174
4418.12170,0.03893
4420.05017,0.03469
4421.97864,0.03244
4423.90710,0.03070
4425.83557,0.02747
4427.76404,0.02699
4429.69251,0.03264
4431.62098,0.03802
4433.54945,0.03904
4435.47792,0.03668
4437.40638,0.03249
4439.33485,0.03432
4441.26332,0.03847
4443.19179,0.03730
4445.12026,0.03895
4447.04873,0.04260
4448.97720,0.03480
4450.90567,0.01757
4452.83413,0.01247
4454.76260,0.02791
4456.69107,0.04275
4458.61954,0.03930
4460.54801,0.02948
4462.47648,0.03135
4464.40495,0.03721
4466.33341,0.03424
4468.26188,0.02755
4470.19035,0.02448
4472.11882,0.02759
4474.04729,0.03688
4475.97576,0.05023
4477.90423,0.05911
4479.83270,0.05302
4481.76116,0.04264
4483.68963,0.04313
4485.61810,0.05012
4487.54657,0.05088
4489.47504,0.03949
4491.40351,0.02609
4493.33198,0.02222
4495.26044,0.02840
4497.18891,0.03608
4499.11738,0.03275
4501.04585,0.02302
4502.97432,0.02180
4504.90279,0.02666
4506.83126,0.02643
4508.75973,0.02151
4510.68819,0.01568
4512.61666,0.01234
4514.54513,0.01585
4516.47360,0.02276
4518.40207,0.02706
4520.33054,0.02590
4522.25901,0.02159
4524.18747,0.01974
4526.11594,0.02064
4528.04441,0.02051
4529.97288,0.02137
4531.90135,0.02173
4533.82982,0.01195
4535.75829,0.00013
4537.68676,0.00111
4539.61522,0.00969
4541.54369,0.01488
4543.47216,0.01295
4545.40063,0.01067
4547.32910,0.01682
4549.25757,0.02586
4551.18604,0.02877
4553.11450,0.02797
4555.04297,0.02995
4556.97144,0.03031
4558.89991,0.01966
4560.82838,0.00535
4562.75685,0.00348
4564.68532,0.01050
4566.61378,0.01375
4568.54225,0.01579
4570.47072,0.01911
4572.39919,0.01687
4574.32766,0.00997
4576.25613,0.00837
4578.18460,0.01508
4580.11307,0.02177
4582.04153,0.02122
4583.97000,0.01921
4585.89847,0.02112
4587.82694,0.02149
4589.75541,0.02100
4591.68388,0.02295
4593.61235,0.02443
4595.54081,0.02234
4597.46928,0.01501
4599.39775,0.00988
4601.32622,0.01084
4603.25469,0.01107
4605.18316,0.01232
4607.11163,0.02063
4609.04010,0.03137
4610.96856,0.03592
4612.89703,0.03308
4614.82550,0.02675
4616.75397,0.01809
4618.68244,0.00966
4620.61091,0.00537
4622.53938,0.00229
4624.46784,0.00282
4626.39631,0.01032
4628.32478,0.01474
4630.25325,0.01518
4632.18172,0.01785
4634.11019,0.01689
4636.03866,0.01136
4637.96713,0.01024
4639.89559,0.01390
4641.82406,0.01570
4643.75253,0.01337
4645.68100,0.00837
4647.60947,0.00460
4649.53794,0.00769
4651.46641,0.01331
4653.39487,0.01325
4655.32334,0.01299
4657.25181,0.01514
4659.18028,0.01449
4661.10875,0.01257
4663.03722,0.01373
4664.96569,0.02002
4666.89416,0.02660
4668.82262,0.02328
4670.75109,0.01457
4672.67956,0.01778
4674.60803,0.02784
4676.53650,0.02545
4678.46497,0.00800
4680.39344,-0.01287
4682.32190,-0.02282
4684.25037,-0.01750
4686.17884,-0.00707
4688.10731,-0.00552
4690.03578,-0.00836
4691.96425,-0.00278
4693.89272,0.00731
4695.82119,0.01600
4697.74965,0.02073
4699.67812,0.02070
4701.60659,0.01930
4703.53506,0.02012
4705.46353,0.02222
4707.39200,0.01644
4709.32047,0.00565
4711.24893,0.00492
4713.17740,0.01288
4715.10587,0.01819
4717.03434,0.01797
4718.96281,0.02045
4720.89128,0.03075
4722.81975,0.03441
4724.74821,0.02403
4726.67668,0.00917
4728.60515,0.00086
4730.53362,0.00577
4732.46209,0.01013
4734.39056,0.00412
4736.31903,0.00171
4738.24750,0.00261
4740.17596,-0.00198
4742.10443,0.00125
4744.03290,0.01245
4745.96137,0.01330
4747.88984,0.01061
4749.81831,0.01197
4751.74678,0.00655
4753.67524,-0.00059
4755.60371,0.00092
4757.53218,0.00400
4759.46065,0.00332
4761.38912,0.00281
4763.31759,0.00435
4765.24606,0.00220
4767.17453,-0.00707
4769.10299,-0.01413
4771.03146,-0.01387
4772.95993,-0.00591
4774.88840,0.00532
4776.81687,0.00613
4778.74534,-0.00222
4780.67381,-0.00370
4782.60227,0.00729
4784.53074,0.01508
4786.45921,0.01195
4788.38768,0.01496
4790.31615,0.02267
4792.24462,0.01771
4794.17309,0.00592
4796.10156,0.00081
4798.03002,0.00604
4799.95849,0.01686
4801.88696,0.02186
4803.81543,0.01889
4805.74390,0.01221
4807.67237,0.00295
4809.60084,-0.00391
4811.52930,-0.00549
4813.45777,-0.00700
4815.38624,-0.00527
4817.31471,0.00751
4819.24318,0.01639
4821.17165,0.01113
4823.10012,0.00424
4825.02859,-0.00107
4826.95705,-0.00599
4828.88552,-0.00235
4830.81399,0.00868
4832.74246,0.01243
4834.67093,0.01012
4836.59940,0.01718
4838.52787,0.02822
4840.45633,0.03083
4842.38480,0.02284
4844.31327,0.00736
4846.24174,-0.00347
4848.17021,-0.00597
4850.09868,-0.00544
4852.02715,-0.00177
4853.95562,0.00363
4855.88408,0.00749
4857.81255,0.00529
4859.74102,0.00183
4861.66949,0.00231
4863.59796,0.00288
4865.52643,0.00663
4867.45490,0.00975
4869.38336,0.00782
4871.31183,0.00790
4873.24030,0.00887
4875.16877,0.00340
4877.09724,-0.00914
4879.02571,-0.01501
4880.95418,-0.00939
4882.88265,-0.01109
4884.81111,-0.01697
4886.73958,-0.01250
4888.66805,-0.00868
4890.59652,-0.00415
4892.52499,0.01121
4894.45346,0.02922
4896.38193,0.04493
4898.31039,0.04850
4900.23886,0.03198
4902.16733,0.01687
4904.09580,0.02043
4906.02427,0.02937
4907.95274,0.03394
4909.88121,0.02659
4911.80967,0.00013
4913.73814,-0.01300
4915.66661,0.00305
4917.59508,0.01230
4919.52355,0.00340
4921.45202,-0.00139
4923.38049,0.00478
4925.30896,0.01465
4927.23742,0.02259
4929.16589,0.02470
4931.09436,0.02557
4933.02283,0.03187
4934.95130,0.03585
4936.87977,0.03080
4938.80824,0.02577
4940.73670,0.02557
4942.66517,0.01761
4944.59364,0.00490
4946.52211,0.00944
4948.45058,0.02407
4950.37905,0.02236
4952.30752,0.00341
4954.23599,-0.00876
4956.16445,-0.00093
4958.09292,0.01540
4960.02139,0.03027
4961.94986,0.03956
4963.87833,0.03859
4965.80680,0.03418
4967.73527,0.03279
4969.66373,0.03099
4971.59220,0.02506
4973.52067,0.01153
4975.44914,-0.00648
4977.37761,-0.01807
4979.30608,-0.01859
4981.23455,-0.01257
4983.16302,-0.00230
4985.09148,0.00390
4987.01995,-0.00380
4988.94842,-0.01292
4990.87689,-0.01291
4992.80536,-0.00797
4994.73383,-0.00333
4996.66230,-0.00131
4998.59076,-0.00024
5000.51923,-0.00237
5002.44770,-0.00038
5004.37617,0.00629
5006.30464,0.00726
5008.23311,0.01167
5010.16158,0.01764
5012.09005,0.01085
5014.01851,0.00909
5015.94698,0.02309
5017.87545,0.02440
5019.80392,0.01377
5021.73239,0.01654
5023.66086,0.02709
5025.58933,0.03420
5027.51779,0.03244
5029.44626,0.01998
5031.37473,0.00863
5033.30320,0.00651
5035.23167,0.00597
5037.16014,0.00673
5039.08861,0.01585
5041.01708,0.01755
5042.94554,0.00492
5044.87401,0.00402
5046.80248,0.02155
5048.73095,0.02848
5050.65942,0.01384
5052.58789,-0.00331
5054.51636,-0.01154
5056.44482,-0.00757
5058.37329,0.00799
5060.30176,0.01895
5062.23023,0.01511
5064.15870,0.01521
5066.08717,0.03011
5068.01564,0.04087
5069.94410,0.04250
5071.87257,0.04162
5073.80104,0.03340
5075.72951,0.02419
5077.65798,0.02467
5079.58645,0.02674
5081.51492,0.02228
5083.44339,0.02067
5085.37185,0.02344
5087.30032,0.02141
5089.22879,0.01421
5091.15726,0.00558
5093.08573,0.00017
5095.01420,-0.00157
5096.94267,-0.00116
5098.87113,0.00459
5100.79960,0.01502
5102.72807,0.02294
5104.65654,0.02156
5106.58501,0.01369
5108.51348,0.01764
5110.44195,0.04027
5112.37042,0.05326
5114.29888,0.04787
5116.22735,0.04729
5118.15582,0.05193
5120.08429,0.05161
5122.01276,0.05001
5123.94123,0.05454
5125.86970,0.05924
5127.79816,0.05757
5129.72663,0.05397
5131.65510,0.04453
5133.58357,0.03552
5135.51204,0.04087
5137.44051,0.04292
5139.36898,0.03736
5141.29745,0.04671
5143.22591,0.05858
5145.15438,0.05743
5147.08285,0.04750
5149.01132,0.03342
5150.93979,0.02611
5152.86826,0.02308
5154.79673,0.02330
5156.72519,0.03472
5158.65366,0.04609
5160.58213,0.04212
5162.51060,0.02946
5164.43907,0.03002
5166.36754,0.04121
5168.29601,0.03811
5170.22448,0.03261
5172.15294,0.04562
5174.08141,0.05413
5176.00988,0.05741
5177.93835,0.06777
5179.86682,0.06203
5181.79529,0.04222
5183.72376,0.02892
5185.65222,0.02258
5187.58069,0.02930
5189.50916,0.04764
5191.43763,0.06004
5193.36610,0.06372
5195.29457,0.06258
5197.22304,0.04931
5199.15151,0.03019
5201.07997,0.02540
5203.00844,0.03732
5204.93691,0.05258
5206.86538,0.06410
5208.79385,0.07386
5210.72232,0.07333
5212.65079,0.05709
5214.57925,0.03992
5216.50772,0.03505
5218.43619,0.03893
5220.36466,0.04204
5222.29313,0.04257
5224.22160,0.04349
5226.15007,0.03884
5228.07854,0.02511
5230.00700,0.02122
5231.93547,0.04096
5233.86394,0.05793
5235.79241,0.04978
5237.72088,0.03611
5239.64935,0.03441
5241.57782,0.04780
5243.50628,0.06865
5245.43475,0.07085
5247.36322,0.05507
5249.29169,0.04999
5251.22016,0.05251
5253.14863,0.04807
5255.07710,0.04595
5257.00556,0.05014
5258.93403,0.04869
5260.86250,0.04146
5262.79097,0.05212
5264.71944,0.08202
5266.64791,0.09759
5268.57638,0.10154
5270.50485,0.10552
5272.43331,0.09616
5274.36178,0.07654
5276.29025,0.05985
5278.21872,0.05177
5280.14719,0.05517
5282.07566,0.05348
5284.00413,0.04111
5285.93259,0.03751
5287.86106,0.04320
5289.78953,0.05014
5291.71800,0.05154
5293.64647,0.04563
5295.57494,0.04286
5297.50341,0.04644
5299.43188,0.05311
5301.36034,0.05892
5303.28881,0.06410
5305.21728,0.07307
5307.14575,0.07936
5309.07422,0.07768
5311.00269,0.08551
5312.93116,0.09333
5314.85962,0.07372
5316.78809,0.04545
5318.71656,0.02917
5320.64503,0.02271
5322.57350,0.03188
5324.50197,0.05095
5326.43044,0.06461
5328.35891,0.06825
5330.28737,0.07232
5332.21584,0.08309
5334.14431,0.08030
5336.07278,0.05227
5338.00125,0.03341
5339.92972,0.05638
5341.85819,0.09218
5343.78665,0.10219
5345.71512,0.07622
5347.64359,0.05079
5349.57206,0.05299
5351.50053,0.06629
5353.42900,0.06655
5355.35747,0.05395
5357.28594,0.04185
5359.21440,0.04571
5361.14287,0.06993
5363.07134,0.08585
5364.99981,0.07985
5366.92828,0.08106
5368.85675,0.09015
5370.78522,0.07676
5372.71368,0.05159
5374.64215,0.05686
5376.57062,0.09139
5378.49909,0.10828
5380.42756,0.09561
5382.35603,0.07216
5384.28450,0.05234
5386.21297,0.04881
5388.14143,0.06296
5390.06990,0.06738
5391.99837,0.05500
5393.92684,0.05625
5395.85531,0.07478
5397.78378,0.07930
5399.71225,0.07084
5401.64071,0.06704
5403.56918,0.07213
5405.49765,0.07676
5407.42612,0.05747
5409.35459,0.03379
5411.28306,0.05581
5413.21153,0.10290
5415.13999,0.12276
5417.06846,0.10871
5418.99693,0.08317
5420.92540,0.07257
5422.85387,0.07819
5424.78234,0.08106
5426.71081,0.07254
5428.63928,0.06457
5430.56774,0.05537
5432.49621,0.04021
5434.42468,0.03965
5436.35315,0.05043
5438.28162,0.04985
5440.21009,0.04391
5442.13856,0.04714
5444.06702,0.05911
5445.99549,0.07734
5447.92396,0.09480
5449.85243,0.10027
5451.78090,0.09186
5453.70937,0.07282
5455.63784,0.06146
5457.56631,0.07647
5459.49477,0.08767
5461.42324,0.06686
5463.35171,0.04028
5465.28018,0.03938
5467.20865,0.06396
5469.13712,0.08958
5471.06559,0.09253
5472.99405,0.07820
5474.92252,0.06806
5476.85099,0.06685
5478.77946,0.05926
5480.70793,0.05536
5482.63640,0.06716
5484.56487,0.07878
5486.49334,0.07959
5488.42180,0.07504
5490.35027,0.06887
5492.27874,0.06189
5494.20721,0.06152
5496.13568,0.07163
5498.06415,0.07619
5499.99262,0.07143
5501.92108,0.08386
5503.84955,0.11018
5505.77802,0.12231
5507.70649,0.12123
5509.63496,0.12247
5511.56343,0.12238
5513.49190,0.11441
5515.42037,0.10403
5517.34883,0.09488
5519.27730,0.08854
5521.20577,0.08368
5523.13424,0.08631
5525.06271,0.10185
5526.99118,0.11441
5528.91965,0.11078
5530.84811,0.09842
5532.77658,0.08826
5534.70505,0.08086
5536.63352,0.07103
5538.56199,0.05138
5540.49046,0.04949
5542.41893,0.08338
5544.34740,0.10377
5546.27586,0.10420
5548.20433,0.12396
5550.13280,0.14198
5552.06127,0.12597
5553.98974,0.10130
5555.91821,0.09758
5557.84668,0.09760
5559.77514,0.08007
5561.70361,0.06631
5563.63208,0.08593
5565.56055,0.10875
5567.48902,0.10678
5569.41749,0.10541
5571.34596,0.10087
5573.27443,0.08168
5575.20289,0.07676
5577.13136,0.08887
5579.05983,0.08656
5580.98830,0.05650
5582.91677,0.01998
5584.84524,0.00434
5586.77371,0.01529
5588.70217,0.04346
5590.63064,0.06449
5592.55911,0.07683
5594.48758,0.09627
5596.41605,0.10602
5598.34452,0.09973
5600.27299,0.09536
5602.20145,0.08417
5604.12992,0.06270
5606.05839,0.05907
5607.98686,0.07224
5609.91533,0.07736
5611.84380,0.08747
5613.77227,0.10848
5615.70074,0.10722
5617.62920,0.09003
5619.55767,0.08840
5621.48614,0.10305
5623.41461,0.12646
5625.34308,0.13394
5627.27155,0.11172
5629.20002,0.09690
5631.12848,0.10475
5633.05695,0.11172
5634.98542,0.10590
5636.91389,0.09465
5638.84236,0.07827
5640.77083,0.05999
5642.69930,0.05458
5644.62777,0.06766
5646.55623,0.08332
5648.48470,0.08209
5650.41317,0.08015
5652.34164,0.08384
5654.27011,0.08009
5656.19858,0.07844
5658.12705,0.08501
5660.05551,0.09009
5661.98398,0.07781
5663.91245,0.05674
5665.84092,0.06466
5667.76939,0.09934
5669.69786,0.11703
5671.62633,0.11761
5673.55480,0.12195
5675.48326,0.10537
5677.41173,0.05424
5679.34020,0.00461
5681.26867,0.00368
5683.19714,0.05088
5685.12561,0.09176
5687.05408,0.09859
5688.98254,0.08824
5690.91101,0.07541
5692.83948,0.07248
5694.76795,0.09457
5696.69642,0.10775
5698.62489,0.08726
5700.55336,0.08884
5702.48183,0.12756
5704.41029,0.14850
5706.33876,0.12234
5708.26723,0.07563
5710.19570,0.06624
5712.12417,0.10172
5714.05264,0.12181
5715.98111,0.11401
5717.90957,0.11013
5719.83804,0.09740
5721.76651,0.07377
5723.69498,0.07086
5725.62345,0.08793
5727.55192,0.08775
5729.48039,0.05776
5731.40886,0.03981
5733.33732,0.06087
5735.26579,0.10388
5737.19426,0.13125
5739.12273,0.11276
5741.05120,0.06941
5742.97967,0.05573
5744.90814,0.07281
5746.83660,0.08576
5748.76507,0.08342
5750.69354,0.06210
5752.62201,0.02271
5754.55048,-0.00287
5756.47895,0.01543
5758.40742,0.05504
5760.33588,0.07474
5762.26435,0.07970
5764.19282,0.09873
5766.12129,0.12337
5768.04976,0.13060
5769.97823,0.11640
5771.90670,0.08767
5773.83517,0.05608
5775.76363,0.03186
5777.69210,0.02516
5779.62057,0.04458
5781.54904,0.07949
5783.47751,0.09475
5785.40598,0.08619
5787.33445,0.08870
5789.26291,0.09740
5791.19138,0.08792
5793.11985,0.07483
5795.04832,0.08915
5796.97679,0.12935
5798.90526,0.14359
5800.83373,0.09895
5802.76220,0.04552
5804.69066,0.04053
5806.61913,0.05198
5808.54760,0.05928
5810.47607,0.08562
5812.40454,0.11038
5814.33301,0.10012
5816.26148,0.07260
5818.18994,0.08491
5820.11841,0.12009
5822.04688,0.10133
5823.97535,0.05920
5825.90382,0.05352
5827.83229,0.07142
5829.76076,0.09392
5831.68923,0.12053
5833.61769,0.13571
5835.54616,0.13860
5837.47463,0.14850
5839.40310,0.14924
5841.33157,0.14203
5843.26004,0.13821
5845.18851,0.11338
5847.11697,0.09618
5849.04544,0.12165
5850.97391,0.13255
5852.90238,0.11341
5854.83085,0.12055
5856.75932,0.14288
5858.68779,0.13200
5860.61626,0.10346
5862.54472,0.10022
5864.47319,0.12234
5866.40166,0.14471
5868.33013,0.15276
5870.25860,0.14417
5872.18707,0.12753
5874.11554,0.10149
5876.04400,0.07340
5877.97247,0.08712
5879.90094,0.14015
5881.82941,0.14924
5883.75788,0.09641
5885.68635,0.05919
5887.61482,0.05150
5889.54329,0.04078
5891.47175,0.04245
5893.40022,0.06623
5895.32869,0.10160
5897.25716,0.13423
5899.18563,0.15147
5901.11410,0.14786
5903.04257,0.12098
5904.97103,0.12220
5906.89950,0.18149
5908.82797,0.21369
5910.75644,0.17977
5912.68491,0.13794
5914.61338,0.10496
5916.54185,0.08081
5918.47032,0.07534
5920.39878,0.09680
5922.32725,0.11047
5924.25572,0.07570
5926.18419,0.04410
5928.11266,0.04991
5930.04113,0.06200
5931.96960,0.07717
5933.89806,0.09980
5935.82653,0.11508
5937.75500,0.11844
5939.68347,0.11748
5941.61194,0.10903
5943.54041,0.09362
5945.46888,0.10182
5947.39734,0.12839
5949.32581,0.11779
5951.25428,0.10189
5953.18275,0.12732
5955.11122,0.12866
5957.03969,0.09249
5958.96816,0.07811
5960.89663,0.10079
5962.82509,0.12110
5964.75356,0.10991
5966.68203,0.08401
5968.61050,0.07578
5970.53897,0.09111
5972.46744,0.10450
5974.39591,0.08334
5976.32437,0.03907
5978.25284,0.02089
5980.18131,0.03121
5982.10978,0.03161
5984.03825,0.01890
5985.96672,0.01385
5987.89519,0.01753
5989.82366,0.03751
5991.75212,0.07095
5993.68059,0.06787
5995.60906,0.04100
5997.53753,0.06938
5999.46600,0.10656
6001.39447,0.07913
6003.32294,0.04248
6005.25140,0.05098
6007.17987,0.06541
6009.10834,0.06886
6011.03681,0.07356
6012.96528,0.09386
6014.89375,0.13424
6016.82222,0.13443
6018.75069,0.07907
6020.67915,0.07407
6022.60762,0.13697
6024.53609,0.17408
6026.46456,0.15908
6028.39303,0.13943
6030.32150,0.13207
6032.24997,0.11838
6034.17843,0.12111
6036.10690,0.15121
6038.03537,0.16102
6039.96384,0.14595
6041.89231,0.14065
6043.82078,0.13719
6045.74925,0.09898
6047.67772,0.02662
6049.60618,-0.00011
6051.53465,0.06451
6053.46312,0.13276
6055.39159,0.14288
6057.32006,0.12658
6059.24853,0.10823
6061.17700,0.09528
6063.10546,0.11276
6065.03393,0.14650
6066.96240,0.16054
6068.89087,0.17033
6070.81934,0.18121
6072.74781,0.15496
6074.67628,0.10318
6076.60475,0.07803
6078.53321,0.07109
6080.46168,0.04369
6082.39015,0.01034
6084.31862,0.01356
6086.24709,0.03203
6088.17556,0.02349
6090.10403,0.03510
6092.03249,0.09498
6093.96096,0.13898
6095.88943,0.11934
6097.81790,0.07614
6099.74637,0.07468
6101.67484,0.10060
6103.60331,0.10094
6105.53177,0.09110
6107.46024,0.10583
6109.38871,0.12771
6111.31718,0.12584
6113.24565,0.11318
6115.17412,0.12428
6117.10259,0.15858
6119.03106,0.17379
6120.95952,0.16736
6122.88799,0.16568
6124.81646,0.14236
6126.74493,0.06998
6128.67340,-0.02078
6130.60187,-0.05749
6132.53034,-0.02661
6134.45880,0.01594
6136.38727,0.04922
6138.31574,0.08428
6140.24421,0.10301
6142.17268,0.08953
6144.10115,0.09148
6146.02962,0.12338
6147.95809,0.13741
6149.88655,0.12588
6151.81502,0.10341
6153.74349,0.08236
6155.67196,0.07542
6157.60043,0.07619
6159.52890,0.06834
6161.45737,0.06644
6163.38583,0.09005
6165.31430,0.10734
6167.24277,0.11237
6169.17124,0.10664
6171.09971,0.07932
6173.02818,0.07375
6174.95665,0.10696
6176.88512,0.14006
6178.81358,0.14676
6180.74205,0.10938
6182.67052,0.04256
6184.59899,0.03154
6186.52746,0.09500
6188.45593,0.12259
6190.38440,0.07860
6192.31286,0.04955
6194.24133,0.06669
6196.16980,0.09711
6198.09827,0.12284
6200.02674,0.13381
6201.95521,0.11875
6203.88368,0.10469
6205.81215,0.11006
6207.74061,0.11268
6209.66908,0.10932
6211.59755,0.11236
6213.52602,0.10385
6215.45449,0.08591
6217.38296,0.09643
6219.31143,0.12271
6221.23989,0.14048
6223.16836,0.15956
6225.09683,0.16505
6227.02530,0.15889
6228.95377,0.17581
6230.88224,0.19285
6232.81071,0.17367
6234.73918,0.14996
6236.66764,0.14646
6238.59611,0.14115
6240.52458,0.12717
6242.45305,0.07960
6244.38152,-0.01760
6246.30999,-0.05760
6248.23846,-0.00755
6250.16692,0.01065
6252.09539,-0.01113
6254.02386,0.02467
6255.95233,0.10513
6257.88080,0.15082
6259.80927,0.14868
6261.73774,0.14195
6263.66621,0.14522
6265.59467,0.13912
6267.52314,0.13086
6269.45161,0.13082
6271.38008,0.11762
6273.30855,0.09744
6275.23702,0.07968
6277.16549,0.06243
6279.09395,0.06748
6281.02242,0.08466
6282.95089,0.09462
6284.87936,0.12328
6286.80783,0.17225
6288.73630,0.18530
6290.66477,0.14892
6292.59323,0.12299
6294.52170,0.11857
6296.45017,0.10172
6298.37864,0.08367
6300.30711,0.08740
6302.23558,0.09799
6304.16405,0.08914
6306.09252,0.06423
6308.02098,0.05517
6309.94945,0.09294
6311.87792,0.14108
6313.80639,0.11600
6315.73486,0.05904
6317.66333,0.09297
6319.59180,0.17190
6321.52026,0.16188
6323.44873,0.10440
6325.37720,0.10781
6327.30567,0.13475
6329.23414,0.11090
6331.16261,0.05563
6333.09108,0.01702
6335.01955,0.01873
6336.94801,0.05416
6338.87648,0.07342
6340.80495,0.07135
6342.73342,0.10019
6344.66189,0.15419
6346.59036,0.15104
6348.51883,0.07577
6350.44729,0.03895
6352.37576,0.09159
6354.30423,0.13256
6356.23270,0.09575
6358.16117,0.01892
6360.08964,-0.03041
6362.01811,-0.01685
6363.94658,0.02760
6365.87504,0.02831
6367.80351,-0.01121
6369.73198,-0.00532
6371.66045,0.03577
6373.58892,0.03299
6375.51739,0.02656
6377.44586,0.08650
6379.37432,0.16083
6381.30279,0.18619
6383.23126,0.18263
6385.15973,0.17276
6387.08820,0.14118
6389.01667,0.12039
6390.94514,0.12045
6392.87361,0.11334
6394.80207,0.11033
6396.73054,0.09528
6398.65901,0.04852
6400.58748,0.01160
6402.51595,0.03085
6404.44442,0.09223
6406.37289,0.13485
6408.30135,0.10871
6410.22982,0.06610
6412.15829,0.09347
6414.08676,0.15121
6416.01523,0.14497
6417.94370,0.06600
6419.87217,0.00494
6421.80064,-0.00189
6423.72910,-0.00188
6425.65757,0.02377
6427.58604,0.11524
6429.51451,0.20294
6431.44298,0.20301
6433.37145,0.16657
6435.29992,0.13487
6437.22838,0.06386
6439.15685,0.00912
6441.08532,0.05085
6443.01379,0.13545
6444.94226,0.15930
6446.87073,0.09899
6448.79920,0.00970
6450.72766,-0.05564
6452.65613,-0.07789
6454.58460,-0.05222
6456.51307,0.01691
6458.44154,0.09788
6460.37001,0.14005
6462.29848,0.10218
6464.22695,0.03418
6466.15541,0.02794
6468.08388,0.04713
6470.01235,0.04826
6471.94082,0.09524
6473.86929,0.15475
6475.79776,0.15912
6477.72623,0.13693
6479.65469,0.10508
6481.58316,0.05913
6483.51163,0.03070
6485.44010,0.03651
6487.36857,0.06433
6489.29704,0.09540
6491.22551,0.10168
6493.15398,0.06384
6495.08244,0.02092
6497.01091,0.01838
6498.93938,0.02770
6500.86785,0.01074
6502.79632,-0.01112
6504.72479,-0.00433
6506.65326,0.01937
6508.58172,0.02414
6510.51019,0.02090
6512.43866,0.03312
6514.36713,0.03915
6516.29560,0.04854
6518.22407,0.09285
6520.15254,0.14032
6522.08101,0.13605
6524.00947,0.09372
6525.93794,0.07986
6527.86641,0.10234
6529.79488,0.13203
6531.72335,0.16124
6533.65182,0.16863
6535.58029,0.13991
6537.50875,0.08574
6539.43722,0.01593
6541.36569,-0.02065
6543.29416,0.00496
6545.22263,0.02569
6547.15110,0.03828
6549.07957,0.09579
6551.00804,0.13799
6552.93650,0.13822
6554.86497,0.16119
6556.79344,0.16356
6558.72191,0.10680
6560.65038,0.05411
6562.57885,0.04627
6564.50732,0.04637
6566.43578,0.02873
6568.36425,0.00745
6570.29272,-0.01241
6572.22119,-0.01085
6574.14966,-0.00071
6576.07813,-0.00461
6578.00660,0.01863
6579.93507,0.06487
6581.86353,0.09801
6583.79200,0.13264
6585.72047,0.14744
6587.64894,0.14261
6589.57741,0.14288
6591.50588,0.11610
6593.43435,0.05972
6595.36281,0.02572
6597.29128,0.04418
6599.21975,0.10493
6601.14822,0.15240
6603.07669,0.13484
6605.00516,0.08669
6606.93363,0.05731
6608.86210,0.03231
6610.79056,-0.00715
6612.71903,-0.02335
6614.64750,-0.01478
6616.57597,0.00577
6618.50444,0.04005
6620.43291,0.07684
6622.36138,0.13310
6624.28984,0.17397
6626.21831,0.14436
6628.14678,0.06830
6630.07525,0.01746
6632.00372,0.05414
6633.93219,0.12072
6635.86066,0.11544
6637.78912,0.06116
6639.71759,0.03893
6641.64606,0.07494
6643.57453,0.14822
6645.50300,0.15844
6647.43147,0.08307
6649.35994,0.03952
6651.28841,0.03042
6653.21687,-0.00156
6655.14534,-0.02024
6657.07381,-0.00251
6659.00228,0.01928
6660.93075,0.01436
6662.85922,-0.05593
6664.78769,-0.12825
6666.71615,-0.08314
6668.64462,0.02437
6670.57309,0.06324
6672.50156,0.09294
6674.43003,0.17189
6676.35850,0.20252
6678.28697,0.16206
6680.21544,0.11786
6682.14390,0.06896
6684.07237,0.02564
6686.00084,0.04679
6687.92931,0.06720
6689.85778,0.03107
6691.78625,0.01259
6693.71472,0.04061
6695.64318,0.09949
6697.57165,0.13884
6699.50012,0.15838
6701.42859,0.19181
6703.35706,0.17748
6705.28553,0.14012
6707.21400,0.15540
6709.14247,0.12686
6711.07093,0.03226
6712.99940,0.00848
6714.92787,0.07009
6716.85634,0.09246
6718.78481,0.04775
6720.71328,0.03285
6722.64175,0.06847
6724.57021,0.08236
6726.49868,0.03886
6728.42715,0.01274
6730.35562,0.04945
6732.28409,0.03957
6734.21256,0.02462
6736.14103,0.11720
6738.06950,0.19592
6739.99796,0.17469
6741.92643,0.10302
6743.85490,0.04412
6745.78337,0.02196
6747.71184,0.04202
6749.64031,0.10720
6751.56878,0.15260
6753.49724,0.13259
6755.42571,0.11892
6757.35418,0.11453
6759.28265,0.03773
6761.21112,-0.02273
6763.13959,0.04195
6765.06806,0.11039
6766.99653,0.09461
6768.92499,0.01368
6770.85346,-0.08450
6772.78193,-0.09859
6774.71040,-0.00102
6776.63887,0.12800
6778.56734,0.21520
6780.49581,0.20445
6782.42427,0.08696
6784.35274,-0.03669
6786.28121,-0.09142
6788.20968,-0.08751
6790.13815,-0.03241
6792.06662,0.05324
6793.99509,0.06380
6795.92355,0.01889
6797.85202,0.06749
6799.78049,0.17851
6801.70896,0.20265
6803.63743,0.12360
6805.56590,0.03718
6807.49437,0.03951
6809.42284,0.09506
6811.35130,0.10039
6813.27977,0.08720
6815.20824,0.08447
6817.13671,0.07167
6819.06518,0.09225
6820.99365,0.14332
6822.92212,0.16239
6824.85058,0.10128
6826.77905,0.03120
6828.70752,0.00738
6830.63599,-0.01752
6832.56446,-0.07876
6834.49293,-0.14793
6836.42140,-0.18025
6838.34987,-0.14936
6840.27833,-0.06935
6842.20680,-0.00861
6844.13527,0.00826
6846.06374,0.05506
6847.99221,0.12584
6849.92068,0.15238
6851.84915,0.15027
6853.77761,0.13850
6855.70608,0.12119
6857.63455,0.13056
6859.56302,0.19351
6861.49149,0.21615
6863.41996,0.09326
6865.34843,-0.00546
6867.27690,0.02499
6869.20536,0.03243
6871.13383,-0.01578
6873.06230,-0.02824
6874.99077,-0.00205
6876.91924,0.03384
6878.84771,0.09545
6880.77618,0.13760
6882.70464,0.10614
6884.63311,0.06383
6886.56158,0.06353
6888.49005,0.05909
6890.41852,0.02266
6892.34699,0.04481
6894.27546,0.11075
6896.20393,0.10580
6898.13239,0.05471
6900.06086,0.03020
6901.98933,0.04116
6903.91780,0.07378
6905.84627,0.02782
6907.77474,-0.09805
6909.70321,-0.12095
6911.63167,-0.03227
6913.56014,0.02524
6915.48861,0.02304
6917.41708,-0.00666
6919.34555,-0.02927
6921.27402,0.00502
6923.20249,0.07448
6925.13096,0.12639
6927.05942,0.16682
6928.98789,0.21363
6930.91636,0.21079
6932.84483,0.15110
6934.77330,0.08147
6936.70177,0.03597
6938.63024,0.05096
6940.55870,0.07774
6942.48717,0.10240
6944.41564,0.13286
6946.34411,0.10393
6948.27258,0.07635
6950.20105,0.14458
6952.12952,0.20185
6954.05799,0.17670
6955.98645,0.19232
6957.91492,0.26833
6959.84339,0.26632
6961.77186,0.15323
6963.70033,0.04987
6965.62880,0.02909
6967.55727,0.03281
6969.48573,0.05677
6971.41420,0.12652
6973.34267,0.07536
6975.27114,-0.09278
6977.19961,-0.07528
6979.12808,0.08517
6981.05655,0.19554
6982.98501,0.19337
6984.91348,0.10015
6986.84195,0.04729
6988.77042,0.04086
6990.69889,-0.00398
6992.62736,-0.06534
6994.55583,-0.12113
6996.48430,-0.11540
6998.41276,-0.00677
7000.34123,0.05325
7002.26970,-0.00668
7004.19817,-0.04101
7006.12664,0.02535
7008.05511,0.12891
7009.98358,0.16068
7011.91204,0.12018
7013.84051,0.07342
7015.76898,0.00938
7017.69745,-0.03532
7019.62592,0.02164
7021.55439,0.11901
7023.48286,0.15531
7025.41133,0.10970
7027.33979,0.10436
7029.26826,0.17176
7031.19673,0.16127
7033.12520,0.09252
7035.05367,0.04930
7036.98214,0.05059
7038.91061,0.03063
7040.83907,-0.04717
7042.76754,-0.02555
7044.69601,0.17197
7046.62448,0.30287
7048.55295,0.25501
7050.48142,0.19373
7052.40989,0.18067
7054.33836,0.11753
7056.26682,0.01170
7058.19529,-0.04763
7060.12376,-0.03145
7062.05223,-0.00399
7063.98070,-0.00732
7065.90917,0.01614
7067.83764,0.05691
7069.76610,0.11542
7071.69457,0.21011
7073.62304,0.19393
7075.55151,0.08007
7077.47998,-0.00777
7079.40845,-0.04076
7081.33692,-0.01818
7083.26539,0.03543
7085.19385,0.06756
7087.12232,0.10683
7089.05079,0.17553
7090.97926,0.13948
7092.90773,0.03670
7094.83620,0.01983
7096.76467,0.08627
7098.69313,0.22324
7100.62160,0.28485
7102.55007,0.22214
7104.47854,0.16299
7106.40701,0.11601
7108.33548,0.06791
7110.26395,-0.01435
7112.19242,-0.12569
7114.12088,-0.06006
7116.04935,0.21600
7117.97782,0.37987
7119.90629,0.28524
7121.83476,0.20719
7123.76323,0.20157
7125.69170,0.25424
7127.62016,0.32986
7129.54863,0.27002
7131.47710,0.11791
7133.40557,0.03019
7135.33404,0.00997
7137.26251,0.00920
7139.19098,0.01483
7141.11944,0.03213
7143.04791,0.02576
7144.97638,-0.00846
7146.90485,0.06423
7148.83332,0.15024
7150.76179,0.06996
7152.69026,-0.04885
7154.61873,-0.05519
7156.54719,-0.00963
7158.47566,0.05938
7160.40413,0.08639
7162.33260,0.01184
7164.26107,0.01532
7166.18954,0.19494
7168.11801,0.31315
7170.04647,0.35140
7171.97494,0.36732
7173.90341,0.27124
7175.83188,0.20569
7177.76035,0.18746
7179.68882,0.05662
7181.61729,-0.11364
7183.54576,-0.15762
7185.47422,-0.09585
7187.40269,-0.10148
7189.33116,-0.12735
7191.25963,0.00108
7193.18810,0.18674
7195.11657,0.24786
7197.04504,0.22519
7198.97350,0.14232
7200.90197,0.02532
7202.83044,0.00299
7204.75891,0.12413
7206.68738,0.20304
7208.61585,0.23790
7210.54432,0.23776
7212.47279,0.13939
7214.40125,0.05280
7216.32972,0.11211
7218.25819,0.23793
7220.18666,0.21208
7222.11513,0.14819
7224.04360,0.15256
7225.97207,0.15078
7227.90053,0.14356
7229.82900,0.20747
7231.75747,0.25815
7233.68594,0.12213
7235.61441,-0.10493
7237.54288,-0.22003
7239.47135,-0.19238
7241.39982,-0.18462
7243.32828,-0.29280
7245.25675,-0.33133
7247.18522,-0.12933
7249.11369,0.13944
7251.04216,0.22781
7252.97063,0.12807
7254.89910,0.03199
7256.82756,0.04971
7258.75603,0.09858
7260.68450,0.07789
7262.61297,0.02444
7264.54144,-0.04917
7266.46991,-0.08043
7268.39838,0.04669
7270.32685,0.25954
7272.25531,0.36224
7274.18378,0.27509
7276.11225,0.19760
7278.04072,0.20295
7279.96919,0.15630
7281.89766,0.08314
7283.82613,0.15681
7285.75459,0.20206
7287.68306,0.13667
7289.61153,0.06730
7291.54000,0.01918
7293.46847,0.07152
7295.39694,0.23042
7297.32541,0.28004
7299.25387,0.22805
7301.18234,0.18335
7303.11081,0.09556
7305.03928,0.04833
7306.96775,0.23320
7308.89622,0.44639
7310.82469,0.36930
7312.75316,0.22963
7314.68162,0.12909
7316.61009,0.06105
7318.53856,0.14443
7320.46703,0.21800
7322.39550,0.15840
7324.32397,0.09509
7326.25244,0.06652
7328.18090,-0.00762
7330.10937,-0.08104
7332.03784,-0.12346
7333.96631,-0.12791
7335.89478,-0.00119
7337.82325,0.21930
7339.75172,0.26068
7341.68019,0.10904
7343.60865,0.17575
7345.53712,0.22507
7347.46559,0.07247
7349.39406,-0.09945
7351.32253,-0.18601
7353.25100,-0.15195
7355.17947,-0.02703
7357.10793,0.04228
7359.03640,0.02257
7360.96487,0.02146
7362.89334,-0.02553
7364.82181,-0.11408
7366.75028,-0.05801
7368.67875,0.17680
7370.60722,0.33114
7372.53568,0.28859
7374.46415,0.22148
7376.39262,0.18738
7378.32109,0.08522
7380.24956,0.07339
7382.17803,0.18451
7384.10650,0.20941
7386.03496,0.19294
7387.96343,0.20028
7389.89190,0.10728
7391.82037,-0.01660
7393.74884,-0.03294
7395.67731,-0.04028
7397.60578,-0.13790
7399.53425,-0.11458
7401.46271,0.04849
7403.39118,0.14757
7405.31965,0.18641
7407.24812,0.25168
7409.17659,0.23961
7411.10506,0.08598
7413.03353,-0.04705
7414.96199,-0.02304
7416.89046,0.14271
7418.81893,0.27372
7420.74740,0.10631
7422.67587,-0.08598
7424.60434,-0.04768
7426.53281,0.14696
7428.46128,0.34456
7430.38974,0.34739
7432.31821,0.20644
7434.24668,0.14326
7436.17515,0.16078
7438.10362,0.16068
7440.03209,0.14071
7441.96056,0.09124
7443.88902,-0.03429
7445.81749,-0.08402
7447.74596,-0.00199
7449.67443,0.05046
7451.60290,0.03128
7453.53137,0.08169
7455.45984,0.07391
7457.38831,-0.07962
7459.31677,-0.07612
7461.24524,0.19329
7463.17371,0.25232
7465.10218,0.10826
7467.03065,0.01780
7468.95912,-0.05311
7470.88759,-0.18553
7472.81605,-0.26502
7474.74452,-0.20844
7476.67299,-0.10888
7478.60146,0.01724
7480.52993,0.21721
7482.45840,0.31339
7484.38687,0.25022
7486.31533,0.17341
7488.24380,0.08248
7490.17227,0.06881
7492.10074,0.20952
7494.02921,0.31378
7495.95768,0.31087
7497.88615,0.24738
