399.19301,1.39466
401.12148,1.68783
403.04995,0.66432
404.97842,0.11755
406.90689,0.04728
408.83536,0.03648
410.76382,0.03794
412.69229,0.00192
414.62076,-0.02253
416.54923,0.04112
418.47770,0.12382
420.40617,0.16064
422.33464,0.14770
424.26311,0.07372
426.19157,0.02620
428.12004,0.07731
430.04851,0.16213
431.97698,0.15255
433.90545,0.06627
435.83392,-0.00872
437.76239,-0.04987
439.69085,0.01223
441.61932,0.12338
443.54779,0.08420
445.47626,0.00396
447.40473,0.05618
449.33320,0.10570
451.26167,0.04187
453.19013,0.02450
455.11860,0.13841
457.04707,0.21137
458.97554,0.15594
460.90401,0.10138
462.83248,0.08975
464.76095,0.11328
466.68942,0.13772
468.61788,0.09773
470.54635,0.11775
472.47482,0.78872
474.40329,1.77509
476.33176,1.20426
478.26023,0.39740
480.18870,0.20904
482.11716,0.25058
484.04563,0.20293
485.97410,0.12000
487.90257,0.11254
489.83104,0.17014
491.75951,0.17765
493.68798,0.12496
495.61645,0.13236
497.54491,0.22580
499.47338,0.26327
501.40185,0.22025
503.33032,0.18403
505.25879,0.11855
507.18726,0.01727
509.11573,0.00261
511.04419,0.05805
512.97266,0.09733
514.90113,0.08009
516.82960,0.02614
518.75807,0.03591
520.68654,0.08959
522.61501,0.08638
524.54348,0.03894
526.47194,0.02238
528.40041,0.02932
530.32888,0.04633
532.25735,0.10614
534.18582,0.19170
536.11429,0.22029
538.04276,0.15962
539.97122,0.10020
541.89969,0.07446
543.82816,0.07074
545.75663,0.09426
547.68510,0.10441
549.61357,0.11173
551.54204,0.12096
553.47051,0.11123
555.39897,0.12891
557.32744,0.15131
559.25591,0.12378
561.18438,0.07580
563.11285,0.02980
565.04132,0.00606
566.96979,0.03100
568.89825,0.07492
570.82672,0.10385
572.75519,0.10774
574.68366,0.09864
576.61213,0.09986
578.54060,0.10711
580.46907,0.11084
582.39754,0.11718
584.32600,0.13906
586.25447,0.16806
588.18294,0.17615
590.11141,0.15885
592.03988,0.13998
593.96835,0.13811
595.89682,0.14988
597.82528,0.15501
599.75375,0.13452
601.68222,0.10366
603.61069,0.09420
605.53916,0.10468
607.46763,0.11005
609.39610,0.11861
611.32456,0.14519
613.25303,0.15519
615.18150,0.13065
617.10997,0.11008
619.03844,0.11769
620.96691,0.14006
622.89538,0.16096
624.82385,0.17150
626.75231,0.16843
628.68078,0.18335
630.60925,0.26708
632.53772,0.34005
634.46619,0.27449
636.39466,0.16999
638.32313,0.13755
640.25159,0.14090
642.18006,0.14892
644.10853,0.14044
646.03700,0.11599
647.96547,0.10713
649.89394,0.10854
651.82241,0.10184
653.75088,0.10153
655.67934,0.12604
657.60781,0.14909
659.53628,0.13640
661.46475,0.11312
663.39322,0.11701
665.32169,0.12698
667.25016,0.11014
669.17862,0.09871
671.10709,0.10735
673.03556,0.10177
674.96403,0.10589
676.89250,0.12843
678.82097,0.14346
680.74944,0.14461
682.67791,0.14435
684.60637,0.15051
686.53484,0.15958
688.46331,0.16005
690.39178,0.15147
692.32025,0.14821
694.24872,0.15013
696.17719,0.13830
698.10565,0.11450
700.03412,0.10120
701.96259,0.10001
703.89106,0.10430
705.81953,0.11517
707.74800,0.11407
709.67647,0.08156
711.60494,0.05076
713.53340,0.07093
715.46187,0.11737
717.39034,0.14168
719.31881,0.15175
721.24728,0.15527
723.17575,0.14869
725.10422,0.14129
727.03268,0.13405
728.96115,0.13178
730.88962,0.13973
732.81809,0.14608
734.74656,0.14017
736.67503,0.12894
738.60350,0.12354
740.53197,0.12154
742.46043,0.11882
744.38890,0.11942
746.31737,0.12396
748.24584,0.13391
750.17431,0.14336
752.10278,0.14498
754.03125,0.14964
755.95971,0.15580
757.88818,0.15227
759.81665,0.14463
761.74512,0.14199
763.67359,0.14725
765.60206,0.15376
767.53053,0.15496
769.45900,0.15139
771.38746,0.14709
773.31593,0.14674
775.24440,0.14794
777.17287,0.14824
779.10134,0.15104
781.02981,0.14964
782.95828,0.13377
784.88674,0.11623
786.81521,0.11410
788.74368,0.12771
790.67215,0.14967
792.60062,0.16372
794.52909,0.16251
796.45756,0.16254
798.38602,0.16859
800.31449,0.16341
802.24296,0.14230
804.17143,0.12620
806.09990,0.12918
808.02837,0.13727
809.95684,0.13416
811.88531,0.12565
813.81377,0.12286
815.74224,0.12829
817.67071,0.13795
819.59918,0.13998
821.52765,0.13659
823.45612,0.14764
825.38459,0.16940
827.31305,0.17750
829.24152,0.16716
831.16999,0.15470
833.09846,0.15141
835.02693,0.15094
836.95540,0.15028
838.88387,0.15250
840.81234,0.14827
842.74080,0.14133
844.66927,0.14098
846.59774,0.13477
848.52621,0.12881
850.45468,0.14143
852.38315,0.15567
854.31162,0.15840
856.24008,0.16497
858.16855,0.17429
860.09702,0.16925
862.02549,0.15700
863.95396,0.15881
865.88243,0.16401
867.81090,0.15271
869.73937,0.14021
871.66783,0.14333
873.59630,0.14913
875.52477,0.14682
877.45324,0.14854
879.38171,0.15873
881.31018,0.16535
883.23865,0.16406
885.16711,0.15692
887.09558,0.14410
889.02405,0.13212
890.95252,0.13483
892.88099,0.14839
894.80946,0.15313
896.73793,0.14509
898.66640,0.13841
900.59486,0.14655
902.52333,0.16447
904.45180,0.17158
906.38027,0.16219
908.30874,0.15367
910.23721,0.15182
912.16568,0.14485
914.09414,0.13778
916.02261,0.14265
917.95108,0.15433
919.87955,0.16616
921.80802,0.17494
923.73649,0.17565
925.66496,0.17170
927.59343,0.16798
929.52189,0.16374
931.45036,0.15931
933.37883,0.15262
935.30730,0.14245
937.23577,0.13716
939.16424,0.14517
941.09271,0.15844
943.02117,0.16241
944.94964,0.16032
946.87811,0.16426
948.80658,0.17047
950.73505,0.17037
952.66352,0.16789
954.59199,0.16809
956.52045,0.17012
958.44892,0.17111
960.37739,0.16973
962.30586,0.16662
964.23433,0.15835
966.16280,0.14406
968.09127,0.13594
970.01974,0.14214
971.94820,0.15103
973.87667,0.15287
975.80514,0.15542
977.73361,0.16291
979.66208,0.16596
981.59055,0.16465
983.51902,0.16829
985.44748,0.16900
987.37595,0.15796
989.30442,0.14535
991.23289,0.14043
993.16136,0.14322
995.08983,0.15160
997.01830,0.15858
998.94677,0.15965
1000.87523,0.15898
1002.80370,0.16143
1004.73217,0.16706
1006.66064,0.17127
1008.58911,0.17035
1010.51758,0.16494
1012.44605,0.15846
1014.37451,0.15473
1016.30298,0.15399
1018.23145,0.15836
1020.15992,0.17440
1022.08839,0.18758
1024.01686,0.17324
1025.94533,0.13399
1027.87380,0.09610
1029.80226,0.09849
1031.73073,0.13816
1033.65920,0.16514
1035.58767,0.16578
1037.51614,0.16516
1039.44461,0.17440
1041.37308,0.17796
1043.30154,0.16974
1045.23001,0.16270
1047.15848,0.15658
1049.08695,0.14795
1051.01542,0.14628
1052.94389,0.15622
1054.87236,0.17047
1056.80083,0.18267
1058.72929,0.18654
1060.65776,0.17660
1062.58623,0.16608
1064.51470,0.17048
1066.44317,0.17836
1068.37164,0.17413
1070.30011,0.16503
1072.22857,0.16415
1074.15704,0.17288
1076.08551,0.18390
1078.01398,0.18790
1079.94245,0.18023
1081.87092,0.16829
1083.79939,0.16567
1085.72786,0.17438
1087.65632,0.17896
1089.58479,0.16901
1091.51326,0.15857
1093.44173,0.16880
1095.37020,0.19024
1097.29867,0.19334
1099.22714,0.18150
1101.15560,0.17356
1103.08407,0.16908
1105.01254,0.16707
1106.94101,0.17090
1108.86948,0.17935
1110.79795,0.18472
1112.72642,0.18274
1114.65489,0.17755
1116.58335,0.17389
1118.51182,0.17654
1120.44029,0.18095
1122.36876,0.17643
1124.29723,0.16991
1126.22570,0.17034
1128.15417,0.17175
1130.08263,0.17342
1132.01110,0.17421
1133.93957,0.17120
1135.86804,0.17175
1137.79651,0.17698
1139.72498,0.17867
1141.65345,0.17348
1143.58191,0.16783
1145.51038,0.17074
1147.43885,0.17976
1149.36732,0.18673
1151.29579,0.18968
1153.22426,0.18762
1155.15273,0.18099
1157.08120,0.17438
1159.00966,0.17095
1160.93813,0.17015
1162.86660,0.17096
1164.79507,0.17623
1166.72354,0.18385
1168.65201,0.18547
1170.58048,0.18180
1172.50894,0.18069
1174.43741,0.18253
1176.36588,0.18113
1178.29435,0.17678
1180.22282,0.17402
1182.15129,0.17436
1184.07976,0.17773
1186.00823,0.18086
1187.93669,0.17964
1189.86516,0.17444
1191.79363,0.17007
1193.72210,0.17009
1195.65057,0.17167
1197.57904,0.17364
1199.50751,0.17759
1201.43597,0.17961
1203.36444,0.17828
1205.29291,0.17694
1207.22138,0.17456
1209.14985,0.17156
1211.07832,0.17291
1213.00679,0.17902
1214.93526,0.18503
1216.86372,0.18807
1218.79219,0.18874
1220.72066,0.18613
1222.64913,0.18190
1224.57760,0.18120
1226.50607,0.18147
1228.43454,0.17769
1230.36300,0.17387
1232.29147,0.17490
1234.21994,0.17677
1236.14841,0.17541
1238.07688,0.17424
1240.00535,0.17587
1241.93382,0.17698
1243.86229,0.17505
1245.79075,0.17359
1247.71922,0.17272
1249.64769,0.16997
1251.57616,0.16890
1253.50463,0.16938
1255.43310,0.16787
1257.36157,0.16601
1259.29003,0.16655
1261.21850,0.17003
1263.14697,0.17363
1265.07544,0.17204
1267.00391,0.16723
1268.93238,0.16738
1270.86085,0.17018
1272.78932,0.17028
1274.71778,0.17085
1276.64625,0.17484
1278.57472,0.17964
1280.50319,0.17985
1282.43166,0.17802
1284.36013,0.17971
1286.28860,0.18216
1288.21706,0.18411
1290.14553,0.18495
1292.07400,0.18192
1294.00247,0.17783
1295.93094,0.17655
1297.85941,0.17582
1299.78788,0.17139
1301.71634,0.16418
1303.64481,0.15761
1305.57328,0.15749
1307.50175,0.16736
1309.43022,0.17773
1311.35869,0.18086
1313.28716,0.18166
1315.21563,0.18396
1317.14409,0.18706
1319.07256,0.18877
1321.00103,0.18771
1322.92950,0.18577
1324.85797,0.18169
1326.78644,0.17493
1328.71491,0.17053
1330.64337,0.16824
1332.57184,0.16572
1334.50031,0.16619
1336.42878,0.17065
1338.35725,0.17536
1340.28572,0.17162
1342.21419,0.16203
1344.14266,0.16017
1346.07112,0.16362
1347.99959,0.16749
1349.92806,0.17289
1351.85653,0.17495
1353.78500,0.17430
1355.71347,0.17676
1357.64194,0.17904
1359.57040,0.17678
1361.49887,0.17449
1363.42734,0.17465
1365.35581,0.17596
1367.28428,0.17916
1369.21275,0.18083
1371.14122,0.18216
1373.06969,0.18700
1374.99815,0.18842
1376.92662,0.18407
1378.85509,0.18246
1380.78356,0.18293
1382.71203,0.18174
1384.64050,0.18188
1386.56897,0.18358
1388.49743,0.18353
1390.42590,0.18443
1392.35437,0.18990
1394.28284,0.19776
1396.21131,0.20044
1398.13978,0.19646
1400.06825,0.19262
1401.99672,0.19120
1403.92518,0.18875
1405.85365,0.18548
1407.78212,0.18324
1409.71059,0.18285
1411.63906,0.18568
1413.56753,0.18962
1415.49600,0.19420
1417.42446,0.19927
1419.35293,0.19822
1421.28140,0.19374
1423.20987,0.19313
1425.13834,0.19237
1427.06681,0.19083
1428.99528,0.19318
1430.92375,0.19629
1432.85221,0.19462
1434.78068,0.19153
1436.70915,0.19042
1438.63762,0.18913
1440.56609,0.18636
1442.49456,0.18536
1444.42303,0.18889
1446.35149,0.19487
1448.27996,0.19850
1450.20843,0.19743
1452.13690,0.19585
1454.06537,0.20004
1455.99384,0.21474
1457.92231,0.22688
1459.85077,0.21858
1461.77924,0.21038
1463.70771,0.20820
1465.63618,0.20695
1467.56465,0.20526
1469.49312,0.20765
1471.42159,0.21322
1473.35006,0.21047
1475.27852,0.19996
1477.20699,0.19601
1479.13546,0.19706
1481.06393,0.19620
1482.99240,0.19314
1484.92087,0.19573
1486.84934,0.20590
1488.77780,0.21451
1490.70627,0.21270
1492.63474,0.20711
1494.56321,0.20494
1496.49168,0.20618
1498.42015,0.20511
1500.34862,0.19631
1502.27709,0.18585
1504.20555,0.18098
1506.13402,0.18780
1508.06249,0.20473
1509.99096,0.20861
1511.91943,0.20567
1513.84790,0.20487
1515.77637,0.21032
1517.70483,0.21765
1519.63330,0.22147
1521.56177,0.22437
1523.49024,0.22075
1525.41871,0.21314
1527.34718,0.20869
1529.27565,0.20673
1531.20412,0.20456
1533.13258,0.20121
1535.06105,0.19766
1536.98952,0.19734
1538.91799,0.20558
1540.84646,0.21889
1542.77493,0.21359
1544.70340,0.20184
1546.63186,0.19594
1548.56033,0.19633
1550.48880,0.19887
1552.41727,0.20085
1554.34574,0.20732
1556.27421,0.22405
1558.20268,0.24174
1560.13115,0.22364
1562.05961,0.20405
1563.98808,0.19741
1565.91655,0.19586
1567.84502,0.19887
1569.77349,0.20307
1571.70196,0.20196
1573.63043,0.20248
1575.55889,0.20709
1577.48736,0.20426
1579.41583,0.19725
1581.34430,0.19487
1583.27277,0.19368
1585.20124,0.19036
1587.12971,0.18868
1589.05818,0.19115
1590.98664,0.19345
1592.91511,0.19313
1594.84358,0.19329
1596.77205,0.19315
1598.70052,0.19239
1600.62899,0.19450
1602.55746,0.19849
1604.48592,0.20159
1606.41439,0.20269
1608.34286,0.20096
1610.27133,0.19557
1612.19980,0.19109
1614.12827,0.19515
1616.05674,0.20693
1617.98521,0.21222
1619.91367,0.21074
1621.84214,0.21407
1623.77061,0.21859
1625.69908,0.21485
1627.62755,0.20675
1629.55602,0.20034
1631.48449,0.20078
1633.41295,0.21197
1635.34142,0.23066
1637.26989,0.23094
1639.19836,0.21830
1641.12683,0.20980
1643.05530,0.20791
1644.98377,0.21726
1646.91223,0.23042
1648.84070,0.22789
1650.76917,0.22692
1652.69764,0.23526
1654.62611,0.22857
1656.55458,0.21558
1658.48305,0.20874
1660.41152,0.20579
1662.33998,0.20650
1664.26845,0.20809
1666.19692,0.20823
1668.12539,0.21006
1670.05386,0.21160
1671.98233,0.20882
1673.91080,0.20656
1675.83926,0.20546
1677.76773,0.20741
1679.69620,0.21493
1681.62467,0.22711
1683.55314,0.23919
1685.48161,0.23374
1687.41008,0.22078
1689.33855,0.21293
1691.26701,0.21000
1693.19548,0.21245
1695.12395,0.21710
1697.05242,0.21949
1698.98089,0.22168
1700.90936,0.22150
1702.83783,0.21916
1704.76629,0.21788
1706.69476,0.21335
1708.62323,0.20733
1710.55170,0.20536
1712.48017,0.20800
1714.40864,0.21333
1716.33711,0.21979
1718.26558,0.22073
1720.19404,0.21268
1722.12251,0.20477
1724.05098,0.20045
1725.97945,0.19810
1727.90792,0.19719
1729.83639,0.19972
1731.76486,0.20642
1733.69332,0.21295
1735.62179,0.21341
1737.55026,0.21476
1739.47873,0.21793
1741.40720,0.21792
1743.33567,0.21611
1745.26414,0.21492
1747.19261,0.21466
1749.12107,0.21413
1751.04954,0.20871
1752.97801,0.20201
1754.90648,0.20105
1756.83495,0.20361
1758.76342,0.20483
1760.69189,0.20621
1762.62035,0.20604
1764.54882,0.20238
1766.47729,0.20109
1768.40576,0.20442
1770.33423,0.21083
1772.26270,0.21498
1774.19117,0.21115
1776.11964,0.20780
1778.04810,0.20935
1779.97657,0.21120
1781.90504,0.20810
1783.83351,0.20220
1785.76198,0.19969
1787.69045,0.20343
1789.61892,0.21031
1791.54738,0.21443
1793.47585,0.21270
1795.40432,0.20918
1797.33279,0.20666
1799.26126,0.20565
1801.18973,0.20506
1803.11820,0.20378
1805.04666,0.20253
1806.97513,0.20251
1808.90360,0.20462
1810.83207,0.20562
1812.76054,0.20130
1814.68901,0.19745
1816.61748,0.20271
1818.54595,0.21490
1820.47441,0.21983
1822.40288,0.21253
1824.33135,0.20476
1826.25982,0.20462
1828.18829,0.20843
1830.11676,0.20934
1832.04523,0.20277
1833.97369,0.19637
1835.90216,0.19578
1837.83063,0.19889
1839.75910,0.20115
1841.68757,0.20256
1843.61604,0.20769
1845.54451,0.21271
1847.47298,0.21070
1849.40144,0.20711
1851.32991,0.20534
1853.25838,0.20387
1855.18685,0.20400
1857.11532,0.20458
1859.04379,0.20260
1860.97226,0.20203
1862.90072,0.20495
1864.82919,0.20791
1866.75766,0.21001
1868.68613,0.20921
1870.61460,0.20353
1872.54307,0.20045
1874.47154,0.20244
1876.40001,0.20409
1878.32847,0.20314
1880.25694,0.20179
1882.18541,0.20282
1884.11388,0.20556
1886.04235,0.20760
1887.97082,0.21053
1889.89929,0.21161
1891.82775,0.20841
1893.75622,0.20661
1895.68469,0.20496
1897.61316,0.20074
1899.54163,0.19909
1901.47010,0.20131
1903.39857,0.20245
1905.32704,0.20152
1907.25550,0.20282
1909.18397,0.20681
1911.11244,0.20905
1913.04091,0.20774
1914.96938,0.20528
1916.89785,0.20507
1918.82632,0.20689
1920.75478,0.20730
1922.68325,0.20507
1924.61172,0.20186
1926.54019,0.20030
1928.46866,0.20153
1930.39713,0.20526
1932.32560,0.20836
1934.25407,0.20776
1936.18253,0.20428
1938.11100,0.20080
1940.03947,0.20071
1941.96794,0.20441
1943.89641,0.20608
1945.82488,0.20352
1947.75335,0.20065
1949.68181,0.19842
1951.61028,0.19675
1953.53875,0.19713
1955.46722,0.19941
1957.39569,0.20110
1959.32416,0.20243
1961.25263,0.20391
1963.18110,0.20350
1965.10956,0.20303
1967.03803,0.20431
1968.96650,0.20483
1970.89497,0.20409
1972.82344,0.20249
1974.75191,0.19925
1976.68038,0.19799
1978.60884,0.20197
1980.53731,0.20526
1982.46578,0.20468
1984.39425,0.20446
1986.32272,0.20490
1988.25119,0.20447
1990.17966,0.20410
1992.10812,0.20336
1994.03659,0.20160
1995.96506,0.20058
1997.89353,0.20141
1999.82200,0.20251
2001.75047,0.20251
2003.67894,0.20237
2005.60741,0.20247
2007.53587,0.20184
2009.46434,0.20098
2011.39281,0.20135
2013.32128,0.20287
2015.24975,0.20467
2017.17822,0.20462
2019.10669,0.20117
2021.03515,0.19824
2022.96362,0.19952
2024.89209,0.20261
2026.82056,0.20342
2028.74903,0.20227
2030.67750,0.20184
2032.60597,0.20150
2034.53444,0.19929
2036.46290,0.19706
2038.39137,0.19742
2040.31984,0.19848
2042.24831,0.19823
2044.17678,0.19868
2046.10525,0.20168
2048.03372,0.20517
2049.96218,0.20575
2051.89065,0.20398
2053.81912,0.20355
2055.74759,0.20509
2057.67606,0.20433
2059.60453,0.19948
2061.53300,0.19514
2063.46147,0.19601
2065.38993,0.20142
2067.31840,0.20597
2069.24687,0.20562
2071.17534,0.20262
2073.10381,0.20146
2075.03228,0.20277
2076.96075,0.20390
2078.88921,0.20335
2080.81768,0.20278
2082.74615,0.20384
2084.67462,0.20562
2086.60309,0.20577
2088.53156,0.20495
2090.46003,0.20517
2092.38850,0.20481
2094.31696,0.20272
2096.24543,0.20049
2098.17390,0.20020
2100.10237,0.20083
2102.03084,0.20109
2103.95931,0.20256
2105.88778,0.20397
2107.81624,0.20447
2109.74471,0.20504
2111.67318,0.20511
2113.60165,0.20589
2115.53012,0.20823
2117.45859,0.20971
2119.38706,0.20893
2121.31553,0.20696
2123.24399,0.20548
2125.17246,0.20614
2127.10093,0.20697
2129.02940,0.20526
2130.95787,0.20303
2132.88634,0.20274
2134.81481,0.20472
2136.74327,0.20672
2138.67174,0.20646
2140.60021,0.20608
2142.52868,0.20549
2144.45715,0.20219
2146.38562,0.19846
2148.31409,0.19811
2150.24255,0.20237
2152.17102,0.20789
2154.09949,0.21018
2156.02796,0.20953
2157.95643,0.20795
2159.88490,0.20641
2161.81337,0.20507
2163.74184,0.20465
2165.67030,0.20469
2167.59877,0.20373
2169.52724,0.20359
2171.45571,0.20446
2173.38418,0.20355
2175.31265,0.20147
2177.24112,0.20291
2179.16958,0.20790
2181.09805,0.20935
2183.02652,0.20655
2184.95499,0.20442
2186.88346,0.20336
2188.81193,0.20336
2190.74040,0.20540
2192.66887,0.20707
2194.59733,0.20661
2196.52580,0.20550
2198.45427,0.20385
2200.38274,0.20183
2202.31121,0.20240
2204.23968,0.20447
2206.16815,0.20353
2208.09661,0.20092
2210.02508,0.20007
2211.95355,0.20045
2213.88202,0.20103
2215.81049,0.20041
2217.73896,0.19823
2219.66743,0.19711
2221.59590,0.19877
2223.52436,0.20199
2225.45283,0.20362
2227.38130,0.20409
2229.30977,0.20570
2231.23824,0.20623
2233.16671,0.20484
2235.09518,0.20421
2237.02364,0.20471
2238.95211,0.20476
2240.88058,0.20415
2242.80905,0.20446
2244.73752,0.20631
2246.66599,0.20668
2248.59446,0.20420
2250.52293,0.20301
2252.45139,0.20411
2254.37986,0.20467
2256.30833,0.20375
2258.23680,0.20154
2260.16527,0.20055
2262.09374,0.20276
2264.02221,0.20533
2265.95067,0.20574
2267.87914,0.20503
2269.80761,0.20483
2271.73608,0.20554
2273.66455,0.20558
2275.59302,0.20340
2277.52149,0.20114
2279.44996,0.20138
2281.37842,0.20284
2283.30689,0.20320
2285.23536,0.20103
2287.16383,0.19750
2289.09230,0.19722
2291.02077,0.20004
2292.94924,0.20073
2294.87770,0.19936
2296.80617,0.19715
2298.73464,0.19387
2300.66311,0.19175
2302.59158,0.18998
2304.52005,0.18701
2306.44852,0.18398
2308.37699,0.18267
2310.30545,0.18346
2312.23392,0.18084
2314.16239,0.17454
2316.09086,0.17222
2318.01933,0.17215
2319.94780,0.17145
2321.87627,0.17648
2323.80473,0.18587
2325.73320,0.18652
2327.66167,0.17669
2329.59014,0.16982
2331.51861,0.16904
2333.44708,0.16447
2335.37555,0.15765
2337.30401,0.15333
2339.23248,0.14648
2341.16095,0.13822
2343.08942,0.13891
2345.01789,0.14717
2346.94636,0.15404
2348.87483,0.15790
2350.80330,0.15930
2352.73176,0.15656
2354.66023,0.14876
2356.58870,0.13671
2358.51717,0.12163
2360.44564,0.11735
2362.37411,0.12760
2364.30258,0.13249
2366.23104,0.12933
2368.15951,0.13863
2370.08798,0.15735
2372.01645,0.16541
2373.94492,0.16998
2375.87339,0.18130
2377.80186,0.19001
2379.73033,0.19119
2381.65879,0.19127
2383.58726,0.19422
2385.51573,0.19861
2387.44420,0.20248
2389.37267,0.20440
2391.30114,0.20409
2393.22961,0.20434
2395.15807,0.20734
2397.08654,0.21071
2399.01501,0.21125
2400.94348,0.20908
2402.87195,0.20765
2404.80042,0.20806
2406.72889,0.20656
2408.65736,0.20407
2410.58582,0.20503
2412.51429,0.20700
2414.44276,0.20615
2416.37123,0.20426
2418.29970,0.20334
2420.22817,0.20320
2422.15664,0.20530
2424.08510,0.20950
2426.01357,0.21145
2427.94204,0.20984
2429.87051,0.20765
2431.79898,0.20637
2433.72745,0.20495
2435.65592,0.20316
2437.58439,0.20250
2439.51285,0.20312
2441.44132,0.20366
2443.36979,0.20396
2445.29826,0.20466
2447.22673,0.20494
2449.15520,0.20595
2451.08367,0.21098
2453.01213,0.21434
2454.94060,0.20902
2456.86907,0.20262
2458.79754,0.20319
2460.72601,0.20701
2462.65448,0.20824
2464.58295,0.20722
2466.51142,0.20686
2468.43988,0.20593
2470.36835,0.20427
2472.29682,0.20409
2474.22529,0.20425
2476.15376,0.20334
2478.08223,0.20181
2480.01070,0.20182
2481.93916,0.20457
2483.86763,0.20728
2485.79610,0.20696
2487.72457,0.20403
2489.65304,0.20307
2491.58151,0.20654
2493.50998,0.21075
2495.43844,0.21319
2497.36691,0.21350
2499.29538,0.21104
2501.22385,0.20810
2503.15232,0.20780
2505.08079,0.20860
2507.00926,0.20785
2508.93773,0.20732
2510.86619,0.20775
2512.79466,0.20652
2514.72313,0.20465
2516.65160,0.20551
2518.58007,0.20889
2520.50854,0.21203
2522.43701,0.21266
2524.36547,0.21014
2526.29394,0.20585
2528.22241,0.20429
2530.15088,0.20871
2532.07935,0.21350
2534.00782,0.21301
2535.93629,0.21117
2537.86476,0.21135
2539.79322,0.21162
2541.72169,0.21017
2543.65016,0.20682
2545.57863,0.20417
2547.50710,0.20599
2549.43557,0.21012
2551.36404,0.21042
2553.29250,0.20719
2555.22097,0.20533
2557.14944,0.20712
2559.07791,0.21059
2561.00638,0.21098
2562.93485,0.20835
2564.86332,0.20736
2566.79179,0.20877
2568.72025,0.20928
2570.64872,0.20794
2572.57719,0.20697
2574.50566,0.20731
2576.43413,0.20866
2578.36260,0.20857
2580.29107,0.20630
2582.21953,0.20683
2584.14800,0.21000
2586.07647,0.21240
2588.00494,0.21357
2589.93341,0.21071
2591.86188,0.20606
2593.79035,0.20579
2595.71882,0.20813
2597.64728,0.20918
2599.57575,0.20892
2601.50422,0.20900
2603.43269,0.21033
2605.36116,0.21102
2607.28963,0.21178
2609.21810,0.21630
2611.14656,0.21964
2613.07503,0.21557
2615.00350,0.21064
2616.93197,0.20956
2618.86044,0.20743
2620.78891,0.20474
2622.71738,0.20600
2624.64585,0.20869
2626.57431,0.20999
2628.50278,0.21171
2630.43125,0.21224
2632.35972,0.20953
2634.28819,0.20725
2636.21666,0.20699
2638.14513,0.20808
2640.07359,0.21103
2642.00206,0.21325
2643.93053,0.21367
2645.85900,0.21424
2647.78747,0.21461
2649.71594,0.21399
2651.64441,0.21379
2653.57288,0.21491
2655.50134,0.21516
2657.42981,0.21364
2659.35828,0.21179
2661.28675,0.21026
2663.21522,0.20993
2665.14369,0.21111
2667.07216,0.21339
2669.00062,0.21530
2670.92909,0.21416
2672.85756,0.21120
2674.78603,0.21031
2676.71450,0.21076
2678.64297,0.21145
2680.57144,0.21482
2682.49990,0.21886
2684.42837,0.21796
2686.35684,0.21338
2688.28531,0.21005
2690.21378,0.20903
2692.14225,0.21120
2694.07072,0.21583
2695.99919,0.21793
2697.92765,0.21709
2699.85612,0.21639
2701.78459,0.21460
2703.71306,0.21226
2705.64153,0.21321
2707.57000,0.21498
2709.49847,0.21396
2711.42693,0.21315
2713.35540,0.21412
2715.28387,0.21517
2717.21234,0.21495
2719.14081,0.21331
2721.06928,0.21285
2722.99775,0.21530
2724.92622,0.21934
2726.85468,0.22106
2728.78315,0.21823
2730.71162,0.21630
2732.64009,0.21982
2734.56856,0.22383
2736.49703,0.22282
2738.42550,0.22057
2740.35396,0.22293
2742.28243,0.22504
2744.21090,0.22044
2746.13937,0.21539
2748.06784,0.21676
2749.99631,0.22101
2751.92478,0.22335
2753.85325,0.22306
2755.78171,0.22238
2757.71018,0.22284
2759.63865,0.22197
2761.56712,0.21973
2763.49559,0.21954
2765.42406,0.22099
2767.35253,0.22132
2769.28099,0.22094
2771.20946,0.22281
2773.13793,0.22567
2775.06640,0.22353
2776.99487,0.21744
2778.92334,0.21541
2780.85181,0.21927
2782.78028,0.22420
2784.70874,0.22537
2786.63721,0.22396
2788.56568,0.22481
2790.49415,0.22670
2792.42262,0.22669
2794.35109,0.22602
2796.27956,0.22588
2798.20802,0.22645
2800.13649,0.22669
2802.06496,0.22450
2803.99343,0.21983
2805.92190,0.21661
2807.85037,0.21701
2809.77884,0.21826
2811.70731,0.22026
2813.63577,0.22421
2815.56424,0.22713
2817.49271,0.22747
2819.42118,0.22721
2821.34965,0.22923
2823.27812,0.23237
2825.20659,0.23026
2827.13505,0.22321
2829.06352,0.21794
2830.99199,0.21604
2832.92046,0.21744
2834.84893,0.22204
2836.77740,0.22571
2838.70587,0.22563
2840.63433,0.22283
2842.56280,0.21935
2844.49127,0.21825
2846.41974,0.22070
2848.34821,0.22215
2850.27668,0.22056
2852.20515,0.22016
2854.13362,0.22069
2856.06208,0.21885
2857.99055,0.21637
2859.91902,0.21630
2861.84749,0.21895
2863.77596,0.22040
2865.70443,0.22013
2867.63290,0.22357
2869.56136,0.22902
2871.48983,0.22945
2873.41830,0.22539
2875.34677,0.22355
2877.27524,0.22552
2879.20371,0.22777
2881.13218,0.22944
2883.06065,0.23001
2884.98911,0.22868
2886.91758,0.22585
2888.84605,0.22323
2890.77452,0.22321
2892.70299,0.22344
2894.63146,0.22195
2896.55993,0.22069
2898.48839,0.22102
2900.41686,0.22319
2902.34533,0.22449
2904.27380,0.22349
2906.20227,0.22333
2908.13074,0.22497
2910.05921,0.22649
2911.98768,0.22831
2913.91614,0.22861
2915.84461,0.22340
2917.77308,0.21662
2919.70155,0.21477
2921.63002,0.21983
2923.55849,0.22395
2925.48696,0.21549
2927.41542,0.20480
2929.34389,0.20931
2931.27236,0.22101
2933.20083,0.22358
2935.12930,0.21805
2937.05777,0.21482
2938.98624,0.21989
2940.91471,0.22822
2942.84317,0.22838
2944.77164,0.22045
2946.70011,0.21495
2948.62858,0.21616
2950.55705,0.22050
2952.48552,0.22516
2954.41399,0.22668
2956.34245,0.22154
2958.27092,0.21646
2960.19939,0.21743
2962.12786,0.21878
2964.05633,0.21948
2965.98480,0.22226
2967.91327,0.22368
2969.84174,0.22458
2971.77020,0.22758
2973.69867,0.23076
2975.62714,0.23056
2977.55561,0.22553
2979.48408,0.22280
2981.41255,0.22513
2983.34102,0.22567
2985.26948,0.22354
2987.19795,0.22281
2989.12642,0.22601
2991.05489,0.23149
2992.98336,0.23436
2994.91183,0.23321
2996.84030,0.22914
2998.76877,0.22424
3000.69723,0.22297
3002.62570,0.22748
3004.55417,0.23397
3006.48264,0.23744
3008.41111,0.23590
3010.33958,0.22690
3012.26805,0.21015
3014.19651,0.18785
3016.12498,0.16785
3018.05345,0.16985
3019.98192,0.19565
3021.91039,0.22131
3023.83886,0.23439
3025.76733,0.23679
3027.69579,0.23114
3029.62426,0.22507
3031.55273,0.22490
3033.48120,0.22615
3035.40967,0.22487
3037.33814,0.22396
3039.26661,0.22633
3041.19508,0.23205
3043.12354,0.23633
3045.05201,0.23484
3046.98048,0.23147
3048.90895,0.22969
3050.83742,0.22638
3052.76589,0.22224
3054.69436,0.21917
3056.62282,0.21640
3058.55129,0.21861
3060.47976,0.22528
3062.40823,0.22730
3064.33670,0.22231
3066.26517,0.21635
3068.19364,0.21722
3070.12211,0.22398
3072.05057,0.22853
3073.97904,0.22412
3075.90751,0.21298
3077.83598,0.21162
3079.76445,0.22170
3081.69292,0.22711
3083.62139,0.22484
3085.54985,0.22335
3087.47832,0.22702
3089.40679,0.22747
3091.33526,0.22122
3093.26373,0.21567
3095.19220,0.21381
3097.12067,0.21679
3099.04914,0.22365
3100.97760,0.22782
3102.90607,0.22268
3104.83454,0.21637
3106.76301,0.22084
3108.69148,0.22834
3110.61995,0.22425
3112.54842,0.21372
3114.47688,0.21331
3116.40535,0.22055
3118.33382,0.22365
3120.26229,0.22312
3122.19076,0.22518
3124.11923,0.23080
3126.04770,0.23393
3127.97617,0.23069
3129.90463,0.22382
3131.83310,0.22076
3133.76157,0.22602
3135.69004,0.23245
3137.61851,0.23159
3139.54698,0.22823
3141.47545,0.22876
3143.40391,0.22879
3145.33238,0.22593
3147.26085,0.22385
3149.18932,0.22441
3151.11779,0.22801
3153.04626,0.23365
3154.97473,0.23595
3156.90320,0.23275
3158.83166,0.23063
3160.76013,0.23356
3162.68860,0.23588
3164.61707,0.23433
3166.54554,0.23379
3168.47401,0.23433
3170.40248,0.23190
3172.33094,0.22894
3174.25941,0.23097
3176.18788,0.23658
3178.11635,0.23742
3180.04482,0.23097
3181.97329,0.22565
3183.90176,0.22761
3185.83022,0.23010
3187.75869,0.22937
3189.68716,0.23227
3191.61563,0.23793
3193.54410,0.23959
3195.47257,0.23859
3197.40104,0.24059
3199.32951,0.24249
3201.25797,0.23765
3203.18644,0.23168
3205.11491,0.23379
3207.04338,0.23848
3208.97185,0.23602
3210.90032,0.23177
3212.82879,0.23412
3214.75725,0.23695
3216.68572,0.23269
3218.61419,0.22686
3220.54266,0.22581
3222.47113,0.22774
3224.39960,0.22966
3226.32807,0.23279
3228.25654,0.23694
3230.18500,0.23795
3232.11347,0.23786
3234.04194,0.24006
3235.97041,0.23818
3237.89888,0.23013
3239.82735,0.22561
3241.75582,0.22869
3243.68428,0.23332
3245.61275,0.23139
3247.54122,0.22244
3249.46969,0.21858
3251.39816,0.22421
3253.32663,0.23072
3255.25510,0.23242
3257.18357,0.22813
3259.11203,0.22328
3261.04050,0.22361
3262.96897,0.22618
3264.89744,0.22758
3266.82591,0.22785
3268.75438,0.22696
3270.68285,0.22607
3272.61131,0.22803
3274.53978,0.23081
3276.46825,0.23066
3278.39672,0.23100
3280.32519,0.23490
3282.25366,0.23801
3284.18213,0.23547
3286.11060,0.22979
3288.03906,0.22754
3289.96753,0.22949
3291.89600,0.23039
3293.82447,0.22837
3295.75294,0.22818
3297.68141,0.23032
3299.60988,0.22811
3301.53834,0.22221
3303.46681,0.22073
3305.39528,0.22505
3307.32375,0.22863
3309.25222,0.22711
3311.18069,0.22283
3313.10916,0.21812
3315.03763,0.21419
3316.96609,0.21471
3318.89456,0.21944
3320.82303,0.22482
3322.75150,0.22988
3324.67997,0.23261
3326.60844,0.23461
3328.53691,0.23939
3330.46537,0.24021
3332.39384,0.23304
3334.32231,0.22677
3336.25078,0.22717
3338.17925,0.23262
3340.10772,0.24029
3342.03619,0.24426
3343.96466,0.23967
3345.89312,0.23168
3347.82159,0.23044
3349.75006,0.23513
3351.67853,0.23423
3353.60700,0.22749
3355.53547,0.22409
3357.46394,0.22357
3359.39240,0.22520
3361.32087,0.23061
3363.24934,0.23430
3365.17781,0.23366
3367.10628,0.23160
3369.03475,0.23037
3370.96322,0.23097
3372.89168,0.23199
3374.82015,0.23299
3376.74862,0.23386
3378.67709,0.23162
3380.60556,0.22635
3382.53403,0.22325
3384.46250,0.22735
3386.39097,0.23593
3388.31943,0.23860
3390.24790,0.23260
3392.17637,0.22587
3394.10484,0.22563
3396.03331,0.22990
3397.96178,0.23355
3399.89025,0.23775
3401.81871,0.23869
3403.74718,0.23415
3405.67565,0.23116
3407.60412,0.22681
3409.53259,0.21845
3411.46106,0.21380
3413.38953,0.21798
3415.31800,0.22845
3417.24646,0.23385
3419.17493,0.22900
3421.10340,0.22530
3423.03187,0.22829
3424.96034,0.22732
3426.88881,0.21908
3428.81728,0.21356
3430.74574,0.21720
3432.67421,0.22472
3434.60268,0.22524
3436.53115,0.21880
3438.45962,0.21658
3440.38809,0.21976
3442.31656,0.21965
3444.24503,0.21743
3446.17349,0.21820
3448.10196,0.21761
3450.03043,0.21516
3451.95890,0.21586
3453.88737,0.21818
3455.81584,0.21866
3457.74431,0.21819
3459.67277,0.21923
3461.60124,0.21961
3463.52971,0.21500
3465.45818,0.20942
3467.38665,0.20968
3469.31512,0.21121
3471.24359,0.20784
3473.17206,0.20541
3475.10052,0.20781
3477.02899,0.21067
3478.95746,0.21125
3480.88593,0.21038
3482.81440,0.21073
3484.74287,0.21021
3486.67134,0.20461
3488.59980,0.19802
3490.52827,0.19595
3492.45674,0.19830
3494.38521,0.20193
3496.31368,0.20260
3498.24215,0.20034
3500.17062,0.19909
3502.09909,0.20071
3504.02755,0.20198
3505.95602,0.20038
3507.88449,0.19891
3509.81296,0.19845
3511.74143,0.19881
3513.66990,0.19919
3515.59837,0.19707
3517.52683,0.19534
3519.45530,0.19710
3521.38377,0.19904
3523.31224,0.19734
3525.24071,0.19374
3527.16918,0.19244
3529.09765,0.19131
3531.02611,0.18826
3532.95458,0.18500
3534.88305,0.18143
3536.81152,0.18063
3538.73999,0.18441
3540.66846,0.18686
3542.59693,0.18529
3544.52540,0.18313
3546.45386,0.18374
3548.38233,0.18707
3550.31080,0.19287
3552.23927,0.19839
3554.16774,0.19450
3556.09621,0.18265
3558.02468,0.17488
3559.95314,0.17552
3561.88161,0.18021
3563.81008,0.18508
3565.73855,0.18874
3567.66702,0.18812
3569.59549,0.18364
3571.52396,0.18056
3573.45243,0.17986
3575.38089,0.17849
3577.30936,0.17466
3579.23783,0.17152
3581.16630,0.16977
3583.09477,0.16646
3585.02324,0.16574
3586.95171,0.17357
3588.88017,0.17984
3590.80864,0.17702
3592.73711,0.17159
3594.66558,0.16368
3596.59405,0.15437
3598.52252,0.15128
3600.45099,0.15499
3602.37946,0.15885
3604.30792,0.16164
3606.23639,0.16467
3608.16486,0.16500
3610.09333,0.16264
3612.02180,0.16188
3613.95027,0.16311
3615.87874,0.16697
3617.80720,0.17353
3619.73567,0.17422
3621.66414,0.16528
3623.59261,0.15792
3625.52108,0.15870
3627.44955,0.16718
3629.37802,0.16912
3631.30649,0.16047
3633.23495,0.15886
3635.16342,0.15913
3637.09189,0.15441
3639.02036,0.15223
3640.94883,0.15584
3642.87730,0.15908
3644.80577,0.16115
3646.73423,0.16778
3648.66270,0.17734
3650.59117,0.17116
3652.51964,0.15822
3654.44811,0.15192
3656.37658,0.14914
3658.30505,0.14659
3660.23352,0.14613
3662.16198,0.14882
3664.09045,0.15202
3666.01892,0.15409
3667.94739,0.15715
3669.87586,0.15963
3671.80433,0.15704
3673.73280,0.15390
3675.66126,0.14930
3677.58973,0.14205
3679.51820,0.13681
3681.44667,0.13381
3683.37514,0.13311
3685.30361,0.13495
3687.23208,0.13897
3689.16055,0.14120
3691.08901,0.13860
3693.01748,0.13786
3694.94595,0.13997
3696.87442,0.14061
3698.80289,0.13999
3700.73136,0.14170
3702.65983,0.14290
3704.58829,0.14173
3706.51676,0.14446
3708.44523,0.15261
3710.37370,0.15786
3712.30217,0.15251
3714.23064,0.14452
3716.15911,0.13904
3718.08757,0.13738
3720.01604,0.14161
3721.94451,0.14777
3723.87298,0.14793
3725.80145,0.14280
3727.72992,0.13920
3729.65839,0.13898
3731.58686,0.14386
3733.51532,0.15199
3735.44379,0.15225
3737.37226,0.14614
3739.30073,0.14128
3741.22920,0.13638
3743.15767,0.13407
3745.08614,0.14184
3747.01460,0.15305
3748.94307,0.16241
3750.87154,0.16497
3752.80001,0.15402
3754.72848,0.14501
3756.65695,0.14121
3758.58542,0.14037
3760.51389,0.13917
3762.44235,0.13820
3764.37082,0.14358
3766.29929,0.15221
3768.22776,0.15667
3770.15623,0.15584
3772.08470,0.14828
3774.01317,0.14010
3775.94163,0.13764
3777.87010,0.14098
3779.79857,0.14506
3781.72704,0.14421
3783.65551,0.14170
3785.58398,0.14071
3787.51245,0.13891
3789.44092,0.13475
3791.36938,0.13170
3793.29785,0.13392
3795.22632,0.14015
3797.15479,0.14447
3799.08326,0.14487
3801.01173,0.14609
3802.94020,0.14688
3804.86866,0.14801
3806.79713,0.15135
3808.72560,0.14872
3810.65407,0.14384
3812.58254,0.14501
3814.51101,0.14916
3816.43948,0.14646
3818.36795,0.14039
3820.29641,0.14283
3822.22488,0.14689
3824.15335,0.14529
3826.08182,0.14651
3828.01029,0.14970
3829.93876,0.15074
3831.86723,0.15461
3833.79569,0.15992
3835.72416,0.15975
3837.65263,0.15604
3839.58110,0.15579
3841.50957,0.15575
3843.43804,0.14918
3845.36651,0.14440
3847.29498,0.14359
3849.22344,0.14000
3851.15191,0.13865
3853.08038,0.14680
3855.00885,0.14564
3856.93732,0.14003
3858.86579,0.14246
3860.79426,0.14663
3862.72272,0.14754
3864.65119,0.14550
3866.57966,0.14383
3868.50813,0.14595
3870.43660,0.14819
3872.36507,0.14487
3874.29354,0.13846
3876.22200,0.13681
3878.15047,0.14130
3880.07894,0.14329
3882.00741,0.13893
3883.93588,0.13304
3885.86435,0.12792
3887.79282,0.12928
3889.72129,0.13439
3891.64975,0.13632
3893.57822,0.13520
3895.50669,0.13378
3897.43516,0.13366
3899.36363,0.13651
3901.29210,0.13933
3903.22057,0.14145
3905.14903,0.14004
3907.07750,0.13188
3909.00597,0.12329
3910.93444,0.11907
3912.86291,0.12179
3914.79138,0.12778
3916.71985,0.12925
3918.64832,0.12801
3920.57678,0.12822
3922.50525,0.12720
3924.43372,0.12609
3926.36219,0.12720
3928.29066,0.12867
3930.21913,0.12707
3932.14760,0.12023
3934.07606,0.11444
3936.00453,0.11534
3937.93300,0.11780
3939.86147,0.11646
3941.78994,0.11320
3943.71841,0.11427
3945.64688,0.12093
3947.57535,0.12700
3949.50381,0.12683
3951.43228,0.12191
3953.36075,0.11856
3955.28922,0.11834
3957.21769,0.11821
3959.14616,0.11874
3961.07463,0.12027
3963.00309,0.11966
3964.93156,0.11938
3966.86003,0.12138
3968.78850,0.12325
3970.71697,0.12557
3972.64544,0.12834
3974.57391,0.12709
3976.50238,0.12229
3978.43084,0.12123
3980.35931,0.12197
3982.28778,0.12077
3984.21625,0.11997
3986.14472,0.11714
3988.07319,0.11266
3990.00166,0.11092
3991.93012,0.11187
3993.85859,0.11206
3995.78706,0.11036
3997.71553,0.10953
3999.64400,0.11155
4001.57247,0.11468
4003.50094,0.11226
4005.42941,0.10549
4007.35787,0.10490
4009.28634,0.11078
4011.21481,0.11300
4013.14328,0.11098
4015.07175,0.11336
4017.00022,0.11841
4018.92869,0.12062
4020.85715,0.12162
4022.78562,0.12307
4024.71409,0.12356
4026.64256,0.11865
4028.57103,0.11163
4030.49950,0.11231
4032.42797,0.11603
4034.35644,0.11147
4036.28490,0.10411
4038.21337,0.10547
4040.14184,0.11312
4042.07031,0.11695
4043.99878,0.11578
4045.92725,0.11556
4047.85572,0.11215
4049.78418,0.10273
4051.71265,0.09882
4053.64112,0.10251
4055.56959,0.10586
4057.49806,0.10846
4059.42653,0.10979
4061.35500,0.10732
4063.28346,0.10592
4065.21193,0.10947
4067.14040,0.11231
4069.06887,0.10893
4070.99734,0.10122
4072.92581,0.09536
4074.85428,0.09572
4076.78275,0.09917
4078.71121,0.09872
4080.63968,0.09321
4082.56815,0.08871
4084.49662,0.09202
4086.42509,0.10051
4088.35356,0.10423
4090.28203,0.10336
4092.21049,0.10293
4094.13896,0.10300
4096.06743,0.10451
4097.99590,0.10494
4099.92437,0.10270
4101.85284,0.10113
4103.78131,0.09933
4105.70978,0.09765
4107.63824,0.09864
4109.56671,0.10032
4111.49518,0.10268
4113.42365,0.10507
4115.35212,0.10352
4117.28059,0.10070
4119.20906,0.09981
4121.13752,0.09906
4123.06599,0.10064
4124.99446,0.10573
4126.92293,0.10879
4128.85140,0.10753
4130.77987,0.10234
4132.70834,0.09402
4134.63681,0.08850
4136.56527,0.08918
4138.49374,0.09642
4140.42221,0.10526
4142.35068,0.10600
4144.27915,0.10236
4146.20762,0.10130
4148.13609,0.10002
4150.06455,0.09762
4151.99302,0.09809
4153.92149,0.10290
4155.84996,0.10714
4157.77843,0.10636
4159.70690,0.10250
4161.63537,0.09795
4163.56384,0.09187
4165.49230,0.08783
4167.42077,0.09025
4169.34924,0.09439
4171.27771,0.09528
4173.20618,0.09552
4175.13465,0.09472
4177.06312,0.08892
4178.99158,0.08403
4180.92005,0.08287
4182.84852,0.07767
4184.77699,0.07326
4186.70546,0.07721
4188.63393,0.08112
4190.56240,0.07823
4192.49087,0.07428
4194.41933,0.07446
4196.34780,0.07878
4198.27627,0.08651
4200.20474,0.09296
4202.13321,0.09401
4204.06168,0.09243
4205.99015,0.09120
4207.91861,0.08910
4209.84708,0.08366
4211.77555,0.08038
4213.70402,0.08402
4215.63249,0.08729
4217.56096,0.08770
4219.48943,0.08735
4221.41789,0.08482
4223.34636,0.08148
4225.27483,0.07811
4227.20330,0.07667
4229.13177,0.07903
4231.06024,0.08043
4232.98871,0.07578
4234.91718,0.06751
4236.84564,0.06458
4238.77411,0.06732
4240.70258,0.06862
4242.63105,0.06982
4244.55952,0.07249
4246.48799,0.07477
4248.41646,0.07732
4250.34492,0.07880
4252.27339,0.07700
4254.20186,0.07461
4256.13033,0.07583
4258.05880,0.07703
4259.98727,0.07641
4261.91574,0.07906
4263.84421,0.08011
4265.77267,0.07571
4267.70114,0.07351
4269.62961,0.07288
4271.55808,0.06757
4273.48655,0.06255
4275.41502,0.06267
4277.34349,0.06475
4279.27195,0.06735
4281.20042,0.06689
4283.12889,0.06307
4285.05736,0.06316
4286.98583,0.06503
4288.91430,0.06189
4290.84277,0.05610
4292.77124,0.05622
4294.69970,0.06561
4296.62817,0.07426
4298.55664,0.07290
4300.48511,0.06608
4302.41358,0.05928
4304.34205,0.05325
4306.27052,0.04939
4308.19898,0.04657
4310.12745,0.04701
4312.05592,0.05546
4313.98439,0.06732
4315.91286,0.07264
4317.84133,0.06444
4319.76980,0.05043
4321.69827,0.04494
4323.62673,0.04663
4325.55520,0.05090
4327.48367,0.05581
4329.41214,0.05573
4331.34061,0.05362
4333.26908,0.05622
4335.19755,0.05851
4337.12601,0.05678
4339.05448,0.05712
4340.98295,0.05879
4342.91142,0.05760
4344.83989,0.05537
4346.76836,0.05325
4348.69683,0.05193
4350.62530,0.05091
4352.55376,0.04893
4354.48223,0.04764
4356.41070,0.04582
4358.33917,0.04164
4360.26764,0.04016
4362.19611,0.04411
4364.12458,0.04693
4366.05304,0.04355
4367.98151,0.04140
4369.90998,0.04659
4371.83845,0.05279
4373.76692,0.05661
4375.69539,0.05753
4377.62386,0.05348
4379.55232,0.04632
4381.48079,0.04012
4383.40926,0.03736
4385.33773,0.03626
4387.26620,0.04023
4389.19467,0.05035
4391.12314,0.05780
4393.05161,0.06141
4394.98007,0.06090
4396.90854,0.05143
4398.83701,0.04068
4400.76548,0.03791
4402.69395,0.04054
4404.62242,0.04619
4406.55089,0.05157
4408.47935,0.05313
4410.40782,0.05286
4412.33629,0.05336
4414.26476,0.05479
4416.19323,0.05274
4418.12170,0.04840
4420.05017,0.04409
4421.97864,0.03668
4423.90710,0.03318
4425.83557,0.04080
4427.76404,0.05144
4429.69251,0.05182
4431.62098,0.04331
4433.54945,0.04079
4435.47792,0.04794
4437.40638,0.05429
4439.33485,0.05075
4441.26332,0.03882
4443.19179,0.02935
4445.12026,0.02793
4447.04873,0.03014
4448.97720,0.03112
4450.90567,0.03045
4452.83413,0.03239
4454.76260,0.03355
4456.69107,0.02726
4458.61954,0.02418
4460.54801,0.03183
4462.47648,0.03866
4464.40495,0.03653
4466.33341,0.02695
4468.26188,0.01882
4470.19035,0.02249
4472.11882,0.03292
4474.04729,0.03867
4475.97576,0.03733
4477.90423,0.03224
4479.83270,0.02813
4481.76116,0.02564
4483.68963,0.02419
4485.61810,0.02415
4487.54657,0.02012
4489.47504,0.01344
4491.40351,0.01589
4493.33198,0.02413
4495.26044,0.02557
4497.18891,0.02502
4499.11738,0.03037
4501.04585,0.03738
4502.97432,0.04041
4504.90279,0.03875
4506.83126,0.03314
4508.75973,0.02327
4510.68819,0.01545
4512.61666,0.01920
4514.54513,0.02958
4516.47360,0.03506
4518.40207,0.03572
4520.33054,0.03325
4522.25901,0.02823
4524.18747,0.02743
4526.11594,0.03240
4528.04441,0.03588
4529.97288,0.03236
4531.90135,0.02730
4533.82982,0.03003
4535.75829,0.03475
4537.68676,0.02756
4539.61522,0.01104
4541.54369,-0.00027
4543.47216,-0.00238
4545.40063,0.00141
4547.32910,0.00792
4549.25757,0.01304
4551.18604,0.01739
4553.11450,0.02189
4555.04297,0.02291
4556.97144,0.01960
4558.89991,0.01262
4560.82838,0.00262
4562.75685,-0.00280
4564.68532,-0.00218
4566.61378,0.00007
4568.54225,0.00862
4570.47072,0.01633
4572.39919,0.01244
4574.32766,0.00692
4576.25613,0.00860
4578.18460,0.01343
4580.11307,0.01421
4582.04153,0.00967
4583.97000,0.00642
4585.89847,0.00676
4587.82694,0.00891
4589.75541,0.01356
4591.68388,0.01775
4593.61235,0.01669
4595.54081,0.01348
4597.46928,0.01159
4599.39775,0.00840
4601.32622,0.00696
4603.25469,0.01163
4605.18316,0.01872
4607.11163,0.02590
4609.04010,0.02916
4610.96856,0.02409
4612.89703,0.01651
4614.82550,0.01100
4616.75397,0.00780
4618.68244,0.00947
4620.61091,0.01265
4622.53938,0.01307
4624.46784,0.01404
4626.39631,0.01221
4628.32478,0.00486
4630.25325,0.00208
4632.18172,0.00308
4634.11019,0.00149
4636.03866,0.00336
4637.96713,0.01021
4639.89559,0.01573
4641.82406,0.01650
4643.75253,0.00985
4645.68100,0.00178
4647.60947,0.00365
4649.53794,0.00601
4651.46641,-0.00216
4653.39487,-0.00927
4655.32334,-0.00816
4657.25181,-0.00219
4659.18028,0.00656
4661.10875,0.01441
4663.03722,0.01907
4664.96569,0.02282
4666.89416,0.02541
4668.82262,0.02019
4670.75109,0.00894
4672.67956,0.00498
4674.60803,0.00833
4676.53650,0.00933
4678.46497,0.01155
4680.39344,0.01361
4682.32190,0.00851
4684.25037,0.00390
4686.17884,0.00723
4688.10731,0.01961
4690.03578,0.02673
4691.96425,0.01254
4693.89272,-0.00690
4695.82119,-0.01453
4697.74965,-0.01608
4699.67812,-0.01240
4701.60659,-0.00197
4703.53506,0.00212
4705.46353,-0.00383
4707.39200,-0.00511
4709.32047,0.00038
4711.24893,0.00282
4713.17740,0.00433
4715.10587,0.00899
4717.03434,0.00670
4718.96281,-0.00489
4720.89128,-0.01045
4722.81975,-0.00511
4724.74821,0.00242
4726.67668,0.00919
4728.60515,0.01393
4730.53362,0.01300
4732.46209,0.00859
4734.39056,0.00768
4736.31903,0.00716
4738.24750,0.00419
4740.17596,0.01199
4742.10443,0.02281
4744.03290,0.01540
4745.96137,0.00551
4747.88984,0.01371
4749.81831,0.02735
4751.74678,0.02380
4753.67524,0.00558
4755.60371,-0.00388
4757.53218,0.00003
4759.46065,-0.00153
4761.38912,-0.00933
4763.31759,-0.00852
4765.24606,0.00216
4767.17453,0.01379
4769.10299,0.01615
4771.03146,0.00873
4772.95993,0.00071
4774.88840,-0.00481
4776.81687,-0.00235
4778.74534,0.01091
4780.67381,0.02080
4782.60227,0.01953
4784.53074,0.01538
4786.45921,0.01175
4788.38768,0.00678
4790.31615,0.00249
4792.24462,0.00464
4794.17309,0.01088
4796.10156,0.01648
4798.03002,0.02113
4799.95849,0.02227
4801.88696,0.01618
4803.81543,0.00437
4805.74390,-0.00373
4807.67237,-0.00133
4809.60084,0.00808
4811.52930,0.01495
4813.45777,0.01437
4815.38624,0.00574
4817.31471,-0.01085
4819.24318,-0.01562
4821.17165,0.00343
4823.10012,0.02139
4825.02859,0.01874
4826.95705,0.00778
4828.88552,0.00749
4830.81399,0.01394
4832.74246,0.00966
4834.67093,-0.00177
4836.59940,-0.00306
4838.52787,0.00108
4840.45633,-0.00342
4842.38480,-0.01548
4844.31327,-0.02596
4846.24174,-0.02444
4848.17021,-0.01552
4850.09868,-0.01096
4852.02715,-0.00639
4853.95562,0.00107
4855.88408,0.00289
4857.81255,-0.00142
4859.74102,-0.00117
4861.66949,0.01013
4863.59796,0.02511
4865.52643,0.02670
4867.45490,0.01238
4869.38336,0.00436
4871.31183,0.01068
4873.24030,0.02153
4875.16877,0.02704
4877.09724,0.01455
4879.02571,-0.00246
4880.95418,0.00153
4882.88265,0.01693
4884.81111,0.02477
4886.73958,0.02569
4888.66805,0.02999
4890.59652,0.03647
4892.52499,0.02805
4894.45346,0.00650
4896.38193,-0.00427
4898.31039,0.00763
4900.23886,0.02844
4902.16733,0.03687
4904.09580,0.03094
4906.02427,0.02121
4907.95274,0.00713
4909.88121,-0.01049
4911.80967,-0.01721
4913.73814,-0.00739
4915.66661,0.00626
4917.59508,0.01813
4919.52355,0.02619
4921.45202,0.02586
4923.38049,0.02164
4925.30896,0.01163
4927.23742,-0.00223
4929.16589,-0.00480
4931.09436,0.00451
4933.02283,0.01377
4934.95130,0.01830
4936.87977,0.01458
4938.80824,0.00090
4940.73670,-0.00819
4942.66517,-0.00533
4944.59364,-0.00062
4946.52211,0.00238
4948.45058,0.00376
4950.37905,0.00504
4952.30752,0.00841
4954.23599,0.00836
4956.16445,0.00682
4958.09292,0.00594
4960.02139,-0.00035
4961.94986,-0.00685
4963.87833,-0.00701
4965.80680,-0.00203
4967.73527,0.00291
4969.66373,0.00207
4971.59220,-0.00157
4973.52067,0.00417
4975.44914,0.02290
4977.37761,0.03516
4979.30608,0.02940
4981.23455,0.01042
4983.16302,-0.01492
4985.09148,-0.02930
4987.01995,-0.02405
4988.94842,-0.01229
4990.87689,-0.00596
4992.80536,-0.00157
4994.73383,0.00567
4996.66230,0.01020
4998.59076,0.00859
5000.51923,0.00730
5002.44770,0.00828
5004.37617,0.00934
5006.30464,0.01366
5008.23311,0.01973
5010.16158,0.02447
5012.09005,0.02188
5014.01851,0.00763
5015.94698,-0.00146
5017.87545,0.01084
5019.80392,0.02773
5021.73239,0.02708
5023.66086,0.01465
5025.58933,0.00768
5027.51779,0.01322
5029.44626,0.02282
5031.37473,0.02712
5033.30320,0.02685
5035.23167,0.02271
5037.16014,0.01740
5039.08861,0.02505
5041.01708,0.04456
5042.94554,0.05044
5044.87401,0.04025
5046.80248,0.02979
5048.73095,0.02840
5050.65942,0.03735
5052.58789,0.03972
5054.51636,0.02702
5056.44482,0.01362
5058.37329,0.00784
5060.30176,0.00989
5062.23023,0.02028
5064.15870,0.02957
5066.08717,0.02983
5068.01564,0.02527
5069.94410,0.02112
5071.87257,0.01931
5073.80104,0.01548
5075.72951,0.01146
5077.65798,0.02143
5079.58645,0.04681
5081.51492,0.06303
5083.44339,0.05451
5085.37185,0.03685
5087.30032,0.02369
5089.22879,0.01704
5091.15726,0.01465
5093.08573,0.01147
5095.01420,0.01190
5096.94267,0.01697
5098.87113,0.01890
5100.79960,0.01926
5102.72807,0.02211
5104.65654,0.02063
5106.58501,0.01425
5108.51348,0.01764
5110.44195,0.03302
5112.37042,0.04539
5114.29888,0.04672
5116.22735,0.04481
5118.15582,0.05531
5120.08429,0.07181
5122.01276,0.07388
5123.94123,0.07408
5125.86970,0.08321
5127.79816,0.07690
5129.72663,0.04890
5131.65510,0.02832
5133.58357,0.03505
5135.51204,0.05316
5137.44051,0.05864
5139.36898,0.04946
5141.29745,0.03008
5143.22591,0.01472
5145.15438,0.02547
5147.08285,0.04293
5149.01132,0.03989
5150.93979,0.03874
5152.86826,0.05004
5154.79673,0.04903
5156.72519,0.03200
5158.65366,0.01754
5160.58213,0.01158
5162.51060,0.01921
5164.43907,0.04436
5166.36754,0.05609
5168.29601,0.03946
5170.22448,0.02832
5172.15294,0.03911
5174.08141,0.05763
5176.00988,0.07003
5177.93835,0.06568
5179.86682,0.05462
5181.79529,0.04938
5183.72376,0.04283
5185.65222,0.03593
5187.58069,0.03171
5189.50916,0.02978
5191.43763,0.03733
5193.36610,0.04755
5195.29457,0.05205
5197.22304,0.05599
5199.15151,0.06114
5201.07997,0.05922
5203.00844,0.04708
5204.93691,0.03234
5206.86538,0.02030
5208.79385,0.01613
5210.72232,0.01930
5212.65079,0.02249
5214.57925,0.02599
5216.50772,0.03666
5218.43619,0.05335
5220.36466,0.06548
5222.29313,0.06618
5224.22160,0.05551
5226.15007,0.05590
5228.07854,0.08314
5230.00700,0.10129
5231.93547,0.08229
5233.86394,0.05397
5235.79241,0.04860
5237.72088,0.04456
5239.64935,0.02350
5241.57782,0.01390
5243.50628,0.03082
5245.43475,0.05219
5247.36322,0.06495
5249.29169,0.06673
5251.22016,0.04647
5253.14863,0.02497
5255.07710,0.03215
5257.00556,0.04946
5258.93403,0.05664
5260.86250,0.05209
5262.79097,0.03217
5264.71944,0.02359
5266.64791,0.03890
5268.57638,0.04850
5270.50485,0.04489
5272.43331,0.05059
5274.36178,0.07519
5276.29025,0.08732
5278.21872,0.06330
5280.14719,0.03377
5282.07566,0.02998
5284.00413,0.04122
5285.93259,0.04622
5287.86106,0.03987
5289.78953,0.03455
5291.71800,0.03599
5293.64647,0.03475
5295.57494,0.03899
5297.50341,0.05127
5299.43188,0.05185
5301.36034,0.04271
5303.28881,0.04120
5305.21728,0.04777
5307.14575,0.05848
5309.07422,0.06961
5311.00269,0.07604
5312.93116,0.08292
5314.85962,0.09687
5316.78809,0.10289
5318.71656,0.08366
5320.64503,0.06018
5322.57350,0.05192
5324.50197,0.04825
5326.43044,0.04607
5328.35891,0.04980
5330.28737,0.05629
5332.21584,0.06625
5334.14431,0.07645
5336.07278,0.08241
5338.00125,0.08352
5339.92972,0.07978
5341.85819,0.07848
5343.78665,0.07188
5345.71512,0.05445
5347.64359,0.05206
5349.57206,0.05795
5351.50053,0.04652
5353.42900,0.03109
5355.35747,0.03884
5357.28594,0.06017
5359.21440,0.07503
5361.14287,0.07669
5363.07134,0.06958
5364.99981,0.06375
5366.92828,0.06363
5368.85675,0.05981
5370.78522,0.04519
5372.71368,0.02803
5374.64215,0.02161
5376.57062,0.03836
5378.49909,0.06506
5380.42756,0.07849
5382.35603,0.07952
5384.28450,0.06115
5386.21297,0.02941
5388.14143,0.02646
5390.06990,0.04708
5391.99837,0.05586
5393.92684,0.04414
5395.85531,0.02742
5397.78378,0.02557
5399.71225,0.03098
5401.64071,0.02892
5403.56918,0.03708
5405.49765,0.05643
5407.42612,0.06696
5409.35459,0.07026
5411.28306,0.06514
5413.21153,0.05388
5415.13999,0.05384
5417.06846,0.06178
5418.99693,0.07648
5420.92540,0.10128
5422.85387,0.10780
5424.78234,0.08954
5426.71081,0.07539
5428.63928,0.06192
5430.56774,0.06043
5432.49621,0.08277
5434.42468,0.07828
5436.35315,0.04483
5438.28162,0.04171
5440.21009,0.07211
5442.13856,0.10059
5444.06702,0.09829
5445.99549,0.07853
5447.92396,0.06964
5449.85243,0.05939
5451.78090,0.04571
5453.70937,0.05308
5455.63784,0.08015
5457.56631,0.09820
5459.49477,0.09632
5461.42324,0.08104
5463.35171,0.05217
5465.28018,0.04004
5467.20865,0.07287
5469.13712,0.11866
5471.06559,0.13002
5472.99405,0.10168
5474.92252,0.05555
5476.85099,0.03773
5478.77946,0.05146
5480.70793,0.06256
5482.63640,0.07196
5484.56487,0.08334
5486.49334,0.09146
5488.42180,0.09180
5490.35027,0.07907
5492.27874,0.07358
5494.20721,0.08916
5496.13568,0.10017
5498.06415,0.09573
5499.99262,0.07939
5501.92108,0.05092
5503.84955,0.03441
5505.77802,0.04261
5507.70649,0.04553
5509.63496,0.03733
5511.56343,0.03968
5513.49190,0.04666
5515.42037,0.05226
5517.34883,0.06231
5519.27730,0.06940
5521.20577,0.08384
5523.13424,0.11214
5525.06271,0.12441
5526.99118,0.10240
5528.91965,0.06374
5530.84811,0.05165
5532.77658,0.07839
5534.70505,0.10591
5536.63352,0.09756
5538.56199,0.05941
5540.49046,0.04161
5542.41893,0.06470
5544.34740,0.09385
5546.27586,0.09977
5548.20433,0.08901
5550.13280,0.07323
5552.06127,0.05173
5553.98974,0.04309
5555.91821,0.05663
5557.84668,0.07909
5559.77514,0.11067
5561.70361,0.13194
5563.63208,0.11651
5565.56055,0.08993
5567.48902,0.08449
5569.41749,0.09352
5571.34596,0.10312
5573.27443,0.10414
5575.20289,0.09501
5577.13136,0.09199
5579.05983,0.10415
5580.98830,0.11837
5582.91677,0.10512
5584.84524,0.06590
5586.77371,0.04459
5588.70217,0.06142
5590.63064,0.09168
5592.55911,0.10590
5594.48758,0.09096
5596.41605,0.06881
5598.34452,0.06909
5600.27299,0.07486
5602.20145,0.07155
5604.12992,0.06420
5606.05839,0.05603
5607.98686,0.06410
5609.91533,0.08379
5611.84380,0.09738
5613.77227,0.10149
5615.70074,0.09318
5617.62920,0.08285
5619.55767,0.08802
5621.48614,0.09788
5623.41461,0.09245
5625.34308,0.09704
5627.27155,0.11697
5629.20002,0.10931
5631.12848,0.08532
5633.05695,0.06310
5634.98542,0.04198
5636.91389,0.05374
5638.84236,0.09102
5640.77083,0.10473
5642.69930,0.10362
5644.62777,0.11788
5646.55623,0.12554
5648.48470,0.11634
5650.41317,0.11537
5652.34164,0.10653
5654.27011,0.08720
5656.19858,0.08307
5658.12705,0.08702
5660.05551,0.09115
5661.98398,0.08353
5663.91245,0.06158
5665.84092,0.05301
5667.76939,0.06572
5669.69786,0.09208
5671.62633,0.11478
5673.55480,0.11848
5675.48326,0.11566
5677.41173,0.12432
5679.34020,0.14117
5681.26867,0.14046
5683.19714,0.11577
5685.12561,0.09085
5687.05408,0.06998
5688.98254,0.03872
5690.91101,0.01611
5692.83948,0.02163
5694.76795,0.02756
5696.69642,0.03747
5698.62489,0.07806
5700.55336,0.10397
5702.48183,0.08660
5704.41029,0.06944
5706.33876,0.07357
5708.26723,0.08676
5710.19570,0.09651
5712.12417,0.09177
5714.05264,0.07886
5715.98111,0.08332
5717.90957,0.11263
5719.83804,0.13102
5721.76651,0.11598
5723.69498,0.09768
5725.62345,0.09165
5727.55192,0.07608
5729.48039,0.05229
5731.40886,0.04420
5733.33732,0.05189
5735.26579,0.07278
5737.19426,0.09620
5739.12273,0.09958
5741.05120,0.09725
5742.97967,0.10098
5744.90814,0.09162
5746.83660,0.07075
5748.76507,0.06476
5750.69354,0.07031
5752.62201,0.05164
5754.55048,0.02443
5756.47895,0.03984
5758.40742,0.08044
5760.33588,0.08967
5762.26435,0.08854
5764.19282,0.12682
5766.12129,0.16091
5768.04976,0.15241
5769.97823,0.12239
5771.90670,0.09538
5773.83517,0.09281
5775.76363,0.09371
5777.69210,0.05730
5779.62057,0.00662
5781.54904,0.00917
5783.47751,0.05557
5785.40598,0.07072
5787.33445,0.05881
5789.26291,0.07655
5791.19138,0.12016
5793.11985,0.14862
5795.04832,0.12658
5796.97679,0.07763
5798.90526,0.06692
5800.83373,0.10937
5802.76220,0.16605
5804.69066,0.16690
5806.61913,0.10820
5808.54760,0.07805
5810.47607,0.08696
5812.40454,0.06656
5814.33301,0.01975
5816.26148,0.01788
5818.18994,0.06914
5820.11841,0.11327
5822.04688,0.11963
5823.97535,0.09871
5825.90382,0.08463
5827.83229,0.10963
5829.76076,0.15586
5831.68923,0.17400
5833.61769,0.14234
5835.54616,0.10539
5837.47463,0.11266
5839.40310,0.12101
5841.33157,0.08625
5843.26004,0.06338
5845.18851,0.08290
5847.11697,0.08831
5849.04544,0.07553
5850.97391,0.08301
5852.90238,0.06860
5854.83085,0.01393
5856.75932,-0.01194
5858.68779,0.01623
5860.61626,0.04484
5862.54472,0.05702
5864.47319,0.07283
5866.40166,0.06982
5868.33013,0.04182
5870.25860,0.03583
5872.18707,0.06625
5874.11554,0.08910
5876.04400,0.08253
5877.97247,0.08247
5879.90094,0.09591
5881.82941,0.09547
5883.75788,0.08826
5885.68635,0.09881
5887.61482,0.13583
5889.54329,0.17694
5891.47175,0.18241
5893.40022,0.15391
5895.32869,0.11696
5897.25716,0.07796
5899.18563,0.04435
5901.11410,0.03159
5903.04257,0.04709
5904.97103,0.08475
5906.89950,0.15308
5908.82797,0.22214
5910.75644,0.22475
5912.68491,0.18296
5914.61338,0.13248
5916.54185,0.08886
5918.47032,0.09058
5920.39878,0.11059
5922.32725,0.09870
5924.25572,0.07848
5926.18419,0.07526
5928.11266,0.08178
5930.04113,0.09062
5931.96960,0.09635
5933.89806,0.10159
5935.82653,0.09333
5937.75500,0.06766
5939.68347,0.07606
5941.61194,0.14294
5943.54041,0.19464
5945.46888,0.15973
5947.39734,0.08746
5949.32581,0.06784
5951.25428,0.08865
5953.18275,0.09420
5955.11122,0.11134
5957.03969,0.14778
5958.96816,0.15614
5960.89663,0.13040
5962.82509,0.09196
5964.75356,0.06075
5966.68203,0.05491
5968.61050,0.07287
5970.53897,0.10629
5972.46744,0.13507
5974.39591,0.13512
5976.32437,0.11007
5978.25284,0.07317
5980.18131,0.04138
5982.10978,0.04929
5984.03825,0.10171
5985.96672,0.14133
5987.89519,0.12935
5989.82366,0.09159
5991.75212,0.06838
5993.68059,0.07933
5995.60906,0.09794
5997.53753,0.10454
5999.46600,0.11446
6001.39447,0.10722
6003.32294,0.08410
6005.25140,0.09340
6007.17987,0.13247
6009.10834,0.15047
6011.03681,0.14156
6012.96528,0.13655
6014.89375,0.13691
6016.82222,0.15343
6018.75069,0.18921
6020.67915,0.20507
6022.60762,0.19100
6024.53609,0.16079
6026.46456,0.14302
6028.39303,0.14794
6030.32150,0.14083
6032.24997,0.12878
6034.17843,0.14869
6036.10690,0.16842
6038.03537,0.13246
6039.96384,0.06904
6041.89231,0.04790
6043.82078,0.07394
6045.74925,0.09225
6047.67772,0.11707
6049.60618,0.17265
6051.53465,0.20132
6053.46312,0.17821
6055.39159,0.12592
6057.32006,0.09668
6059.24853,0.13242
6061.17700,0.16269
6063.10546,0.09485
6065.03393,-0.00727
6066.96240,-0.03641
6068.89087,-0.02076
6070.81934,0.00983
6072.74781,0.09123
6074.67628,0.15439
6076.60475,0.09278
6078.53321,-0.00418
6080.46168,-0.00594
6082.39015,0.05407
6084.31862,0.11534
6086.24709,0.15294
6088.17556,0.12366
6090.10403,0.05282
6092.03249,0.02488
6093.96096,0.06047
6095.88943,0.09431
6097.81790,0.07949
6099.74637,0.04824
6101.67484,0.06272
6103.60331,0.11298
6105.53177,0.13738
6107.46024,0.14092
6109.38871,0.14334
6111.31718,0.13017
6113.24565,0.11060
6115.17412,0.08035
6117.10259,0.05067
6119.03106,0.06099
6120.95952,0.10539
6122.88799,0.15632
6124.81646,0.16637
6126.74493,0.09187
6128.67340,0.01456
6130.60187,0.01851
6132.53034,0.05051
6134.45880,0.08367
6136.38727,0.10913
6138.31574,0.09820
6140.24421,0.08568
6142.17268,0.09485
6144.10115,0.09111
6146.02962,0.07961
6147.95809,0.08311
6149.88655,0.10966
6151.81502,0.16316
6153.74349,0.19078
6155.67196,0.15627
6157.60043,0.11603
6159.52890,0.12218
6161.45737,0.15730
6163.38583,0.16838
6165.31430,0.13682
6167.24277,0.08569
6169.17124,0.04514
6171.09971,0.03246
6173.02818,0.05642
6174.95665,0.10016
6176.88512,0.11199
6178.81358,0.07883
6180.74205,0.04627
6182.67052,0.04611
6184.59899,0.06025
6186.52746,0.07316
6188.45593,0.10197
6190.38440,0.11545
6192.31286,0.07058
6194.24133,0.03764
6196.16980,0.09200
6198.09827,0.17459
6200.02674,0.20093
6201.95521,0.15941
6203.88368,0.09191
6205.81215,0.07642
6207.74061,0.10658
6209.66908,0.09629
6211.59755,0.05586
6213.52602,0.06369
6215.45449,0.09971
6217.38296,0.11346
6219.31143,0.10621
6221.23989,0.10441
6223.16836,0.10941
6225.09683,0.12441
6227.02530,0.14934
6228.95377,0.13268
6230.88224,0.09123
6232.81071,0.10766
6234.73918,0.14301
6236.66764,0.13920
6238.59611,0.14492
6240.52458,0.18790
6242.45305,0.21287
6244.38152,0.18320
6246.30999,0.15073
6248.23846,0.14305
6250.16692,0.12998
6252.09539,0.10617
6254.02386,0.07768
6255.95233,0.05043
6257.88080,0.03630
6259.80927,0.04359
6261.73774,0.07883
6263.66621,0.15252
6265.59467,0.21352
6267.52314,0.16876
6269.45161,0.08517
6271.38008,0.06410
6273.30855,0.07860
6275.23702,0.06473
6277.16549,0.03433
6279.09395,0.03077
6281.02242,0.06752
6282.95089,0.10359
6284.87936,0.06167
6286.80783,0.01365
6288.73630,0.04787
6290.66477,0.09497
6292.59323,0.12236
6294.52170,0.14379
6296.45017,0.11190
6298.37864,0.04457
6300.30711,-0.00526
6302.23558,-0.00734
6304.16405,0.05731
6306.09252,0.12821
6308.02098,0.16371
6309.94945,0.16626
6311.87792,0.11944
6313.80639,0.06570
6315.73486,0.05425
6317.66333,0.06616
6319.59180,0.08833
6321.52026,0.13365
6323.44873,0.16181
6325.37720,0.14107
6327.30567,0.11272
6329.23414,0.11015
6331.16261,0.11491
6333.09108,0.09724
6335.01955,0.08618
6336.94801,0.09623
6338.87648,0.09538
6340.80495,0.08339
6342.73342,0.09059
6344.66189,0.11030
6346.59036,0.07951
6348.51883,0.02344
6350.44729,0.02365
6352.37576,0.05366
6354.30423,0.06215
6356.23270,0.06843
6358.16117,0.10817
6360.08964,0.17346
6362.01811,0.22037
6363.94658,0.19546
6365.87504,0.10914
6367.80351,0.07015
6369.73198,0.11518
6371.66045,0.16800
6373.58892,0.15529
6375.51739,0.10718
6377.44586,0.09308
6379.37432,0.09362
6381.30279,0.08943
6383.23126,0.11042
6385.15973,0.14542
6387.08820,0.16441
6389.01667,0.13691
6390.94514,0.04906
6392.87361,-0.00161
6394.80207,0.02864
6396.73054,0.04299
6398.65901,0.01910
6400.58748,-0.00135
6402.51595,0.00686
6404.44442,0.02557
6406.37289,0.03795
6408.30135,0.04357
6410.22982,0.05296
6412.15829,0.06520
6414.08676,0.05386
6416.01523,0.04962
6417.94370,0.08246
6419.87217,0.10125
6421.80064,0.10892
6423.72910,0.14150
6425.65757,0.15027
6427.58604,0.12319
6429.51451,0.11255
6431.44298,0.11104
6433.37145,0.07532
6435.29992,-0.00876
6437.22838,-0.07656
6439.15685,-0.03219
6441.08532,0.06136
6443.01379,0.08794
6444.94226,0.04315
6446.87073,0.00229
6448.79920,0.00783
6450.72766,0.06189
6452.65613,0.11474
6454.58460,0.11028
6456.51307,0.07278
6458.44154,0.06078
6460.37001,0.07255
6462.29848,0.09070
6464.22695,0.10909
6466.15541,0.14676
6468.08388,0.21030
6470.01235,0.21550
6471.94082,0.12632
6473.86929,0.04557
6475.79776,0.04512
6477.72623,0.06837
6479.65469,0.05299
6481.58316,0.05434
6483.51163,0.09749
6485.44010,0.10685
6487.36857,0.06194
6489.29704,0.01688
6491.22551,-0.00299
6493.15398,0.01835
6495.08244,0.05862
6497.01091,0.06490
6498.93938,0.06562
6500.86785,0.05752
6502.79632,0.02292
6504.72479,0.04815
6506.65326,0.13443
6508.58172,0.17632
6510.51019,0.15155
6512.43866,0.12422
6514.36713,0.13035
6516.29560,0.14212
6518.22407,0.12701
6520.15254,0.10587
6522.08101,0.08063
6524.00947,0.05598
6525.93794,0.06697
6527.86641,0.08300
6529.79488,0.09360
6531.72335,0.08884
6533.65182,0.03723
6535.58029,0.02324
6537.50875,0.07551
6539.43722,0.10836
6541.36569,0.11779
6543.29416,0.13024
6545.22263,0.13925
6547.15110,0.14519
6549.07957,0.16186
6551.00804,0.18435
6552.93650,0.17645
6554.86497,0.15637
6556.79344,0.14110
6558.72191,0.10191
6560.65038,0.07921
6562.57885,0.14589
6564.50732,0.22968
6566.43578,0.18276
6568.36425,0.08069
6570.29272,0.07295
6572.22119,0.11707
6574.14966,0.10879
6576.07813,0.07065
6578.00660,0.09138
6579.93507,0.17268
6581.86353,0.26088
6583.79200,0.25582
6585.72047,0.12789
6587.64894,0.03551
6589.57741,0.02067
6591.50588,-0.00600
6593.43435,-0.02607
6595.36281,-0.00904
6597.29128,-0.00395
6599.21975,-0.01181
6601.14822,0.00308
6603.07669,0.04206
6605.00516,0.09179
6606.93363,0.14840
6608.86210,0.16934
6610.79056,0.13715
6612.71903,0.09645
6614.64750,0.05141
6616.57597,0.01102
6618.50444,0.00461
6620.43291,0.01047
6622.36138,0.01616
6624.28984,0.01338
6626.21831,0.03503
6628.14678,0.09253
6630.07525,0.10565
6632.00372,0.07767
6633.93219,0.07911
6635.86066,0.11593
6637.78912,0.10417
6639.71759,0.05360
6641.64606,0.08477
6643.57453,0.12515
6645.50300,0.04296
6647.43147,-0.05062
6649.35994,-0.02621
6651.28841,0.05044
6653.21687,0.07178
6655.14534,0.05760
6657.07381,0.09517
6659.00228,0.11593
6660.93075,0.06229
6662.85922,0.05451
6664.78769,0.11022
6666.71615,0.15583
6668.64462,0.20569
6670.57309,0.29509
6672.50156,0.34250
6674.43003,0.20854
6676.35850,0.01979
6678.28697,-0.02843
6680.21544,-0.00676
6682.14390,-0.00410
6684.07237,0.01364
6686.00084,0.05881
6687.92931,0.10133
6689.85778,0.08221
6691.78625,0.00038
6693.71472,-0.06054
6695.64318,-0.04990
6697.57165,0.00341
6699.50012,0.06199
6701.42859,0.12014
6703.35706,0.14081
6705.28553,0.12724
6707.21400,0.12714
6709.14247,0.09220
6711.07093,-0.01376
6712.99940,-0.08770
6714.92787,-0.07642
6716.85634,-0.01847
6718.78481,0.08577
6720.71328,0.20332
6722.64175,0.22513
6724.57021,0.14695
6726.49868,0.05839
6728.42715,-0.00409
6730.35562,-0.04354
6732.28409,-0.03568
6734.21256,0.02193
6736.14103,0.06371
6738.06950,0.07084
6739.99796,0.07306
6741.92643,0.05264
6743.85490,0.03563
6745.78337,0.05764
6747.71184,0.07782
6749.64031,0.08568
6751.56878,0.09409
6753.49724,0.08107
6755.42571,0.10453
6757.35418,0.16987
6759.28265,0.12628
6761.21112,-0.00103
6763.13959,0.00625
6765.06806,0.08202
6766.99653,0.06196
6768.92499,-0.01262
6770.85346,-0.02149
6772.78193,0.01414
6774.71040,-0.00949
6776.63887,-0.06571
6778.56734,-0.04001
6780.49581,0.05749
6782.42427,0.12549
6784.35274,0.09825
6786.28121,0.02511
6788.20968,0.00190
6790.13815,0.06635
6792.06662,0.13811
6793.99509,0.14789
6795.92355,0.17953
6797.85202,0.26686
6799.78049,0.32491
6801.70896,0.28226
6803.63743,0.18566
6805.56590,0.12412
6807.49437,0.09594
6809.42284,0.08445
6811.35130,0.12569
6813.27977,0.21841
6815.20824,0.26660
6817.13671,0.24074
6819.06518,0.21562
6820.99365,0.19602
6822.92212,0.13027
6824.85058,0.03715
6826.77905,-0.02726
6828.70752,-0.02459
6830.63599,0.02918
6832.56446,0.05611
6834.49293,0.07769
6836.42140,0.15198
6838.34987,0.19547
6840.27833,0.17824
6842.20680,0.18001
6844.13527,0.15803
6846.06374,0.08182
6847.99221,0.01346
6849.92068,0.00540
6851.84915,0.09454
6853.77761,0.20168
6855.70608,0.22241
6857.63455,0.17526
6859.56302,0.09999
6861.49149,0.01158
6863.41996,-0.01358
6865.34843,0.01396
6867.27690,0.00589
6869.20536,-0.01481
6871.13383,-0.00532
6873.06230,0.02897
6874.99077,0.06597
6876.91924,0.05977
6878.84771,0.02486
6880.77618,0.03774
6882.70464,0.12302
6884.63311,0.20389
6886.56158,0.19366
6888.49005,0.12068
6890.41852,0.07360
6892.34699,0.07808
6894.27546,0.09357
6896.20393,0.06400
6898.13239,0.00469
6900.06086,-0.02196
6901.98933,-0.00452
6903.91780,0.08156
6905.84627,0.24720
6907.77474,0.37115
6909.70321,0.31480
6911.63167,0.14422
6913.56014,0.02225
6915.48861,-0.03885
6917.41708,-0.03515
6919.34555,0.04893
6921.27402,0.06602
6923.20249,0.02630
6925.13096,0.00573
6927.05942,-0.03333
6928.98789,-0.05843
6930.91636,-0.04695
6932.84483,-0.03665
6934.77330,-0.00709
6936.70177,0.01273
6938.63024,0.00897
6940.55870,0.05271
6942.48717,0.10700
6944.41564,0.04658
6946.34411,-0.06741
6948.27258,-0.07561
6950.20105,-0.02118
6952.12952,0.02291
6954.05799,0.11497
6955.98645,0.19828
6957.91492,0.14466
6959.84339,0.03862
6961.77186,-0.00276
6963.70033,-0.00056
6965.62880,0.01678
6967.55727,0.05358
6969.48573,0.07073
6971.41420,0.06263
6973.34267,0.05498
6975.27114,0.00865
6977.19961,0.00476
6979.12808,0.13864
6981.05655,0.29359
6982.98501,0.29598
6984.91348,0.12989
6986.84195,0.01492
6988.77042,0.08206
6990.69889,0.19389
6992.62736,0.21844
6994.55583,0.15529
6996.48430,0.06868
6998.41276,0.01709
7000.34123,-0.01377
7002.26970,-0.03274
7004.19817,0.00347
7006.12664,0.09712
7008.05511,0.17866
7009.98358,0.20010
7011.91204,0.14980
7013.84051,0.05740
7015.76898,0.03374
7017.69745,0.08882
7019.62592,0.12930
7021.55439,0.15068
7023.48286,0.18847
7025.41133,0.18432
7027.33979,0.12408
7029.26826,0.07484
7031.19673,0.08702
7033.12520,0.10171
7035.05367,0.10997
7036.98214,0.16368
7038.91061,0.17918
7040.83907,0.09157
7042.76754,-0.01678
7044.69601,-0.00158
7046.62448,0.08557
7048.55295,0.11667
7050.48142,0.11335
7052.40989,0.09060
7054.33836,0.06068
7056.26682,0.09192
7058.19529,0.09598
7060.12376,-0.00995
7062.05223,-0.08908
7063.98070,-0.05527
7065.90917,0.03450
7067.83764,0.08523
7069.76610,0.04260
7071.69457,-0.01243
7073.62304,0.04319
7075.55151,0.10070
7077.47998,0.04341
7079.40845,-0.05738
7081.33692,-0.07017
7083.26539,0.01283
7085.19385,0.12851
7087.12232,0.23948
7089.05079,0.27483
7090.97926,0.24497
7092.90773,0.18229
7094.83620,0.07933
7096.76467,0.02273
7098.69313,0.05377
7100.62160,0.06262
7102.55007,0.00447
7104.47854,-0.04650
7106.40701,0.02606
7108.33548,0.11513
7110.26395,0.07985
7112.19242,0.03549
7114.12088,0.06152
7116.04935,0.07073
7117.97782,-0.04337
7119.90629,-0.14436
7121.83476,-0.06358
7123.76323,0.05823
7125.69170,0.08813
7127.62016,0.05953
7129.54863,0.03620
7131.47710,0.06072
7133.40557,0.09655
7135.33404,0.04460
7137.26251,-0.00453
7139.19098,0.09285
7141.11944,0.22702
7143.04791,0.26922
7144.97638,0.25130
7146.90485,0.23028
7148.83332,0.18624
7150.76179,0.05284
7152.69026,-0.12479
7154.61873,-0.15083
7156.54719,0.01943
7158.47566,0.19112
7160.40413,0.26104
7162.33260,0.24799
7164.26107,0.23078
7166.18954,0.23346
7168.11801,0.14411
7170.04647,-0.06005
7171.97494,-0.19547
7173.90341,-0.12856
7175.83188,0.03095
7177.76035,0.06209
7179.68882,0.00970
7181.61729,0.04346
7183.54576,0.11392
7185.47422,0.15163
7187.40269,0.24210
7189.33116,0.36757
7191.25963,0.42257
7193.18810,0.38472
7195.11657,0.24876
7197.04504,0.08370
7198.97350,0.03926
7200.90197,0.10425
7202.83044,0.21703
7204.75891,0.22391
7206.68738,0.00620
7208.61585,-0.12030
7210.54432,-0.05278
7212.47279,0.02575
7214.40125,0.03191
7216.32972,0.04829
7218.25819,0.08928
7220.18666,0.09737
7222.11513,0.08372
7224.04360,0.10096
7225.97207,0.11814
7227.90053,0.05594
7229.82900,-0.08802
7231.75747,-0.25759
7233.68594,-0.17474
7235.61441,0.15290
7237.54288,0.35277
7239.47135,0.29380
7241.39982,0.27061
7243.32828,0.32078
7245.25675,0.20367
7247.18522,0.07275
7249.11369,0.03643
7251.04216,-0.05706
7252.97063,-0.20034
7254.89910,-0.17741
7256.82756,-0.07242
7258.75603,0.02730
7260.68450,0.15299
7262.61297,0.25784
7264.54144,0.20789
7266.46991,0.05106
7268.39838,-0.01793
7270.32685,0.05810
7272.25531,0.16138
7274.18378,0.22714
7276.11225,0.32501
7278.04072,0.41615
7279.96919,0.37100
7281.89766,0.16991
7283.82613,0.03743
7285.75459,0.01885
7287.68306,0.02169
7289.61153,0.05223
7291.54000,0.04453
7293.46847,-0.11204
7295.39694,-0.25847
7297.32541,-0.23156
7299.25387,-0.17875
7301.18234,-0.19457
7303.11081,-0.15470
7305.03928,-0.05980
7306.96775,0.03989
7308.89622,0.20951
7310.82469,0.28320
7312.75316,0.18816
7314.68162,0.08323
7316.61009,0.08983
7318.53856,0.24224
7320.46703,0.35233
7322.39550,0.23964
7324.32397,0.03562
7326.25244,-0.00273
7328.18090,0.00652
7330.10937,-0.05420
7332.03784,0.02507
7333.96631,0.16911
7335.89478,0.20816
7337.82325,0.21734
7339.75172,0.22888
7341.68019,0.20925
7343.60865,0.17569
7345.53712,0.02432
7347.46559,-0.23443
7349.39406,-0.37649
7351.32253,-0.39459
7353.25100,-0.33371
7355.17947,-0.21989
7357.10793,-0.14650
7359.03640,-0.08673
7360.96487,-0.03484
7362.89334,-0.10687
7364.82181,-0.08503
7366.75028,0.11743
7368.67875,0.22735
7370.60722,0.17143
7372.53568,0.09250
7374.46415,0.18180
7376.39262,0.47181
7378.32109,0.54869
7380.24956,0.37108
7382.17803,0.10379
7384.10650,-0.00506
7386.03496,0.14349
7387.96343,0.32012
7389.89190,0.31435
7391.82037,0.26636
7393.74884,0.28543
7395.67731,0.20427
7397.60578,-0.00557
7399.53425,-0.09418
7401.46271,-0.03527
7403.39118,0.02841
7405.31965,0.02855
7407.24812,-0.00081
7409.17659,0.01606
7411.10506,0.06824
7413.03353,0.07513
7414.96199,0.06761
7416.89046,0.09934
7418.81893,0.14456
7420.74740,0.07844
7422.67587,-0.03346
7424.60434,-0.02361
7426.53281,0.02425
7428.46128,0.02120
7430.38974,0.07758
7432.31821,0.20935
7434.24668,0.27595
7436.17515,0.22588
7438.10362,0.19546
7440.03209,0.31174
7441.96056,0.34915
7443.88902,0.16381
7445.81749,-0.03322
7447.74596,-0.10561
7449.67443,-0.00948
7451.60290,0.19737
7453.53137,0.27179
7455.45984,0.24826
7457.38831,0.20323
7459.31677,0.05940
7461.24524,-0.04933
7463.17371,-0.02673
7465.10218,0.02613
7467.03065,0.09978
7468.95912,0.12533
7470.88759,0.07794
7472.81605,0.01853
7474.74452,-0.04033
7476.67299,-0.01665
7478.60146,0.18696
7480.52993,0.34107
7482.45840,0.26091
7484.38687,0.16507
7486.31533,0.14284
7488.24380,0.08576
7490.17227,-0.03438
7492.10074,-0.07694
7494.02921,0.00179
7495.95768,0.12491
7497.88615,0.27528
