399.19301,1.39300
401.12148,0.90156
403.04995,0.00444
404.97842,-0.31380
406.90689,-0.30667
408.83536,-0.21990
410.76382,-0.06912
412.69229,0.08705
414.62076,0.23106
416.54923,0.34684
418.47770,0.21254
420.40617,-0.15705
422.33464,-0.23096
424.26311,-0.06952
426.19157,0.00826
428.12004,-0.06486
430.04851,-0.08088
431.97698,0.07238
433.90545,0.16191
435.83392,0.12293
437.76239,0.12141
439.69085,0.19075
441.61932,0.21809
443.54779,0.16664
445.47626,0.17233
447.40473,0.22466
449.33320,0.22646
451.26167,0.15384
453.19013,0.06454
455.11860,0.03116
457.04707,0.03897
458.97554,0.06715
460.90401,0.07717
462.83248,0.04515
464.76095,0.02644
466.68942,0.04203
468.61788,0.08482
470.54635,0.13965
472.47482,0.13013
474.40329,0.06418
476.33176,0.10115
478.26023,0.16467
480.18870,0.18551
482.11716,0.15804
484.04563,0.12040
485.97410,0.10743
487.90257,0.08927
489.83104,0.07050
491.75951,0.07593
493.68798,0.08577
495.61645,0.10538
497.54491,0.14618
499.47338,0.16424
501.40185,0.15333
503.33032,0.17289
505.25879,0.20267
507.18726,0.18255
509.11573,0.15752
511.04419,0.16214
512.97266,0.16157
514.90113,0.14271
516.82960,0.12371
518.75807,0.11230
520.68654,0.11435
522.61501,0.15499
524.54348,0.19604
526.47194,0.17291
528.40041,0.14046
530.32888,0.14673
532.25735,0.14988
534.18582,0.14438
536.11429,0.15691
538.04276,0.16707
539.97122,0.17632
541.89969,0.19654
543.82816,0.18564
545.75663,0.15914
547.68510,0.17197
549.61357,0.21661
551.54204,0.32406
553.47051,0.44070
555.39897,0.39853
557.32744,0.24447
559.25591,0.15694
561.18438,0.14198
563.11285,0.13514
565.04132,0.12257
566.96979,0.11197
568.89825,0.12727
570.82672,0.16869
572.75519,0.19390
574.68366,0.17925
576.61213,0.14789
578.54060,0.12926
580.46907,0.11237
582.39754,0.09639
584.32600,0.09109
586.25447,0.08053
588.18294,0.07090
590.11141,0.06830
592.03988,0.05662
593.96835,0.05400
595.89682,0.08046
597.82528,0.11174
599.75375,0.12347
601.68222,0.11537
603.61069,0.10589
605.53916,0.11611
607.46763,0.13440
609.39610,0.13361
611.32456,0.11882
613.25303,0.10847
615.18150,0.10401
617.10997,0.10422
619.03844,0.10644
620.96691,0.10492
622.89538,0.10089
624.82385,0.10038
626.75231,0.10385
628.68078,0.09281
630.60925,0.02796
632.53772,-0.04081
634.46619,0.00695
636.39466,0.11040
638.32313,0.15657
640.25159,0.15196
642.18006,0.12887
644.10853,0.11452
646.03700,0.11522
647.96547,0.12234
649.89394,0.12808
651.82241,0.12055
653.75088,0.11039
655.67934,0.10795
657.60781,0.10518
659.53628,0.10425
661.46475,0.10762
663.39322,0.11201
665.32169,0.12592
667.25016,0.14703
669.17862,0.14575
671.10709,0.13108
673.03556,0.12268
674.96403,0.11550
676.89250,0.11855
678.82097,0.13302
680.74944,0.14477
682.67791,0.14909
684.60637,0.14261
686.53484,0.12718
688.46331,0.11200
690.39178,0.10909
692.32025,0.11713
694.24872,0.11871
696.17719,0.12607
698.10565,0.14710
700.03412,0.14862
701.96259,0.13212
703.89106,0.12671
705.81953,0.12861
707.74800,0.12205
709.67647,0.07234
711.60494,0.00828
713.53340,0.03887
715.46187,0.12289
717.39034,0.14940
719.31881,0.13947
721.24728,0.13794
723.17575,0.14029
725.10422,0.13554
727.03268,0.13420
728.96115,0.13711
730.88962,0.13234
732.81809,0.12881
734.74656,0.13378
736.67503,0.14586
738.60350,0.15842
740.53197,0.16294
742.46043,0.16582
744.38890,0.17024
746.31737,0.16650
748.24584,0.15556
750.17431,0.14468
752.10278,0.13079
754.03125,0.12097
755.95971,0.13132
757.88818,0.15161
759.81665,0.16070
761.74512,0.15784
763.67359,0.14983
765.60206,0.14992
767.53053,0.16482
769.45900,0.17067
771.38746,0.15478
773.31593,0.14044
775.24440,0.13832
777.17287,0.14051
779.10134,0.14890
781.02981,0.15840
782.95828,0.16163
784.88674,0.16477
786.81521,0.17761
788.74368,0.20276
790.67215,0.21718
792.60062,0.20134
794.52909,0.17421
796.45756,0.16042
798.38602,0.15745
800.31449,0.15525
802.24296,0.15000
804.17143,0.14507
806.09990,0.14601
808.02837,0.14734
809.95684,0.14318
811.88531,0.14084
813.81377,0.14237
815.74224,0.13870
817.67071,0.13233
819.59918,0.12950
821.52765,0.12463
823.45612,0.11681
825.38459,0.11447
827.31305,0.12300
829.24152,0.13646
831.16999,0.14265
833.09846,0.14031
835.02693,0.13927
836.95540,0.14069
838.88387,0.14058
840.81234,0.13806
842.74080,0.13533
844.66927,0.13666
846.59774,0.14099
848.52621,0.14932
850.45468,0.15857
852.38315,0.16201
854.31162,0.15944
856.24008,0.15534
858.16855,0.15544
860.09702,0.15181
862.02549,0.14066
863.95396,0.13661
865.88243,0.13748
867.81090,0.12752
869.73937,0.11787
871.66783,0.12334
873.59630,0.12925
875.52477,0.12624
877.45324,0.12792
879.38171,0.14410
881.31018,0.15960
883.23865,0.15497
885.16711,0.14385
887.09558,0.14541
889.02405,0.14979
890.95252,0.15067
892.88099,0.15356
894.80946,0.15354
896.73793,0.14702
898.66640,0.14150
900.59486,0.14428
902.52333,0.15019
904.45180,0.15393
906.38027,0.16023
908.30874,0.16527
910.23721,0.16116
912.16568,0.15176
914.09414,0.14940
916.02261,0.15561
917.95108,0.15683
919.87955,0.15322
921.80802,0.15579
923.73649,0.16066
925.66496,0.16310
927.59343,0.16472
929.52189,0.16074
931.45036,0.15024
933.37883,0.13983
935.30730,0.13692
937.23577,0.14408
939.16424,0.15197
941.09271,0.15224
943.02117,0.14680
944.94964,0.14361
946.87811,0.15138
948.80658,0.16451
950.73505,0.17093
952.66352,0.16722
954.59199,0.15868
956.52045,0.15602
958.44892,0.15486
960.37739,0.14896
962.30586,0.14845
964.23433,0.15458
966.16280,0.15699
968.09127,0.15072
970.01974,0.14145
971.94820,0.14062
973.87667,0.14923
975.80514,0.15652
977.73361,0.15927
979.66208,0.16025
981.59055,0.15501
983.51902,0.14569
985.44748,0.14315
987.37595,0.14971
989.30442,0.15835
991.23289,0.16222
993.16136,0.16032
995.08983,0.16237
997.01830,0.17740
998.94677,0.19068
1000.87523,0.18646
1002.80370,0.17410
1004.73217,0.16681
1006.66064,0.16512
1008.58911,0.16702
1010.51758,0.17159
1012.44605,0.17337
1014.37451,0.17188
1016.30298,0.17386
1018.23145,0.17664
1020.15992,0.16889
1022.08839,0.15177
1024.01686,0.14381
1025.94533,0.15716
1027.87380,0.17805
1029.80226,0.18314
1031.73073,0.17085
1033.65920,0.15933
1035.58767,0.16157
1037.51614,0.16723
1039.44461,0.16466
1041.37308,0.16336
1043.30154,0.16521
1045.23001,0.16453
1047.15848,0.16240
1049.08695,0.16143
1051.01542,0.16806
1052.94389,0.17568
1054.87236,0.17396
1056.80083,0.17322
1058.72929,0.17586
1060.65776,0.17488
1062.58623,0.17243
1064.51470,0.16906
1066.44317,0.16939
1068.37164,0.17178
1070.30011,0.16908
1072.22857,0.16768
1074.15704,0.16842
1076.08551,0.16761
1078.01398,0.17069
1079.94245,0.17511
1081.87092,0.17078
1083.79939,0.16332
1085.72786,0.16410
1087.65632,0.16818
1089.58479,0.16602
1091.51326,0.16195
1093.44173,0.16248
1095.37020,0.16141
1097.29867,0.16162
1099.22714,0.17168
1101.15560,0.18300
1103.08407,0.18770
1105.01254,0.18822
1106.94101,0.18599
1108.86948,0.17900
1110.79795,0.17004
1112.72642,0.16722
1114.65489,0.16961
1116.58335,0.17217
1118.51182,0.17434
1120.44029,0.17135
1122.36876,0.16534
1124.29723,0.16532
1126.22570,0.16762
1128.15417,0.16750
1130.08263,0.16516
1132.01110,0.16271
1133.93957,0.16606
1135.86804,0.17105
1137.79651,0.17027
1139.72498,0.16789
1141.65345,0.16669
1143.58191,0.16676
1145.51038,0.17214
1147.43885,0.17831
1149.36732,0.17751
1151.29579,0.17558
1153.22426,0.17617
1155.15273,0.17435
1157.08120,0.17269
1159.00966,0.17506
1160.93813,0.17802
1162.86660,0.17763
1164.79507,0.17655
1166.72354,0.17989
1168.65201,0.18316
1170.58048,0.18015
1172.50894,0.17323
1174.43741,0.16667
1176.36588,0.16415
1178.29435,0.16729
1180.22282,0.17446
1182.15129,0.18180
1184.07976,0.18255
1186.00823,0.17672
1187.93669,0.17315
1189.86516,0.17235
1191.79363,0.17014
1193.72210,0.17044
1195.65057,0.17577
1197.57904,0.18074
1199.50751,0.18097
1201.43597,0.17868
1203.36444,0.17838
1205.29291,0.18229
1207.22138,0.18579
1209.14985,0.18306
1211.07832,0.17914
1213.00679,0.17977
1214.93526,0.18137
1216.86372,0.18036
1218.79219,0.17844
1220.72066,0.17784
1222.64913,0.17732
1224.57760,0.17593
1226.50607,0.17510
1228.43454,0.17584
1230.36300,0.17882
1232.29147,0.18143
1234.21994,0.17861
1236.14841,0.17309
1238.07688,0.17244
1240.00535,0.17577
1241.93382,0.17624
1243.86229,0.17211
1245.79075,0.16863
1247.71922,0.17039
1249.64769,0.17289
1251.57616,0.17083
1253.50463,0.17039
1255.43310,0.17716
1257.36157,0.18324
1259.29003,0.18095
1261.21850,0.17707
1263.14697,0.17960
1265.07544,0.18424
1267.00391,0.18399
1268.93238,0.17998
1270.86085,0.17745
1272.78932,0.17742
1274.71778,0.17929
1276.64625,0.18310
1278.57472,0.18579
1280.50319,0.18386
1282.43166,0.17969
1284.36013,0.17764
1286.28860,0.17811
1288.21706,0.17977
1290.14553,0.18228
1292.07400,0.18563
1294.00247,0.18619
1295.93094,0.18103
1297.85941,0.17293
1299.78788,0.16509
1301.71634,0.16072
1303.64481,0.15904
1305.57328,0.15796
1307.50175,0.16328
1309.43022,0.17525
1311.35869,0.18344
1313.28716,0.18556
1315.21563,0.18790
1317.14409,0.18994
1319.07256,0.18757
1321.00103,0.18351
1322.92950,0.18186
1324.85797,0.17812
1326.78644,0.17021
1328.71491,0.16711
1330.64337,0.17057
1332.57184,0.17270
1334.50031,0.17097
1336.42878,0.17046
1338.35725,0.17630
1340.28572,0.19192
1342.21419,0.22965
1344.14266,0.26951
1346.07112,0.25874
1347.99959,0.20801
1349.92806,0.17777
1351.85653,0.17428
1353.78500,0.17518
1355.71347,0.17482
1357.64194,0.17529
1359.57040,0.18060
1361.49887,0.18853
1363.42734,0.19172
1365.35581,0.19093
1367.28428,0.19108
1369.21275,0.19004
1371.14122,0.18882
1373.06969,0.19173
1374.99815,0.19306
1376.92662,0.19027
1378.85509,0.19016
1380.78356,0.19307
1382.71203,0.19447
1384.64050,0.19390
1386.56897,0.19624
1388.49743,0.19953
1390.42590,0.19716
1392.35437,0.19536
1394.28284,0.19970
1396.21131,0.20359
1398.13978,0.19969
1400.06825,0.19014
1401.99672,0.18434
1403.92518,0.18835
1405.85365,0.19602
1407.78212,0.19549
1409.71059,0.19068
1411.63906,0.19076
1413.56753,0.19301
1415.49600,0.19387
1417.42446,0.19535
1419.35293,0.19697
1421.28140,0.19759
1423.20987,0.19803
1425.13834,0.19869
1427.06681,0.19894
1428.99528,0.19655
1430.92375,0.19157
1432.85221,0.18805
1434.78068,0.18817
1436.70915,0.19170
1438.63762,0.19285
1440.56609,0.18979
1442.49456,0.18839
1444.42303,0.19229
1446.35149,0.19777
1448.27996,0.19914
1450.20843,0.19971
1452.13690,0.20521
1454.06537,0.21448
1455.99384,0.22475
1457.92231,0.22070
1459.85077,0.20433
1461.77924,0.19708
1463.70771,0.19792
1465.63618,0.19787
1467.56465,0.19144
1469.49312,0.18878
1471.42159,0.20062
1473.35006,0.21843
1475.27852,0.21655
1477.20699,0.20546
1479.13546,0.19975
1481.06393,0.19953
1482.99240,0.20055
1484.92087,0.20145
1486.84934,0.20401
1488.77780,0.20737
1490.70627,0.20397
1492.63474,0.19943
1494.56321,0.20403
1496.49168,0.21324
1498.42015,0.20499
1500.34862,0.17922
1502.27709,0.16020
1504.20555,0.16092
1506.13402,0.19063
1508.06249,0.21784
1509.99096,0.21243
1511.91943,0.20870
1513.84790,0.21158
1515.77637,0.21858
1517.70483,0.22366
1519.63330,0.22676
1521.56177,0.23304
1523.49024,0.22933
1525.41871,0.21477
1527.34718,0.20371
1529.27565,0.20205
1531.20412,0.20595
1533.13258,0.21236
1535.06105,0.21561
1536.98952,0.22058
1538.91799,0.23786
1540.84646,0.24749
1542.77493,0.22404
1544.70340,0.20458
1546.63186,0.19938
1548.56033,0.20031
1550.48880,0.19938
1552.41727,0.20074
1554.34574,0.21362
1556.27421,0.23662
1558.20268,0.25873
1560.13115,0.24056
1562.05961,0.21597
1563.98808,0.20741
1565.91655,0.20627
1567.84502,0.20857
1569.77349,0.20950
1571.70196,0.20515
1573.63043,0.20429
1575.55889,0.20943
1577.48736,0.20739
1579.41583,0.19848
1581.34430,0.19375
1583.27277,0.19145
1585.20124,0.18770
1587.12971,0.18532
1589.05818,0.18734
1590.98664,0.19079
1592.91511,0.19199
1594.84358,0.19150
1596.77205,0.19110
1598.70052,0.19216
1600.62899,0.19389
1602.55746,0.19381
1604.48592,0.19301
1606.41439,0.19340
1608.34286,0.19459
1610.27133,0.19585
1612.19980,0.19774
1614.12827,0.20388
1616.05674,0.21570
1617.98521,0.21976
1619.91367,0.21453
1621.84214,0.21143
1623.77061,0.20954
1625.69908,0.20648
1627.62755,0.20253
1629.55602,0.19858
1631.48449,0.19878
1633.41295,0.20486
1635.34142,0.21286
1637.26989,0.21063
1639.19836,0.20438
1641.12683,0.20222
1643.05530,0.20350
1644.98377,0.20976
1646.91223,0.22060
1648.84070,0.22505
1650.76917,0.23051
1652.69764,0.24054
1654.62611,0.22681
1656.55458,0.21066
1658.48305,0.20533
1660.41152,0.20560
1662.33998,0.20958
1664.26845,0.21316
1666.19692,0.21724
1668.12539,0.22585
1670.05386,0.23169
1671.98233,0.22707
1673.91080,0.21987
1675.83926,0.21212
1677.76773,0.20863
1679.69620,0.21327
1681.62467,0.22249
1683.55314,0.22852
1685.48161,0.22250
1687.41008,0.21680
1689.33855,0.21582
1691.26701,0.21471
1693.19548,0.21543
1695.12395,0.22141
1697.05242,0.22970
1698.98089,0.23545
1700.90936,0.23324
1702.83783,0.22693
1704.76629,0.22279
1706.69476,0.21833
1708.62323,0.21267
1710.55170,0.20593
1712.48017,0.20295
1714.40864,0.21090
1716.33711,0.22403
1718.26558,0.22211
1720.19404,0.21222
1722.12251,0.20628
1724.05098,0.20271
1725.97945,0.20212
1727.90792,0.20472
1729.83639,0.20988
1731.76486,0.21688
1733.69332,0.21785
1735.62179,0.20947
1737.55026,0.20761
1739.47873,0.21263
1741.40720,0.21570
1743.33567,0.21414
1745.26414,0.21313
1747.19261,0.21516
1749.12107,0.21733
1751.04954,0.21436
1752.97801,0.20896
1754.90648,0.20607
1756.83495,0.20539
1758.76342,0.20675
1760.69189,0.20921
1762.62035,0.20810
1764.54882,0.20432
1766.47729,0.20487
1768.40576,0.21098
1770.33423,0.21946
1772.26270,0.22379
1774.19117,0.21641
1776.11964,0.20708
1778.04810,0.20465
1779.97657,0.20690
1781.90504,0.20823
1783.83351,0.20726
1785.76198,0.20368
1787.69045,0.20144
1789.61892,0.20568
1791.54738,0.21367
1793.47585,0.21802
1795.40432,0.21717
1797.33279,0.21424
1799.26126,0.21025
1801.18973,0.20437
1803.11820,0.19870
1805.04666,0.19658
1806.97513,0.19754
1808.90360,0.19993
1810.83207,0.20171
1812.76054,0.20161
1814.68901,0.19987
1816.61748,0.19300
1818.54595,0.18317
1820.47441,0.18441
1822.40288,0.19873
1824.33135,0.21066
1826.25982,0.21361
1828.18829,0.21656
1830.11676,0.21732
1832.04523,0.21116
1833.97369,0.20704
1835.90216,0.20847
1837.83063,0.21012
1839.75910,0.20855
1841.68757,0.20912
1843.61604,0.21357
1845.54451,0.21200
1847.47298,0.20472
1849.40144,0.20147
1851.32991,0.20272
1853.25838,0.20316
1855.18685,0.20163
1857.11532,0.20097
1859.04379,0.20082
1860.97226,0.19936
1862.90072,0.19926
1864.82919,0.20319
1866.75766,0.20886
1868.68613,0.21177
1870.61460,0.20970
1872.54307,0.20510
1874.47154,0.20059
1876.40001,0.19899
1878.32847,0.20143
1880.25694,0.20454
1882.18541,0.20575
1884.11388,0.20548
1886.04235,0.20463
1887.97082,0.20482
1889.89929,0.20426
1891.82775,0.20113
1893.75622,0.20038
1895.68469,0.20285
1897.61316,0.20366
1899.54163,0.20281
1901.47010,0.20300
1903.39857,0.20441
1905.32704,0.20552
1907.25550,0.20494
1909.18397,0.20297
1911.11244,0.20135
1913.04091,0.20210
1914.96938,0.20510
1916.89785,0.20789
1918.82632,0.20836
1920.75478,0.20813
1922.68325,0.20812
1924.61172,0.20576
1926.54019,0.20228
1928.46866,0.20007
1930.39713,0.19894
1932.32560,0.19972
1934.25407,0.20182
1936.18253,0.20329
1938.11100,0.20575
1940.03947,0.20967
1941.96794,0.21075
1943.89641,0.20863
1945.82488,0.20823
1947.75335,0.20909
1949.68181,0.20842
1951.61028,0.20596
1953.53875,0.20308
1955.46722,0.20282
1957.39569,0.20574
1959.32416,0.20889
1961.25263,0.20965
1963.18110,0.20881
1965.10956,0.20915
1967.03803,0.20944
1968.96650,0.20702
1970.89497,0.20343
1972.82344,0.20213
1974.75191,0.20329
1976.68038,0.20374
1978.60884,0.20351
1980.53731,0.20371
1982.46578,0.20204
1984.39425,0.19855
1986.32272,0.19760
1988.25119,0.20068
1990.17966,0.20520
1992.10812,0.20803
1994.03659,0.20800
1995.96506,0.20710
1997.89353,0.20586
1999.82200,0.20415
2001.75047,0.20345
2003.67894,0.20441
2005.60741,0.20571
2007.53587,0.20526
2009.46434,0.20368
2011.39281,0.20247
2013.32128,0.20202
2015.24975,0.20337
2017.17822,0.20549
2019.10669,0.20725
2021.03515,0.20982
2022.96362,0.21094
2024.89209,0.20842
2026.82056,0.20504
2028.74903,0.20340
2030.67750,0.20359
2032.60597,0.20440
2034.53444,0.20620
2036.46290,0.20857
2038.39137,0.20806
2040.31984,0.20518
2042.24831,0.20477
2044.17678,0.20771
2046.10525,0.20941
2048.03372,0.20849
2049.96218,0.20697
2051.89065,0.20410
2053.81912,0.20119
2055.74759,0.20023
2057.67606,0.19999
2059.60453,0.20178
2061.53300,0.20702
2063.46147,0.21172
2065.38993,0.21140
2067.31840,0.20756
2069.24687,0.20560
2071.17534,0.20598
2073.10381,0.20635
2075.03228,0.20852
2076.96075,0.21174
2078.88921,0.21095
2080.81768,0.20721
2082.74615,0.20517
2084.67462,0.20404
2086.60309,0.20346
2088.53156,0.20574
2090.46003,0.20836
2092.38850,0.20876
2094.31696,0.20746
2096.24543,0.20579
2098.17390,0.20701
2100.10237,0.21068
2102.03084,0.21117
2103.95931,0.20833
2105.88778,0.20690
2107.81624,0.20645
2109.74471,0.20457
2111.67318,0.20222
2113.60165,0.20102
2115.53012,0.20102
2117.45859,0.20115
2119.38706,0.20103
2121.31553,0.20155
2123.24399,0.20288
2125.17246,0.20325
2127.10093,0.20229
2129.02940,0.20218
2130.95787,0.20413
2132.88634,0.20788
2134.81481,0.21214
2136.74327,0.21268
2138.67174,0.20754
2140.60021,0.20277
2142.52868,0.20226
2144.45715,0.20381
2146.38562,0.20622
2148.31409,0.20850
2150.24255,0.20929
2152.17102,0.20741
2154.09949,0.20322
2156.02796,0.20034
2157.95643,0.19945
2159.88490,0.19904
2161.81337,0.20042
2163.74184,0.20317
2165.67030,0.20574
2167.59877,0.20732
2169.52724,0.20694
2171.45571,0.20582
2173.38418,0.20401
2175.31265,0.20192
2177.24112,0.20213
2179.16958,0.20363
2181.09805,0.20322
2183.02652,0.20150
2184.95499,0.20217
2186.88346,0.20493
2188.81193,0.20638
2190.74040,0.20539
2192.66887,0.20365
2194.59733,0.20381
2196.52580,0.20476
2198.45427,0.20479
2200.38274,0.20455
2202.31121,0.20335
2204.23968,0.20112
2206.16815,0.19965
2208.09661,0.20021
2210.02508,0.20149
2211.95355,0.20184
2213.88202,0.20282
2215.81049,0.20480
2217.73896,0.20471
2219.66743,0.20226
2221.59590,0.20066
2223.52436,0.19964
2225.45283,0.19922
2227.38130,0.20173
2229.30977,0.20515
2231.23824,0.20611
2233.16671,0.20349
2235.09518,0.20025
2237.02364,0.20076
2238.95211,0.20270
2240.88058,0.20265
2242.80905,0.20285
2244.73752,0.20622
2246.66599,0.21140
2248.59446,0.21298
2250.52293,0.20827
2252.45139,0.20240
2254.37986,0.19999
2256.30833,0.19897
2258.23680,0.19894
2260.16527,0.20158
2262.09374,0.20362
2264.02221,0.20208
2265.95067,0.19959
2267.87914,0.19947
2269.80761,0.20203
2271.73608,0.20522
2273.66455,0.20625
2275.59302,0.20507
2277.52149,0.20444
2279.44996,0.20468
2281.37842,0.20451
2283.30689,0.20521
2285.23536,0.20690
2287.16383,0.20634
2289.09230,0.20361
2291.02077,0.20214
2292.94924,0.20257
2294.87770,0.20216
2296.80617,0.19899
2298.73464,0.19582
2300.66311,0.19403
2302.59158,0.19142
2304.52005,0.18899
2306.44852,0.18811
2308.37699,0.18716
2310.30545,0.18462
2312.23392,0.18232
2314.16239,0.18425
2316.09086,0.18801
2318.01933,0.18730
2319.94780,0.18700
2321.87627,0.19320
2323.80473,0.19341
2325.73320,0.18426
2327.66167,0.18151
2329.59014,0.18616
2331.51861,0.18598
2333.44708,0.18022
2335.37555,0.17478
2337.30401,0.17198
2339.23248,0.17196
2341.16095,0.16655
2343.08942,0.15621
2345.01789,0.16114
2346.94636,0.17785
2348.87483,0.18591
2350.80330,0.18041
2352.73176,0.16485
2354.66023,0.15528
2356.58870,0.16348
2358.51717,0.16786
2360.44564,0.14626
2362.37411,0.11903
2364.30258,0.12658
2366.23104,0.15552
2368.15951,0.16553
2370.08798,0.16610
2372.01645,0.17559
2373.94492,0.18536
2375.87339,0.18869
2377.80186,0.19036
2379.73033,0.19109
2381.65879,0.19221
2383.58726,0.19732
2385.51573,0.20134
2387.44420,0.20130
2389.37267,0.20206
2391.30114,0.20409
2393.22961,0.20506
2395.15807,0.20484
2397.08654,0.20444
2399.01501,0.20475
2400.94348,0.20565
2402.87195,0.20677
2404.80042,0.20635
2406.72889,0.20504
2408.65736,0.20619
2410.58582,0.20921
2412.51429,0.21159
2414.44276,0.21192
2416.37123,0.21028
2418.29970,0.20833
2420.22817,0.20763
2422.15664,0.20889
2424.08510,0.21098
2426.01357,0.21280
2427.94204,0.21359
2429.87051,0.21165
2431.79898,0.20798
2433.72745,0.20417
2435.65592,0.20117
2437.58439,0.20091
2439.51285,0.20339
2441.44132,0.20762
2443.36979,0.21122
2445.29826,0.21058
2447.22673,0.20676
2449.15520,0.20442
2451.08367,0.20390
2453.01213,0.20423
2454.94060,0.20729
2456.86907,0.20977
2458.79754,0.20819
2460.72601,0.20576
2462.65448,0.20595
2464.58295,0.20875
2466.51142,0.20989
2468.43988,0.20783
2470.36835,0.20604
2472.29682,0.20591
2474.22529,0.20653
2476.15376,0.20779
2478.08223,0.20895
2480.01070,0.20846
2481.93916,0.20726
2483.86763,0.20701
2485.79610,0.20708
2487.72457,0.20682
2489.65304,0.20661
2491.58151,0.20667
2493.50998,0.20710
2495.43844,0.20749
2497.36691,0.20755
2499.29538,0.20788
2501.22385,0.20870
2503.15232,0.20983
2505.08079,0.21091
2507.00926,0.21074
2508.93773,0.20832
2510.86619,0.20601
2512.79466,0.20605
2514.72313,0.20534
2516.65160,0.20303
2518.58007,0.20312
2520.50854,0.20604
2522.43701,0.20896
2524.36547,0.21007
2526.29394,0.20954
2528.22241,0.20938
2530.15088,0.20987
2532.07935,0.21018
2534.00782,0.20976
2535.93629,0.20766
2537.86476,0.20680
2539.79322,0.20864
2541.72169,0.20902
2543.65016,0.20752
2545.57863,0.20819
2547.50710,0.21013
2549.43557,0.20981
2551.36404,0.20914
2553.29250,0.20963
2555.22097,0.20933
2557.14944,0.20749
2559.07791,0.20666
2561.00638,0.20973
2562.93485,0.21247
2564.86332,0.21152
2566.79179,0.21065
2568.72025,0.21035
2570.64872,0.20978
2572.57719,0.21063
2574.50566,0.21206
2576.43413,0.21210
2578.36260,0.21115
2580.29107,0.21168
2582.21953,0.21407
2584.14800,0.21533
2586.07647,0.21505
2588.00494,0.21438
2589.93341,0.21207
2591.86188,0.20869
2593.79035,0.20718
2595.71882,0.20861
2597.64728,0.21082
2599.57575,0.21072
2601.50422,0.20935
2603.43269,0.20939
2605.36116,0.20984
2607.28963,0.21300
2609.21810,0.22021
2611.14656,0.22223
2613.07503,0.21475
2615.00350,0.20717
2616.93197,0.20536
2618.86044,0.20639
2620.78891,0.20718
2622.71738,0.20592
2624.64585,0.20443
2626.57431,0.20666
2628.50278,0.21107
2630.43125,0.21305
2632.35972,0.21268
2634.28819,0.21346
2636.21666,0.21403
2638.14513,0.21163
2640.07359,0.20886
2642.00206,0.20821
2643.93053,0.20904
2645.85900,0.20948
2647.78747,0.20939
2649.71594,0.21039
2651.64441,0.21071
2653.57288,0.20906
2655.50134,0.20847
2657.42981,0.21118
2659.35828,0.21633
2661.28675,0.21885
2663.21522,0.21525
2665.14369,0.21039
2667.07216,0.20972
2669.00062,0.21185
2670.92909,0.21243
2672.85756,0.21139
2674.78603,0.21126
2676.71450,0.21205
2678.64297,0.21279
2680.57144,0.21333
2682.49990,0.21411
2684.42837,0.21496
2686.35684,0.21537
2688.28531,0.21616
2690.21378,0.21716
2692.14225,0.21595
2694.07072,0.21292
2695.99919,0.21194
2697.92765,0.21381
2699.85612,0.21567
2701.78459,0.21561
2703.71306,0.21468
2705.64153,0.21537
2707.57000,0.21641
2709.49847,0.21585
2711.42693,0.21562
2713.35540,0.21496
2715.28387,0.21278
2717.21234,0.21243
2719.14081,0.21459
2721.06928,0.21610
2722.99775,0.21622
2724.92622,0.21644
2726.85468,0.21823
2728.78315,0.22152
2730.71162,0.22277
2732.64009,0.22076
2734.56856,0.21817
2736.49703,0.21651
2738.42550,0.21671
2740.35396,0.21879
2742.28243,0.21968
2744.21090,0.21770
2746.13937,0.21757
2748.06784,0.22128
2749.99631,0.22340
2751.92478,0.22213
2753.85325,0.22069
2755.78171,0.22069
2757.71018,0.22083
2759.63865,0.21986
2761.56712,0.21865
2763.49559,0.21814
2765.42406,0.21950
2767.35253,0.22211
2769.28099,0.22262
2771.20946,0.22080
2773.13793,0.21884
2775.06640,0.21812
2776.99487,0.22060
2778.92334,0.22516
2780.85181,0.22740
2782.78028,0.22737
2784.70874,0.22749
2786.63721,0.22630
2788.56568,0.22441
2790.49415,0.22503
2792.42262,0.22792
2794.35109,0.23023
2796.27956,0.22808
2798.20802,0.22334
2800.13649,0.22154
2802.06496,0.22187
2803.99343,0.22190
2805.92190,0.22078
2807.85037,0.21933
2809.77884,0.22196
2811.70731,0.22738
2813.63577,0.22771
2815.56424,0.22281
2817.49271,0.21971
2819.42118,0.22063
2821.34965,0.22274
2823.27812,0.22355
2825.20659,0.22300
2827.13505,0.22401
2829.06352,0.22662
2830.99199,0.22744
2832.92046,0.22663
2834.84893,0.22534
2836.77740,0.22451
2838.70587,0.22646
2840.63433,0.23113
2842.56280,0.23432
2844.49127,0.23151
2846.41974,0.22580
2848.34821,0.22458
2850.27668,0.22742
2852.20515,0.22882
2854.13362,0.22755
2856.06208,0.22592
2857.99055,0.22405
2859.91902,0.22243
2861.84749,0.22383
2863.77596,0.22705
2865.70443,0.22819
2867.63290,0.22812
2869.56136,0.23106
2871.48983,0.23386
2873.41830,0.23111
2875.34677,0.22708
2877.27524,0.22523
2879.20371,0.22499
2881.13218,0.22808
2883.06065,0.23288
2884.98911,0.23391
2886.91758,0.23023
2888.84605,0.22748
2890.77452,0.22811
2892.70299,0.22806
2894.63146,0.22436
2896.55993,0.21999
2898.48839,0.21913
2900.41686,0.22011
2902.34533,0.22046
2904.27380,0.22150
2906.20227,0.22275
2908.13074,0.22215
2910.05921,0.21950
2911.98768,0.21516
2913.91614,0.21317
2915.84461,0.21674
2917.77308,0.22135
2919.70155,0.22412
2921.63002,0.22769
2923.55849,0.23355
2925.48696,0.23641
2927.41542,0.23243
2929.34389,0.22539
2931.27236,0.21868
2933.20083,0.21671
2935.12930,0.21892
2937.05777,0.21866
2938.98624,0.21718
2940.91471,0.21999
2942.84317,0.22474
2944.77164,0.22373
2946.70011,0.21911
2948.62858,0.22097
2950.55705,0.22792
2952.48552,0.23068
2954.41399,0.22720
2956.34245,0.22092
2958.27092,0.21720
2960.19939,0.21991
2962.12786,0.22558
2964.05633,0.22824
2965.98480,0.22532
2967.91327,0.22019
2969.84174,0.21992
2971.77020,0.22404
2973.69867,0.22745
2975.62714,0.22908
2977.55561,0.22838
2979.48408,0.22828
2981.41255,0.23246
2983.34102,0.23587
2985.26948,0.23269
2987.19795,0.22667
2989.12642,0.22532
2991.05489,0.22774
2992.98336,0.22969
2994.91183,0.23266
2996.84030,0.23555
2998.76877,0.23524
3000.69723,0.23259
3002.62570,0.23145
3004.55417,0.23439
3006.48264,0.23615
3008.41111,0.23089
3010.33958,0.22080
3012.26805,0.20879
3014.19651,0.19132
3016.12498,0.17474
3018.05345,0.18112
3019.98192,0.20812
3021.91039,0.22730
3023.83886,0.23106
3025.76733,0.22664
3027.69579,0.21949
3029.62426,0.22018
3031.55273,0.22980
3033.48120,0.23727
3035.40967,0.23637
3037.33814,0.23017
3039.26661,0.22663
3041.19508,0.22917
3043.12354,0.23156
3045.05201,0.22655
3046.98048,0.21826
3048.90895,0.21737
3050.83742,0.22446
3052.76589,0.22990
3054.69436,0.22668
3056.62282,0.21774
3058.55129,0.21501
3060.47976,0.22061
3062.40823,0.22412
3064.33670,0.22276
3066.26517,0.21990
3068.19364,0.22123
3070.12211,0.22784
3072.05057,0.23054
3073.97904,0.22668
3075.90751,0.22137
3077.83598,0.21946
3079.76445,0.22409
3081.69292,0.23132
3083.62139,0.23074
3085.54985,0.22281
3087.47832,0.22053
3089.40679,0.22652
3091.33526,0.22823
3093.26373,0.21694
3095.19220,0.20671
3097.12067,0.21055
3099.04914,0.21843
3100.97760,0.22026
3102.90607,0.21662
3104.83454,0.21574
3106.76301,0.22017
3108.69148,0.22344
3110.61995,0.22175
3112.54842,0.22000
3114.47688,0.22814
3116.40535,0.23939
3118.33382,0.24001
3120.26229,0.23240
3122.19076,0.22421
3124.11923,0.22188
3126.04770,0.22805
3127.97617,0.23397
3129.90463,0.23284
3131.83310,0.23035
3133.76157,0.23093
3135.69004,0.23517
3137.61851,0.24012
3139.54698,0.23947
3141.47545,0.23517
3143.40391,0.23230
3145.33238,0.23104
3147.26085,0.23261
3149.18932,0.23600
3151.11779,0.23509
3153.04626,0.23079
3154.97473,0.23057
3156.90320,0.23613
3158.83166,0.24021
3160.76013,0.23761
3162.68860,0.23491
3164.61707,0.23578
3166.54554,0.23546
3168.47401,0.23342
3170.40248,0.23320
3172.33094,0.23481
3174.25941,0.23466
3176.18788,0.23348
3178.11635,0.23540
3180.04482,0.23778
3181.97329,0.23588
3183.90176,0.23378
3185.83022,0.23371
3187.75869,0.23159
3189.68716,0.22920
3191.61563,0.23022
3193.54410,0.23374
3195.47257,0.23772
3197.40104,0.24129
3199.32951,0.24337
3201.25797,0.24357
3203.18644,0.24201
3205.11491,0.23862
3207.04338,0.23519
3208.97185,0.23170
3210.90032,0.22960
3212.82879,0.23026
3214.75725,0.23036
3216.68572,0.23084
3218.61419,0.23345
3220.54266,0.23485
3222.47113,0.23239
3224.39960,0.22666
3226.32807,0.22176
3228.25654,0.22328
3230.18500,0.22881
3232.11347,0.23077
3234.04194,0.22925
3235.97041,0.22766
3237.89888,0.22600
3239.82735,0.22226
3241.75582,0.21984
3243.68428,0.22493
3245.61275,0.23176
3247.54122,0.23328
3249.46969,0.23149
3251.39816,0.22773
3253.32663,0.22572
3255.25510,0.22784
3257.18357,0.22682
3259.11203,0.22185
3261.04050,0.22021
3262.96897,0.22057
3264.89744,0.21981
3266.82591,0.21951
3268.75438,0.22277
3270.68285,0.23044
3272.61131,0.23361
3274.53978,0.22929
3276.46825,0.22717
3278.39672,0.23013
3280.32519,0.23422
3282.25366,0.23549
3284.18213,0.23363
3286.11060,0.23189
3288.03906,0.22918
3289.96753,0.22390
3291.89600,0.21999
3293.82447,0.22098
3295.75294,0.22278
3297.68141,0.22282
3299.60988,0.22479
3301.53834,0.23009
3303.46681,0.23410
3305.39528,0.22913
3307.32375,0.22016
3309.25222,0.21934
3311.18069,0.22348
3313.10916,0.22460
3315.03763,0.22407
3316.96609,0.22342
3318.89456,0.22149
3320.82303,0.22071
3322.75150,0.22393
3324.67997,0.22950
3326.60844,0.23469
3328.53691,0.23705
3330.46537,0.23596
3332.39384,0.23567
3334.32231,0.23883
3336.25078,0.24107
3338.17925,0.23767
3340.10772,0.23076
3342.03619,0.22774
3343.96466,0.23010
3345.89312,0.23062
3347.82159,0.22956
3349.75006,0.23197
3351.67853,0.23446
3353.60700,0.23635
3355.53547,0.23954
3357.46394,0.24115
3359.39240,0.24143
3361.32087,0.24231
3363.24934,0.24306
3365.17781,0.24148
3367.10628,0.23767
3369.03475,0.23680
3370.96322,0.24036
3372.89168,0.24233
3374.82015,0.23990
3376.74862,0.23662
3378.67709,0.23502
3380.60556,0.23445
3382.53403,0.23393
3384.46250,0.23404
3386.39097,0.23281
3388.31943,0.22917
3390.24790,0.22761
3392.17637,0.22925
3394.10484,0.23143
3396.03331,0.23199
3397.96178,0.22909
3399.89025,0.22563
3401.81871,0.22467
3403.74718,0.22342
3405.67565,0.22154
3407.60412,0.22168
3409.53259,0.22238
3411.46106,0.22349
3413.38953,0.22875
3415.31800,0.23574
3417.24646,0.23720
3419.17493,0.23484
3421.10340,0.23488
3423.03187,0.23430
3424.96034,0.22898
3426.88881,0.22573
3428.81728,0.23184
3430.74574,0.23875
3432.67421,0.23601
3434.60268,0.22903
3436.53115,0.22395
3438.45962,0.22301
3440.38809,0.22739
3442.31656,0.23110
3444.24503,0.23247
3446.17349,0.23284
3448.10196,0.22841
3450.03043,0.22090
3451.95890,0.21500
3453.88737,0.21286
3455.81584,0.21351
3457.74431,0.21447
3459.67277,0.21664
3461.60124,0.21925
3463.52971,0.21952
3465.45818,0.21779
3467.38665,0.21687
3469.31512,0.21704
3471.24359,0.21563
3473.17206,0.21309
3475.10052,0.20973
3477.02899,0.20703
3478.95746,0.20954
3480.88593,0.21408
3482.81440,0.21538
3484.74287,0.21490
3486.67134,0.21225
3488.59980,0.20588
3490.52827,0.20016
3492.45674,0.19877
3494.38521,0.19743
3496.31368,0.19358
3498.24215,0.19325
3500.17062,0.19587
3502.09909,0.19617
3504.02755,0.19818
3505.95602,0.20231
3507.88449,0.20313
3509.81296,0.20126
3511.74143,0.19788
3513.66990,0.19382
3515.59837,0.19142
3517.52683,0.19098
3519.45530,0.19073
3521.38377,0.19155
3523.31224,0.19574
3525.24071,0.19688
3527.16918,0.19071
3529.09765,0.18546
3531.02611,0.18388
3532.95458,0.18369
3534.88305,0.18680
3536.81152,0.18962
3538.73999,0.18762
3540.66846,0.18554
3542.59693,0.18624
3544.52540,0.18526
3546.45386,0.17999
3548.38233,0.17688
3550.31080,0.18239
3552.23927,0.19140
3554.16774,0.19269
3556.09621,0.18775
3558.02468,0.18647
3559.95314,0.18890
3561.88161,0.18660
3563.81008,0.18105
3565.73855,0.18096
3567.66702,0.18294
3569.59549,0.18105
3571.52396,0.17659
3573.45243,0.16875
3575.38089,0.16276
3577.30936,0.16490
3579.23783,0.17118
3581.16630,0.17401
3583.09477,0.17331
3585.02324,0.17409
3586.95171,0.17727
3588.88017,0.17786
3590.80864,0.17627
3592.73711,0.17598
3594.66558,0.17486
3596.59405,0.17139
3598.52252,0.16790
3600.45099,0.16640
3602.37946,0.16702
3604.30792,0.16733
3606.23639,0.16824
3608.16486,0.17119
3610.09333,0.17119
3612.02180,0.16825
3613.95027,0.16654
3615.87874,0.16665
3617.80720,0.16894
3619.73567,0.16805
3621.66414,0.16291
3623.59261,0.15995
3625.52108,0.15654
3627.44955,0.15332
3629.37802,0.15706
3631.30649,0.16163
3633.23495,0.16116
3635.16342,0.15825
3637.09189,0.15736
3639.02036,0.15904
3640.94883,0.15926
3642.87730,0.15739
3644.80577,0.15749
3646.73423,0.16464
3648.66270,0.17646
3650.59117,0.17304
3652.51964,0.16385
3654.44811,0.16113
3656.37658,0.15504
3658.30505,0.14387
3660.23352,0.13907
3662.16198,0.13968
3664.09045,0.14102
3666.01892,0.14417
3667.94739,0.15042
3669.87586,0.15656
3671.80433,0.15689
3673.73280,0.15497
3675.66126,0.15492
3677.58973,0.15328
3679.51820,0.14799
3681.44667,0.14222
3683.37514,0.13941
3685.30361,0.14149
3687.23208,0.14833
3689.16055,0.15578
3691.08901,0.15375
3693.01748,0.14453
3694.94595,0.13734
3696.87442,0.13456
3698.80289,0.13410
3700.73136,0.13580
3702.65983,0.13911
3704.58829,0.13975
3706.51676,0.14005
3708.44523,0.14382
3710.37370,0.14840
3712.30217,0.14571
3714.23064,0.14067
3716.15911,0.14302
3718.08757,0.14978
3720.01604,0.15299
3721.94451,0.15252
3723.87298,0.15196
3725.80145,0.14902
3727.72992,0.14698
3729.65839,0.15174
3731.58686,0.16162
3733.51532,0.16831
3735.44379,0.16326
3737.37226,0.15427
3739.30073,0.15235
3741.22920,0.15617
3743.15767,0.16129
3745.08614,0.16272
3747.01460,0.16184
3748.94307,0.16596
3750.87154,0.16954
3752.80001,0.16023
3754.72848,0.15090
3756.65695,0.14508
3758.58542,0.13940
3760.51389,0.13630
3762.44235,0.13534
3764.37082,0.13605
3766.29929,0.14013
3768.22776,0.14404
3770.15623,0.14328
3772.08470,0.13896
3774.01317,0.13567
3775.94163,0.13526
3777.87010,0.13700
3779.79857,0.13772
3781.72704,0.13466
3783.65551,0.12988
3785.58398,0.12777
3787.51245,0.12966
3789.44092,0.13105
3791.36938,0.13042
3793.29785,0.13114
3795.22632,0.13568
3797.15479,0.14509
3799.08326,0.15684
3801.01173,0.16238
3802.94020,0.15553
3804.86866,0.14854
3806.79713,0.14418
3808.72560,0.13861
3810.65407,0.13369
3812.58254,0.13224
3814.51101,0.13553
3816.43948,0.14016
3818.36795,0.14371
3820.29641,0.14800
3822.22488,0.14592
3824.15335,0.13938
3826.08182,0.13612
3828.01029,0.13619
3829.93876,0.13632
3831.86723,0.13403
3833.79569,0.13367
3835.72416,0.14162
3837.65263,0.15295
3839.58110,0.15131
3841.50957,0.14116
3843.43804,0.13573
3845.36651,0.13358
3847.29498,0.13270
3849.22344,0.13469
3851.15191,0.14094
3853.08038,0.14968
3855.00885,0.14464
3856.93732,0.13275
3858.86579,0.12805
3860.79426,0.13228
3862.72272,0.14022
3864.65119,0.14175
3866.57966,0.13776
3868.50813,0.13731
3870.43660,0.14023
3872.36507,0.13681
3874.29354,0.12483
3876.22200,0.11629
3878.15047,0.12137
3880.07894,0.13690
3882.00741,0.14725
3883.93588,0.14714
3885.86435,0.14082
3887.79282,0.13175
3889.72129,0.12876
3891.64975,0.13422
3893.57822,0.14025
3895.50669,0.13995
3897.43516,0.13505
3899.36363,0.12965
3901.29210,0.12988
3903.22057,0.13632
3905.14903,0.13918
3907.07750,0.13647
3909.00597,0.13351
3910.93444,0.13128
3912.86291,0.13067
3914.79138,0.13117
3916.71985,0.13039
3918.64832,0.12672
3920.57678,0.12111
3922.50525,0.11919
3924.43372,0.12381
3926.36219,0.12737
3928.29066,0.12841
3930.21913,0.13209
3932.14760,0.13066
3934.07606,0.12207
3936.00453,0.11880
3937.93300,0.12155
3939.86147,0.12383
3941.78994,0.12193
3943.71841,0.11808
3945.64688,0.11860
3947.57535,0.12119
3949.50381,0.12057
3951.43228,0.11772
3953.36075,0.11524
3955.28922,0.11432
3957.21769,0.11427
3959.14616,0.11481
3961.07463,0.11805
3963.00309,0.12134
3964.93156,0.11958
3966.86003,0.11677
3968.78850,0.11771
3970.71697,0.11761
3972.64544,0.11449
3974.57391,0.11365
3976.50238,0.11337
3978.43084,0.10877
3980.35931,0.10595
3982.28778,0.11094
3984.21625,0.11795
3986.14472,0.11841
3988.07319,0.11271
3990.00166,0.10974
3991.93012,0.11116
3993.85859,0.11080
3995.78706,0.10883
3997.71553,0.11001
3999.64400,0.11626
4001.57247,0.12189
4003.50094,0.11992
4005.42941,0.11393
4007.35787,0.11087
4009.28634,0.11070
4011.21481,0.11203
4013.14328,0.11466
4015.07175,0.11752
4017.00022,0.12006
4018.92869,0.11975
4020.85715,0.11370
4022.78562,0.10571
4024.71409,0.10239
4026.64256,0.10332
4028.57103,0.10468
4030.49950,0.10648
4032.42797,0.10757
4034.35644,0.10620
4036.28490,0.10457
4038.21337,0.10471
4040.14184,0.10488
4042.07031,0.10259
4043.99878,0.10017
4045.92725,0.10094
4047.85572,0.10379
4049.78418,0.10757
4051.71265,0.11046
4053.64112,0.11100
4055.56959,0.10931
4057.49806,0.10573
4059.42653,0.10366
4061.35500,0.10343
4063.28346,0.10264
4065.21193,0.10114
4067.14040,0.09812
4069.06887,0.09426
4070.99734,0.09415
4072.92581,0.10082
4074.85428,0.10912
4076.78275,0.11238
4078.71121,0.10973
4080.63968,0.10415
4082.56815,0.10114
4084.49662,0.10434
4086.42509,0.10946
4088.35356,0.10939
4090.28203,0.10525
4092.21049,0.10221
4094.13896,0.10039
4096.06743,0.09906
4097.99590,0.09948
4099.92437,0.10129
4101.85284,0.10371
4103.78131,0.10469
4105.70978,0.10266
4107.63824,0.10266
4109.56671,0.10377
4111.49518,0.09953
4113.42365,0.09433
4115.35212,0.09250
4117.28059,0.09194
4119.20906,0.09379
4121.13752,0.09673
4123.06599,0.09601
4124.99446,0.09240
4126.92293,0.09174
4128.85140,0.09543
4130.77987,0.09710
4132.70834,0.09642
4134.63681,0.09903
4136.56527,0.10163
4138.49374,0.09769
4140.42221,0.09022
4142.35068,0.08809
4144.27915,0.09222
4146.20762,0.09532
4148.13609,0.09451
4150.06455,0.09312
4151.99302,0.09407
4153.92149,0.09550
4155.84996,0.09159
4157.77843,0.08642
4159.70690,0.08959
4161.63537,0.09562
4163.56384,0.09736
4165.49230,0.09677
4167.42077,0.09458
4169.34924,0.09187
4171.27771,0.09163
4173.20618,0.09533
4175.13465,0.09777
4177.06312,0.09340
4178.99158,0.08887
4180.92005,0.09027
4182.84852,0.09267
4184.77699,0.09077
4186.70546,0.08643
4188.63393,0.08623
4190.56240,0.08879
4192.49087,0.08896
4194.41933,0.09274
4196.34780,0.10009
4198.27627,0.10121
4200.20474,0.09548
4202.13321,0.08688
4204.06168,0.07889
4205.99015,0.07604
4207.91861,0.07983
4209.84708,0.08799
4211.77555,0.09351
4213.70402,0.09104
4215.63249,0.08370
4217.56096,0.07712
4219.48943,0.07470
4221.41789,0.07720
4223.34636,0.07922
4225.27483,0.07544
4227.20330,0.07129
4229.13177,0.07267
4231.06024,0.07371
4232.98871,0.07135
4234.91718,0.07093
4236.84564,0.07058
4238.77411,0.06858
4240.70258,0.07055
4242.63105,0.07422
4244.55952,0.07382
4246.48799,0.07463
4248.41646,0.07926
4250.34492,0.08181
4252.27339,0.08376
4254.20186,0.08403
4256.13033,0.07885
4258.05880,0.07612
4259.98727,0.07746
4261.91574,0.07630
4263.84421,0.07534
4265.77267,0.07596
4267.70114,0.07134
4269.62961,0.06547
4271.55808,0.06953
4273.48655,0.07799
4275.41502,0.07928
4277.34349,0.07482
4279.27195,0.07041
4281.20042,0.06708
4283.12889,0.06494
4285.05736,0.06631
4286.98583,0.07005
4288.91430,0.07121
4290.84277,0.07119
4292.77124,0.07188
4294.69970,0.06932
4296.62817,0.06603
4298.55664,0.06756
4300.48511,0.07065
4302.41358,0.07140
4304.34205,0.06923
4306.27052,0.06254
4308.19898,0.05658
4310.12745,0.05760
4312.05592,0.06014
4313.98439,0.05977
4315.91286,0.05986
4317.84133,0.06403
4319.76980,0.06966
4321.69827,0.06689
4323.62673,0.05348
4325.55520,0.04214
4327.48367,0.04296
4329.41214,0.05175
4331.34061,0.05977
4333.26908,0.06360
4335.19755,0.06304
4337.12601,0.05992
4339.05448,0.05877
4340.98295,0.05859
4342.91142,0.05610
4344.83989,0.05148
4346.76836,0.04903
4348.69683,0.05543
4350.62530,0.06412
4352.55376,0.06407
4354.48223,0.05625
4356.41070,0.04600
4358.33917,0.03988
4360.26764,0.04116
4362.19611,0.04441
4364.12458,0.04746
4366.05304,0.05386
4367.98151,0.05659
4369.90998,0.05060
4371.83845,0.04885
4373.76692,0.05701
4375.69539,0.06496
4377.62386,0.06794
4379.55232,0.06493
4381.48079,0.05603
4383.40926,0.04874
4385.33773,0.04670
4387.26620,0.04741
4389.19467,0.04657
4391.12314,0.04289
4393.05161,0.04174
4394.98007,0.04441
4396.90854,0.04446
4398.83701,0.03758
4400.76548,0.03164
4402.69395,0.03405
4404.62242,0.03916
4406.55089,0.03785
4408.47935,0.02984
4410.40782,0.02514
4412.33629,0.02664
4414.26476,0.03024
4416.19323,0.03433
4418.12170,0.03794
4420.05017,0.04050
4421.97864,0.03765
4423.90710,0.03206
4425.83557,0.03239
4427.76404,0.03566
4429.69251,0.03293
4431.62098,0.02545
4433.54945,0.02405
4435.47792,0.02735
4437.40638,0.02503
4439.33485,0.02228
4441.26332,0.02794
4443.19179,0.03462
4445.12026,0.03224
4447.04873,0.02704
4448.97720,0.02924
4450.90567,0.03584
4452.83413,0.03783
4454.76260,0.03157
4456.69107,0.02398
4458.61954,0.02502
4460.54801,0.03300
4462.47648,0.03550
4464.40495,0.02859
4466.33341,0.02519
4468.26188,0.03322
4470.19035,0.03892
4472.11882,0.03223
4474.04729,0.02857
4475.97576,0.03486
4477.90423,0.03829
4479.83270,0.03499
4481.76116,0.02607
4483.68963,0.01710
4485.61810,0.01534
4487.54657,0.01688
4489.47504,0.01627
4491.40351,0.01706
4493.33198,0.02520
4495.26044,0.03168
4497.18891,0.02540
4499.11738,0.01178
4501.04585,0.00611
4502.97432,0.01520
4504.90279,0.02525
4506.83126,0.02446
4508.75973,0.02116
4510.68819,0.02527
4512.61666,0.03157
4514.54513,0.03038
4516.47360,0.02295
4518.40207,0.01937
4520.33054,0.02331
4522.25901,0.02303
4524.18747,0.01660
4526.11594,0.01453
4528.04441,0.01310
4529.97288,0.00883
4531.90135,0.01056
4533.82982,0.01905
4535.75829,0.02284
4537.68676,0.01834
4539.61522,0.01192
4541.54369,0.00899
4543.47216,0.01425
4545.40063,0.02213
4547.32910,0.02256
4549.25757,0.02018
4551.18604,0.02534
4553.11450,0.03528
4555.04297,0.03502
4556.97144,0.02708
4558.89991,0.02459
4560.82838,0.01919
4562.75685,0.00806
4564.68532,0.00568
4566.61378,0.01422
4568.54225,0.02537
4570.47072,0.03370
4572.39919,0.03311
4574.32766,0.02473
4576.25613,0.02110
4578.18460,0.02425
4580.11307,0.02460
4582.04153,0.02431
4583.97000,0.02804
4585.89847,0.02752
4587.82694,0.02103
4589.75541,0.01747
4591.68388,0.01846
4593.61235,0.02026
4595.54081,0.02159
4597.46928,0.02308
4599.39775,0.02793
4601.32622,0.03596
4603.25469,0.03381
4605.18316,0.01695
4607.11163,0.00773
4609.04010,0.01288
4610.96856,0.01355
4612.89703,0.00857
4614.82550,0.00740
4616.75397,0.00519
4618.68244,0.00150
4620.61091,0.00237
4622.53938,0.00588
4624.46784,0.00823
4626.39631,0.00812
4628.32478,0.00698
4630.25325,0.00416
4632.18172,0.00392
4634.11019,0.01643
4636.03866,0.03180
4637.96713,0.03212
4639.89559,0.02026
4641.82406,0.00892
4643.75253,0.00258
4645.68100,-0.00009
4647.60947,0.00317
4649.53794,0.01038
4651.46641,0.01270
4653.39487,0.00896
4655.32334,0.00543
4657.25181,0.00841
4659.18028,0.01781
4661.10875,0.02636
4663.03722,0.02846
4664.96569,0.01952
4666.89416,0.00288
4668.82262,-0.00364
4670.75109,0.00412
4672.67956,0.01005
4674.60803,0.00828
4676.53650,0.00563
4678.46497,0.00778
4680.39344,0.01193
4682.32190,0.00887
4684.25037,0.00105
4686.17884,0.00142
4688.10731,0.00613
4690.03578,0.00059
4691.96425,-0.00792
4693.89272,-0.00212
4695.82119,0.01446
4697.74965,0.02657
4699.67812,0.02694
4701.60659,0.01662
4703.53506,0.00724
4705.46353,0.00977
4707.39200,0.01912
4709.32047,0.02926
4711.24893,0.03605
4713.17740,0.03341
4715.10587,0.02285
4717.03434,0.00779
4718.96281,-0.00480
4720.89128,-0.00353
4722.81975,0.00693
4724.74821,0.01231
4726.67668,0.00866
4728.60515,0.00244
4730.53362,0.00757
4732.46209,0.02042
4734.39056,0.02204
4736.31903,0.01183
4738.24750,0.00076
4740.17596,-0.00261
4742.10443,-0.00052
4744.03290,0.00280
4745.96137,0.01182
4747.88984,0.01850
4749.81831,0.01128
4751.74678,0.00288
4753.67524,0.00620
4755.60371,0.01027
4757.53218,0.00492
4759.46065,-0.00735
4761.38912,-0.01407
4763.31759,-0.00238
4765.24606,0.01196
4767.17453,0.01158
4769.10299,0.00552
4771.03146,0.00036
4772.95993,0.00231
4774.88840,0.01295
4776.81687,0.01604
4778.74534,0.01094
4780.67381,0.01025
4782.60227,0.01174
4784.53074,0.00547
4786.45921,-0.00856
4788.38768,-0.01477
4790.31615,-0.00784
4792.24462,-0.00381
4794.17309,-0.00853
4796.10156,-0.01052
4798.03002,-0.00608
4799.95849,-0.00343
4801.88696,0.00097
4803.81543,0.01200
4805.74390,0.01336
4807.67237,-0.00041
4809.60084,-0.00317
4811.52930,0.01279
4813.45777,0.02037
4815.38624,0.01285
4817.31471,0.01145
4819.24318,0.02053
4821.17165,0.02888
4823.10012,0.03151
4825.02859,0.02905
4826.95705,0.02530
4828.88552,0.02283
4830.81399,0.01978
4832.74246,0.01166
4834.67093,-0.00018
4836.59940,-0.00197
4838.52787,0.00472
4840.45633,0.00074
4842.38480,-0.00911
4844.31327,-0.00638
4846.24174,0.00193
4848.17021,0.00221
4850.09868,0.00169
4852.02715,0.00969
4853.95562,0.02739
4855.88408,0.04401
4857.81255,0.04201
4859.74102,0.02792
4861.66949,0.02344
4863.59796,0.02626
4865.52643,0.02357
4867.45490,0.01656
4869.38336,0.00455
4871.31183,-0.00735
4873.24030,-0.00718
4875.16877,-0.00332
4877.09724,-0.00300
4879.02571,0.00057
4880.95418,0.00739
4882.88265,0.01376
4884.81111,0.01753
4886.73958,0.01742
4888.66805,0.01238
4890.59652,0.00914
4892.52499,0.01909
4894.45346,0.02889
4896.38193,0.02280
4898.31039,0.01444
4900.23886,0.01077
4902.16733,0.00142
4904.09580,-0.00579
4906.02427,-0.00205
4907.95274,-0.00053
4909.88121,0.00668
4911.80967,0.03478
4913.73814,0.05521
4915.66661,0.04254
4917.59508,0.01557
4919.52355,-0.00077
4921.45202,-0.00486
4923.38049,-0.00699
4925.30896,-0.00538
4927.23742,0.00619
4929.16589,0.01344
4931.09436,0.00626
4933.02283,0.00280
4934.95130,0.00826
4936.87977,0.00424
4938.80824,-0.00701
4940.73670,-0.01137
4942.66517,-0.01160
4944.59364,-0.00795
4946.52211,0.00155
4948.45058,0.01035
4950.37905,0.02117
4952.30752,0.03534
4954.23599,0.04052
4956.16445,0.02783
4958.09292,0.01030
4960.02139,0.00446
4961.94986,0.00260
4963.87833,0.00144
4965.80680,0.00485
4967.73527,0.00196
4969.66373,-0.00528
4971.59220,-0.00274
4973.52067,0.00184
4975.44914,-0.00259
4977.37761,-0.00244
4979.30608,0.00574
4981.23455,0.00664
4983.16302,-0.00201
4985.09148,-0.00488
4987.01995,0.00362
4988.94842,0.00776
4990.87689,0.00576
4992.80536,0.00577
4994.73383,0.00626
4996.66230,0.00916
4998.59076,0.01586
5000.51923,0.02452
5002.44770,0.02663
5004.37617,0.01885
5006.30464,0.01785
5008.23311,0.02870
5010.16158,0.03039
5012.09005,0.02105
5014.01851,0.02348
5015.94698,0.03127
5017.87545,0.02022
5019.80392,0.00139
5021.73239,0.00560
5023.66086,0.02723
5025.58933,0.04405
5027.51779,0.05334
5029.44626,0.05134
5031.37473,0.03875
5033.30320,0.02661
5035.23167,0.01796
5037.16014,0.01311
5039.08861,0.02015
5041.01708,0.03178
5042.94554,0.03062
5044.87401,0.02327
5046.80248,0.01911
5048.73095,0.01683
5050.65942,0.01192
5052.58789,0.00874
5054.51636,0.02109
5056.44482,0.03335
5058.37329,0.02162
5060.30176,0.00468
5062.23023,0.00806
5064.15870,0.01985
5066.08717,0.03066
5068.01564,0.04730
5069.94410,0.06216
5071.87257,0.06832
5073.80104,0.06679
5075.72951,0.06020
5077.65798,0.04621
5079.58645,0.01232
5081.51492,-0.02034
5083.44339,-0.01430
5085.37185,0.02247
5087.30032,0.05166
5089.22879,0.04733
5091.15726,0.02571
5093.08573,0.01165
5095.01420,0.00330
5096.94267,0.00130
5098.87113,0.00724
5100.79960,0.01530
5102.72807,0.02601
5104.65654,0.03635
5106.58501,0.04001
5108.51348,0.03409
5110.44195,0.02435
5112.37042,0.03052
5114.29888,0.05232
5116.22735,0.06112
5118.15582,0.05145
5120.08429,0.04997
5122.01276,0.06664
5123.94123,0.08172
5125.86970,0.08238
5127.79816,0.05854
5129.72663,0.02040
5131.65510,0.00941
5133.58357,0.02074
5135.51204,0.02436
5137.44051,0.02648
5139.36898,0.02114
5141.29745,0.00527
5143.22591,0.01450
5145.15438,0.03959
5147.08285,0.03169
5149.01132,0.00883
5150.93979,0.01395
5152.86826,0.03565
5154.79673,0.04049
5156.72519,0.02921
5158.65366,0.02641
5160.58213,0.03084
5162.51060,0.03359
5164.43907,0.03129
5166.36754,0.02332
5168.29601,0.02811
5170.22448,0.04526
5172.15294,0.05093
5174.08141,0.04491
5176.00988,0.04268
5177.93835,0.04876
5179.86682,0.04901
5181.79529,0.04343
5183.72376,0.05236
5185.65222,0.06220
5187.58069,0.04984
5189.50916,0.03327
5191.43763,0.03166
5193.36610,0.04484
5195.29457,0.06187
5197.22304,0.06007
5199.15151,0.04080
5201.07997,0.02947
5203.00844,0.03144
5204.93691,0.05017
5206.86538,0.07917
5208.79385,0.08313
5210.72232,0.06168
5212.65079,0.05221
5214.57925,0.06783
5216.50772,0.08095
5218.43619,0.07757
5220.36466,0.07187
5222.29313,0.05929
5224.22160,0.04395
5226.15007,0.05164
5228.07854,0.06337
5230.00700,0.04873
5231.93547,0.02723
5233.86394,0.03006
5235.79241,0.04847
5237.72088,0.05339
5239.64935,0.04512
5241.57782,0.03523
5243.50628,0.02651
5245.43475,0.02766
5247.36322,0.03711
5249.29169,0.03961
5251.22016,0.03806
5253.14863,0.04480
5255.07710,0.04370
5257.00556,0.02407
5258.93403,0.01348
5260.86250,0.02390
5262.79097,0.03423
5264.71944,0.03733
5266.64791,0.04575
5268.57638,0.05431
5270.50485,0.05727
5272.43331,0.05560
5274.36178,0.04047
5276.29025,0.02084
5278.21872,0.02274
5280.14719,0.03655
5282.07566,0.04339
5284.00413,0.05417
5285.93259,0.06224
5287.86106,0.06154
5289.78953,0.07230
5291.71800,0.08919
5293.64647,0.09030
5295.57494,0.07106
5297.50341,0.04693
5299.43188,0.04033
5301.36034,0.04033
5303.28881,0.02964
5305.21728,0.02796
5307.14575,0.04459
5309.07422,0.04898
5311.00269,0.04337
5312.93116,0.06026
5314.85962,0.08797
5316.78809,0.09618
5318.71656,0.08594
5320.64503,0.07376
5322.57350,0.06603
5324.50197,0.06300
5326.43044,0.04793
5328.35891,0.01495
5330.28737,0.00372
5332.21584,0.01906
5334.14431,0.02211
5336.07278,0.00955
5338.00125,0.00525
5339.92972,0.01076
5341.85819,0.02465
5343.78665,0.05268
5345.71512,0.06872
5347.64359,0.06046
5349.57206,0.05217
5351.50053,0.04728
5353.42900,0.04845
5355.35747,0.06169
5357.28594,0.05799
5359.21440,0.03893
5361.14287,0.04548
5363.07134,0.07752
5364.99981,0.10716
5366.92828,0.11316
5368.85675,0.09481
5370.78522,0.08451
5372.71368,0.08240
5374.64215,0.05446
5376.57062,0.02599
5378.49909,0.03525
5380.42756,0.04934
5382.35603,0.05469
5384.28450,0.05883
5386.21297,0.05459
5388.14143,0.04823
5390.06990,0.05238
5391.99837,0.06010
5393.92684,0.06375
5395.85531,0.07276
5397.78378,0.08770
5399.71225,0.08847
5401.64071,0.06655
5403.56918,0.05515
5405.49765,0.07787
5407.42612,0.10541
5409.35459,0.12159
5411.28306,0.13018
5413.21153,0.11732
5415.13999,0.08171
5417.06846,0.04844
5418.99693,0.03127
5420.92540,0.03425
5422.85387,0.05446
5424.78234,0.07502
5426.71081,0.08240
5428.63928,0.07720
5430.56774,0.07255
5432.49621,0.07279
5434.42468,0.07332
5436.35315,0.07402
5438.28162,0.06549
5440.21009,0.04635
5442.13856,0.03933
5444.06702,0.05511
5445.99549,0.07428
5447.92396,0.08351
5449.85243,0.08881
5451.78090,0.09105
5453.70937,0.08312
5455.63784,0.07819
5457.56631,0.08896
5459.49477,0.08311
5461.42324,0.04971
5463.35171,0.02722
5465.28018,0.03485
5467.20865,0.04862
5469.13712,0.04681
5471.06559,0.04275
5472.99405,0.05405
5474.92252,0.07831
5476.85099,0.09736
5478.77946,0.10311
5480.70793,0.09917
5482.63640,0.08704
5484.56487,0.07839
5486.49334,0.08258
5488.42180,0.08576
5490.35027,0.07494
5492.27874,0.06229
5494.20721,0.06124
5496.13568,0.06759
5498.06415,0.06671
5499.99262,0.06044
5501.92108,0.05723
5503.84955,0.05909
5505.77802,0.07165
5507.70649,0.08016
5509.63496,0.08225
5511.56343,0.08892
5513.49190,0.08969
5515.42037,0.08564
5517.34883,0.08545
5519.27730,0.08832
5521.20577,0.09664
5523.13424,0.11558
5525.06271,0.12997
5526.99118,0.11584
5528.91965,0.07750
5530.84811,0.05741
5532.77658,0.07816
5534.70505,0.10272
5536.63352,0.10533
5538.56199,0.09632
5540.49046,0.07739
5542.41893,0.04062
5544.34740,0.00931
5546.27586,0.01322
5548.20433,0.04230
5550.13280,0.07618
5552.06127,0.09742
5553.98974,0.10159
5555.91821,0.10194
5557.84668,0.08962
5559.77514,0.07209
5561.70361,0.07442
5563.63208,0.07470
5565.56055,0.06248
5567.48902,0.07344
5569.41749,0.10655
5571.34596,0.12482
5573.27443,0.10972
5575.20289,0.07658
5577.13136,0.06303
5579.05983,0.07843
5580.98830,0.08654
5582.91677,0.07394
5584.84524,0.06846
5586.77371,0.07870
5588.70217,0.10864
5590.63064,0.12809
5592.55911,0.10119
5594.48758,0.07820
5596.41605,0.09164
5598.34452,0.09115
5600.27299,0.06870
5602.20145,0.06111
5604.12992,0.05667
5606.05839,0.04522
5607.98686,0.04659
5609.91533,0.06711
5611.84380,0.07980
5613.77227,0.05737
5615.70074,0.03396
5617.62920,0.04183
5619.55767,0.05595
5621.48614,0.05803
5623.41461,0.06089
5625.34308,0.06834
5627.27155,0.05977
5629.20002,0.02944
5631.12848,0.01540
5633.05695,0.03045
5634.98542,0.04342
5636.91389,0.05045
5638.84236,0.05971
5640.77083,0.05375
5642.69930,0.03404
5644.62777,0.03494
5646.55623,0.06992
5648.48470,0.09420
5650.41317,0.09186
5652.34164,0.09346
5654.27011,0.09214
5656.19858,0.08838
5658.12705,0.10280
5660.05551,0.11516
5661.98398,0.10233
5663.91245,0.07670
5665.84092,0.06368
5667.76939,0.06830
5669.69786,0.07550
5671.62633,0.08422
5673.55480,0.08818
5675.48326,0.07161
5677.41173,0.05047
5679.34020,0.04605
5681.26867,0.04839
5683.19714,0.05584
5685.12561,0.08273
5687.05408,0.11590
5688.98254,0.12602
5690.91101,0.11623
5692.83948,0.11074
5694.76795,0.10383
5696.69642,0.07747
5698.62489,0.05043
5700.55336,0.04470
5702.48183,0.05093
5704.41029,0.06363
5706.33876,0.08128
5708.26723,0.10097
5710.19570,0.11991
5712.12417,0.12447
5714.05264,0.11828
5715.98111,0.11482
5717.90957,0.10535
5719.83804,0.08646
5721.76651,0.07182
5723.69498,0.07319
5725.62345,0.09167
5727.55192,0.11520
5729.48039,0.10752
5731.40886,0.06004
5733.33732,0.02542
5735.26579,0.04197
5737.19426,0.08069
5739.12273,0.10628
5741.05120,0.12101
5742.97967,0.12299
5744.90814,0.11790
5746.83660,0.12542
5748.76507,0.13532
5750.69354,0.12075
5752.62201,0.10482
5754.55048,0.11084
5756.47895,0.10553
5758.40742,0.08561
5760.33588,0.06450
5762.26435,0.03754
5764.19282,0.02991
5766.12129,0.04303
5768.04976,0.06005
5769.97823,0.08734
5771.90670,0.08140
5773.83517,0.03609
5775.76363,0.02629
5777.69210,0.05663
5779.62057,0.08243
5781.54904,0.09218
5783.47751,0.09567
5785.40598,0.11371
5787.33445,0.13999
5789.26291,0.14937
5791.19138,0.14907
5793.11985,0.14592
5795.04832,0.13031
5796.97679,0.10420
5798.90526,0.08133
5800.83373,0.06916
5802.76220,0.06666
5804.69066,0.07448
5806.61913,0.08045
5808.54760,0.06885
5810.47607,0.05000
5812.40454,0.03531
5814.33301,0.02891
5816.26148,0.05044
5818.18994,0.09509
5820.11841,0.11397
5822.04688,0.10066
5823.97535,0.09382
5825.90382,0.10075
5827.83229,0.09751
5829.76076,0.07273
5831.68923,0.04941
5833.61769,0.03687
5835.54616,0.03440
5837.47463,0.05015
5839.40310,0.08346
5841.33157,0.12322
5843.26004,0.13805
5845.18851,0.11368
5847.11697,0.08010
5849.04544,0.06640
5850.97391,0.07620
5852.90238,0.08892
5854.83085,0.08764
5856.75932,0.07994
5858.68779,0.06861
5860.61626,0.06030
5862.54472,0.07552
5864.47319,0.08709
5866.40166,0.07749
5868.33013,0.07301
5870.25860,0.07257
5872.18707,0.08133
5874.11554,0.10228
5876.04400,0.10940
5877.97247,0.09356
5879.90094,0.06813
5881.82941,0.06854
5883.75788,0.09534
5885.68635,0.08819
5887.61482,0.05024
5889.54329,0.03198
5891.47175,0.02654
5893.40022,0.02714
5895.32869,0.04296
5897.25716,0.05386
5899.18563,0.04638
5901.11410,0.02852
5903.04257,0.01878
5904.97103,0.04690
5906.89950,0.10039
5908.82797,0.12291
5910.75644,0.10404
5912.68491,0.09661
5914.61338,0.11806
5916.54185,0.13767
5918.47032,0.13726
5920.39878,0.12359
5922.32725,0.11825
5924.25572,0.11817
5926.18419,0.11037
5928.11266,0.10413
5930.04113,0.08869
5931.96960,0.04751
5933.89806,0.00650
5935.82653,0.00794
5937.75500,0.03925
5939.68347,0.06824
5941.61194,0.08684
5943.54041,0.09286
5945.46888,0.09932
5947.39734,0.09745
5949.32581,0.08023
5951.25428,0.07647
5953.18275,0.08761
5955.11122,0.11955
5957.03969,0.17561
5958.96816,0.19984
5960.89663,0.16585
5962.82509,0.12320
5964.75356,0.09860
5966.68203,0.10213
5968.61050,0.13279
5970.53897,0.13769
5972.46744,0.10082
5974.39591,0.06384
5976.32437,0.04604
5978.25284,0.05276
5980.18131,0.08273
5982.10978,0.11347
5984.03825,0.13463
5985.96672,0.14166
5987.89519,0.11500
5989.82366,0.08847
5991.75212,0.10170
5993.68059,0.11511
5995.60906,0.10063
5997.53753,0.09107
5999.46600,0.09612
6001.39447,0.10262
6003.32294,0.11259
6005.25140,0.13557
6007.17987,0.18702
6009.10834,0.22421
6011.03681,0.19331
6012.96528,0.14063
6014.89375,0.12531
6016.82222,0.13681
6018.75069,0.13824
6020.67915,0.12754
6022.60762,0.11111
6024.53609,0.10470
6026.46456,0.12056
6028.39303,0.11531
6030.32150,0.07277
6032.24997,0.04202
6034.17843,0.05846
6036.10690,0.09662
6038.03537,0.10586
6039.96384,0.07911
6041.89231,0.04429
6043.82078,0.04471
6045.74925,0.08718
6047.67772,0.12811
6049.60618,0.14629
6051.53465,0.15047
6053.46312,0.12840
6055.39159,0.10505
6057.32006,0.11226
6059.24853,0.11300
6061.17700,0.10298
6063.10546,0.10534
6065.03393,0.12537
6066.96240,0.15388
6068.89087,0.17303
6070.81934,0.15956
6072.74781,0.11859
6074.67628,0.10905
6076.60475,0.12435
6078.53321,0.11095
6080.46168,0.08138
6082.39015,0.04695
6084.31862,0.00677
6086.24709,-0.01137
6088.17556,-0.01308
6090.10403,-0.03244
6092.03249,-0.03516
6093.96096,-0.01242
6095.88943,-0.02710
6097.81790,-0.04840
6099.74637,-0.01346
6101.67484,0.04159
6103.60331,0.08199
6105.53177,0.11830
6107.46024,0.12025
6109.38871,0.06850
6111.31718,0.02669
6113.24565,0.02401
6115.17412,0.03458
6117.10259,0.04209
6119.03106,0.03979
6120.95952,0.01765
6122.88799,-0.03405
6124.81646,-0.06746
6126.74493,-0.03292
6128.67340,0.03941
6130.60187,0.10272
6132.53034,0.14421
6134.45880,0.17379
6136.38727,0.16457
6138.31574,0.08813
6140.24421,0.04841
6142.17268,0.13181
6144.10115,0.21178
6146.02962,0.19126
6147.95809,0.15170
6149.88655,0.15764
6151.81502,0.16283
6153.74349,0.11400
6155.67196,0.07137
6157.60043,0.08545
6159.52890,0.11736
6161.45737,0.13045
6163.38583,0.11392
6165.31430,0.09034
6167.24277,0.10070
6169.17124,0.12795
6171.09971,0.16093
6173.02818,0.20474
6174.95665,0.19889
6176.88512,0.12621
6178.81358,0.06804
6180.74205,0.06289
6182.67052,0.08581
6184.59899,0.10960
6186.52746,0.11467
6188.45593,0.09151
6190.38440,0.05473
6192.31286,0.04074
6194.24133,0.07283
6196.16980,0.12141
6198.09827,0.12464
6200.02674,0.08909
6201.95521,0.06029
6203.88368,0.03912
6205.81215,0.04435
6207.74061,0.06891
6209.66908,0.05634
6211.59755,0.03416
6213.52602,0.04383
6215.45449,0.05075
6217.38296,0.06489
6219.31143,0.10973
6221.23989,0.12854
6223.16836,0.09689
6225.09683,0.06138
6227.02530,0.03149
6228.95377,0.03598
6230.88224,0.09856
6232.81071,0.15485
6234.73918,0.16944
6236.66764,0.18340
6238.59611,0.18930
6240.52458,0.14430
6242.45305,0.08265
6244.38152,0.04684
6246.30999,0.04678
6248.23846,0.08434
6250.16692,0.11305
6252.09539,0.13142
6254.02386,0.14817
6255.95233,0.12045
6257.88080,0.06846
6259.80927,0.03569
6261.73774,0.02532
6263.66621,0.03367
6265.59467,0.02568
6267.52314,0.00003
6269.45161,0.02888
6271.38008,0.10436
6273.30855,0.15684
6275.23702,0.17713
6277.16549,0.18476
6279.09395,0.15894
6281.02242,0.12069
6282.95089,0.10910
6284.87936,0.11993
6286.80783,0.15016
6288.73630,0.17605
6290.66477,0.14352
6292.59323,0.07950
6294.52170,0.06749
6296.45017,0.11126
6298.37864,0.16021
6300.30711,0.17782
6302.23558,0.14024
6304.16405,0.08443
6306.09252,0.05021
6308.02098,0.00262
6309.94945,-0.03977
6311.87792,0.00320
6313.80639,0.08053
6315.73486,0.08963
6317.66333,0.07597
6319.59180,0.12333
6321.52026,0.20318
6323.44873,0.23876
6325.37720,0.22211
6327.30567,0.20632
6329.23414,0.21347
6331.16261,0.20861
6333.09108,0.17562
6335.01955,0.14502
6336.94801,0.15125
6338.87648,0.16838
6340.80495,0.15981
6342.73342,0.15960
6344.66189,0.16695
6346.59036,0.16598
6348.51883,0.19695
6350.44729,0.20523
6352.37576,0.13119
6354.30423,0.08121
6356.23270,0.07126
6358.16117,0.01475
6360.08964,-0.02916
6362.01811,0.01616
6363.94658,0.04528
6365.87504,0.00329
6367.80351,0.00011
6369.73198,0.07210
6371.66045,0.13007
6373.58892,0.14923
6375.51739,0.17024
6377.44586,0.15862
6379.37432,0.09545
6381.30279,0.03711
6383.23126,0.03336
6385.15973,0.05433
6387.08820,0.02564
6389.01667,0.00067
6390.94514,0.04304
6392.87361,0.05295
6394.80207,0.00200
6396.73054,0.02390
6398.65901,0.10331
6400.58748,0.14497
6402.51595,0.13855
6404.44442,0.12183
6406.37289,0.10572
6408.30135,0.09712
6410.22982,0.08453
6412.15829,0.07159
6414.08676,0.11505
6416.01523,0.18565
6417.94370,0.17973
6419.87217,0.09938
6421.80064,0.06224
6423.72910,0.10671
6425.65757,0.14738
6427.58604,0.13889
6429.51451,0.13560
6431.44298,0.11576
6433.37145,0.08227
6435.29992,0.13782
6437.22838,0.23089
6439.15685,0.22259
6441.08532,0.20247
6443.01379,0.21197
6444.94226,0.12398
6446.87073,0.02097
6448.79920,0.01589
6450.72766,0.01927
6452.65613,-0.02338
6454.58460,-0.03803
6456.51307,-0.01121
6458.44154,-0.00127
6460.37001,-0.01874
6462.29848,-0.04296
6464.22695,-0.03883
6466.15541,0.02131
6468.08388,0.10074
6470.01235,0.16751
6471.94082,0.20406
6473.86929,0.17167
6475.79776,0.11657
6477.72623,0.13585
6479.65469,0.18066
6481.58316,0.16231
6483.51163,0.11002
6485.44010,0.06895
6487.36857,0.03251
6489.29704,0.01014
6491.22551,0.03795
6493.15398,0.07429
6495.08244,0.04785
6497.01091,0.01649
6498.93938,0.04483
6500.86785,0.08656
6502.79632,0.12560
6504.72479,0.19672
6506.65326,0.22111
6508.58172,0.15925
6510.51019,0.08483
6512.43866,0.03010
6514.36713,0.02546
6516.29560,0.08272
6518.22407,0.11123
6520.15254,0.07409
6522.08101,0.04129
6524.00947,0.05528
6525.93794,0.10448
6527.86641,0.15215
6529.79488,0.15887
6531.72335,0.09686
6533.65182,0.02179
6535.58029,0.04201
6537.50875,0.11941
6539.43722,0.12722
6541.36569,0.08193
6543.29416,0.07911
6545.22263,0.10104
6547.15110,0.10673
6549.07957,0.12729
6551.00804,0.14308
6552.93650,0.09589
6554.86497,0.04660
6556.79344,0.08568
6558.72191,0.15813
6560.65038,0.17711
6562.57885,0.17744
6564.50732,0.20554
6566.43578,0.22741
6568.36425,0.19786
6570.29272,0.13132
6572.22119,0.08464
6574.14966,0.07063
6576.07813,0.04459
6578.00660,0.01546
6579.93507,0.02260
6581.86353,0.03959
6583.79200,0.04789
6585.72047,0.05754
6587.64894,0.05050
6589.57741,0.04651
6591.50588,0.09054
6593.43435,0.12595
6595.36281,0.06600
6597.29128,-0.01436
6599.21975,-0.01021
6601.14822,0.07923
6603.07669,0.16891
6605.00516,0.22826
6606.93363,0.26132
6608.86210,0.21156
6610.79056,0.08232
6612.71903,-0.02239
6614.64750,-0.05653
6616.57597,-0.02613
6618.50444,0.06925
6620.43291,0.15270
6622.36138,0.17622
6624.28984,0.14776
6626.21831,0.06722
6628.14678,-0.01420
6630.07525,-0.01736
6632.00372,0.03697
6633.93219,0.07804
6635.86066,0.07241
6637.78912,0.07914
6639.71759,0.10220
6641.64606,0.04378
6643.57453,-0.05352
6645.50300,-0.08467
6647.43147,-0.08774
6649.35994,-0.09456
6651.28841,-0.08352
6653.21687,-0.10262
6655.14534,-0.14675
6657.07381,-0.10746
6659.00228,-0.02133
6660.93075,-0.01729
6662.85922,-0.04309
6664.78769,0.02073
6666.71615,0.12733
6668.64462,0.15338
6670.57309,0.12308
6672.50156,0.11067
6674.43003,0.11443
6676.35850,0.10522
6678.28697,0.07142
6680.21544,0.04876
6682.14390,0.07122
6684.07237,0.11185
6686.00084,0.15080
6687.92931,0.19747
6689.85778,0.18119
6691.78625,0.08404
6693.71472,0.01317
6695.64318,0.01751
6697.57165,0.03918
6699.50012,0.03231
6701.42859,0.03551
6703.35706,0.07614
6705.28553,0.16255
6707.21400,0.20120
6709.14247,0.10813
6711.07093,0.05139
6712.99940,0.09270
6714.92787,0.07896
6716.85634,0.01438
6718.78481,0.03168
6720.71328,0.09090
6722.64175,0.11455
6724.57021,0.12804
6726.49868,0.15928
6728.42715,0.21884
6730.35562,0.26949
6732.28409,0.21930
6734.21256,0.08300
6736.14103,0.00942
6738.06950,0.04768
6739.99796,0.08240
6741.92643,0.05512
6743.85490,0.05323
6745.78337,0.08812
6747.71184,0.07104
6749.64031,0.03177
6751.56878,0.02659
6753.49724,0.02340
6755.42571,0.04753
6757.35418,0.08360
6759.28265,0.05833
6761.21112,0.00154
6763.13959,-0.01509
6765.06806,-0.02095
6766.99653,-0.06926
6768.92499,-0.11876
6770.85346,-0.08991
6772.78193,-0.03548
6774.71040,-0.06091
6776.63887,-0.12524
6778.56734,-0.10623
6780.49581,-0.00596
6782.42427,0.11026
6784.35274,0.18521
6786.28121,0.18609
6788.20968,0.13043
6790.13815,0.11253
6792.06662,0.21049
6793.99509,0.28921
6795.92355,0.24093
6797.85202,0.13876
6799.78049,0.04460
6801.70896,0.02708
6803.63743,0.11643
6805.56590,0.18386
6807.49437,0.16161
6809.42284,0.08670
6811.35130,-0.01163
6813.27977,-0.06546
6815.20824,-0.04699
6817.13671,0.02274
6819.06518,0.10664
6820.99365,0.10837
6822.92212,0.01189
6824.85058,-0.02350
6826.77905,0.02117
6828.70752,0.05368
6830.63599,0.04487
6832.56446,0.01990
6834.49293,0.04570
6836.42140,0.13181
6838.34987,0.13623
6840.27833,0.02027
6842.20680,-0.05944
6844.13527,0.01459
6846.06374,0.16588
6847.99221,0.17267
6849.92068,-0.01480
6851.84915,-0.08771
6853.77761,-0.01616
6855.70608,-0.01123
6857.63455,-0.03479
6859.56302,0.01290
6861.49149,0.05454
6863.41996,0.07364
6865.34843,0.06205
6867.27690,0.02683
6869.20536,0.07900
6871.13383,0.13686
6873.06230,0.04103
6874.99077,-0.05681
6876.91924,0.01717
6878.84771,0.19966
6880.77618,0.31849
6882.70464,0.31651
6884.63311,0.27667
6886.56158,0.23844
6888.49005,0.21273
6890.41852,0.15823
6892.34699,0.03540
6894.27546,-0.07329
6896.20393,-0.04732
6898.13239,0.11527
6900.06086,0.22408
6901.98933,0.18624
6903.91780,0.09254
6905.84627,0.06588
6907.77474,0.06271
6909.70321,0.03447
6911.63167,0.09676
6913.56014,0.23637
6915.48861,0.31694
6917.41708,0.33449
6919.34555,0.29235
6921.27402,0.16872
6923.20249,0.07244
6925.13096,0.07482
6927.05942,0.07406
6928.98789,0.04780
6930.91636,0.07347
6932.84483,0.06184
6934.77330,-0.01136
6936.70177,-0.01279
6938.63024,0.10822
6940.55870,0.27852
6942.48717,0.33738
6944.41564,0.29883
6946.34411,0.21936
6948.27258,0.07935
6950.20105,-0.03438
6952.12952,-0.01491
6954.05799,0.06622
6955.98645,0.07895
6957.91492,0.03849
6959.84339,0.04367
6961.77186,0.12741
6963.70033,0.16374
6965.62880,0.04774
6967.55727,-0.07883
6969.48573,-0.08012
6971.41420,-0.10518
6973.34267,-0.17625
6975.27114,-0.11015
6977.19961,0.06915
6979.12808,0.19174
6981.05655,0.16936
6982.98501,0.03814
6984.91348,-0.06231
6986.84195,-0.04866
6988.77042,0.02056
6990.69889,0.09069
6992.62736,0.15580
6994.55583,0.20470
6996.48430,0.22920
6998.41276,0.20682
7000.34123,0.18053
7002.26970,0.22255
7004.19817,0.28659
7006.12664,0.36755
7008.05511,0.48058
7009.98358,0.50751
7011.91204,0.42831
7013.84051,0.32984
7015.76898,0.23020
7017.69745,0.10922
7019.62592,0.03990
7021.55439,0.07778
7023.48286,0.12425
7025.41133,0.07100
7027.33979,-0.04562
7029.26826,-0.06134
7031.19673,0.03562
7033.12520,-0.01248
7035.05367,-0.13418
7036.98214,0.02306
7038.91061,0.29359
7040.83907,0.40733
7042.76754,0.34307
7044.69601,0.18758
7046.62448,0.09706
7048.55295,0.12142
7050.48142,0.16617
7052.40989,0.20134
7054.33836,0.18123
7056.26682,0.09423
7058.19529,0.02567
7060.12376,0.00702
7062.05223,0.04417
7063.98070,0.09401
7065.90917,0.03893
7067.83764,-0.04439
7069.76610,0.01273
7071.69457,0.10811
7073.62304,0.04705
7075.55151,-0.00527
7077.47998,0.12332
7079.40845,0.31777
7081.33692,0.31843
7083.26539,0.20705
7085.19385,0.18890
7087.12232,0.16239
7089.05079,0.03559
7090.97926,-0.06958
7092.90773,-0.08199
7094.83620,-0.11641
7096.76467,-0.20096
7098.69313,-0.21478
7100.62160,-0.14284
7102.55007,-0.05000
7104.47854,0.02873
7106.40701,0.08695
7108.33548,0.13650
7110.26395,0.14607
7112.19242,0.12468
7114.12088,0.10188
7116.04935,0.12618
7117.97782,0.26758
7119.90629,0.34945
7121.83476,0.25377
7123.76323,0.14132
7125.69170,0.08564
7127.62016,0.08252
7129.54863,0.12325
7131.47710,0.14421
7133.40557,0.09463
7135.33404,-0.02286
7137.26251,-0.13684
7139.19098,-0.15413
7141.11944,-0.09836
7143.04791,-0.00673
7144.97638,0.18791
7146.90485,0.33657
7148.83332,0.26233
7150.76179,0.14646
7152.69026,0.12887
7154.61873,0.06988
7156.54719,-0.09711
7158.47566,-0.20673
7160.40413,-0.18077
7162.33260,-0.10594
7164.26107,-0.04292
7166.18954,0.12465
7168.11801,0.36630
7170.04647,0.45080
7171.97494,0.34188
7173.90341,0.17406
7175.83188,0.06701
7177.76035,0.08289
7179.68882,0.10112
7181.61729,0.10737
7183.54576,0.17807
7185.47422,0.21446
7187.40269,0.19890
7189.33116,0.19391
7191.25963,0.13599
7193.18810,0.04580
7195.11657,0.06810
7197.04504,0.14647
7198.97350,0.18056
7200.90197,0.23968
7202.83044,0.29873
7204.75891,0.13701
7206.68738,-0.06868
7208.61585,-0.00405
7210.54432,0.14666
7212.47279,0.22524
7214.40125,0.24075
7216.32972,0.17994
7218.25819,0.06765
7220.18666,0.10838
7222.11513,0.20257
7224.04360,0.19478
7225.97207,0.14874
7227.90053,0.12549
7229.82900,0.13134
7231.75747,0.14178
7233.68594,0.09828
7235.61441,0.12267
7237.54288,0.23393
7239.47135,0.23194
7241.39982,0.06639
7243.32828,-0.04429
7245.25675,0.05899
7247.18522,0.21930
7249.11369,0.32919
7251.04216,0.31078
7252.97063,0.11932
7254.89910,0.01278
7256.82756,0.07207
7258.75603,0.07694
7260.68450,-0.07630
7262.61297,-0.20679
7264.54144,-0.09578
7266.46991,0.08697
7268.39838,0.12340
7270.32685,0.12530
7272.25531,0.18913
7274.18378,0.20399
7276.11225,0.27877
7278.04072,0.44311
7279.96919,0.43407
7281.89766,0.20511
7283.82613,0.01475
7285.75459,-0.10265
7287.68306,-0.09219
7289.61153,0.02622
7291.54000,0.07222
7293.46847,0.03533
7295.39694,0.05885
7297.32541,0.08101
7299.25387,-0.03847
7301.18234,-0.13899
7303.11081,0.01088
7305.03928,0.27161
7306.96775,0.41410
7308.89622,0.33497
7310.82469,0.11724
7312.75316,-0.05943
7314.68162,-0.24487
7316.61009,-0.34982
7318.53856,-0.26128
7320.46703,-0.15000
7322.39550,-0.07527
7324.32397,0.00704
7326.25244,0.09473
7328.18090,0.11327
7330.10937,0.08381
7332.03784,0.22229
7333.96631,0.37284
7335.89478,0.29696
7337.82325,0.07810
7339.75172,-0.18320
7341.68019,-0.31830
7343.60865,-0.32905
7345.53712,-0.32853
7347.46559,-0.25128
7349.39406,-0.06357
7351.32253,0.03762
7353.25100,0.05052
7355.17947,0.12039
7357.10793,0.11915
7359.03640,-0.05176
7360.96487,-0.10297
7362.89334,0.00721
7364.82181,0.09495
7366.75028,0.08598
7368.67875,0.03897
7370.60722,0.09696
7372.53568,0.21776
7374.46415,0.25679
7376.39262,0.17445
7378.32109,0.10507
7380.24956,0.12670
7382.17803,0.24891
7384.10650,0.31841
7386.03496,0.18518
7387.96343,-0.09572
7389.89190,-0.31936
7391.82037,-0.30624
7393.74884,-0.01125
7395.67731,0.36818
7397.60578,0.49088
7399.53425,0.30279
7401.46271,0.07782
7403.39118,-0.02477
7405.31965,-0.00554
7407.24812,0.05894
7409.17659,0.04665
7411.10506,-0.01471
7413.03353,0.03135
7414.96199,0.16001
7416.89046,0.21299
7418.81893,0.08203
7420.74740,-0.18327
7422.67587,-0.31849
7424.60434,-0.18498
7426.53281,0.05726
7428.46128,0.18235
7430.38974,0.16577
7432.31821,0.20142
7434.24668,0.28958
7436.17515,0.31464
7438.10362,0.28661
7440.03209,0.21585
7441.96056,0.14035
7443.88902,0.10158
7445.81749,0.01865
7447.74596,-0.14477
7449.67443,-0.24542
7451.60290,-0.06895
7453.53137,0.19463
7455.45984,0.28761
7457.38831,0.31322
7459.31677,0.28309
7461.24524,0.16753
7463.17371,0.13923
7465.10218,0.20413
7467.03065,0.15470
7468.95912,-0.00484
7470.88759,-0.08608
7472.81605,-0.05196
7474.74452,-0.00952
7476.67299,0.01820
7478.60146,0.00241
7480.52993,-0.06254
7482.45840,0.01309
7484.38687,0.20738
7486.31533,0.29168
7488.24380,0.25681
7490.17227,0.22142
7492.10074,0.15742
7494.02921,0.07480
7495.95768,0.11089
7497.88615,0.29073
