399.19301,0.00081
401.12148,-0.17481
403.04995,-0.09231
404.97842,0.11302
406.90689,0.35643
408.83536,0.66616
410.76382,1.02096
412.69229,2.08104
414.62076,4.83643
416.54923,8.53510
418.47770,9.18164
420.40617,4.23938
422.33464,0.60946
424.26311,-0.26026
426.19157,-0.01839
428.12004,0.25262
430.04851,0.30780
431.97698,0.21886
433.90545,0.16946
435.83392,0.26469
437.76239,0.28376
439.69085,0.12918
441.61932,0.00594
443.54779,-0.00224
445.47626,-0.02239
447.40473,0.01139
449.33320,0.14703
451.26167,0.24233
453.19013,0.21546
455.11860,0.17793
457.04707,0.22336
458.97554,0.23668
460.90401,0.19940
462.83248,0.18385
464.76095,0.16055
466.68942,0.12061
468.61788,0.09617
470.54635,0.08268
472.47482,0.03544
474.40329,0.02282
476.33176,0.10087
478.26023,0.12345
480.18870,0.07617
482.11716,0.01610
484.04563,0.02479
485.97410,0.09033
487.90257,0.09465
489.83104,0.05174
491.75951,0.07678
493.68798,0.14734
495.61645,0.20058
497.54491,0.20914
499.47338,0.16507
501.40185,0.12156
503.33032,0.11537
505.25879,0.11923
507.18726,0.09092
509.11573,0.04216
511.04419,0.03582
512.97266,0.08952
514.90113,0.14985
516.82960,0.17426
518.75807,0.18152
520.68654,0.17727
522.61501,0.15838
524.54348,0.11442
526.47194,0.04535
528.40041,0.01170
530.32888,0.01833
532.25735,0.04760
534.18582,0.11805
536.11429,0.19345
538.04276,0.20542
539.97122,0.16313
541.89969,0.11225
543.82816,0.07860
545.75663,0.08097
547.68510,0.11843
549.61357,0.16737
551.54204,0.22921
553.47051,0.26916
555.39897,0.23275
557.32744,0.17327
559.25591,0.14922
561.18438,0.13894
563.11285,0.14829
565.04132,0.17474
566.96979,0.17917
568.89825,0.16978
570.82672,0.16901
572.75519,0.17341
574.68366,0.16330
576.61213,0.11561
578.54060,0.07159
580.46907,0.07616
582.39754,0.09852
584.32600,0.10832
586.25447,0.12910
588.18294,0.17323
590.11141,0.19545
592.03988,0.16145
593.96835,0.12657
595.89682,0.13124
597.82528,0.13941
599.75375,0.13489
601.68222,0.13015
603.61069,0.12744
605.53916,0.13021
607.46763,0.13012
609.39610,0.11616
611.32456,0.10644
613.25303,0.10842
615.18150,0.10672
617.10997,0.10589
619.03844,0.11974
620.96691,0.13172
622.89538,0.12584
624.82385,0.11863
626.75231,0.12203
628.68078,0.13730
630.60925,0.16136
632.53772,0.17346
634.46619,0.16410
636.39466,0.15382
638.32313,0.14694
640.25159,0.13775
642.18006,0.13189
644.10853,0.11898
646.03700,0.10615
647.96547,0.12019
649.89394,0.14545
651.82241,0.15008
653.75088,0.14123
655.67934,0.13595
657.60781,0.13286
659.53628,0.12748
661.46475,0.11668
663.39322,0.10475
665.32169,0.09887
667.25016,0.10018
669.17862,0.11905
671.10709,0.14504
673.03556,0.16034
674.96403,0.15439
676.89250,0.12919
678.82097,0.11002
680.74944,0.11038
682.67791,0.12312
684.60637,0.13821
686.53484,0.14441
688.46331,0.13683
690.39178,0.12347
692.32025,0.11711
694.24872,0.12520
696.17719,0.13823
698.10565,0.14468
700.03412,0.14637
701.96259,0.14406
703.89106,0.13986
705.81953,0.13623
707.74800,0.14662
709.67647,0.22022
711.60494,0.30761
713.53340,0.27597
715.46187,0.17817
717.39034,0.14076
719.31881,0.15047
721.24728,0.16061
723.17575,0.15123
725.10422,0.13791
727.03268,0.14397
728.96115,0.15293
730.88962,0.15065
732.81809,0.14816
734.74656,0.15724
736.67503,0.17190
738.60350,0.17067
740.53197,0.15087
742.46043,0.13691
744.38890,0.13395
746.31737,0.13610
748.24584,0.14996
750.17431,0.16368
752.10278,0.15970
754.03125,0.14415
755.95971,0.13422
757.88818,0.13319
759.81665,0.13026
761.74512,0.12914
763.67359,0.13626
765.60206,0.14238
767.53053,0.14466
769.45900,0.14839
771.38746,0.14913
773.31593,0.14628
775.24440,0.14702
777.17287,0.14564
779.10134,0.14323
781.02981,0.14966
782.95828,0.15760
784.88674,0.15742
786.81521,0.14692
788.74368,0.12795
790.67215,0.11057
792.60062,0.10806
794.52909,0.12268
796.45756,0.14302
798.38602,0.15932
800.31449,0.16416
802.24296,0.15272
804.17143,0.13733
806.09990,0.13575
808.02837,0.14139
809.95684,0.13985
811.88531,0.13773
813.81377,0.14540
815.74224,0.14957
817.67071,0.13324
819.59918,0.12077
821.52765,0.13504
823.45612,0.15649
825.38459,0.16928
827.31305,0.17083
829.24152,0.16425
831.16999,0.16208
833.09846,0.16469
835.02693,0.16554
836.95540,0.16240
838.88387,0.15055
840.81234,0.13792
842.74080,0.13871
844.66927,0.14676
846.59774,0.15065
848.52621,0.15144
850.45468,0.15505
852.38315,0.15923
854.31162,0.14844
856.24008,0.12982
858.16855,0.12688
860.09702,0.13159
862.02549,0.13360
863.95396,0.14078
865.88243,0.14381
867.81090,0.13017
869.73937,0.11806
871.66783,0.12908
873.59630,0.14884
875.52477,0.15618
877.45324,0.15203
879.38171,0.14194
881.31018,0.13107
883.23865,0.12844
885.16711,0.13881
887.09558,0.15062
889.02405,0.15421
890.95252,0.15838
892.88099,0.16534
894.80946,0.16928
896.73793,0.16918
898.66640,0.16978
900.59486,0.17544
902.52333,0.17742
904.45180,0.17105
906.38027,0.16390
908.30874,0.16057
910.23721,0.16212
912.16568,0.16728
914.09414,0.17113
916.02261,0.16681
917.95108,0.15853
919.87955,0.16012
921.80802,0.17073
923.73649,0.17787
925.66496,0.17519
927.59343,0.16550
929.52189,0.15770
931.45036,0.15344
933.37883,0.15141
935.30730,0.15320
937.23577,0.15194
939.16424,0.14766
941.09271,0.14721
943.02117,0.14865
944.94964,0.14857
946.87811,0.13782
948.80658,0.12111
950.73505,0.12442
952.66352,0.14324
954.59199,0.15266
956.52045,0.15438
958.44892,0.15530
960.37739,0.15474
962.30586,0.15684
964.23433,0.15897
966.16280,0.15661
968.09127,0.15454
970.01974,0.15388
971.94820,0.15214
973.87667,0.15397
975.80514,0.15859
977.73361,0.16164
979.66208,0.16681
981.59055,0.17050
983.51902,0.16620
985.44748,0.16153
987.37595,0.16027
989.30442,0.15675
991.23289,0.15391
993.16136,0.15622
995.08983,0.16152
997.01830,0.16470
998.94677,0.16009
1000.87523,0.15345
1002.80370,0.15365
1004.73217,0.15788
1006.66064,0.16198
1008.58911,0.16233
1010.51758,0.15760
1012.44605,0.15353
1014.37451,0.15150
1016.30298,0.15095
1018.23145,0.15444
1020.15992,0.16305
1022.08839,0.17057
1024.01686,0.16864
1025.94533,0.16405
1027.87380,0.16524
1029.80226,0.16876
1031.73073,0.16772
1033.65920,0.16341
1035.58767,0.16351
1037.51614,0.16821
1039.44461,0.17592
1041.37308,0.18027
1043.30154,0.17271
1045.23001,0.16383
1047.15848,0.16384
1049.08695,0.16374
1051.01542,0.16026
1052.94389,0.15962
1054.87236,0.16080
1056.80083,0.16168
1058.72929,0.16047
1060.65776,0.15874
1062.58623,0.16402
1064.51470,0.17500
1066.44317,0.18141
1068.37164,0.17977
1070.30011,0.17749
1072.22857,0.17619
1074.15704,0.16939
1076.08551,0.16005
1078.01398,0.15539
1079.94245,0.15417
1081.87092,0.15712
1083.79939,0.16659
1085.72786,0.17504
1087.65632,0.17609
1089.58479,0.17140
1091.51326,0.16582
1093.44173,0.16248
1095.37020,0.16283
1097.29867,0.16819
1099.22714,0.17399
1101.15560,0.17859
1103.08407,0.18468
1105.01254,0.18233
1106.94101,0.16572
1108.86948,0.15444
1110.79795,0.15709
1112.72642,0.16159
1114.65489,0.17063
1116.58335,0.18601
1118.51182,0.19461
1120.44029,0.19077
1122.36876,0.18299
1124.29723,0.18048
1126.22570,0.17738
1128.15417,0.16722
1130.08263,0.15701
1132.01110,0.15082
1133.93957,0.14992
1135.86804,0.15434
1137.79651,0.16022
1139.72498,0.16823
1141.65345,0.17558
1143.58191,0.17895
1145.51038,0.18133
1147.43885,0.18197
1149.36732,0.17983
1151.29579,0.17762
1153.22426,0.17764
1155.15273,0.17835
1157.08120,0.17741
1159.00966,0.17497
1160.93813,0.17016
1162.86660,0.16704
1164.79507,0.16966
1166.72354,0.17111
1168.65201,0.16854
1170.58048,0.16982
1172.50894,0.17574
1174.43741,0.18015
1176.36588,0.18380
1178.29435,0.18553
1180.22282,0.18086
1182.15129,0.17463
1184.07976,0.17180
1186.00823,0.17039
1187.93669,0.16916
1189.86516,0.17033
1191.79363,0.17280
1193.72210,0.17279
1195.65057,0.17354
1197.57904,0.17660
1199.50751,0.17641
1201.43597,0.17220
1203.36444,0.16972
1205.29291,0.17218
1207.22138,0.17453
1209.14985,0.17267
1211.07832,0.16984
1213.00679,0.16907
1214.93526,0.17239
1216.86372,0.17730
1218.79219,0.17854
1220.72066,0.17947
1222.64913,0.18167
1224.57760,0.17988
1226.50607,0.17795
1228.43454,0.18265
1230.36300,0.18739
1232.29147,0.18226
1234.21994,0.16986
1236.14841,0.16191
1238.07688,0.16259
1240.00535,0.16629
1241.93382,0.16983
1243.86229,0.17281
1245.79075,0.17665
1247.71922,0.18096
1249.64769,0.18122
1251.57616,0.17982
1253.50463,0.17951
1255.43310,0.17937
1257.36157,0.17913
1259.29003,0.17601
1261.21850,0.17309
1263.14697,0.17526
1265.07544,0.17814
1267.00391,0.17882
1268.93238,0.18029
1270.86085,0.18280
1272.78932,0.18428
1274.71778,0.18372
1276.64625,0.18218
1278.57472,0.18162
1280.50319,0.17915
1282.43166,0.17504
1284.36013,0.17552
1286.28860,0.17789
1288.21706,0.17736
1290.14553,0.17770
1292.07400,0.17991
1294.00247,0.18033
1295.93094,0.17966
1297.85941,0.17907
1299.78788,0.17429
1301.71634,0.16289
1303.64481,0.15200
1305.57328,0.15355
1307.50175,0.16704
1309.43022,0.17834
1311.35869,0.18346
1313.28716,0.18676
1315.21563,0.18813
1317.14409,0.18813
1319.07256,0.18512
1321.00103,0.18062
1322.92950,0.18148
1324.85797,0.18167
1326.78644,0.17571
1328.71491,0.17252
1330.64337,0.17293
1332.57184,0.17315
1334.50031,0.17556
1336.42878,0.17983
1338.35725,0.18362
1340.28572,0.18704
1342.21419,0.20379
1344.14266,0.22729
1346.07112,0.22241
1347.99959,0.19232
1349.92806,0.17406
1351.85653,0.17353
1353.78500,0.17688
1355.71347,0.17933
1357.64194,0.18137
1359.57040,0.18386
1361.49887,0.18550
1363.42734,0.18275
1365.35581,0.17900
1367.28428,0.17871
1369.21275,0.17968
1371.14122,0.18168
1373.06969,0.18568
1374.99815,0.18953
1376.92662,0.19207
1378.85509,0.19145
1380.78356,0.18669
1382.71203,0.18376
1384.64050,0.18673
1386.56897,0.19192
1388.49743,0.19445
1390.42590,0.19427
1392.35437,0.19512
1394.28284,0.19737
1396.21131,0.19631
1398.13978,0.19428
1400.06825,0.19488
1401.99672,0.19320
1403.92518,0.18716
1405.85365,0.18228
1407.78212,0.18392
1409.71059,0.18817
1411.63906,0.19076
1413.56753,0.19245
1415.49600,0.19523
1417.42446,0.19908
1419.35293,0.20033
1421.28140,0.19798
1423.20987,0.19451
1425.13834,0.19006
1427.06681,0.18767
1428.99528,0.18832
1430.92375,0.18986
1432.85221,0.19223
1434.78068,0.19509
1436.70915,0.19452
1438.63762,0.19118
1440.56609,0.18903
1442.49456,0.18840
1444.42303,0.19185
1446.35149,0.19764
1448.27996,0.19938
1450.20843,0.19862
1452.13690,0.20206
1454.06537,0.21000
1455.99384,0.21846
1457.92231,0.21699
1459.85077,0.20874
1461.77924,0.20645
1463.70771,0.20866
1465.63618,0.20859
1467.56465,0.20322
1469.49312,0.20077
1471.42159,0.20836
1473.35006,0.21930
1475.27852,0.21826
1477.20699,0.21309
1479.13546,0.20953
1481.06393,0.20477
1482.99240,0.20101
1484.92087,0.20380
1486.84934,0.21237
1488.77780,0.21967
1490.70627,0.21524
1492.63474,0.20807
1494.56321,0.20934
1496.49168,0.21466
1498.42015,0.21277
1500.34862,0.21039
1502.27709,0.21484
1504.20555,0.22016
1506.13402,0.22633
1508.06249,0.22844
1509.99096,0.21592
1511.91943,0.20417
1513.84790,0.20169
1515.77637,0.20844
1517.70483,0.21967
1519.63330,0.23109
1521.56177,0.23553
1523.49024,0.22525
1525.41871,0.21639
1527.34718,0.21422
1529.27565,0.21303
1531.20412,0.21202
1533.13258,0.21128
1535.06105,0.21093
1536.98952,0.21442
1538.91799,0.22808
1540.84646,0.25017
1542.77493,0.24622
1544.70340,0.22488
1546.63186,0.20848
1548.56033,0.20268
1550.48880,0.20369
1552.41727,0.20821
1554.34574,0.21586
1556.27421,0.22751
1558.20268,0.24087
1560.13115,0.22926
1562.05961,0.21428
1563.98808,0.21088
1565.91655,0.21012
1567.84502,0.21002
1569.77349,0.21016
1571.70196,0.20670
1573.63043,0.20478
1575.55889,0.20405
1577.48736,0.19784
1579.41583,0.19278
1581.34430,0.19203
1583.27277,0.19177
1585.20124,0.19194
1587.12971,0.19411
1589.05818,0.19473
1590.98664,0.19184
1592.91511,0.18912
1594.84358,0.18792
1596.77205,0.18704
1598.70052,0.18770
1600.62899,0.18997
1602.55746,0.19149
1604.48592,0.19227
1606.41439,0.19429
1608.34286,0.19658
1610.27133,0.19649
1612.19980,0.19632
1614.12827,0.19978
1616.05674,0.20585
1617.98521,0.20884
1619.91367,0.20947
1621.84214,0.21155
1623.77061,0.21249
1625.69908,0.21046
1627.62755,0.20772
1629.55602,0.20546
1631.48449,0.20642
1633.41295,0.21412
1635.34142,0.22696
1637.26989,0.22606
1639.19836,0.21725
1641.12683,0.21463
1643.05530,0.21878
1644.98377,0.23067
1646.91223,0.24128
1648.84070,0.23490
1650.76917,0.23126
1652.69764,0.23595
1654.62611,0.22568
1656.55458,0.21068
1658.48305,0.20086
1660.41152,0.19819
1662.33998,0.20718
1664.26845,0.21642
1666.19692,0.21826
1668.12539,0.22118
1670.05386,0.22501
1671.98233,0.22454
1673.91080,0.22341
1675.83926,0.22124
1677.76773,0.21974
1679.69620,0.22136
1681.62467,0.22567
1683.55314,0.23204
1685.48161,0.22883
1687.41008,0.22098
1689.33855,0.21795
1691.26701,0.21407
1693.19548,0.21053
1695.12395,0.21771
1697.05242,0.23234
1698.98089,0.23024
1700.90936,0.21463
1702.83783,0.21162
1704.76629,0.21690
1706.69476,0.21642
1708.62323,0.21040
1710.55170,0.20762
1712.48017,0.21031
1714.40864,0.21734
1716.33711,0.22488
1718.26558,0.22146
1720.19404,0.21054
1722.12251,0.20409
1724.05098,0.20247
1725.97945,0.20387
1727.90792,0.20771
1729.83639,0.21165
1731.76486,0.21489
1733.69332,0.21447
1735.62179,0.20627
1737.55026,0.20321
1739.47873,0.20605
1741.40720,0.20786
1743.33567,0.20916
1745.26414,0.21193
1747.19261,0.21442
1749.12107,0.21612
1751.04954,0.21395
1752.97801,0.20850
1754.90648,0.20633
1756.83495,0.20734
1758.76342,0.20763
1760.69189,0.20788
1762.62035,0.20837
1764.54882,0.20743
1766.47729,0.20768
1768.40576,0.21185
1770.33423,0.21811
1772.26270,0.21949
1774.19117,0.21332
1776.11964,0.20717
1778.04810,0.20389
1779.97657,0.20365
1781.90504,0.20405
1783.83351,0.20305
1785.76198,0.20303
1787.69045,0.20461
1789.61892,0.20754
1791.54738,0.21239
1793.47585,0.21341
1795.40432,0.20848
1797.33279,0.20370
1799.26126,0.20222
1801.18973,0.20482
1803.11820,0.20782
1805.04666,0.20660
1806.97513,0.20425
1808.90360,0.20548
1810.83207,0.20600
1812.76054,0.20201
1814.68901,0.19728
1816.61748,0.18923
1818.54595,0.18261
1820.47441,0.19091
1822.40288,0.20522
1824.33135,0.21054
1826.25982,0.21180
1828.18829,0.21630
1830.11676,0.21855
1832.04523,0.21480
1833.97369,0.21151
1835.90216,0.20976
1837.83063,0.20621
1839.75910,0.20419
1841.68757,0.20821
1843.61604,0.21408
1845.54451,0.21268
1847.47298,0.20759
1849.40144,0.20491
1851.32991,0.20350
1853.25838,0.20230
1855.18685,0.20176
1857.11532,0.20121
1859.04379,0.19932
1860.97226,0.19773
1862.90072,0.19911
1864.82919,0.20321
1866.75766,0.20950
1868.68613,0.21427
1870.61460,0.21070
1872.54307,0.20447
1874.47154,0.20359
1876.40001,0.20649
1878.32847,0.20700
1880.25694,0.20412
1882.18541,0.20261
1884.11388,0.20402
1886.04235,0.20574
1887.97082,0.20691
1889.89929,0.20617
1891.82775,0.20328
1893.75622,0.20379
1895.68469,0.20944
1897.61316,0.21300
1899.54163,0.21199
1901.47010,0.21007
1903.39857,0.20662
1905.32704,0.20287
1907.25550,0.20253
1909.18397,0.20399
1911.11244,0.20542
1913.04091,0.20655
1914.96938,0.20580
1916.89785,0.20373
1918.82632,0.20173
1920.75478,0.20072
1922.68325,0.20176
1924.61172,0.20282
1926.54019,0.20198
1928.46866,0.20047
1930.39713,0.19993
1932.32560,0.20188
1934.25407,0.20522
1936.18253,0.20609
1938.11100,0.20511
1940.03947,0.20773
1941.96794,0.21383
1943.89641,0.21596
1945.82488,0.21206
1947.75335,0.20727
1949.68181,0.20504
1951.61028,0.20512
1953.53875,0.20578
1955.46722,0.20632
1957.39569,0.20616
1959.32416,0.20461
1961.25263,0.20408
1963.18110,0.20631
1965.10956,0.20782
1967.03803,0.20639
1968.96650,0.20464
1970.89497,0.20431
1972.82344,0.20339
1974.75191,0.20101
1976.68038,0.19972
1978.60884,0.19919
1980.53731,0.19801
1982.46578,0.19843
1984.39425,0.20053
1986.32272,0.20301
1988.25119,0.20602
1990.17966,0.20796
1992.10812,0.20741
1994.03659,0.20669
1995.96506,0.20728
1997.89353,0.20664
1999.82200,0.20420
2001.75047,0.20343
2003.67894,0.20482
2005.60741,0.20542
2007.53587,0.20458
2009.46434,0.20364
2011.39281,0.20295
2013.32128,0.20282
2015.24975,0.20474
2017.17822,0.20756
2019.10669,0.20793
2021.03515,0.20717
2022.96362,0.20648
2024.89209,0.20370
2026.82056,0.20127
2028.74903,0.20200
2030.67750,0.20333
2032.60597,0.20407
2034.53444,0.20395
2036.46290,0.20254
2038.39137,0.20245
2040.31984,0.20402
2042.24831,0.20489
2044.17678,0.20540
2046.10525,0.20573
2048.03372,0.20486
2049.96218,0.20348
2051.89065,0.20233
2053.81912,0.20189
2055.74759,0.20286
2057.67606,0.20363
2059.60453,0.20329
2061.53300,0.20405
2063.46147,0.20510
2065.38993,0.20448
2067.31840,0.20539
2069.24687,0.20836
2071.17534,0.20985
2073.10381,0.20863
2075.03228,0.20533
2076.96075,0.20268
2078.88921,0.20175
2080.81768,0.20127
2082.74615,0.20107
2084.67462,0.20045
2086.60309,0.19958
2088.53156,0.19948
2090.46003,0.19958
2092.38850,0.20042
2094.31696,0.20411
2096.24543,0.20827
2098.17390,0.20815
2100.10237,0.20474
2102.03084,0.20331
2103.95931,0.20556
2105.88778,0.20726
2107.81624,0.20529
2109.74471,0.20168
2111.67318,0.20056
2113.60165,0.20302
2115.53012,0.20482
2117.45859,0.20404
2119.38706,0.20338
2121.31553,0.20457
2123.24399,0.20753
2125.17246,0.21029
2127.10093,0.21130
2129.02940,0.21096
2130.95787,0.20954
2132.88634,0.20474
2134.81481,0.19864
2136.74327,0.20110
2138.67174,0.20932
2140.60021,0.21126
2142.52868,0.20808
2144.45715,0.20495
2146.38562,0.20284
2148.31409,0.20339
2150.24255,0.20591
2152.17102,0.20722
2154.09949,0.20673
2156.02796,0.20548
2157.95643,0.20447
2159.88490,0.20592
2161.81337,0.20947
2163.74184,0.21131
2165.67030,0.20992
2167.59877,0.20823
2169.52724,0.20664
2171.45571,0.20341
2173.38418,0.20148
2175.31265,0.20278
2177.24112,0.20437
2179.16958,0.20517
2181.09805,0.20704
2183.02652,0.20940
2184.95499,0.21065
2186.88346,0.21060
2188.81193,0.20865
2190.74040,0.20626
2192.66887,0.20585
2194.59733,0.20550
2196.52580,0.20237
2198.45427,0.20003
2200.38274,0.20183
2202.31121,0.20490
2204.23968,0.20733
2206.16815,0.20847
2208.09661,0.20808
2210.02508,0.20703
2211.95355,0.20539
2213.88202,0.20395
2215.81049,0.20238
2217.73896,0.20005
2219.66743,0.19955
2221.59590,0.20193
2223.52436,0.20472
2225.45283,0.20606
2227.38130,0.20611
2229.30977,0.20585
2231.23824,0.20505
2233.16671,0.20374
2235.09518,0.20363
2237.02364,0.20469
2238.95211,0.20523
2240.88058,0.20530
2242.80905,0.20572
2244.73752,0.20602
2246.66599,0.20443
2248.59446,0.20219
2250.52293,0.20412
2252.45139,0.20854
2254.37986,0.20951
2256.30833,0.20818
2258.23680,0.20731
2260.16527,0.20605
2262.09374,0.20403
2264.02221,0.20209
2265.95067,0.20074
2267.87914,0.19990
2269.80761,0.19953
2271.73608,0.20069
2273.66455,0.20431
2275.59302,0.20782
2277.52149,0.20903
2279.44996,0.20883
2281.37842,0.20782
2283.30689,0.20650
2285.23536,0.20435
2287.16383,0.20185
2289.09230,0.20059
2291.02077,0.19902
2292.94924,0.19741
2294.87770,0.19821
2296.80617,0.19988
2298.73464,0.19953
2300.66311,0.19717
2302.59158,0.19452
2304.52005,0.19335
2306.44852,0.19410
2308.37699,0.19580
2310.30545,0.19716
2312.23392,0.19754
2314.16239,0.19817
2316.09086,0.19743
2318.01933,0.19021
2319.94780,0.18118
2321.87627,0.18232
2323.80473,0.19230
2325.73320,0.19931
2327.66167,0.19625
2329.59014,0.18854
2331.51861,0.19038
2333.44708,0.20344
2335.37555,0.21252
2337.30401,0.20620
2339.23248,0.19621
2341.16095,0.19561
2343.08942,0.19406
2345.01789,0.18911
2346.94636,0.18689
2348.87483,0.18411
2350.80330,0.18046
2352.73176,0.17581
2354.66023,0.16170
2356.58870,0.14394
2358.51717,0.14852
2360.44564,0.16367
2362.37411,0.17352
2364.30258,0.19135
2366.23104,0.19698
2368.15951,0.17704
2370.08798,0.16565
2372.01645,0.17403
2373.94492,0.18216
2375.87339,0.18546
2377.80186,0.19003
2379.73033,0.19413
2381.65879,0.19593
2383.58726,0.19719
2385.51573,0.19932
2387.44420,0.20286
2389.37267,0.20569
2391.30114,0.20580
2393.22961,0.20398
2395.15807,0.20100
2397.08654,0.19898
2399.01501,0.20009
2400.94348,0.20367
2402.87195,0.20720
2404.80042,0.20673
2406.72889,0.20416
2408.65736,0.20458
2410.58582,0.20469
2412.51429,0.20309
2414.44276,0.20340
2416.37123,0.20343
2418.29970,0.20296
2420.22817,0.20497
2422.15664,0.20812
2424.08510,0.21097
2426.01357,0.21161
2427.94204,0.20835
2429.87051,0.20451
2431.79898,0.20426
2433.72745,0.20717
2435.65592,0.20955
2437.58439,0.21010
2439.51285,0.20823
2441.44132,0.20365
2443.36979,0.20122
2445.29826,0.20306
2447.22673,0.20550
2449.15520,0.20962
2451.08367,0.21632
2453.01213,0.21638
2454.94060,0.20758
2456.86907,0.20305
2458.79754,0.20618
2460.72601,0.20899
2462.65448,0.20829
2464.58295,0.20441
2466.51142,0.20231
2468.43988,0.20493
2470.36835,0.20660
2472.29682,0.20628
2474.22529,0.20853
2476.15376,0.21183
2478.08223,0.21175
2480.01070,0.21050
2481.93916,0.21250
2483.86763,0.21548
2485.79610,0.21571
2487.72457,0.21447
2489.65304,0.21360
2491.58151,0.21272
2493.50998,0.21115
2495.43844,0.20880
2497.36691,0.20635
2499.29538,0.20463
2501.22385,0.20343
2503.15232,0.20324
2505.08079,0.20465
2507.00926,0.20661
2508.93773,0.20895
2510.86619,0.21111
2512.79466,0.21084
2514.72313,0.20818
2516.65160,0.20677
2518.58007,0.20841
2520.50854,0.21051
2522.43701,0.21120
2524.36547,0.20946
2526.29394,0.20616
2528.22241,0.20625
2530.15088,0.21003
2532.07935,0.21073
2534.00782,0.20680
2535.93629,0.20371
2537.86476,0.20370
2539.79322,0.20649
2541.72169,0.20954
2543.65016,0.20906
2545.57863,0.20721
2547.50710,0.20800
2549.43557,0.21037
2551.36404,0.21108
2553.29250,0.20959
2555.22097,0.20785
2557.14944,0.20748
2559.07791,0.20652
2561.00638,0.20342
2562.93485,0.20343
2564.86332,0.20988
2566.79179,0.21643
2568.72025,0.21750
2570.64872,0.21580
2572.57719,0.21373
2574.50566,0.21025
2576.43413,0.20744
2578.36260,0.20769
2580.29107,0.20850
2582.21953,0.20727
2584.14800,0.20595
2586.07647,0.20781
2588.00494,0.21115
2589.93341,0.21116
2591.86188,0.20786
2593.79035,0.20518
2595.71882,0.20389
2597.64728,0.20369
2599.57575,0.20641
2601.50422,0.21066
2603.43269,0.21280
2605.36116,0.21336
2607.28963,0.21511
2609.21810,0.21725
2611.14656,0.21614
2613.07503,0.21149
2615.00350,0.20701
2616.93197,0.20581
2618.86044,0.20726
2620.78891,0.20807
2622.71738,0.20734
2624.64585,0.20782
2626.57431,0.20991
2628.50278,0.21011
2630.43125,0.20909
2632.35972,0.21075
2634.28819,0.21373
2636.21666,0.21362
2638.14513,0.21127
2640.07359,0.21197
2642.00206,0.21510
2643.93053,0.21573
2645.85900,0.21452
2647.78747,0.21458
2649.71594,0.21460
2651.64441,0.21199
2653.57288,0.20825
2655.50134,0.20758
2657.42981,0.21007
2659.35828,0.21217
2661.28675,0.21330
2663.21522,0.21260
2665.14369,0.20905
2667.07216,0.20644
2669.00062,0.20856
2670.92909,0.21376
2672.85756,0.21647
2674.78603,0.21465
2676.71450,0.21080
2678.64297,0.20875
2680.57144,0.21155
2682.49990,0.21648
2684.42837,0.21895
2686.35684,0.21882
2688.28531,0.21769
2690.21378,0.21612
2692.14225,0.21446
2694.07072,0.21415
2695.99919,0.21481
2697.92765,0.21476
2699.85612,0.21458
2701.78459,0.21359
2703.71306,0.21157
2705.64153,0.21273
2707.57000,0.21765
2709.49847,0.22069
2711.42693,0.21893
2713.35540,0.21567
2715.28387,0.21448
2717.21234,0.21602
2719.14081,0.21889
2721.06928,0.21938
2722.99775,0.21812
2724.92622,0.22014
2726.85468,0.22439
2728.78315,0.22599
2730.71162,0.22392
2732.64009,0.22087
2734.56856,0.21898
2736.49703,0.21941
2738.42550,0.22286
2740.35396,0.22630
2742.28243,0.22676
2744.21090,0.22641
2746.13937,0.22666
2748.06784,0.22497
2749.99631,0.22153
2751.92478,0.21916
2753.85325,0.21768
2755.78171,0.21716
2757.71018,0.21829
2759.63865,0.21874
2761.56712,0.21740
2763.49559,0.21726
2765.42406,0.21686
2767.35253,0.21325
2769.28099,0.21416
2771.20946,0.22203
2773.13793,0.22620
2775.06640,0.22470
2776.99487,0.22266
2778.92334,0.22001
2780.85181,0.21905
2782.78028,0.22237
2784.70874,0.22518
2786.63721,0.22506
2788.56568,0.22413
2790.49415,0.22257
2792.42262,0.22119
2794.35109,0.22167
2796.27956,0.22308
2798.20802,0.22165
2800.13649,0.21946
2802.06496,0.22351
2803.99343,0.23036
2805.92190,0.23262
2807.85037,0.23126
2809.77884,0.22999
2811.70731,0.22995
2813.63577,0.22953
2815.56424,0.22843
2817.49271,0.22784
2819.42118,0.22708
2821.34965,0.22460
2823.27812,0.22008
2825.20659,0.21750
2827.13505,0.21953
2829.06352,0.22146
2830.99199,0.22083
2832.92046,0.22226
2834.84893,0.22718
2836.77740,0.23019
2838.70587,0.22794
2840.63433,0.22423
2842.56280,0.22335
2844.49127,0.22345
2846.41974,0.22216
2848.34821,0.22189
2850.27668,0.22408
2852.20515,0.22679
2854.13362,0.22925
2856.06208,0.23113
2857.99055,0.22985
2859.91902,0.22503
2861.84749,0.22155
2863.77596,0.22241
2865.70443,0.22484
2867.63290,0.22554
2869.56136,0.22488
2871.48983,0.22558
2873.41830,0.22826
2875.34677,0.22914
2877.27524,0.22584
2879.20371,0.22414
2881.13218,0.22686
2883.06065,0.22710
2884.98911,0.22330
2886.91758,0.22121
2888.84605,0.22253
2890.77452,0.22384
2892.70299,0.22409
2894.63146,0.22418
2896.55993,0.22302
2898.48839,0.22357
2900.41686,0.22791
2902.34533,0.23057
2904.27380,0.22895
2906.20227,0.22743
2908.13074,0.22763
2910.05921,0.22666
2911.98768,0.22363
2913.91614,0.21825
2915.84461,0.21329
2917.77308,0.21334
2919.70155,0.21616
2921.63002,0.21923
2923.55849,0.21609
2925.48696,0.20001
2927.41542,0.19284
2929.34389,0.21050
2931.27236,0.22602
2933.20083,0.22565
2935.12930,0.22308
2937.05777,0.21989
2938.98624,0.21692
2940.91471,0.21696
2942.84317,0.21745
2944.77164,0.21731
2946.70011,0.21436
2948.62858,0.21252
2950.55705,0.21698
2952.48552,0.22317
2954.41399,0.22309
2956.34245,0.21409
2958.27092,0.20818
2960.19939,0.21325
2962.12786,0.21745
2964.05633,0.21473
2965.98480,0.21154
2967.91327,0.21191
2969.84174,0.21723
2971.77020,0.22409
2973.69867,0.22910
2975.62714,0.23120
2977.55561,0.22778
2979.48408,0.22437
2981.41255,0.22647
2983.34102,0.22856
2985.26948,0.22566
2987.19795,0.22130
2989.12642,0.22306
2991.05489,0.22934
2992.98336,0.23268
2994.91183,0.23282
2996.84030,0.23135
2998.76877,0.22814
3000.69723,0.22731
3002.62570,0.23104
3004.55417,0.23158
3006.48264,0.22650
3008.41111,0.22416
3010.33958,0.22134
3012.26805,0.20547
3014.19651,0.17739
3016.12498,0.15575
3018.05345,0.16499
3019.98192,0.19969
3021.91039,0.22475
3023.83886,0.22994
3025.76733,0.22953
3027.69579,0.23216
3029.62426,0.23927
3031.55273,0.24369
3033.48120,0.23885
3035.40967,0.22976
3037.33814,0.22443
3039.26661,0.22591
3041.19508,0.23229
3043.12354,0.23732
3045.05201,0.23532
3046.98048,0.23131
3048.90895,0.23172
3050.83742,0.23067
3052.76589,0.22538
3054.69436,0.21930
3056.62282,0.21451
3058.55129,0.21552
3060.47976,0.22026
3062.40823,0.22320
3064.33670,0.22074
3066.26517,0.21310
3068.19364,0.21227
3070.12211,0.22167
3072.05057,0.22870
3073.97904,0.22330
3075.90751,0.21252
3077.83598,0.21353
3079.76445,0.22244
3081.69292,0.22010
3083.62139,0.20261
3085.54985,0.18805
3087.47832,0.19500
3089.40679,0.21215
3091.33526,0.21699
3093.26373,0.21010
3095.19220,0.20751
3097.12067,0.21735
3099.04914,0.23008
3100.97760,0.23162
3102.90607,0.22288
3104.83454,0.21941
3106.76301,0.22629
3108.69148,0.23167
3110.61995,0.22863
3112.54842,0.22385
3114.47688,0.22560
3116.40535,0.23081
3118.33382,0.23167
3120.26229,0.22871
3122.19076,0.22675
3124.11923,0.22759
3126.04770,0.22995
3127.97617,0.23016
3129.90463,0.22736
3131.83310,0.22711
3133.76157,0.23147
3135.69004,0.23543
3137.61851,0.23595
3139.54698,0.23719
3141.47545,0.24026
3143.40391,0.23934
3145.33238,0.23675
3147.26085,0.23741
3149.18932,0.24049
3151.11779,0.24395
3153.04626,0.24465
3154.97473,0.24196
3156.90320,0.23803
3158.83166,0.23690
3160.76013,0.23899
3162.68860,0.23964
3164.61707,0.24081
3166.54554,0.24269
3168.47401,0.23955
3170.40248,0.23383
3172.33094,0.23033
3174.25941,0.23124
3176.18788,0.23639
3178.11635,0.24066
3180.04482,0.24053
3181.97329,0.23731
3183.90176,0.23586
3185.83022,0.23680
3187.75869,0.23554
3189.68716,0.23298
3191.61563,0.23284
3193.54410,0.23721
3195.47257,0.24267
3197.40104,0.24142
3199.32951,0.23561
3201.25797,0.23171
3203.18644,0.23010
3205.11491,0.23146
3207.04338,0.23313
3208.97185,0.23052
3210.90032,0.22708
3212.82879,0.22900
3214.75725,0.23669
3216.68572,0.24137
3218.61419,0.23675
3220.54266,0.23072
3222.47113,0.23011
3224.39960,0.23141
3226.32807,0.23329
3228.25654,0.23702
3230.18500,0.23984
3232.11347,0.24043
3234.04194,0.23787
3235.97041,0.23132
3237.89888,0.22746
3239.82735,0.22922
3241.75582,0.23047
3243.68428,0.23078
3245.61275,0.23387
3247.54122,0.23719
3249.46969,0.23588
3251.39816,0.22980
3253.32663,0.22377
3255.25510,0.22110
3257.18357,0.22132
3259.11203,0.22531
3261.04050,0.23283
3262.96897,0.23951
3264.89744,0.24148
3266.82591,0.23821
3268.75438,0.23424
3270.68285,0.23374
3272.61131,0.23472
3274.53978,0.23465
3276.46825,0.23235
3278.39672,0.22957
3280.32519,0.22922
3282.25366,0.22735
3284.18213,0.22449
3286.11060,0.22858
3288.03906,0.23488
3289.96753,0.23394
3291.89600,0.22828
3293.82447,0.22277
3295.75294,0.22096
3297.68141,0.22746
3299.60988,0.23914
3301.53834,0.24561
3303.46681,0.24334
3305.39528,0.23734
3307.32375,0.23211
3309.25222,0.23024
3311.18069,0.23177
3313.10916,0.23492
3315.03763,0.23698
3316.96609,0.23604
3318.89456,0.23486
3320.82303,0.23425
3322.75150,0.23338
3324.67997,0.23449
3326.60844,0.23499
3328.53691,0.23161
3330.46537,0.22881
3332.39384,0.22933
3334.32231,0.23197
3336.25078,0.23603
3338.17925,0.23913
3340.10772,0.24028
3342.03619,0.23832
3343.96466,0.23395
3345.89312,0.23471
3347.82159,0.24189
3349.75006,0.24689
3351.67853,0.24540
3353.60700,0.24135
3355.53547,0.23989
3357.46394,0.24113
3359.39240,0.23989
3361.32087,0.23579
3363.24934,0.23308
3365.17781,0.23225
3367.10628,0.23438
3369.03475,0.23780
3370.96322,0.23728
3372.89168,0.23554
3374.82015,0.23716
3376.74862,0.24004
3378.67709,0.24060
3380.60556,0.23933
3382.53403,0.23961
3384.46250,0.23983
3386.39097,0.23719
3388.31943,0.23460
3390.24790,0.23292
3392.17637,0.23120
3394.10484,0.23221
3396.03331,0.23342
3397.96178,0.23113
3399.89025,0.23259
3401.81871,0.23542
3403.74718,0.23065
3405.67565,0.22742
3407.60412,0.23045
3409.53259,0.23145
3411.46106,0.23002
3413.38953,0.23117
3415.31800,0.23373
3417.24646,0.23431
3419.17493,0.23664
3421.10340,0.24290
3423.03187,0.24609
3424.96034,0.24192
3426.88881,0.23712
3428.81728,0.23731
3430.74574,0.23855
3432.67421,0.23575
3434.60268,0.22922
3436.53115,0.22466
3438.45962,0.22455
3440.38809,0.22714
3442.31656,0.23082
3444.24503,0.23299
3446.17349,0.23237
3448.10196,0.22919
3450.03043,0.22418
3451.95890,0.21881
3453.88737,0.21632
3455.81584,0.21782
3457.74431,0.22042
3459.67277,0.22208
3461.60124,0.22187
3463.52971,0.21869
3465.45818,0.21137
3467.38665,0.20372
3469.31512,0.20306
3471.24359,0.20920
3473.17206,0.21544
3475.10052,0.21780
3477.02899,0.21486
3478.95746,0.21057
3480.88593,0.21049
3482.81440,0.21222
3484.74287,0.21390
3486.67134,0.21464
3488.59980,0.21327
3490.52827,0.21257
3492.45674,0.21069
3494.38521,0.20593
3496.31368,0.20314
3498.24215,0.20554
3500.17062,0.21185
3502.09909,0.21851
3504.02755,0.21921
3505.95602,0.21221
3507.88449,0.20293
3509.81296,0.19683
3511.74143,0.19506
3513.66990,0.19392
3515.59837,0.19170
3517.52683,0.18957
3519.45530,0.19014
3521.38377,0.19474
3523.31224,0.19864
3525.24071,0.19857
3527.16918,0.19865
3529.09765,0.19786
3531.02611,0.19315
3532.95458,0.19024
3534.88305,0.19235
3536.81152,0.19491
3538.73999,0.19384
3540.66846,0.19156
3542.59693,0.19139
3544.52540,0.19199
3546.45386,0.19002
3548.38233,0.18585
3550.31080,0.18350
3552.23927,0.18243
3554.16774,0.18221
3556.09621,0.18563
3558.02468,0.18870
3559.95314,0.18719
3561.88161,0.18440
3563.81008,0.18386
3565.73855,0.18622
3567.66702,0.18886
3569.59549,0.18718
3571.52396,0.18208
3573.45243,0.17522
3575.38089,0.17104
3577.30936,0.17310
3579.23783,0.17604
3581.16630,0.17718
3583.09477,0.18007
3585.02324,0.18518
3586.95171,0.18975
3588.88017,0.18828
3590.80864,0.18267
3592.73711,0.17659
3594.66558,0.17037
3596.59405,0.16718
3598.52252,0.16639
3600.45099,0.16462
3602.37946,0.16255
3604.30792,0.16363
3606.23639,0.16645
3608.16486,0.16431
3610.09333,0.15973
3612.02180,0.16075
3613.95027,0.16650
3615.87874,0.17216
3617.80720,0.17473
3619.73567,0.17295
3621.66414,0.16714
3623.59261,0.16150
3625.52108,0.16035
3627.44955,0.16373
3629.37802,0.16353
3631.30649,0.15756
3633.23495,0.15344
3635.16342,0.15328
3637.09189,0.15664
3639.02036,0.16035
3640.94883,0.16138
3642.87730,0.15992
3644.80577,0.16323
3646.73423,0.17675
3648.66270,0.18842
3650.59117,0.17571
3652.51964,0.15865
3654.44811,0.15273
3656.37658,0.15286
3658.30505,0.15080
3660.23352,0.14611
3662.16198,0.14275
3664.09045,0.14391
3666.01892,0.14763
3667.94739,0.15067
3669.87586,0.15486
3671.80433,0.15759
3673.73280,0.15514
3675.66126,0.15021
3677.58973,0.15049
3679.51820,0.15300
3681.44667,0.15048
3683.37514,0.14778
3685.30361,0.15194
3687.23208,0.15998
3689.16055,0.16415
3691.08901,0.16024
3693.01748,0.15491
3694.94595,0.15046
3696.87442,0.14379
3698.80289,0.13940
3700.73136,0.14398
3702.65983,0.15021
3704.58829,0.14969
3706.51676,0.14729
3708.44523,0.14743
3710.37370,0.15330
3712.30217,0.15770
3714.23064,0.15162
3716.15911,0.14181
3718.08757,0.13550
3720.01604,0.13781
3721.94451,0.14449
3723.87298,0.14835
3725.80145,0.14695
3727.72992,0.14261
3729.65839,0.14429
3731.58686,0.15602
3733.51532,0.16721
3735.44379,0.16776
3737.37226,0.16853
3739.30073,0.16659
3741.22920,0.15822
3743.15767,0.14880
3745.08614,0.14532
3747.01460,0.14947
3748.94307,0.15275
3750.87154,0.15113
3752.80001,0.14855
3754.72848,0.14870
3756.65695,0.14908
3758.58542,0.14665
3760.51389,0.14289
3762.44235,0.13988
3764.37082,0.13669
3766.29929,0.13594
3768.22776,0.13814
3770.15623,0.14012
3772.08470,0.14134
3774.01317,0.13979
3775.94163,0.13574
3777.87010,0.13397
3779.79857,0.13379
3781.72704,0.13352
3783.65551,0.13602
3785.58398,0.13795
3787.51245,0.13866
3789.44092,0.14005
3791.36938,0.13886
3793.29785,0.13747
3795.22632,0.14088
3797.15479,0.14511
3799.08326,0.14641
3801.01173,0.14728
3802.94020,0.14317
3804.86866,0.13864
3806.79713,0.13930
3808.72560,0.13764
3810.65407,0.13239
3812.58254,0.13128
3814.51101,0.13858
3816.43948,0.15098
3818.36795,0.15946
3820.29641,0.16074
3822.22488,0.15138
3824.15335,0.14263
3826.08182,0.14033
3828.01029,0.14060
3829.93876,0.14185
3831.86723,0.14525
3833.79569,0.14779
3835.72416,0.14728
3837.65263,0.14975
3839.58110,0.15473
3841.50957,0.15364
3843.43804,0.14601
3845.36651,0.13704
3847.29498,0.13328
3849.22344,0.13561
3851.15191,0.14203
3853.08038,0.15080
3855.00885,0.14795
3856.93732,0.13708
3858.86579,0.13163
3860.79426,0.13232
3862.72272,0.13266
3864.65119,0.12977
3866.57966,0.13035
3868.50813,0.13340
3870.43660,0.13515
3872.36507,0.13896
3874.29354,0.14380
3876.22200,0.14376
3878.15047,0.13909
3880.07894,0.13510
3882.00741,0.13666
3883.93588,0.13766
3885.86435,0.13435
3887.79282,0.13465
3889.72129,0.14141
3891.64975,0.14457
3893.57822,0.13439
3895.50669,0.12580
3897.43516,0.12873
3899.36363,0.13591
3901.29210,0.13783
3903.22057,0.13513
3905.14903,0.12807
3907.07750,0.12025
3909.00597,0.11759
3910.93444,0.12038
3912.86291,0.12706
3914.79138,0.13470
3916.71985,0.13939
3918.64832,0.14203
3920.57678,0.14378
3922.50525,0.13825
3924.43372,0.12626
3926.36219,0.12152
3928.29066,0.12513
3930.21913,0.12704
3932.14760,0.12516
3934.07606,0.12525
3936.00453,0.12881
3937.93300,0.13011
3939.86147,0.12851
3941.78994,0.12954
3943.71841,0.13094
3945.64688,0.12559
3947.57535,0.11942
3949.50381,0.11998
3951.43228,0.12094
3953.36075,0.12052
3955.28922,0.12394
3957.21769,0.12679
3959.14616,0.12516
3961.07463,0.12263
3963.00309,0.11846
3964.93156,0.11206
3966.86003,0.10794
3968.78850,0.10675
3970.71697,0.10700
3972.64544,0.10897
3974.57391,0.11092
3976.50238,0.11209
3978.43084,0.11495
3980.35931,0.11722
3982.28778,0.11613
3984.21625,0.11293
3986.14472,0.10839
3988.07319,0.10762
3990.00166,0.11171
3991.93012,0.11442
3993.85859,0.11633
3995.78706,0.11941
3997.71553,0.12101
3999.64400,0.11780
4001.57247,0.11070
4003.50094,0.10826
4005.42941,0.11515
4007.35787,0.12380
4009.28634,0.12354
4011.21481,0.11385
4013.14328,0.10481
4015.07175,0.10416
4017.00022,0.11130
4018.92869,0.12000
4020.85715,0.12351
4022.78562,0.12046
4024.71409,0.11494
4026.64256,0.11284
4028.57103,0.11534
4030.49950,0.11725
4032.42797,0.11665
4034.35644,0.11486
4036.28490,0.11141
4038.21337,0.11131
4040.14184,0.11821
4042.07031,0.12283
4043.99878,0.12019
4045.92725,0.11772
4047.85572,0.11874
4049.78418,0.11796
4051.71265,0.11319
4053.64112,0.11027
4055.56959,0.11235
4057.49806,0.11442
4059.42653,0.11328
4061.35500,0.11014
4063.28346,0.10608
4065.21193,0.10394
4067.14040,0.10705
4069.06887,0.11185
4070.99734,0.11247
4072.92581,0.10923
4074.85428,0.10600
4076.78275,0.10521
4078.71121,0.10476
4080.63968,0.10274
4082.56815,0.10052
4084.49662,0.09917
4086.42509,0.09996
4088.35356,0.10270
4090.28203,0.10377
4092.21049,0.10111
4094.13896,0.09772
4096.06743,0.09643
4097.99590,0.09786
4099.92437,0.10089
4101.85284,0.10277
4103.78131,0.10359
4105.70978,0.10195
4107.63824,0.09605
4109.56671,0.09213
4111.49518,0.09687
4113.42365,0.10576
4115.35212,0.10682
4117.28059,0.10012
4119.20906,0.09605
4121.13752,0.09345
4123.06599,0.08967
4124.99446,0.09189
4126.92293,0.09874
4128.85140,0.10274
4130.77987,0.10139
4132.70834,0.09667
4134.63681,0.09551
4136.56527,0.09928
4138.49374,0.10410
4140.42221,0.10819
4142.35068,0.10931
4144.27915,0.10884
4146.20762,0.10954
4148.13609,0.10807
4150.06455,0.10142
4151.99302,0.09634
4153.92149,0.09650
4155.84996,0.09471
4157.77843,0.09105
4159.70690,0.09163
4161.63537,0.09606
4163.56384,0.10132
4165.49230,0.10595
4167.42077,0.10691
4169.34924,0.10120
4171.27771,0.09547
4173.20618,0.09533
4175.13465,0.09468
4177.06312,0.08978
4178.99158,0.08403
4180.92005,0.08231
4182.84852,0.08299
4184.77699,0.08052
4186.70546,0.07784
4188.63393,0.08166
4190.56240,0.09227
4192.49087,0.10116
4194.41933,0.10190
4196.34780,0.09897
4198.27627,0.09586
4200.20474,0.09008
4202.13321,0.08348
4204.06168,0.08049
4205.99015,0.08116
4207.91861,0.08525
4209.84708,0.09197
4211.77555,0.09567
4213.70402,0.09051
4215.63249,0.07955
4217.56096,0.07222
4219.48943,0.07173
4221.41789,0.07310
4223.34636,0.07331
4225.27483,0.07616
4227.20330,0.08161
4229.13177,0.08542
4231.06024,0.08957
4232.98871,0.09309
4234.91718,0.08843
4236.84564,0.07948
4238.77411,0.07764
4240.70258,0.08063
4242.63105,0.08031
4244.55952,0.07838
4246.48799,0.07894
4248.41646,0.07842
4250.34492,0.07704
4252.27339,0.08047
4254.20186,0.08330
4256.13033,0.07914
4258.05880,0.07435
4259.98727,0.07628
4261.91574,0.08098
4263.84421,0.08190
4265.77267,0.08059
4267.70114,0.07919
4269.62961,0.07851
4271.55808,0.07754
4273.48655,0.07610
4275.41502,0.07849
4277.34349,0.08401
4279.27195,0.08710
4281.20042,0.08360
4283.12889,0.07743
4285.05736,0.07586
4286.98583,0.07445
4288.91430,0.06874
4290.84277,0.06715
4292.77124,0.07306
4294.69970,0.07391
4296.62817,0.06518
4298.55664,0.05827
4300.48511,0.05836
4302.41358,0.06234
4304.34205,0.06653
4306.27052,0.06795
4308.19898,0.06428
4310.12745,0.05636
4312.05592,0.05276
4313.98439,0.05680
4315.91286,0.06046
4317.84133,0.06081
4319.76980,0.06233
4321.69827,0.06677
4323.62673,0.07217
4325.55520,0.07390
4327.48367,0.07037
4329.41214,0.06477
4331.34061,0.05980
4333.26908,0.05952
4335.19755,0.06378
4337.12601,0.06630
4339.05448,0.06507
4340.98295,0.05993
4342.91142,0.05242
4344.83989,0.05044
4346.76836,0.05377
4348.69683,0.05372
4350.62530,0.05058
4352.55376,0.05023
4354.48223,0.05188
4356.41070,0.05122
4358.33917,0.05538
4360.26764,0.06216
4362.19611,0.05587
4364.12458,0.04632
4366.05304,0.04578
4367.98151,0.04938
4369.90998,0.05597
4371.83845,0.05876
4373.76692,0.04988
4375.69539,0.03853
4377.62386,0.03672
4379.55232,0.03776
4381.48079,0.03898
4383.40926,0.04862
4385.33773,0.05821
4387.26620,0.05910
4389.19467,0.05710
4391.12314,0.05304
4393.05161,0.04355
4394.98007,0.03687
4396.90854,0.03925
4398.83701,0.04195
4400.76548,0.04151
4402.69395,0.04285
4404.62242,0.04516
4406.55089,0.04626
4408.47935,0.04827
4410.40782,0.04921
4412.33629,0.04219
4414.26476,0.03091
4416.19323,0.02620
4418.12170,0.02682
4420.05017,0.02900
4421.97864,0.03404
4423.90710,0.03598
4425.83557,0.03436
4427.76404,0.03564
4429.69251,0.03667
4431.62098,0.03427
4433.54945,0.03306
4435.47792,0.03729
4437.40638,0.04122
4439.33485,0.03898
4441.26332,0.03555
4443.19179,0.03360
4445.12026,0.03274
4447.04873,0.03459
4448.97720,0.03546
4450.90567,0.03464
4452.83413,0.03341
4454.76260,0.02600
4456.69107,0.01635
4458.61954,0.01402
4460.54801,0.01712
4462.47648,0.02311
4464.40495,0.02947
4466.33341,0.03122
4468.26188,0.03038
4470.19035,0.02771
4472.11882,0.02364
4474.04729,0.02605
4475.97576,0.03411
4477.90423,0.03881
4479.83270,0.03902
4481.76116,0.03826
4483.68963,0.03572
4485.61810,0.02901
4487.54657,0.02382
4489.47504,0.02436
4491.40351,0.02671
4493.33198,0.02635
4495.26044,0.02086
4497.18891,0.01167
4499.11738,0.00462
4501.04585,0.00280
4502.97432,0.00411
4504.90279,0.01662
4506.83126,0.04246
4508.75973,0.05923
4510.68819,0.05288
4512.61666,0.03122
4514.54513,0.01361
4516.47360,0.01574
4518.40207,0.02784
4520.33054,0.03139
4522.25901,0.02513
4524.18747,0.01620
4526.11594,0.00871
4528.04441,0.00892
4529.97288,0.01678
4531.90135,0.02308
4533.82982,0.02613
4535.75829,0.02618
4537.68676,0.02059
4539.61522,0.01591
4541.54369,0.01876
4543.47216,0.02308
4545.40063,0.02509
4547.32910,0.02624
4549.25757,0.01984
4551.18604,0.00764
4553.11450,0.00318
4555.04297,0.00824
4556.97144,0.01646
4558.89991,0.02013
4560.82838,0.01682
4562.75685,0.01698
4564.68532,0.02488
4566.61378,0.02757
4568.54225,0.01882
4570.47072,0.01356
4572.39919,0.01852
4574.32766,0.02212
4576.25613,0.02047
4578.18460,0.01482
4580.11307,0.00805
4582.04153,0.00658
4583.97000,0.00950
4585.89847,0.01507
4587.82694,0.01958
4589.75541,0.01613
4591.68388,0.00884
4593.61235,0.00408
4595.54081,-0.00001
4597.46928,-0.00205
4599.39775,0.00002
4601.32622,0.00055
4603.25469,-0.00100
4605.18316,0.00117
4607.11163,0.00321
4609.04010,0.00033
4610.96856,-0.00186
4612.89703,-0.00049
4614.82550,0.00323
4616.75397,0.00656
4618.68244,0.00320
4620.61091,0.00121
4622.53938,0.01343
4624.46784,0.02707
4626.39631,0.02429
4628.32478,0.01501
4630.25325,0.01573
4632.18172,0.02320
4634.11019,0.02259
4636.03866,0.00907
4637.96713,-0.00422
4639.89559,-0.00898
4641.82406,-0.00897
4643.75253,-0.00114
4645.68100,0.01072
4647.60947,0.01685
4649.53794,0.01807
4651.46641,0.01241
4653.39487,0.00406
4655.32334,0.00694
4657.25181,0.01631
4659.18028,0.01423
4661.10875,0.00762
4663.03722,0.01195
4664.96569,0.01709
4666.89416,0.02141
4668.82262,0.03181
4670.75109,0.03371
4672.67956,0.02196
4674.60803,0.00988
4676.53650,0.00661
4678.46497,0.00999
4680.39344,0.01095
4682.32190,0.00652
4684.25037,0.00063
4686.17884,0.00028
4688.10731,0.00570
4690.03578,0.00885
4691.96425,0.00975
4693.89272,0.01148
4695.82119,0.01584
4697.74965,0.02401
4699.67812,0.02846
4701.60659,0.02544
4703.53506,0.02346
4705.46353,0.02496
4707.39200,0.01847
4709.32047,0.00415
4711.24893,-0.00210
4713.17740,0.00365
4715.10587,0.00905
4717.03434,0.00753
4718.96281,0.00840
4720.89128,0.01427
4722.81975,0.01425
4724.74821,0.00784
4726.67668,0.00496
4728.60515,0.00699
4730.53362,0.00981
4732.46209,0.00922
4734.39056,-0.00090
4736.31903,-0.01225
4738.24750,-0.01460
4740.17596,-0.01252
4742.10443,-0.00154
4744.03290,0.01733
4745.96137,0.02366
4747.88984,0.01552
4749.81831,0.00450
4751.74678,-0.00473
4753.67524,-0.00700
4755.60371,-0.00418
4757.53218,-0.00186
4759.46065,-0.00167
4761.38912,-0.00053
4763.31759,0.00582
4765.24606,0.01489
4767.17453,0.02572
4769.10299,0.03266
4771.03146,0.02813
4772.95993,0.01547
4774.88840,0.00063
4776.81687,-0.01251
4778.74534,-0.01691
4780.67381,-0.00947
4782.60227,-0.00109
4784.53074,0.00135
4786.45921,0.00235
4788.38768,0.00457
4790.31615,0.00353
4792.24462,-0.00603
4794.17309,-0.01573
4796.10156,-0.01525
4798.03002,-0.01083
4799.95849,-0.00578
4801.88696,0.00648
4803.81543,0.01887
4805.74390,0.02164
4807.67237,0.01885
4809.60084,0.01689
4811.52930,0.01817
4813.45777,0.01623
4815.38624,0.01241
4817.31471,0.01707
4819.24318,0.02308
4821.17165,0.01922
4823.10012,0.01166
4825.02859,0.01023
4826.95705,0.01195
4828.88552,0.00900
4830.81399,0.00629
4832.74246,0.01245
4834.67093,0.01666
4836.59940,0.01005
4838.52787,0.00367
4840.45633,0.00190
4842.38480,0.00156
4844.31327,0.00282
4846.24174,0.00759
4848.17021,0.01323
4850.09868,0.00741
4852.02715,-0.01137
4853.95562,-0.02598
4855.88408,-0.02454
4857.81255,-0.01407
4859.74102,-0.00958
4861.66949,-0.01318
4863.59796,-0.01226
4865.52643,-0.00117
4867.45490,0.01235
4869.38336,0.01901
4871.31183,0.01589
4873.24030,0.00689
4875.16877,0.00460
4877.09724,0.01615
4879.02571,0.02879
4880.95418,0.02789
4882.88265,0.01554
4884.81111,0.00507
4886.73958,0.00700
4888.66805,0.01632
4890.59652,0.02006
4892.52499,0.01751
4894.45346,0.01534
4896.38193,0.01681
4898.31039,0.02198
4900.23886,0.02349
4902.16733,0.02158
4904.09580,0.01846
4906.02427,0.00465
4907.95274,-0.01184
4909.88121,-0.01853
4911.80967,-0.02239
4913.73814,-0.02206
4915.66661,-0.00750
4917.59508,0.00728
4919.52355,0.00550
4921.45202,-0.00333
4923.38049,-0.00987
4925.30896,-0.01240
4927.23742,-0.00720
4929.16589,0.00458
4931.09436,0.01575
4933.02283,0.01453
4934.95130,-0.00500
4936.87977,-0.03236
4938.80824,-0.03973
4940.73670,-0.02284
4942.66517,-0.01081
4944.59364,-0.01092
4946.52211,-0.00630
4948.45058,0.01048
4950.37905,0.02691
4952.30752,0.02444
4954.23599,0.01168
4956.16445,0.00967
4958.09292,0.01200
4960.02139,0.00684
4961.94986,0.00088
4963.87833,-0.00018
4965.80680,0.00186
4967.73527,0.00368
4969.66373,-0.00097
4971.59220,-0.00925
4973.52067,-0.00650
4975.44914,0.00504
4977.37761,0.01205
4979.30608,0.01539
4981.23455,0.01685
4983.16302,0.01466
4985.09148,0.01392
4987.01995,0.01901
4988.94842,0.02278
4990.87689,0.02057
4992.80536,0.02492
4994.73383,0.03458
4996.66230,0.03197
4998.59076,0.01561
5000.51923,0.00057
5002.44770,0.00301
5004.37617,0.01250
5006.30464,0.01534
5008.23311,0.02307
5010.16158,0.02971
5012.09005,0.02014
5014.01851,0.00143
5015.94698,-0.00948
5017.87545,-0.00250
5019.80392,0.00923
5021.73239,0.01209
5023.66086,0.01324
5025.58933,0.01495
5027.51779,0.00889
5029.44626,0.00374
5031.37473,0.01428
5033.30320,0.02944
5035.23167,0.03385
5037.16014,0.03114
5039.08861,0.02358
5041.01708,0.00648
5042.94554,-0.00468
5044.87401,0.00215
5046.80248,0.00870
5048.73095,0.01256
5050.65942,0.02126
5052.58789,0.02458
5054.51636,0.01507
5056.44482,-0.00176
5058.37329,-0.00847
5060.30176,0.00560
5062.23023,0.02830
5064.15870,0.03467
5066.08717,0.02392
5068.01564,0.01868
5069.94410,0.02053
5071.87257,0.01616
5073.80104,0.01330
5075.72951,0.02243
5077.65798,0.02485
5079.58645,0.02212
5081.51492,0.03770
5083.44339,0.05411
5085.37185,0.04991
5087.30032,0.03935
5089.22879,0.03771
5091.15726,0.03755
5093.08573,0.02791
5095.01420,0.01149
5096.94267,0.00602
5098.87113,0.02122
5100.79960,0.03250
5102.72807,0.02405
5104.65654,0.01727
5106.58501,0.02299
5108.51348,0.02686
5110.44195,0.02017
5112.37042,0.00688
5114.29888,-0.00169
5116.22735,0.00219
5118.15582,0.00987
5120.08429,0.01549
5122.01276,0.02338
5123.94123,0.03007
5125.86970,0.02879
5127.79816,0.02172
5129.72663,0.02626
5131.65510,0.04590
5133.58357,0.05844
5135.51204,0.05627
5137.44051,0.03758
5139.36898,0.01077
5141.29745,0.00261
5143.22591,0.01194
5145.15438,0.03096
5147.08285,0.05423
5149.01132,0.05950
5150.93979,0.05424
5152.86826,0.05657
5154.79673,0.05208
5156.72519,0.03720
5158.65366,0.02579
5160.58213,0.01600
5162.51060,0.00945
5164.43907,0.01461
5166.36754,0.02788
5168.29601,0.03540
5170.22448,0.02800
5172.15294,0.02169
5174.08141,0.03257
5176.00988,0.04293
5177.93835,0.03608
5179.86682,0.02521
5181.79529,0.02612
5183.72376,0.03039
5185.65222,0.03020
5187.58069,0.03516
5189.50916,0.03979
5191.43763,0.03849
5193.36610,0.04113
5195.29457,0.04917
5197.22304,0.05570
5199.15151,0.05396
5201.07997,0.04760
5203.00844,0.04103
5204.93691,0.04530
5206.86538,0.07249
5208.79385,0.09359
5210.72232,0.08470
5212.65079,0.06246
5214.57925,0.05712
5216.50772,0.06630
5218.43619,0.05667
5220.36466,0.04324
5222.29313,0.05509
5224.22160,0.06525
5226.15007,0.05190
5228.07854,0.03717
5230.00700,0.03225
5231.93547,0.03204
5233.86394,0.04250
5235.79241,0.05464
5237.72088,0.04615
5239.64935,0.02598
5241.57782,0.01447
5243.50628,0.01437
5245.43475,0.02934
5247.36322,0.05677
5249.29169,0.07732
5251.22016,0.07413
5253.14863,0.06321
5255.07710,0.06336
5257.00556,0.07101
5258.93403,0.08141
5260.86250,0.08600
5262.79097,0.08014
5264.71944,0.07301
5266.64791,0.06843
5268.57638,0.06357
5270.50485,0.06096
5272.43331,0.06219
5274.36178,0.05966
5276.29025,0.05131
5278.21872,0.04484
5280.14719,0.04502
5282.07566,0.04843
5284.00413,0.05730
5285.93259,0.06651
5287.86106,0.05976
5289.78953,0.05759
5291.71800,0.07723
5293.64647,0.07605
5295.57494,0.04540
5297.50341,0.03320
5299.43188,0.05455
5301.36034,0.07205
5303.28881,0.06284
5305.21728,0.05137
5307.14575,0.05193
5309.07422,0.05107
5311.00269,0.05424
5312.93116,0.06361
5314.85962,0.07316
5316.78809,0.07635
5318.71656,0.05359
5320.64503,0.01775
5322.57350,0.01464
5324.50197,0.04373
5326.43044,0.05073
5328.35891,0.02761
5330.28737,0.02200
5332.21584,0.04680
5334.14431,0.07630
5336.07278,0.08572
5338.00125,0.07574
5339.92972,0.06624
5341.85819,0.06450
5343.78665,0.06753
5345.71512,0.07183
5347.64359,0.06033
5349.57206,0.04146
5351.50053,0.03926
5353.42900,0.05411
5355.35747,0.07334
5357.28594,0.08667
5359.21440,0.08771
5361.14287,0.07896
5363.07134,0.07359
5364.99981,0.07608
5366.92828,0.07627
5368.85675,0.06129
5370.78522,0.03177
5372.71368,0.00961
5374.64215,0.01032
5376.57062,0.03033
5378.49909,0.05311
5380.42756,0.06823
5382.35603,0.07042
5384.28450,0.05699
5386.21297,0.05166
5388.14143,0.06607
5390.06990,0.08159
5391.99837,0.08708
5393.92684,0.07528
5395.85531,0.06267
5397.78378,0.06337
5399.71225,0.06384
5401.64071,0.05788
5403.56918,0.05343
5405.49765,0.06494
5407.42612,0.07418
5409.35459,0.06479
5411.28306,0.07507
5413.21153,0.10241
5415.13999,0.10023
5417.06846,0.08239
5418.99693,0.07283
5420.92540,0.06952
5422.85387,0.06380
5424.78234,0.05444
5426.71081,0.04313
5428.63928,0.03804
5430.56774,0.05634
5432.49621,0.07852
5434.42468,0.07808
5436.35315,0.07540
5438.28162,0.07773
5440.21009,0.07970
5442.13856,0.09341
5444.06702,0.10399
5445.99549,0.10901
5447.92396,0.12098
5449.85243,0.12974
5451.78090,0.13608
5453.70937,0.14284
5455.63784,0.13103
5457.56631,0.08917
5459.49477,0.05658
5461.42324,0.07020
5463.35171,0.10049
5465.28018,0.10110
5467.20865,0.07431
5469.13712,0.05273
5471.06559,0.06233
5472.99405,0.08623
5474.92252,0.08648
5476.85099,0.06180
5478.77946,0.04515
5480.70793,0.05271
5482.63640,0.06966
5484.56487,0.07367
5486.49334,0.07390
5488.42180,0.08840
5490.35027,0.10176
5492.27874,0.08699
5494.20721,0.06491
5496.13568,0.07048
5498.06415,0.08642
5499.99262,0.07549
5501.92108,0.05482
5503.84955,0.06237
5505.77802,0.07409
5507.70649,0.06634
5509.63496,0.05470
5511.56343,0.05070
5513.49190,0.06122
5515.42037,0.08255
5517.34883,0.09552
5519.27730,0.10535
5521.20577,0.12558
5523.13424,0.12532
5525.06271,0.09595
5526.99118,0.08103
5528.91965,0.08912
5530.84811,0.08951
5532.77658,0.07318
5534.70505,0.07228
5536.63352,0.09379
5538.56199,0.10048
5540.49046,0.09271
5542.41893,0.10053
5544.34740,0.11912
5546.27586,0.12440
5548.20433,0.11692
5550.13280,0.11592
5552.06127,0.11352
5553.98974,0.09113
5555.91821,0.07003
5557.84668,0.07676
5559.77514,0.09879
5561.70361,0.10747
5563.63208,0.08876
5565.56055,0.06741
5567.48902,0.06618
5569.41749,0.06552
5571.34596,0.05989
5573.27443,0.07553
5575.20289,0.10474
5577.13136,0.10934
5579.05983,0.09647
5580.98830,0.08120
5582.91677,0.05852
5584.84524,0.05774
5586.77371,0.09026
5588.70217,0.11196
5590.63064,0.09458
5592.55911,0.06089
5594.48758,0.04556
5596.41605,0.05449
5598.34452,0.06917
5600.27299,0.07834
5602.20145,0.07191
5604.12992,0.04386
5606.05839,0.02968
5607.98686,0.06233
5609.91533,0.10287
5611.84380,0.09145
5613.77227,0.04596
5615.70074,0.03340
5617.62920,0.05838
5619.55767,0.08176
5621.48614,0.08903
5623.41461,0.08486
5625.34308,0.06735
5627.27155,0.04441
5629.20002,0.04911
5631.12848,0.07971
5633.05695,0.10103
5634.98542,0.09798
5636.91389,0.08117
5638.84236,0.08165
5640.77083,0.09577
5642.69930,0.08991
5644.62777,0.08475
5646.55623,0.10359
5648.48470,0.10662
5650.41317,0.07945
5652.34164,0.06065
5654.27011,0.06460
5656.19858,0.07354
5658.12705,0.07151
5660.05551,0.06491
5661.98398,0.07441
5663.91245,0.08621
5665.84092,0.07524
5667.76939,0.05127
5669.69786,0.03533
5671.62633,0.04560
5673.55480,0.07825
5675.48326,0.09684
5677.41173,0.09295
5679.34020,0.11199
5681.26867,0.14377
5683.19714,0.12930
5685.12561,0.09353
5687.05408,0.09519
5688.98254,0.11241
5690.91101,0.09915
5692.83948,0.07946
5694.76795,0.09544
5696.69642,0.13172
5698.62489,0.13529
5700.55336,0.10237
5702.48183,0.07911
5704.41029,0.06947
5706.33876,0.05626
5708.26723,0.06176
5710.19570,0.08252
5712.12417,0.06836
5714.05264,0.03394
5715.98111,0.04226
5717.90957,0.08693
5719.83804,0.12454
5721.76651,0.12723
5723.69498,0.08346
5725.62345,0.03343
5727.55192,0.03857
5729.48039,0.08623
5731.40886,0.12023
5733.33732,0.12933
5735.26579,0.13053
5737.19426,0.13511
5739.12273,0.13205
5741.05120,0.12092
5742.97967,0.11339
5744.90814,0.10077
5746.83660,0.08404
5748.76507,0.07605
5750.69354,0.06816
5752.62201,0.05337
5754.55048,0.03494
5756.47895,0.01562
5758.40742,0.00682
5760.33588,0.00567
5762.26435,0.01149
5764.19282,0.04207
5766.12129,0.07426
5768.04976,0.07439
5769.97823,0.08134
5771.90670,0.12221
5773.83517,0.14904
5775.76363,0.14600
5777.69210,0.13333
5779.62057,0.10753
5781.54904,0.07758
5783.47751,0.06820
5785.40598,0.09075
5787.33445,0.12231
5789.26291,0.11352
5791.19138,0.08295
5793.11985,0.09754
5795.04832,0.13502
5796.97679,0.13673
5798.90526,0.12300
5800.83373,0.11608
5802.76220,0.10325
5804.69066,0.10572
5806.61913,0.12247
5808.54760,0.11635
5810.47607,0.10159
5812.40454,0.09932
5814.33301,0.09883
5816.26148,0.09567
5818.18994,0.09433
5820.11841,0.09167
5822.04688,0.08038
5823.97535,0.06649
5825.90382,0.06656
5827.83229,0.07379
5829.76076,0.06656
5831.68923,0.05477
5833.61769,0.06200
5835.54616,0.09395
5837.47463,0.11859
5839.40310,0.09961
5841.33157,0.06589
5843.26004,0.05678
5845.18851,0.06073
5847.11697,0.07276
5849.04544,0.08932
5850.97391,0.08327
5852.90238,0.06935
5854.83085,0.07539
5856.75932,0.08055
5858.68779,0.07177
5860.61626,0.07424
5862.54472,0.08004
5864.47319,0.06089
5866.40166,0.03434
5868.33013,0.02706
5870.25860,0.04235
5872.18707,0.07106
5874.11554,0.09151
5876.04400,0.07028
5877.97247,0.03800
5879.90094,0.06770
5881.82941,0.11358
5883.75788,0.11606
5885.68635,0.12118
5887.61482,0.15082
5889.54329,0.15852
5891.47175,0.12201
5893.40022,0.07717
5895.32869,0.06041
5897.25716,0.05896
5899.18563,0.04583
5901.11410,0.03723
5903.04257,0.03948
5904.97103,0.04297
5906.89950,0.06184
5908.82797,0.07478
5910.75644,0.06481
5912.68491,0.06866
5914.61338,0.08557
5916.54185,0.09792
5918.47032,0.11636
5920.39878,0.10854
5922.32725,0.06842
5924.25572,0.05436
5926.18419,0.06628
5928.11266,0.05726
5930.04113,0.04498
5931.96960,0.07271
5933.89806,0.09207
5935.82653,0.07091
5937.75500,0.07007
5939.68347,0.09560
5941.61194,0.10947
5943.54041,0.10054
5945.46888,0.08182
5947.39734,0.07554
5949.32581,0.08854
5951.25428,0.08974
5953.18275,0.07062
5955.11122,0.05552
5957.03969,0.04486
5958.96816,0.04219
5960.89663,0.04195
5962.82509,0.05037
5964.75356,0.06741
5966.68203,0.04826
5968.61050,0.00642
5970.53897,-0.00427
5972.46744,0.03321
5974.39591,0.10830
5976.32437,0.15552
5978.25284,0.13915
5980.18131,0.10185
5982.10978,0.09124
5984.03825,0.11179
5985.96672,0.10553
5987.89519,0.06330
5989.82366,0.06416
5991.75212,0.12126
5993.68059,0.15920
5995.60906,0.13231
5997.53753,0.11285
5999.46600,0.14092
6001.39447,0.15479
6003.32294,0.13513
6005.25140,0.10881
6007.17987,0.10283
6009.10834,0.11634
6011.03681,0.08724
6012.96528,0.01375
6014.89375,-0.01134
6016.82222,0.04318
6018.75069,0.11683
6020.67915,0.13596
6022.60762,0.10639
6024.53609,0.08960
6026.46456,0.08487
6028.39303,0.07382
6030.32150,0.07084
6032.24997,0.07624
6034.17843,0.09245
6036.10690,0.12251
6038.03537,0.13340
6039.96384,0.11242
6041.89231,0.10590
6043.82078,0.12548
6045.74925,0.13134
6047.67772,0.12152
6049.60618,0.12263
6051.53465,0.13416
6053.46312,0.12608
6055.39159,0.09363
6057.32006,0.09113
6059.24853,0.13029
6061.17700,0.13615
6063.10546,0.10368
6065.03393,0.09479
6066.96240,0.09986
6068.89087,0.10804
6070.81934,0.13280
6072.74781,0.16350
6074.67628,0.18057
6076.60475,0.16996
6078.53321,0.14853
6080.46168,0.12838
6082.39015,0.09447
6084.31862,0.07443
6086.24709,0.10541
6088.17556,0.12787
6090.10403,0.09970
6092.03249,0.09993
6093.96096,0.13912
6095.88943,0.14787
6097.81790,0.15794
6099.74637,0.19392
6101.67484,0.20915
6103.60331,0.18977
6105.53177,0.14667
6107.46024,0.11246
6109.38871,0.10295
6111.31718,0.07962
6113.24565,0.05674
6115.17412,0.08440
6117.10259,0.13522
6119.03106,0.14358
6120.95952,0.13435
6122.88799,0.14314
6124.81646,0.13446
6126.74493,0.10828
6128.67340,0.08223
6130.60187,0.07134
6132.53034,0.08515
6134.45880,0.08730
6136.38727,0.07660
6138.31574,0.06936
6140.24421,0.05637
6142.17268,0.05697
6144.10115,0.06691
6146.02962,0.04890
6147.95809,0.02670
6149.88655,0.05561
6151.81502,0.12492
6153.74349,0.15138
6155.67196,0.12056
6157.60043,0.08163
6159.52890,0.04870
6161.45737,0.02410
6163.38583,0.02317
6165.31430,0.05027
6167.24277,0.06742
6169.17124,0.05982
6171.09971,0.05184
6173.02818,0.03977
6174.95665,0.01735
6176.88512,0.01893
6178.81358,0.06023
6180.74205,0.10463
6182.67052,0.13879
6184.59899,0.16144
6186.52746,0.16584
6188.45593,0.17559
6190.38440,0.18369
6192.31286,0.15830
6194.24133,0.10272
6196.16980,0.08188
6198.09827,0.12665
6200.02674,0.12991
6201.95521,0.05635
6203.88368,0.01041
6205.81215,0.03787
6207.74061,0.09482
6209.66908,0.14473
6211.59755,0.13446
6213.52602,0.06575
6215.45449,0.00515
6217.38296,-0.01645
6219.31143,0.00454
6221.23989,0.06432
6223.16836,0.11304
6225.09683,0.13015
6227.02530,0.16689
6228.95377,0.17539
6230.88224,0.09876
6232.81071,0.03720
6234.73918,0.04643
6236.66764,0.03096
6238.59611,-0.00383
6240.52458,0.04952
6242.45305,0.11872
6244.38152,0.06199
6246.30999,-0.02551
6248.23846,-0.02614
6250.16692,0.02088
6252.09539,0.06407
6254.02386,0.10042
6255.95233,0.12693
6257.88080,0.15220
6259.80927,0.18358
6261.73774,0.18094
6263.66621,0.11482
6265.59467,0.02922
6267.52314,0.00501
6269.45161,0.05158
6271.38008,0.12026
6273.30855,0.17712
6275.23702,0.19428
6277.16549,0.15874
6279.09395,0.08160
6281.02242,0.01987
6282.95089,0.02924
6284.87936,0.06763
6286.80783,0.09490
6288.73630,0.13535
6290.66477,0.15764
6292.59323,0.13775
6294.52170,0.12242
6296.45017,0.11185
6298.37864,0.08146
6300.30711,0.03959
6302.23558,0.02557
6304.16405,0.05391
6306.09252,0.07747
6308.02098,0.09173
6309.94945,0.11211
6311.87792,0.10617
6313.80639,0.06473
6315.73486,0.03076
6317.66333,0.01495
6319.59180,-0.00756
6321.52026,-0.01421
6323.44873,0.01507
6325.37720,0.03951
6327.30567,0.04485
6329.23414,0.07106
6331.16261,0.10923
6333.09108,0.08815
6335.01955,0.03920
6336.94801,0.04677
6338.87648,0.08899
6340.80495,0.10681
6342.73342,0.07481
6344.66189,0.02398
6346.59036,0.06644
6348.51883,0.20134
6350.44729,0.27899
6352.37576,0.26587
6354.30423,0.22544
6356.23270,0.17610
6358.16117,0.14319
6360.08964,0.13399
6362.01811,0.12088
6363.94658,0.11646
6365.87504,0.12527
6367.80351,0.10905
6369.73198,0.07887
6371.66045,0.05390
6373.58892,0.02852
6375.51739,0.04234
6377.44586,0.08753
6379.37432,0.09921
6381.30279,0.10263
6383.23126,0.13708
6385.15973,0.14067
6387.08820,0.11903
6389.01667,0.12905
6390.94514,0.14039
6392.87361,0.13668
6394.80207,0.14014
6396.73054,0.12229
6398.65901,0.09236
6400.58748,0.07940
6402.51595,0.08535
6404.44442,0.08519
6406.37289,0.02960
6408.30135,-0.04951
6410.22982,-0.08760
6412.15829,-0.07414
6414.08676,-0.03736
6416.01523,0.00343
6417.94370,0.07554
6419.87217,0.12784
6421.80064,0.10690
6423.72910,0.05146
6425.65757,0.02893
6427.58604,0.07162
6429.51451,0.11663
6431.44298,0.12084
6433.37145,0.09902
6435.29992,0.08531
6437.22838,0.11398
6439.15685,0.12402
6441.08532,0.05965
6443.01379,0.00664
6444.94226,0.05723
6446.87073,0.14741
6448.79920,0.17726
6450.72766,0.15516
6452.65613,0.12435
6454.58460,0.07904
6456.51307,0.05363
6458.44154,0.06619
6460.37001,0.06780
6462.29848,0.04474
6464.22695,0.01238
6466.15541,0.01718
6468.08388,0.07335
6470.01235,0.08877
6471.94082,0.04458
6473.86929,0.05512
6475.79776,0.11656
6477.72623,0.12888
6479.65469,0.12052
6481.58316,0.16561
6483.51163,0.21218
6485.44010,0.18855
6487.36857,0.11065
6489.29704,0.04017
6491.22551,0.03473
6493.15398,0.07094
6495.08244,0.10718
6497.01091,0.13807
6498.93938,0.12276
6500.86785,0.08754
6502.79632,0.09058
6504.72479,0.09299
6506.65326,0.05749
6508.58172,0.01750
6510.51019,0.03479
6512.43866,0.06282
6514.36713,0.03102
6516.29560,-0.00512
6518.22407,-0.00509
6520.15254,0.00234
6522.08101,-0.01204
6524.00947,-0.04168
6525.93794,-0.05060
6527.86641,-0.03666
6529.79488,0.00484
6531.72335,0.08017
6533.65182,0.13263
6535.58029,0.12283
6537.50875,0.08844
6539.43722,0.08534
6541.36569,0.07545
6543.29416,0.02374
6545.22263,0.02976
6547.15110,0.08372
6549.07957,0.08020
6551.00804,0.03449
6552.93650,0.03225
6554.86497,0.06329
6556.79344,0.08156
6558.72191,0.11087
6560.65038,0.14556
6562.57885,0.12946
6564.50732,0.10644
6566.43578,0.11656
6568.36425,0.07761
6570.29272,0.01132
6572.22119,0.00655
6574.14966,0.04921
6576.07813,0.10903
6578.00660,0.13444
6579.93507,0.08668
6581.86353,0.02366
6583.79200,-0.01463
6585.72047,-0.03430
6587.64894,-0.00368
6589.57741,0.07362
6591.50588,0.10122
6593.43435,0.07013
6595.36281,0.06011
6597.29128,0.04607
6599.21975,0.00288
6601.14822,0.00334
6603.07669,0.07645
6605.00516,0.13859
6606.93363,0.15620
6608.86210,0.17378
6610.79056,0.18484
6612.71903,0.14007
6614.64750,0.09701
6616.57597,0.12852
6618.50444,0.17382
6620.43291,0.18409
6622.36138,0.17828
6624.28984,0.16294
6626.21831,0.15543
6628.14678,0.16662
6630.07525,0.19533
6632.00372,0.21537
6633.93219,0.18891
6635.86066,0.15337
6637.78912,0.15303
6639.71759,0.13857
6641.64606,0.10083
6643.57453,0.08728
6645.50300,0.10705
6647.43147,0.11312
6649.35994,0.08388
6651.28841,0.04443
6653.21687,0.01204
6655.14534,0.02207
6657.07381,0.08455
6659.00228,0.12334
6660.93075,0.09884
6662.85922,0.02774
6664.78769,-0.05372
6666.71615,-0.08972
6668.64462,-0.08694
6670.57309,-0.06247
6672.50156,0.03397
6674.43003,0.09574
6676.35850,0.03481
6678.28697,0.00833
6680.21544,0.06214
6682.14390,0.08113
6684.07237,0.06588
6686.00084,0.08310
6687.92931,0.07034
6689.85778,0.01134
6691.78625,0.00788
6693.71472,0.01426
6695.64318,-0.00910
6697.57165,-0.00067
6699.50012,0.04158
6701.42859,0.07644
6703.35706,0.11296
6705.28553,0.16418
6707.21400,0.18531
6709.14247,0.12293
6711.07093,0.08807
6712.99940,0.12264
6714.92787,0.10751
6716.85634,0.05427
6718.78481,0.05082
6720.71328,0.06824
6722.64175,0.06814
6724.57021,0.04985
6726.49868,0.01573
6728.42715,-0.01326
6730.35562,0.02183
6732.28409,0.09122
6734.21256,0.05365
6736.14103,-0.04195
6738.06950,-0.02082
6739.99796,0.07515
6741.92643,0.09630
6743.85490,0.04183
6745.78337,0.02038
6747.71184,0.06917
6749.64031,0.11974
6751.56878,0.07415
6753.49724,-0.02567
6755.42571,-0.03492
6757.35418,0.05755
6759.28265,0.14955
6761.21112,0.17965
6763.13959,0.16100
6765.06806,0.09923
6766.99653,0.01716
6768.92499,-0.04350
6770.85346,-0.01535
6772.78193,0.10768
6774.71040,0.19273
6776.63887,0.18679
6778.56734,0.12322
6780.49581,0.02982
6782.42427,-0.03669
6784.35274,-0.08870
6786.28121,-0.10732
6788.20968,-0.06373
6790.13815,-0.04112
6792.06662,-0.02510
6793.99509,0.04747
6795.92355,0.08726
6797.85202,0.08346
6799.78049,0.08180
6801.70896,-0.02436
6803.63743,-0.17667
6805.56590,-0.12343
6807.49437,0.03789
6809.42284,0.07565
6811.35130,0.00187
6813.27977,0.00845
6815.20824,0.12132
6817.13671,0.15210
6819.06518,0.06355
6820.99365,0.00552
6822.92212,0.03020
6824.85058,0.08556
6826.77905,0.14835
6828.70752,0.17336
6830.63599,0.13276
6832.56446,0.08634
6834.49293,0.05530
6836.42140,0.02073
6838.34987,-0.01495
6840.27833,-0.01499
6842.20680,0.03776
6844.13527,0.07234
6846.06374,0.04681
6847.99221,0.02576
6849.92068,0.01299
6851.84915,-0.03053
6853.77761,-0.05704
6855.70608,-0.04785
6857.63455,-0.02454
6859.56302,0.02007
6861.49149,0.07304
6863.41996,0.06954
6865.34843,0.01877
6867.27690,-0.01610
6869.20536,-0.04987
6871.13383,-0.07611
6873.06230,-0.01003
6874.99077,0.10262
6876.91924,0.14589
6878.84771,0.08995
6880.77618,0.01520
6882.70464,0.05215
6884.63311,0.14536
6886.56158,0.14146
6888.49005,0.02139
6890.41852,-0.04903
6892.34699,0.00418
6894.27546,0.05791
6896.20393,0.09619
6898.13239,0.18442
6900.06086,0.22404
6901.98933,0.18345
6903.91780,0.20910
6905.84627,0.28061
6907.77474,0.25140
6909.70321,0.16928
6911.63167,0.11590
6913.56014,0.09347
6915.48861,0.08091
6917.41708,0.12482
6919.34555,0.22132
6921.27402,0.22470
6923.20249,0.14151
6925.13096,0.08635
6927.05942,0.05603
6928.98789,0.03112
6930.91636,0.04137
6932.84483,0.03564
6934.77330,0.02380
6936.70177,0.05697
6938.63024,0.06354
6940.55870,0.03675
6942.48717,0.07222
6944.41564,0.11522
6946.34411,0.07964
6948.27258,-0.02533
6950.20105,-0.10933
6952.12952,-0.09007
6954.05799,-0.02457
6955.98645,-0.02420
6957.91492,-0.05694
6959.84339,-0.04076
6961.77186,0.02739
6963.70033,0.07331
6965.62880,0.08476
6967.55727,0.10447
6969.48573,0.13050
6971.41420,0.11357
6973.34267,0.03283
6975.27114,-0.03846
6977.19961,-0.02211
6979.12808,0.04822
6981.05655,0.10045
6982.98501,0.13795
6984.91348,0.20177
6986.84195,0.25781
6988.77042,0.22954
6990.69889,0.11630
6992.62736,0.02698
6994.55583,0.01326
6996.48430,0.03748
6998.41276,0.05448
7000.34123,0.07952
7002.26970,0.15022
7004.19817,0.21112
7006.12664,0.18397
7008.05511,0.10849
7009.98358,0.09108
7011.91204,0.12055
7013.84051,0.13236
7015.76898,0.11363
7017.69745,0.10797
7019.62592,0.07936
7021.55439,-0.02018
7023.48286,-0.03982
7025.41133,0.08777
7027.33979,0.16219
7029.26826,0.09510
7031.19673,-0.01108
7033.12520,-0.07119
7035.05367,-0.05900
7036.98214,0.01195
7038.91061,0.15377
7040.83907,0.29054
7042.76754,0.25464
7044.69601,0.15154
7046.62448,0.18260
7048.55295,0.24344
7050.48142,0.18982
7052.40989,0.04530
7054.33836,-0.08352
7056.26682,-0.12127
7058.19529,-0.04648
7060.12376,0.04431
7062.05223,0.06430
7063.98070,0.02479
7065.90917,-0.07595
7067.83764,-0.16392
7069.76610,-0.07560
7071.69457,0.17017
7073.62304,0.32641
7075.55151,0.32378
7077.47998,0.22857
7079.40845,0.08991
7081.33692,0.01807
7083.26539,0.07843
7085.19385,0.12488
7087.12232,0.09574
7089.05079,0.05386
7090.97926,0.03467
7092.90773,0.03440
7094.83620,0.03278
7096.76467,-0.00872
7098.69313,-0.07870
7100.62160,-0.11466
7102.55007,-0.13584
7104.47854,-0.16157
7106.40701,-0.09698
7108.33548,0.06959
7110.26395,0.22256
7112.19242,0.29954
7114.12088,0.29316
7116.04935,0.26099
7117.97782,0.23435
7119.90629,0.13392
7121.83476,0.01539
7123.76323,0.08014
7125.69170,0.20727
7127.62016,0.14390
7129.54863,0.03798
7131.47710,0.06886
7133.40557,0.16590
7135.33404,0.21358
7137.26251,0.13650
7139.19098,0.02376
7141.11944,0.06796
7143.04791,0.21969
7144.97638,0.22723
7146.90485,0.05864
7148.83332,0.01371
7150.76179,0.10403
7152.69026,0.09542
7154.61873,0.00429
7156.54719,0.04672
7158.47566,0.13335
7160.40413,0.07409
7162.33260,-0.02990
7164.26107,-0.04978
7166.18954,-0.11924
7168.11801,-0.22626
7170.04647,-0.16390
7171.97494,0.00468
7173.90341,0.08692
7175.83188,0.10346
7177.76035,0.05468
7179.68882,-0.04081
7181.61729,-0.02092
7183.54576,0.09898
7185.47422,0.13717
7187.40269,0.10759
7189.33116,0.09377
7191.25963,0.16555
7193.18810,0.27616
7195.11657,0.29063
7197.04504,0.16843
7198.97350,0.01575
7200.90197,-0.07315
7202.83044,-0.16731
7204.75891,-0.26023
7206.68738,-0.16360
7208.61585,-0.00968
7210.54432,0.03864
7212.47279,0.01866
7214.40125,-0.05446
7216.32972,-0.19469
7218.25819,-0.24730
7220.18666,-0.08476
7222.11513,0.10138
7224.04360,0.18811
7225.97207,0.18058
7227.90053,0.13303
7229.82900,0.11272
7231.75747,0.12413
7233.68594,0.08514
7235.61441,-0.00164
7237.54288,-0.04578
7239.47135,0.02408
7241.39982,0.08946
7243.32828,0.02152
7245.25675,-0.03726
7247.18522,-0.01305
7249.11369,0.05670
7251.04216,0.17179
7252.97063,0.23218
7254.89910,0.18235
7256.82756,0.10130
7258.75603,0.01640
7260.68450,0.02962
7262.61297,0.06445
7264.54144,-0.00978
7266.46991,-0.01932
7268.39838,0.03625
7270.32685,0.10649
7272.25531,0.11097
7274.18378,0.01173
7276.11225,0.08012
7278.04072,0.25936
7279.96919,0.20681
7281.89766,-0.00439
7283.82613,-0.05100
7285.75459,-0.00439
7287.68306,0.05172
7289.61153,0.12145
7291.54000,0.18499
7293.46847,0.17190
7295.39694,0.08871
7297.32541,0.03636
7299.25387,0.02353
7301.18234,0.00860
7303.11081,-0.02392
7305.03928,-0.10249
7306.96775,-0.10206
7308.89622,0.13592
7310.82469,0.38805
7312.75316,0.47100
7314.68162,0.47480
7316.61009,0.44286
7318.53856,0.33659
7320.46703,0.23159
7322.39550,0.15895
7324.32397,0.00267
7326.25244,-0.09227
7328.18090,0.06070
7330.10937,0.25691
7332.03784,0.17226
7333.96631,-0.02042
7335.89478,-0.04108
7337.82325,0.09409
7339.75172,0.12539
7341.68019,-0.16453
7343.60865,-0.33506
7345.53712,-0.17549
7347.46559,0.11515
7349.39406,0.26936
7351.32253,0.24323
7353.25100,0.21412
7355.17947,0.30263
7357.10793,0.33347
7359.03640,0.13284
7360.96487,-0.12903
7362.89334,-0.21824
7364.82181,-0.13325
7366.75028,-0.02365
7368.67875,0.05085
7370.60722,0.05773
7372.53568,-0.04176
7374.46415,-0.24776
7376.39262,-0.34573
7378.32109,-0.20048
7380.24956,0.00125
7382.17803,0.19352
7384.10650,0.38563
7386.03496,0.41600
7387.96343,0.17776
7389.89190,0.00937
7391.82037,0.07411
7393.74884,0.20477
7395.67731,0.25278
7397.60578,0.17217
7399.53425,0.12099
7401.46271,0.26972
7403.39118,0.44317
7405.31965,0.37299
7407.24812,0.28454
7409.17659,0.30514
7411.10506,0.26155
7413.03353,0.17549
7414.96199,0.05998
7416.89046,-0.08917
7418.81893,-0.03995
7420.74740,0.13191
7422.67587,0.04032
7424.60434,-0.11031
7426.53281,-0.04073
7428.46128,0.15522
7430.38974,0.20242
7432.31821,0.16559
7434.24668,0.20684
7436.17515,0.23295
7438.10362,0.24582
7440.03209,0.26848
7441.96056,0.23199
7443.88902,0.10227
7445.81749,-0.02396
7447.74596,-0.00692
7449.67443,0.11913
7451.60290,0.20869
7453.53137,0.26948
7455.45984,0.36965
7457.38831,0.43239
7459.31677,0.31335
7461.24524,0.04440
7463.17371,-0.06900
7465.10218,0.07634
7467.03065,0.25818
7468.95912,0.23243
7470.88759,0.02501
7472.81605,-0.11166
7474.74452,-0.02601
7476.67299,0.11063
7478.60146,0.17308
7480.52993,0.17776
7482.45840,0.15946
7484.38687,0.17048
7486.31533,0.14288
7488.24380,-0.00473
7490.17227,-0.10726
7492.10074,-0.03387
7494.02921,0.08611
7495.95768,0.18818
7497.88615,0.21924
