399.19301,0.29474
401.12148,1.01738
403.04995,0.92145
404.97842,-0.10610
406.90689,-1.09379
408.83536,-1.24777
410.76382,-0.69669
412.69229,-0.09335
414.62076,0.57276
416.54923,1.03306
418.47770,0.94645
420.40617,0.95133
422.33464,0.62469
424.26311,-0.11530
426.19157,-0.25852
428.12004,0.00016
430.04851,0.06703
431.97698,-0.03205
433.90545,0.03678
435.83392,0.19105
437.76239,0.18672
439.69085,0.09454
441.61932,0.01964
443.54779,0.01798
445.47626,0.08882
447.40473,0.15291
449.33320,0.20690
451.26167,0.21974
453.19013,0.13372
455.11860,0.04427
457.04707,0.09777
458.97554,0.20014
460.90401,0.22756
462.83248,0.23235
464.76095,0.20720
466.68942,0.16825
468.61788,0.15727
470.54635,0.18393
472.47482,0.36913
474.40329,0.62161
476.33176,0.50605
478.26023,0.32156
480.18870,0.23347
482.11716,0.18256
484.04563,0.15156
485.97410,0.12018
487.90257,0.07186
489.83104,0.03406
491.75951,0.04558
493.68798,0.10743
495.61645,0.13657
497.54491,0.10841
499.47338,0.09709
501.40185,0.10914
503.33032,0.10113
505.25879,0.06236
507.18726,0.01312
509.11573,0.00864
511.04419,0.06351
512.97266,0.10832
514.90113,0.09793
516.82960,0.09164
518.75807,0.12139
520.68654,0.14315
522.61501,0.12694
524.54348,0.07826
526.47194,0.06421
528.40041,0.10068
530.32888,0.13358
532.25735,0.14843
534.18582,0.17618
536.11429,0.19810
538.04276,0.16798
539.97122,0.12097
541.89969,0.09698
543.82816,0.11068
545.75663,0.14649
547.68510,0.16545
549.61357,0.17949
551.54204,0.27497
553.47051,0.39341
555.39897,0.35170
557.32744,0.21562
559.25591,0.14452
561.18438,0.11799
563.11285,0.10115
565.04132,0.07318
566.96979,0.04415
568.89825,0.05559
570.82672,0.08018
572.75519,0.09276
574.68366,0.11361
576.61213,0.13720
578.54060,0.15201
580.46907,0.16220
582.39754,0.15201
584.32600,0.12954
586.25447,0.13271
588.18294,0.15548
590.11141,0.16297
592.03988,0.15468
593.96835,0.14046
595.89682,0.12637
597.82528,0.12898
599.75375,0.13647
601.68222,0.13029
603.61069,0.13375
605.53916,0.14575
607.46763,0.13523
609.39610,0.11742
611.32456,0.11077
613.25303,0.10996
615.18150,0.11959
617.10997,0.13107
619.03844,0.12428
620.96691,0.11310
622.89538,0.12010
624.82385,0.13231
626.75231,0.13026
628.68078,0.10916
630.60925,0.06958
632.53772,0.04454
634.46619,0.07683
636.39466,0.13182
638.32313,0.14827
640.25159,0.13283
642.18006,0.12679
644.10853,0.12944
646.03700,0.13183
647.96547,0.14535
649.89394,0.15458
651.82241,0.14042
653.75088,0.12352
655.67934,0.11863
657.60781,0.11971
659.53628,0.12637
661.46475,0.14134
663.39322,0.15457
665.32169,0.15575
667.25016,0.14759
669.17862,0.13606
671.10709,0.12813
673.03556,0.11954
674.96403,0.11553
676.89250,0.13258
678.82097,0.15813
680.74944,0.16618
682.67791,0.15973
684.60637,0.15302
686.53484,0.15115
688.46331,0.15127
690.39178,0.14151
692.32025,0.12365
694.24872,0.12225
696.17719,0.14131
698.10565,0.15917
700.03412,0.16509
701.96259,0.15716
703.89106,0.14807
705.81953,0.15207
707.74800,0.17066
709.67647,0.23388
711.60494,0.30100
713.53340,0.26790
715.46187,0.18058
717.39034,0.14020
719.31881,0.14219
721.24728,0.15031
723.17575,0.14965
725.10422,0.15000
727.03268,0.15319
728.96115,0.15298
730.88962,0.15339
732.81809,0.14912
734.74656,0.13755
736.67503,0.13010
738.60350,0.13663
740.53197,0.15523
742.46043,0.17012
744.38890,0.16918
746.31737,0.15665
748.24584,0.14407
750.17431,0.14169
752.10278,0.14557
754.03125,0.14212
755.95971,0.13621
757.88818,0.13979
759.81665,0.15122
761.74512,0.15846
763.67359,0.15491
765.60206,0.15374
767.53053,0.15880
769.45900,0.15679
771.38746,0.14693
773.31593,0.14175
775.24440,0.14652
777.17287,0.14682
779.10134,0.13788
781.02981,0.13305
782.95828,0.12994
784.88674,0.13022
786.81521,0.14227
788.74368,0.14372
790.67215,0.13305
792.60062,0.14091
794.52909,0.15726
796.45756,0.16514
798.38602,0.17437
800.31449,0.17304
802.24296,0.15344
804.17143,0.13732
806.09990,0.13902
808.02837,0.15000
809.95684,0.14986
811.88531,0.14365
813.81377,0.14918
815.74224,0.15543
817.67071,0.15988
819.59918,0.16937
821.52765,0.17292
823.45612,0.17469
825.38459,0.18035
827.31305,0.17870
829.24152,0.16895
831.16999,0.15870
833.09846,0.15503
835.02693,0.16029
836.95540,0.16564
838.88387,0.16697
840.81234,0.16699
842.74080,0.16182
844.66927,0.14973
846.59774,0.14245
848.52621,0.14644
850.45468,0.15266
852.38315,0.15757
854.31162,0.16188
856.24008,0.16125
858.16855,0.15954
860.09702,0.16060
862.02549,0.15686
863.95396,0.14648
865.88243,0.14325
867.81090,0.16057
869.73937,0.17471
871.66783,0.15825
873.59630,0.14214
875.52477,0.14689
877.45324,0.15408
879.38171,0.15962
881.31018,0.16442
883.23865,0.16426
885.16711,0.15880
887.09558,0.15563
889.02405,0.15650
890.95252,0.15805
892.88099,0.16262
894.80946,0.16334
896.73793,0.15139
898.66640,0.13805
900.59486,0.13864
902.52333,0.14327
904.45180,0.14112
906.38027,0.14176
908.30874,0.15019
910.23721,0.15776
912.16568,0.15816
914.09414,0.15911
916.02261,0.16739
917.95108,0.17373
919.87955,0.16638
921.80802,0.15440
923.73649,0.15115
925.66496,0.15187
927.59343,0.15503
929.52189,0.16171
931.45036,0.16198
933.37883,0.15713
935.30730,0.15848
937.23577,0.16105
939.16424,0.15871
941.09271,0.15685
943.02117,0.15569
944.94964,0.15684
946.87811,0.16775
948.80658,0.17836
950.73505,0.17479
952.66352,0.16764
954.59199,0.16432
956.52045,0.15843
958.44892,0.15264
960.37739,0.15054
962.30586,0.14854
964.23433,0.14676
966.16280,0.15233
968.09127,0.16115
970.01974,0.16031
971.94820,0.15367
973.87667,0.15238
975.80514,0.15750
977.73361,0.16499
979.66208,0.17082
981.59055,0.17221
983.51902,0.16830
985.44748,0.16045
987.37595,0.15368
989.30442,0.15297
991.23289,0.15713
993.16136,0.16499
995.08983,0.17115
997.01830,0.16892
998.94677,0.16670
1000.87523,0.16777
1002.80370,0.16650
1004.73217,0.16325
1006.66064,0.16221
1008.58911,0.17060
1010.51758,0.18068
1012.44605,0.17936
1014.37451,0.17409
1016.30298,0.17574
1018.23145,0.18237
1020.15992,0.18230
1022.08839,0.17442
1024.01686,0.16796
1025.94533,0.16108
1027.87380,0.15622
1029.80226,0.16023
1031.73073,0.16742
1033.65920,0.17331
1035.58767,0.17664
1037.51614,0.17573
1039.44461,0.17614
1041.37308,0.17877
1043.30154,0.17696
1045.23001,0.17425
1047.15848,0.17745
1049.08695,0.18234
1051.01542,0.18355
1052.94389,0.17940
1054.87236,0.16955
1056.80083,0.16223
1058.72929,0.16562
1060.65776,0.17260
1062.58623,0.17379
1064.51470,0.17009
1066.44317,0.16723
1068.37164,0.16883
1070.30011,0.17208
1072.22857,0.17400
1074.15704,0.17670
1076.08551,0.17654
1078.01398,0.17022
1079.94245,0.16814
1081.87092,0.17335
1083.79939,0.17576
1085.72786,0.17147
1087.65632,0.16605
1089.58479,0.16672
1091.51326,0.17053
1093.44173,0.17066
1095.37020,0.17162
1097.29867,0.17798
1099.22714,0.18219
1101.15560,0.17773
1103.08407,0.16939
1105.01254,0.16746
1106.94101,0.17404
1108.86948,0.18121
1110.79795,0.18343
1112.72642,0.18123
1114.65489,0.18176
1116.58335,0.18486
1118.51182,0.17906
1120.44029,0.17066
1122.36876,0.17485
1124.29723,0.18493
1126.22570,0.18613
1128.15417,0.18115
1130.08263,0.17886
1132.01110,0.17909
1133.93957,0.18000
1135.86804,0.17981
1137.79651,0.18083
1139.72498,0.18517
1141.65345,0.18477
1143.58191,0.17987
1145.51038,0.17961
1147.43885,0.17869
1149.36732,0.17241
1151.29579,0.17030
1153.22426,0.17329
1155.15273,0.17435
1157.08120,0.17467
1159.00966,0.17555
1160.93813,0.17544
1162.86660,0.17820
1164.79507,0.18453
1166.72354,0.18827
1168.65201,0.18712
1170.58048,0.18536
1172.50894,0.18782
1174.43741,0.19002
1176.36588,0.18655
1178.29435,0.18199
1180.22282,0.17671
1182.15129,0.17073
1184.07976,0.16738
1186.00823,0.16490
1187.93669,0.16722
1189.86516,0.17634
1191.79363,0.18155
1193.72210,0.17862
1195.65057,0.17393
1197.57904,0.16828
1199.50751,0.16260
1201.43597,0.16492
1203.36444,0.17407
1205.29291,0.18052
1207.22138,0.18224
1209.14985,0.18325
1211.07832,0.18304
1213.00679,0.18040
1214.93526,0.17989
1216.86372,0.18154
1218.79219,0.18196
1220.72066,0.18519
1222.64913,0.19072
1224.57760,0.18973
1226.50607,0.18270
1228.43454,0.17915
1230.36300,0.18313
1232.29147,0.18801
1234.21994,0.18632
1236.14841,0.18031
1238.07688,0.17597
1240.00535,0.17631
1241.93382,0.17891
1243.86229,0.18127
1245.79075,0.18514
1247.71922,0.18781
1249.64769,0.18540
1251.57616,0.17991
1253.50463,0.17584
1255.43310,0.17602
1257.36157,0.17840
1259.29003,0.18040
1261.21850,0.18337
1263.14697,0.18687
1265.07544,0.18785
1267.00391,0.18675
1268.93238,0.18822
1270.86085,0.19209
1272.78932,0.19237
1274.71778,0.18910
1276.64625,0.18661
1278.57472,0.18545
1280.50319,0.18566
1282.43166,0.18782
1284.36013,0.18853
1286.28860,0.18574
1288.21706,0.18477
1290.14553,0.18672
1292.07400,0.18723
1294.00247,0.18693
1295.93094,0.18653
1297.85941,0.18487
1299.78788,0.18421
1301.71634,0.18545
1303.64481,0.18531
1305.57328,0.18225
1307.50175,0.17980
1309.43022,0.18269
1311.35869,0.18824
1313.28716,0.18973
1315.21563,0.18891
1317.14409,0.19019
1319.07256,0.19083
1321.00103,0.18890
1322.92950,0.18777
1324.85797,0.18804
1326.78644,0.18718
1328.71491,0.18621
1330.64337,0.18532
1332.57184,0.18386
1334.50031,0.18666
1336.42878,0.19359
1338.35725,0.19596
1340.28572,0.19154
1342.21419,0.19888
1344.14266,0.21839
1346.07112,0.21668
1347.99959,0.19282
1349.92806,0.18078
1351.85653,0.18335
1353.78500,0.18697
1355.71347,0.18785
1357.64194,0.18577
1359.57040,0.18569
1361.49887,0.19247
1363.42734,0.19847
1365.35581,0.19507
1367.28428,0.18981
1369.21275,0.18783
1371.14122,0.19140
1373.06969,0.20149
1374.99815,0.20633
1376.92662,0.20032
1378.85509,0.19565
1380.78356,0.19417
1382.71203,0.19292
1384.64050,0.19489
1386.56897,0.19889
1388.49743,0.19919
1390.42590,0.19653
1392.35437,0.19710
1394.28284,0.20226
1396.21131,0.20417
1398.13978,0.20080
1400.06825,0.19849
1401.99672,0.19872
1403.92518,0.20026
1405.85365,0.20078
1407.78212,0.19953
1409.71059,0.19924
1411.63906,0.19906
1413.56753,0.19874
1415.49600,0.20268
1417.42446,0.21053
1419.35293,0.21214
1421.28140,0.20664
1423.20987,0.20404
1425.13834,0.20247
1427.06681,0.20040
1428.99528,0.20004
1430.92375,0.20049
1432.85221,0.20263
1434.78068,0.20693
1436.70915,0.20656
1438.63762,0.20010
1440.56609,0.19651
1442.49456,0.19684
1444.42303,0.19999
1446.35149,0.20395
1448.27996,0.20372
1450.20843,0.20038
1452.13690,0.20386
1454.06537,0.21919
1455.99384,0.24181
1457.92231,0.24022
1459.85077,0.21402
1461.77924,0.20255
1463.70771,0.20542
1465.63618,0.20959
1467.56465,0.20908
1469.49312,0.21529
1471.42159,0.23157
1473.35006,0.23644
1475.27852,0.22183
1477.20699,0.20962
1479.13546,0.20324
1481.06393,0.20073
1482.99240,0.20138
1484.92087,0.20662
1486.84934,0.21818
1488.77780,0.22810
1490.70627,0.22263
1492.63474,0.21467
1494.56321,0.21793
1496.49168,0.22670
1498.42015,0.22171
1500.34862,0.21154
1502.27709,0.21323
1504.20555,0.22184
1506.13402,0.23717
1508.06249,0.24278
1509.99096,0.22561
1511.91943,0.21498
1513.84790,0.21957
1515.77637,0.23492
1517.70483,0.24825
1519.63330,0.25452
1521.56177,0.25211
1523.49024,0.23643
1525.41871,0.22511
1527.34718,0.22024
1529.27565,0.21719
1531.20412,0.21791
1533.13258,0.22042
1535.06105,0.22187
1536.98952,0.23147
1538.91799,0.26136
1540.84646,0.29216
1542.77493,0.27186
1544.70340,0.23707
1546.63186,0.21890
1548.56033,0.21841
1550.48880,0.22214
1552.41727,0.22304
1554.34574,0.22300
1556.27421,0.22412
1558.20268,0.23135
1560.13115,0.22962
1562.05961,0.21823
1563.98808,0.21145
1565.91655,0.20810
1567.84502,0.20845
1569.77349,0.21000
1571.70196,0.20937
1573.63043,0.21504
1575.55889,0.22762
1577.48736,0.22300
1579.41583,0.20520
1581.34430,0.19530
1583.27277,0.19212
1585.20124,0.19149
1587.12971,0.19420
1589.05818,0.19742
1590.98664,0.19638
1592.91511,0.19357
1594.84358,0.19300
1596.77205,0.19365
1598.70052,0.19442
1600.62899,0.19495
1602.55746,0.19428
1604.48592,0.19487
1606.41439,0.19851
1608.34286,0.20118
1610.27133,0.20121
1612.19980,0.20242
1614.12827,0.20833
1616.05674,0.21717
1617.98521,0.21694
1619.91367,0.21519
1621.84214,0.22118
1623.77061,0.22451
1625.69908,0.22255
1627.62755,0.22228
1629.55602,0.21965
1631.48449,0.21736
1633.41295,0.22361
1635.34142,0.23553
1637.26989,0.23032
1639.19836,0.21770
1641.12683,0.21419
1643.05530,0.21955
1644.98377,0.23550
1646.91223,0.25491
1648.84070,0.25024
1650.76917,0.24012
1652.69764,0.24367
1654.62611,0.23842
1656.55458,0.22308
1658.48305,0.22211
1660.41152,0.23546
1662.33998,0.24333
1664.26845,0.23229
1666.19692,0.22376
1668.12539,0.22965
1670.05386,0.23834
1671.98233,0.23739
1673.91080,0.23785
1675.83926,0.23753
1677.76773,0.23303
1679.69620,0.23390
1681.62467,0.24163
1683.55314,0.24987
1685.48161,0.24562
1687.41008,0.23394
1689.33855,0.22394
1691.26701,0.21704
1693.19548,0.21688
1695.12395,0.22702
1697.05242,0.24172
1698.98089,0.24446
1700.90936,0.23360
1702.83783,0.22806
1704.76629,0.22843
1706.69476,0.22279
1708.62323,0.21564
1710.55170,0.21479
1712.48017,0.21930
1714.40864,0.22925
1716.33711,0.24175
1718.26558,0.24020
1720.19404,0.22669
1722.12251,0.21727
1724.05098,0.21159
1725.97945,0.20714
1727.90792,0.20813
1729.83639,0.21550
1731.76486,0.22426
1733.69332,0.22735
1735.62179,0.21882
1737.55026,0.21371
1739.47873,0.21692
1741.40720,0.22142
1743.33567,0.22161
1745.26414,0.22086
1747.19261,0.22463
1749.12107,0.22949
1751.04954,0.22477
1752.97801,0.21543
1754.90648,0.21155
1756.83495,0.21129
1758.76342,0.21084
1760.69189,0.21045
1762.62035,0.20863
1764.54882,0.20699
1766.47729,0.21108
1768.40576,0.22224
1770.33423,0.23676
1772.26270,0.24141
1774.19117,0.22969
1776.11964,0.22148
1778.04810,0.22265
1779.97657,0.22521
1781.90504,0.22196
1783.83351,0.21639
1785.76198,0.21197
1787.69045,0.20821
1789.61892,0.20786
1791.54738,0.20965
1793.47585,0.20984
1795.40432,0.21122
1797.33279,0.21431
1799.26126,0.21643
1801.18973,0.21463
1803.11820,0.21038
1805.04666,0.20846
1806.97513,0.20902
1808.90360,0.21029
1810.83207,0.21070
1812.76054,0.20970
1814.68901,0.20249
1816.61748,0.17541
1818.54595,0.14621
1820.47441,0.15823
1822.40288,0.19681
1824.33135,0.21716
1826.25982,0.21738
1828.18829,0.21687
1830.11676,0.21390
1832.04523,0.20694
1833.97369,0.20482
1835.90216,0.20777
1837.83063,0.20886
1839.75910,0.20975
1841.68757,0.21620
1843.61604,0.22208
1845.54451,0.21765
1847.47298,0.20963
1849.40144,0.20581
1851.32991,0.20679
1853.25838,0.21026
1855.18685,0.21323
1857.11532,0.21432
1859.04379,0.21360
1860.97226,0.21228
1862.90072,0.21105
1864.82919,0.21049
1866.75766,0.21339
1868.68613,0.21829
1870.61460,0.21664
1872.54307,0.21067
1874.47154,0.20756
1876.40001,0.20821
1878.32847,0.20975
1880.25694,0.21025
1882.18541,0.21040
1884.11388,0.21082
1886.04235,0.21048
1887.97082,0.21063
1889.89929,0.21165
1891.82775,0.21032
1893.75622,0.20901
1895.68469,0.20836
1897.61316,0.20411
1899.54163,0.20027
1901.47010,0.20180
1903.39857,0.20435
1905.32704,0.20413
1907.25550,0.20460
1909.18397,0.20665
1911.11244,0.20718
1913.04091,0.20724
1914.96938,0.20993
1916.89785,0.21486
1918.82632,0.21505
1920.75478,0.21081
1922.68325,0.20939
1924.61172,0.20946
1926.54019,0.20943
1928.46866,0.20804
1930.39713,0.20385
1932.32560,0.20170
1934.25407,0.20307
1936.18253,0.20476
1938.11100,0.20679
1940.03947,0.20996
1941.96794,0.21231
1943.89641,0.21095
1945.82488,0.20790
1947.75335,0.20660
1949.68181,0.20691
1951.61028,0.20675
1953.53875,0.20554
1955.46722,0.20541
1957.39569,0.20660
1959.32416,0.20839
1961.25263,0.21029
1963.18110,0.21144
1965.10956,0.21257
1967.03803,0.21196
1968.96650,0.20927
1970.89497,0.20733
1972.82344,0.20567
1974.75191,0.20346
1976.68038,0.20295
1978.60884,0.20668
1980.53731,0.21135
1982.46578,0.21155
1984.39425,0.20914
1986.32272,0.20790
1988.25119,0.20755
1990.17966,0.20833
1992.10812,0.21009
1994.03659,0.21021
1995.96506,0.20836
1997.89353,0.20541
1999.82200,0.20271
2001.75047,0.20283
2003.67894,0.20493
2005.60741,0.20619
2007.53587,0.20618
2009.46434,0.20545
2011.39281,0.20574
2013.32128,0.20701
2015.24975,0.20752
2017.17822,0.20852
2019.10669,0.21016
2021.03515,0.21085
2022.96362,0.20966
2024.89209,0.20681
2026.82056,0.20550
2028.74903,0.20704
2030.67750,0.20887
2032.60597,0.20958
2034.53444,0.20944
2036.46290,0.20872
2038.39137,0.20840
2040.31984,0.20863
2042.24831,0.20879
2044.17678,0.20917
2046.10525,0.20860
2048.03372,0.20634
2049.96218,0.20515
2051.89065,0.20550
2053.81912,0.20508
2055.74759,0.20499
2057.67606,0.20713
2059.60453,0.20924
2061.53300,0.20859
2063.46147,0.20830
2065.38993,0.21040
2067.31840,0.21107
2069.24687,0.21010
2071.17534,0.20865
2073.10381,0.20516
2075.03228,0.20131
2076.96075,0.20015
2078.88921,0.20136
2080.81768,0.20398
2082.74615,0.20601
2084.67462,0.20563
2086.60309,0.20518
2088.53156,0.20622
2090.46003,0.20855
2092.38850,0.21100
2094.31696,0.21113
2096.24543,0.20901
2098.17390,0.20662
2100.10237,0.20514
2102.03084,0.20521
2103.95931,0.20647
2105.88778,0.20643
2107.81624,0.20378
2109.74471,0.20233
2111.67318,0.20571
2113.60165,0.21003
2115.53012,0.21099
2117.45859,0.21028
2119.38706,0.20960
2121.31553,0.21028
2123.24399,0.21159
2125.17246,0.21153
2127.10093,0.21088
2129.02940,0.20951
2130.95787,0.20832
2132.88634,0.20819
2134.81481,0.20823
2136.74327,0.21031
2138.67174,0.21253
2140.60021,0.21077
2142.52868,0.20858
2144.45715,0.20871
2146.38562,0.20893
2148.31409,0.20998
2150.24255,0.21286
2152.17102,0.21313
2154.09949,0.20881
2156.02796,0.20540
2157.95643,0.20627
2159.88490,0.20947
2161.81337,0.21197
2163.74184,0.21232
2165.67030,0.21328
2167.59877,0.21569
2169.52724,0.21523
2171.45571,0.21164
2173.38418,0.20947
2175.31265,0.20958
2177.24112,0.20997
2179.16958,0.20852
2181.09805,0.20520
2183.02652,0.20398
2184.95499,0.20661
2186.88346,0.21090
2188.81193,0.21294
2190.74040,0.20998
2192.66887,0.20592
2194.59733,0.20551
2196.52580,0.20715
2198.45427,0.20857
2200.38274,0.21032
2202.31121,0.21241
2204.23968,0.21246
2206.16815,0.21022
2208.09661,0.20875
2210.02508,0.20774
2211.95355,0.20456
2213.88202,0.20042
2215.81049,0.20000
2217.73896,0.20359
2219.66743,0.20524
2221.59590,0.20461
2223.52436,0.20481
2225.45283,0.20456
2227.38130,0.20410
2229.30977,0.20560
2231.23824,0.20936
2233.16671,0.21296
2235.09518,0.21361
2237.02364,0.21250
2238.95211,0.21062
2240.88058,0.20783
2242.80905,0.20703
2244.73752,0.20818
2246.66599,0.20783
2248.59446,0.20702
2250.52293,0.20805
2252.45139,0.21002
2254.37986,0.21051
2256.30833,0.20846
2258.23680,0.20664
2260.16527,0.20676
2262.09374,0.20677
2264.02221,0.20638
2265.95067,0.20676
2267.87914,0.20794
2269.80761,0.20962
2271.73608,0.21025
2273.66455,0.20968
2275.59302,0.21045
2277.52149,0.21219
2279.44996,0.21233
2281.37842,0.21132
2283.30689,0.21035
2285.23536,0.20966
2287.16383,0.20936
2289.09230,0.20656
2291.02077,0.20114
2292.94924,0.20005
2294.87770,0.20329
2296.80617,0.20462
2298.73464,0.20375
2300.66311,0.20228
2302.59158,0.20152
2304.52005,0.20228
2306.44852,0.20212
2308.37699,0.20106
2310.30545,0.20285
2312.23392,0.20577
2314.16239,0.20432
2316.09086,0.19954
2318.01933,0.19787
2319.94780,0.20142
2321.87627,0.19961
2323.80473,0.18983
2325.73320,0.19082
2327.66167,0.20318
2329.59014,0.20710
2331.51861,0.19902
2333.44708,0.19321
2335.37555,0.19660
2337.30401,0.20478
2339.23248,0.20842
2341.16095,0.20076
2343.08942,0.18807
2345.01789,0.18520
2346.94636,0.19428
2348.87483,0.20193
2350.80330,0.20148
2352.73176,0.19351
2354.66023,0.18470
2356.58870,0.18065
2358.51717,0.16846
2360.44564,0.14985
2362.37411,0.14907
2364.30258,0.15746
2366.23104,0.16533
2368.15951,0.18301
2370.08798,0.20125
2372.01645,0.20536
2373.94492,0.20242
2375.87339,0.20328
2377.80186,0.20644
2379.73033,0.20756
2381.65879,0.20549
2383.58726,0.20318
2385.51573,0.20378
2387.44420,0.20517
2389.37267,0.20494
2391.30114,0.20409
2393.22961,0.20391
2395.15807,0.20541
2397.08654,0.20750
2399.01501,0.20746
2400.94348,0.20683
2402.87195,0.20921
2404.80042,0.21288
2406.72889,0.21389
2408.65736,0.21253
2410.58582,0.21081
2412.51429,0.20992
2414.44276,0.21051
2416.37123,0.21104
2418.29970,0.21058
2420.22817,0.21078
2422.15664,0.21186
2424.08510,0.21209
2426.01357,0.21116
2427.94204,0.21110
2429.87051,0.21232
2431.79898,0.21253
2433.72745,0.21184
2435.65592,0.21234
2437.58439,0.21349
2439.51285,0.21368
2441.44132,0.21258
2443.36979,0.20906
2445.29826,0.20515
2447.22673,0.20492
2449.15520,0.20613
2451.08367,0.20692
2453.01213,0.20807
2454.94060,0.20702
2456.86907,0.20553
2458.79754,0.20749
2460.72601,0.21016
2462.65448,0.20953
2464.58295,0.20680
2466.51142,0.20649
2468.43988,0.20823
2470.36835,0.20863
2472.29682,0.20967
2474.22529,0.21284
2476.15376,0.21365
2478.08223,0.21020
2480.01070,0.20722
2481.93916,0.20625
2483.86763,0.20555
2485.79610,0.20711
2487.72457,0.21077
2489.65304,0.21261
2491.58151,0.21203
2493.50998,0.21091
2495.43844,0.21010
2497.36691,0.20969
2499.29538,0.21009
2501.22385,0.21169
2503.15232,0.21291
2505.08079,0.21308
2507.00926,0.21417
2508.93773,0.21606
2510.86619,0.21571
2512.79466,0.21320
2514.72313,0.21358
2516.65160,0.21655
2518.58007,0.21690
2520.50854,0.21418
2522.43701,0.21166
2524.36547,0.21355
2526.29394,0.21745
2528.22241,0.21692
2530.15088,0.21439
2532.07935,0.21359
2534.00782,0.21216
2535.93629,0.20919
2537.86476,0.20742
2539.79322,0.20764
2541.72169,0.20863
2543.65016,0.21103
2545.57863,0.21298
2547.50710,0.21108
2549.43557,0.20750
2551.36404,0.20609
2553.29250,0.20767
2555.22097,0.21122
2557.14944,0.21463
2559.07791,0.21610
2561.00638,0.21547
2562.93485,0.21312
2564.86332,0.21022
2566.79179,0.21031
2568.72025,0.21404
2570.64872,0.21606
2572.57719,0.21466
2574.50566,0.21406
2576.43413,0.21501
2578.36260,0.21582
2580.29107,0.21609
2582.21953,0.21519
2584.14800,0.21407
2586.07647,0.21556
2588.00494,0.21790
2589.93341,0.21645
2591.86188,0.21370
2593.79035,0.21399
2595.71882,0.21600
2597.64728,0.21670
2599.57575,0.21529
2601.50422,0.21421
2603.43269,0.21451
2605.36116,0.21364
2607.28963,0.20924
2609.21810,0.20370
2611.14656,0.20482
2613.07503,0.21338
2615.00350,0.21927
2616.93197,0.21869
2618.86044,0.21733
2620.78891,0.21720
2622.71738,0.21592
2624.64585,0.21393
2626.57431,0.21303
2628.50278,0.21243
2630.43125,0.21229
2632.35972,0.21324
2634.28819,0.21428
2636.21666,0.21549
2638.14513,0.21510
2640.07359,0.21307
2642.00206,0.21170
2643.93053,0.21067
2645.85900,0.21292
2647.78747,0.21726
2649.71594,0.21695
2651.64441,0.21538
2653.57288,0.21649
2655.50134,0.21658
2657.42981,0.21671
2659.35828,0.21750
2661.28675,0.21567
2663.21522,0.21341
2665.14369,0.21332
2667.07216,0.21488
2669.00062,0.21770
2670.92909,0.22039
2672.85756,0.22123
2674.78603,0.22083
2676.71450,0.22009
2678.64297,0.21866
2680.57144,0.21951
2682.49990,0.22255
2684.42837,0.22161
2686.35684,0.21764
2688.28531,0.21512
2690.21378,0.21396
2692.14225,0.21474
2694.07072,0.21682
2695.99919,0.21815
2697.92765,0.21969
2699.85612,0.22111
2701.78459,0.22056
2703.71306,0.21705
2705.64153,0.21294
2707.57000,0.21343
2709.49847,0.21674
2711.42693,0.21903
2713.35540,0.22244
2715.28387,0.22661
2717.21234,0.22881
2719.14081,0.23011
2721.06928,0.23078
2722.99775,0.22950
2724.92622,0.22586
2726.85468,0.22062
2728.78315,0.21687
2730.71162,0.21598
2732.64009,0.21793
2734.56856,0.22239
2736.49703,0.22556
2738.42550,0.22606
2740.35396,0.22597
2742.28243,0.22386
2744.21090,0.21943
2746.13937,0.21835
2748.06784,0.22157
2749.99631,0.22413
2751.92478,0.22602
2753.85325,0.22770
2755.78171,0.22714
2757.71018,0.22447
2759.63865,0.21990
2761.56712,0.21496
2763.49559,0.21354
2765.42406,0.21746
2767.35253,0.22366
2769.28099,0.22664
2771.20946,0.22571
2773.13793,0.22479
2775.06640,0.22640
2776.99487,0.22902
2778.92334,0.22937
2780.85181,0.22891
2782.78028,0.22989
2784.70874,0.23022
2786.63721,0.22920
2788.56568,0.22663
2790.49415,0.22291
2792.42262,0.22140
2794.35109,0.22149
2796.27956,0.22024
2798.20802,0.21989
2800.13649,0.22260
2802.06496,0.22565
2803.99343,0.22715
2805.92190,0.22824
2807.85037,0.22904
2809.77884,0.22968
2811.70731,0.23023
2813.63577,0.22698
2815.56424,0.22208
2817.49271,0.22394
2819.42118,0.22911
2821.34965,0.22897
2823.27812,0.22678
2825.20659,0.22821
2827.13505,0.23159
2829.06352,0.23280
2830.99199,0.23177
2832.92046,0.23004
2834.84893,0.22609
2836.77740,0.22356
2838.70587,0.22602
2840.63433,0.22846
2842.56280,0.23005
2844.49127,0.23128
2846.41974,0.22906
2848.34821,0.22617
2850.27668,0.22647
2852.20515,0.22957
2854.13362,0.23289
2856.06208,0.23395
2857.99055,0.23361
2859.91902,0.23227
2861.84749,0.23032
2863.77596,0.22898
2865.70443,0.22822
2867.63290,0.22899
2869.56136,0.22978
2871.48983,0.22978
2873.41830,0.23051
2875.34677,0.22982
2877.27524,0.22818
2879.20371,0.22907
2881.13218,0.23067
2883.06065,0.23030
2884.98911,0.22901
2886.91758,0.22690
2888.84605,0.22536
2890.77452,0.22664
2892.70299,0.22882
2894.63146,0.22927
2896.55993,0.22675
2898.48839,0.22488
2900.41686,0.22835
2902.34533,0.23300
2904.27380,0.23195
2906.20227,0.22727
2908.13074,0.22514
2910.05921,0.22538
2911.98768,0.22674
2913.91614,0.22789
2915.84461,0.22564
2917.77308,0.22331
2919.70155,0.22498
2921.63002,0.22555
2923.55849,0.22343
2925.48696,0.22531
2927.41542,0.22773
2929.34389,0.22636
2931.27236,0.22899
2933.20083,0.23494
2935.12930,0.23546
2937.05777,0.23096
2938.98624,0.22617
2940.91471,0.22382
2942.84317,0.22530
2944.77164,0.22657
2946.70011,0.22407
2948.62858,0.22158
2950.55705,0.22327
2952.48552,0.22811
2954.41399,0.22962
2956.34245,0.22689
2958.27092,0.22607
2960.19939,0.22703
2962.12786,0.22943
2964.05633,0.23345
2965.98480,0.23445
2967.91327,0.23369
2969.84174,0.23374
2971.77020,0.23269
2973.69867,0.23198
2975.62714,0.23305
2977.55561,0.23381
2979.48408,0.23367
2981.41255,0.23404
2983.34102,0.23536
2985.26948,0.23750
2987.19795,0.23971
2989.12642,0.23899
2991.05489,0.23429
2992.98336,0.23018
2994.91183,0.23024
2996.84030,0.23119
2998.76877,0.23206
3000.69723,0.23488
3002.62570,0.23786
3004.55417,0.24035
3006.48264,0.24130
3008.41111,0.23996
3010.33958,0.23716
3012.26805,0.23062
3014.19651,0.22137
3016.12498,0.21585
3018.05345,0.22011
3019.98192,0.23167
3021.91039,0.24022
3023.83886,0.24084
3025.76733,0.23791
3027.69579,0.23769
3029.62426,0.23939
3031.55273,0.23901
3033.48120,0.23678
3035.40967,0.23430
3037.33814,0.23203
3039.26661,0.23106
3041.19508,0.23231
3043.12354,0.23415
3045.05201,0.23621
3046.98048,0.23941
3048.90895,0.23911
3050.83742,0.23146
3052.76589,0.22187
3054.69436,0.21758
3056.62282,0.22197
3058.55129,0.23322
3060.47976,0.24130
3062.40823,0.24074
3064.33670,0.23743
3066.26517,0.23527
3068.19364,0.23619
3070.12211,0.23954
3072.05057,0.23796
3073.97904,0.23123
3075.90751,0.22639
3077.83598,0.22681
3079.76445,0.23286
3081.69292,0.23999
3083.62139,0.24014
3085.54985,0.23494
3087.47832,0.23496
3089.40679,0.24109
3091.33526,0.24304
3093.26373,0.23683
3095.19220,0.22842
3097.12067,0.22276
3099.04914,0.22190
3100.97760,0.22598
3102.90607,0.23021
3104.83454,0.23195
3106.76301,0.23295
3108.69148,0.23287
3110.61995,0.22864
3112.54842,0.22361
3114.47688,0.23053
3116.40535,0.24713
3118.33382,0.25355
3120.26229,0.24695
3122.19076,0.24007
3124.11923,0.23650
3126.04770,0.23519
3127.97617,0.23677
3129.90463,0.23923
3131.83310,0.24205
3133.76157,0.24510
3135.69004,0.24489
3137.61851,0.24169
3139.54698,0.24019
3141.47545,0.23969
3143.40391,0.23699
3145.33238,0.23333
3147.26085,0.22970
3149.18932,0.22962
3151.11779,0.23497
3153.04626,0.23753
3154.97473,0.23386
3156.90320,0.23108
3158.83166,0.23254
3160.76013,0.23596
3162.68860,0.23946
3164.61707,0.24061
3166.54554,0.23871
3168.47401,0.23769
3170.40248,0.23968
3172.33094,0.24151
3174.25941,0.24152
3176.18788,0.24308
3178.11635,0.24508
3180.04482,0.24155
3181.97329,0.23627
3183.90176,0.23647
3185.83022,0.23943
3187.75869,0.23911
3189.68716,0.23540
3191.61563,0.23384
3193.54410,0.23694
3195.47257,0.24081
3197.40104,0.24147
3199.32951,0.23961
3201.25797,0.23971
3203.18644,0.24057
3205.11491,0.23713
3207.04338,0.23431
3208.97185,0.23560
3210.90032,0.23500
3212.82879,0.23469
3214.75725,0.23774
3216.68572,0.23876
3218.61419,0.23701
3220.54266,0.23465
3222.47113,0.23337
3224.39960,0.23368
3226.32807,0.23346
3228.25654,0.23248
3230.18500,0.23164
3232.11347,0.23275
3234.04194,0.23559
3235.97041,0.23711
3237.89888,0.23816
3239.82735,0.23936
3241.75582,0.23902
3243.68428,0.24076
3245.61275,0.24579
3247.54122,0.24814
3249.46969,0.24631
3251.39816,0.24298
3253.32663,0.24144
3255.25510,0.24296
3257.18357,0.24333
3259.11203,0.24011
3261.04050,0.23742
3262.96897,0.23849
3264.89744,0.24133
3266.82591,0.24354
3268.75438,0.24353
3270.68285,0.24302
3272.61131,0.24506
3274.53978,0.24673
3276.46825,0.24534
3278.39672,0.24377
3280.32519,0.24431
3282.25366,0.24532
3284.18213,0.24552
3286.11060,0.24540
3288.03906,0.24640
3289.96753,0.24966
3291.89600,0.24909
3293.82447,0.23866
3295.75294,0.22868
3297.68141,0.23037
3299.60988,0.23605
3301.53834,0.23621
3303.46681,0.23259
3305.39528,0.23224
3307.32375,0.23877
3309.25222,0.24357
3311.18069,0.23966
3313.10916,0.23224
3315.03763,0.22719
3316.96609,0.22579
3318.89456,0.22842
3320.82303,0.23381
3322.75150,0.23593
3324.67997,0.23289
3326.60844,0.23052
3328.53691,0.23263
3330.46537,0.23725
3332.39384,0.24173
3334.32231,0.24473
3336.25078,0.24362
3338.17925,0.24114
3340.10772,0.24282
3342.03619,0.24229
3343.96466,0.23482
3345.89312,0.23282
3347.82159,0.24034
3349.75006,0.24580
3351.67853,0.24647
3353.60700,0.24584
3355.53547,0.24520
3357.46394,0.24289
3359.39240,0.23678
3361.32087,0.23366
3363.24934,0.23839
3365.17781,0.24404
3367.10628,0.24552
3369.03475,0.24593
3370.96322,0.24708
3372.89168,0.24706
3374.82015,0.24368
3376.74862,0.23735
3378.67709,0.23489
3380.60556,0.23951
3382.53403,0.24302
3384.46250,0.24054
3386.39097,0.23879
3388.31943,0.24047
3390.24790,0.24197
3392.17637,0.24301
3394.10484,0.24251
3396.03331,0.24138
3397.96178,0.24001
3399.89025,0.23574
3401.81871,0.23292
3403.74718,0.23418
3405.67565,0.23592
3407.60412,0.23734
3409.53259,0.23811
3411.46106,0.23736
3413.38953,0.23615
3415.31800,0.23586
3417.24646,0.23994
3419.17493,0.24697
3421.10340,0.24686
3423.03187,0.23916
3424.96034,0.23213
3426.88881,0.22806
3428.81728,0.22897
3430.74574,0.23348
3432.67421,0.23311
3434.60268,0.22805
3436.53115,0.22852
3438.45962,0.23495
3440.38809,0.23688
3442.31656,0.23289
3444.24503,0.23163
3446.17349,0.23700
3448.10196,0.24232
3450.03043,0.23962
3451.95890,0.23387
3453.88737,0.23214
3455.81584,0.23203
3457.74431,0.23037
3459.67277,0.22711
3461.60124,0.22352
3463.52971,0.22290
3465.45818,0.22292
3467.38665,0.21872
3469.31512,0.21522
3471.24359,0.21519
3473.17206,0.21412
3475.10052,0.21491
3477.02899,0.21935
3478.95746,0.21998
3480.88593,0.21529
3482.81440,0.21214
3484.74287,0.21156
3486.67134,0.20993
3488.59980,0.21027
3490.52827,0.21439
3492.45674,0.21502
3494.38521,0.20978
3496.31368,0.20572
3498.24215,0.20579
3500.17062,0.20868
3502.09909,0.21412
3504.02755,0.21687
3505.95602,0.21374
3507.88449,0.20843
3509.81296,0.20208
3511.74143,0.19747
3513.66990,0.19823
3515.59837,0.20057
3517.52683,0.20062
3519.45530,0.19987
3521.38377,0.19791
3523.31224,0.19411
3525.24071,0.19316
3527.16918,0.19490
3529.09765,0.19334
3531.02611,0.18879
3532.95458,0.18678
3534.88305,0.19013
3536.81152,0.19521
3538.73999,0.19500
3540.66846,0.18931
3542.59693,0.18528
3544.52540,0.18632
3546.45386,0.18925
3548.38233,0.19066
3550.31080,0.18797
3552.23927,0.18330
3554.16774,0.18079
3556.09621,0.18115
3558.02468,0.18562
3559.95314,0.18984
3561.88161,0.19006
3563.81008,0.19419
3565.73855,0.20604
3567.66702,0.21081
3569.59549,0.19868
3571.52396,0.18478
3573.45243,0.17751
3575.38089,0.17594
3577.30936,0.17596
3579.23783,0.17467
3581.16630,0.17231
3583.09477,0.17025
3585.02324,0.17201
3586.95171,0.17956
3588.88017,0.18370
3590.80864,0.18145
3592.73711,0.18037
3594.66558,0.18006
3596.59405,0.17800
3598.52252,0.17763
3600.45099,0.17646
3602.37946,0.16860
3604.30792,0.16309
3606.23639,0.16942
3608.16486,0.17981
3610.09333,0.18278
3612.02180,0.18354
3613.95027,0.18554
3615.87874,0.18570
3617.80720,0.18563
3619.73567,0.18131
3621.66414,0.16931
3623.59261,0.16145
3625.52108,0.16284
3627.44955,0.17245
3629.37802,0.18204
3631.30649,0.17786
3633.23495,0.17066
3635.16342,0.16700
3637.09189,0.16616
3639.02036,0.16612
3640.94883,0.16363
3642.87730,0.15995
3644.80577,0.16509
3646.73423,0.18523
3648.66270,0.20278
3650.59117,0.18645
3652.51964,0.16496
3654.44811,0.15859
3656.37658,0.15880
3658.30505,0.15564
3660.23352,0.15197
3662.16198,0.14979
3664.09045,0.14699
3666.01892,0.14456
3667.94739,0.14862
3669.87586,0.16490
3671.80433,0.17916
3673.73280,0.18554
3675.66126,0.18587
3677.58973,0.17275
3679.51820,0.15832
3681.44667,0.14965
3683.37514,0.14825
3685.30361,0.15344
3687.23208,0.16277
3689.16055,0.16976
3691.08901,0.16428
3693.01748,0.15439
3694.94595,0.14810
3696.87442,0.14340
3698.80289,0.14048
3700.73136,0.14174
3702.65983,0.14399
3704.58829,0.14450
3706.51676,0.14799
3708.44523,0.15708
3710.37370,0.16524
3712.30217,0.15662
3714.23064,0.14344
3716.15911,0.14302
3718.08757,0.14818
3720.01604,0.15167
3721.94451,0.15588
3723.87298,0.15682
3725.80145,0.14753
3727.72992,0.13758
3729.65839,0.13796
3731.58686,0.14982
3733.51532,0.17047
3735.44379,0.18515
3737.37226,0.18184
3739.30073,0.17213
3741.22920,0.16640
3743.15767,0.16814
3745.08614,0.17405
3747.01460,0.17705
3748.94307,0.18031
3750.87154,0.17598
3752.80001,0.16015
3754.72848,0.15140
3756.65695,0.14983
3758.58542,0.14959
3760.51389,0.14879
3762.44235,0.14944
3764.37082,0.15075
3766.29929,0.15024
3768.22776,0.15051
3770.15623,0.15057
3772.08470,0.14620
3774.01317,0.14168
3775.94163,0.14181
3777.87010,0.14800
3779.79857,0.15260
3781.72704,0.14842
3783.65551,0.14373
3785.58398,0.14174
3787.51245,0.13935
3789.44092,0.13905
3791.36938,0.14251
3793.29785,0.14765
3795.22632,0.15228
3797.15479,0.15248
3799.08326,0.15165
3801.01173,0.15688
3802.94020,0.15999
3804.86866,0.15767
3806.79713,0.15489
3808.72560,0.14894
3810.65407,0.14221
3812.58254,0.13894
3814.51101,0.14068
3816.43948,0.14446
3818.36795,0.14894
3820.29641,0.16153
3822.22488,0.16819
3824.15335,0.15664
3826.08182,0.14483
3828.01029,0.14116
3829.93876,0.14491
3831.86723,0.15013
3833.79569,0.15103
3835.72416,0.15445
3837.65263,0.16449
3839.58110,0.16164
3841.50957,0.14351
3843.43804,0.13130
3845.36651,0.13091
3847.29498,0.13588
3849.22344,0.14407
3851.15191,0.15393
3853.08038,0.15228
3855.00885,0.13651
3856.93732,0.13213
3858.86579,0.13519
3860.79426,0.14077
3862.72272,0.14638
3864.65119,0.14477
3866.57966,0.13953
3868.50813,0.14142
3870.43660,0.14731
3872.36507,0.14938
3874.29354,0.14905
3876.22200,0.14508
3878.15047,0.14022
3880.07894,0.14136
3882.00741,0.14660
3883.93588,0.14992
3885.86435,0.14773
3887.79282,0.14230
3889.72129,0.14345
3891.64975,0.14470
3893.57822,0.13545
3895.50669,0.12588
3897.43516,0.12261
3899.36363,0.12713
3901.29210,0.13712
3903.22057,0.14217
3905.14903,0.13770
3907.07750,0.13144
3909.00597,0.13053
3910.93444,0.13432
3912.86291,0.13599
3914.79138,0.13357
3916.71985,0.13482
3918.64832,0.13987
3920.57678,0.14046
3922.50525,0.14202
3924.43372,0.14584
3926.36219,0.13971
3928.29066,0.12952
3930.21913,0.12779
3932.14760,0.12860
3934.07606,0.12675
3936.00453,0.12735
3937.93300,0.12751
3939.86147,0.12492
3941.78994,0.12505
3943.71841,0.12747
3945.64688,0.12709
3947.57535,0.12592
3949.50381,0.12721
3951.43228,0.12717
3953.36075,0.12222
3955.28922,0.11914
3957.21769,0.12299
3959.14616,0.12794
3961.07463,0.12783
3963.00309,0.12351
3964.93156,0.12066
3966.86003,0.12239
3968.78850,0.12560
3970.71697,0.12602
3972.64544,0.12660
3974.57391,0.13024
3976.50238,0.12792
3978.43084,0.11976
3980.35931,0.11902
3982.28778,0.12326
3984.21625,0.12352
3986.14472,0.12213
3988.07319,0.12060
3990.00166,0.11900
3991.93012,0.11896
3993.85859,0.12042
3995.78706,0.12072
3997.71553,0.11834
3999.64400,0.11866
4001.57247,0.12197
4003.50094,0.12196
4005.42941,0.12005
4007.35787,0.12034
4009.28634,0.11961
4011.21481,0.11502
4013.14328,0.11307
4015.07175,0.11431
4017.00022,0.11142
4018.92869,0.10853
4020.85715,0.11233
4022.78562,0.11864
4024.71409,0.12111
4026.64256,0.11634
4028.57103,0.10774
4030.49950,0.10443
4032.42797,0.10698
4034.35644,0.11001
4036.28490,0.11226
4038.21337,0.11090
4040.14184,0.10750
4042.07031,0.10831
4043.99878,0.11159
4045.92725,0.11527
4047.85572,0.11933
4049.78418,0.11874
4051.71265,0.11333
4053.64112,0.10851
4055.56959,0.10577
4057.49806,0.10466
4059.42653,0.10467
4061.35500,0.10457
4063.28346,0.10483
4065.21193,0.10854
4067.14040,0.11643
4069.06887,0.12108
4070.99734,0.11575
4072.92581,0.10559
4074.85428,0.10112
4076.78275,0.10641
4078.71121,0.11384
4080.63968,0.11407
4082.56815,0.11178
4084.49662,0.11311
4086.42509,0.11291
4088.35356,0.11067
4090.28203,0.11042
4092.21049,0.10703
4094.13896,0.09857
4096.06743,0.09263
4097.99590,0.09246
4099.92437,0.09682
4101.85284,0.10407
4103.78131,0.10919
4105.70978,0.10727
4107.63824,0.10147
4109.56671,0.09858
4111.49518,0.09943
4113.42365,0.10151
4115.35212,0.10281
4117.28059,0.10137
4119.20906,0.09656
4121.13752,0.09251
4123.06599,0.09125
4124.99446,0.08822
4126.92293,0.08512
4128.85140,0.08720
4130.77987,0.09276
4132.70834,0.09660
4134.63681,0.09619
4136.56527,0.09520
4138.49374,0.09505
4140.42221,0.09132
4142.35068,0.08776
4144.27915,0.09369
4146.20762,0.10522
4148.13609,0.10871
4150.06455,0.10287
4151.99302,0.09875
4153.92149,0.10005
4155.84996,0.10334
4157.77843,0.10523
4159.70690,0.10138
4161.63537,0.09253
4163.56384,0.08206
4165.49230,0.07479
4167.42077,0.07587
4169.34924,0.08279
4171.27771,0.08835
4173.20618,0.08764
4175.13465,0.08333
4177.06312,0.08244
4178.99158,0.08424
4180.92005,0.08333
4182.84852,0.08301
4184.77699,0.08482
4186.70546,0.08453
4188.63393,0.08532
4190.56240,0.08852
4192.49087,0.09309
4194.41933,0.09980
4196.34780,0.09972
4198.27627,0.08949
4200.20474,0.08080
4202.13321,0.07894
4204.06168,0.08046
4205.99015,0.08280
4207.91861,0.08416
4209.84708,0.08630
4211.77555,0.09090
4213.70402,0.09020
4215.63249,0.08133
4217.56096,0.07828
4219.48943,0.08494
4221.41789,0.08848
4223.34636,0.08374
4225.27483,0.07793
4227.20330,0.07695
4229.13177,0.07614
4231.06024,0.07425
4232.98871,0.07613
4234.91718,0.07747
4236.84564,0.07566
4238.77411,0.07591
4240.70258,0.07690
4242.63105,0.07661
4244.55952,0.07799
4246.48799,0.07850
4248.41646,0.07572
4250.34492,0.07222
4252.27339,0.06860
4254.20186,0.06637
4256.13033,0.06827
4258.05880,0.07086
4259.98727,0.07091
4261.91574,0.07245
4263.84421,0.07561
4265.77267,0.07721
4267.70114,0.07770
4269.62961,0.07686
4271.55808,0.07374
4273.48655,0.06810
4275.41502,0.06378
4277.34349,0.06373
4279.27195,0.06417
4281.20042,0.06440
4283.12889,0.06871
4285.05736,0.07554
4286.98583,0.07787
4288.91430,0.07586
4290.84277,0.07558
4292.77124,0.07595
4294.69970,0.07445
4296.62817,0.07271
4298.55664,0.06944
4300.48511,0.06520
4302.41358,0.06452
4304.34205,0.06705
4306.27052,0.06721
4308.19898,0.06405
4310.12745,0.06250
4312.05592,0.06259
4313.98439,0.06079
4315.91286,0.05994
4317.84133,0.06670
4319.76980,0.07197
4321.69827,0.06080
4323.62673,0.04851
4325.55520,0.05465
4327.48367,0.06476
4329.41214,0.06193
4331.34061,0.05509
4333.26908,0.05355
4335.19755,0.05218
4337.12601,0.05011
4339.05448,0.05345
4340.98295,0.05956
4342.91142,0.06173
4344.83989,0.06038
4346.76836,0.05608
4348.69683,0.04818
4350.62530,0.04257
4352.55376,0.04612
4354.48223,0.05567
4356.41070,0.06073
4358.33917,0.05941
4360.26764,0.05851
4362.19611,0.05961
4364.12458,0.06012
4366.05304,0.05935
4367.98151,0.05772
4369.90998,0.05647
4371.83845,0.05489
4373.76692,0.05172
4375.69539,0.04899
4377.62386,0.04674
4379.55232,0.04643
4381.48079,0.05079
4383.40926,0.05455
4385.33773,0.05276
4387.26620,0.04748
4389.19467,0.04406
4391.12314,0.04354
4393.05161,0.04274
4394.98007,0.04492
4396.90854,0.04997
4398.83701,0.05309
4400.76548,0.05720
4402.69395,0.06069
4404.62242,0.05733
4406.55089,0.05189
4408.47935,0.05177
4410.40782,0.05346
4412.33629,0.05171
4414.26476,0.04543
4416.19323,0.03380
4418.12170,0.02532
4420.05017,0.02806
4421.97864,0.03719
4423.90710,0.04397
4425.83557,0.04239
4427.76404,0.03815
4429.69251,0.03846
4431.62098,0.04018
4433.54945,0.04129
4435.47792,0.04243
4437.40638,0.04396
4439.33485,0.04510
4441.26332,0.04391
4443.19179,0.03901
4445.12026,0.03294
4447.04873,0.02886
4448.97720,0.02389
4450.90567,0.02121
4452.83413,0.02633
4454.76260,0.03358
4456.69107,0.03392
4458.61954,0.02719
4460.54801,0.02473
4462.47648,0.02968
4464.40495,0.03295
4466.33341,0.02958
4468.26188,0.02187
4470.19035,0.01589
4472.11882,0.01377
4474.04729,0.01302
4475.97576,0.01373
4477.90423,0.01536
4479.83270,0.01619
4481.76116,0.02090
4483.68963,0.02866
4485.61810,0.02800
4487.54657,0.02100
4489.47504,0.01948
4491.40351,0.02242
4493.33198,0.02452
4495.26044,0.02760
4497.18891,0.03126
4499.11738,0.03365
4501.04585,0.03327
4502.97432,0.03087
4504.90279,0.03254
4506.83126,0.02990
4508.75973,0.01818
4510.68819,0.01323
4512.61666,0.01366
4514.54513,0.01026
4516.47360,0.01019
4518.40207,0.01599
4520.33054,0.01818
4522.25901,0.01418
4524.18747,0.01486
4526.11594,0.01966
4528.04441,0.01870
4529.97288,0.01605
4531.90135,0.01561
4533.82982,0.01302
4535.75829,0.00899
4537.68676,0.00784
4539.61522,0.00900
4541.54369,0.00776
4543.47216,0.00393
4545.40063,0.00136
4547.32910,0.00541
4549.25757,0.01901
4551.18604,0.03169
4553.11450,0.03143
4555.04297,0.02010
4556.97144,0.00813
4558.89991,0.00811
4560.82838,0.01776
4562.75685,0.02333
4564.68532,0.02428
4566.61378,0.02811
4568.54225,0.03287
4570.47072,0.02912
4572.39919,0.01854
4574.32766,0.01608
4576.25613,0.02331
4578.18460,0.02687
4580.11307,0.02258
4582.04153,0.01659
4583.97000,0.01159
4585.89847,0.00817
4587.82694,0.01149
4589.75541,0.01939
4591.68388,0.02060
4593.61235,0.01381
4595.54081,0.00890
4597.46928,0.01250
4599.39775,0.01729
4601.32622,0.01458
4603.25469,0.00677
4605.18316,-0.00107
4607.11163,-0.00298
4609.04010,0.00093
4610.96856,0.00553
4612.89703,0.00771
4614.82550,0.00462
4616.75397,-0.00086
4618.68244,-0.00218
4620.61091,0.00453
4622.53938,0.01710
4624.46784,0.02246
4626.39631,0.01289
4628.32478,0.00611
4630.25325,0.01594
4632.18172,0.02916
4634.11019,0.03244
4636.03866,0.02547
4637.96713,0.01179
4639.89559,0.00071
4641.82406,0.00150
4643.75253,0.00885
4645.68100,0.01520
4647.60947,0.01875
4649.53794,0.01774
4651.46641,0.01823
4653.39487,0.02082
4655.32334,0.01567
4657.25181,0.00645
4659.18028,0.00112
4661.10875,0.00039
4663.03722,0.01028
4664.96569,0.02474
4666.89416,0.02874
4668.82262,0.02723
4670.75109,0.02632
4672.67956,0.02582
4674.60803,0.02600
4676.53650,0.02204
4678.46497,0.01568
4680.39344,0.01141
4682.32190,0.00754
4684.25037,0.00396
4686.17884,0.00449
4688.10731,0.00961
4690.03578,0.01000
4691.96425,0.00250
4693.89272,0.00117
4695.82119,0.00873
4697.74965,0.01254
4699.67812,0.01094
4701.60659,0.00645
4703.53506,0.00223
4705.46353,0.00441
4707.39200,0.00884
4709.32047,0.01246
4711.24893,0.02175
4713.17740,0.03208
4715.10587,0.02998
4717.03434,0.01630
4718.96281,0.00617
4720.89128,0.01211
4722.81975,0.02643
4724.74821,0.02863
4726.67668,0.01957
4728.60515,0.01455
4730.53362,0.01048
4732.46209,0.00078
4734.39056,-0.00742
4736.31903,-0.00601
4738.24750,0.00382
4740.17596,0.00895
4742.10443,0.00464
4744.03290,0.00271
4745.96137,0.00795
4747.88984,0.01318
4749.81831,0.01232
4751.74678,0.00673
4753.67524,0.00133
4755.60371,-0.00121
4757.53218,-0.00246
4759.46065,-0.00130
4761.38912,0.00339
4763.31759,0.00810
4765.24606,0.01305
4767.17453,0.01946
4769.10299,0.02582
4771.03146,0.02894
4772.95993,0.02629
4774.88840,0.02065
4776.81687,0.01929
4778.74534,0.02397
4780.67381,0.02265
4782.60227,0.01275
4784.53074,0.01479
4786.45921,0.03558
4788.38768,0.05101
4790.31615,0.04567
4792.24462,0.03253
4794.17309,0.02460
4796.10156,0.02015
4798.03002,0.01570
4799.95849,0.01519
4801.88696,0.01605
4803.81543,0.01352
4805.74390,0.01281
4807.67237,0.01214
4809.60084,0.00914
4811.52930,0.01066
4813.45777,0.00980
4815.38624,0.00310
4817.31471,0.00783
4819.24318,0.02089
4821.17165,0.02537
4823.10012,0.02299
4825.02859,0.01890
4826.95705,0.01221
4828.88552,0.00220
4830.81399,-0.00398
4832.74246,-0.00088
4834.67093,0.00678
4836.59940,0.01821
4838.52787,0.02866
4840.45633,0.02991
4842.38480,0.02677
4844.31327,0.02203
4846.24174,0.01288
4848.17021,0.00154
4850.09868,-0.00697
4852.02715,-0.00698
4853.95562,-0.00028
4855.88408,0.00659
4857.81255,0.01172
4859.74102,0.01034
4861.66949,0.00380
4863.59796,0.00601
4865.52643,0.01480
4867.45490,0.01489
4869.38336,0.01046
4871.31183,0.01299
4873.24030,0.01943
4875.16877,0.01854
4877.09724,0.00393
4879.02571,-0.00375
4880.95418,0.01070
4882.88265,0.01941
4884.81111,0.01437
4886.73958,0.01170
4888.66805,0.00710
4890.59652,0.00221
4892.52499,0.00007
4894.45346,-0.00538
4896.38193,-0.00649
4898.31039,-0.00386
4900.23886,-0.01016
4902.16733,-0.01418
4904.09580,-0.00562
4906.02427,0.00594
4907.95274,0.02132
4909.88121,0.03527
4911.80967,0.03003
4913.73814,0.00945
4915.66661,-0.00644
4917.59508,-0.00487
4919.52355,0.00790
4921.45202,0.01539
4923.38049,0.01908
4925.30896,0.02644
4927.23742,0.02883
4929.16589,0.02854
4931.09436,0.03167
4933.02283,0.03028
4934.95130,0.02602
4936.87977,0.02145
4938.80824,0.01452
4940.73670,0.00769
4942.66517,-0.00131
4944.59364,-0.00871
4946.52211,-0.00607
4948.45058,0.00097
4950.37905,0.00673
4952.30752,0.01206
4954.23599,0.01135
4956.16445,0.00609
4958.09292,0.00706
4960.02139,0.01005
4961.94986,0.00812
4963.87833,0.00679
4965.80680,0.00966
4967.73527,0.01740
4969.66373,0.02275
4971.59220,0.02222
4973.52067,0.02262
4975.44914,0.01735
4977.37761,0.00588
4979.30608,0.00185
4981.23455,0.00823
4983.16302,0.02130
4985.09148,0.03251
4987.01995,0.02792
4988.94842,0.01151
4990.87689,0.00601
4992.80536,0.01421
4994.73383,0.02399
4996.66230,0.02680
4998.59076,0.02114
5000.51923,0.01817
5002.44770,0.01751
5004.37617,0.01456
5006.30464,0.01547
5008.23311,0.02089
5010.16158,0.02456
5012.09005,0.01998
5014.01851,0.01287
5015.94698,0.01400
5017.87545,0.01797
5019.80392,0.01940
5021.73239,0.02396
5023.66086,0.02737
5025.58933,0.02699
5027.51779,0.03367
5029.44626,0.04431
5031.37473,0.04233
5033.30320,0.02966
5035.23167,0.02582
5037.16014,0.03035
5039.08861,0.03017
5041.01708,0.02797
5042.94554,0.02911
5044.87401,0.02762
5046.80248,0.02262
5048.73095,0.02696
5050.65942,0.03333
5052.58789,0.02969
5054.51636,0.02716
5056.44482,0.02214
5058.37329,0.01429
5060.30176,0.01957
5062.23023,0.02630
5064.15870,0.01938
5066.08717,0.01663
5068.01564,0.02771
5069.94410,0.02790
5071.87257,0.01104
5073.80104,0.00033
5075.72951,-0.00233
5077.65798,-0.00341
5079.58645,0.00342
5081.51492,0.01431
5083.44339,0.02134
5085.37185,0.02059
5087.30032,0.01361
5089.22879,0.01377
5091.15726,0.02434
5093.08573,0.03638
5095.01420,0.04680
5096.94267,0.05237
5098.87113,0.04606
5100.79960,0.02974
5102.72807,0.01886
5104.65654,0.01913
5106.58501,0.02263
5108.51348,0.02829
5110.44195,0.02948
5112.37042,0.01807
5114.29888,0.00784
5116.22735,0.01327
5118.15582,0.02356
5120.08429,0.02076
5122.01276,0.01437
5123.94123,0.01956
5125.86970,0.02790
5127.79816,0.02937
5129.72663,0.03031
5131.65510,0.04798
5133.58357,0.07184
5135.51204,0.06950
5137.44051,0.04940
5139.36898,0.03488
5141.29745,0.03309
5143.22591,0.04866
5145.15438,0.06134
5147.08285,0.05370
5149.01132,0.04596
5150.93979,0.04742
5152.86826,0.03751
5154.79673,0.01489
5156.72519,0.00272
5158.65366,0.00648
5160.58213,0.02307
5162.51060,0.04267
5164.43907,0.04328
5166.36754,0.02910
5168.29601,0.01894
5170.22448,0.02013
5172.15294,0.02081
5174.08141,0.01583
5176.00988,0.02287
5177.93835,0.03328
5179.86682,0.02691
5181.79529,0.01822
5183.72376,0.02692
5185.65222,0.04515
5187.58069,0.05289
5189.50916,0.04379
5191.43763,0.03501
5193.36610,0.03982
5195.29457,0.03820
5197.22304,0.02067
5199.15151,0.01064
5201.07997,0.02080
5203.00844,0.03907
5204.93691,0.05466
5206.86538,0.07097
5208.79385,0.08012
5210.72232,0.06829
5212.65079,0.05049
5214.57925,0.04446
5216.50772,0.04807
5218.43619,0.05534
5220.36466,0.05897
5222.29313,0.05754
5224.22160,0.06349
5226.15007,0.07889
5228.07854,0.08112
5230.00700,0.05866
5231.93547,0.02980
5233.86394,0.01777
5235.79241,0.02610
5237.72088,0.03878
5239.64935,0.04144
5241.57782,0.03499
5243.50628,0.01923
5245.43475,0.00654
5247.36322,0.02667
5249.29169,0.06009
5251.22016,0.06837
5253.14863,0.06452
5255.07710,0.05541
5257.00556,0.04782
5258.93403,0.05337
5260.86250,0.06003
5262.79097,0.06250
5264.71944,0.06443
5266.64791,0.07054
5268.57638,0.07162
5270.50485,0.05710
5272.43331,0.04422
5274.36178,0.04525
5276.29025,0.05454
5278.21872,0.05761
5280.14719,0.04549
5282.07566,0.03749
5284.00413,0.05481
5285.93259,0.08830
5287.86106,0.11299
5289.78953,0.10944
5291.71800,0.08156
5293.64647,0.06603
5295.57494,0.07053
5297.50341,0.07061
5299.43188,0.05895
5301.36034,0.04536
5303.28881,0.03512
5305.21728,0.03424
5307.14575,0.04364
5309.07422,0.04602
5311.00269,0.03733
5312.93116,0.03237
5314.85962,0.03075
5316.78809,0.03141
5318.71656,0.04235
5320.64503,0.05330
5322.57350,0.05894
5324.50197,0.06641
5326.43044,0.06292
5328.35891,0.05115
5330.28737,0.05125
5332.21584,0.05263
5334.14431,0.04323
5336.07278,0.02976
5338.00125,0.02876
5339.92972,0.04224
5341.85819,0.04913
5343.78665,0.05385
5345.71512,0.07027
5347.64359,0.08795
5349.57206,0.09804
5351.50053,0.10347
5353.42900,0.11124
5355.35747,0.11376
5357.28594,0.09410
5359.21440,0.07428
5361.14287,0.08578
5363.07134,0.09935
5364.99981,0.08518
5366.92828,0.06841
5368.85675,0.06571
5370.78522,0.06579
5372.71368,0.05287
5374.64215,0.04591
5376.57062,0.06745
5378.49909,0.07851
5380.42756,0.06606
5382.35603,0.05454
5384.28450,0.05879
5386.21297,0.08096
5388.14143,0.09127
5390.06990,0.07581
5391.99837,0.05888
5393.92684,0.06376
5395.85531,0.08314
5397.78378,0.09043
5399.71225,0.08758
5401.64071,0.08863
5403.56918,0.08532
5405.49765,0.07080
5407.42612,0.05304
5409.35459,0.04868
5411.28306,0.07877
5413.21153,0.10879
5415.13999,0.09089
5417.06846,0.07659
5418.99693,0.09416
5420.92540,0.10909
5422.85387,0.10325
5424.78234,0.07817
5426.71081,0.04328
5428.63928,0.02264
5430.56774,0.03745
5432.49621,0.06953
5434.42468,0.08788
5436.35315,0.09485
5438.28162,0.10111
5440.21009,0.09190
5442.13856,0.07144
5444.06702,0.06799
5445.99549,0.06338
5447.92396,0.03821
5449.85243,0.02672
5451.78090,0.04136
5453.70937,0.07415
5455.63784,0.11278
5457.56631,0.12635
5459.49477,0.11322
5461.42324,0.09535
5463.35171,0.08680
5465.28018,0.08252
5467.20865,0.07977
5469.13712,0.08811
5471.06559,0.08991
5472.99405,0.08671
5474.92252,0.10450
5476.85099,0.10533
5478.77946,0.06345
5480.70793,0.03618
5482.63640,0.04740
5484.56487,0.06787
5486.49334,0.07509
5488.42180,0.06843
5490.35027,0.07210
5492.27874,0.09233
5494.20721,0.10458
5496.13568,0.09193
5498.06415,0.06184
5499.99262,0.04567
5501.92108,0.05226
5503.84955,0.06250
5505.77802,0.06822
5507.70649,0.06507
5509.63496,0.05429
5511.56343,0.05860
5513.49190,0.09637
5515.42037,0.13132
5517.34883,0.12861
5519.27730,0.11289
5521.20577,0.09851
5523.13424,0.08636
5525.06271,0.10454
5526.99118,0.13538
5528.91965,0.13360
5530.84811,0.11435
5532.77658,0.10703
5534.70505,0.10847
5536.63352,0.10934
5538.56199,0.10084
5540.49046,0.07762
5542.41893,0.05681
5544.34740,0.06079
5546.27586,0.07310
5548.20433,0.06830
5550.13280,0.05920
5552.06127,0.06202
5553.98974,0.07023
5555.91821,0.08150
5557.84668,0.09342
5559.77514,0.10137
5561.70361,0.10255
5563.63208,0.08998
5565.56055,0.07115
5567.48902,0.06243
5569.41749,0.07048
5571.34596,0.07328
5573.27443,0.06178
5575.20289,0.07064
5577.13136,0.10032
5579.05983,0.11731
5580.98830,0.11401
5582.91677,0.11062
5584.84524,0.11977
5586.77371,0.12351
5588.70217,0.11038
5590.63064,0.10956
5592.55911,0.13577
5594.48758,0.14076
5596.41605,0.09048
5598.34452,0.02549
5600.27299,-0.00012
5602.20145,0.02523
5604.12992,0.07708
5606.05839,0.11546
5607.98686,0.11132
5609.91533,0.06756
5611.84380,0.02638
5613.77227,0.02209
5615.70074,0.03501
5617.62920,0.05399
5619.55767,0.08190
5621.48614,0.09948
5623.41461,0.09880
5625.34308,0.08275
5627.27155,0.06777
5629.20002,0.06302
5631.12848,0.04758
5633.05695,0.04494
5634.98542,0.07361
5636.91389,0.09201
5638.84236,0.10402
5640.77083,0.13066
5642.69930,0.14722
5644.62777,0.13634
5646.55623,0.11026
5648.48470,0.10317
5650.41317,0.11590
5652.34164,0.12113
5654.27011,0.12309
5656.19858,0.12719
5658.12705,0.12036
5660.05551,0.12093
5661.98398,0.15165
5663.91245,0.16063
5665.84092,0.11885
5667.76939,0.08857
5669.69786,0.09480
5671.62633,0.10923
5673.55480,0.11803
5675.48326,0.10656
5677.41173,0.08226
5679.34020,0.08071
5681.26867,0.09968
5683.19714,0.11539
5685.12561,0.11291
5687.05408,0.09738
5688.98254,0.09165
5690.91101,0.10572
5692.83948,0.11731
5694.76795,0.08914
5696.69642,0.04235
5698.62489,0.03076
5700.55336,0.04434
5702.48183,0.05673
5704.41029,0.07042
5706.33876,0.07972
5708.26723,0.07630
5710.19570,0.07645
5712.12417,0.09718
5714.05264,0.12519
5715.98111,0.12571
5717.90957,0.10491
5719.83804,0.10281
5721.76651,0.09717
5723.69498,0.07779
5725.62345,0.08989
5727.55192,0.10411
5729.48039,0.07685
5731.40886,0.05832
5733.33732,0.06955
5735.26579,0.08573
5737.19426,0.10666
5739.12273,0.13280
5741.05120,0.14602
5742.97967,0.12620
5744.90814,0.09525
5746.83660,0.08814
5748.76507,0.09866
5750.69354,0.11014
5752.62201,0.10521
5754.55048,0.07531
5756.47895,0.05255
5758.40742,0.06904
5760.33588,0.10401
5762.26435,0.12137
5764.19282,0.10410
5766.12129,0.05795
5768.04976,0.02951
5769.97823,0.03593
5771.90670,0.05374
5773.83517,0.07331
5775.76363,0.09081
5777.69210,0.11393
5779.62057,0.13771
5781.54904,0.12881
5783.47751,0.10038
5785.40598,0.10960
5787.33445,0.15278
5789.26291,0.16273
5791.19138,0.12840
5793.11985,0.10432
5795.04832,0.11093
5796.97679,0.11711
5798.90526,0.09960
5800.83373,0.08327
5802.76220,0.11329
5804.69066,0.16510
5806.61913,0.16152
5808.54760,0.10529
5810.47607,0.05358
5812.40454,0.03692
5814.33301,0.04538
5816.26148,0.04644
5818.18994,0.05108
5820.11841,0.08174
5822.04688,0.09876
5823.97535,0.07947
5825.90382,0.04353
5827.83229,0.00575
5829.76076,-0.00514
5831.68923,0.02729
5833.61769,0.07176
5835.54616,0.09217
5837.47463,0.10545
5839.40310,0.12577
5841.33157,0.13128
5843.26004,0.13126
5845.18851,0.13545
5847.11697,0.13257
5849.04544,0.13680
5850.97391,0.15101
5852.90238,0.16064
5854.83085,0.16659
5856.75932,0.15191
5858.68779,0.10344
5860.61626,0.05499
5862.54472,0.04015
5864.47319,0.04715
5866.40166,0.06173
5868.33013,0.08685
5870.25860,0.10749
5872.18707,0.12781
5874.11554,0.17922
5876.04400,0.22134
5877.97247,0.18722
5879.90094,0.11484
5881.82941,0.07534
5883.75788,0.09352
5885.68635,0.13125
5887.61482,0.12190
5889.54329,0.07629
5891.47175,0.05592
5893.40022,0.07985
5895.32869,0.10222
5897.25716,0.07302
5899.18563,0.03063
5901.11410,0.03801
5903.04257,0.08713
5904.97103,0.12119
5906.89950,0.11288
5908.82797,0.08586
5910.75644,0.07516
5912.68491,0.08197
5914.61338,0.08589
5916.54185,0.08950
5918.47032,0.09750
5920.39878,0.09534
5922.32725,0.09321
5924.25572,0.11861
5926.18419,0.13530
5928.11266,0.09577
5930.04113,0.05912
5931.96960,0.09037
5933.89806,0.14624
5935.82653,0.13785
5937.75500,0.08287
5939.68347,0.05444
5941.61194,0.06145
5943.54041,0.08826
5945.46888,0.09520
5947.39734,0.07981
5949.32581,0.10061
5951.25428,0.13858
5953.18275,0.13731
5955.11122,0.11691
5957.03969,0.11141
5958.96816,0.11466
5960.89663,0.10053
5962.82509,0.07351
5964.75356,0.07221
5966.68203,0.11602
5968.61050,0.18245
5970.53897,0.22938
5972.46744,0.23177
5974.39591,0.20802
5976.32437,0.18178
5978.25284,0.15029
5980.18131,0.11771
5982.10978,0.09842
5984.03825,0.09603
5985.96672,0.08481
5987.89519,0.03855
5989.82366,0.00988
5991.75212,0.05138
5993.68059,0.08429
5995.60906,0.03470
5997.53753,-0.02012
5999.46600,-0.01219
6001.39447,0.00852
6003.32294,0.01763
6005.25140,0.08172
6007.17987,0.17417
6009.10834,0.18843
6011.03681,0.13406
6012.96528,0.08631
6014.89375,0.07004
6016.82222,0.05522
6018.75069,0.04144
6020.67915,0.05929
6022.60762,0.09123
6024.53609,0.10186
6026.46456,0.07433
6028.39303,0.05195
6030.32150,0.08178
6032.24997,0.11927
6034.17843,0.12866
6036.10690,0.13765
6038.03537,0.15014
6039.96384,0.13323
6041.89231,0.09568
6043.82078,0.06698
6045.74925,0.06638
6047.67772,0.09251
6049.60618,0.09902
6051.53465,0.08013
6053.46312,0.09751
6055.39159,0.14402
6057.32006,0.15273
6059.24853,0.13245
6061.17700,0.12114
6063.10546,0.12895
6065.03393,0.15674
6066.96240,0.17711
6068.89087,0.17619
6070.81934,0.16061
6072.74781,0.13247
6074.67628,0.09418
6076.60475,0.06482
6078.53321,0.07910
6080.46168,0.11992
6082.39015,0.13697
6084.31862,0.14307
6086.24709,0.17171
6088.17556,0.21147
6090.10403,0.20643
6092.03249,0.13024
6093.96096,0.06655
6095.88943,0.07388
6097.81790,0.09723
6099.74637,0.09788
6101.67484,0.08450
6103.60331,0.08436
6105.53177,0.11138
6107.46024,0.13368
6109.38871,0.12133
6111.31718,0.09330
6113.24565,0.08541
6115.17412,0.10951
6117.10259,0.13212
6119.03106,0.11585
6120.95952,0.07798
6122.88799,0.05121
6124.81646,0.05140
6126.74493,0.07476
6128.67340,0.10064
6130.60187,0.11047
6132.53034,0.10840
6134.45880,0.09568
6136.38727,0.07162
6138.31574,0.08134
6140.24421,0.14234
6142.17268,0.21787
6144.10115,0.25837
6146.02962,0.22752
6147.95809,0.15972
6149.88655,0.09610
6151.81502,0.04749
6153.74349,0.03300
6155.67196,0.05609
6157.60043,0.07073
6159.52890,0.05522
6161.45737,0.04600
6163.38583,0.04694
6165.31430,0.04140
6167.24277,0.03971
6169.17124,0.06430
6171.09971,0.10706
6173.02818,0.11225
6174.95665,0.08092
6176.88512,0.05020
6178.81358,0.04304
6180.74205,0.08149
6182.67052,0.11920
6184.59899,0.12212
6186.52746,0.15536
6188.45593,0.21916
6190.38440,0.21212
6192.31286,0.15088
6194.24133,0.10458
6196.16980,0.07067
6198.09827,0.04470
6200.02674,0.03585
6201.95521,0.06420
6203.88368,0.13033
6205.81215,0.13412
6207.74061,0.02648
6209.66908,-0.07330
6211.59755,-0.05464
6213.52602,0.01385
6215.45449,0.07254
6217.38296,0.13448
6219.31143,0.16202
6221.23989,0.13125
6223.16836,0.09608
6225.09683,0.07597
6227.02530,0.03547
6228.95377,0.02648
6230.88224,0.08567
6232.81071,0.13121
6234.73918,0.13342
6236.66764,0.13557
6238.59611,0.12139
6240.52458,0.07938
6242.45305,0.04064
6244.38152,0.02152
6246.30999,0.03483
6248.23846,0.05741
6250.16692,0.06526
6252.09539,0.09169
6254.02386,0.11789
6255.95233,0.11165
6257.88080,0.10607
6259.80927,0.11365
6261.73774,0.08783
6263.66621,0.02127
6265.59467,-0.01154
6267.52314,0.01317
6269.45161,0.03883
6271.38008,0.05657
6273.30855,0.07968
6275.23702,0.08846
6277.16549,0.06216
6279.09395,0.01580
6281.02242,-0.00874
6282.95089,0.00635
6284.87936,0.04630
6286.80783,0.10680
6288.73630,0.14862
6290.66477,0.12196
6292.59323,0.08090
6294.52170,0.07606
6296.45017,0.07040
6298.37864,0.05859
6300.30711,0.07101
6302.23558,0.07914
6304.16405,0.04845
6306.09252,0.05104
6308.02098,0.13018
6309.94945,0.20295
6311.87792,0.21945
6313.80639,0.20427
6315.73486,0.17041
6317.66333,0.12973
6319.59180,0.10447
6321.52026,0.10681
6323.44873,0.13302
6325.37720,0.13802
6327.30567,0.10201
6329.23414,0.08826
6331.16261,0.09765
6333.09108,0.06851
6335.01955,0.01989
6336.94801,-0.01887
6338.87648,-0.02880
6340.80495,0.01729
6342.73342,0.07931
6344.66189,0.08926
6346.59036,0.05756
6348.51883,0.02276
6350.44729,-0.01040
6352.37576,0.00819
6354.30423,0.07488
6356.23270,0.12141
6358.16117,0.14584
6360.08964,0.15474
6362.01811,0.14565
6363.94658,0.16031
6365.87504,0.19694
6367.80351,0.20914
6369.73198,0.17260
6371.66045,0.09348
6373.58892,0.04558
6375.51739,0.06478
6377.44586,0.08722
6379.37432,0.09558
6381.30279,0.13057
6383.23126,0.16803
6385.15973,0.13358
6387.08820,0.07666
6389.01667,0.08766
6390.94514,0.13884
6392.87361,0.12942
6394.80207,0.06846
6396.73054,0.04907
6398.65901,0.09198
6400.58748,0.16448
6402.51595,0.16398
6404.44442,0.06428
6406.37289,0.00567
6408.30135,0.01255
6410.22982,0.01318
6412.15829,0.08273
6414.08676,0.19957
6416.01523,0.25534
6417.94370,0.20923
6419.87217,0.08088
6421.80064,-0.02379
6423.72910,-0.02611
6425.65757,0.06653
6427.58604,0.16893
6429.51451,0.22582
6431.44298,0.20323
6433.37145,0.12396
6435.29992,0.08814
6437.22838,0.11493
6439.15685,0.16672
6441.08532,0.22574
6443.01379,0.24602
6444.94226,0.19654
6446.87073,0.15304
6448.79920,0.14191
6450.72766,0.11457
6452.65613,0.06585
6454.58460,0.04555
6456.51307,0.07114
6458.44154,0.07670
6460.37001,0.05412
6462.29848,0.09369
6464.22695,0.16952
6466.15541,0.16001
6468.08388,0.11341
6470.01235,0.13900
6471.94082,0.15349
6473.86929,0.13043
6475.79776,0.13733
6477.72623,0.13415
6479.65469,0.13926
6481.58316,0.18030
6483.51163,0.17214
6485.44010,0.10943
6487.36857,0.03686
6489.29704,-0.02401
6491.22551,-0.05059
6493.15398,-0.05343
6495.08244,-0.04827
6497.01091,-0.02715
6498.93938,0.01468
6500.86785,0.05870
6502.79632,0.08814
6504.72479,0.10628
6506.65326,0.08929
6508.58172,0.05375
6510.51019,0.04157
6512.43866,0.03551
6514.36713,0.03397
6516.29560,0.02219
6518.22407,-0.00741
6520.15254,-0.00568
6522.08101,-0.00369
6524.00947,-0.03224
6525.93794,-0.01244
6527.86641,0.06015
6529.79488,0.08790
6531.72335,0.05929
6533.65182,0.05274
6535.58029,0.06040
6537.50875,0.03585
6539.43722,0.05440
6541.36569,0.13895
6543.29416,0.18327
6545.22263,0.16049
6547.15110,0.13485
6549.07957,0.13414
6551.00804,0.14639
6552.93650,0.13953
6554.86497,0.11379
6556.79344,0.10278
6558.72191,0.13416
6560.65038,0.22320
6562.57885,0.30941
6564.50732,0.28374
6566.43578,0.16818
6568.36425,0.07600
6570.29272,0.02301
6572.22119,0.01809
6574.14966,0.07051
6576.07813,0.11219
6578.00660,0.12373
6579.93507,0.15316
6581.86353,0.17643
6583.79200,0.16877
6585.72047,0.15772
6587.64894,0.10403
6589.57741,0.02275
6591.50588,-0.00408
6593.43435,-0.03516
6595.36281,-0.11055
6597.29128,-0.07748
6599.21975,0.08309
6601.14822,0.18778
6603.07669,0.14704
6605.00516,0.06382
6606.93363,0.03469
6608.86210,0.09107
6610.79056,0.15868
6612.71903,0.16090
6614.64750,0.13147
6616.57597,0.11289
6618.50444,0.10999
6620.43291,0.09607
6622.36138,0.04253
6624.28984,0.02371
6626.21831,0.11151
6628.14678,0.19430
6630.07525,0.12153
6632.00372,-0.00585
6633.93219,-0.05957
6635.86066,-0.02617
6637.78912,0.08419
6639.71759,0.14743
6641.64606,0.12835
6643.57453,0.11701
6645.50300,0.11065
6647.43147,0.10157
6649.35994,0.17008
6651.28841,0.24344
6653.21687,0.18019
6655.14534,0.04152
6657.07381,-0.00159
6659.00228,0.04197
6660.93075,0.03025
6662.85922,-0.04489
6664.78769,-0.11126
6666.71615,-0.12767
6668.64462,-0.08598
6670.57309,-0.01551
6672.50156,0.06828
6674.43003,0.11583
6676.35850,0.10133
6678.28697,0.10271
6680.21544,0.14393
6682.14390,0.16039
6684.07237,0.11001
6686.00084,0.02888
6687.92931,0.00564
6689.85778,0.08843
6691.78625,0.16907
6693.71472,0.14851
6695.64318,0.05859
6697.57165,-0.01269
6699.50012,-0.01304
6701.42859,0.07634
6703.35706,0.17000
6705.28553,0.12249
6707.21400,0.01099
6709.14247,-0.00958
6711.07093,0.05566
6712.99940,0.12982
6714.92787,0.14627
6716.85634,0.15103
6718.78481,0.21349
6720.71328,0.23996
6722.64175,0.14697
6724.57021,0.00943
6726.49868,-0.08882
6728.42715,-0.10687
6730.35562,-0.05717
6732.28409,-0.02501
6734.21256,-0.01352
6736.14103,0.02156
6738.06950,0.07257
6739.99796,0.10890
6741.92643,0.11165
6743.85490,0.11734
6745.78337,0.11248
6747.71184,0.05084
6749.64031,0.00001
6751.56878,0.01349
6753.49724,0.04870
6755.42571,0.10341
6757.35418,0.14989
6759.28265,0.14125
6761.21112,0.11044
6763.13959,0.08330
6765.06806,0.05864
6766.99653,0.06195
6768.92499,0.10099
6770.85346,0.14369
6772.78193,0.13468
6774.71040,0.03950
6776.63887,-0.08564
6778.56734,-0.14233
6780.49581,-0.11662
6782.42427,-0.04681
6784.35274,-0.00205
6786.28121,0.01579
6788.20968,0.06568
6790.13815,0.14459
6792.06662,0.15014
6793.99509,0.08135
6795.92355,0.06227
6797.85202,0.03435
6799.78049,-0.04533
6801.70896,-0.04366
6803.63743,0.01994
6805.56590,0.06425
6807.49437,0.13975
6809.42284,0.18991
6811.35130,0.19267
6813.27977,0.21155
6815.20824,0.21264
6817.13671,0.17518
6819.06518,0.10588
6820.99365,0.00147
6822.92212,-0.05049
6824.85058,0.00523
6826.77905,0.02846
6828.70752,-0.00070
6830.63599,0.07036
6832.56446,0.19720
6834.49293,0.21489
6836.42140,0.11391
6838.34987,0.02630
6840.27833,0.00503
6842.20680,-0.01165
6844.13527,-0.02339
6846.06374,0.01848
6847.99221,0.06059
6849.92068,0.01436
6851.84915,-0.05848
6853.77761,-0.08950
6855.70608,-0.06992
6857.63455,-0.00019
6859.56302,0.07057
6861.49149,0.06176
6863.41996,-0.02465
6865.34843,-0.08360
6867.27690,-0.09496
6869.20536,-0.08721
6871.13383,-0.01126
6873.06230,0.06562
6874.99077,0.01419
6876.91924,0.00613
6878.84771,0.14807
6880.77618,0.19584
6882.70464,0.03684
6884.63311,-0.10418
6886.56158,-0.08130
6888.49005,0.05879
6890.41852,0.15860
6892.34699,0.13022
6894.27546,0.08667
6896.20393,0.09264
6898.13239,0.11170
6900.06086,0.14108
6901.98933,0.10889
6903.91780,-0.03605
6905.84627,-0.16046
6907.77474,-0.19273
6909.70321,-0.21055
6911.63167,-0.18678
6913.56014,-0.07069
6915.48861,0.07880
6917.41708,0.16830
6919.34555,0.16936
6921.27402,0.16955
6923.20249,0.18577
6925.13096,0.15299
6927.05942,0.06548
6928.98789,-0.00384
6930.91636,-0.01320
6932.84483,0.01332
6934.77330,0.07618
6936.70177,0.16283
6938.63024,0.24268
6940.55870,0.23418
6942.48717,0.11534
6944.41564,-0.00296
6946.34411,-0.06092
6948.27258,-0.07187
6950.20105,-0.03024
6952.12952,0.08641
6954.05799,0.17638
6955.98645,0.12002
6957.91492,0.07445
6959.84339,0.13968
6961.77186,0.13019
6963.70033,0.03323
6965.62880,0.01505
6967.55727,0.08125
6969.48573,0.13284
6971.41420,0.13101
6973.34267,0.13103
6975.27114,0.14757
6977.19961,0.11639
6979.12808,0.07707
6981.05655,0.06270
6982.98501,0.00230
6984.91348,-0.08126
6986.84195,-0.07872
6988.77042,-0.05352
6990.69889,-0.02910
6992.62736,0.04202
6994.55583,0.10586
6996.48430,0.15713
6998.41276,0.20524
7000.34123,0.19471
7002.26970,0.18308
7004.19817,0.19446
7006.12664,0.15759
7008.05511,0.09767
7009.98358,0.01416
7011.91204,-0.09045
7013.84051,-0.09544
7015.76898,-0.03218
7017.69745,0.03315
7019.62592,0.15227
7021.55439,0.22897
7023.48286,0.17742
7025.41133,0.12701
7027.33979,0.19099
7029.26826,0.26072
7031.19673,0.18572
7033.12520,0.00986
7035.05367,-0.13856
7036.98214,-0.16266
7038.91061,-0.13458
7040.83907,-0.12178
7042.76754,-0.09210
7044.69601,-0.04356
7046.62448,0.00381
7048.55295,0.10844
7050.48142,0.24611
7052.40989,0.29197
7054.33836,0.21300
7056.26682,0.13962
7058.19529,0.12792
7060.12376,0.10485
7062.05223,0.06982
7063.98070,0.05400
7065.90917,0.08204
7067.83764,0.13255
7069.76610,0.12970
7071.69457,0.05988
7073.62304,0.00686
7075.55151,0.00852
7077.47998,0.00118
7079.40845,-0.05256
7081.33692,-0.03867
7083.26539,0.02616
7085.19385,0.01424
7087.12232,-0.02252
7089.05079,-0.03659
7090.97926,-0.02940
7092.90773,0.03000
7094.83620,0.11759
7096.76467,0.12114
7098.69313,-0.00797
7100.62160,-0.08718
7102.55007,-0.01441
7104.47854,0.07648
7106.40701,0.03667
7108.33548,-0.05336
7110.26395,-0.01596
7112.19242,0.14494
7114.12088,0.27333
7116.04935,0.29589
7117.97782,0.26402
7119.90629,0.21738
7121.83476,0.13921
7123.76323,0.04388
7125.69170,-0.00075
7127.62016,0.01199
7129.54863,0.03753
7131.47710,0.10444
7133.40557,0.18001
7135.33404,0.21531
7137.26251,0.21008
7139.19098,0.07892
7141.11944,-0.09218
7143.04791,-0.08795
7144.97638,0.04408
7146.90485,0.12400
7148.83332,0.12697
7150.76179,0.15159
7152.69026,0.16459
7154.61873,0.09213
7156.54719,0.10414
7158.47566,0.21293
7160.40413,0.21032
7162.33260,0.07749
7164.26107,-0.03936
7166.18954,-0.08036
7168.11801,-0.06254
7170.04647,-0.03397
7171.97494,-0.04756
7173.90341,-0.04599
7175.83188,0.00956
7177.76035,0.04651
7179.68882,0.02867
7181.61729,-0.08571
7183.54576,-0.21373
7185.47422,-0.12901
7187.40269,0.02494
7189.33116,0.06877
7191.25963,0.10079
7193.18810,0.18309
7195.11657,0.15284
7197.04504,0.05070
7198.97350,-0.00002
7200.90197,-0.08355
7202.83044,-0.21882
7204.75891,-0.17210
7206.68738,0.08343
7208.61585,0.23513
7210.54432,0.19055
7212.47279,0.01320
7214.40125,-0.11957
7216.32972,-0.05192
7218.25819,0.21876
7220.18666,0.34508
7222.11513,0.20929
7224.04360,0.04098
7225.97207,0.01801
7227.90053,0.08382
7229.82900,0.11465
7231.75747,0.18461
7233.68594,0.19538
7235.61441,0.03219
7237.54288,-0.10324
7239.47135,-0.00880
7241.39982,0.12702
7243.32828,0.07607
7245.25675,0.08097
7247.18522,0.20741
7249.11369,0.20080
7251.04216,0.03868
7252.97063,-0.02137
7254.89910,0.07711
7256.82756,0.11048
7258.75603,0.07253
7260.68450,0.04492
7262.61297,-0.00434
7264.54144,-0.10475
7266.46991,-0.06219
7268.39838,0.11026
7270.32685,0.15591
7272.25531,0.06185
7274.18378,0.13585
7276.11225,0.21551
7278.04072,0.12636
7279.96919,0.02255
7281.89766,0.02161
7283.82613,0.01608
7285.75459,0.03046
7287.68306,0.05376
7289.61153,0.00019
7291.54000,-0.05082
7293.46847,0.01677
7295.39694,0.10022
7297.32541,0.08523
7299.25387,0.08603
7301.18234,0.19206
7303.11081,0.23397
7305.03928,0.12725
7306.96775,0.07205
7308.89622,0.13408
7310.82469,0.15861
7312.75316,0.18724
7314.68162,0.21596
7316.61009,0.10040
7318.53856,-0.04337
7320.46703,-0.06484
7322.39550,-0.02382
7324.32397,0.05795
7326.25244,0.14515
7328.18090,0.13095
7330.10937,0.00398
7332.03784,-0.01571
7333.96631,0.06466
7335.89478,0.09808
7337.82325,0.12760
7339.75172,0.28058
7341.68019,0.37131
7343.60865,0.26689
7345.53712,0.17083
7347.46559,0.17714
7349.39406,0.22229
7351.32253,0.22540
7353.25100,0.15792
7355.17947,0.08678
7357.10793,0.13587
7359.03640,0.31607
7360.96487,0.38371
7362.89334,0.20079
7364.82181,0.01954
7366.75028,0.05612
7368.67875,0.13376
7370.60722,0.13382
7372.53568,0.14583
7374.46415,0.16020
7376.39262,0.11355
7378.32109,0.09034
7380.24956,0.12906
7382.17803,0.13941
7384.10650,0.08236
7386.03496,0.04982
7387.96343,0.01627
7389.89190,-0.02542
7391.82037,0.03259
7393.74884,0.07498
7395.67731,-0.01283
7397.60578,-0.01333
7399.53425,0.13412
7401.46271,0.27944
7403.39118,0.35868
7405.31965,0.33563
7407.24812,0.22567
7409.17659,0.08172
7411.10506,-0.02413
7413.03353,0.02370
7414.96199,0.16046
7416.89046,0.21327
7418.81893,0.17425
7420.74740,0.12706
7422.67587,0.09537
7424.60434,0.08509
7426.53281,0.07524
7428.46128,0.11312
7430.38974,0.23153
7432.31821,0.31910
7434.24668,0.30396
7436.17515,0.26383
7438.10362,0.25027
7440.03209,0.18098
7441.96056,0.10680
7443.88902,0.11762
7445.81749,0.13266
7447.74596,0.11090
7449.67443,0.14945
7451.60290,0.22216
7453.53137,0.16141
7455.45984,0.04911
7457.38831,-0.01227
7459.31677,-0.03600
7461.24524,-0.09173
7463.17371,-0.17063
7465.10218,-0.13118
7467.03065,-0.00996
7468.95912,0.07925
7470.88759,0.17849
7472.81605,0.22712
7474.74452,0.21762
7476.67299,0.24081
7478.60146,0.25934
7480.52993,0.26900
7482.45840,0.22030
7484.38687,0.01915
7486.31533,-0.13736
7488.24380,0.00600
7490.17227,0.22543
7492.10074,0.20997
7494.02921,0.12694
7495.95768,0.11418
7497.88615,0.18923
