399.19301,0.08413
401.12148,2.74445
403.04995,2.15449
404.97842,0.96738
406.90689,0.08914
408.83536,0.06590
410.76382,1.32383
412.69229,3.70473
414.62076,6.62517
416.54923,8.85750
418.47770,7.59545
420.40617,3.17123
422.33464,0.63453
424.26311,-0.28329
426.19157,-0.44555
428.12004,-0.28799
430.04851,0.01015
431.97698,0.23397
433.90545,0.16173
435.83392,-0.06373
437.76239,-0.17725
439.69085,-0.04343
441.61932,0.15684
443.54779,0.09984
445.47626,-0.10094
447.40473,-0.16557
449.33320,-0.09142
451.26167,0.00915
453.19013,0.01535
455.11860,-0.05551
457.04707,-0.14458
458.97554,-0.18328
460.90401,-0.16518
462.83248,-0.19073
464.76095,-0.20293
466.68942,-0.14698
468.61788,-0.09259
470.54635,-0.12276
472.47482,-0.43434
474.40329,-0.89800
476.33176,-0.65599
478.26023,-0.20244
480.18870,-0.00510
482.11716,0.02716
484.04563,0.01706
485.97410,0.01313
487.90257,0.05420
489.83104,0.10235
491.75951,0.08107
493.68798,0.01986
495.61645,0.04765
497.54491,0.14167
499.47338,0.16968
501.40185,0.13444
503.33032,0.09826
505.25879,0.08576
507.18726,0.08044
509.11573,0.05250
511.04419,0.04988
512.97266,0.10359
514.90113,0.14956
516.82960,0.15217
518.75807,0.13467
520.68654,0.11586
522.61501,0.10428
524.54348,0.11871
526.47194,0.13830
528.40041,0.13215
530.32888,0.14177
532.25735,0.15681
534.18582,0.13906
536.11429,0.11463
538.04276,0.12054
539.97122,0.13987
541.89969,0.15319
543.82816,0.15751
545.75663,0.14894
547.68510,0.11006
549.61357,0.05608
551.54204,0.02476
553.47051,0.02171
555.39897,0.07673
557.32744,0.15653
559.25591,0.17352
561.18438,0.14317
563.11285,0.11454
565.04132,0.09894
566.96979,0.11076
568.89825,0.12148
570.82672,0.09676
572.75519,0.06779
574.68366,0.07990
576.61213,0.14387
578.54060,0.19662
580.46907,0.18371
582.39754,0.13969
584.32600,0.12242
586.25447,0.12936
588.18294,0.11625
590.11141,0.10020
592.03988,0.12309
593.96835,0.14527
595.89682,0.14008
597.82528,0.12634
599.75375,0.11691
601.68222,0.13202
603.61069,0.15552
605.53916,0.14785
607.46763,0.11810
609.39610,0.09646
611.32456,0.09984
613.25303,0.12822
615.18150,0.16156
617.10997,0.16508
619.03844,0.13793
620.96691,0.12815
622.89538,0.13502
624.82385,0.12654
626.75231,0.12186
628.68078,0.13412
630.60925,0.13699
632.53772,0.13149
634.46619,0.14093
636.39466,0.15980
638.32313,0.16429
640.25159,0.13827
642.18006,0.10365
644.10853,0.09255
646.03700,0.10854
647.96547,0.13721
649.89394,0.14169
651.82241,0.12608
653.75088,0.12988
655.67934,0.13598
657.60781,0.12714
659.53628,0.12728
661.46475,0.14163
663.39322,0.15504
665.32169,0.15908
667.25016,0.15193
669.17862,0.14346
671.10709,0.14493
673.03556,0.14590
674.96403,0.13942
676.89250,0.12772
678.82097,0.12121
680.74944,0.12492
682.67791,0.12983
684.60637,0.12381
686.53484,0.11414
688.46331,0.12402
690.39178,0.15527
692.32025,0.17717
694.24872,0.17406
696.17719,0.15734
698.10565,0.13885
700.03412,0.13343
701.96259,0.14167
703.89106,0.14675
705.81953,0.15081
707.74800,0.15629
709.67647,0.13059
711.60494,0.08907
713.53340,0.09744
715.46187,0.13976
717.39034,0.15991
719.31881,0.15808
721.24728,0.15828
723.17575,0.16324
725.10422,0.15743
727.03268,0.14312
728.96115,0.14148
730.88962,0.15696
732.81809,0.16806
734.74656,0.16391
736.67503,0.15008
738.60350,0.13581
740.53197,0.13363
742.46043,0.13804
744.38890,0.13967
746.31737,0.14081
748.24584,0.14226
750.17431,0.14321
752.10278,0.14683
754.03125,0.15505
755.95971,0.16169
757.88818,0.16266
759.81665,0.15857
761.74512,0.14692
763.67359,0.13059
765.60206,0.12357
767.53053,0.13082
769.45900,0.14395
771.38746,0.15488
773.31593,0.15634
775.24440,0.15426
777.17287,0.16104
779.10134,0.16976
781.02981,0.16570
782.95828,0.15349
784.88674,0.15367
786.81521,0.15985
788.74368,0.14459
790.67215,0.11752
792.60062,0.10709
794.52909,0.11597
796.45756,0.13121
798.38602,0.14419
800.31449,0.14875
802.24296,0.14499
804.17143,0.13650
806.09990,0.12455
808.02837,0.12304
809.95684,0.14481
811.88531,0.17180
813.81377,0.17455
815.74224,0.15788
817.67071,0.15310
819.59918,0.16225
821.52765,0.16201
823.45612,0.15043
825.38459,0.13753
827.31305,0.12614
829.24152,0.12520
831.16999,0.13799
833.09846,0.15447
835.02693,0.16282
836.95540,0.15852
838.88387,0.15076
840.81234,0.14956
842.74080,0.15238
844.66927,0.15226
846.59774,0.15220
848.52621,0.15687
850.45468,0.16340
852.38315,0.17234
854.31162,0.18300
856.24008,0.18427
858.16855,0.16992
860.09702,0.15315
862.02549,0.14987
863.95396,0.15372
865.88243,0.15626
867.81090,0.18500
869.73937,0.24116
871.66783,0.25444
873.59630,0.21218
875.52477,0.17519
877.45324,0.15925
879.38171,0.15460
881.31018,0.16334
883.23865,0.17753
885.16711,0.18327
887.09558,0.17509
889.02405,0.15949
890.95252,0.14589
892.88099,0.14134
894.80946,0.14614
896.73793,0.15238
898.66640,0.15288
900.59486,0.14977
902.52333,0.14758
904.45180,0.14573
906.38027,0.14698
908.30874,0.15395
910.23721,0.15805
912.16568,0.15059
914.09414,0.14071
916.02261,0.14174
917.95108,0.15021
919.87955,0.15772
921.80802,0.16065
923.73649,0.15721
925.66496,0.15248
927.59343,0.15158
929.52189,0.15444
931.45036,0.15871
933.37883,0.15909
935.30730,0.15500
937.23577,0.14914
939.16424,0.14594
941.09271,0.15125
943.02117,0.15812
944.94964,0.15596
946.87811,0.14644
948.80658,0.13824
950.73505,0.14099
952.66352,0.15320
954.59199,0.15891
956.52045,0.15684
958.44892,0.15936
960.37739,0.16361
962.30586,0.16317
964.23433,0.16134
966.16280,0.16232
968.09127,0.16538
970.01974,0.16585
971.94820,0.16321
973.87667,0.16286
975.80514,0.16316
977.73361,0.16099
979.66208,0.15845
981.59055,0.15256
983.51902,0.14479
985.44748,0.14497
987.37595,0.15348
989.30442,0.15970
991.23289,0.16158
993.16136,0.16355
995.08983,0.16285
997.01830,0.15953
998.94677,0.15868
1000.87523,0.16352
1002.80370,0.17162
1004.73217,0.17790
1006.66064,0.17906
1008.58911,0.17383
1010.51758,0.16710
1012.44605,0.16266
1014.37451,0.15726
1016.30298,0.15135
1018.23145,0.15147
1020.15992,0.15786
1022.08839,0.16602
1024.01686,0.17280
1025.94533,0.17889
1027.87380,0.18514
1029.80226,0.18327
1031.73073,0.17638
1033.65920,0.17883
1035.58767,0.18653
1037.51614,0.18726
1039.44461,0.17925
1041.37308,0.16716
1043.30154,0.16052
1045.23001,0.16422
1047.15848,0.16886
1049.08695,0.16555
1051.01542,0.15897
1052.94389,0.16045
1054.87236,0.17010
1056.80083,0.17544
1058.72929,0.17300
1060.65776,0.17468
1062.58623,0.18128
1064.51470,0.17524
1066.44317,0.16014
1068.37164,0.15691
1070.30011,0.16562
1072.22857,0.17495
1074.15704,0.17986
1076.08551,0.17888
1078.01398,0.17517
1079.94245,0.17570
1081.87092,0.17921
1083.79939,0.17718
1085.72786,0.16669
1087.65632,0.16065
1089.58479,0.16916
1091.51326,0.18030
1093.44173,0.18338
1095.37020,0.17803
1097.29867,0.17080
1099.22714,0.17238
1101.15560,0.17955
1103.08407,0.18620
1105.01254,0.19187
1106.94101,0.19238
1108.86948,0.18946
1110.79795,0.18809
1112.72642,0.18605
1114.65489,0.18083
1116.58335,0.17537
1118.51182,0.17663
1120.44029,0.18589
1122.36876,0.19365
1124.29723,0.19303
1126.22570,0.18651
1128.15417,0.17629
1130.08263,0.16691
1132.01110,0.16399
1133.93957,0.16250
1135.86804,0.16185
1137.79651,0.16787
1139.72498,0.17224
1141.65345,0.16585
1143.58191,0.15579
1145.51038,0.15213
1147.43885,0.15611
1149.36732,0.16277
1151.29579,0.16801
1153.22426,0.17244
1155.15273,0.17552
1157.08120,0.17708
1159.00966,0.17988
1160.93813,0.18286
1162.86660,0.18312
1164.79507,0.17936
1166.72354,0.17349
1168.65201,0.17102
1170.58048,0.17390
1172.50894,0.17530
1174.43741,0.17171
1176.36588,0.17074
1178.29435,0.17452
1180.22282,0.17723
1182.15129,0.17557
1184.07976,0.17156
1186.00823,0.17034
1187.93669,0.17176
1189.86516,0.17128
1191.79363,0.16892
1193.72210,0.16926
1195.65057,0.17411
1197.57904,0.18032
1199.50751,0.18488
1201.43597,0.18716
1203.36444,0.18568
1205.29291,0.18049
1207.22138,0.17560
1209.14985,0.17327
1211.07832,0.17457
1213.00679,0.17906
1214.93526,0.18180
1216.86372,0.18049
1218.79219,0.17768
1220.72066,0.17814
1222.64913,0.18389
1224.57760,0.18778
1226.50607,0.18446
1228.43454,0.18029
1230.36300,0.18084
1232.29147,0.18192
1234.21994,0.17999
1236.14841,0.17974
1238.07688,0.18319
1240.00535,0.18463
1241.93382,0.18313
1243.86229,0.18376
1245.79075,0.18613
1247.71922,0.18696
1249.64769,0.18636
1251.57616,0.18456
1253.50463,0.18125
1255.43310,0.17872
1257.36157,0.17919
1259.29003,0.17951
1261.21850,0.17954
1263.14697,0.18365
1265.07544,0.18798
1267.00391,0.18828
1268.93238,0.18855
1270.86085,0.19068
1272.78932,0.19189
1274.71778,0.19129
1276.64625,0.19030
1278.57472,0.18865
1280.50319,0.18476
1282.43166,0.18041
1284.36013,0.17860
1286.28860,0.18019
1288.21706,0.18521
1290.14553,0.18818
1292.07400,0.18573
1294.00247,0.18656
1295.93094,0.19148
1297.85941,0.19080
1299.78788,0.18573
1301.71634,0.18153
1303.64481,0.17808
1305.57328,0.17799
1307.50175,0.18315
1309.43022,0.18760
1311.35869,0.18784
1313.28716,0.18800
1315.21563,0.18954
1317.14409,0.18814
1319.07256,0.18440
1321.00103,0.18593
1322.92950,0.18975
1324.85797,0.18866
1326.78644,0.18536
1328.71491,0.18372
1330.64337,0.18568
1332.57184,0.18912
1334.50031,0.18988
1336.42878,0.18964
1338.35725,0.19071
1340.28572,0.19077
1342.21419,0.20055
1344.14266,0.21817
1346.07112,0.21291
1347.99959,0.19224
1349.92806,0.18647
1351.85653,0.18721
1353.78500,0.18490
1355.71347,0.18197
1357.64194,0.18120
1359.57040,0.18681
1361.49887,0.19502
1363.42734,0.19629
1365.35581,0.19240
1367.28428,0.19205
1369.21275,0.19302
1371.14122,0.19386
1373.06969,0.19893
1374.99815,0.20294
1376.92662,0.19907
1378.85509,0.19273
1380.78356,0.18800
1382.71203,0.18786
1384.64050,0.19352
1386.56897,0.19923
1388.49743,0.19977
1390.42590,0.19884
1392.35437,0.20293
1394.28284,0.21162
1396.21131,0.21272
1398.13978,0.20313
1400.06825,0.19588
1401.99672,0.19594
1403.92518,0.19805
1405.85365,0.19696
1407.78212,0.19294
1409.71059,0.18987
1411.63906,0.18838
1413.56753,0.19137
1415.49600,0.20074
1417.42446,0.21006
1419.35293,0.20758
1421.28140,0.19856
1423.20987,0.19484
1425.13834,0.19469
1427.06681,0.19822
1428.99528,0.20169
1430.92375,0.19737
1432.85221,0.19232
1434.78068,0.19627
1436.70915,0.20432
1438.63762,0.20406
1440.56609,0.19863
1442.49456,0.19431
1444.42303,0.19608
1446.35149,0.20301
1448.27996,0.20536
1450.20843,0.20261
1452.13690,0.20340
1454.06537,0.21053
1455.99384,0.22406
1457.92231,0.22645
1459.85077,0.21289
1461.77924,0.20959
1463.70771,0.21462
1465.63618,0.21412
1467.56465,0.20686
1469.49312,0.20731
1471.42159,0.22192
1473.35006,0.23391
1475.27852,0.22310
1477.20699,0.20737
1479.13546,0.20031
1481.06393,0.19953
1482.99240,0.19852
1484.92087,0.20047
1486.84934,0.21096
1488.77780,0.22437
1490.70627,0.22378
1492.63474,0.21477
1494.56321,0.21372
1496.49168,0.22125
1498.42015,0.22319
1500.34862,0.22269
1502.27709,0.23281
1504.20555,0.24813
1506.13402,0.26213
1508.06249,0.25665
1509.99096,0.23417
1511.91943,0.22053
1513.84790,0.22206
1515.77637,0.23105
1517.70483,0.23728
1519.63330,0.24612
1521.56177,0.25763
1523.49024,0.25147
1525.41871,0.23720
1527.34718,0.22826
1529.27565,0.22637
1531.20412,0.23058
1533.13258,0.23373
1535.06105,0.22915
1536.98952,0.23111
1538.91799,0.24897
1540.84646,0.26246
1542.77493,0.24705
1544.70340,0.22748
1546.63186,0.21668
1548.56033,0.21624
1550.48880,0.21936
1552.41727,0.22290
1554.34574,0.22867
1556.27421,0.23864
1558.20268,0.25178
1560.13115,0.23474
1562.05961,0.21289
1563.98808,0.20753
1565.91655,0.21154
1567.84502,0.21888
1569.77349,0.22117
1571.70196,0.21435
1573.63043,0.21014
1575.55889,0.20943
1577.48736,0.20344
1579.41583,0.19819
1581.34430,0.19839
1583.27277,0.19871
1585.20124,0.19509
1587.12971,0.19243
1589.05818,0.19685
1590.98664,0.20416
1592.91511,0.20697
1594.84358,0.20475
1596.77205,0.20018
1598.70052,0.19631
1600.62899,0.19372
1602.55746,0.19067
1604.48592,0.18983
1606.41439,0.19423
1608.34286,0.19906
1610.27133,0.20002
1612.19980,0.20201
1614.12827,0.20955
1616.05674,0.21906
1617.98521,0.21906
1619.91367,0.21600
1621.84214,0.22039
1623.77061,0.22555
1625.69908,0.22128
1627.62755,0.21213
1629.55602,0.20589
1631.48449,0.20650
1633.41295,0.21547
1635.34142,0.23254
1637.26989,0.23338
1639.19836,0.22033
1641.12683,0.21496
1643.05530,0.22006
1644.98377,0.23491
1646.91223,0.25015
1648.84070,0.24873
1650.76917,0.25040
1652.69764,0.26413
1654.62611,0.25172
1656.55458,0.22994
1658.48305,0.22413
1660.41152,0.23134
1662.33998,0.23826
1664.26845,0.23132
1666.19692,0.22633
1668.12539,0.23312
1670.05386,0.23867
1671.98233,0.23420
1673.91080,0.22907
1675.83926,0.22490
1677.76773,0.22437
1679.69620,0.22905
1681.62467,0.23749
1683.55314,0.24510
1685.48161,0.23801
1687.41008,0.22756
1689.33855,0.22246
1691.26701,0.22039
1693.19548,0.22484
1695.12395,0.23890
1697.05242,0.25230
1698.98089,0.24962
1700.90936,0.23475
1702.83783,0.23006
1704.76629,0.23618
1706.69476,0.23499
1708.62323,0.22328
1710.55170,0.21508
1712.48017,0.21611
1714.40864,0.22540
1716.33711,0.23575
1718.26558,0.22970
1720.19404,0.21465
1722.12251,0.20653
1724.05098,0.20359
1725.97945,0.20373
1727.90792,0.20899
1729.83639,0.21656
1731.76486,0.22259
1733.69332,0.22653
1735.62179,0.22357
1737.55026,0.21855
1739.47873,0.21476
1741.40720,0.21358
1743.33567,0.21629
1745.26414,0.21990
1747.19261,0.22433
1749.12107,0.22982
1751.04954,0.22637
1752.97801,0.21536
1754.90648,0.20972
1756.83495,0.20908
1758.76342,0.20981
1760.69189,0.21273
1762.62035,0.21258
1764.54882,0.20908
1766.47729,0.21049
1768.40576,0.21488
1770.33423,0.22075
1772.26270,0.22812
1774.19117,0.22402
1776.11964,0.21517
1778.04810,0.21297
1779.97657,0.21410
1781.90504,0.21270
1783.83351,0.20999
1785.76198,0.20785
1787.69045,0.20845
1789.61892,0.21469
1791.54738,0.22143
1793.47585,0.22032
1795.40432,0.21688
1797.33279,0.21580
1799.26126,0.21712
1801.18973,0.21807
1803.11820,0.21356
1805.04666,0.20728
1806.97513,0.20552
1808.90360,0.20889
1810.83207,0.21182
1812.76054,0.20889
1814.68901,0.20414
1816.61748,0.20118
1818.54595,0.19220
1820.47441,0.18041
1822.40288,0.18830
1824.33135,0.21079
1826.25982,0.22084
1828.18829,0.22397
1830.11676,0.22472
1832.04523,0.21579
1833.97369,0.20942
1835.90216,0.21108
1837.83063,0.21456
1839.75910,0.21585
1841.68757,0.21830
1843.61604,0.22109
1845.54451,0.21773
1847.47298,0.21196
1849.40144,0.20931
1851.32991,0.20782
1853.25838,0.20438
1855.18685,0.20153
1857.11532,0.20222
1859.04379,0.20470
1860.97226,0.20696
1862.90072,0.20766
1864.82919,0.20843
1866.75766,0.21272
1868.68613,0.21671
1870.61460,0.21505
1872.54307,0.21262
1874.47154,0.21200
1876.40001,0.21134
1878.32847,0.20894
1880.25694,0.20591
1882.18541,0.20506
1884.11388,0.20738
1886.04235,0.21200
1887.97082,0.21531
1889.89929,0.21363
1891.82775,0.21079
1893.75622,0.21053
1895.68469,0.21010
1897.61316,0.20960
1899.54163,0.20938
1901.47010,0.20767
1903.39857,0.20634
1905.32704,0.20691
1907.25550,0.20921
1909.18397,0.21148
1911.11244,0.20985
1913.04091,0.20564
1914.96938,0.20437
1916.89785,0.20746
1918.82632,0.21110
1920.75478,0.21325
1922.68325,0.21341
1924.61172,0.20985
1926.54019,0.20614
1928.46866,0.20619
1930.39713,0.20852
1932.32560,0.21081
1934.25407,0.21170
1936.18253,0.20915
1938.11100,0.20488
1940.03947,0.20451
1941.96794,0.20793
1943.89641,0.21005
1945.82488,0.21119
1947.75335,0.21175
1949.68181,0.20869
1951.61028,0.20522
1953.53875,0.20590
1955.46722,0.20713
1957.39569,0.20602
1959.32416,0.20622
1961.25263,0.20844
1963.18110,0.20934
1965.10956,0.21041
1967.03803,0.21242
1968.96650,0.21068
1970.89497,0.20689
1972.82344,0.20648
1974.75191,0.20849
1976.68038,0.21012
1978.60884,0.21184
1980.53731,0.21351
1982.46578,0.21361
1984.39425,0.21277
1986.32272,0.21186
1988.25119,0.20993
1990.17966,0.20817
1992.10812,0.20812
1994.03659,0.20671
1995.96506,0.20343
1997.89353,0.20297
1999.82200,0.20495
2001.75047,0.20528
2003.67894,0.20471
2005.60741,0.20462
2007.53587,0.20394
2009.46434,0.20322
2011.39281,0.20496
2013.32128,0.20927
2015.24975,0.21212
2017.17822,0.21068
2019.10669,0.20775
2021.03515,0.20662
2022.96362,0.20635
2024.89209,0.20500
2026.82056,0.20302
2028.74903,0.20204
2030.67750,0.20254
2032.60597,0.20495
2034.53444,0.20671
2036.46290,0.20593
2038.39137,0.20640
2040.31984,0.20745
2042.24831,0.20682
2044.17678,0.20652
2046.10525,0.20628
2048.03372,0.20648
2049.96218,0.20757
2051.89065,0.20666
2053.81912,0.20473
2055.74759,0.20682
2057.67606,0.21005
2059.60453,0.20867
2061.53300,0.20632
2063.46147,0.20655
2065.38993,0.20652
2067.31840,0.20540
2069.24687,0.20558
2071.17534,0.20559
2073.10381,0.20429
2075.03228,0.20410
2076.96075,0.20406
2078.88921,0.20334
2080.81768,0.20442
2082.74615,0.20687
2084.67462,0.20665
2086.60309,0.20405
2088.53156,0.20423
2090.46003,0.20650
2092.38850,0.20683
2094.31696,0.20627
2096.24543,0.20663
2098.17390,0.20731
2100.10237,0.20808
2102.03084,0.20871
2103.95931,0.20875
2105.88778,0.20920
2107.81624,0.21014
2109.74471,0.21001
2111.67318,0.20919
2113.60165,0.20867
2115.53012,0.20824
2117.45859,0.20849
2119.38706,0.20984
2121.31553,0.21000
2123.24399,0.20861
2125.17246,0.20919
2127.10093,0.21234
2129.02940,0.21478
2130.95787,0.21414
2132.88634,0.21203
2134.81481,0.21098
2136.74327,0.20880
2138.67174,0.20527
2140.60021,0.20508
2142.52868,0.20772
2144.45715,0.21083
2146.38562,0.21412
2148.31409,0.21534
2150.24255,0.21489
2152.17102,0.21404
2154.09949,0.21176
2156.02796,0.20940
2157.95643,0.20791
2159.88490,0.20556
2161.81337,0.20355
2163.74184,0.20478
2165.67030,0.20766
2167.59877,0.20949
2169.52724,0.21017
2171.45571,0.20909
2173.38418,0.20701
2175.31265,0.20682
2177.24112,0.20827
2179.16958,0.20962
2181.09805,0.21069
2183.02652,0.20964
2184.95499,0.20609
2186.88346,0.20505
2188.81193,0.20833
2190.74040,0.21081
2192.66887,0.20914
2194.59733,0.20627
2196.52580,0.20705
2198.45427,0.21051
2200.38274,0.21172
2202.31121,0.21073
2204.23968,0.21081
2206.16815,0.21068
2208.09661,0.20866
2210.02508,0.20800
2211.95355,0.21002
2213.88202,0.21212
2215.81049,0.21364
2217.73896,0.21368
2219.66743,0.21054
2221.59590,0.20670
2223.52436,0.20504
2225.45283,0.20504
2227.38130,0.20541
2229.30977,0.20606
2231.23824,0.20741
2233.16671,0.20781
2235.09518,0.20713
2237.02364,0.20668
2238.95211,0.20623
2240.88058,0.20642
2242.80905,0.20655
2244.73752,0.20710
2246.66599,0.21038
2248.59446,0.21258
2250.52293,0.21048
2252.45139,0.20856
2254.37986,0.20895
2256.30833,0.20948
2258.23680,0.21054
2260.16527,0.21209
2262.09374,0.21218
2264.02221,0.21050
2265.95067,0.20867
2267.87914,0.20823
2269.80761,0.20896
2271.73608,0.21028
2273.66455,0.21091
2275.59302,0.20920
2277.52149,0.20713
2279.44996,0.20663
2281.37842,0.20620
2283.30689,0.20608
2285.23536,0.20653
2287.16383,0.20503
2289.09230,0.20192
2291.02077,0.20031
2292.94924,0.20104
2294.87770,0.20154
2296.80617,0.19994
2298.73464,0.19910
2300.66311,0.19968
2302.59158,0.19959
2304.52005,0.20021
2306.44852,0.20153
2308.37699,0.20327
2310.30545,0.20622
2312.23392,0.20540
2314.16239,0.19898
2316.09086,0.19300
2318.01933,0.19221
2319.94780,0.19817
2321.87627,0.20296
2323.80473,0.19846
2325.73320,0.19421
2327.66167,0.19863
2329.59014,0.20660
2331.51861,0.20879
2333.44708,0.20151
2335.37555,0.18995
2337.30401,0.18332
2339.23248,0.18528
2341.16095,0.18938
2343.08942,0.19035
2345.01789,0.18925
2346.94636,0.19003
2348.87483,0.19232
2350.80330,0.19354
2352.73176,0.19286
2354.66023,0.19315
2356.58870,0.19774
2358.51717,0.20554
2360.44564,0.20896
2362.37411,0.19672
2364.30258,0.18119
2366.23104,0.17758
2368.15951,0.18481
2370.08798,0.19863
2372.01645,0.20395
2373.94492,0.19980
2375.87339,0.20038
2377.80186,0.20447
2379.73033,0.20306
2381.65879,0.19927
2383.58726,0.20081
2385.51573,0.20551
2387.44420,0.20674
2389.37267,0.20577
2391.30114,0.20631
2393.22961,0.20654
2395.15807,0.20606
2397.08654,0.20727
2399.01501,0.20861
2400.94348,0.20762
2402.87195,0.20545
2404.80042,0.20466
2406.72889,0.20640
2408.65736,0.20856
2410.58582,0.20897
2412.51429,0.20872
2414.44276,0.20833
2416.37123,0.20816
2418.29970,0.20925
2420.22817,0.21106
2422.15664,0.21209
2424.08510,0.21110
2426.01357,0.20932
2427.94204,0.20927
2429.87051,0.21013
2431.79898,0.20932
2433.72745,0.20781
2435.65592,0.20817
2437.58439,0.21012
2439.51285,0.21181
2441.44132,0.21234
2443.36979,0.21209
2445.29826,0.21077
2447.22673,0.20813
2449.15520,0.20575
2451.08367,0.20491
2453.01213,0.20426
2454.94060,0.20372
2456.86907,0.20617
2458.79754,0.20857
2460.72601,0.20676
2462.65448,0.20497
2464.58295,0.20581
2466.51142,0.20791
2468.43988,0.21043
2470.36835,0.21084
2472.29682,0.20952
2474.22529,0.20936
2476.15376,0.20901
2478.08223,0.20714
2480.01070,0.20664
2481.93916,0.20908
2483.86763,0.21215
2485.79610,0.21422
2487.72457,0.21519
2489.65304,0.21567
2491.58151,0.21544
2493.50998,0.21317
2495.43844,0.21122
2497.36691,0.21208
2499.29538,0.21356
2501.22385,0.21309
2503.15232,0.21070
2505.08079,0.20869
2507.00926,0.20851
2508.93773,0.20955
2510.86619,0.21069
2512.79466,0.21156
2514.72313,0.21304
2516.65160,0.21477
2518.58007,0.21494
2520.50854,0.21312
2522.43701,0.21075
2524.36547,0.20946
2526.29394,0.20986
2528.22241,0.21129
2530.15088,0.21236
2532.07935,0.21272
2534.00782,0.21336
2535.93629,0.21416
2537.86476,0.21405
2539.79322,0.21201
2541.72169,0.20930
2543.65016,0.20916
2545.57863,0.21068
2547.50710,0.21267
2549.43557,0.21493
2551.36404,0.21457
2553.29250,0.21253
2555.22097,0.21189
2557.14944,0.21187
2559.07791,0.21022
2561.00638,0.20789
2562.93485,0.20956
2564.86332,0.21420
2566.79179,0.21492
2568.72025,0.21272
2570.64872,0.21234
2572.57719,0.21242
2574.50566,0.21106
2576.43413,0.20933
2578.36260,0.21021
2580.29107,0.21454
2582.21953,0.21820
2584.14800,0.21839
2586.07647,0.21693
2588.00494,0.21629
2589.93341,0.21700
2591.86188,0.21728
2593.79035,0.21628
2595.71882,0.21496
2597.64728,0.21198
2599.57575,0.20816
2601.50422,0.20722
2603.43269,0.20935
2605.36116,0.21177
2607.28963,0.21112
2609.21810,0.21049
2611.14656,0.21557
2613.07503,0.22114
2615.00350,0.22056
2616.93197,0.21732
2618.86044,0.21610
2620.78891,0.21561
2622.71738,0.21355
2624.64585,0.21225
2626.57431,0.21392
2628.50278,0.21595
2630.43125,0.21679
2632.35972,0.21693
2634.28819,0.21584
2636.21666,0.21372
2638.14513,0.21179
2640.07359,0.21160
2642.00206,0.21415
2643.93053,0.21943
2645.85900,0.22465
2647.78747,0.22498
2649.71594,0.22113
2651.64441,0.21803
2653.57288,0.21795
2655.50134,0.21938
2657.42981,0.21946
2659.35828,0.21761
2661.28675,0.21500
2663.21522,0.21400
2665.14369,0.21725
2667.07216,0.22258
2669.00062,0.22462
2670.92909,0.22279
2672.85756,0.22152
2674.78603,0.22173
2676.71450,0.22031
2678.64297,0.21842
2680.57144,0.22037
2682.49990,0.22400
2684.42837,0.22428
2686.35684,0.22305
2688.28531,0.22394
2690.21378,0.22509
2692.14225,0.22376
2694.07072,0.22188
2695.99919,0.22149
2697.92765,0.22098
2699.85612,0.22036
2701.78459,0.21997
2703.71306,0.21797
2705.64153,0.21629
2707.57000,0.21677
2709.49847,0.21745
2711.42693,0.21862
2713.35540,0.22159
2715.28387,0.22463
2717.21234,0.22590
2719.14081,0.22663
2721.06928,0.22773
2722.99775,0.22668
2724.92622,0.22314
2726.85468,0.22121
2728.78315,0.22168
2730.71162,0.22063
2732.64009,0.21839
2734.56856,0.21730
2736.49703,0.21700
2738.42550,0.21858
2740.35396,0.22181
2742.28243,0.22281
2744.21090,0.22069
2746.13937,0.22028
2748.06784,0.22206
2749.99631,0.22253
2751.92478,0.22291
2753.85325,0.22373
2755.78171,0.22569
2757.71018,0.22928
2759.63865,0.23011
2761.56712,0.22761
2763.49559,0.22612
2765.42406,0.22535
2767.35253,0.22129
2769.28099,0.21528
2771.20946,0.21424
2773.13793,0.21982
2775.06640,0.22516
2776.99487,0.22482
2778.92334,0.22107
2780.85181,0.22187
2782.78028,0.22948
2784.70874,0.23437
2786.63721,0.23200
2788.56568,0.22809
2790.49415,0.22533
2792.42262,0.22408
2794.35109,0.22456
2796.27956,0.22448
2798.20802,0.22455
2800.13649,0.22691
2802.06496,0.23038
2803.99343,0.23177
2805.92190,0.23011
2807.85037,0.22913
2809.77884,0.22920
2811.70731,0.22751
2813.63577,0.22657
2815.56424,0.22853
2817.49271,0.23130
2819.42118,0.23274
2821.34965,0.23097
2823.27812,0.22809
2825.20659,0.22965
2827.13505,0.23361
2829.06352,0.23437
2830.99199,0.23265
2832.92046,0.23115
2834.84893,0.23097
2836.77740,0.23120
2838.70587,0.22950
2840.63433,0.22792
2842.56280,0.22887
2844.49127,0.22972
2846.41974,0.23178
2848.34821,0.23558
2850.27668,0.23465
2852.20515,0.22908
2854.13362,0.22406
2856.06208,0.22153
2857.99055,0.22206
2859.91902,0.22464
2861.84749,0.22740
2863.77596,0.22967
2865.70443,0.23141
2867.63290,0.23280
2869.56136,0.23481
2871.48983,0.23676
2873.41830,0.23566
2875.34677,0.23323
2877.27524,0.23377
2879.20371,0.23302
2881.13218,0.22875
2883.06065,0.22749
2884.98911,0.22848
2886.91758,0.22669
2888.84605,0.22406
2890.77452,0.22414
2892.70299,0.22790
2894.63146,0.23214
2896.55993,0.23230
2898.48839,0.23009
2900.41686,0.22868
2902.34533,0.22790
2904.27380,0.22748
2906.20227,0.22618
2908.13074,0.22387
2910.05921,0.22412
2911.98768,0.22795
2913.91614,0.23113
2915.84461,0.23173
2917.77308,0.23130
2919.70155,0.22945
2921.63002,0.22685
2923.55849,0.22219
2925.48696,0.20950
2927.41542,0.19734
2929.34389,0.20414
2931.27236,0.22147
2933.20083,0.22856
2935.12930,0.22724
2937.05777,0.22506
2938.98624,0.22412
2940.91471,0.22755
2942.84317,0.23259
2944.77164,0.23253
2946.70011,0.22741
2948.62858,0.22314
2950.55705,0.22313
2952.48552,0.22503
2954.41399,0.22467
2956.34245,0.22340
2958.27092,0.22660
2960.19939,0.23335
2962.12786,0.23579
2964.05633,0.23272
2965.98480,0.23047
2967.91327,0.22919
2969.84174,0.22828
2971.77020,0.23221
2973.69867,0.23866
2975.62714,0.23848
2977.55561,0.23128
2979.48408,0.22626
2981.41255,0.22635
2983.34102,0.22742
2985.26948,0.22743
2987.19795,0.22882
2989.12642,0.23451
2991.05489,0.24012
2992.98336,0.23978
2994.91183,0.23562
2996.84030,0.23215
2998.76877,0.23100
3000.69723,0.23096
3002.62570,0.23015
3004.55417,0.22972
3006.48264,0.23162
3008.41111,0.23479
3010.33958,0.23582
3012.26805,0.23335
3014.19651,0.22878
3016.12498,0.22378
3018.05345,0.22294
3019.98192,0.22765
3021.91039,0.23167
3023.83886,0.23202
3025.76733,0.23177
3027.69579,0.23302
3029.62426,0.23378
3031.55273,0.23397
3033.48120,0.23611
3035.40967,0.23747
3037.33814,0.23605
3039.26661,0.23462
3041.19508,0.23356
3043.12354,0.23261
3045.05201,0.23382
3046.98048,0.23787
3048.90895,0.23992
3050.83742,0.23479
3052.76589,0.22686
3054.69436,0.22375
3056.62282,0.22678
3058.55129,0.23239
3060.47976,0.23544
3062.40823,0.23461
3064.33670,0.23311
3066.26517,0.23251
3068.19364,0.23428
3070.12211,0.23859
3072.05057,0.24077
3073.97904,0.23844
3075.90751,0.23538
3077.83598,0.23586
3079.76445,0.23967
3081.69292,0.24175
3083.62139,0.23783
3085.54985,0.23217
3087.47832,0.23161
3089.40679,0.23494
3091.33526,0.23683
3093.26373,0.23589
3095.19220,0.23619
3097.12067,0.23941
3099.04914,0.24171
3100.97760,0.24072
3102.90607,0.23626
3104.83454,0.23375
3106.76301,0.23667
3108.69148,0.23706
3110.61995,0.23201
3112.54842,0.22902
3114.47688,0.23222
3116.40535,0.23618
3118.33382,0.23396
3120.26229,0.22966
3122.19076,0.23160
3124.11923,0.23862
3126.04770,0.24263
3127.97617,0.23942
3129.90463,0.23319
3131.83310,0.23188
3133.76157,0.23633
3135.69004,0.24156
3137.61851,0.24540
3139.54698,0.24530
3141.47545,0.24169
3143.40391,0.24026
3145.33238,0.24223
3147.26085,0.24302
3149.18932,0.24004
3151.11779,0.23512
3153.04626,0.22922
3154.97473,0.22554
3156.90320,0.22835
3158.83166,0.23432
3160.76013,0.23970
3162.68860,0.24459
3164.61707,0.24667
3166.54554,0.24449
3168.47401,0.24218
3170.40248,0.24273
3172.33094,0.24369
3174.25941,0.24326
3176.18788,0.24316
3178.11635,0.24519
3180.04482,0.24760
3181.97329,0.24587
3183.90176,0.23896
3185.83022,0.23118
3187.75869,0.22981
3189.68716,0.23621
3191.61563,0.24075
3193.54410,0.23849
3195.47257,0.23627
3197.40104,0.23717
3199.32951,0.23744
3201.25797,0.23959
3203.18644,0.24632
3205.11491,0.24939
3207.04338,0.24475
3208.97185,0.24044
3210.90032,0.24252
3212.82879,0.24825
3214.75725,0.24995
3216.68572,0.24625
3218.61419,0.24281
3220.54266,0.23940
3222.47113,0.23649
3224.39960,0.23758
3226.32807,0.24050
3228.25654,0.24187
3230.18500,0.23951
3232.11347,0.23639
3234.04194,0.23641
3235.97041,0.23733
3237.89888,0.23811
3239.82735,0.23814
3241.75582,0.23601
3243.68428,0.23293
3245.61275,0.23476
3247.54122,0.24050
3249.46969,0.23773
3251.39816,0.22789
3253.32663,0.22380
3255.25510,0.22670
3257.18357,0.23185
3259.11203,0.23774
3261.04050,0.23928
3262.96897,0.23367
3264.89744,0.22995
3266.82591,0.23096
3268.75438,0.23053
3270.68285,0.22914
3272.61131,0.23033
3274.53978,0.23546
3276.46825,0.23966
3278.39672,0.23855
3280.32519,0.23606
3282.25366,0.23403
3284.18213,0.23186
3286.11060,0.23238
3288.03906,0.23741
3289.96753,0.24294
3291.89600,0.24438
3293.82447,0.24041
3295.75294,0.23214
3297.68141,0.22620
3299.60988,0.22797
3301.53834,0.23368
3303.46681,0.23583
3305.39528,0.23363
3307.32375,0.23288
3309.25222,0.23510
3311.18069,0.23765
3313.10916,0.23878
3315.03763,0.23683
3316.96609,0.23442
3318.89456,0.23704
3320.82303,0.24079
3322.75150,0.24109
3324.67997,0.23967
3326.60844,0.23478
3328.53691,0.23043
3330.46537,0.23292
3332.39384,0.23728
3334.32231,0.24111
3336.25078,0.24512
3338.17925,0.24362
3340.10772,0.23870
3342.03619,0.23761
3343.96466,0.23926
3345.89312,0.24221
3347.82159,0.24672
3349.75006,0.24834
3351.67853,0.24142
3353.60700,0.23200
3355.53547,0.22981
3357.46394,0.23409
3359.39240,0.24013
3361.32087,0.24254
3363.24934,0.24227
3365.17781,0.24326
3367.10628,0.24304
3369.03475,0.24226
3370.96322,0.24497
3372.89168,0.24921
3374.82015,0.24678
3376.74862,0.23916
3378.67709,0.23582
3380.60556,0.23714
3382.53403,0.23922
3384.46250,0.24003
3386.39097,0.23867
3388.31943,0.23528
3390.24790,0.23349
3392.17637,0.23715
3394.10484,0.24318
3396.03331,0.24737
3397.96178,0.24881
3399.89025,0.24652
3401.81871,0.23834
3403.74718,0.22599
3405.67565,0.21993
3407.60412,0.22590
3409.53259,0.23237
3411.46106,0.22932
3413.38953,0.22412
3415.31800,0.22668
3417.24646,0.23550
3419.17493,0.23957
3421.10340,0.23494
3423.03187,0.22948
3424.96034,0.22675
3426.88881,0.22710
3428.81728,0.23165
3430.74574,0.23620
3432.67421,0.23555
3434.60268,0.23255
3436.53115,0.23122
3438.45962,0.22902
3440.38809,0.22701
3442.31656,0.22929
3444.24503,0.23309
3446.17349,0.23453
3448.10196,0.23372
3450.03043,0.23128
3451.95890,0.22801
3453.88737,0.22557
3455.81584,0.22273
3457.74431,0.22050
3459.67277,0.22351
3461.60124,0.22699
3463.52971,0.22371
3465.45818,0.21764
3467.38665,0.21566
3469.31512,0.21703
3471.24359,0.21673
3473.17206,0.21584
3475.10052,0.21780
3477.02899,0.22045
3478.95746,0.22062
3480.88593,0.21578
3482.81440,0.20882
3484.74287,0.21001
3486.67134,0.21768
3488.59980,0.21979
3490.52827,0.21652
3492.45674,0.21456
3494.38521,0.21392
3496.31368,0.21156
3498.24215,0.20816
3500.17062,0.20930
3502.09909,0.21310
3504.02755,0.21051
3505.95602,0.20409
3507.88449,0.20345
3509.81296,0.20723
3511.74143,0.20810
3513.66990,0.20677
3515.59837,0.20465
3517.52683,0.20054
3519.45530,0.19956
3521.38377,0.20339
3523.31224,0.20320
3525.24071,0.19840
3527.16918,0.19671
3529.09765,0.19650
3531.02611,0.19558
3532.95458,0.19387
3534.88305,0.19102
3536.81152,0.19173
3538.73999,0.19366
3540.66846,0.19225
3542.59693,0.19306
3544.52540,0.19483
3546.45386,0.19176
3548.38233,0.19002
3550.31080,0.19381
3552.23927,0.19723
3554.16774,0.19479
3556.09621,0.19078
3558.02468,0.19054
3559.95314,0.19189
3561.88161,0.19356
3563.81008,0.19872
3565.73855,0.20465
3567.66702,0.20019
3569.59549,0.19068
3571.52396,0.18651
3573.45243,0.18084
3575.38089,0.17303
3577.30936,0.17290
3579.23783,0.17873
3581.16630,0.18193
3583.09477,0.18309
3585.02324,0.18749
3586.95171,0.19163
3588.88017,0.18333
3590.80864,0.17320
3592.73711,0.17165
3594.66558,0.17373
3596.59405,0.17636
3598.52252,0.17898
3600.45099,0.17714
3602.37946,0.17088
3604.30792,0.16879
3606.23639,0.17497
3608.16486,0.18270
3610.09333,0.18376
3612.02180,0.18053
3613.95027,0.17589
3615.87874,0.17274
3617.80720,0.17359
3619.73567,0.17211
3621.66414,0.16480
3623.59261,0.15997
3625.52108,0.16482
3627.44955,0.18043
3629.37802,0.18781
3631.30649,0.17756
3633.23495,0.16768
3635.16342,0.15961
3637.09189,0.15584
3639.02036,0.15644
3640.94883,0.15619
3642.87730,0.15505
3644.80577,0.15865
3646.73423,0.16912
3648.66270,0.18089
3650.59117,0.17527
3652.51964,0.16004
3654.44811,0.15437
3656.37658,0.15525
3658.30505,0.15333
3660.23352,0.15092
3662.16198,0.15011
3664.09045,0.15087
3666.01892,0.15555
3667.94739,0.16365
3669.87586,0.17184
3671.80433,0.17546
3673.73280,0.17708
3675.66126,0.17822
3677.58973,0.17303
3679.51820,0.16339
3681.44667,0.15447
3683.37514,0.14928
3685.30361,0.14933
3687.23208,0.15925
3689.16055,0.17530
3691.08901,0.17167
3693.01748,0.15711
3694.94595,0.14881
3696.87442,0.14378
3698.80289,0.14302
3700.73136,0.14772
3702.65983,0.15161
3704.58829,0.15299
3706.51676,0.15369
3708.44523,0.15374
3710.37370,0.15622
3712.30217,0.15827
3714.23064,0.15596
3716.15911,0.15692
3718.08757,0.16177
3720.01604,0.16480
3721.94451,0.16484
3723.87298,0.16248
3725.80145,0.15519
3727.72992,0.14792
3729.65839,0.14907
3731.58686,0.15904
3733.51532,0.17146
3735.44379,0.17612
3737.37226,0.16943
3739.30073,0.16124
3741.22920,0.15971
3743.15767,0.16494
3745.08614,0.16812
3747.01460,0.16702
3748.94307,0.17205
3750.87154,0.17749
3752.80001,0.17063
3754.72848,0.16251
3756.65695,0.15912
3758.58542,0.15523
3760.51389,0.14592
3762.44235,0.13965
3764.37082,0.14045
3766.29929,0.14437
3768.22776,0.15096
3770.15623,0.15459
3772.08470,0.14770
3774.01317,0.14147
3775.94163,0.14410
3777.87010,0.15015
3779.79857,0.15003
3781.72704,0.14522
3783.65551,0.14250
3785.58398,0.13983
3787.51245,0.13642
3789.44092,0.13492
3791.36938,0.13483
3793.29785,0.13555
3795.22632,0.13929
3797.15479,0.14740
3799.08326,0.15545
3801.01173,0.15944
3802.94020,0.15515
3804.86866,0.14896
3806.79713,0.14851
3808.72560,0.14739
3810.65407,0.14030
3812.58254,0.13668
3814.51101,0.14244
3816.43948,0.15202
3818.36795,0.16154
3820.29641,0.17410
3822.22488,0.17683
3824.15335,0.16766
3826.08182,0.15523
3828.01029,0.14037
3829.93876,0.13270
3831.86723,0.13527
3833.79569,0.14016
3835.72416,0.14282
3837.65263,0.14359
3839.58110,0.14710
3841.50957,0.15518
3843.43804,0.15603
3845.36651,0.14500
3847.29498,0.13599
3849.22344,0.14328
3851.15191,0.17004
3853.08038,0.19241
3855.00885,0.16547
3856.93732,0.14023
3858.86579,0.13736
3860.79426,0.14770
3862.72272,0.16009
3864.65119,0.15669
3866.57966,0.14528
3868.50813,0.14581
3870.43660,0.15116
3872.36507,0.14849
3874.29354,0.14082
3876.22200,0.13092
3878.15047,0.12527
3880.07894,0.12787
3882.00741,0.13411
3883.93588,0.14140
3885.86435,0.14657
3887.79282,0.14354
3889.72129,0.13980
3891.64975,0.13916
3893.57822,0.13619
3895.50669,0.13042
3897.43516,0.12782
3899.36363,0.13190
3901.29210,0.13901
3903.22057,0.13907
3905.14903,0.12966
3907.07750,0.12634
3909.00597,0.13132
3910.93444,0.13432
3912.86291,0.13127
3914.79138,0.12647
3916.71985,0.12702
3918.64832,0.13102
3920.57678,0.13231
3922.50525,0.13469
3924.43372,0.13688
3926.36219,0.13274
3928.29066,0.12752
3930.21913,0.12781
3932.14760,0.13190
3934.07606,0.13342
3936.00453,0.13039
3937.93300,0.12558
3939.86147,0.12233
3941.78994,0.12387
3943.71841,0.12838
3945.64688,0.13081
3947.57535,0.12899
3949.50381,0.12404
3951.43228,0.12139
3953.36075,0.12152
3955.28922,0.12246
3957.21769,0.12385
3959.14616,0.12497
3961.07463,0.12513
3963.00309,0.12240
3964.93156,0.12146
3966.86003,0.12754
3968.78850,0.13390
3970.71697,0.13235
3972.64544,0.12556
3974.57391,0.12010
3976.50238,0.11654
3978.43084,0.11502
3980.35931,0.11571
3982.28778,0.11510
3984.21625,0.11250
3986.14472,0.10965
3988.07319,0.10822
3990.00166,0.11174
3991.93012,0.11884
3993.85859,0.12124
3995.78706,0.11901
3997.71553,0.12026
3999.64400,0.12381
4001.57247,0.12143
4003.50094,0.11382
4005.42941,0.11151
4007.35787,0.11654
4009.28634,0.11960
4011.21481,0.11563
4013.14328,0.11001
4015.07175,0.11031
4017.00022,0.11408
4018.92869,0.11795
4020.85715,0.12308
4022.78562,0.12279
4024.71409,0.11405
4026.64256,0.10464
4028.57103,0.09924
4030.49950,0.10016
4032.42797,0.10950
4034.35644,0.11815
4036.28490,0.11691
4038.21337,0.11094
4040.14184,0.10688
4042.07031,0.10719
4043.99878,0.11066
4045.92725,0.11255
4047.85572,0.11282
4049.78418,0.11406
4051.71265,0.11268
4053.64112,0.10549
4055.56959,0.09978
4057.49806,0.10206
4059.42653,0.10831
4061.35500,0.11043
4063.28346,0.10761
4065.21193,0.10763
4067.14040,0.11057
4069.06887,0.11113
4070.99734,0.10903
4072.92581,0.10534
4074.85428,0.10268
4076.78275,0.10461
4078.71121,0.10935
4080.63968,0.10866
4082.56815,0.10365
4084.49662,0.10367
4086.42509,0.10592
4088.35356,0.10470
4090.28203,0.10418
4092.21049,0.10653
4094.13896,0.10830
4096.06743,0.10735
4097.99590,0.10339
4099.92437,0.09896
4101.85284,0.09778
4103.78131,0.09977
4105.70978,0.10071
4107.63824,0.09777
4109.56671,0.09642
4111.49518,0.10112
4113.42365,0.10607
4115.35212,0.10649
4117.28059,0.10486
4119.20906,0.10310
4121.13752,0.09923
4123.06599,0.09373
4124.99446,0.09329
4126.92293,0.09780
4128.85140,0.09944
4130.77987,0.10053
4132.70834,0.10468
4134.63681,0.10680
4136.56527,0.10549
4138.49374,0.10315
4140.42221,0.09920
4142.35068,0.09270
4144.27915,0.08857
4146.20762,0.09211
4148.13609,0.09832
4150.06455,0.09818
4151.99302,0.09389
4153.92149,0.09460
4155.84996,0.09952
4157.77843,0.10124
4159.70690,0.09823
4161.63537,0.09704
4163.56384,0.09689
4165.49230,0.09066
4167.42077,0.08637
4169.34924,0.09050
4171.27771,0.09533
4173.20618,0.09541
4175.13465,0.09032
4177.06312,0.08623
4178.99158,0.08661
4180.92005,0.08560
4182.84852,0.08396
4184.77699,0.08572
4186.70546,0.08785
4188.63393,0.08751
4190.56240,0.08541
4192.49087,0.08218
4194.41933,0.07968
4196.34780,0.08106
4198.27627,0.08448
4200.20474,0.08776
4202.13321,0.09231
4204.06168,0.09501
4205.99015,0.09189
4207.91861,0.08617
4209.84708,0.08448
4211.77555,0.08652
4213.70402,0.08701
4215.63249,0.08429
4217.56096,0.07845
4219.48943,0.07363
4221.41789,0.07504
4223.34636,0.07983
4225.27483,0.08239
4227.20330,0.08036
4229.13177,0.07401
4231.06024,0.06845
4232.98871,0.07043
4234.91718,0.07681
4236.84564,0.07768
4238.77411,0.07439
4240.70258,0.07553
4242.63105,0.07908
4244.55952,0.07902
4246.48799,0.07654
4248.41646,0.07421
4250.34492,0.07610
4252.27339,0.08310
4254.20186,0.08580
4256.13033,0.08220
4258.05880,0.08018
4259.98727,0.08136
4261.91574,0.08368
4263.84421,0.08556
4265.77267,0.08264
4267.70114,0.07343
4269.62961,0.06727
4271.55808,0.06886
4273.48655,0.07171
4275.41502,0.07464
4277.34349,0.07879
4279.27195,0.08018
4281.20042,0.07651
4283.12889,0.07101
4285.05736,0.06885
4286.98583,0.07097
4288.91430,0.07479
4290.84277,0.07781
4292.77124,0.07719
4294.69970,0.07294
4296.62817,0.07011
4298.55664,0.07283
4300.48511,0.07741
4302.41358,0.07701
4304.34205,0.07272
4306.27052,0.06787
4308.19898,0.06187
4310.12745,0.05733
4312.05592,0.05980
4313.98439,0.06630
4315.91286,0.06533
4317.84133,0.05942
4319.76980,0.05986
4321.69827,0.06374
4323.62673,0.06702
4325.55520,0.07161
4327.48367,0.07638
4329.41214,0.07682
4331.34061,0.07064
4333.26908,0.06350
4335.19755,0.05910
4337.12601,0.05750
4339.05448,0.06069
4340.98295,0.06395
4342.91142,0.06045
4344.83989,0.05478
4346.76836,0.05855
4348.69683,0.07190
4350.62530,0.07989
4352.55376,0.07335
4354.48223,0.05945
4356.41070,0.04941
4358.33917,0.04627
4360.26764,0.04597
4362.19611,0.04677
4364.12458,0.05189
4366.05304,0.05866
4367.98151,0.05607
4369.90998,0.04446
4371.83845,0.03839
4373.76692,0.04032
4375.69539,0.04071
4377.62386,0.04099
4379.55232,0.04451
4381.48079,0.04517
4383.40926,0.04348
4385.33773,0.04443
4387.26620,0.04689
4389.19467,0.05071
4391.12314,0.05597
4393.05161,0.05943
4394.98007,0.05836
4396.90854,0.05461
4398.83701,0.05031
4400.76548,0.04532
4402.69395,0.04272
4404.62242,0.04172
4406.55089,0.04087
4408.47935,0.04232
4410.40782,0.04196
4412.33629,0.04214
4414.26476,0.04838
4416.19323,0.05020
4418.12170,0.04159
4420.05017,0.03562
4421.97864,0.03952
4423.90710,0.04053
4425.83557,0.03265
4427.76404,0.02901
4429.69251,0.03124
4431.62098,0.02988
4433.54945,0.02869
4435.47792,0.03348
4437.40638,0.04048
4439.33485,0.04253
4441.26332,0.03864
4443.19179,0.03308
4445.12026,0.02735
4447.04873,0.02815
4448.97720,0.03884
4450.90567,0.04363
4452.83413,0.03617
4454.76260,0.03230
4456.69107,0.03626
4458.61954,0.03949
4460.54801,0.04000
4462.47648,0.04268
4464.40495,0.04513
4466.33341,0.04217
4468.26188,0.04268
4470.19035,0.04805
4472.11882,0.04652
4474.04729,0.03817
4475.97576,0.02976
4477.90423,0.02247
4479.83270,0.01729
4481.76116,0.01594
4483.68963,0.01542
4485.61810,0.01743
4487.54657,0.02337
4489.47504,0.02461
4491.40351,0.02196
4493.33198,0.02330
4495.26044,0.02351
4497.18891,0.02042
4499.11738,0.02011
4501.04585,0.01791
4502.97432,0.01192
4504.90279,0.00998
4506.83126,0.01237
4508.75973,0.01654
4510.68819,0.02117
4512.61666,0.02061
4514.54513,0.01834
4516.47360,0.02574
4518.40207,0.03686
4520.33054,0.03917
4522.25901,0.03260
4524.18747,0.02233
4526.11594,0.01347
4528.04441,0.01009
4529.97288,0.01411
4531.90135,0.02224
4533.82982,0.02718
4535.75829,0.02602
4537.68676,0.02215
4539.61522,0.01908
4541.54369,0.01922
4543.47216,0.01997
4545.40063,0.01916
4547.32910,0.02322
4549.25757,0.02790
4551.18604,0.02585
4553.11450,0.02153
4555.04297,0.01725
4556.97144,0.01466
4558.89991,0.01284
4560.82838,0.00917
4562.75685,0.00995
4564.68532,0.01863
4566.61378,0.02593
4568.54225,0.02355
4570.47072,0.01661
4572.39919,0.01487
4574.32766,0.01746
4576.25613,0.01671
4578.18460,0.01306
4580.11307,0.01055
4582.04153,0.01032
4583.97000,0.01418
4585.89847,0.01909
4587.82694,0.01997
4589.75541,0.01752
4591.68388,0.01559
4593.61235,0.01733
4595.54081,0.02051
4597.46928,0.02158
4599.39775,0.01960
4601.32622,0.01457
4603.25469,0.01041
4605.18316,0.01025
4607.11163,0.01197
4609.04010,0.01419
4610.96856,0.01752
4612.89703,0.02048
4614.82550,0.01952
4616.75397,0.01686
4618.68244,0.01693
4620.61091,0.01588
4622.53938,0.01169
4624.46784,0.01125
4626.39631,0.01515
4628.32478,0.01428
4630.25325,0.00897
4632.18172,0.00576
4634.11019,0.00419
4636.03866,0.00430
4637.96713,0.00711
4639.89559,0.01196
4641.82406,0.01622
4643.75253,0.01404
4645.68100,0.00937
4647.60947,0.01138
4649.53794,0.01616
4651.46641,0.01512
4653.39487,0.01245
4655.32334,0.01608
4657.25181,0.01961
4659.18028,0.01414
4661.10875,0.00559
4663.03722,0.00533
4664.96569,0.01020
4666.89416,0.00808
4668.82262,0.00264
4670.75109,0.00261
4672.67956,0.00436
4674.60803,0.00272
4676.53650,-0.00218
4678.46497,-0.00161
4680.39344,0.01136
4682.32190,0.02372
4684.25037,0.02377
4686.17884,0.02221
4688.10731,0.02254
4690.03578,0.01801
4691.96425,0.01714
4693.89272,0.02042
4695.82119,0.02140
4697.74965,0.02460
4699.67812,0.02258
4701.60659,0.00899
4703.53506,0.00039
4705.46353,0.00846
4707.39200,0.02239
4709.32047,0.03002
4711.24893,0.02804
4713.17740,0.01730
4715.10587,0.00603
4717.03434,0.00235
4718.96281,0.00955
4720.89128,0.02024
4722.81975,0.02095
4724.74821,0.01640
4726.67668,0.01135
4728.60515,0.00042
4730.53362,-0.00813
4732.46209,-0.00616
4734.39056,-0.00210
4736.31903,-0.00219
4738.24750,-0.00271
4740.17596,-0.00196
4742.10443,-0.00092
4744.03290,0.00142
4745.96137,0.00512
4747.88984,0.00956
4749.81831,0.01474
4751.74678,0.01554
4753.67524,0.01092
4755.60371,0.00911
4757.53218,0.00783
4759.46065,0.00324
4761.38912,0.00392
4763.31759,0.01037
4765.24606,0.01131
4767.17453,0.00485
4769.10299,-0.00047
4771.03146,-0.00289
4772.95993,-0.00321
4774.88840,0.00404
4776.81687,0.01364
4778.74534,0.01456
4780.67381,0.01012
4782.60227,0.00759
4784.53074,0.00984
4786.45921,0.01421
4788.38768,0.01182
4790.31615,0.00230
4792.24462,-0.00503
4794.17309,-0.00713
4796.10156,-0.00489
4798.03002,-0.00057
4799.95849,0.00290
4801.88696,0.00544
4803.81543,0.00321
4805.74390,-0.00144
4807.67237,-0.00442
4809.60084,-0.01072
4811.52930,-0.01325
4813.45777,-0.00831
4815.38624,-0.00318
4817.31471,-0.00001
4819.24318,-0.00236
4821.17165,-0.00455
4823.10012,-0.00032
4825.02859,0.00067
4826.95705,-0.00233
4828.88552,0.00051
4830.81399,0.00873
4832.74246,0.01694
4834.67093,0.02344
4836.59940,0.02542
4838.52787,0.01972
4840.45633,0.01455
4842.38480,0.01594
4844.31327,0.01525
4846.24174,0.01245
4848.17021,0.01266
4850.09868,0.01237
4852.02715,0.01292
4853.95562,0.01468
4855.88408,0.01027
4857.81255,0.00027
4859.74102,-0.00467
4861.66949,-0.00245
4863.59796,-0.00206
4865.52643,-0.00177
4867.45490,0.00124
4869.38336,0.00163
4871.31183,-0.00211
4873.24030,-0.00436
4875.16877,0.00168
4877.09724,0.00704
4879.02571,0.00788
4880.95418,0.01411
4882.88265,0.02151
4884.81111,0.02537
4886.73958,0.02278
4888.66805,0.00898
4890.59652,-0.00258
4892.52499,-0.00137
4894.45346,0.00176
4896.38193,0.00185
4898.31039,0.00129
4900.23886,0.00121
4902.16733,0.00221
4904.09580,0.00034
4906.02427,0.00166
4907.95274,0.01122
4909.88121,0.01827
4911.80967,0.01572
4913.73814,0.00518
4915.66661,-0.00722
4917.59508,-0.01162
4919.52355,-0.00543
4921.45202,0.00226
4923.38049,0.00672
4925.30896,0.00996
4927.23742,0.00950
4929.16589,0.00667
4931.09436,0.00820
4933.02283,0.01217
4934.95130,0.00932
4936.87977,0.00375
4938.80824,0.01066
4940.73670,0.02318
4942.66517,0.01882
4944.59364,0.00425
4946.52211,-0.00065
4948.45058,-0.00279
4950.37905,-0.00707
4952.30752,-0.00016
4954.23599,0.01784
4956.16445,0.02789
4958.09292,0.02093
4960.02139,0.01176
4961.94986,0.00885
4963.87833,0.00251
4965.80680,-0.00277
4967.73527,0.00285
4969.66373,0.01339
4971.59220,0.02071
4973.52067,0.02031
4975.44914,0.01536
4977.37761,0.01405
4979.30608,0.01620
4981.23455,0.01731
4983.16302,0.01354
4985.09148,0.00664
4987.01995,0.00762
4988.94842,0.01677
4990.87689,0.02050
4992.80536,0.01517
4994.73383,0.00915
4996.66230,0.00670
4998.59076,0.00640
5000.51923,0.01440
5002.44770,0.02855
5004.37617,0.02484
5006.30464,0.00363
5008.23311,-0.00936
5010.16158,-0.01152
5012.09005,-0.00817
5014.01851,0.00250
5015.94698,0.00801
5017.87545,-0.00599
5019.80392,-0.02501
5021.73239,-0.02118
5023.66086,0.00634
5025.58933,0.03198
5027.51779,0.03541
5029.44626,0.02663
5031.37473,0.02444
5033.30320,0.02794
5035.23167,0.03142
5037.16014,0.02773
5039.08861,0.01773
5041.01708,0.02120
5042.94554,0.03902
5044.87401,0.05064
5046.80248,0.04999
5048.73095,0.04414
5050.65942,0.03830
5052.58789,0.03290
5054.51636,0.02617
5056.44482,0.02200
5058.37329,0.01793
5060.30176,0.00556
5062.23023,-0.00831
5064.15870,-0.01288
5066.08717,-0.00615
5068.01564,0.00366
5069.94410,0.00848
5071.87257,0.01126
5073.80104,0.01271
5075.72951,0.01829
5077.65798,0.03696
5079.58645,0.04951
5081.51492,0.03565
5083.44339,0.02043
5085.37185,0.02613
5087.30032,0.03387
5089.22879,0.03013
5091.15726,0.02449
5093.08573,0.02294
5095.01420,0.02647
5096.94267,0.02905
5098.87113,0.02625
5100.79960,0.02923
5102.72807,0.04084
5104.65654,0.04891
5106.58501,0.04253
5108.51348,0.02682
5110.44195,0.01652
5112.37042,0.00856
5114.29888,0.00060
5116.22735,0.00249
5118.15582,0.01060
5120.08429,0.01719
5122.01276,0.02913
5123.94123,0.05189
5125.86970,0.06301
5127.79816,0.04477
5129.72663,0.03059
5131.65510,0.04036
5133.58357,0.04577
5135.51204,0.04172
5137.44051,0.03861
5139.36898,0.03038
5141.29745,0.02590
5143.22591,0.03128
5145.15438,0.03057
5147.08285,0.01936
5149.01132,0.01407
5150.93979,0.01770
5152.86826,0.02102
5154.79673,0.02432
5156.72519,0.02773
5158.65366,0.03659
5160.58213,0.05184
5162.51060,0.06209
5164.43907,0.06169
5166.36754,0.04764
5168.29601,0.02774
5170.22448,0.02377
5172.15294,0.04064
5174.08141,0.05498
5176.00988,0.05343
5177.93835,0.03951
5179.86682,0.01902
5181.79529,0.01124
5183.72376,0.02524
5185.65222,0.03638
5187.58069,0.02469
5189.50916,0.00945
5191.43763,0.01184
5193.36610,0.01886
5195.29457,0.01140
5197.22304,0.00218
5199.15151,0.01149
5201.07997,0.02893
5203.00844,0.03806
5204.93691,0.03638
5206.86538,0.03140
5208.79385,0.03181
5210.72232,0.03146
5212.65079,0.03013
5214.57925,0.03428
5216.50772,0.03828
5218.43619,0.03616
5220.36466,0.03247
5222.29313,0.02787
5224.22160,0.02683
5226.15007,0.03568
5228.07854,0.03738
5230.00700,0.02513
5231.93547,0.02629
5233.86394,0.04885
5235.79241,0.05759
5237.72088,0.04546
5239.64935,0.04257
5241.57782,0.05125
5243.50628,0.05407
5245.43475,0.05332
5247.36322,0.05536
5249.29169,0.04525
5251.22016,0.02523
5253.14863,0.02083
5255.07710,0.02945
5257.00556,0.02723
5258.93403,0.01748
5260.86250,0.02584
5262.79097,0.05481
5264.71944,0.07126
5266.64791,0.05949
5268.57638,0.04508
5270.50485,0.03896
5272.43331,0.04218
5274.36178,0.06633
5276.29025,0.09473
5278.21872,0.09531
5280.14719,0.06758
5282.07566,0.04621
5284.00413,0.05587
5285.93259,0.07195
5287.86106,0.06164
5289.78953,0.03155
5291.71800,0.01376
5293.64647,0.01550
5295.57494,0.02201
5297.50341,0.03395
5299.43188,0.04033
5301.36034,0.03837
5303.28881,0.05353
5305.21728,0.07588
5307.14575,0.07864
5309.07422,0.07162
5311.00269,0.06772
5312.93116,0.06567
5314.85962,0.06072
5316.78809,0.05125
5318.71656,0.04320
5320.64503,0.03150
5322.57350,0.02248
5324.50197,0.01917
5326.43044,0.00524
5328.35891,-0.00033
5330.28737,0.02026
5332.21584,0.05116
5334.14431,0.07725
5336.07278,0.09085
5338.00125,0.09087
5339.92972,0.08272
5341.85819,0.07832
5343.78665,0.06913
5345.71512,0.04466
5347.64359,0.03394
5349.57206,0.05556
5351.50053,0.08199
5353.42900,0.08328
5355.35747,0.07268
5357.28594,0.05960
5359.21440,0.04044
5361.14287,0.03455
5363.07134,0.04785
5364.99981,0.05456
5366.92828,0.05167
5368.85675,0.05782
5370.78522,0.06444
5372.71368,0.06510
5374.64215,0.06917
5376.57062,0.07160
5378.49909,0.06695
5380.42756,0.06475
5382.35603,0.07410
5384.28450,0.08175
5386.21297,0.06642
5388.14143,0.05374
5390.06990,0.07067
5391.99837,0.10254
5393.92684,0.11386
5395.85531,0.08711
5397.78378,0.05338
5399.71225,0.04078
5401.64071,0.05144
5403.56918,0.07133
5405.49765,0.07699
5407.42612,0.05968
5409.35459,0.04357
5411.28306,0.06386
5413.21153,0.09401
5415.13999,0.08791
5417.06846,0.08516
5418.99693,0.10608
5420.92540,0.12819
5422.85387,0.13948
5424.78234,0.12564
5426.71081,0.09182
5428.63928,0.06969
5430.56774,0.07326
5432.49621,0.08977
5434.42468,0.10399
5436.35315,0.10619
5438.28162,0.09332
5440.21009,0.06581
5442.13856,0.04611
5444.06702,0.05353
5445.99549,0.07163
5447.92396,0.08286
5449.85243,0.07836
5451.78090,0.06295
5453.70937,0.05137
5455.63784,0.04895
5457.56631,0.06274
5459.49477,0.07645
5461.42324,0.07018
5463.35171,0.07391
5465.28018,0.08877
5467.20865,0.07273
5469.13712,0.04320
5471.06559,0.04053
5472.99405,0.05937
5474.92252,0.08267
5476.85099,0.07948
5478.77946,0.05638
5480.70793,0.05848
5482.63640,0.08754
5484.56487,0.11093
5486.49334,0.11511
5488.42180,0.10643
5490.35027,0.09227
5492.27874,0.07333
5494.20721,0.06140
5496.13568,0.08116
5498.06415,0.10923
5499.99262,0.10290
5501.92108,0.07534
5503.84955,0.05593
5505.77802,0.05279
5507.70649,0.07488
5509.63496,0.10554
5511.56343,0.11304
5513.49190,0.09688
5515.42037,0.06526
5517.34883,0.04390
5519.27730,0.06465
5521.20577,0.09503
5523.13424,0.11104
5525.06271,0.12687
5526.99118,0.12886
5528.91965,0.11340
5530.84811,0.10282
5532.77658,0.09281
5534.70505,0.07584
5536.63352,0.05991
5538.56199,0.04136
5540.49046,0.03649
5542.41893,0.05844
5544.34740,0.07170
5546.27586,0.06862
5548.20433,0.08235
5550.13280,0.10875
5552.06127,0.11495
5553.98974,0.09793
5555.91821,0.07754
5557.84668,0.07091
5559.77514,0.09763
5561.70361,0.14066
5563.63208,0.14440
5565.56055,0.09604
5567.48902,0.04913
5569.41749,0.05338
5571.34596,0.08657
5573.27443,0.09507
5575.20289,0.08787
5577.13136,0.10187
5579.05983,0.10335
5580.98830,0.06752
5582.91677,0.05353
5584.84524,0.08187
5586.77371,0.10917
5588.70217,0.11237
5590.63064,0.09417
5592.55911,0.07563
5594.48758,0.06362
5596.41605,0.06563
5598.34452,0.09616
5600.27299,0.11291
5602.20145,0.08410
5604.12992,0.05596
5606.05839,0.06010
5607.98686,0.08039
5609.91533,0.09968
5611.84380,0.10696
5613.77227,0.09873
5615.70074,0.08504
5617.62920,0.06734
5619.55767,0.04120
5621.48614,0.02682
5623.41461,0.04534
5625.34308,0.06462
5627.27155,0.06012
5629.20002,0.07413
5631.12848,0.10841
5633.05695,0.12561
5634.98542,0.12867
5636.91389,0.11848
5638.84236,0.09218
5640.77083,0.07707
5642.69930,0.08359
5644.62777,0.09197
5646.55623,0.08923
5648.48470,0.08554
5650.41317,0.08442
5652.34164,0.08974
5654.27011,0.12385
5656.19858,0.16379
5658.12705,0.16298
5660.05551,0.12600
5661.98398,0.09267
5663.91245,0.07901
5665.84092,0.06742
5667.76939,0.06030
5669.69786,0.06502
5671.62633,0.07894
5673.55480,0.11493
5675.48326,0.14788
5677.41173,0.13047
5679.34020,0.08762
5681.26867,0.06801
5683.19714,0.07440
5685.12561,0.08077
5687.05408,0.07573
5688.98254,0.07680
5690.91101,0.08943
5692.83948,0.09973
5694.76795,0.10042
5696.69642,0.09978
5698.62489,0.10533
5700.55336,0.10307
5702.48183,0.08768
5704.41029,0.05910
5706.33876,0.03355
5708.26723,0.04880
5710.19570,0.08433
5712.12417,0.09850
5714.05264,0.10099
5715.98111,0.08792
5717.90957,0.05992
5719.83804,0.05752
5721.76651,0.06814
5723.69498,0.06468
5725.62345,0.06582
5727.55192,0.07408
5729.48039,0.08370
5731.40886,0.10101
5733.33732,0.11312
5735.26579,0.11422
5737.19426,0.11820
5739.12273,0.10506
5741.05120,0.06632
5742.97967,0.05478
5744.90814,0.08728
5746.83660,0.11177
5748.76507,0.10069
5750.69354,0.08370
5752.62201,0.06871
5754.55048,0.05372
5756.47895,0.06436
5758.40742,0.09500
5760.33588,0.10956
5762.26435,0.10129
5764.19282,0.10268
5766.12129,0.11649
5768.04976,0.11779
5769.97823,0.10279
5771.90670,0.09034
5773.83517,0.10064
5775.76363,0.12172
5777.69210,0.12526
5779.62057,0.09439
5781.54904,0.06451
5783.47751,0.09077
5785.40598,0.14436
5787.33445,0.15794
5789.26291,0.13972
5791.19138,0.11997
5793.11985,0.08568
5795.04832,0.05148
5796.97679,0.05084
5798.90526,0.05762
5800.83373,0.04563
5802.76220,0.03524
5804.69066,0.04321
5806.61913,0.06237
5808.54760,0.06287
5810.47607,0.03450
5812.40454,0.01746
5814.33301,0.03262
5816.26148,0.05139
5818.18994,0.06220
5820.11841,0.08232
5822.04688,0.10209
5823.97535,0.10358
5825.90382,0.09518
5827.83229,0.08574
5829.76076,0.07553
5831.68923,0.05282
5833.61769,0.03219
5835.54616,0.03619
5837.47463,0.04743
5839.40310,0.05872
5841.33157,0.06972
5843.26004,0.07856
5845.18851,0.10469
5847.11697,0.12717
5849.04544,0.10474
5850.97391,0.09206
5852.90238,0.13056
5854.83085,0.16147
5856.75932,0.15232
5858.68779,0.12519
5860.61626,0.10934
5862.54472,0.10741
5864.47319,0.10890
5866.40166,0.12551
5868.33013,0.14094
5870.25860,0.11037
5872.18707,0.05931
5874.11554,0.04088
5876.04400,0.04117
5877.97247,0.03986
5879.90094,0.04267
5881.82941,0.04506
5883.75788,0.05264
5885.68635,0.07119
5887.61482,0.09470
5889.54329,0.11449
5891.47175,0.12703
5893.40022,0.13297
5895.32869,0.13700
5897.25716,0.12949
5899.18563,0.10985
5901.11410,0.11139
5903.04257,0.13197
5904.97103,0.13839
5906.89950,0.12784
5908.82797,0.12391
5910.75644,0.13256
5912.68491,0.12930
5914.61338,0.12522
5916.54185,0.15286
5918.47032,0.17862
5920.39878,0.16043
5922.32725,0.13220
5924.25572,0.10734
5926.18419,0.07944
5928.11266,0.06356
5930.04113,0.05496
5931.96960,0.05471
5933.89806,0.05697
5935.82653,0.06005
5937.75500,0.06788
5939.68347,0.08286
5941.61194,0.10372
5943.54041,0.08446
5945.46888,0.03274
5947.39734,0.01869
5949.32581,0.05216
5951.25428,0.09313
5953.18275,0.12726
5955.11122,0.14452
5957.03969,0.13197
5958.96816,0.11063
5960.89663,0.08697
5962.82509,0.05965
5964.75356,0.07298
5966.68203,0.13740
5968.61050,0.16858
5970.53897,0.13394
5972.46744,0.11103
5974.39591,0.10888
5976.32437,0.08212
5978.25284,0.05686
5980.18131,0.05997
5982.10978,0.06801
5984.03825,0.06066
5985.96672,0.04194
5987.89519,0.02279
5989.82366,0.01634
5991.75212,0.04559
5993.68059,0.09734
5995.60906,0.10649
5997.53753,0.07155
5999.46600,0.05182
6001.39447,0.06448
6003.32294,0.08241
6005.25140,0.07144
6007.17987,0.06324
6009.10834,0.08938
6011.03681,0.10939
6012.96528,0.11299
6014.89375,0.11312
6016.82222,0.09406
6018.75069,0.07480
6020.67915,0.08678
6022.60762,0.10203
6024.53609,0.10226
6026.46456,0.10886
6028.39303,0.13455
6030.32150,0.17579
6032.24997,0.19447
6034.17843,0.17135
6036.10690,0.15951
6038.03537,0.15641
6039.96384,0.14009
6041.89231,0.13957
6043.82078,0.13914
6045.74925,0.12693
6047.67772,0.12654
6049.60618,0.14405
6051.53465,0.17043
6053.46312,0.17896
6055.39159,0.15314
6057.32006,0.12188
6059.24853,0.09370
6061.17700,0.07474
6063.10546,0.08025
6065.03393,0.08070
6066.96240,0.10011
6068.89087,0.15324
6070.81934,0.18518
6072.74781,0.20018
6074.67628,0.21194
6076.60475,0.17419
6078.53321,0.09298
6080.46168,0.05922
6082.39015,0.10495
6084.31862,0.14221
6086.24709,0.11591
6088.17556,0.07226
6090.10403,0.04243
6092.03249,0.03151
6093.96096,0.04185
6095.88943,0.04694
6097.81790,0.03503
6099.74637,0.04230
6101.67484,0.08148
6103.60331,0.08951
6105.53177,0.04833
6107.46024,0.02591
6109.38871,0.07932
6111.31718,0.16512
6113.24565,0.18222
6115.17412,0.12973
6117.10259,0.07845
6119.03106,0.07185
6120.95952,0.08839
6122.88799,0.08395
6124.81646,0.08145
6126.74493,0.08942
6128.67340,0.06881
6130.60187,0.05194
6132.53034,0.06853
6134.45880,0.06637
6136.38727,0.04331
6138.31574,0.03952
6140.24421,0.04419
6142.17268,0.06476
6144.10115,0.10299
6146.02962,0.09462
6147.95809,0.05024
6149.88655,0.00205
6151.81502,-0.04466
6153.74349,-0.02819
6155.67196,0.03723
6157.60043,0.07319
6159.52890,0.08926
6161.45737,0.10181
6163.38583,0.10307
6165.31430,0.11118
6167.24277,0.10251
6169.17124,0.06630
6171.09971,0.07188
6173.02818,0.12164
6174.95665,0.14286
6176.88512,0.12674
6178.81358,0.11516
6180.74205,0.11520
6182.67052,0.08280
6184.59899,0.03234
6186.52746,0.01174
6188.45593,0.04967
6190.38440,0.14477
6192.31286,0.19280
6194.24133,0.12973
6196.16980,0.05741
6198.09827,0.06010
6200.02674,0.09381
6201.95521,0.11157
6203.88368,0.08988
6205.81215,0.03947
6207.74061,0.00385
6209.66908,-0.00909
6211.59755,0.03932
6213.52602,0.13846
6215.45449,0.16411
6217.38296,0.10724
6219.31143,0.09800
6221.23989,0.14378
6223.16836,0.15888
6225.09683,0.10925
6227.02530,0.03714
6228.95377,0.02989
6230.88224,0.07929
6232.81071,0.10448
6234.73918,0.10792
6236.66764,0.12014
6238.59611,0.13858
6240.52458,0.15843
6242.45305,0.17260
6244.38152,0.14234
6246.30999,0.06989
6248.23846,0.04913
6250.16692,0.10244
6252.09539,0.13553
6254.02386,0.09646
6255.95233,0.04836
6257.88080,0.08363
6259.80927,0.15900
6261.73774,0.17564
6263.66621,0.14919
6265.59467,0.12569
6267.52314,0.11209
6269.45161,0.08458
6271.38008,0.03332
6273.30855,0.00158
6275.23702,0.00248
6277.16549,0.00346
6279.09395,-0.00614
6281.02242,-0.02336
6282.95089,-0.02789
6284.87936,-0.01115
6286.80783,0.00555
6288.73630,0.01212
6290.66477,0.01992
6292.59323,0.05630
6294.52170,0.10043
6296.45017,0.09942
6298.37864,0.10752
6300.30711,0.15885
6302.23558,0.15129
6304.16405,0.08632
6306.09252,0.08178
6308.02098,0.14112
6309.94945,0.17038
6311.87792,0.15299
6313.80639,0.16391
6315.73486,0.17733
6317.66333,0.13153
6319.59180,0.09217
6321.52026,0.09583
6323.44873,0.08402
6325.37720,0.07840
6327.30567,0.11350
6329.23414,0.12958
6331.16261,0.09941
6333.09108,0.07667
6335.01955,0.08719
6336.94801,0.09971
6338.87648,0.07282
6340.80495,0.03256
6342.73342,0.04580
6344.66189,0.11476
6346.59036,0.17935
6348.51883,0.17146
6350.44729,0.11650
6352.37576,0.10345
6354.30423,0.13581
6356.23270,0.16621
6358.16117,0.15417
6360.08964,0.10669
6362.01811,0.09480
6363.94658,0.12496
6365.87504,0.14055
6367.80351,0.14266
6369.73198,0.16005
6371.66045,0.16031
6373.58892,0.09923
6375.51739,0.04819
6377.44586,0.08033
6379.37432,0.12361
6381.30279,0.11242
6383.23126,0.08689
6385.15973,0.07815
6387.08820,0.06638
6389.01667,0.04870
6390.94514,0.00342
6392.87361,-0.03635
6394.80207,0.02794
6396.73054,0.10907
6398.65901,0.09049
6400.58748,0.03102
6402.51595,0.02238
6404.44442,0.02313
6406.37289,0.00088
6408.30135,0.02658
6410.22982,0.10338
6412.15829,0.17808
6414.08676,0.23328
6416.01523,0.26309
6417.94370,0.26724
6419.87217,0.22106
6421.80064,0.13761
6423.72910,0.08283
6425.65757,0.06009
6427.58604,0.04882
6429.51451,0.06859
6431.44298,0.09635
6433.37145,0.10342
6435.29992,0.08662
6437.22838,0.02576
6439.15685,-0.05122
6441.08532,-0.06891
6443.01379,0.02424
6444.94226,0.19019
6446.87073,0.28334
6448.79920,0.22077
6450.72766,0.11086
6452.65613,0.09928
6454.58460,0.13776
6456.51307,0.14842
6458.44154,0.14513
6460.37001,0.14449
6462.29848,0.12676
6464.22695,0.08625
6466.15541,0.03338
6468.08388,-0.00114
6470.01235,-0.01501
6471.94082,-0.03222
6473.86929,-0.01118
6475.79776,0.04173
6477.72623,0.06760
6479.65469,0.05566
6481.58316,0.01864
6483.51163,0.01507
6485.44010,0.05094
6487.36857,0.05086
6489.29704,0.00854
6491.22551,-0.01646
6493.15398,0.00053
6495.08244,0.04212
6497.01091,0.04991
6498.93938,0.01731
6500.86785,0.01177
6502.79632,0.03084
6504.72479,0.03632
6506.65326,0.06135
6508.58172,0.09986
6510.51019,0.07793
6512.43866,0.02610
6514.36713,0.00739
6516.29560,0.01220
6518.22407,0.06176
6520.15254,0.12513
6522.08101,0.16755
6524.00947,0.18853
6525.93794,0.18184
6527.86641,0.17776
6529.79488,0.14820
6531.72335,0.07681
6533.65182,0.04418
6535.58029,0.08117
6537.50875,0.12393
6539.43722,0.09791
6541.36569,0.04237
6543.29416,0.02766
6545.22263,0.02416
6547.15110,0.02030
6549.07957,0.02388
6551.00804,0.02178
6552.93650,0.04616
6554.86497,0.09710
6556.79344,0.09719
6558.72191,0.05225
6560.65038,0.05616
6562.57885,0.15160
6564.50732,0.26915
6566.43578,0.25059
6568.36425,0.12795
6570.29272,0.05811
6572.22119,0.04110
6574.14966,0.07600
6576.07813,0.16336
6578.00660,0.20340
6579.93507,0.13754
6581.86353,0.02432
6583.79200,-0.03580
6585.72047,-0.02400
6587.64894,0.00952
6589.57741,0.04505
6591.50588,0.04501
6593.43435,-0.01802
6595.36281,-0.04430
6597.29128,0.02249
6599.21975,0.09518
6601.14822,0.13314
6603.07669,0.15357
6605.00516,0.17202
6606.93363,0.17825
6608.86210,0.10441
6610.79056,-0.01553
6612.71903,-0.04725
6614.64750,-0.00132
6616.57597,0.04784
6618.50444,0.07814
6620.43291,0.08605
6622.36138,0.07567
6624.28984,0.03131
6626.21831,-0.00992
6628.14678,0.01489
6630.07525,0.09224
6632.00372,0.16498
6633.93219,0.16580
6635.86066,0.08771
6637.78912,0.06853
6639.71759,0.11335
6641.64606,0.14760
6643.57453,0.20620
6645.50300,0.25736
6647.43147,0.23526
6649.35994,0.17242
6651.28841,0.08408
6653.21687,0.00083
6655.14534,0.02349
6657.07381,0.13260
6659.00228,0.15886
6660.93075,0.08915
6662.85922,0.06273
6664.78769,0.10111
6666.71615,0.11586
6668.64462,0.11709
6670.57309,0.11435
6672.50156,0.08807
6674.43003,0.11535
6676.35850,0.17233
6678.28697,0.19915
6680.21544,0.19067
6682.14390,0.13474
6684.07237,0.07058
6686.00084,0.05722
6687.92931,0.08427
6689.85778,0.11116
6691.78625,0.14421
6693.71472,0.19578
6695.64318,0.25075
6697.57165,0.27701
6699.50012,0.24639
6701.42859,0.19244
6703.35706,0.15581
6705.28553,0.12663
6707.21400,0.14076
6709.14247,0.18334
6711.07093,0.15677
6712.99940,0.09679
6714.92787,0.07878
6716.85634,0.09956
6718.78481,0.11019
6720.71328,0.10585
6722.64175,0.12953
6724.57021,0.13669
6726.49868,0.10587
6728.42715,0.07903
6730.35562,0.05055
6732.28409,0.05214
6734.21256,0.12433
6736.14103,0.19135
6738.06950,0.15697
6739.99796,0.08024
6741.92643,0.06973
6743.85490,0.05422
6745.78337,-0.00529
6747.71184,-0.00403
6749.64031,0.03490
6751.56878,0.05413
6753.49724,0.10467
6755.42571,0.15491
6757.35418,0.16308
6759.28265,0.15714
6761.21112,0.10845
6763.13959,0.00614
6765.06806,-0.01839
6766.99653,0.12361
6768.92499,0.26715
6770.85346,0.22372
6772.78193,0.10296
6774.71040,0.09853
6776.63887,0.17580
6778.56734,0.18645
6780.49581,0.13786
6782.42427,0.09457
6784.35274,0.05619
6786.28121,0.03828
6788.20968,0.05495
6790.13815,0.06837
6792.06662,0.07078
6793.99509,0.05274
6795.92355,0.01946
6797.85202,0.00529
6799.78049,0.01118
6801.70896,0.04209
6803.63743,0.03314
6805.56590,-0.03208
6807.49437,-0.01299
6809.42284,0.08410
6811.35130,0.13515
6813.27977,0.14327
6815.20824,0.18806
6817.13671,0.23045
6819.06518,0.20198
6820.99365,0.10652
6822.92212,0.03163
6824.85058,0.06244
6826.77905,0.09275
6828.70752,0.06332
6830.63599,0.05080
6832.56446,0.06457
6834.49293,0.04794
6836.42140,0.01687
6838.34987,0.03861
6840.27833,0.11328
6842.20680,0.16678
6844.13527,0.16675
6846.06374,0.14172
6847.99221,0.07298
6849.92068,-0.02291
6851.84915,-0.04749
6853.77761,-0.01624
6855.70608,0.00198
6857.63455,-0.00564
6859.56302,-0.00459
6861.49149,0.05801
6863.41996,0.19458
6865.34843,0.25618
6867.27690,0.15697
6869.20536,0.03795
6871.13383,-0.01206
6873.06230,0.03279
6874.99077,0.11732
6876.91924,0.10251
6878.84771,0.02563
6880.77618,-0.00269
6882.70464,0.00180
6884.63311,-0.01019
6886.56158,-0.04616
6888.49005,-0.05864
6890.41852,-0.01408
6892.34699,0.07601
6894.27546,0.18775
6896.20393,0.27876
6898.13239,0.30227
6900.06086,0.25860
6901.98933,0.16897
6903.91780,0.04749
6905.84627,-0.00522
6907.77474,0.06479
6909.70321,0.13834
6911.63167,0.11685
6913.56014,0.01704
6915.48861,-0.01291
6917.41708,0.08379
6919.34555,0.15937
6921.27402,0.13836
6923.20249,0.07967
6925.13096,0.01335
6927.05942,-0.01195
6928.98789,-0.00769
6930.91636,-0.01282
6932.84483,0.01720
6934.77330,0.05848
6936.70177,0.03964
6938.63024,-0.00627
6940.55870,-0.01507
6942.48717,-0.02052
6944.41564,-0.02883
6946.34411,0.04360
6948.27258,0.15509
6950.20105,0.19200
6952.12952,0.16936
6954.05799,0.13719
6955.98645,0.11706
6957.91492,0.07102
6959.84339,-0.00952
6961.77186,0.01167
6963.70033,0.13933
6965.62880,0.21782
6967.55727,0.15583
6969.48573,0.02450
6971.41420,0.01100
6973.34267,0.05393
6975.27114,0.00635
6977.19961,0.04305
6979.12808,0.19200
6981.05655,0.22456
6982.98501,0.09638
6984.91348,0.00805
6986.84195,0.04647
6988.77042,0.08377
6990.69889,0.06695
6992.62736,0.10357
6994.55583,0.19634
6996.48430,0.22652
6998.41276,0.11900
7000.34123,-0.06472
7002.26970,-0.17424
7004.19817,-0.17013
7006.12664,-0.14643
7008.05511,-0.13828
7009.98358,-0.07490
7011.91204,0.05732
7013.84051,0.13281
7015.76898,0.08643
7017.69745,0.04671
7019.62592,0.06398
7021.55439,0.08282
7023.48286,0.14976
7025.41133,0.27940
7027.33979,0.33789
7029.26826,0.28754
7031.19673,0.21090
7033.12520,0.15576
7035.05367,0.14096
7036.98214,0.12246
7038.91061,0.09172
7040.83907,0.08248
7042.76754,0.08110
7044.69601,0.06390
7046.62448,-0.03713
7048.55295,-0.16787
7050.48142,-0.16274
7052.40989,-0.02835
7054.33836,0.15155
7056.26682,0.29223
7058.19529,0.35995
7060.12376,0.36096
7062.05223,0.24411
7063.98070,0.05621
7065.90917,0.00032
7067.83764,0.09089
7069.76610,0.17007
7071.69457,0.13946
7073.62304,0.06008
7075.55151,0.01011
7077.47998,0.04095
7079.40845,0.12462
7081.33692,0.14632
7083.26539,0.11649
7085.19385,0.12062
7087.12232,0.04926
7089.05079,-0.06018
7090.97926,0.01001
7092.90773,0.09894
7094.83620,0.04028
7096.76467,-0.04534
7098.69313,-0.06935
7100.62160,-0.01501
7102.55007,0.00784
7104.47854,-0.07050
7106.40701,-0.08193
7108.33548,0.02890
7110.26395,0.08686
7112.19242,0.10668
7114.12088,0.16530
7116.04935,0.20256
7117.97782,0.14102
7119.90629,0.01445
7121.83476,-0.05389
7123.76323,-0.01742
7125.69170,0.02578
7127.62016,0.01396
7129.54863,-0.01915
7131.47710,-0.06355
7133.40557,-0.09855
7135.33404,-0.13287
7137.26251,-0.12380
7139.19098,-0.01324
7141.11944,0.05659
7143.04791,0.09206
7144.97638,0.25083
7146.90485,0.37003
7148.83332,0.35523
7150.76179,0.29787
7152.69026,0.16336
7154.61873,0.03947
7156.54719,0.03367
7158.47566,0.02839
7160.40413,0.01861
7162.33260,0.07973
7164.26107,0.17942
7166.18954,0.25802
7168.11801,0.27388
7170.04647,0.22350
7171.97494,0.15012
7173.90341,0.05777
7175.83188,-0.00363
7177.76035,0.06467
7179.68882,0.15429
7181.61729,0.15931
7183.54576,0.11857
7185.47422,0.08521
7187.40269,0.06399
7189.33116,0.03313
7191.25963,0.01715
7193.18810,0.06131
7195.11657,0.14376
7197.04504,0.19896
7198.97350,0.18549
7200.90197,0.14819
7202.83044,0.10111
7204.75891,0.02697
7206.68738,0.02365
7208.61585,0.05609
7210.54432,-0.00504
7212.47279,-0.09335
7214.40125,-0.05251
7216.32972,0.13827
7218.25819,0.32500
7220.18666,0.32762
7222.11513,0.19255
7224.04360,0.04002
7225.97207,-0.08526
7227.90053,-0.17798
7229.82900,-0.19984
7231.75747,-0.22281
7233.68594,-0.25516
7235.61441,-0.18233
7237.54288,-0.06181
7239.47135,0.04115
7241.39982,0.15845
7243.32828,0.26068
7245.25675,0.31141
7247.18522,0.27432
7249.11369,0.10111
7251.04216,-0.08591
7252.97063,-0.05622
7254.89910,0.10354
7256.82756,0.11964
7258.75603,0.04417
7260.68450,0.00998
7262.61297,0.03185
7264.54144,-0.05138
7266.46991,-0.21518
7268.39838,-0.22855
7270.32685,-0.08657
7272.25531,-0.02182
7274.18378,-0.08438
7276.11225,-0.11339
7278.04072,-0.09761
7279.96919,-0.10188
7281.89766,-0.13587
7283.82613,-0.06146
7285.75459,0.05064
7287.68306,0.05810
7289.61153,0.07088
7291.54000,0.15162
7293.46847,0.08794
7295.39694,-0.06243
7297.32541,-0.10403
7299.25387,-0.12859
7301.18234,-0.20305
7303.11081,-0.20581
7305.03928,-0.07433
7306.96775,0.11226
7308.89622,0.24787
7310.82469,0.23395
7312.75316,0.14903
7314.68162,0.10117
7316.61009,0.11257
7318.53856,0.12742
7320.46703,0.10937
7322.39550,0.11750
7324.32397,0.16762
7326.25244,0.23479
7328.18090,0.32487
7330.10937,0.37481
7332.03784,0.36616
7333.96631,0.29859
7335.89478,0.20421
7337.82325,0.18487
7339.75172,0.12731
7341.68019,-0.15005
7343.60865,-0.31668
7345.53712,-0.19363
7347.46559,0.09762
7349.39406,0.25987
7351.32253,0.17966
7353.25100,0.02130
7355.17947,-0.04491
7357.10793,-0.02711
7359.03640,0.00782
7360.96487,0.08902
7362.89334,0.19837
7364.82181,0.25898
7366.75028,0.25863
7368.67875,0.22263
7370.60722,0.21050
7372.53568,0.27401
7374.46415,0.31401
7376.39262,0.16965
7378.32109,0.11962
7380.24956,0.22865
7382.17803,0.28697
7384.10650,0.24603
7386.03496,0.21536
7387.96343,0.19843
7389.89190,0.15736
7391.82037,0.15595
7393.74884,0.15097
7395.67731,0.08648
7397.60578,0.03327
7399.53425,-0.06823
7401.46271,-0.24652
7403.39118,-0.35951
7405.31965,-0.22565
7407.24812,-0.01118
7409.17659,0.08557
7411.10506,0.11144
7413.03353,0.08871
7414.96199,0.06158
7416.89046,0.04518
7418.81893,-0.19595
7420.74740,-0.47280
7422.67587,-0.32371
7424.60434,-0.03993
7426.53281,0.06589
7428.46128,-0.02682
7430.38974,-0.08187
7432.31821,0.09476
7434.24668,0.27528
7436.17515,0.31698
7438.10362,0.27542
7440.03209,0.21628
7441.96056,0.16078
7443.88902,0.09217
7445.81749,0.02471
7447.74596,-0.00353
7449.67443,-0.01347
7451.60290,-0.01658
7453.53137,-0.04116
7455.45984,-0.14036
7457.38831,-0.23720
7459.31677,-0.26341
7461.24524,-0.21694
7463.17371,-0.06096
7465.10218,0.18541
7467.03065,0.36674
7468.95912,0.38642
7470.88759,0.26914
7472.81605,0.11360
7474.74452,0.09828
7476.67299,0.18175
7478.60146,0.12287
7480.52993,-0.08380
7482.45840,-0.12381
7484.38687,-0.03544
7486.31533,-0.01668
7488.24380,-0.05904
7490.17227,-0.11808
7492.10074,-0.12191
7494.02921,-0.02431
7495.95768,0.15363
7497.88615,0.40971
