399.19301,-0.13595
401.12148,-0.02649
403.04995,0.64024
404.97842,0.81084
406.90689,0.41165
408.83536,-0.22889
410.76382,-0.07220
412.69229,1.84094
414.62076,3.93282
416.54923,4.96307
418.47770,4.56012
420.40617,2.44459
422.33464,0.77141
424.26311,-0.04378
426.19157,-0.33563
428.12004,-0.16425
430.04851,0.20244
431.97698,0.41831
433.90545,0.39531
435.83392,0.20461
437.76239,0.06665
439.69085,0.13452
441.61932,0.21443
443.54779,0.06155
445.47626,-0.14714
447.40473,-0.10316
449.33320,0.08653
451.26167,0.18638
453.19013,0.23125
455.11860,0.26094
457.04707,0.24843
458.97554,0.20838
460.90401,0.16888
462.83248,0.11116
464.76095,0.04136
466.68942,0.00414
468.61788,0.00196
470.54635,-0.04444
472.47482,-0.27656
474.40329,-0.44424
476.33176,-0.17818
478.26023,0.02995
480.18870,0.09833
482.11716,0.16948
484.04563,0.19937
485.97410,0.14173
487.90257,0.09275
489.83104,0.08386
491.75951,0.09176
493.68798,0.15880
495.61645,0.24975
497.54491,0.23598
499.47338,0.15183
501.40185,0.09893
503.33032,0.07996
505.25879,0.05838
507.18726,0.03329
509.11573,0.03217
511.04419,0.06512
512.97266,0.10902
514.90113,0.14448
516.82960,0.15127
518.75807,0.10702
520.68654,0.08717
522.61501,0.12314
524.54348,0.15212
526.47194,0.15651
528.40041,0.14373
530.32888,0.12260
532.25735,0.13362
534.18582,0.15738
536.11429,0.14807
538.04276,0.13888
539.97122,0.16054
541.89969,0.18228
543.82816,0.17287
545.75663,0.14632
547.68510,0.11858
549.61357,0.08750
551.54204,0.02363
553.47051,-0.03090
555.39897,0.01541
557.32744,0.09505
559.25591,0.13190
561.18438,0.15086
563.11285,0.15199
565.04132,0.15152
566.96979,0.15879
568.89825,0.14168
570.82672,0.12492
572.75519,0.15385
574.68366,0.19311
576.61213,0.18858
578.54060,0.15079
580.46907,0.12195
582.39754,0.11134
584.32600,0.11187
586.25447,0.13575
588.18294,0.16532
590.11141,0.16890
592.03988,0.15008
593.96835,0.13432
595.89682,0.11963
597.82528,0.10541
599.75375,0.11050
601.68222,0.13444
603.61069,0.16719
605.53916,0.18118
607.46763,0.16115
609.39610,0.13334
611.32456,0.12242
613.25303,0.12946
615.18150,0.14347
617.10997,0.15362
619.03844,0.15290
620.96691,0.13627
622.89538,0.11139
624.82385,0.10976
626.75231,0.13812
628.68078,0.13340
630.60925,0.03065
632.53772,-0.08233
634.46619,-0.05090
636.39466,0.05288
638.32313,0.09605
640.25159,0.11025
642.18006,0.15097
644.10853,0.19024
646.03700,0.18880
647.96547,0.16334
649.89394,0.15108
651.82241,0.14979
653.75088,0.14362
655.67934,0.12835
657.60781,0.11014
659.53628,0.10608
661.46475,0.11741
663.39322,0.13283
665.32169,0.14947
667.25016,0.15704
669.17862,0.14431
671.10709,0.13976
673.03556,0.14018
674.96403,0.13271
676.89250,0.12194
678.82097,0.10911
680.74944,0.09831
682.67791,0.10676
684.60637,0.13777
686.53484,0.16609
688.46331,0.16352
690.39178,0.14266
692.32025,0.13586
694.24872,0.14421
696.17719,0.14692
698.10565,0.13818
700.03412,0.12810
701.96259,0.11887
703.89106,0.10874
705.81953,0.10194
707.74800,0.12351
709.67647,0.20370
711.60494,0.28210
713.53340,0.25795
715.46187,0.17846
717.39034,0.15031
719.31881,0.16249
721.24728,0.16345
723.17575,0.14435
725.10422,0.13060
727.03268,0.13294
728.96115,0.13292
730.88962,0.13096
732.81809,0.13393
734.74656,0.13181
736.67503,0.12181
738.60350,0.11222
740.53197,0.11065
742.46043,0.12234
744.38890,0.14067
746.31737,0.15075
748.24584,0.15257
750.17431,0.15434
752.10278,0.15831
754.03125,0.16295
755.95971,0.16690
757.88818,0.16813
759.81665,0.16435
761.74512,0.15629
763.67359,0.14721
765.60206,0.13758
767.53053,0.13050
769.45900,0.13585
771.38746,0.15362
773.31593,0.16902
775.24440,0.16834
777.17287,0.15995
779.10134,0.16029
781.02981,0.16142
782.95828,0.15295
784.88674,0.14431
786.81521,0.14053
788.74368,0.13212
790.67215,0.12566
792.60062,0.13429
794.52909,0.14035
796.45756,0.13130
798.38602,0.12703
800.31449,0.13475
802.24296,0.14740
804.17143,0.15561
806.09990,0.15276
808.02837,0.14707
809.95684,0.14540
811.88531,0.14674
813.81377,0.13960
815.74224,0.12298
817.67071,0.12009
819.59918,0.13589
821.52765,0.15261
823.45612,0.15351
825.38459,0.13751
827.31305,0.12206
829.24152,0.11711
831.16999,0.12066
833.09846,0.13515
835.02693,0.15087
836.95540,0.14820
838.88387,0.13767
840.81234,0.13966
842.74080,0.14639
844.66927,0.14669
846.59774,0.14717
848.52621,0.15401
850.45468,0.16056
852.38315,0.15603
854.31162,0.14339
856.24008,0.14155
858.16855,0.15482
860.09702,0.16030
862.02549,0.14897
863.95396,0.13859
865.88243,0.13699
867.81090,0.13594
869.73937,0.13090
871.66783,0.13159
873.59630,0.14527
875.52477,0.15729
877.45324,0.15680
879.38171,0.15589
881.31018,0.15720
883.23865,0.15199
885.16711,0.15041
887.09558,0.15927
889.02405,0.16263
890.95252,0.15491
892.88099,0.15121
894.80946,0.15485
896.73793,0.15554
898.66640,0.15426
900.59486,0.15444
902.52333,0.15186
904.45180,0.14951
906.38027,0.15616
908.30874,0.16069
910.23721,0.15030
912.16568,0.14106
914.09414,0.14450
916.02261,0.15108
917.95108,0.15421
919.87955,0.15405
921.80802,0.15326
923.73649,0.15606
925.66496,0.16045
927.59343,0.16032
929.52189,0.15617
931.45036,0.15276
933.37883,0.15477
935.30730,0.16223
937.23577,0.16653
939.16424,0.16374
941.09271,0.15810
943.02117,0.15380
944.94964,0.15233
946.87811,0.14706
948.80658,0.13855
950.73505,0.13637
952.66352,0.13724
954.59199,0.13834
956.52045,0.14141
958.44892,0.14345
960.37739,0.14506
962.30586,0.14697
964.23433,0.14940
966.16280,0.15126
968.09127,0.14831
970.01974,0.14543
971.94820,0.14993
973.87667,0.15427
975.80514,0.15408
977.73361,0.15947
979.66208,0.16717
981.59055,0.16790
983.51902,0.16749
985.44748,0.16866
987.37595,0.16864
989.30442,0.16697
991.23289,0.16210
993.16136,0.15616
995.08983,0.15518
997.01830,0.15664
998.94677,0.15833
1000.87523,0.16629
1002.80370,0.16917
1004.73217,0.15723
1006.66064,0.15178
1008.58911,0.16319
1010.51758,0.17443
1012.44605,0.17598
1014.37451,0.17134
1016.30298,0.16468
1018.23145,0.15759
1020.15992,0.15211
1022.08839,0.15626
1024.01686,0.16760
1025.94533,0.16876
1027.87380,0.15635
1029.80226,0.14833
1031.73073,0.15786
1033.65920,0.17450
1035.58767,0.18124
1037.51614,0.17792
1039.44461,0.17352
1041.37308,0.17374
1043.30154,0.17911
1045.23001,0.17887
1047.15848,0.16976
1049.08695,0.16221
1051.01542,0.16109
1052.94389,0.16577
1054.87236,0.17414
1056.80083,0.18082
1058.72929,0.17639
1060.65776,0.16259
1062.58623,0.15611
1064.51470,0.16155
1066.44317,0.16578
1068.37164,0.16864
1070.30011,0.17765
1072.22857,0.18163
1074.15704,0.17570
1076.08551,0.17007
1078.01398,0.16864
1079.94245,0.17079
1081.87092,0.17613
1083.79939,0.18133
1085.72786,0.18222
1087.65632,0.18099
1089.58479,0.18157
1091.51326,0.18353
1093.44173,0.18799
1095.37020,0.19407
1097.29867,0.19203
1099.22714,0.18440
1101.15560,0.18307
1103.08407,0.18471
1105.01254,0.18135
1106.94101,0.17275
1108.86948,0.16776
1110.79795,0.17175
1112.72642,0.17800
1114.65489,0.18238
1116.58335,0.18545
1118.51182,0.18583
1120.44029,0.18556
1122.36876,0.18837
1124.29723,0.18719
1126.22570,0.17463
1128.15417,0.15957
1130.08263,0.15493
1132.01110,0.15846
1133.93957,0.16120
1135.86804,0.16355
1137.79651,0.16755
1139.72498,0.17030
1141.65345,0.17287
1143.58191,0.17908
1145.51038,0.18675
1147.43885,0.18953
1149.36732,0.18567
1151.29579,0.18004
1153.22426,0.17626
1155.15273,0.17360
1157.08120,0.17249
1159.00966,0.17476
1160.93813,0.18040
1162.86660,0.18667
1164.79507,0.18862
1166.72354,0.18573
1168.65201,0.18237
1170.58048,0.17953
1172.50894,0.17856
1174.43741,0.18153
1176.36588,0.18412
1178.29435,0.18269
1180.22282,0.17817
1182.15129,0.17310
1184.07976,0.17433
1186.00823,0.18220
1187.93669,0.18314
1189.86516,0.17402
1191.79363,0.16775
1193.72210,0.17025
1195.65057,0.17597
1197.57904,0.17833
1199.50751,0.17987
1201.43597,0.18393
1203.36444,0.18433
1205.29291,0.17959
1207.22138,0.17657
1209.14985,0.17795
1211.07832,0.18158
1213.00679,0.18460
1214.93526,0.18498
1216.86372,0.18472
1218.79219,0.18642
1220.72066,0.18759
1222.64913,0.18711
1224.57760,0.18675
1226.50607,0.18512
1228.43454,0.18235
1230.36300,0.17960
1232.29147,0.17595
1234.21994,0.17284
1236.14841,0.17152
1238.07688,0.17257
1240.00535,0.17698
1241.93382,0.18178
1243.86229,0.18281
1245.79075,0.18169
1247.71922,0.18156
1249.64769,0.18213
1251.57616,0.18324
1253.50463,0.18256
1255.43310,0.17867
1257.36157,0.17669
1259.29003,0.17832
1261.21850,0.18080
1263.14697,0.18369
1265.07544,0.18683
1267.00391,0.19056
1268.93238,0.19423
1270.86085,0.19349
1272.78932,0.18758
1274.71778,0.18219
1276.64625,0.18159
1278.57472,0.18599
1280.50319,0.19151
1282.43166,0.19349
1284.36013,0.19168
1286.28860,0.18714
1288.21706,0.18304
1290.14553,0.18190
1292.07400,0.18143
1294.00247,0.18206
1295.93094,0.18481
1297.85941,0.18652
1299.78788,0.18533
1301.71634,0.18222
1303.64481,0.18073
1305.57328,0.18369
1307.50175,0.18755
1309.43022,0.18826
1311.35869,0.18736
1313.28716,0.18686
1315.21563,0.18797
1317.14409,0.19139
1319.07256,0.19258
1321.00103,0.18792
1322.92950,0.18293
1324.85797,0.18258
1326.78644,0.18569
1328.71491,0.18878
1330.64337,0.18801
1332.57184,0.18592
1334.50031,0.18856
1336.42878,0.19402
1338.35725,0.19665
1340.28572,0.19764
1342.21419,0.20958
1344.14266,0.22807
1346.07112,0.22563
1347.99959,0.20221
1349.92806,0.18811
1351.85653,0.18688
1353.78500,0.18388
1355.71347,0.17964
1357.64194,0.17852
1359.57040,0.18189
1361.49887,0.18926
1363.42734,0.19179
1365.35581,0.18690
1367.28428,0.18301
1369.21275,0.18374
1371.14122,0.18931
1373.06969,0.19699
1374.99815,0.19830
1376.92662,0.19428
1378.85509,0.19461
1380.78356,0.19839
1382.71203,0.20189
1384.64050,0.20414
1386.56897,0.20395
1388.49743,0.20045
1390.42590,0.19869
1392.35437,0.20483
1394.28284,0.21260
1396.21131,0.21133
1398.13978,0.20634
1400.06825,0.20219
1401.99672,0.20023
1403.92518,0.20244
1405.85365,0.20387
1407.78212,0.20049
1409.71059,0.19608
1411.63906,0.19438
1413.56753,0.19653
1415.49600,0.20211
1417.42446,0.20992
1419.35293,0.21201
1421.28140,0.20614
1423.20987,0.20122
1425.13834,0.19646
1427.06681,0.19411
1428.99528,0.19746
1430.92375,0.20013
1432.85221,0.19997
1434.78068,0.20242
1436.70915,0.20527
1438.63762,0.20307
1440.56609,0.19977
1442.49456,0.19855
1444.42303,0.20011
1446.35149,0.20375
1448.27996,0.20751
1450.20843,0.20934
1452.13690,0.21125
1454.06537,0.21931
1455.99384,0.23493
1457.92231,0.23694
1459.85077,0.22074
1461.77924,0.21407
1463.70771,0.21705
1465.63618,0.21313
1467.56465,0.20167
1469.49312,0.20254
1471.42159,0.22026
1473.35006,0.23602
1475.27852,0.23057
1477.20699,0.21881
1479.13546,0.21073
1481.06393,0.20690
1482.99240,0.20491
1484.92087,0.20575
1486.84934,0.21406
1488.77780,0.22574
1490.70627,0.22321
1492.63474,0.21498
1494.56321,0.21713
1496.49168,0.22669
1498.42015,0.22737
1500.34862,0.21806
1502.27709,0.21425
1504.20555,0.21987
1506.13402,0.23715
1508.06249,0.24493
1509.99096,0.22827
1511.91943,0.21834
1513.84790,0.22173
1515.77637,0.23211
1517.70483,0.24065
1519.63330,0.24670
1521.56177,0.24728
1523.49024,0.23577
1525.41871,0.22719
1527.34718,0.22020
1529.27565,0.21328
1531.20412,0.21603
1533.13258,0.22400
1535.06105,0.22229
1536.98952,0.22458
1538.91799,0.24890
1540.84646,0.26958
1542.77493,0.24744
1544.70340,0.22466
1546.63186,0.21473
1548.56033,0.21344
1550.48880,0.21348
1552.41727,0.21422
1554.34574,0.22198
1556.27421,0.24194
1558.20268,0.27116
1560.13115,0.25463
1562.05961,0.22383
1563.98808,0.21320
1565.91655,0.21503
1567.84502,0.22505
1569.77349,0.23189
1571.70196,0.22653
1573.63043,0.22317
1575.55889,0.22373
1577.48736,0.21501
1579.41583,0.20355
1581.34430,0.19829
1583.27277,0.19537
1585.20124,0.19286
1587.12971,0.19438
1589.05818,0.19879
1590.98664,0.20137
1592.91511,0.20329
1594.84358,0.20402
1596.77205,0.19823
1598.70052,0.19035
1600.62899,0.18813
1602.55746,0.18968
1604.48592,0.18983
1606.41439,0.19018
1608.34286,0.19322
1610.27133,0.19632
1612.19980,0.20026
1614.12827,0.20933
1616.05674,0.22016
1617.98521,0.21903
1619.91367,0.21467
1621.84214,0.21987
1623.77061,0.22727
1625.69908,0.22364
1627.62755,0.21383
1629.55602,0.20881
1631.48449,0.21359
1633.41295,0.22721
1635.34142,0.24144
1637.26989,0.23402
1639.19836,0.21915
1641.12683,0.21256
1643.05530,0.21553
1644.98377,0.22861
1646.91223,0.24411
1648.84070,0.24494
1650.76917,0.24710
1652.69764,0.26142
1654.62611,0.25057
1656.55458,0.22729
1658.48305,0.21719
1660.41152,0.21814
1662.33998,0.22350
1664.26845,0.22261
1666.19692,0.22191
1668.12539,0.23101
1670.05386,0.24003
1671.98233,0.23803
1673.91080,0.23442
1675.83926,0.22971
1677.76773,0.22703
1679.69620,0.23060
1681.62467,0.23995
1683.55314,0.25213
1685.48161,0.24648
1687.41008,0.23215
1689.33855,0.22475
1691.26701,0.22095
1693.19548,0.22358
1695.12395,0.23727
1697.05242,0.25113
1698.98089,0.24873
1700.90936,0.23261
1702.83783,0.22441
1704.76629,0.22685
1706.69476,0.22464
1708.62323,0.21497
1710.55170,0.20828
1712.48017,0.21088
1714.40864,0.22644
1716.33711,0.24608
1718.26558,0.23819
1720.19404,0.21572
1722.12251,0.20446
1724.05098,0.20110
1725.97945,0.20276
1727.90792,0.21032
1729.83639,0.21958
1731.76486,0.22754
1733.69332,0.23351
1735.62179,0.22647
1737.55026,0.21759
1739.47873,0.21743
1741.40720,0.22180
1743.33567,0.22421
1745.26414,0.22589
1747.19261,0.23012
1749.12107,0.23373
1751.04954,0.22728
1752.97801,0.21504
1754.90648,0.20907
1756.83495,0.20951
1758.76342,0.20964
1760.69189,0.20902
1762.62035,0.20892
1764.54882,0.20858
1766.47729,0.20992
1768.40576,0.21370
1770.33423,0.22111
1772.26270,0.22801
1774.19117,0.22523
1776.11964,0.21746
1778.04810,0.21157
1779.97657,0.21214
1781.90504,0.21667
1783.83351,0.21792
1785.76198,0.21374
1787.69045,0.20939
1789.61892,0.21292
1791.54738,0.22241
1793.47585,0.22583
1795.40432,0.22181
1797.33279,0.21905
1799.26126,0.22076
1801.18973,0.22133
1803.11820,0.21739
1805.04666,0.21407
1806.97513,0.21402
1808.90360,0.21503
1810.83207,0.21276
1812.76054,0.20789
1814.68901,0.20602
1816.61748,0.20464
1818.54595,0.19887
1820.47441,0.19825
1822.40288,0.20863
1824.33135,0.21748
1826.25982,0.21735
1828.18829,0.21649
1830.11676,0.21654
1832.04523,0.21184
1833.97369,0.20521
1835.90216,0.20156
1837.83063,0.20076
1839.75910,0.20233
1841.68757,0.20911
1843.61604,0.21823
1845.54451,0.21891
1847.47298,0.21391
1849.40144,0.20879
1851.32991,0.20231
1853.25838,0.19798
1855.18685,0.19866
1857.11532,0.20200
1859.04379,0.20558
1860.97226,0.20768
1862.90072,0.20801
1864.82919,0.20961
1866.75766,0.21431
1868.68613,0.21606
1870.61460,0.21057
1872.54307,0.20610
1874.47154,0.20577
1876.40001,0.20716
1878.32847,0.20856
1880.25694,0.20818
1882.18541,0.20690
1884.11388,0.20685
1886.04235,0.20641
1887.97082,0.20464
1889.89929,0.20270
1891.82775,0.20217
1893.75622,0.20370
1895.68469,0.20436
1897.61316,0.20216
1899.54163,0.20211
1901.47010,0.20685
1903.39857,0.21065
1905.32704,0.21035
1907.25550,0.20950
1909.18397,0.20996
1911.11244,0.20949
1913.04091,0.20840
1914.96938,0.21040
1916.89785,0.21471
1918.82632,0.21556
1920.75478,0.21304
1922.68325,0.21141
1924.61172,0.21020
1926.54019,0.20886
1928.46866,0.20827
1930.39713,0.20862
1932.32560,0.21035
1934.25407,0.21083
1936.18253,0.20771
1938.11100,0.20526
1940.03947,0.20681
1941.96794,0.21019
1943.89641,0.21217
1945.82488,0.21041
1947.75335,0.20607
1949.68181,0.20360
1951.61028,0.20522
1953.53875,0.20895
1955.46722,0.21075
1957.39569,0.20892
1959.32416,0.20621
1961.25263,0.20599
1963.18110,0.20866
1965.10956,0.21200
1967.03803,0.21296
1968.96650,0.21018
1970.89497,0.20658
1972.82344,0.20398
1974.75191,0.20211
1976.68038,0.20290
1978.60884,0.20617
1980.53731,0.20838
1982.46578,0.20851
1984.39425,0.20849
1986.32272,0.20832
1988.25119,0.20715
1990.17966,0.20719
1992.10812,0.20801
1994.03659,0.20656
1995.96506,0.20364
1997.89353,0.20157
1999.82200,0.20211
2001.75047,0.20437
2003.67894,0.20534
2005.60741,0.20523
2007.53587,0.20685
2009.46434,0.20910
2011.39281,0.20869
2013.32128,0.20759
2015.24975,0.20837
2017.17822,0.20804
2019.10669,0.20598
2021.03515,0.20650
2022.96362,0.20858
2024.89209,0.20853
2026.82056,0.20743
2028.74903,0.20724
2030.67750,0.20866
2032.60597,0.20997
2034.53444,0.20815
2036.46290,0.20574
2038.39137,0.20639
2040.31984,0.20832
2042.24831,0.20943
2044.17678,0.20998
2046.10525,0.20965
2048.03372,0.20885
2049.96218,0.20882
2051.89065,0.20893
2053.81912,0.20771
2055.74759,0.20473
2057.67606,0.20238
2059.60453,0.20439
2061.53300,0.20946
2063.46147,0.21248
2065.38993,0.21251
2067.31840,0.21246
2069.24687,0.21244
2071.17534,0.21112
2073.10381,0.20909
2075.03228,0.20671
2076.96075,0.20494
2078.88921,0.20592
2080.81768,0.20871
2082.74615,0.20913
2084.67462,0.20637
2086.60309,0.20461
2088.53156,0.20558
2090.46003,0.20790
2092.38850,0.20999
2094.31696,0.21025
2096.24543,0.20923
2098.17390,0.20867
2100.10237,0.20915
2102.03084,0.21023
2103.95931,0.21150
2105.88778,0.21162
2107.81624,0.20978
2109.74471,0.20870
2111.67318,0.20972
2113.60165,0.21122
2115.53012,0.21231
2117.45859,0.21225
2119.38706,0.21064
2121.31553,0.20901
2123.24399,0.20884
2125.17246,0.20964
2127.10093,0.21047
2129.02940,0.21109
2130.95787,0.21046
2132.88634,0.20619
2134.81481,0.19976
2136.74327,0.19699
2138.67174,0.19990
2140.60021,0.20483
2142.52868,0.20752
2144.45715,0.20712
2146.38562,0.20606
2148.31409,0.20609
2150.24255,0.20654
2152.17102,0.20716
2154.09949,0.20713
2156.02796,0.20435
2157.95643,0.20073
2159.88490,0.20079
2161.81337,0.20477
2163.74184,0.20800
2165.67030,0.20801
2167.59877,0.20823
2169.52724,0.21020
2171.45571,0.21056
2173.38418,0.20825
2175.31265,0.20666
2177.24112,0.20860
2179.16958,0.21292
2181.09805,0.21565
2183.02652,0.21566
2184.95499,0.21512
2186.88346,0.21316
2188.81193,0.20899
2190.74040,0.20590
2192.66887,0.20498
2194.59733,0.20537
2196.52580,0.20703
2198.45427,0.20825
2200.38274,0.20856
2202.31121,0.20896
2204.23968,0.20912
2206.16815,0.20906
2208.09661,0.20915
2210.02508,0.20932
2211.95355,0.20909
2213.88202,0.20791
2215.81049,0.20648
2217.73896,0.20655
2219.66743,0.20831
2221.59590,0.20894
2223.52436,0.20785
2225.45283,0.20726
2227.38130,0.20579
2229.30977,0.20322
2231.23824,0.20281
2233.16671,0.20485
2235.09518,0.20783
2237.02364,0.20902
2238.95211,0.20722
2240.88058,0.20493
2242.80905,0.20395
2244.73752,0.20527
2246.66599,0.20891
2248.59446,0.21247
2250.52293,0.21374
2252.45139,0.21302
2254.37986,0.21080
2256.30833,0.20712
2258.23680,0.20468
2260.16527,0.20508
2262.09374,0.20695
2264.02221,0.20989
2265.95067,0.21125
2267.87914,0.20870
2269.80761,0.20745
2271.73608,0.20928
2273.66455,0.20962
2275.59302,0.20898
2277.52149,0.20982
2279.44996,0.21092
2281.37842,0.20965
2283.30689,0.20577
2285.23536,0.20257
2287.16383,0.20252
2289.09230,0.20430
2291.02077,0.20464
2292.94924,0.20316
2294.87770,0.20254
2296.80617,0.20281
2298.73464,0.20198
2300.66311,0.20060
2302.59158,0.20110
2304.52005,0.20438
2306.44852,0.20807
2308.37699,0.20859
2310.30545,0.20443
2312.23392,0.20040
2314.16239,0.20177
2316.09086,0.20375
2318.01933,0.19991
2319.94780,0.19105
2321.87627,0.18428
2323.80473,0.18418
2325.73320,0.18425
2327.66167,0.17975
2329.59014,0.17605
2331.51861,0.18250
2333.44708,0.19957
2335.37555,0.21165
2337.30401,0.20740
2339.23248,0.19612
2341.16095,0.18975
2343.08942,0.18966
2345.01789,0.19567
2346.94636,0.19965
2348.87483,0.19897
2350.80330,0.20176
2352.73176,0.21278
2354.66023,0.22236
2356.58870,0.21026
2358.51717,0.17645
2360.44564,0.15850
2362.37411,0.17663
2364.30258,0.20300
2366.23104,0.21753
2368.15951,0.22173
2370.08798,0.21275
2372.01645,0.20100
2373.94492,0.19908
2375.87339,0.20029
2377.80186,0.19960
2379.73033,0.19984
2381.65879,0.20172
2383.58726,0.20467
2385.51573,0.20741
2387.44420,0.20807
2389.37267,0.20740
2391.30114,0.20814
2393.22961,0.21061
2395.15807,0.21184
2397.08654,0.20933
2399.01501,0.20534
2400.94348,0.20400
2402.87195,0.20650
2404.80042,0.21077
2406.72889,0.21266
2408.65736,0.21226
2410.58582,0.21312
2412.51429,0.21354
2414.44276,0.21094
2416.37123,0.20889
2418.29970,0.20897
2420.22817,0.20842
2422.15664,0.20866
2424.08510,0.21140
2426.01357,0.21273
2427.94204,0.21057
2429.87051,0.20841
2431.79898,0.20779
2433.72745,0.20637
2435.65592,0.20495
2437.58439,0.20600
2439.51285,0.20843
2441.44132,0.21045
2443.36979,0.21195
2445.29826,0.21287
2447.22673,0.21143
2449.15520,0.21032
2451.08367,0.21626
2453.01213,0.22037
2454.94060,0.21187
2456.86907,0.20327
2458.79754,0.20345
2460.72601,0.20550
2462.65448,0.20658
2464.58295,0.20815
2466.51142,0.21124
2468.43988,0.21420
2470.36835,0.21405
2472.29682,0.21193
2474.22529,0.21040
2476.15376,0.20977
2478.08223,0.20898
2480.01070,0.20852
2481.93916,0.20930
2483.86763,0.21006
2485.79610,0.20976
2487.72457,0.20911
2489.65304,0.20938
2491.58151,0.21014
2493.50998,0.21045
2495.43844,0.21082
2497.36691,0.21109
2499.29538,0.21175
2501.22385,0.21275
2503.15232,0.21206
2505.08079,0.21049
2507.00926,0.21034
2508.93773,0.21105
2510.86619,0.21069
2512.79466,0.21022
2514.72313,0.21203
2516.65160,0.21389
2518.58007,0.21251
2520.50854,0.20977
2522.43701,0.20922
2524.36547,0.21058
2526.29394,0.21146
2528.22241,0.21181
2530.15088,0.21208
2532.07935,0.21222
2534.00782,0.21266
2535.93629,0.21289
2537.86476,0.21421
2539.79322,0.21567
2541.72169,0.21159
2543.65016,0.20608
2545.57863,0.20838
2547.50710,0.21365
2549.43557,0.21369
2551.36404,0.21183
2553.29250,0.21209
2555.22097,0.21224
2557.14944,0.21175
2559.07791,0.21247
2561.00638,0.21297
2562.93485,0.21296
2564.86332,0.21466
2566.79179,0.21498
2568.72025,0.21200
2570.64872,0.21071
2572.57719,0.21253
2574.50566,0.21522
2576.43413,0.21798
2578.36260,0.21993
2580.29107,0.22143
2582.21953,0.22200
2584.14800,0.21968
2586.07647,0.21475
2588.00494,0.21036
2589.93341,0.21037
2591.86188,0.21375
2593.79035,0.21523
2595.71882,0.21376
2597.64728,0.21232
2599.57575,0.21286
2601.50422,0.21563
2603.43269,0.21793
2605.36116,0.21773
2607.28963,0.21527
2609.21810,0.21032
2611.14656,0.20764
2613.07503,0.21014
2615.00350,0.21092
2616.93197,0.20822
2618.86044,0.20773
2620.78891,0.20986
2622.71738,0.21249
2624.64585,0.21584
2626.57431,0.21753
2628.50278,0.21585
2630.43125,0.21415
2632.35972,0.21464
2634.28819,0.21664
2636.21666,0.21900
2638.14513,0.22086
2640.07359,0.22028
2642.00206,0.21600
2643.93053,0.21136
2645.85900,0.20986
2647.78747,0.21149
2649.71594,0.21362
2651.64441,0.21354
2653.57288,0.21233
2655.50134,0.21309
2657.42981,0.21564
2659.35828,0.21684
2661.28675,0.21729
2663.21522,0.21954
2665.14369,0.22069
2667.07216,0.21889
2669.00062,0.21822
2670.92909,0.22034
2672.85756,0.22187
2674.78603,0.22078
2676.71450,0.21861
2678.64297,0.21766
2680.57144,0.21895
2682.49990,0.22043
2684.42837,0.21970
2686.35684,0.21739
2688.28531,0.21558
2690.21378,0.21508
2692.14225,0.21310
2694.07072,0.20929
2695.99919,0.20882
2697.92765,0.21264
2699.85612,0.21622
2701.78459,0.21754
2703.71306,0.21824
2705.64153,0.21915
2707.57000,0.21976
2709.49847,0.22083
2711.42693,0.22165
2713.35540,0.21965
2715.28387,0.21540
2717.21234,0.21255
2719.14081,0.21338
2721.06928,0.21536
2722.99775,0.21546
2724.92622,0.21470
2726.85468,0.21412
2728.78315,0.21346
2730.71162,0.21423
2732.64009,0.21843
2734.56856,0.22187
2736.49703,0.21966
2738.42550,0.21770
2740.35396,0.22123
2742.28243,0.22546
2744.21090,0.22649
2746.13937,0.22435
2748.06784,0.22186
2749.99631,0.22374
2751.92478,0.22675
2753.85325,0.22437
2755.78171,0.22072
2757.71018,0.22279
2759.63865,0.22726
2761.56712,0.22851
2763.49559,0.22757
2765.42406,0.22596
2767.35253,0.22403
2769.28099,0.22254
2771.20946,0.22249
2773.13793,0.22457
2775.06640,0.22594
2776.99487,0.22456
2778.92334,0.22339
2780.85181,0.22594
2782.78028,0.23067
2784.70874,0.23205
2786.63721,0.22936
2788.56568,0.22835
2790.49415,0.22902
2792.42262,0.22681
2794.35109,0.22423
2796.27956,0.22398
2798.20802,0.22461
2800.13649,0.22617
2802.06496,0.22835
2803.99343,0.22881
2805.92190,0.22864
2807.85037,0.22977
2809.77884,0.23047
2811.70731,0.23114
2813.63577,0.23376
2815.56424,0.23641
2817.49271,0.23475
2819.42118,0.23033
2821.34965,0.22972
2823.27812,0.23256
2825.20659,0.23441
2827.13505,0.23316
2829.06352,0.22969
2830.99199,0.22844
2832.92046,0.23112
2834.84893,0.23365
2836.77740,0.23369
2838.70587,0.23255
2840.63433,0.23088
2842.56280,0.22883
2844.49127,0.22631
2846.41974,0.22564
2848.34821,0.22836
2850.27668,0.23017
2852.20515,0.22912
2854.13362,0.22836
2856.06208,0.22922
2857.99055,0.23086
2859.91902,0.23283
2861.84749,0.23503
2863.77596,0.23510
2865.70443,0.23286
2867.63290,0.23300
2869.56136,0.23398
2871.48983,0.23153
2873.41830,0.22780
2875.34677,0.22556
2877.27524,0.22464
2879.20371,0.22616
2881.13218,0.23156
2883.06065,0.23411
2884.98911,0.23099
2886.91758,0.23031
2888.84605,0.23293
2890.77452,0.23297
2892.70299,0.23120
2894.63146,0.23099
2896.55993,0.23093
2898.48839,0.23003
2900.41686,0.22974
2902.34533,0.23052
2904.27380,0.23020
2906.20227,0.22809
2908.13074,0.22739
2910.05921,0.22671
2911.98768,0.22415
2913.91614,0.22357
2915.84461,0.22537
2917.77308,0.22713
2919.70155,0.22902
2921.63002,0.23153
2923.55849,0.23951
2925.48696,0.25323
2927.41542,0.25791
2929.34389,0.24676
2931.27236,0.23250
2933.20083,0.22600
2935.12930,0.22392
2937.05777,0.22272
2938.98624,0.22476
2940.91471,0.22879
2942.84317,0.23269
2944.77164,0.23457
2946.70011,0.23175
2948.62858,0.22803
2950.55705,0.22940
2952.48552,0.23278
2954.41399,0.23315
2956.34245,0.23259
2958.27092,0.23405
2960.19939,0.23721
2962.12786,0.23781
2964.05633,0.23406
2965.98480,0.23074
2967.91327,0.22960
2969.84174,0.23005
2971.77020,0.23219
2973.69867,0.23256
2975.62714,0.23122
2977.55561,0.23241
2979.48408,0.23504
2981.41255,0.23580
2983.34102,0.23506
2985.26948,0.23653
2987.19795,0.23970
2989.12642,0.24047
2991.05489,0.23902
2992.98336,0.23568
2994.91183,0.23271
2996.84030,0.23178
2998.76877,0.22938
3000.69723,0.22757
3002.62570,0.23029
3004.55417,0.23338
3006.48264,0.23319
3008.41111,0.23351
3010.33958,0.23704
3012.26805,0.23819
3014.19651,0.23167
3016.12498,0.22421
3018.05345,0.22440
3019.98192,0.22864
3021.91039,0.23183
3023.83886,0.23563
3025.76733,0.23866
3027.69579,0.23661
3029.62426,0.23314
3031.55273,0.23391
3033.48120,0.23612
3035.40967,0.23582
3037.33814,0.23409
3039.26661,0.23427
3041.19508,0.23602
3043.12354,0.23519
3045.05201,0.23164
3046.98048,0.22840
3048.90895,0.22812
3050.83742,0.23014
3052.76589,0.23027
3054.69436,0.22970
3056.62282,0.23166
3058.55129,0.23600
3060.47976,0.24132
3062.40823,0.24194
3064.33670,0.23789
3066.26517,0.23674
3068.19364,0.23679
3070.12211,0.23422
3072.05057,0.23175
3073.97904,0.23164
3075.90751,0.23567
3077.83598,0.24107
3079.76445,0.24186
3081.69292,0.23645
3083.62139,0.22451
3085.54985,0.21474
3087.47832,0.22118
3089.40679,0.23540
3091.33526,0.23915
3093.26373,0.23544
3095.19220,0.23284
3097.12067,0.23184
3099.04914,0.23315
3100.97760,0.23377
3102.90607,0.23142
3104.83454,0.23065
3106.76301,0.23400
3108.69148,0.23803
3110.61995,0.23896
3112.54842,0.23676
3114.47688,0.23386
3116.40535,0.23429
3118.33382,0.23692
3120.26229,0.23665
3122.19076,0.23453
3124.11923,0.23381
3126.04770,0.23635
3127.97617,0.24107
3129.90463,0.24297
3131.83310,0.24076
3133.76157,0.23647
3135.69004,0.23206
3137.61851,0.23115
3139.54698,0.23299
3141.47545,0.23251
3143.40391,0.23104
3145.33238,0.23427
3147.26085,0.24057
3149.18932,0.24272
3151.11779,0.23927
3153.04626,0.23499
3154.97473,0.23483
3156.90320,0.23894
3158.83166,0.24346
3160.76013,0.24607
3162.68860,0.24614
3164.61707,0.24417
3166.54554,0.24226
3168.47401,0.24294
3170.40248,0.24319
3172.33094,0.23845
3174.25941,0.23434
3176.18788,0.23675
3178.11635,0.24271
3180.04482,0.24698
3181.97329,0.24605
3183.90176,0.24174
3185.83022,0.23925
3187.75869,0.23952
3189.68716,0.23977
3191.61563,0.23713
3193.54410,0.23404
3195.47257,0.23604
3197.40104,0.24110
3199.32951,0.24343
3201.25797,0.24189
3203.18644,0.24138
3205.11491,0.24389
3207.04338,0.24436
3208.97185,0.24428
3210.90032,0.24759
3212.82879,0.24963
3214.75725,0.24664
3216.68572,0.24436
3218.61419,0.24473
3220.54266,0.24073
3222.47113,0.23533
3224.39960,0.23492
3226.32807,0.23725
3228.25654,0.24095
3230.18500,0.24273
3232.11347,0.23943
3234.04194,0.23451
3235.97041,0.23099
3237.89888,0.23351
3239.82735,0.24240
3241.75582,0.24503
3243.68428,0.23849
3245.61275,0.23745
3247.54122,0.24264
3249.46969,0.24207
3251.39816,0.23770
3253.32663,0.23345
3255.25510,0.22932
3257.18357,0.23275
3259.11203,0.24291
3261.04050,0.24555
3262.96897,0.23713
3264.89744,0.23068
3266.82591,0.23389
3268.75438,0.23984
3270.68285,0.24073
3272.61131,0.23931
3274.53978,0.24315
3276.46825,0.24718
3278.39672,0.24175
3280.32519,0.23284
3282.25366,0.23112
3284.18213,0.23653
3286.11060,0.24234
3288.03906,0.24280
3289.96753,0.23797
3291.89600,0.23433
3293.82447,0.23479
3295.75294,0.23585
3297.68141,0.23504
3299.60988,0.23234
3301.53834,0.23125
3303.46681,0.23618
3305.39528,0.24400
3307.32375,0.24539
3309.25222,0.23908
3311.18069,0.23359
3313.10916,0.23181
3315.03763,0.23071
3316.96609,0.23302
3318.89456,0.24102
3320.82303,0.24632
3322.75150,0.24378
3324.67997,0.24155
3326.60844,0.24260
3328.53691,0.24147
3330.46537,0.23847
3332.39384,0.23693
3334.32231,0.23810
3336.25078,0.24133
3338.17925,0.24286
3340.10772,0.24195
3342.03619,0.24210
3343.96466,0.24039
3345.89312,0.23444
3347.82159,0.23356
3349.75006,0.23969
3351.67853,0.24315
3353.60700,0.24230
3355.53547,0.24097
3357.46394,0.24014
3359.39240,0.24047
3361.32087,0.24080
3363.24934,0.24104
3365.17781,0.24395
3367.10628,0.24758
3369.03475,0.24889
3370.96322,0.24699
3372.89168,0.24179
3374.82015,0.23704
3376.74862,0.23450
3378.67709,0.23309
3380.60556,0.23380
3382.53403,0.23596
3384.46250,0.23612
3386.39097,0.23619
3388.31943,0.23906
3390.24790,0.24142
3392.17637,0.24225
3394.10484,0.24069
3396.03331,0.23639
3397.96178,0.23533
3399.89025,0.24044
3401.81871,0.24483
3403.74718,0.24190
3405.67565,0.23645
3407.60412,0.23342
3409.53259,0.23181
3411.46106,0.23175
3413.38953,0.23443
3415.31800,0.23891
3417.24646,0.23882
3419.17493,0.23400
3421.10340,0.23369
3423.03187,0.23886
3424.96034,0.23867
3426.88881,0.22935
3428.81728,0.22089
3430.74574,0.21718
3432.67421,0.21693
3434.60268,0.22285
3436.53115,0.22949
3438.45962,0.23065
3440.38809,0.22890
3442.31656,0.22803
3444.24503,0.23162
3446.17349,0.23896
3448.10196,0.24040
3450.03043,0.23262
3451.95890,0.22331
3453.88737,0.21761
3455.81584,0.21809
3457.74431,0.22294
3459.67277,0.22546
3461.60124,0.22424
3463.52971,0.22222
3465.45818,0.21924
3467.38665,0.21861
3469.31512,0.22504
3471.24359,0.23057
3473.17206,0.22791
3475.10052,0.22371
3477.02899,0.22160
3478.95746,0.21964
3480.88593,0.21887
3482.81440,0.21735
3484.74287,0.21320
3486.67134,0.20925
3488.59980,0.20756
3490.52827,0.20745
3492.45674,0.20631
3494.38521,0.20558
3496.31368,0.20765
3498.24215,0.20949
3500.17062,0.21090
3502.09909,0.21511
3504.02755,0.21976
3505.95602,0.22098
3507.88449,0.22199
3509.81296,0.22222
3511.74143,0.21612
3513.66990,0.20535
3515.59837,0.19746
3517.52683,0.19898
3519.45530,0.20257
3521.38377,0.19952
3523.31224,0.19827
3525.24071,0.20231
3527.16918,0.20161
3529.09765,0.19373
3531.02611,0.18771
3532.95458,0.18856
3534.88305,0.19114
3536.81152,0.18854
3538.73999,0.18179
3540.66846,0.17777
3542.59693,0.17938
3544.52540,0.18478
3546.45386,0.18825
3548.38233,0.18661
3550.31080,0.18479
3552.23927,0.18653
3554.16774,0.18864
3556.09621,0.18662
3558.02468,0.18316
3559.95314,0.18361
3561.88161,0.18679
3563.81008,0.19145
3565.73855,0.19992
3567.66702,0.20138
3569.59549,0.18919
3571.52396,0.17743
3573.45243,0.17227
3575.38089,0.17513
3577.30936,0.18180
3579.23783,0.18477
3581.16630,0.18411
3583.09477,0.18495
3585.02324,0.18698
3586.95171,0.18264
3588.88017,0.17145
3590.80864,0.16741
3592.73711,0.17230
3594.66558,0.17541
3596.59405,0.17333
3598.52252,0.17471
3600.45099,0.17626
3602.37946,0.17159
3604.30792,0.16752
3606.23639,0.17184
3608.16486,0.17866
3610.09333,0.17685
3612.02180,0.17498
3613.95027,0.17685
3615.87874,0.17684
3617.80720,0.17832
3619.73567,0.17400
3621.66414,0.16073
3623.59261,0.15419
3625.52108,0.15673
3627.44955,0.16661
3629.37802,0.17691
3631.30649,0.17306
3633.23495,0.16621
3635.16342,0.16466
3637.09189,0.16489
3639.02036,0.16104
3640.94883,0.15693
3642.87730,0.16024
3644.80577,0.17019
3646.73423,0.18195
3648.66270,0.18771
3650.59117,0.17822
3652.51964,0.16583
3654.44811,0.16022
3656.37658,0.15921
3658.30505,0.15743
3660.23352,0.15291
3662.16198,0.14743
3664.09045,0.14719
3666.01892,0.15469
3667.94739,0.16489
3669.87586,0.17025
3671.80433,0.17087
3673.73280,0.18096
3675.66126,0.19309
3677.58973,0.18362
3679.51820,0.16965
3681.44667,0.15954
3683.37514,0.15398
3685.30361,0.15761
3687.23208,0.16646
3689.16055,0.16683
3691.08901,0.15251
3693.01748,0.14160
3694.94595,0.14103
3696.87442,0.14163
3698.80289,0.13927
3700.73136,0.14097
3702.65983,0.14663
3704.58829,0.14765
3706.51676,0.14804
3708.44523,0.15763
3710.37370,0.17436
3712.30217,0.17672
3714.23064,0.16471
3716.15911,0.15798
3718.08757,0.15731
3720.01604,0.15259
3721.94451,0.14205
3723.87298,0.13815
3725.80145,0.14264
3727.72992,0.14527
3729.65839,0.14761
3731.58686,0.15791
3733.51532,0.17485
3735.44379,0.18360
3737.37226,0.17843
3739.30073,0.17073
3741.22920,0.16540
3743.15767,0.16512
3745.08614,0.16910
3747.01460,0.16986
3748.94307,0.17505
3750.87154,0.18152
3752.80001,0.17055
3754.72848,0.15905
3756.65695,0.15893
3758.58542,0.16151
3760.51389,0.15532
3762.44235,0.15017
3764.37082,0.15335
3766.29929,0.15695
3768.22776,0.15687
3770.15623,0.15282
3772.08470,0.14254
3774.01317,0.13471
3775.94163,0.13627
3777.87010,0.14277
3779.79857,0.14658
3781.72704,0.14843
3783.65551,0.15213
3785.58398,0.15522
3787.51245,0.15218
3789.44092,0.14349
3791.36938,0.13608
3793.29785,0.13554
3795.22632,0.14049
3797.15479,0.14694
3799.08326,0.15378
3801.01173,0.16120
3802.94020,0.16075
3804.86866,0.15431
3806.79713,0.15083
3808.72560,0.14782
3810.65407,0.14155
3812.58254,0.13611
3814.51101,0.13636
3816.43948,0.14140
3818.36795,0.14762
3820.29641,0.15636
3822.22488,0.15659
3824.15335,0.14788
3826.08182,0.14196
3828.01029,0.13804
3829.93876,0.13732
3831.86723,0.14059
3833.79569,0.14233
3835.72416,0.14125
3837.65263,0.14035
3839.58110,0.13990
3841.50957,0.13989
3843.43804,0.14100
3845.36651,0.14350
3847.29498,0.14709
3849.22344,0.15341
3851.15191,0.16836
3853.08038,0.18476
3855.00885,0.16665
3856.93732,0.14554
3858.86579,0.14082
3860.79426,0.14337
3862.72272,0.14485
3864.65119,0.14050
3866.57966,0.13677
3868.50813,0.13847
3870.43660,0.13918
3872.36507,0.13889
3874.29354,0.14177
3876.22200,0.14467
3878.15047,0.14720
3880.07894,0.15007
3882.00741,0.15041
3883.93588,0.14460
3885.86435,0.13308
3887.79282,0.12609
3889.72129,0.12826
3891.64975,0.13463
3893.57822,0.13732
3895.50669,0.13581
3897.43516,0.13511
3899.36363,0.14105
3901.29210,0.15132
3903.22057,0.15540
3905.14903,0.15014
3907.07750,0.13604
3909.00597,0.12096
3910.93444,0.11429
3912.86291,0.11636
3914.79138,0.12069
3916.71985,0.12554
3918.64832,0.13086
3920.57678,0.13068
3922.50525,0.12583
3924.43372,0.12436
3926.36219,0.12702
3928.29066,0.12780
3930.21913,0.12489
3932.14760,0.12243
3934.07606,0.12470
3936.00453,0.12964
3937.93300,0.13270
3939.86147,0.13206
3941.78994,0.12982
3943.71841,0.12781
3945.64688,0.12721
3947.57535,0.12746
3949.50381,0.12552
3951.43228,0.12301
3953.36075,0.12245
3955.28922,0.12204
3957.21769,0.12065
3959.14616,0.11906
3961.07463,0.11904
3963.00309,0.12272
3964.93156,0.12781
3966.86003,0.12864
3968.78850,0.12674
3970.71697,0.12581
3972.64544,0.12362
3974.57391,0.11997
3976.50238,0.11685
3978.43084,0.11601
3980.35931,0.11966
3982.28778,0.12341
3984.21625,0.12051
3986.14472,0.11675
3988.07319,0.11959
3990.00166,0.12354
3991.93012,0.12196
3993.85859,0.11692
3995.78706,0.11402
3997.71553,0.11622
3999.64400,0.12132
4001.57247,0.12280
4003.50094,0.11923
4005.42941,0.11768
4007.35787,0.11832
4009.28634,0.11462
4011.21481,0.10908
4013.14328,0.10800
4015.07175,0.10982
4017.00022,0.10937
4018.92869,0.10771
4020.85715,0.11027
4022.78562,0.11725
4024.71409,0.12220
4026.64256,0.12070
4028.57103,0.11598
4030.49950,0.11069
4032.42797,0.10701
4034.35644,0.10974
4036.28490,0.11464
4038.21337,0.11439
4040.14184,0.11236
4042.07031,0.11237
4043.99878,0.11199
4045.92725,0.11280
4047.85572,0.11734
4049.78418,0.12159
4051.71265,0.12280
4053.64112,0.12187
4055.56959,0.11721
4057.49806,0.10867
4059.42653,0.10404
4061.35500,0.10629
4063.28346,0.10872
4065.21193,0.10886
4067.14040,0.10973
4069.06887,0.11116
4070.99734,0.11000
4072.92581,0.10901
4074.85428,0.11003
4076.78275,0.10873
4078.71121,0.10549
4080.63968,0.10342
4082.56815,0.10172
4084.49662,0.09969
4086.42509,0.09994
4088.35356,0.10282
4090.28203,0.10541
4092.21049,0.10665
4094.13896,0.10657
4096.06743,0.10593
4097.99590,0.10704
4099.92437,0.10725
4101.85284,0.10416
4103.78131,0.10417
4105.70978,0.10650
4107.63824,0.10350
4109.56671,0.09922
4111.49518,0.09973
4113.42365,0.10208
4115.35212,0.10169
4117.28059,0.09813
4119.20906,0.09670
4121.13752,0.10016
4123.06599,0.10248
4124.99446,0.10058
4126.92293,0.09775
4128.85140,0.09710
4130.77987,0.09706
4132.70834,0.09587
4134.63681,0.09503
4136.56527,0.09371
4138.49374,0.09332
4140.42221,0.09292
4142.35068,0.08916
4144.27915,0.08746
4146.20762,0.09068
4148.13609,0.09301
4150.06455,0.09377
4151.99302,0.09439
4153.92149,0.09085
4155.84996,0.08700
4157.77843,0.08864
4159.70690,0.09211
4161.63537,0.09428
4163.56384,0.09329
4165.49230,0.08964
4167.42077,0.08763
4169.34924,0.08993
4171.27771,0.09305
4173.20618,0.09411
4175.13465,0.09692
4177.06312,0.09739
4178.99158,0.08886
4180.92005,0.07862
4182.84852,0.07536
4184.77699,0.07728
4186.70546,0.07991
4188.63393,0.08157
4190.56240,0.08133
4192.49087,0.08059
4194.41933,0.08293
4196.34780,0.08895
4198.27627,0.09294
4200.20474,0.09131
4202.13321,0.08908
4204.06168,0.08878
4205.99015,0.08843
4207.91861,0.08618
4209.84708,0.08405
4211.77555,0.08589
4213.70402,0.08676
4215.63249,0.08576
4217.56096,0.09061
4219.48943,0.09436
4221.41789,0.08618
4223.34636,0.07445
4225.27483,0.07015
4227.20330,0.07222
4229.13177,0.07773
4231.06024,0.08423
4232.98871,0.08647
4234.91718,0.08439
4236.84564,0.08277
4238.77411,0.07722
4240.70258,0.06727
4242.63105,0.06851
4244.55952,0.08162
4246.48799,0.08782
4248.41646,0.08244
4250.34492,0.07591
4252.27339,0.07318
4254.20186,0.07321
4256.13033,0.07259
4258.05880,0.06770
4259.98727,0.06333
4261.91574,0.06691
4263.84421,0.07275
4265.77267,0.07267
4267.70114,0.07040
4269.62961,0.07114
4271.55808,0.07246
4273.48655,0.06876
4275.41502,0.06331
4277.34349,0.06612
4279.27195,0.07381
4281.20042,0.07530
4283.12889,0.07190
4285.05736,0.06977
4286.98583,0.06801
4288.91430,0.06310
4290.84277,0.05512
4292.77124,0.05302
4294.69970,0.05972
4296.62817,0.06296
4298.55664,0.06085
4300.48511,0.06043
4302.41358,0.06119
4304.34205,0.05941
4306.27052,0.05334
4308.19898,0.04962
4310.12745,0.05336
4312.05592,0.06052
4313.98439,0.06559
4315.91286,0.06428
4317.84133,0.06219
4319.76980,0.06515
4321.69827,0.06464
4323.62673,0.05933
4325.55520,0.05962
4327.48367,0.06572
4329.41214,0.07011
4331.34061,0.07112
4333.26908,0.07105
4335.19755,0.06782
4337.12601,0.06218
4339.05448,0.06207
4340.98295,0.06637
4342.91142,0.06690
4344.83989,0.06150
4346.76836,0.05537
4348.69683,0.05550
4350.62530,0.05975
4352.55376,0.06244
4354.48223,0.06297
4356.41070,0.05987
4358.33917,0.05585
4360.26764,0.05586
4362.19611,0.05462
4364.12458,0.04933
4366.05304,0.04851
4367.98151,0.05337
4369.90998,0.05377
4371.83845,0.04945
4373.76692,0.04798
4375.69539,0.04686
4377.62386,0.04653
4379.55232,0.05019
4381.48079,0.04878
4383.40926,0.04148
4385.33773,0.03904
4387.26620,0.04425
4389.19467,0.05058
4391.12314,0.05169
4393.05161,0.05202
4394.98007,0.05283
4396.90854,0.04870
4398.83701,0.04342
4400.76548,0.03963
4402.69395,0.03786
4404.62242,0.04235
4406.55089,0.04755
4408.47935,0.04600
4410.40782,0.04415
4412.33629,0.04504
4414.26476,0.04342
4416.19323,0.03928
4418.12170,0.03299
4420.05017,0.02812
4421.97864,0.02793
4423.90710,0.03035
4425.83557,0.03373
4427.76404,0.03239
4429.69251,0.02817
4431.62098,0.03164
4433.54945,0.03734
4435.47792,0.03485
4437.40638,0.03187
4439.33485,0.03201
4441.26332,0.02996
4443.19179,0.02981
4445.12026,0.03261
4447.04873,0.03409
4448.97720,0.03601
4450.90567,0.04134
4452.83413,0.04499
4454.76260,0.04150
4456.69107,0.03714
4458.61954,0.03381
4460.54801,0.02817
4462.47648,0.02664
4464.40495,0.03063
4466.33341,0.03199
4468.26188,0.03253
4470.19035,0.03896
4472.11882,0.04479
4474.04729,0.04299
4475.97576,0.03917
4477.90423,0.03527
4479.83270,0.02680
4481.76116,0.01823
4483.68963,0.01884
4485.61810,0.02735
4487.54657,0.03260
4489.47504,0.03150
4491.40351,0.03150
4493.33198,0.03565
4495.26044,0.03845
4497.18891,0.03446
4499.11738,0.02657
4501.04585,0.02231
4502.97432,0.02368
4504.90279,0.02775
4506.83126,0.03012
4508.75973,0.02697
4510.68819,0.01872
4512.61666,0.01475
4514.54513,0.02379
4516.47360,0.03424
4518.40207,0.03194
4520.33054,0.02251
4522.25901,0.01714
4524.18747,0.02021
4526.11594,0.02445
4528.04441,0.02335
4529.97288,0.02262
4531.90135,0.02175
4533.82982,0.01829
4535.75829,0.01994
4537.68676,0.02752
4539.61522,0.03068
4541.54369,0.02197
4543.47216,0.00917
4545.40063,0.00983
4547.32910,0.02483
4549.25757,0.03505
4551.18604,0.02963
4553.11450,0.01585
4555.04297,0.00910
4556.97144,0.01406
4558.89991,0.01695
4560.82838,0.01402
4562.75685,0.01638
4564.68532,0.02231
4566.61378,0.02104
4568.54225,0.01230
4570.47072,0.00730
4572.39919,0.01260
4574.32766,0.01950
4576.25613,0.01665
4578.18460,0.00810
4580.11307,0.00612
4582.04153,0.01098
4583.97000,0.01998
4585.89847,0.02768
4587.82694,0.02344
4589.75541,0.01517
4591.68388,0.01667
4593.61235,0.02262
4595.54081,0.01984
4597.46928,0.00959
4599.39775,0.00438
4601.32622,0.00850
4603.25469,0.01789
4605.18316,0.02244
4607.11163,0.01334
4609.04010,-0.00187
4610.96856,-0.00812
4612.89703,-0.00272
4614.82550,0.00489
4616.75397,0.00775
4618.68244,0.00769
4620.61091,0.01071
4622.53938,0.01497
4624.46784,0.01694
4626.39631,0.02033
4628.32478,0.02192
4630.25325,0.01563
4632.18172,0.01078
4634.11019,0.01481
4636.03866,0.01606
4637.96713,0.01016
4639.89559,0.00982
4641.82406,0.01783
4643.75253,0.02161
4645.68100,0.01621
4647.60947,0.00672
4649.53794,-0.00288
4651.46641,-0.00700
4653.39487,-0.00312
4655.32334,0.00158
4657.25181,0.00152
4659.18028,0.00334
4661.10875,0.00971
4663.03722,0.01389
4664.96569,0.01398
4666.89416,0.01066
4668.82262,0.00857
4670.75109,0.01434
4672.67956,0.01859
4674.60803,0.00576
4676.53650,-0.00981
4678.46497,-0.00154
4680.39344,0.01744
4682.32190,0.01967
4684.25037,0.00880
4686.17884,0.00055
4688.10731,-0.00107
4690.03578,0.00304
4691.96425,0.00610
4693.89272,0.00215
4695.82119,-0.00051
4697.74965,0.00287
4699.67812,0.00492
4701.60659,0.00370
4703.53506,0.00381
4705.46353,0.00217
4707.39200,-0.00254
4709.32047,-0.00124
4711.24893,0.00215
4713.17740,-0.00491
4715.10587,-0.01273
4717.03434,-0.00311
4718.96281,0.01534
4720.89128,0.02285
4722.81975,0.01867
4724.74821,0.01097
4726.67668,0.00623
4728.60515,0.01052
4730.53362,0.02428
4732.46209,0.03473
4734.39056,0.03340
4736.31903,0.03089
4738.24750,0.02969
4740.17596,0.02293
4742.10443,0.01109
4744.03290,-0.00076
4745.96137,-0.00400
4747.88984,0.00072
4749.81831,0.00185
4751.74678,-0.00151
4753.67524,-0.00467
4755.60371,-0.00744
4757.53218,-0.00412
4759.46065,0.00492
4761.38912,0.01118
4763.31759,0.01261
4765.24606,0.00682
4767.17453,-0.00384
4769.10299,-0.00805
4771.03146,-0.00193
4772.95993,0.00769
4774.88840,0.01366
4776.81687,0.01442
4778.74534,0.01083
4780.67381,0.00439
4782.60227,0.00199
4784.53074,0.00891
4786.45921,0.01426
4788.38768,0.01030
4790.31615,0.00640
4792.24462,0.00655
4794.17309,0.00225
4796.10156,-0.00940
4798.03002,-0.01204
4799.95849,-0.00320
4801.88696,-0.00504
4803.81543,-0.01521
4805.74390,-0.00977
4807.67237,0.00789
4809.60084,0.01789
4811.52930,0.01461
4813.45777,0.00058
4815.38624,-0.01437
4817.31471,-0.01634
4819.24318,-0.00488
4821.17165,0.01058
4823.10012,0.01290
4825.02859,-0.00197
4826.95705,-0.01048
4828.88552,0.00344
4830.81399,0.02008
4832.74246,0.02081
4834.67093,0.02069
4836.59940,0.02589
4838.52787,0.01907
4840.45633,0.00707
4842.38480,0.00338
4844.31327,0.00028
4846.24174,-0.00162
4848.17021,0.00461
4850.09868,0.01564
4852.02715,0.02100
4853.95562,0.01677
4855.88408,0.01426
4857.81255,0.01947
4859.74102,0.02395
4861.66949,0.02316
4863.59796,0.01942
4865.52643,0.01035
4867.45490,-0.00110
4869.38336,0.00027
4871.31183,0.01320
4873.24030,0.02149
4875.16877,0.02049
4877.09724,0.00983
4879.02571,0.00105
4880.95418,0.00903
4882.88265,0.01952
4884.81111,0.01867
4886.73958,0.01261
4888.66805,0.00847
4890.59652,0.00481
4892.52499,-0.00241
4894.45346,-0.00115
4896.38193,0.01194
4898.31039,0.02016
4900.23886,0.01686
4902.16733,0.00768
4904.09580,-0.00031
4906.02427,-0.00373
4907.95274,-0.00096
4909.88121,0.00747
4911.80967,0.01475
4913.73814,0.01418
4915.66661,0.00885
4917.59508,0.00773
4919.52355,0.01077
4921.45202,0.01383
4923.38049,0.01691
4925.30896,0.01854
4927.23742,0.01224
4929.16589,0.00132
4931.09436,0.00450
4933.02283,0.01865
4934.95130,0.02046
4936.87977,0.01158
4938.80824,0.00815
4940.73670,0.01008
4942.66517,0.01101
4944.59364,0.01329
4946.52211,0.01535
4948.45058,0.01375
4950.37905,0.00855
4952.30752,-0.00549
4954.23599,-0.01927
4956.16445,-0.01600
4958.09292,-0.00248
4960.02139,0.01238
4961.94986,0.02888
4963.87833,0.03957
4965.80680,0.03760
4967.73527,0.02885
4969.66373,0.02584
4971.59220,0.02648
4973.52067,0.01610
4975.44914,0.00299
4977.37761,0.00694
4979.30608,0.01795
4981.23455,0.02151
4983.16302,0.02669
4985.09148,0.03029
4987.01995,0.01794
4988.94842,0.00655
4990.87689,0.00786
4992.80536,0.00670
4994.73383,0.00473
4996.66230,0.00588
4998.59076,0.00695
5000.51923,0.00853
5002.44770,0.01022
5004.37617,0.02331
5006.30464,0.04338
5008.23311,0.04187
5010.16158,0.02507
5012.09005,0.02355
5014.01851,0.03199
5015.94698,0.03102
5017.87545,0.02658
5019.80392,0.02902
5021.73239,0.02895
5023.66086,0.02229
5025.58933,0.02282
5027.51779,0.02779
5029.44626,0.02748
5031.37473,0.02473
5033.30320,0.02024
5035.23167,0.01673
5037.16014,0.01573
5039.08861,0.01678
5041.01708,0.02548
5042.94554,0.03512
5044.87401,0.02915
5046.80248,0.01072
5048.73095,-0.00306
5050.65942,-0.00215
5052.58789,0.01269
5054.51636,0.02801
5056.44482,0.03524
5058.37329,0.04048
5060.30176,0.04399
5062.23023,0.04133
5064.15870,0.03615
5066.08717,0.03282
5068.01564,0.03367
5069.94410,0.03722
5071.87257,0.03504
5073.80104,0.02369
5075.72951,0.01250
5077.65798,0.00800
5079.58645,0.01687
5081.51492,0.04054
5083.44339,0.05397
5085.37185,0.04319
5087.30032,0.02798
5089.22879,0.02766
5091.15726,0.03429
5093.08573,0.03080
5095.01420,0.02164
5096.94267,0.02018
5098.87113,0.01736
5100.79960,0.00185
5102.72807,-0.00021
5104.65654,0.02031
5106.58501,0.02852
5108.51348,0.02031
5110.44195,0.02167
5112.37042,0.02881
5114.29888,0.02902
5116.22735,0.03192
5118.15582,0.03713
5120.08429,0.03868
5122.01276,0.03573
5123.94123,0.02324
5125.86970,0.02002
5127.79816,0.04006
5129.72663,0.05290
5131.65510,0.04261
5133.58357,0.03168
5135.51204,0.02598
5137.44051,0.01630
5139.36898,0.01662
5141.29745,0.03146
5143.22591,0.04212
5145.15438,0.04552
5147.08285,0.04996
5149.01132,0.05140
5150.93979,0.04396
5152.86826,0.03669
5154.79673,0.03531
5156.72519,0.03461
5158.65366,0.04204
5160.58213,0.05796
5162.51060,0.05944
5164.43907,0.04195
5166.36754,0.03371
5168.29601,0.04201
5170.22448,0.04291
5172.15294,0.03688
5174.08141,0.04530
5176.00988,0.05663
5177.93835,0.04686
5179.86682,0.02873
5181.79529,0.02890
5183.72376,0.04710
5185.65222,0.06509
5187.58069,0.06462
5189.50916,0.05345
5191.43763,0.05064
5193.36610,0.05347
5195.29457,0.05280
5197.22304,0.04426
5199.15151,0.02940
5201.07997,0.01990
5203.00844,0.02590
5204.93691,0.04206
5206.86538,0.04541
5208.79385,0.03295
5210.72232,0.02735
5212.65079,0.03548
5214.57925,0.03711
5216.50772,0.01273
5218.43619,-0.00728
5220.36466,0.01179
5222.29313,0.04399
5224.22160,0.05316
5226.15007,0.04257
5228.07854,0.03867
5230.00700,0.03889
5231.93547,0.03844
5233.86394,0.04124
5235.79241,0.02904
5237.72088,0.01108
5239.64935,0.02141
5241.57782,0.03976
5243.50628,0.02982
5245.43475,0.01022
5247.36322,0.01032
5249.29169,0.02755
5251.22016,0.04543
5253.14863,0.05757
5255.07710,0.06608
5257.00556,0.06600
5258.93403,0.06459
5260.86250,0.06888
5262.79097,0.06521
5264.71944,0.05195
5266.64791,0.04836
5268.57638,0.04829
5270.50485,0.03900
5272.43331,0.02683
5274.36178,0.01335
5276.29025,0.00762
5278.21872,0.01232
5280.14719,0.00901
5282.07566,0.00855
5284.00413,0.02783
5285.93259,0.04622
5287.86106,0.05040
5289.78953,0.04810
5291.71800,0.04054
5293.64647,0.03553
5295.57494,0.04039
5297.50341,0.04490
5299.43188,0.03664
5301.36034,0.02300
5303.28881,0.02425
5305.21728,0.03887
5307.14575,0.04707
5309.07422,0.05184
5311.00269,0.06547
5312.93116,0.07539
5314.85962,0.07142
5316.78809,0.06302
5318.71656,0.06154
5320.64503,0.06296
5322.57350,0.06492
5324.50197,0.07598
5326.43044,0.08701
5328.35891,0.08364
5330.28737,0.07562
5332.21584,0.07851
5334.14431,0.08108
5336.07278,0.06221
5338.00125,0.03939
5339.92972,0.03541
5341.85819,0.04354
5343.78665,0.06491
5345.71512,0.09674
5347.64359,0.11956
5349.57206,0.11799
5351.50053,0.09517
5353.42900,0.07726
5355.35747,0.05929
5357.28594,0.03234
5359.21440,0.02422
5361.14287,0.03816
5363.07134,0.04810
5364.99981,0.04342
5366.92828,0.03446
5368.85675,0.03085
5370.78522,0.04545
5372.71368,0.07302
5374.64215,0.08175
5376.57062,0.07820
5378.49909,0.08696
5380.42756,0.09565
5382.35603,0.08978
5384.28450,0.06729
5386.21297,0.04867
5388.14143,0.04512
5390.06990,0.04062
5391.99837,0.03570
5393.92684,0.04823
5395.85531,0.06549
5397.78378,0.06139
5399.71225,0.04835
5401.64071,0.04503
5403.56918,0.05321
5405.49765,0.06742
5407.42612,0.08212
5409.35459,0.09621
5411.28306,0.11333
5413.21153,0.11583
5415.13999,0.09159
5417.06846,0.06473
5418.99693,0.04746
5420.92540,0.05026
5422.85387,0.07226
5424.78234,0.08766
5426.71081,0.07788
5428.63928,0.05108
5430.56774,0.04353
5432.49621,0.05866
5434.42468,0.07007
5436.35315,0.07898
5438.28162,0.08829
5440.21009,0.08382
5442.13856,0.07187
5444.06702,0.06636
5445.99549,0.07053
5447.92396,0.08855
5449.85243,0.10791
5451.78090,0.11286
5453.70937,0.10440
5455.63784,0.09252
5457.56631,0.09104
5459.49477,0.09335
5461.42324,0.08405
5463.35171,0.07093
5465.28018,0.06980
5467.20865,0.08837
5469.13712,0.11368
5471.06559,0.12598
5472.99405,0.13232
5474.92252,0.13566
5476.85099,0.11624
5478.77946,0.08287
5480.70793,0.07597
5482.63640,0.09794
5484.56487,0.10646
5486.49334,0.08765
5488.42180,0.06235
5490.35027,0.04124
5492.27874,0.02947
5494.20721,0.04213
5496.13568,0.06248
5498.06415,0.06524
5499.99262,0.05910
5501.92108,0.06276
5503.84955,0.07345
5505.77802,0.07792
5507.70649,0.08060
5509.63496,0.08209
5511.56343,0.07451
5513.49190,0.07988
5515.42037,0.10683
5517.34883,0.12205
5519.27730,0.10493
5521.20577,0.05913
5523.13424,0.01517
5525.06271,0.01451
5526.99118,0.04360
5528.91965,0.06483
5530.84811,0.07089
5532.77658,0.07310
5534.70505,0.07524
5536.63352,0.07513
5538.56199,0.07599
5540.49046,0.08259
5542.41893,0.09978
5544.34740,0.11614
5546.27586,0.11522
5548.20433,0.10440
5550.13280,0.09577
5552.06127,0.08589
5553.98974,0.07811
5555.91821,0.07187
5557.84668,0.04614
5559.77514,0.02699
5561.70361,0.05689
5563.63208,0.09524
5565.56055,0.09561
5567.48902,0.07596
5569.41749,0.05908
5571.34596,0.05785
5573.27443,0.07519
5575.20289,0.08906
5577.13136,0.07714
5579.05983,0.05529
5580.98830,0.05717
5582.91677,0.07087
5584.84524,0.07406
5586.77371,0.06737
5588.70217,0.06065
5590.63064,0.07299
5592.55911,0.08307
5594.48758,0.07454
5596.41605,0.05973
5598.34452,0.03548
5600.27299,0.01560
5602.20145,0.02191
5604.12992,0.03695
5606.05839,0.03072
5607.98686,0.01691
5609.91533,0.03204
5611.84380,0.06919
5613.77227,0.09189
5615.70074,0.09913
5617.62920,0.10760
5619.55767,0.10380
5621.48614,0.08793
5623.41461,0.08402
5625.34308,0.07485
5627.27155,0.04841
5629.20002,0.04538
5631.12848,0.07704
5633.05695,0.10754
5634.98542,0.10815
5636.91389,0.08509
5638.84236,0.06790
5640.77083,0.08203
5642.69930,0.10830
5644.62777,0.09432
5646.55623,0.06454
5648.48470,0.08796
5650.41317,0.12910
5652.34164,0.13791
5654.27011,0.13106
5656.19858,0.10465
5658.12705,0.06513
5660.05551,0.04729
5661.98398,0.04639
5663.91245,0.04425
5665.84092,0.05078
5667.76939,0.06755
5669.69786,0.07641
5671.62633,0.08016
5673.55480,0.10174
5675.48326,0.15888
5677.41173,0.21299
5679.34020,0.19611
5681.26867,0.14740
5683.19714,0.12178
5685.12561,0.09418
5687.05408,0.05917
5688.98254,0.05000
5690.91101,0.07428
5692.83948,0.09927
5694.76795,0.10514
5696.69642,0.10656
5698.62489,0.11158
5700.55336,0.11108
5702.48183,0.10876
5704.41029,0.11517
5706.33876,0.11137
5708.26723,0.07863
5710.19570,0.04919
5712.12417,0.04562
5714.05264,0.05384
5715.98111,0.07727
5717.90957,0.10136
5719.83804,0.10402
5721.76651,0.09822
5723.69498,0.08983
5725.62345,0.07805
5727.55192,0.05994
5729.48039,0.04720
5731.40886,0.05657
5733.33732,0.06490
5735.26579,0.06883
5737.19426,0.08598
5739.12273,0.09391
5741.05120,0.08161
5742.97967,0.06930
5744.90814,0.07356
5746.83660,0.09320
5748.76507,0.12142
5750.69354,0.15493
5752.62201,0.16129
5754.55048,0.11882
5756.47895,0.07932
5758.40742,0.08500
5760.33588,0.10336
5762.26435,0.11032
5764.19282,0.11956
5766.12129,0.12420
5768.04976,0.11164
5769.97823,0.09739
5771.90670,0.10042
5773.83517,0.10599
5775.76363,0.09752
5777.69210,0.09763
5779.62057,0.12103
5781.54904,0.11793
5783.47751,0.05784
5785.40598,0.00052
5787.33445,0.00440
5789.26291,0.05714
5791.19138,0.11255
5793.11985,0.15093
5795.04832,0.17172
5796.97679,0.16317
5798.90526,0.12550
5800.83373,0.08133
5802.76220,0.07453
5804.69066,0.10422
5806.61913,0.10235
5808.54760,0.06407
5810.47607,0.05283
5812.40454,0.08826
5814.33301,0.11433
5816.26148,0.08655
5818.18994,0.05563
5820.11841,0.07533
5822.04688,0.09763
5823.97535,0.08696
5825.90382,0.07690
5827.83229,0.08259
5829.76076,0.09366
5831.68923,0.09963
5833.61769,0.09422
5835.54616,0.09362
5837.47463,0.10228
5839.40310,0.09143
5841.33157,0.06926
5843.26004,0.06162
5845.18851,0.07263
5847.11697,0.10335
5849.04544,0.11798
5850.97391,0.08783
5852.90238,0.05437
5854.83085,0.03740
5856.75932,0.03452
5858.68779,0.04773
5860.61626,0.04889
5862.54472,0.04365
5864.47319,0.06427
5866.40166,0.10173
5868.33013,0.14529
5870.25860,0.17217
5872.18707,0.14842
5874.11554,0.09237
5876.04400,0.05498
5877.97247,0.03024
5879.90094,-0.00332
5881.82941,0.00067
5883.75788,0.06631
5885.68635,0.14519
5887.61482,0.18447
5889.54329,0.16755
5891.47175,0.11581
5893.40022,0.08434
5895.32869,0.09323
5897.25716,0.10902
5899.18563,0.11957
5901.11410,0.12132
5903.04257,0.09929
5904.97103,0.07756
5906.89950,0.09443
5908.82797,0.11942
5910.75644,0.11288
5912.68491,0.11385
5914.61338,0.13401
5916.54185,0.15463
5918.47032,0.17134
5920.39878,0.15603
5922.32725,0.12858
5924.25572,0.12084
5926.18419,0.11385
5928.11266,0.10840
5930.04113,0.10223
5931.96960,0.08312
5933.89806,0.06812
5935.82653,0.06856
5937.75500,0.08215
5939.68347,0.10809
5941.61194,0.13039
5943.54041,0.12212
5945.46888,0.09920
5947.39734,0.10774
5949.32581,0.13143
5951.25428,0.10257
5953.18275,0.04624
5955.11122,0.04121
5957.03969,0.06958
5958.96816,0.08418
5960.89663,0.08511
5962.82509,0.07003
5964.75356,0.03593
5966.68203,0.00829
5968.61050,0.00718
5970.53897,0.00848
5972.46744,0.00542
5974.39591,0.03364
5976.32437,0.07203
5978.25284,0.07981
5980.18131,0.08536
5982.10978,0.11448
5984.03825,0.13825
5985.96672,0.12569
5987.89519,0.10395
5989.82366,0.11270
5991.75212,0.12198
5993.68059,0.09431
5995.60906,0.05238
5997.53753,0.02989
5999.46600,0.03896
6001.39447,0.09327
6003.32294,0.16256
6005.25140,0.16332
6007.17987,0.09648
6009.10834,0.04717
6011.03681,0.03129
6012.96528,0.01530
6014.89375,0.01153
6016.82222,0.04777
6018.75069,0.09211
6020.67915,0.08727
6022.60762,0.05537
6024.53609,0.05797
6026.46456,0.09902
6028.39303,0.12018
6030.32150,0.09461
6032.24997,0.07792
6034.17843,0.10157
6036.10690,0.12810
6038.03537,0.11876
6039.96384,0.09843
6041.89231,0.09442
6043.82078,0.08976
6045.74925,0.09793
6047.67772,0.12869
6049.60618,0.14067
6051.53465,0.11753
6053.46312,0.09546
6055.39159,0.11775
6057.32006,0.15024
6059.24853,0.15449
6061.17700,0.16763
6063.10546,0.16200
6065.03393,0.13773
6066.96240,0.14068
6068.89087,0.11871
6070.81934,0.05661
6072.74781,0.01174
6074.67628,0.00299
6076.60475,0.01928
6078.53321,0.05102
6080.46168,0.08665
6082.39015,0.10252
6084.31862,0.07919
6086.24709,0.03805
6088.17556,0.01643
6090.10403,0.01320
6092.03249,0.02472
6093.96096,0.04517
6095.88943,0.04373
6097.81790,0.01752
6099.74637,0.01633
6101.67484,0.06490
6103.60331,0.12272
6105.53177,0.16378
6107.46024,0.19200
6109.38871,0.17626
6111.31718,0.10623
6113.24565,0.09415
6115.17412,0.15376
6117.10259,0.15552
6119.03106,0.11571
6120.95952,0.11462
6122.88799,0.10871
6124.81646,0.08932
6126.74493,0.08786
6128.67340,0.09597
6130.60187,0.08186
6132.53034,0.03982
6134.45880,0.02776
6136.38727,0.06807
6138.31574,0.09251
6140.24421,0.09908
6142.17268,0.11945
6144.10115,0.11838
6146.02962,0.11412
6147.95809,0.12766
6149.88655,0.12353
6151.81502,0.08211
6153.74349,0.04005
6155.67196,0.04130
6157.60043,0.04941
6159.52890,0.01456
6161.45737,-0.01754
6163.38583,-0.00517
6165.31430,-0.00801
6167.24277,-0.03204
6169.17124,-0.01430
6171.09971,0.03973
6173.02818,0.07611
6174.95665,0.09384
6176.88512,0.12750
6178.81358,0.15080
6180.74205,0.11565
6182.67052,0.06556
6184.59899,0.07012
6186.52746,0.11218
6188.45593,0.11460
6190.38440,0.05663
6192.31286,0.02572
6194.24133,0.07899
6196.16980,0.16761
6198.09827,0.20024
6200.02674,0.16022
6201.95521,0.13074
6203.88368,0.12498
6205.81215,0.09497
6207.74061,0.07669
6209.66908,0.09827
6211.59755,0.11939
6213.52602,0.12174
6215.45449,0.12782
6217.38296,0.10699
6219.31143,0.05977
6221.23989,0.05306
6223.16836,0.08381
6225.09683,0.12751
6227.02530,0.16201
6228.95377,0.14602
6230.88224,0.09846
6232.81071,0.07910
6234.73918,0.11697
6236.66764,0.16697
6238.59611,0.18325
6240.52458,0.16876
6242.45305,0.13994
6244.38152,0.11417
6246.30999,0.08085
6248.23846,0.03411
6250.16692,0.02773
6252.09539,0.07643
6254.02386,0.11702
6255.95233,0.11425
6257.88080,0.08012
6259.80927,0.06530
6261.73774,0.08272
6263.66621,0.09922
6265.59467,0.10735
6267.52314,0.10314
6269.45161,0.08517
6271.38008,0.06471
6273.30855,0.06325
6275.23702,0.08273
6277.16549,0.08996
6279.09395,0.09392
6281.02242,0.08434
6282.95089,0.05648
6284.87936,0.06454
6286.80783,0.11423
6288.73630,0.16658
6290.66477,0.18586
6292.59323,0.13120
6294.52170,0.01090
6296.45017,-0.05658
6298.37864,-0.01539
6300.30711,0.05537
6302.23558,0.11707
6304.16405,0.13087
6306.09252,0.07460
6308.02098,0.02413
6309.94945,-0.00335
6311.87792,0.00415
6313.80639,0.08643
6315.73486,0.15982
6317.66333,0.15017
6319.59180,0.10554
6321.52026,0.09520
6323.44873,0.07784
6325.37720,0.00823
6327.30567,-0.02795
6329.23414,-0.00007
6331.16261,0.01829
6333.09108,0.00509
6335.01955,-0.02137
6336.94801,-0.02316
6338.87648,0.03044
6340.80495,0.10827
6342.73342,0.15717
6344.66189,0.14578
6346.59036,0.10442
6348.51883,0.08673
6350.44729,0.08203
6352.37576,0.08447
6354.30423,0.07025
6356.23270,0.01073
6358.16117,-0.03466
6360.08964,-0.00526
6362.01811,0.05451
6363.94658,0.08058
6365.87504,0.07074
6367.80351,0.04268
6369.73198,0.02378
6371.66045,0.04361
6373.58892,0.09020
6375.51739,0.13486
6377.44586,0.14121
6379.37432,0.09086
6381.30279,0.04503
6383.23126,0.04793
6385.15973,0.05014
6387.08820,0.02367
6389.01667,-0.02551
6390.94514,-0.05097
6392.87361,0.03241
6394.80207,0.14086
6396.73054,0.14399
6398.65901,0.09909
6400.58748,0.07590
6402.51595,0.08663
6404.44442,0.10677
6406.37289,0.10526
6408.30135,0.08384
6410.22982,0.08017
6412.15829,0.11596
6414.08676,0.14135
6416.01523,0.12117
6417.94370,0.08427
6419.87217,0.07300
6421.80064,0.08511
6423.72910,0.08305
6425.65757,0.08374
6427.58604,0.14627
6429.51451,0.23050
6431.44298,0.23771
6433.37145,0.19201
6435.29992,0.15336
6437.22838,0.11934
6439.15685,0.09111
6441.08532,0.05400
6443.01379,0.02443
6444.94226,0.02375
6446.87073,0.01486
6448.79920,0.00333
6450.72766,0.02805
6452.65613,0.08494
6454.58460,0.13572
6456.51307,0.13783
6458.44154,0.08616
6460.37001,0.05071
6462.29848,0.06158
6464.22695,0.06708
6466.15541,0.05280
6468.08388,0.04939
6470.01235,0.05893
6471.94082,0.05909
6473.86929,0.02146
6475.79776,-0.02475
6477.72623,0.02463
6479.65469,0.13451
6481.58316,0.15961
6483.51163,0.11197
6485.44010,0.09601
6487.36857,0.10326
6489.29704,0.07760
6491.22551,0.04958
6493.15398,0.06874
6495.08244,0.08999
6497.01091,0.08499
6498.93938,0.09876
6500.86785,0.12615
6502.79632,0.10453
6504.72479,0.04934
6506.65326,-0.00087
6508.58172,-0.00982
6510.51019,0.03162
6512.43866,0.04462
6514.36713,0.02298
6516.29560,0.04773
6518.22407,0.11960
6520.15254,0.15857
6522.08101,0.11478
6524.00947,0.04526
6525.93794,0.06327
6527.86641,0.11917
6529.79488,0.11897
6531.72335,0.09814
6533.65182,0.07006
6535.58029,0.03709
6537.50875,0.02301
6539.43722,0.03503
6541.36569,0.09240
6543.29416,0.13483
6545.22263,0.12119
6547.15110,0.10450
6549.07957,0.08495
6551.00804,0.04475
6552.93650,0.00107
6554.86497,0.00534
6556.79344,0.04738
6558.72191,0.03668
6560.65038,-0.00494
6562.57885,0.00089
6564.50732,0.06047
6566.43578,0.12731
6568.36425,0.12973
6570.29272,0.08947
6572.22119,0.08528
6574.14966,0.08127
6576.07813,0.00807
6578.00660,-0.05299
6579.93507,-0.02437
6581.86353,0.00623
6583.79200,0.00858
6585.72047,0.04212
6587.64894,0.09866
6589.57741,0.14406
6591.50588,0.15556
6593.43435,0.13374
6595.36281,0.13698
6597.29128,0.18464
6599.21975,0.21858
6601.14822,0.23249
6603.07669,0.22777
6605.00516,0.15878
6606.93363,0.07576
6608.86210,0.06811
6610.79056,0.10583
6612.71903,0.13077
6614.64750,0.12675
6616.57597,0.06119
6618.50444,-0.02456
6620.43291,-0.02568
6622.36138,0.02731
6624.28984,0.04117
6626.21831,0.02904
6628.14678,0.04609
6630.07525,0.06943
6632.00372,0.06173
6633.93219,0.04650
6635.86066,0.02660
6637.78912,-0.01056
6639.71759,-0.02995
6641.64606,0.00495
6643.57453,0.07041
6645.50300,0.11302
6647.43147,0.11762
6649.35994,0.09640
6651.28841,0.10190
6653.21687,0.17012
6655.14534,0.23737
6657.07381,0.24766
6659.00228,0.23884
6660.93075,0.17841
6662.85922,0.06375
6664.78769,0.00914
6666.71615,0.02929
6668.64462,0.07380
6670.57309,0.09074
6672.50156,0.03111
6674.43003,-0.03044
6676.35850,-0.04186
6678.28697,-0.07395
6680.21544,-0.10452
6682.14390,-0.07884
6684.07237,-0.04233
6686.00084,-0.02842
6687.92931,-0.02166
6689.85778,0.00920
6691.78625,0.04077
6693.71472,0.04154
6695.64318,0.05842
6697.57165,0.10437
6699.50012,0.15618
6701.42859,0.22008
6703.35706,0.26646
6705.28553,0.22563
6707.21400,0.14981
6709.14247,0.13578
6711.07093,0.09728
6712.99940,0.04226
6714.92787,0.05854
6716.85634,0.08287
6718.78481,0.02070
6720.71328,-0.09254
6722.64175,-0.14248
6724.57021,-0.10314
6726.49868,-0.02627
6728.42715,0.00501
6730.35562,-0.03976
6732.28409,-0.07013
6734.21256,-0.09676
6736.14103,-0.14200
6738.06950,-0.09881
6739.99796,0.00303
6741.92643,0.06856
6743.85490,0.13202
6745.78337,0.17412
6747.71184,0.14015
6749.64031,0.11187
6751.56878,0.15832
6753.49724,0.19990
6755.42571,0.15596
6757.35418,0.07753
6759.28265,0.03177
6761.21112,0.00969
6763.13959,0.01278
6765.06806,0.05088
6766.99653,0.07431
6768.92499,0.03935
6770.85346,-0.01570
6772.78193,-0.02802
6774.71040,-0.00495
6776.63887,0.01731
6778.56734,0.03286
6780.49581,0.05233
6782.42427,0.06726
6784.35274,0.07111
6786.28121,0.09310
6788.20968,0.12170
6790.13815,0.07588
6792.06662,-0.00813
6793.99509,0.01345
6795.92355,0.07966
6797.85202,0.08479
6799.78049,0.06853
6801.70896,0.06559
6803.63743,0.03184
6805.56590,-0.03929
6807.49437,-0.04960
6809.42284,0.01806
6811.35130,0.08732
6813.27977,0.11902
6815.20824,0.10880
6817.13671,0.08385
6819.06518,0.10978
6820.99365,0.15613
6822.92212,0.16067
6824.85058,0.13565
6826.77905,0.09701
6828.70752,0.06406
6830.63599,0.03766
6832.56446,0.03166
6834.49293,0.06200
6836.42140,0.03430
6838.34987,-0.03138
6840.27833,0.00773
6842.20680,0.13263
6844.13527,0.20743
6846.06374,0.18529
6847.99221,0.18172
6849.92068,0.21939
6851.84915,0.17416
6853.77761,0.08292
6855.70608,0.02977
6857.63455,-0.00230
6859.56302,-0.04537
6861.49149,-0.03679
6863.41996,0.04454
6865.34843,0.06628
6867.27690,0.00403
6869.20536,-0.00679
6871.13383,0.07089
6873.06230,0.16419
6874.99077,0.14836
6876.91924,0.05469
6878.84771,0.00204
6880.77618,-0.02836
6882.70464,-0.03739
6884.63311,0.01822
6886.56158,0.05592
6888.49005,0.04652
6890.41852,0.03434
6892.34699,0.03505
6894.27546,0.07017
6896.20393,0.06678
6898.13239,-0.00859
6900.06086,-0.01994
6901.98933,0.00748
6903.91780,0.02854
6905.84627,0.10872
6907.77474,0.17584
6909.70321,0.18964
6911.63167,0.17979
6913.56014,0.09429
6915.48861,0.00827
6917.41708,0.04139
6919.34555,0.11963
6921.27402,0.12980
6923.20249,0.08578
6925.13096,0.04673
6927.05942,0.03653
6928.98789,0.01444
6930.91636,-0.03175
6932.84483,-0.03045
6934.77330,0.02178
6936.70177,0.03658
6938.63024,-0.01619
6940.55870,-0.06710
6942.48717,-0.03336
6944.41564,0.02767
6946.34411,0.04030
6948.27258,0.02566
6950.20105,0.03829
6952.12952,0.09002
6954.05799,0.14100
6955.98645,0.14075
6957.91492,0.12233
6959.84339,0.11006
6961.77186,0.06844
6963.70033,0.02984
6965.62880,0.04742
6967.55727,0.10392
6969.48573,0.14739
6971.41420,0.17434
6973.34267,0.21134
6975.27114,0.16424
6977.19961,-0.02490
6979.12808,-0.20223
6981.05655,-0.24508
6982.98501,-0.13414
6984.91348,0.07354
6986.84195,0.20492
6988.77042,0.09211
6990.69889,-0.08856
6992.62736,-0.10835
6994.55583,-0.01713
6996.48430,0.04026
6998.41276,-0.03362
7000.34123,-0.06706
7002.26970,0.01458
7004.19817,0.06296
7006.12664,0.09356
7008.05511,0.11302
7009.98358,0.10773
7011.91204,0.09330
7013.84051,0.04048
7015.76898,0.02178
7017.69745,0.04089
7019.62592,0.01477
7021.55439,-0.01878
7023.48286,-0.03373
7025.41133,-0.08484
7027.33979,-0.13183
7029.26826,0.00267
7031.19673,0.21869
7033.12520,0.27930
7035.05367,0.24874
7036.98214,0.27963
7038.91061,0.30995
7040.83907,0.18242
7042.76754,-0.04313
7044.69601,-0.04689
7046.62448,0.11520
7048.55295,0.18624
7050.48142,0.18238
7052.40989,0.10228
7054.33836,-0.07597
7056.26682,-0.17342
7058.19529,-0.11501
7060.12376,-0.00700
7062.05223,0.14982
7063.98070,0.25484
7065.90917,0.11116
7067.83764,-0.11503
7069.76610,-0.09420
7071.69457,0.07355
7073.62304,0.08112
7075.55151,0.05167
7077.47998,0.08351
7079.40845,0.08180
7081.33692,-0.02951
7083.26539,-0.08723
7085.19385,0.00663
7087.12232,0.09374
7089.05079,0.08950
7090.97926,0.07684
7092.90773,0.05818
7094.83620,0.03865
7096.76467,0.02724
7098.69313,0.03902
7100.62160,0.07825
7102.55007,0.03629
7104.47854,-0.08943
7106.40701,-0.16737
7108.33548,-0.11146
7110.26395,0.02973
7112.19242,0.12450
7114.12088,0.04403
7116.04935,-0.10828
7117.97782,-0.04441
7119.90629,0.14852
7121.83476,0.13065
7123.76323,-0.02896
7125.69170,-0.07996
7127.62016,0.05433
7129.54863,0.18939
7131.47710,0.16025
7133.40557,0.04289
7135.33404,0.04522
7137.26251,0.13369
7139.19098,0.11236
7141.11944,0.02449
7143.04791,0.04147
7144.97638,0.08041
7146.90485,0.02702
7148.83332,-0.02034
7150.76179,-0.01260
7152.69026,0.01561
7154.61873,0.03599
7156.54719,0.06335
7158.47566,0.07154
7160.40413,0.04813
7162.33260,0.02931
7164.26107,0.00884
7166.18954,0.07198
7168.11801,0.24084
7170.04647,0.26740
7171.97494,0.12110
7173.90341,0.12880
7175.83188,0.26255
7177.76035,0.24989
7179.68882,0.19812
7181.61729,0.26555
7183.54576,0.38665
7185.47422,0.37346
7187.40269,0.21283
7189.33116,0.10987
7191.25963,0.05483
7193.18810,-0.08445
7195.11657,-0.14803
7197.04504,-0.11130
7198.97350,-0.09513
7200.90197,-0.02242
7202.83044,0.17783
7204.75891,0.35104
7206.68738,0.28739
7208.61585,0.16841
7210.54432,0.14880
7212.47279,0.10828
7214.40125,0.00533
7216.32972,0.01029
7218.25819,0.08530
7220.18666,0.08608
7222.11513,0.11561
7224.04360,0.13748
7225.97207,0.07146
7227.90053,-0.06363
7229.82900,-0.29816
7231.75747,-0.43846
7233.68594,-0.20869
7235.61441,0.11983
7237.54288,0.29309
7239.47135,0.25523
7241.39982,0.14526
7243.32828,0.11870
7245.25675,0.08476
7247.18522,0.02410
7249.11369,0.07685
7251.04216,0.19273
7252.97063,0.18294
7254.89910,0.09638
7256.82756,0.08756
7258.75603,0.11423
7260.68450,0.11133
7262.61297,0.10820
7264.54144,0.11837
7266.46991,0.11633
7268.39838,0.13696
7270.32685,0.12061
7272.25531,0.03509
7274.18378,0.02923
7276.11225,0.08810
7278.04072,0.12923
7279.96919,0.20650
7281.89766,0.25964
7283.82613,0.15076
7285.75459,0.09839
7287.68306,0.23125
7289.61153,0.31159
7291.54000,0.18979
7293.46847,0.05460
7295.39694,0.02565
7297.32541,0.02289
7299.25387,0.01436
7301.18234,0.03583
7303.11081,0.09337
7305.03928,0.18803
7306.96775,0.25758
7308.89622,0.19129
7310.82469,0.10721
7312.75316,0.17269
7314.68162,0.26738
7316.61009,0.17798
7318.53856,0.01900
7320.46703,0.04225
7322.39550,0.13771
7324.32397,0.17750
7326.25244,0.24462
7328.18090,0.38338
7330.10937,0.40167
7332.03784,0.25091
7333.96631,0.12822
7335.89478,0.08696
7337.82325,0.10287
7339.75172,0.17158
7341.68019,0.24467
7343.60865,0.18943
7345.53712,-0.00697
7347.46559,-0.01155
7349.39406,0.22714
7351.32253,0.27402
7353.25100,0.07919
7355.17947,-0.10593
7357.10793,-0.16108
7359.03640,-0.07294
7360.96487,0.07830
7362.89334,0.31069
7364.82181,0.50024
7366.75028,0.43091
7368.67875,0.26170
7370.60722,0.24081
7372.53568,0.29536
7374.46415,0.27969
7376.39262,0.17116
7378.32109,0.15031
7380.24956,0.14335
7382.17803,-0.03637
7384.10650,-0.23226
7386.03496,-0.28911
7387.96343,-0.29316
7389.89190,-0.23891
7391.82037,-0.19837
7393.74884,-0.23126
7395.67731,-0.25279
7397.60578,-0.17742
7399.53425,-0.04806
7401.46271,-0.01400
7403.39118,-0.08293
7405.31965,-0.09065
7407.24812,0.05199
7409.17659,0.22030
7411.10506,0.20531
7413.03353,0.08315
7414.96199,0.03346
7416.89046,0.04889
7418.81893,0.11733
7420.74740,0.17957
7422.67587,0.08762
7424.60434,-0.02862
7426.53281,-0.04296
7428.46128,-0.03442
7430.38974,-0.11587
7432.31821,-0.16770
7434.24668,-0.00183
7436.17515,0.20831
7438.10362,0.17257
7440.03209,0.02599
7441.96056,-0.01384
7443.88902,0.04513
7445.81749,0.13288
7447.74596,0.20193
7449.67443,0.21904
7451.60290,0.18108
7453.53137,0.12601
7455.45984,0.04856
7457.38831,0.00193
7459.31677,0.12896
7461.24524,0.35737
7463.17371,0.47601
7465.10218,0.47402
7467.03065,0.28795
7468.95912,0.04907
7470.88759,-0.04250
7472.81605,0.03887
7474.74452,0.22368
7476.67299,0.32881
7478.60146,0.13279
7480.52993,-0.15242
7482.45840,-0.17727
7484.38687,-0.04733
7486.31533,0.04588
7488.24380,0.03557
7490.17227,-0.00967
7492.10074,0.05436
7494.02921,0.11210
7495.95768,0.12667
7497.88615,0.30162
