399.19301,-0.05448
401.12148,-0.04384
403.04995,0.14929
404.97842,0.17040
406.90689,0.05848
408.83536,-0.03476
410.76382,-0.02893
412.69229,0.00838
414.62076,0.02078
416.54923,-0.00801
418.47770,-0.08376
420.40617,-0.10331
422.33464,-0.08821
424.26311,-0.07744
426.19157,-0.01305
428.12004,0.04192
430.04851,0.04353
431.97698,0.01687
433.90545,-0.02897
435.83392,-0.04860
437.76239,-0.01525
439.69085,0.05115
441.61932,0.10460
443.54779,0.09583
445.47626,0.07258
447.40473,0.07465
449.33320,0.07123
451.26167,0.04343
453.19013,0.01369
455.11860,0.00221
457.04707,-0.00416
458.97554,0.02109
460.90401,0.09201
462.83248,0.15445
464.76095,0.18609
466.68942,0.18488
468.61788,0.13924
470.54635,0.07013
472.47482,0.04330
474.40329,0.08145
476.33176,0.07168
478.26023,0.05623
480.18870,0.06765
482.11716,0.06188
484.04563,0.02770
485.97410,0.00849
487.90257,0.02111
489.83104,0.04193
491.75951,0.04974
493.68798,0.02458
495.61645,-0.01342
497.54491,-0.00831
499.47338,0.01982
501.40185,0.02618
503.33032,0.03075
505.25879,0.05562
507.18726,0.08720
509.11573,0.10514
511.04419,0.10577
512.97266,0.10635
514.90113,0.10809
516.82960,0.09079
518.75807,0.06666
520.68654,0.05925
522.61501,0.06825
524.54348,0.08351
526.47194,0.07560
528.40041,0.04362
530.32888,0.02514
532.25735,0.03542
534.18582,0.05772
536.11429,0.06547
538.04276,0.04603
539.97122,0.00902
541.89969,-0.01077
543.82816,0.01547
545.75663,0.04788
547.68510,0.03324
549.61357,0.02956
551.54204,0.20495
553.47051,0.43974
555.39897,0.39165
557.32744,0.15207
559.25591,0.03281
561.18438,0.02255
563.11285,0.04170
565.04132,0.07350
566.96979,0.07972
568.89825,0.06553
570.82672,0.05769
572.75519,0.04912
574.68366,0.04021
576.61213,0.04157
578.54060,0.04594
580.46907,0.05467
582.39754,0.07017
584.32600,0.08274
586.25447,0.08567
588.18294,0.07975
590.11141,0.07590
592.03988,0.08507
593.96835,0.09043
595.89682,0.07834
597.82528,0.07200
599.75375,0.07469
601.68222,0.06863
603.61069,0.05552
605.53916,0.04231
607.46763,0.03535
609.39610,0.03807
611.32456,0.04297
613.25303,0.04619
615.18150,0.04664
617.10997,0.04306
619.03844,0.04247
620.96691,0.05075
622.89538,0.06716
624.82385,0.07706
626.75231,0.06914
628.68078,0.05054
630.60925,0.03134
632.53772,0.02986
634.46619,0.04723
636.39466,0.06074
638.32313,0.07080
640.25159,0.08895
642.18006,0.10324
644.10853,0.09162
646.03700,0.07193
647.96547,0.06895
649.89394,0.07118
651.82241,0.07692
653.75088,0.08713
655.67934,0.08360
657.60781,0.06945
659.53628,0.06256
661.46475,0.05781
663.39322,0.04774
665.32169,0.04163
667.25016,0.04185
669.17862,0.04862
671.10709,0.06277
673.03556,0.07602
674.96403,0.07957
676.89250,0.07164
678.82097,0.06621
680.74944,0.06844
682.67791,0.07516
684.60637,0.08196
686.53484,0.07688
688.46331,0.06480
690.39178,0.05701
692.32025,0.05181
694.24872,0.05316
696.17719,0.06316
698.10565,0.07254
700.03412,0.07317
701.96259,0.06830
703.89106,0.06855
705.81953,0.07465
707.74800,0.07685
709.67647,0.07673
711.60494,0.08411
713.53340,0.09259
715.46187,0.08644
717.39034,0.06797
719.31881,0.05228
721.24728,0.04718
723.17575,0.05171
725.10422,0.06329
727.03268,0.07774
728.96115,0.08589
730.88962,0.08316
732.81809,0.07708
734.74656,0.07020
736.67503,0.06210
738.60350,0.06439
740.53197,0.07399
742.46043,0.07274
744.38890,0.06452
746.31737,0.06345
748.24584,0.07078
750.17431,0.07997
752.10278,0.08260
754.03125,0.07922
755.95971,0.08032
757.88818,0.08868
759.81665,0.09370
761.74512,0.08734
763.67359,0.07616
765.60206,0.06995
767.53053,0.07068
769.45900,0.07653
771.38746,0.08305
773.31593,0.08532
775.24440,0.08390
777.17287,0.08361
779.10134,0.08252
781.02981,0.07808
782.95828,0.07534
784.88674,0.07048
786.81521,0.05869
788.74368,0.05498
790.67215,0.06955
792.60062,0.08650
794.52909,0.09149
796.45756,0.08791
798.38602,0.08409
800.31449,0.08922
802.24296,0.09497
804.17143,0.08421
806.09990,0.06776
808.02837,0.06223
809.95684,0.06733
811.88531,0.07414
813.81377,0.07508
815.74224,0.07070
817.67071,0.06136
819.59918,0.05037
821.52765,0.05042
823.45612,0.06408
825.38459,0.07731
827.31305,0.07553
829.24152,0.06408
831.16999,0.06206
833.09846,0.07074
835.02693,0.07603
836.95540,0.07451
838.88387,0.07055
840.81234,0.06660
842.74080,0.06429
844.66927,0.06099
846.59774,0.05627
848.52621,0.05731
850.45468,0.06708
852.38315,0.07384
854.31162,0.06419
856.24008,0.05206
858.16855,0.05633
860.09702,0.06579
862.02549,0.07022
863.95396,0.07903
865.88243,0.09061
867.81090,0.08757
869.73937,0.07119
871.66783,0.06385
873.59630,0.07041
875.52477,0.07722
877.45324,0.07787
879.38171,0.07595
881.31018,0.07490
883.23865,0.07359
885.16711,0.07046
887.09558,0.06729
889.02405,0.06675
890.95252,0.06948
892.88099,0.07316
894.80946,0.07487
896.73793,0.07771
898.66640,0.08263
900.59486,0.08298
902.52333,0.07936
904.45180,0.07764
906.38027,0.07787
908.30874,0.07939
910.23721,0.08415
912.16568,0.08999
914.09414,0.09052
916.02261,0.08421
917.95108,0.07347
919.87955,0.06512
921.80802,0.06747
923.73649,0.07516
925.66496,0.07730
927.59343,0.07430
929.52189,0.07330
931.45036,0.07780
933.37883,0.08260
935.30730,0.08125
937.23577,0.07691
939.16424,0.07447
941.09271,0.07374
943.02117,0.07434
944.94964,0.07414
946.87811,0.07242
948.80658,0.07337
950.73505,0.07619
952.66352,0.07627
954.59199,0.07457
956.52045,0.07471
958.44892,0.07774
960.37739,0.08099
962.30586,0.08252
964.23433,0.08514
966.16280,0.08693
968.09127,0.08257
970.01974,0.07718
971.94820,0.07798
973.87667,0.08034
975.80514,0.07836
977.73361,0.07524
979.66208,0.07408
981.59055,0.07389
983.51902,0.07479
985.44748,0.07814
987.37595,0.08310
989.30442,0.08638
991.23289,0.08675
993.16136,0.08484
995.08983,0.08276
997.01830,0.08293
998.94677,0.08403
1000.87523,0.08452
1002.80370,0.08347
1004.73217,0.08105
1006.66064,0.08164
1008.58911,0.08519
1010.51758,0.08664
1012.44605,0.08618
1014.37451,0.08660
1016.30298,0.08649
1018.23145,0.08293
1020.15992,0.07860
1022.08839,0.07886
1024.01686,0.08107
1025.94533,0.07444
1027.87380,0.05971
1029.80226,0.05528
1031.73073,0.06565
1033.65920,0.07888
1035.58767,0.08883
1037.51614,0.09121
1039.44461,0.08914
1041.37308,0.09008
1043.30154,0.09073
1045.23001,0.08704
1047.15848,0.08367
1049.08695,0.08266
1051.01542,0.07992
1052.94389,0.07636
1054.87236,0.07632
1056.80083,0.08007
1058.72929,0.08345
1060.65776,0.08286
1062.58623,0.08235
1064.51470,0.08601
1066.44317,0.08958
1068.37164,0.09197
1070.30011,0.09463
1072.22857,0.09260
1074.15704,0.09268
1076.08551,0.10053
1078.01398,0.09940
1079.94245,0.08725
1081.87092,0.08209
1083.79939,0.08627
1085.72786,0.08816
1087.65632,0.08131
1089.58479,0.07183
1091.51326,0.07180
1093.44173,0.08419
1095.37020,0.09581
1097.29867,0.09332
1099.22714,0.08367
1101.15560,0.08120
1103.08407,0.08422
1105.01254,0.08702
1106.94101,0.09150
1108.86948,0.09241
1110.79795,0.08683
1112.72642,0.08512
1114.65489,0.08956
1116.58335,0.09128
1118.51182,0.09024
1120.44029,0.09273
1122.36876,0.09395
1124.29723,0.08859
1126.22570,0.08328
1128.15417,0.08202
1130.08263,0.08063
1132.01110,0.07844
1133.93957,0.07916
1135.86804,0.08138
1137.79651,0.08396
1139.72498,0.08832
1141.65345,0.08989
1143.58191,0.08766
1145.51038,0.08668
1147.43885,0.08959
1149.36732,0.09497
1151.29579,0.09727
1153.22426,0.09460
1155.15273,0.09078
1157.08120,0.08811
1159.00966,0.08641
1160.93813,0.08650
1162.86660,0.08886
1164.79507,0.09127
1166.72354,0.09271
1168.65201,0.09400
1170.58048,0.09372
1172.50894,0.09123
1174.43741,0.08938
1176.36588,0.08917
1178.29435,0.09094
1180.22282,0.09489
1182.15129,0.09659
1184.07976,0.09430
1186.00823,0.09127
1187.93669,0.08826
1189.86516,0.08562
1191.79363,0.08663
1193.72210,0.09139
1195.65057,0.09527
1197.57904,0.09477
1199.50751,0.09172
1201.43597,0.09237
1203.36444,0.09586
1205.29291,0.09665
1207.22138,0.09629
1209.14985,0.09607
1211.07832,0.09308
1213.00679,0.08779
1214.93526,0.08570
1216.86372,0.08832
1218.79219,0.09067
1220.72066,0.09202
1222.64913,0.09410
1224.57760,0.09377
1226.50607,0.08989
1228.43454,0.08654
1230.36300,0.08542
1232.29147,0.08613
1234.21994,0.08823
1236.14841,0.09071
1238.07688,0.09232
1240.00535,0.09139
1241.93382,0.09059
1243.86229,0.09217
1245.79075,0.09308
1247.71922,0.09261
1249.64769,0.09178
1251.57616,0.08955
1253.50463,0.08649
1255.43310,0.08514
1257.36157,0.08491
1259.29003,0.08344
1261.21850,0.08355
1263.14697,0.08790
1265.07544,0.09052
1267.00391,0.08859
1268.93238,0.08916
1270.86085,0.09218
1272.78932,0.09040
1274.71778,0.08521
1276.64625,0.08484
1278.57472,0.08939
1280.50319,0.09045
1282.43166,0.09028
1284.36013,0.09485
1286.28860,0.09562
1288.21706,0.08998
1290.14553,0.08722
1292.07400,0.08805
1294.00247,0.08872
1295.93094,0.08872
1297.85941,0.08753
1299.78788,0.08224
1301.71634,0.07008
1303.64481,0.05854
1305.57328,0.06221
1307.50175,0.07960
1309.43022,0.09297
1311.35869,0.09843
1313.28716,0.10346
1315.21563,0.10559
1317.14409,0.10289
1319.07256,0.09893
1321.00103,0.09563
1322.92950,0.09562
1324.85797,0.09600
1326.78644,0.09297
1328.71491,0.09008
1330.64337,0.08750
1332.57184,0.08567
1334.50031,0.08695
1336.42878,0.08948
1338.35725,0.09321
1340.28572,0.09394
1342.21419,0.09095
1344.14266,0.08962
1346.07112,0.08808
1347.99959,0.08846
1349.92806,0.09309
1351.85653,0.09497
1353.78500,0.09205
1355.71347,0.09068
1357.64194,0.09325
1359.57040,0.09675
1361.49887,0.10039
1363.42734,0.10204
1365.35581,0.10000
1367.28428,0.09805
1369.21275,0.09802
1371.14122,0.10031
1373.06969,0.10417
1374.99815,0.10555
1376.92662,0.10386
1378.85509,0.10187
1380.78356,0.09994
1382.71203,0.09987
1384.64050,0.10385
1386.56897,0.10960
1388.49743,0.11074
1390.42590,0.10840
1392.35437,0.10916
1394.28284,0.11335
1396.21131,0.11640
1398.13978,0.11465
1400.06825,0.10745
1401.99672,0.10086
1403.92518,0.10050
1405.85365,0.10388
1407.78212,0.10650
1409.71059,0.10806
1411.63906,0.10668
1413.56753,0.10379
1415.49600,0.10649
1417.42446,0.11478
1419.35293,0.11637
1421.28140,0.11018
1423.20987,0.10623
1425.13834,0.10246
1427.06681,0.10193
1428.99528,0.10828
1430.92375,0.11331
1432.85221,0.11359
1434.78068,0.11576
1436.70915,0.11822
1438.63762,0.11472
1440.56609,0.10980
1442.49456,0.10608
1444.42303,0.10449
1446.35149,0.10650
1448.27996,0.10927
1450.20843,0.11118
1452.13690,0.11518
1454.06537,0.12259
1455.99384,0.13463
1457.92231,0.13808
1459.85077,0.12448
1461.77924,0.11531
1463.70771,0.11319
1465.63618,0.11200
1467.56465,0.11047
1469.49312,0.11423
1471.42159,0.12354
1473.35006,0.12695
1475.27852,0.11962
1477.20699,0.11278
1479.13546,0.11001
1481.06393,0.11056
1482.99240,0.11173
1484.92087,0.11455
1486.84934,0.12250
1488.77780,0.13025
1490.70627,0.12570
1492.63474,0.11791
1494.56321,0.12003
1496.49168,0.13029
1498.42015,0.13267
1500.34862,0.12395
1502.27709,0.11795
1504.20555,0.12554
1506.13402,0.15434
1508.06249,0.16222
1509.99096,0.14007
1511.91943,0.12873
1513.84790,0.12911
1515.77637,0.13663
1517.70483,0.14317
1519.63330,0.14706
1521.56177,0.14825
1523.49024,0.13993
1525.41871,0.13232
1527.34718,0.12679
1529.27565,0.12072
1531.20412,0.12016
1533.13258,0.12445
1535.06105,0.12478
1536.98952,0.12786
1538.91799,0.14642
1540.84646,0.16660
1542.77493,0.15339
1544.70340,0.13265
1546.63186,0.12091
1548.56033,0.12005
1550.48880,0.12300
1552.41727,0.12478
1554.34574,0.12904
1556.27421,0.13854
1558.20268,0.15272
1560.13115,0.14360
1562.05961,0.12740
1563.98808,0.12219
1565.91655,0.12166
1567.84502,0.12462
1569.77349,0.12426
1571.70196,0.11586
1573.63043,0.11398
1575.55889,0.12054
1577.48736,0.11962
1579.41583,0.10980
1581.34430,0.10227
1583.27277,0.10051
1585.20124,0.10348
1587.12971,0.10533
1589.05818,0.10245
1590.98664,0.09890
1592.91511,0.09918
1594.84358,0.10156
1596.77205,0.10226
1598.70052,0.10225
1600.62899,0.10444
1602.55746,0.10679
1604.48592,0.10581
1606.41439,0.10350
1608.34286,0.10380
1610.27133,0.10625
1612.19980,0.10868
1614.12827,0.11317
1616.05674,0.12007
1617.98521,0.11999
1619.91367,0.11636
1621.84214,0.11851
1623.77061,0.12275
1625.69908,0.12358
1627.62755,0.12175
1629.55602,0.11669
1631.48449,0.11452
1633.41295,0.12352
1635.34142,0.14084
1637.26989,0.13928
1639.19836,0.12609
1641.12683,0.11881
1643.05530,0.11723
1644.98377,0.12560
1646.91223,0.14315
1648.84070,0.14497
1650.76917,0.14295
1652.69764,0.15211
1654.62611,0.14339
1656.55458,0.12564
1658.48305,0.11517
1660.41152,0.10908
1662.33998,0.10889
1664.26845,0.11242
1666.19692,0.11711
1668.12539,0.12736
1670.05386,0.13799
1671.98233,0.13805
1673.91080,0.13463
1675.83926,0.12846
1677.76773,0.12281
1679.69620,0.12440
1681.62467,0.13292
1683.55314,0.14493
1685.48161,0.14382
1687.41008,0.13172
1689.33855,0.12128
1691.26701,0.11524
1693.19548,0.11868
1695.12395,0.13373
1697.05242,0.14826
1698.98089,0.15052
1700.90936,0.14372
1702.83783,0.13581
1704.76629,0.13208
1706.69476,0.12630
1708.62323,0.11877
1710.55170,0.11590
1712.48017,0.11996
1714.40864,0.13148
1716.33711,0.14220
1718.26558,0.13324
1720.19404,0.11850
1722.12251,0.11359
1724.05098,0.11389
1725.97945,0.11408
1727.90792,0.11530
1729.83639,0.12091
1731.76486,0.13083
1733.69332,0.13680
1735.62179,0.12906
1737.55026,0.12174
1739.47873,0.12076
1741.40720,0.12275
1743.33567,0.12443
1745.26414,0.12694
1747.19261,0.13313
1749.12107,0.13806
1751.04954,0.13191
1752.97801,0.12218
1754.90648,0.11812
1756.83495,0.11666
1758.76342,0.11670
1760.69189,0.11996
1762.62035,0.12038
1764.54882,0.11676
1766.47729,0.11603
1768.40576,0.11957
1770.33423,0.12700
1772.26270,0.13165
1774.19117,0.12576
1776.11964,0.12025
1778.04810,0.12032
1779.97657,0.12121
1781.90504,0.11806
1783.83351,0.11299
1785.76198,0.11010
1787.69045,0.11197
1789.61892,0.11951
1791.54738,0.12714
1793.47585,0.12549
1795.40432,0.12080
1797.33279,0.12005
1799.26126,0.12105
1801.18973,0.12014
1803.11820,0.11696
1805.04666,0.11576
1806.97513,0.11759
1808.90360,0.11915
1810.83207,0.11905
1812.76054,0.11768
1814.68901,0.11599
1816.61748,0.11479
1818.54595,0.11384
1820.47441,0.11435
1822.40288,0.11789
1824.33135,0.12151
1826.25982,0.12067
1828.18829,0.11953
1830.11676,0.12014
1832.04523,0.11731
1833.97369,0.11354
1835.90216,0.11278
1837.83063,0.11444
1839.75910,0.11719
1841.68757,0.12174
1843.61604,0.12635
1845.54451,0.12486
1847.47298,0.12029
1849.40144,0.11751
1851.32991,0.11506
1853.25838,0.11244
1855.18685,0.11075
1857.11532,0.10981
1859.04379,0.11021
1860.97226,0.11256
1862.90072,0.11402
1864.82919,0.11474
1866.75766,0.11998
1868.68613,0.12690
1870.61460,0.12427
1872.54307,0.11707
1874.47154,0.11373
1876.40001,0.11359
1878.32847,0.11390
1880.25694,0.11384
1882.18541,0.11446
1884.11388,0.11647
1886.04235,0.11873
1887.97082,0.11951
1889.89929,0.11666
1891.82775,0.11235
1893.75622,0.11125
1895.68469,0.11270
1897.61316,0.11367
1899.54163,0.11325
1901.47010,0.11229
1903.39857,0.11249
1905.32704,0.11383
1907.25550,0.11525
1909.18397,0.11646
1911.11244,0.11665
1913.04091,0.11658
1914.96938,0.11845
1916.89785,0.12115
1918.82632,0.12102
1920.75478,0.11917
1922.68325,0.11751
1924.61172,0.11487
1926.54019,0.11259
1928.46866,0.11168
1930.39713,0.11197
1932.32560,0.11323
1934.25407,0.11324
1936.18253,0.11190
1938.11100,0.11218
1940.03947,0.11500
1941.96794,0.11779
1943.89641,0.11749
1945.82488,0.11471
1947.75335,0.11181
1949.68181,0.11004
1951.61028,0.10951
1953.53875,0.11012
1955.46722,0.11160
1957.39569,0.11304
1959.32416,0.11424
1961.25263,0.11548
1963.18110,0.11611
1965.10956,0.11546
1967.03803,0.11415
1968.96650,0.11372
1970.89497,0.11444
1972.82344,0.11536
1974.75191,0.11639
1976.68038,0.11722
1978.60884,0.11730
1980.53731,0.11758
1982.46578,0.11747
1984.39425,0.11578
1986.32272,0.11455
1988.25119,0.11552
1990.17966,0.11745
1992.10812,0.11804
1994.03659,0.11655
1995.96506,0.11458
1997.89353,0.11255
1999.82200,0.11062
2001.75047,0.11110
2003.67894,0.11221
2005.60741,0.11045
2007.53587,0.10873
2009.46434,0.11004
2011.39281,0.11288
2013.32128,0.11569
2015.24975,0.11686
2017.17822,0.11607
2019.10669,0.11578
2021.03515,0.11637
2022.96362,0.11643
2024.89209,0.11616
2026.82056,0.11555
2028.74903,0.11473
2030.67750,0.11460
2032.60597,0.11553
2034.53444,0.11697
2036.46290,0.11745
2038.39137,0.11623
2040.31984,0.11522
2042.24831,0.11582
2044.17678,0.11545
2046.10525,0.11333
2048.03372,0.11178
2049.96218,0.11120
2051.89065,0.11095
2053.81912,0.11096
2055.74759,0.11117
2057.67606,0.11132
2059.60453,0.11192
2061.53300,0.11313
2063.46147,0.11433
2065.38993,0.11509
2067.31840,0.11510
2069.24687,0.11513
2071.17534,0.11639
2073.10381,0.11763
2075.03228,0.11743
2076.96075,0.11757
2078.88921,0.11825
2080.81768,0.11788
2082.74615,0.11677
2084.67462,0.11534
2086.60309,0.11394
2088.53156,0.11310
2090.46003,0.11395
2092.38850,0.11653
2094.31696,0.11783
2096.24543,0.11632
2098.17390,0.11500
2100.10237,0.11568
2102.03084,0.11655
2103.95931,0.11709
2105.88778,0.11816
2107.81624,0.11966
2109.74471,0.12002
2111.67318,0.11808
2113.60165,0.11544
2115.53012,0.11395
2117.45859,0.11380
2119.38706,0.11473
2121.31553,0.11671
2123.24399,0.11832
2125.17246,0.11798
2127.10093,0.11659
2129.02940,0.11541
2130.95787,0.11406
2132.88634,0.11263
2134.81481,0.11327
2136.74327,0.11661
2138.67174,0.11905
2140.60021,0.11834
2142.52868,0.11723
2144.45715,0.11698
2146.38562,0.11586
2148.31409,0.11513
2150.24255,0.11566
2152.17102,0.11560
2154.09949,0.11545
2156.02796,0.11554
2157.95643,0.11497
2159.88490,0.11533
2161.81337,0.11608
2163.74184,0.11505
2165.67030,0.11442
2167.59877,0.11534
2169.52724,0.11555
2171.45571,0.11493
2173.38418,0.11407
2175.31265,0.11307
2177.24112,0.11304
2179.16958,0.11421
2181.09805,0.11541
2183.02652,0.11588
2184.95499,0.11665
2186.88346,0.11832
2188.81193,0.11959
2190.74040,0.12004
2192.66887,0.11973
2194.59733,0.11860
2196.52580,0.11712
2198.45427,0.11622
2200.38274,0.11730
2202.31121,0.11909
2204.23968,0.11938
2206.16815,0.11923
2208.09661,0.11952
2210.02508,0.11900
2211.95355,0.11735
2213.88202,0.11588
2215.81049,0.11512
2217.73896,0.11431
2219.66743,0.11405
2221.59590,0.11475
2223.52436,0.11507
2225.45283,0.11552
2227.38130,0.11688
2229.30977,0.11737
2231.23824,0.11685
2233.16671,0.11713
2235.09518,0.11836
2237.02364,0.11902
2238.95211,0.11824
2240.88058,0.11776
2242.80905,0.11881
2244.73752,0.11990
2246.66599,0.11986
2248.59446,0.11898
2250.52293,0.11823
2252.45139,0.11785
2254.37986,0.11718
2256.30833,0.11587
2258.23680,0.11450
2260.16527,0.11400
2262.09374,0.11342
2264.02221,0.11259
2265.95067,0.11333
2267.87914,0.11458
2269.80761,0.11492
2271.73608,0.11603
2273.66455,0.11753
2275.59302,0.11774
2277.52149,0.11767
2279.44996,0.11680
2281.37842,0.11486
2283.30689,0.11442
2285.23536,0.11505
2287.16383,0.11497
2289.09230,0.11537
2291.02077,0.11711
2292.94924,0.11912
2294.87770,0.11995
2296.80617,0.11872
2298.73464,0.11668
2300.66311,0.11557
2302.59158,0.11533
2304.52005,0.11589
2306.44852,0.11725
2308.37699,0.11847
2310.30545,0.11768
2312.23392,0.11471
2314.16239,0.11293
2316.09086,0.11325
2318.01933,0.11455
2319.94780,0.11816
2321.87627,0.12018
2323.80473,0.11466
2325.73320,0.10787
2327.66167,0.10837
2329.59014,0.11393
2331.51861,0.11748
2333.44708,0.12026
2335.37555,0.12302
2337.30401,0.12035
2339.23248,0.11629
2341.16095,0.11696
2343.08942,0.12079
2345.01789,0.12348
2346.94636,0.12103
2348.87483,0.11672
2350.80330,0.11577
2352.73176,0.12022
2354.66023,0.12715
2356.58870,0.13133
2358.51717,0.12772
2360.44564,0.11611
2362.37411,0.10224
2364.30258,0.10063
2366.23104,0.11321
2368.15951,0.11599
2370.08798,0.10758
2372.01645,0.10378
2373.94492,0.10691
2375.87339,0.11266
2377.80186,0.11692
2379.73033,0.11836
2381.65879,0.11859
2383.58726,0.11830
2385.51573,0.11712
2387.44420,0.11663
2389.37267,0.11791
2391.30114,0.11837
2393.22961,0.11677
2395.15807,0.11564
2397.08654,0.11614
2399.01501,0.11706
2400.94348,0.11857
2402.87195,0.12051
2404.80042,0.12085
2406.72889,0.11953
2408.65736,0.11796
2410.58582,0.11687
2412.51429,0.11734
2414.44276,0.11823
2416.37123,0.11716
2418.29970,0.11526
2420.22817,0.11411
2422.15664,0.11340
2424.08510,0.11322
2426.01357,0.11358
2427.94204,0.11453
2429.87051,0.11506
2431.79898,0.11486
2433.72745,0.11609
2435.65592,0.11764
2437.58439,0.11707
2439.51285,0.11579
2441.44132,0.11561
2443.36979,0.11673
2445.29826,0.11812
2447.22673,0.11775
2449.15520,0.11622
2451.08367,0.11696
2453.01213,0.11863
2454.94060,0.11731
2456.86907,0.11520
2458.79754,0.11609
2460.72601,0.11819
2462.65448,0.11840
2464.58295,0.11647
2466.51142,0.11484
2468.43988,0.11623
2470.36835,0.11861
2472.29682,0.11820
2474.22529,0.11550
2476.15376,0.11367
2478.08223,0.11393
2480.01070,0.11394
2481.93916,0.11280
2483.86763,0.11212
2485.79610,0.11227
2487.72457,0.11374
2489.65304,0.11691
2491.58151,0.11919
2493.50998,0.11851
2495.43844,0.11697
2497.36691,0.11604
2499.29538,0.11533
2501.22385,0.11575
2503.15232,0.11730
2505.08079,0.11906
2507.00926,0.12038
2508.93773,0.11969
2510.86619,0.11744
2512.79466,0.11634
2514.72313,0.11687
2516.65160,0.11785
2518.58007,0.11894
2520.50854,0.11985
2522.43701,0.12029
2524.36547,0.11965
2526.29394,0.11888
2528.22241,0.12051
2530.15088,0.12222
2532.07935,0.12154
2534.00782,0.12038
2535.93629,0.11883
2537.86476,0.11704
2539.79322,0.11690
2541.72169,0.11772
2543.65016,0.11742
2545.57863,0.11656
2547.50710,0.11615
2549.43557,0.11623
2551.36404,0.11763
2553.29250,0.12097
2555.22097,0.12377
2557.14944,0.12201
2559.07791,0.11745
2561.00638,0.11447
2562.93485,0.11356
2564.86332,0.11413
2566.79179,0.11520
2568.72025,0.11597
2570.64872,0.11644
2572.57719,0.11646
2574.50566,0.11620
2576.43413,0.11601
2578.36260,0.11600
2580.29107,0.11671
2582.21953,0.11733
2584.14800,0.11684
2586.07647,0.11663
2588.00494,0.11734
2589.93341,0.11796
2591.86188,0.11833
2593.79035,0.11903
2595.71882,0.11965
2597.64728,0.11995
2599.57575,0.12096
2601.50422,0.12274
2603.43269,0.12361
2605.36116,0.12223
2607.28963,0.12023
2609.21810,0.11988
2611.14656,0.12066
2613.07503,0.12087
2615.00350,0.12155
2616.93197,0.12372
2618.86044,0.12342
2620.78891,0.11987
2622.71738,0.11718
2624.64585,0.11547
2626.57431,0.11355
2628.50278,0.11257
2630.43125,0.11302
2632.35972,0.11508
2634.28819,0.11873
2636.21666,0.12149
2638.14513,0.12168
2640.07359,0.12128
2642.00206,0.12166
2643.93053,0.12162
2645.85900,0.12121
2647.78747,0.12179
2649.71594,0.12270
2651.64441,0.12306
2653.57288,0.12417
2655.50134,0.12593
2657.42981,0.12581
2659.35828,0.12404
2661.28675,0.12246
2663.21522,0.12054
2665.14369,0.11900
2667.07216,0.11938
2669.00062,0.12077
2670.92909,0.12108
2672.85756,0.11882
2674.78603,0.11547
2676.71450,0.11462
2678.64297,0.11656
2680.57144,0.11860
2682.49990,0.12031
2684.42837,0.12139
2686.35684,0.12080
2688.28531,0.12043
2690.21378,0.12078
2692.14225,0.12036
2694.07072,0.11989
2695.99919,0.12103
2697.92765,0.12377
2699.85612,0.12558
2701.78459,0.12665
2703.71306,0.12830
2705.64153,0.12867
2707.57000,0.12701
2709.49847,0.12513
2711.42693,0.12493
2713.35540,0.12504
2715.28387,0.12281
2717.21234,0.11956
2719.14081,0.11871
2721.06928,0.11995
2722.99775,0.12081
2724.92622,0.12184
2726.85468,0.12342
2728.78315,0.12457
2730.71162,0.12402
2732.64009,0.12172
2734.56856,0.12090
2736.49703,0.12213
2738.42550,0.12285
2740.35396,0.12294
2742.28243,0.12307
2744.21090,0.12268
2746.13937,0.12265
2748.06784,0.12350
2749.99631,0.12294
2751.92478,0.12118
2753.85325,0.12077
2755.78171,0.12144
2757.71018,0.12340
2759.63865,0.12697
2761.56712,0.12848
2763.49559,0.12699
2765.42406,0.12567
2767.35253,0.12451
2769.28099,0.12328
2771.20946,0.12442
2773.13793,0.12565
2775.06640,0.12458
2776.99487,0.12564
2778.92334,0.12804
2780.85181,0.12620
2782.78028,0.12247
2784.70874,0.12205
2786.63721,0.12418
2788.56568,0.12662
2790.49415,0.12961
2792.42262,0.13124
2794.35109,0.13031
2796.27956,0.12918
2798.20802,0.12877
2800.13649,0.12815
2802.06496,0.12708
2803.99343,0.12673
2805.92190,0.12758
2807.85037,0.12911
2809.77884,0.13080
2811.70731,0.13146
2813.63577,0.13043
2815.56424,0.12886
2817.49271,0.12841
2819.42118,0.12881
2821.34965,0.12690
2823.27812,0.12232
2825.20659,0.12106
2827.13505,0.12463
2829.06352,0.12803
2830.99199,0.12984
2832.92046,0.13073
2834.84893,0.13086
2836.77740,0.12970
2838.70587,0.12679
2840.63433,0.12430
2842.56280,0.12297
2844.49127,0.12206
2846.41974,0.12389
2848.34821,0.12785
2850.27668,0.12913
2852.20515,0.12623
2854.13362,0.12077
2856.06208,0.11708
2857.99055,0.11870
2859.91902,0.12185
2861.84749,0.12229
2863.77596,0.12262
2865.70443,0.12525
2867.63290,0.12687
2869.56136,0.12555
2871.48983,0.12432
2873.41830,0.12404
2875.34677,0.12320
2877.27524,0.12361
2879.20371,0.12602
2881.13218,0.12732
2883.06065,0.12716
2884.98911,0.12721
2886.91758,0.12710
2888.84605,0.12671
2890.77452,0.12623
2892.70299,0.12433
2894.63146,0.12109
2896.55993,0.12011
2898.48839,0.12379
2900.41686,0.12832
2902.34533,0.12819
2904.27380,0.12386
2906.20227,0.11979
2908.13074,0.11944
2910.05921,0.12210
2911.98768,0.12253
2913.91614,0.11748
2915.84461,0.11166
2917.77308,0.11150
2919.70155,0.11662
2921.63002,0.12387
2923.55849,0.12705
2925.48696,0.12099
2927.41542,0.11522
2929.34389,0.11886
2931.27236,0.12482
2933.20083,0.12565
2935.12930,0.12131
2937.05777,0.11581
2938.98624,0.11698
2940.91471,0.12341
2942.84317,0.12570
2944.77164,0.12213
2946.70011,0.11547
2948.62858,0.11132
2950.55705,0.11456
2952.48552,0.12133
2954.41399,0.12343
2956.34245,0.11630
2958.27092,0.11040
2960.19939,0.11695
2962.12786,0.12738
2964.05633,0.13038
2965.98480,0.12469
2967.91327,0.11727
2969.84174,0.11799
2971.77020,0.12432
2973.69867,0.12767
2975.62714,0.12560
2977.55561,0.12126
2979.48408,0.12147
2981.41255,0.12620
2983.34102,0.13011
2985.26948,0.12992
2987.19795,0.12456
2989.12642,0.12191
2991.05489,0.12663
2992.98336,0.13006
2994.91183,0.12838
2996.84030,0.12600
2998.76877,0.12605
3000.69723,0.12864
3002.62570,0.13054
3004.55417,0.12930
3006.48264,0.12593
3008.41111,0.12246
3010.33958,0.11688
3012.26805,0.10173
3014.19651,0.07569
3016.12498,0.05603
3018.05345,0.06550
3019.98192,0.09713
3021.91039,0.12050
3023.83886,0.12621
3025.76733,0.12479
3027.69579,0.12328
3029.62426,0.12513
3031.55273,0.12973
3033.48120,0.13249
3035.40967,0.13192
3037.33814,0.12948
3039.26661,0.12682
3041.19508,0.12607
3043.12354,0.12766
3045.05201,0.12833
3046.98048,0.12629
3048.90895,0.12610
3050.83742,0.12997
3052.76589,0.13278
3054.69436,0.12945
3056.62282,0.12344
3058.55129,0.12494
3060.47976,0.13068
3062.40823,0.12894
3064.33670,0.12087
3066.26517,0.11559
3068.19364,0.11921
3070.12211,0.12543
3072.05057,0.12454
3073.97904,0.11713
3075.90751,0.11118
3077.83598,0.11615
3079.76445,0.12758
3081.69292,0.13116
3083.62139,0.12318
3085.54985,0.11471
3087.47832,0.11644
3089.40679,0.12158
3091.33526,0.12121
3093.26373,0.11657
3095.19220,0.11454
3097.12067,0.12102
3099.04914,0.12996
3100.97760,0.13098
3102.90607,0.12357
3104.83454,0.12121
3106.76301,0.12952
3108.69148,0.13423
3110.61995,0.12734
3112.54842,0.11841
3114.47688,0.11741
3116.40535,0.12085
3118.33382,0.12174
3120.26229,0.11967
3122.19076,0.11924
3124.11923,0.12527
3126.04770,0.13111
3127.97617,0.12774
3129.90463,0.11985
3131.83310,0.11902
3133.76157,0.12603
3135.69004,0.12943
3137.61851,0.12489
3139.54698,0.11996
3141.47545,0.12247
3143.40391,0.13059
3145.33238,0.13517
3147.26085,0.13403
3149.18932,0.13464
3151.11779,0.13838
3153.04626,0.13719
3154.97473,0.13004
3156.90320,0.12487
3158.83166,0.12598
3160.76013,0.12919
3162.68860,0.12886
3164.61707,0.12600
3166.54554,0.12515
3168.47401,0.12856
3170.40248,0.13391
3172.33094,0.13643
3174.25941,0.13631
3176.18788,0.13747
3178.11635,0.13753
3180.04482,0.13274
3181.97329,0.12925
3183.90176,0.13012
3185.83022,0.12914
3187.75869,0.12641
3189.68716,0.12754
3191.61563,0.13195
3193.54410,0.13360
3195.47257,0.13189
3197.40104,0.13307
3199.32951,0.13648
3201.25797,0.13758
3203.18644,0.13840
3205.11491,0.13917
3207.04338,0.13697
3208.97185,0.13407
3210.90032,0.13310
3212.82879,0.13400
3214.75725,0.13392
3216.68572,0.13013
3218.61419,0.12796
3220.54266,0.12960
3222.47113,0.13099
3224.39960,0.13113
3226.32807,0.13042
3228.25654,0.13123
3230.18500,0.13389
3232.11347,0.13399
3234.04194,0.13136
3235.97041,0.13056
3237.89888,0.13210
3239.82735,0.13442
3241.75582,0.13701
3243.68428,0.13742
3245.61275,0.13551
3247.54122,0.13389
3249.46969,0.13381
3251.39816,0.13458
3253.32663,0.13347
3255.25510,0.13093
3257.18357,0.12925
3259.11203,0.12744
3261.04050,0.12633
3262.96897,0.12700
3264.89744,0.12782
3266.82591,0.12851
3268.75438,0.12915
3270.68285,0.13067
3272.61131,0.13260
3274.53978,0.13195
3276.46825,0.12947
3278.39672,0.12831
3280.32519,0.12897
3282.25366,0.12893
3284.18213,0.12809
3286.11060,0.12938
3288.03906,0.13112
3289.96753,0.13041
3291.89600,0.12785
3293.82447,0.12441
3295.75294,0.12160
3297.68141,0.12139
3299.60988,0.12392
3301.53834,0.12795
3303.46681,0.13171
3305.39528,0.13293
3307.32375,0.13151
3309.25222,0.13000
3311.18069,0.13017
3313.10916,0.13087
3315.03763,0.12988
3316.96609,0.12871
3318.89456,0.13067
3320.82303,0.13447
3322.75150,0.13640
3324.67997,0.13404
3326.60844,0.12851
3328.53691,0.12650
3330.46537,0.13099
3332.39384,0.13511
3334.32231,0.13474
3336.25078,0.13458
3338.17925,0.13610
3340.10772,0.13407
3342.03619,0.12820
3343.96466,0.12444
3345.89312,0.12604
3347.82159,0.13192
3349.75006,0.13754
3351.67853,0.13834
3353.60700,0.13754
3355.53547,0.13953
3357.46394,0.13932
3359.39240,0.13419
3361.32087,0.13079
3363.24934,0.13099
3365.17781,0.13111
3367.10628,0.13130
3369.03475,0.13108
3370.96322,0.12852
3372.89168,0.12689
3374.82015,0.12964
3376.74862,0.13247
3378.67709,0.13210
3380.60556,0.13144
3382.53403,0.13108
3384.46250,0.13119
3386.39097,0.13332
3388.31943,0.13548
3390.24790,0.13755
3392.17637,0.14105
3394.10484,0.14369
3396.03331,0.14392
3397.96178,0.14020
3399.89025,0.13220
3401.81871,0.12794
3403.74718,0.13290
3405.67565,0.14036
3407.60412,0.14243
3409.53259,0.13815
3411.46106,0.13168
3413.38953,0.12935
3415.31800,0.13442
3417.24646,0.14166
3419.17493,0.14367
3421.10340,0.13979
3423.03187,0.13402
3424.96034,0.12979
3426.88881,0.12725
3428.81728,0.12586
3430.74574,0.12666
3432.67421,0.12953
3434.60268,0.13144
3436.53115,0.12985
3438.45962,0.12744
3440.38809,0.12740
3442.31656,0.12814
3444.24503,0.12703
3446.17349,0.12508
3448.10196,0.12467
3450.03043,0.12381
3451.95890,0.12198
3453.88737,0.12363
3455.81584,0.12806
3457.74431,0.12941
3459.67277,0.12634
3461.60124,0.12226
3463.52971,0.12078
3465.45818,0.12180
3467.38665,0.12256
3469.31512,0.12277
3471.24359,0.12377
3473.17206,0.12415
3475.10052,0.12142
3477.02899,0.11866
3478.95746,0.11873
3480.88593,0.11810
3482.81440,0.11683
3484.74287,0.11848
3486.67134,0.12030
3488.59980,0.11867
3490.52827,0.11713
3492.45674,0.11848
3494.38521,0.11866
3496.31368,0.11703
3498.24215,0.11684
3500.17062,0.11666
3502.09909,0.11640
3504.02755,0.11709
3505.95602,0.11666
3507.88449,0.11680
3509.81296,0.11772
3511.74143,0.11611
3513.66990,0.11353
3515.59837,0.11305
3517.52683,0.11476
3519.45530,0.11598
3521.38377,0.11438
3523.31224,0.11386
3525.24071,0.11810
3527.16918,0.12125
3529.09765,0.11931
3531.02611,0.11460
3532.95458,0.10920
3534.88305,0.10687
3536.81152,0.10869
3538.73999,0.11005
3540.66846,0.11000
3542.59693,0.11088
3544.52540,0.11258
3546.45386,0.11405
3548.38233,0.11448
3550.31080,0.11395
3552.23927,0.11115
3554.16774,0.10704
3556.09621,0.10623
3558.02468,0.10767
3559.95314,0.10890
3561.88161,0.11083
3563.81008,0.11573
3565.73855,0.12213
3567.66702,0.12013
3569.59549,0.11112
3571.52396,0.10540
3573.45243,0.10330
3575.38089,0.10169
3577.30936,0.09932
3579.23783,0.10031
3581.16630,0.10496
3583.09477,0.10764
3585.02324,0.11030
3586.95171,0.11648
3588.88017,0.11550
3590.80864,0.10651
3592.73711,0.10185
3594.66558,0.10462
3596.59405,0.10737
3598.52252,0.10531
3600.45099,0.10135
3602.37946,0.09732
3604.30792,0.09565
3606.23639,0.09953
3608.16486,0.10430
3610.09333,0.10334
3612.02180,0.10400
3613.95027,0.10895
3615.87874,0.11322
3617.80720,0.11770
3619.73567,0.11696
3621.66414,0.10587
3623.59261,0.09498
3625.52108,0.09234
3627.44955,0.09871
3629.37802,0.10194
3631.30649,0.09526
3633.23495,0.09226
3635.16342,0.09238
3637.09189,0.09114
3639.02036,0.08996
3640.94883,0.08976
3642.87730,0.09030
3644.80577,0.09402
3646.73423,0.10145
3648.66270,0.10567
3650.59117,0.10180
3652.51964,0.09751
3654.44811,0.09393
3656.37658,0.09010
3658.30505,0.08555
3660.23352,0.08209
3662.16198,0.08143
3664.09045,0.08251
3666.01892,0.08593
3667.94739,0.09471
3669.87586,0.10365
3671.80433,0.10432
3673.73280,0.10803
3675.66126,0.11288
3677.58973,0.10555
3679.51820,0.09667
3681.44667,0.09059
3683.37514,0.08835
3685.30361,0.09207
3687.23208,0.09947
3689.16055,0.10405
3691.08901,0.09823
3693.01748,0.08780
3694.94595,0.08138
3696.87442,0.07959
3698.80289,0.07984
3700.73136,0.08210
3702.65983,0.08574
3704.58829,0.08631
3706.51676,0.08529
3708.44523,0.08921
3710.37370,0.09805
3712.30217,0.10062
3714.23064,0.09865
3716.15911,0.09731
3718.08757,0.09374
3720.01604,0.09292
3721.94451,0.09804
3723.87298,0.09872
3725.80145,0.09063
3727.72992,0.08306
3729.65839,0.08522
3731.58686,0.09597
3733.51532,0.10677
3735.44379,0.10845
3737.37226,0.10061
3739.30073,0.09526
3741.22920,0.09995
3743.15767,0.11163
3745.08614,0.11128
3747.01460,0.09825
3748.94307,0.09650
3750.87154,0.10507
3752.80001,0.10516
3754.72848,0.09813
3756.65695,0.09468
3758.58542,0.09625
3760.51389,0.09388
3762.44235,0.08640
3764.37082,0.08189
3766.29929,0.08149
3768.22776,0.08181
3770.15623,0.08136
3772.08470,0.08132
3774.01317,0.08125
3775.94163,0.08107
3777.87010,0.08292
3779.79857,0.08200
3781.72704,0.07750
3783.65551,0.07779
3785.58398,0.08046
3787.51245,0.08150
3789.44092,0.08258
3791.36938,0.08378
3793.29785,0.08472
3795.22632,0.08516
3797.15479,0.08729
3799.08326,0.09457
3801.01173,0.10345
3802.94020,0.10331
3804.86866,0.09740
3806.79713,0.09188
3808.72560,0.08642
3810.65407,0.08133
3812.58254,0.07902
3814.51101,0.08480
3816.43948,0.09711
3818.36795,0.10317
3820.29641,0.10255
3822.22488,0.09516
3824.15335,0.08506
3826.08182,0.07816
3828.01029,0.07623
3829.93876,0.08017
3831.86723,0.08739
3833.79569,0.09306
3835.72416,0.09496
3837.65263,0.09308
3839.58110,0.09070
3841.50957,0.08931
3843.43804,0.08442
3845.36651,0.07916
3847.29498,0.07918
3849.22344,0.08490
3851.15191,0.09518
3853.08038,0.10174
3855.00885,0.09342
3856.93732,0.08595
3858.86579,0.08435
3860.79426,0.08692
3862.72272,0.08977
3864.65119,0.08720
3866.57966,0.08318
3868.50813,0.08410
3870.43660,0.08451
3872.36507,0.08114
3874.29354,0.08062
3876.22200,0.08291
3878.15047,0.08692
3880.07894,0.09040
3882.00741,0.08993
3883.93588,0.08914
3885.86435,0.08560
3887.79282,0.07985
3889.72129,0.08053
3891.64975,0.08441
3893.57822,0.08165
3895.50669,0.07713
3897.43516,0.07707
3899.36363,0.07980
3901.29210,0.08253
3903.22057,0.08424
3905.14903,0.08027
3907.07750,0.07404
3909.00597,0.07322
3910.93444,0.07448
3912.86291,0.07402
3914.79138,0.07496
3916.71985,0.07780
3918.64832,0.07905
3920.57678,0.07856
3922.50525,0.07711
3924.43372,0.07246
3926.36219,0.06795
3928.29066,0.07022
3930.21913,0.07447
3932.14760,0.07476
3934.07606,0.07369
3936.00453,0.07188
3937.93300,0.07140
3939.86147,0.07602
3941.78994,0.08103
3943.71841,0.07977
3945.64688,0.07544
3947.57535,0.07261
3949.50381,0.07021
3951.43228,0.06727
3953.36075,0.06344
3955.28922,0.05990
3957.21769,0.06021
3959.14616,0.06315
3961.07463,0.06566
3963.00309,0.06705
3964.93156,0.06569
3966.86003,0.06228
3968.78850,0.06087
3970.71697,0.06279
3972.64544,0.06484
3974.57391,0.06587
3976.50238,0.06646
3978.43084,0.06538
3980.35931,0.06319
3982.28778,0.05986
3984.21625,0.05505
3986.14472,0.05272
3988.07319,0.05635
3990.00166,0.06367
3991.93012,0.06886
3993.85859,0.06901
3995.78706,0.06517
3997.71553,0.05977
3999.64400,0.05672
4001.57247,0.05844
4003.50094,0.06157
4005.42941,0.06241
4007.35787,0.06184
4009.28634,0.06068
4011.21481,0.06114
4013.14328,0.06483
4015.07175,0.06762
4017.00022,0.06752
4018.92869,0.06644
4020.85715,0.06492
4022.78562,0.06252
4024.71409,0.05964
4026.64256,0.05878
4028.57103,0.06144
4030.49950,0.06551
4032.42797,0.06803
4034.35644,0.06873
4036.28490,0.06826
4038.21337,0.06545
4040.14184,0.06112
4042.07031,0.05869
4043.99878,0.05775
4045.92725,0.05627
4047.85572,0.05727
4049.78418,0.06233
4051.71265,0.06821
4053.64112,0.07042
4055.56959,0.06615
4057.49806,0.05981
4059.42653,0.05621
4061.35500,0.05471
4063.28346,0.05417
4065.21193,0.05499
4067.14040,0.05775
4069.06887,0.06022
4070.99734,0.06010
4072.92581,0.06015
4074.85428,0.06251
4076.78275,0.06339
4078.71121,0.06186
4080.63968,0.06182
4082.56815,0.06028
4084.49662,0.05553
4086.42509,0.05360
4088.35356,0.05419
4090.28203,0.05553
4092.21049,0.05887
4094.13896,0.05917
4096.06743,0.05679
4097.99590,0.05880
4099.92437,0.06296
4101.85284,0.06481
4103.78131,0.06278
4105.70978,0.05640
4107.63824,0.05100
4109.56671,0.04780
4111.49518,0.04525
4113.42365,0.04756
4115.35212,0.05260
4117.28059,0.05572
4119.20906,0.05605
4121.13752,0.05199
4123.06599,0.04808
4124.99446,0.05003
4126.92293,0.05446
4128.85140,0.05451
4130.77987,0.05097
4132.70834,0.05089
4134.63681,0.05543
4136.56527,0.05872
4138.49374,0.05819
4140.42221,0.05760
4142.35068,0.05559
4144.27915,0.04740
4146.20762,0.03876
4148.13609,0.03872
4150.06455,0.04465
4151.99302,0.04795
4153.92149,0.04934
4155.84996,0.05352
4157.77843,0.05637
4159.70690,0.05397
4161.63537,0.04963
4163.56384,0.04805
4165.49230,0.04971
4167.42077,0.04888
4169.34924,0.04531
4171.27771,0.04452
4173.20618,0.04456
4175.13465,0.04438
4177.06312,0.04603
4178.99158,0.04636
4180.92005,0.04434
4182.84852,0.04494
4184.77699,0.04953
4186.70546,0.05270
4188.63393,0.05291
4190.56240,0.05047
4192.49087,0.04567
4194.41933,0.04494
4196.34780,0.04895
4198.27627,0.05256
4200.20474,0.05498
4202.13321,0.05597
4204.06168,0.05451
4205.99015,0.05013
4207.91861,0.04487
4209.84708,0.04458
4211.77555,0.04876
4213.70402,0.04984
4215.63249,0.04720
4217.56096,0.04542
4219.48943,0.04483
4221.41789,0.04296
4223.34636,0.04061
4225.27483,0.04023
4227.20330,0.04011
4229.13177,0.03890
4231.06024,0.03743
4232.98871,0.03752
4234.91718,0.04011
4236.84564,0.04141
4238.77411,0.04009
4240.70258,0.03801
4242.63105,0.03561
4244.55952,0.03585
4246.48799,0.03933
4248.41646,0.04085
4250.34492,0.03772
4252.27339,0.03484
4254.20186,0.03800
4256.13033,0.04033
4258.05880,0.03490
4259.98727,0.03039
4261.91574,0.03187
4263.84421,0.03435
4265.77267,0.03414
4267.70114,0.03154
4269.62961,0.03255
4271.55808,0.03776
4273.48655,0.04034
4275.41502,0.04107
4277.34349,0.04254
4279.27195,0.04133
4281.20042,0.03880
4283.12889,0.03907
4285.05736,0.04009
4286.98583,0.03943
4288.91430,0.03799
4290.84277,0.03633
4292.77124,0.03493
4294.69970,0.03566
4296.62817,0.03759
4298.55664,0.03691
4300.48511,0.03371
4302.41358,0.03062
4304.34205,0.02793
4306.27052,0.02636
4308.19898,0.02850
4310.12745,0.03305
4312.05592,0.03652
4313.98439,0.04008
4315.91286,0.04283
4317.84133,0.04039
4319.76980,0.03507
4321.69827,0.03325
4323.62673,0.03310
4325.55520,0.02833
4327.48367,0.02238
4329.41214,0.02112
4331.34061,0.02129
4333.26908,0.02121
4335.19755,0.02294
4337.12601,0.02393
4339.05448,0.02230
4340.98295,0.02215
4342.91142,0.02694
4344.83989,0.03274
4346.76836,0.03213
4348.69683,0.02619
4350.62530,0.02144
4352.55376,0.01973
4354.48223,0.01982
4356.41070,0.01983
4358.33917,0.01935
4360.26764,0.01786
4362.19611,0.01577
4364.12458,0.01654
4366.05304,0.01992
4367.98151,0.02307
4369.90998,0.02460
4371.83845,0.02322
4373.76692,0.01904
4375.69539,0.01628
4377.62386,0.01750
4379.55232,0.01806
4381.48079,0.01755
4383.40926,0.02044
4385.33773,0.02589
4387.26620,0.03118
4389.19467,0.03265
4391.12314,0.02523
4393.05161,0.01252
4394.98007,0.00676
4396.90854,0.01040
4398.83701,0.01478
4400.76548,0.01865
4402.69395,0.02212
4404.62242,0.01866
4406.55089,0.01195
4408.47935,0.01341
4410.40782,0.02226
4412.33629,0.02652
4414.26476,0.02412
4416.19323,0.02381
4418.12170,0.02390
4420.05017,0.01867
4421.97864,0.01426
4423.90710,0.01546
4425.83557,0.01736
4427.76404,0.01931
4429.69251,0.02241
4431.62098,0.02261
4433.54945,0.02117
4435.47792,0.01914
4437.40638,0.01493
4439.33485,0.01096
4441.26332,0.00995
4443.19179,0.01296
4445.12026,0.01344
4447.04873,0.00551
4448.97720,-0.00359
4450.90567,-0.00571
4452.83413,-0.00205
4454.76260,0.00168
4456.69107,0.00407
4458.61954,0.00593
4460.54801,0.00504
4462.47648,0.00356
4464.40495,0.00801
4466.33341,0.01399
4468.26188,0.01306
4470.19035,0.00991
4472.11882,0.00974
4474.04729,0.00994
4475.97576,0.01134
4477.90423,0.01497
4479.83270,0.01595
4481.76116,0.01186
4483.68963,0.00957
4485.61810,0.01392
4487.54657,0.01679
4489.47504,0.01374
4491.40351,0.00970
4493.33198,0.00514
4495.26044,-0.00122
4497.18891,-0.00638
4499.11738,-0.00708
4501.04585,-0.00179
4502.97432,0.00674
4504.90279,0.01097
4506.83126,0.01071
4508.75973,0.01225
4510.68819,0.01252
4512.61666,0.00774
4514.54513,0.00210
4516.47360,-0.00210
4518.40207,-0.00248
4520.33054,0.00113
4522.25901,0.00218
4524.18747,0.00145
4526.11594,0.00503
4528.04441,0.01048
4529.97288,0.01229
4531.90135,0.01157
4533.82982,0.01114
4535.75829,0.01077
4537.68676,0.01209
4539.61522,0.01624
4541.54369,0.01845
4543.47216,0.01466
4545.40063,0.01000
4547.32910,0.00977
4549.25757,0.00884
4551.18604,0.00449
4553.11450,0.00131
4555.04297,-0.00119
4556.97144,-0.00679
4558.89991,-0.01003
4560.82838,-0.00445
4562.75685,0.00269
4564.68532,0.00354
4566.61378,0.00317
4568.54225,0.00562
4570.47072,0.00714
4572.39919,0.00783
4574.32766,0.00849
4576.25613,0.00562
4578.18460,0.00025
4580.11307,-0.00173
4582.04153,0.00263
4583.97000,0.00859
4585.89847,0.01122
4587.82694,0.01080
4589.75541,0.00773
4591.68388,0.00344
4593.61235,0.00064
4595.54081,0.00024
4597.46928,0.00060
4599.39775,-0.00090
4601.32622,-0.00017
4603.25469,0.00751
4605.18316,0.01243
4607.11163,0.00660
4609.04010,-0.00162
4610.96856,-0.00204
4612.89703,0.00455
4614.82550,0.00897
4616.75397,0.01077
4618.68244,0.01495
4620.61091,0.01573
4622.53938,0.01025
4624.46784,0.00312
4626.39631,-0.00475
4628.32478,-0.00941
4630.25325,-0.00535
4632.18172,0.00121
4634.11019,0.00168
4636.03866,-0.00020
4637.96713,0.00004
4639.89559,0.00095
4641.82406,0.00351
4643.75253,0.00662
4645.68100,0.00639
4647.60947,0.00422
4649.53794,0.00340
4651.46641,0.00591
4653.39487,0.01156
4655.32334,0.01405
4657.25181,0.00968
4659.18028,0.00367
4661.10875,-0.00027
4663.03722,-0.00145
4664.96569,-0.00126
4666.89416,-0.00180
4668.82262,0.00179
4670.75109,0.01374
4672.67956,0.02349
4674.60803,0.02149
4676.53650,0.01604
4678.46497,0.01480
4680.39344,0.01263
4682.32190,0.00674
4684.25037,0.00137
4686.17884,0.00134
4688.10731,0.00804
4690.03578,0.01459
4691.96425,0.01288
4693.89272,0.00773
4695.82119,0.00774
4697.74965,0.00949
4699.67812,0.00649
4701.60659,0.00066
4703.53506,-0.00482
4705.46353,-0.00706
4707.39200,-0.00484
4709.32047,0.00039
4711.24893,0.00749
4713.17740,0.01086
4715.10587,0.00720
4717.03434,0.00265
4718.96281,0.00411
4720.89128,0.00694
4722.81975,0.00238
4724.74821,-0.00349
4726.67668,-0.00309
4728.60515,-0.00191
4730.53362,-0.00367
4732.46209,-0.00483
4734.39056,-0.00258
4736.31903,0.00402
4738.24750,0.01021
4740.17596,0.00710
4742.10443,-0.00091
4744.03290,-0.00208
4745.96137,0.00089
4747.88984,0.00136
4749.81831,-0.00028
4751.74678,-0.00380
4753.67524,-0.00701
4755.60371,-0.00662
4757.53218,-0.00297
4759.46065,0.00166
4761.38912,0.00481
4763.31759,0.00487
4765.24606,0.00296
4767.17453,0.00183
4769.10299,-0.00059
4771.03146,-0.00579
4772.95993,-0.00856
4774.88840,-0.00457
4776.81687,0.00316
4778.74534,0.00655
4780.67381,0.00387
4782.60227,0.00042
4784.53074,-0.00275
4786.45921,-0.00761
4788.38768,-0.01058
4790.31615,-0.00371
4792.24462,0.01047
4794.17309,0.02176
4796.10156,0.02418
4798.03002,0.01633
4799.95849,0.00695
4801.88696,0.00393
4803.81543,0.00268
4805.74390,0.00040
4807.67237,-0.00431
4809.60084,-0.01035
4811.52930,-0.00885
4813.45777,0.00028
4815.38624,0.00823
4817.31471,0.00884
4819.24318,0.00353
4821.17165,-0.00170
4823.10012,-0.00327
4825.02859,-0.00059
4826.95705,0.00159
4828.88552,0.00168
4830.81399,0.00375
4832.74246,0.00720
4834.67093,0.00886
4836.59940,0.00276
4838.52787,-0.00694
4840.45633,-0.00510
4842.38480,0.00709
4844.31327,0.02100
4846.24174,0.02886
4848.17021,0.02259
4850.09868,0.01195
4852.02715,0.00925
4853.95562,0.01161
4855.88408,0.01338
4857.81255,0.01317
4859.74102,0.01142
4861.66949,0.00430
4863.59796,-0.00629
4865.52643,-0.00837
4867.45490,-0.00222
4869.38336,-0.00150
4871.31183,-0.00765
4873.24030,-0.01038
4875.16877,-0.00699
4877.09724,-0.00263
4879.02571,-0.00278
4880.95418,-0.00514
4882.88265,-0.00451
4884.81111,-0.00329
4886.73958,-0.00299
4888.66805,-0.00408
4890.59652,-0.00279
4892.52499,0.00485
4894.45346,0.00704
4896.38193,0.00029
4898.31039,0.00022
4900.23886,0.01081
4902.16733,0.01997
4904.09580,0.02006
4906.02427,0.01370
4907.95274,0.00829
4909.88121,0.00926
4911.80967,0.01074
4913.73814,0.00770
4915.66661,0.00407
4917.59508,0.00034
4919.52355,0.00090
4921.45202,0.00686
4923.38049,0.01086
4925.30896,0.01453
4927.23742,0.01628
4929.16589,0.01105
4931.09436,0.00565
4933.02283,0.00589
4934.95130,0.00835
4936.87977,0.01414
4938.80824,0.02488
4940.73670,0.02783
4942.66517,0.01482
4944.59364,0.00194
4946.52211,0.00083
4948.45058,0.00320
4950.37905,0.00256
4952.30752,-0.00006
4954.23599,-0.00208
4956.16445,-0.00213
4958.09292,-0.00018
4960.02139,0.00366
4961.94986,0.00507
4963.87833,0.00006
4965.80680,-0.00761
4967.73527,-0.01190
4969.66373,-0.01000
4971.59220,0.00031
4973.52067,0.01293
4975.44914,0.02094
4977.37761,0.02395
4979.30608,0.01862
4981.23455,0.01052
4983.16302,0.00888
4985.09148,0.00837
4987.01995,0.00643
4988.94842,0.00892
4990.87689,0.01264
4992.80536,0.01065
4994.73383,0.01270
4996.66230,0.01986
4998.59076,0.01511
5000.51923,0.00451
5002.44770,0.00496
5004.37617,0.01453
5006.30464,0.02160
5008.23311,0.01986
5010.16158,0.01104
5012.09005,0.00448
5014.01851,0.00662
5015.94698,0.01071
5017.87545,0.00916
5019.80392,0.00600
5021.73239,0.00972
5023.66086,0.01446
5025.58933,0.01337
5027.51779,0.01495
5029.44626,0.01478
5031.37473,0.00317
5033.30320,-0.00906
5035.23167,-0.01060
5037.16014,-0.00609
5039.08861,-0.00140
5041.01708,0.00301
5042.94554,0.00578
5044.87401,0.00905
5046.80248,0.01310
5048.73095,0.01436
5050.65942,0.00699
5052.58789,-0.00769
5054.51636,-0.01022
5056.44482,-0.00031
5058.37329,0.00146
5060.30176,-0.00324
5062.23023,-0.00292
5064.15870,-0.00251
5066.08717,-0.00696
5068.01564,-0.00741
5069.94410,0.00408
5071.87257,0.01997
5073.80104,0.03049
5075.72951,0.04059
5077.65798,0.04932
5079.58645,0.04053
5081.51492,0.01640
5083.44339,-0.00314
5085.37185,-0.00785
5087.30032,-0.00000
5089.22879,0.00882
5091.15726,0.00977
5093.08573,0.00540
5095.01420,0.00437
5096.94267,0.00880
5098.87113,0.00817
5100.79960,0.00405
5102.72807,0.00949
5104.65654,0.01911
5106.58501,0.02297
5108.51348,0.01903
5110.44195,0.00592
5112.37042,-0.00085
5114.29888,0.01594
5116.22735,0.03506
5118.15582,0.03048
5120.08429,0.01453
5122.01276,0.01050
5123.94123,0.01959
5125.86970,0.02625
5127.79816,0.01903
5129.72663,0.00745
5131.65510,0.01037
5133.58357,0.02375
5135.51204,0.02621
5137.44051,0.01867
5139.36898,0.01555
5141.29745,0.01594
5143.22591,0.01669
5145.15438,0.01870
5147.08285,0.02065
5149.01132,0.02164
5150.93979,0.01735
5152.86826,0.00878
5154.79673,0.00535
5156.72519,0.00889
5158.65366,0.01636
5160.58213,0.02682
5162.51060,0.03331
5164.43907,0.02972
5166.36754,0.02112
5168.29601,0.01308
5170.22448,0.00818
5172.15294,0.00855
5174.08141,0.00850
5176.00988,0.00591
5177.93835,0.00471
5179.86682,0.00387
5181.79529,0.00784
5183.72376,0.01448
5185.65222,0.01024
5187.58069,-0.00103
5189.50916,-0.00587
5191.43763,-0.00105
5193.36610,0.00724
5195.29457,0.01084
5197.22304,0.01052
5199.15151,0.01179
5201.07997,0.01446
5203.00844,0.01619
5204.93691,0.01522
5206.86538,0.00899
5208.79385,0.00835
5210.72232,0.02157
5212.65079,0.03855
5214.57925,0.04805
5216.50772,0.04131
5218.43619,0.02561
5220.36466,0.02022
5222.29313,0.02217
5224.22160,0.02375
5226.15007,0.02616
5228.07854,0.02676
5230.00700,0.02500
5231.93547,0.01798
5233.86394,0.00897
5235.79241,0.00862
5237.72088,0.01123
5239.64935,0.01013
5241.57782,0.01581
5243.50628,0.03067
5245.43475,0.03662
5247.36322,0.03238
5249.29169,0.03473
5251.22016,0.03626
5253.14863,0.02731
5255.07710,0.01844
5257.00556,0.01641
5258.93403,0.01490
5260.86250,0.00698
5262.79097,-0.00143
5264.71944,-0.00328
5266.64791,-0.00123
5268.57638,0.00585
5270.50485,0.01099
5272.43331,0.00828
5274.36178,0.01297
5276.29025,0.02918
5278.21872,0.03714
5280.14719,0.02926
5282.07566,0.01563
5284.00413,0.00828
5285.93259,0.01591
5287.86106,0.02201
5289.78953,0.01301
5291.71800,0.00508
5293.64647,0.00157
5295.57494,-0.00539
5297.50341,-0.00161
5299.43188,0.01928
5301.36034,0.03580
5303.28881,0.04094
5305.21728,0.03983
5307.14575,0.02358
5309.07422,0.00183
5311.00269,0.00377
5312.93116,0.02918
5314.85962,0.04412
5316.78809,0.03756
5318.71656,0.03489
5320.64503,0.02856
5322.57350,0.00611
5324.50197,0.00023
5326.43044,0.02328
5328.35891,0.04564
5330.28737,0.05399
5332.21584,0.04882
5334.14431,0.03542
5336.07278,0.03587
5338.00125,0.05071
5339.92972,0.05102
5341.85819,0.03614
5343.78665,0.02539
5345.71512,0.02492
5347.64359,0.02936
5349.57206,0.03756
5351.50053,0.05281
5353.42900,0.06589
5355.35747,0.05784
5357.28594,0.02627
5359.21440,-0.00469
5361.14287,-0.00712
5363.07134,0.00599
5364.99981,0.00734
5366.92828,0.00817
5368.85675,0.02221
5370.78522,0.03322
5372.71368,0.03104
5374.64215,0.03306
5376.57062,0.05213
5378.49909,0.07180
5380.42756,0.07550
5382.35603,0.05947
5384.28450,0.02856
5386.21297,0.01155
5388.14143,0.02859
5390.06990,0.05213
5391.99837,0.05706
5393.92684,0.04798
5395.85531,0.03522
5397.78378,0.01985
5399.71225,0.01248
5401.64071,0.02214
5403.56918,0.04071
5405.49765,0.05175
5407.42612,0.04992
5409.35459,0.04406
5411.28306,0.03880
5413.21153,0.03366
5415.13999,0.03369
5417.06846,0.03651
5418.99693,0.03227
5420.92540,0.02234
5422.85387,0.00799
5424.78234,-0.00650
5426.71081,0.00799
5428.63928,0.04711
5430.56774,0.05615
5432.49621,0.04363
5434.42468,0.04262
5436.35315,0.03853
5438.28162,0.02502
5440.21009,0.01785
5442.13856,0.02360
5444.06702,0.03542
5445.99549,0.04465
5447.92396,0.04644
5449.85243,0.04259
5451.78090,0.04501
5453.70937,0.04901
5455.63784,0.04131
5457.56631,0.03018
5459.49477,0.02835
5461.42324,0.03568
5463.35171,0.04265
5465.28018,0.04598
5467.20865,0.04798
5469.13712,0.04250
5471.06559,0.03404
5472.99405,0.02916
5474.92252,0.02938
5476.85099,0.04022
5478.77946,0.05204
5480.70793,0.04644
5482.63640,0.02087
5484.56487,0.00183
5486.49334,0.01209
5488.42180,0.03435
5490.35027,0.04258
5492.27874,0.04194
5494.20721,0.03640
5496.13568,0.02049
5498.06415,0.01246
5499.99262,0.02572
5501.92108,0.04034
5503.84955,0.03983
5505.77802,0.03906
5507.70649,0.04688
5509.63496,0.04757
5511.56343,0.04399
5513.49190,0.04521
5515.42037,0.04656
5517.34883,0.04375
5519.27730,0.03030
5521.20577,0.02266
5523.13424,0.03981
5525.06271,0.05602
5526.99118,0.05004
5528.91965,0.04211
5530.84811,0.04952
5532.77658,0.06254
5534.70505,0.06661
5536.63352,0.06051
5538.56199,0.05338
5540.49046,0.04901
5542.41893,0.04118
5544.34740,0.02737
5546.27586,0.02145
5548.20433,0.03741
5550.13280,0.05620
5552.06127,0.05666
5553.98974,0.04922
5555.91821,0.04555
5557.84668,0.04070
5559.77514,0.03317
5561.70361,0.02996
5563.63208,0.03222
5565.56055,0.03315
5567.48902,0.03149
5569.41749,0.03404
5571.34596,0.04220
5573.27443,0.05231
5575.20289,0.05400
5577.13136,0.03384
5579.05983,0.00779
5580.98830,0.00273
5582.91677,0.01819
5584.84524,0.03734
5586.77371,0.04541
5588.70217,0.03706
5590.63064,0.02516
5592.55911,0.02502
5594.48758,0.02604
5596.41605,0.01140
5598.34452,-0.00524
5600.27299,-0.00051
5602.20145,0.02038
5604.12992,0.04158
5606.05839,0.05655
5607.98686,0.05821
5609.91533,0.05367
5611.84380,0.04687
5613.77227,0.03545
5615.70074,0.04101
5617.62920,0.06567
5619.55767,0.08376
5621.48614,0.07516
5623.41461,0.04357
5625.34308,0.01738
5627.27155,0.00495
5629.20002,0.00628
5631.12848,0.03127
5633.05695,0.05680
5634.98542,0.05469
5636.91389,0.04394
5638.84236,0.05569
5640.77083,0.06947
5642.69930,0.05730
5644.62777,0.03855
5646.55623,0.03446
5648.48470,0.03863
5650.41317,0.04047
5652.34164,0.05390
5654.27011,0.08554
5656.19858,0.09965
5658.12705,0.08798
5660.05551,0.07612
5661.98398,0.06716
5663.91245,0.05211
5665.84092,0.04331
5667.76939,0.05117
5669.69786,0.06079
5671.62633,0.06177
5673.55480,0.04980
5675.48326,0.03174
5677.41173,0.02701
5679.34020,0.02770
5681.26867,0.02733
5683.19714,0.03703
5685.12561,0.03155
5687.05408,-0.00312
5688.98254,-0.01449
5690.91101,0.01052
5692.83948,0.02518
5694.76795,0.02651
5696.69642,0.03502
5698.62489,0.04903
5700.55336,0.05856
5702.48183,0.05739
5704.41029,0.04867
5706.33876,0.04391
5708.26723,0.04306
5710.19570,0.04425
5712.12417,0.05509
5714.05264,0.06673
5715.98111,0.06714
5717.90957,0.05933
5719.83804,0.04390
5721.76651,0.02754
5723.69498,0.01914
5725.62345,0.01574
5727.55192,0.01226
5729.48039,0.00904
5731.40886,0.01601
5733.33732,0.03197
5735.26579,0.04674
5737.19426,0.05979
5739.12273,0.06483
5741.05120,0.06336
5742.97967,0.06091
5744.90814,0.05397
5746.83660,0.04756
5748.76507,0.05198
5750.69354,0.07161
5752.62201,0.08973
5754.55048,0.08242
5756.47895,0.05204
5758.40742,0.02848
5760.33588,0.02857
5762.26435,0.03028
5764.19282,0.01404
5766.12129,-0.00463
5768.04976,-0.00902
5769.97823,0.00447
5771.90670,0.03026
5773.83517,0.04709
5775.76363,0.06018
5777.69210,0.08084
5779.62057,0.08397
5781.54904,0.07044
5783.47751,0.07472
5785.40598,0.10942
5787.33445,0.14552
5789.26291,0.14252
5791.19138,0.10230
5793.11985,0.06134
5795.04832,0.04475
5796.97679,0.04115
5798.90526,0.02696
5800.83373,0.01578
5802.76220,0.03988
5804.69066,0.07600
5806.61913,0.07717
5808.54760,0.05545
5810.47607,0.03578
5812.40454,0.02850
5814.33301,0.03904
5816.26148,0.05294
5818.18994,0.05277
5820.11841,0.03956
5822.04688,0.03517
5823.97535,0.04762
5825.90382,0.06049
5827.83229,0.06322
5829.76076,0.04555
5831.68923,0.01347
5833.61769,-0.00789
5835.54616,-0.00101
5837.47463,0.02511
5839.40310,0.03488
5841.33157,0.02628
5843.26004,0.02471
5845.18851,0.03314
5847.11697,0.05048
5849.04544,0.06846
5850.97391,0.07867
5852.90238,0.07062
5854.83085,0.04641
5856.75932,0.03479
5858.68779,0.03535
5860.61626,0.03315
5862.54472,0.03565
5864.47319,0.05023
5866.40166,0.07198
5868.33013,0.08285
5870.25860,0.05964
5872.18707,0.02575
5874.11554,0.02916
5876.04400,0.05493
5877.97247,0.06553
5879.90094,0.06258
5881.82941,0.05142
5883.75788,0.03528
5885.68635,0.01319
5887.61482,-0.00126
5889.54329,0.01622
5891.47175,0.03995
5893.40022,0.04539
5895.32869,0.04978
5897.25716,0.05017
5899.18563,0.04107
5901.11410,0.04736
5903.04257,0.07830
5904.97103,0.09506
5906.89950,0.07941
5908.82797,0.06639
5910.75644,0.06143
5912.68491,0.04666
5914.61338,0.03856
5916.54185,0.05016
5918.47032,0.06913
5920.39878,0.07664
5922.32725,0.07001
5924.25572,0.06442
5926.18419,0.06284
5928.11266,0.04605
5930.04113,0.02033
5931.96960,0.02209
5933.89806,0.04784
5935.82653,0.04577
5937.75500,0.01391
5939.68347,0.01238
5941.61194,0.04991
5943.54041,0.07232
5945.46888,0.06042
5947.39734,0.03990
5949.32581,0.03047
5951.25428,0.03704
5953.18275,0.05441
5955.11122,0.06793
5957.03969,0.06640
5958.96816,0.05005
5960.89663,0.02728
5962.82509,0.02111
5964.75356,0.04775
5966.68203,0.08849
5968.61050,0.10083
5970.53897,0.07920
5972.46744,0.05846
5974.39591,0.04788
5976.32437,0.04117
5978.25284,0.04004
5980.18131,0.03901
5982.10978,0.03905
5984.03825,0.03444
5985.96672,0.01193
5987.89519,-0.00454
5989.82366,0.01732
5991.75212,0.06590
5993.68059,0.11077
5995.60906,0.12630
5997.53753,0.10405
5999.46600,0.07134
6001.39447,0.05528
6003.32294,0.05072
6005.25140,0.03612
6007.17987,0.02039
6009.10834,0.04006
6011.03681,0.08442
6012.96528,0.10363
6014.89375,0.09941
6016.82222,0.09106
6018.75069,0.05209
6020.67915,-0.00479
6022.60762,-0.02527
6024.53609,-0.01217
6026.46456,0.02588
6028.39303,0.07944
6030.32150,0.09992
6032.24997,0.08836
6034.17843,0.08012
6036.10690,0.08027
6038.03537,0.07445
6039.96384,0.04683
6041.89231,0.02934
6043.82078,0.05449
6045.74925,0.08164
6047.67772,0.07821
6049.60618,0.05841
6051.53465,0.03960
6053.46312,0.02812
6055.39159,0.01923
6057.32006,0.00477
6059.24853,-0.00838
6061.17700,0.00067
6063.10546,0.03792
6065.03393,0.06219
6066.96240,0.05393
6068.89087,0.03867
6070.81934,0.02526
6072.74781,0.01257
6074.67628,-0.00159
6076.60475,-0.01372
6078.53321,-0.00713
6080.46168,0.00144
6082.39015,-0.00139
6084.31862,0.01675
6086.24709,0.05664
6088.17556,0.08360
6090.10403,0.09491
6092.03249,0.08786
6093.96096,0.05591
6095.88943,0.03367
6097.81790,0.05234
6099.74637,0.07779
6101.67484,0.06073
6103.60331,0.02646
6105.53177,0.01345
6107.46024,0.00559
6109.38871,-0.00361
6111.31718,0.01050
6113.24565,0.05771
6115.17412,0.11413
6117.10259,0.12244
6119.03106,0.04074
6120.95952,-0.05506
6122.88799,-0.05829
6124.81646,0.00765
6126.74493,0.05769
6128.67340,0.06158
6130.60187,0.04405
6132.53034,0.02840
6134.45880,0.02663
6136.38727,0.04147
6138.31574,0.04763
6140.24421,0.02822
6142.17268,-0.00054
6144.10115,-0.00923
6146.02962,0.02417
6147.95809,0.05922
6149.88655,0.05340
6151.81502,0.04030
6153.74349,0.05026
6155.67196,0.06398
6157.60043,0.07565
6159.52890,0.08503
6161.45737,0.07342
6163.38583,0.03490
6165.31430,-0.00576
6167.24277,-0.01854
6169.17124,0.00531
6171.09971,0.05196
6173.02818,0.08238
6174.95665,0.06575
6176.88512,0.01916
6178.81358,-0.01468
6180.74205,0.00564
6182.67052,0.08368
6184.59899,0.15139
6186.52746,0.16455
6188.45593,0.14245
6190.38440,0.11084
6192.31286,0.09093
6194.24133,0.08609
6196.16980,0.07861
6198.09827,0.06795
6200.02674,0.06070
6201.95521,0.05152
6203.88368,0.04502
6205.81215,0.04694
6207.74061,0.03706
6209.66908,0.01992
6211.59755,0.02713
6213.52602,0.02503
6215.45449,-0.00650
6217.38296,0.00233
6219.31143,0.06591
6221.23989,0.11495
6223.16836,0.11494
6225.09683,0.06835
6227.02530,0.02397
6228.95377,0.02163
6230.88224,0.01686
6232.81071,0.00760
6234.73918,0.03236
6236.66764,0.04604
6238.59611,0.01684
6240.52458,-0.01089
6242.45305,-0.01503
6244.38152,-0.02279
6246.30999,-0.02060
6248.23846,-0.00405
6250.16692,-0.00039
6252.09539,0.01554
6254.02386,0.04737
6255.95233,0.05250
6257.88080,0.02970
6259.80927,0.00816
6261.73774,0.01054
6263.66621,0.04341
6265.59467,0.08422
6267.52314,0.09121
6269.45161,0.06027
6271.38008,0.05020
6273.30855,0.08485
6275.23702,0.10714
6277.16549,0.09342
6279.09395,0.06983
6281.02242,0.05451
6282.95089,0.07243
6284.87936,0.11027
6286.80783,0.11529
6288.73630,0.08860
6290.66477,0.07329
6292.59323,0.06316
6294.52170,0.03757
6296.45017,0.01459
6298.37864,0.02280
6300.30711,0.06629
6302.23558,0.10147
6304.16405,0.10052
6306.09252,0.08131
6308.02098,0.05579
6309.94945,0.03352
6311.87792,0.03102
6313.80639,0.04131
6315.73486,0.04236
6317.66333,0.06497
6319.59180,0.12248
6321.52026,0.16821
6323.44873,0.17685
6325.37720,0.14009
6327.30567,0.05523
6329.23414,-0.02007
6331.16261,-0.00751
6333.09108,0.06467
6335.01955,0.10563
6336.94801,0.09399
6338.87648,0.06624
6340.80495,0.03861
6342.73342,0.01183
6344.66189,0.01792
6346.59036,0.05698
6348.51883,0.07458
6350.44729,0.06877
6352.37576,0.04892
6354.30423,0.01168
6356.23270,-0.00160
6358.16117,0.03875
6360.08964,0.08693
6362.01811,0.09515
6363.94658,0.10149
6365.87504,0.12916
6367.80351,0.10592
6369.73198,0.01696
6371.66045,-0.03197
6373.58892,0.01110
6375.51739,0.06405
6377.44586,0.08193
6379.37432,0.09143
6381.30279,0.10240
6383.23126,0.09403
6385.15973,0.05142
6387.08820,0.01741
6389.01667,0.01539
6390.94514,0.00712
6392.87361,-0.02217
6394.80207,-0.01119
6396.73054,0.03922
6398.65901,0.07089
6400.58748,0.08741
6402.51595,0.09046
6404.44442,0.07702
6406.37289,0.07575
6408.30135,0.07746
6410.22982,0.08152
6412.15829,0.10976
6414.08676,0.13327
6416.01523,0.13641
6417.94370,0.12671
6419.87217,0.08126
6421.80064,-0.00167
6423.72910,-0.04515
6425.65757,0.00422
6427.58604,0.05830
6429.51451,0.03968
6431.44298,-0.00717
6433.37145,-0.04166
6435.29992,-0.05270
6437.22838,-0.01337
6439.15685,0.03971
6441.08532,0.05037
6443.01379,0.04961
6444.94226,0.05802
6446.87073,0.03934
6448.79920,0.01527
6450.72766,0.00965
6452.65613,-0.01306
6454.58460,-0.02873
6456.51307,-0.00731
6458.44154,0.00885
6460.37001,0.01751
6462.29848,0.04824
6464.22695,0.07593
6466.15541,0.06551
6468.08388,0.02083
6470.01235,0.00906
6471.94082,0.07300
6473.86929,0.10414
6475.79776,0.05708
6477.72623,0.03405
6479.65469,0.03939
6481.58316,0.01903
6483.51163,-0.00348
6485.44010,0.00372
6487.36857,0.05923
6489.29704,0.13411
6491.22551,0.15113
6493.15398,0.09561
6495.08244,0.03358
6497.01091,0.00168
6498.93938,-0.00558
6500.86785,0.00119
6502.79632,0.00916
6504.72479,0.00367
6506.65326,-0.01218
6508.58172,-0.00860
6510.51019,0.02307
6512.43866,0.05896
6514.36713,0.09252
6516.29560,0.11266
6518.22407,0.11539
6520.15254,0.11876
6522.08101,0.12352
6524.00947,0.13993
6525.93794,0.16052
6527.86641,0.13251
6529.79488,0.04907
6531.72335,-0.02295
6533.65182,-0.03694
6535.58029,-0.03662
6537.50875,-0.03829
6539.43722,-0.00979
6541.36569,0.01304
6543.29416,0.01366
6545.22263,0.05008
6547.15110,0.09937
6549.07957,0.07730
6551.00804,-0.00215
6552.93650,-0.02174
6554.86497,0.02241
6556.79344,0.03844
6558.72191,0.02233
6560.65038,0.02545
6562.57885,0.03496
6564.50732,0.01351
6566.43578,0.00431
6568.36425,0.04413
6570.29272,0.09518
6572.22119,0.16399
6574.14966,0.18455
6576.07813,0.09040
6578.00660,0.00579
6579.93507,0.00419
6581.86353,0.02532
6583.79200,0.04487
6585.72047,0.05383
6587.64894,0.04544
6589.57741,0.02858
6591.50588,0.03045
6593.43435,0.08032
6595.36281,0.13091
6597.29128,0.12266
6599.21975,0.10852
6601.14822,0.12766
6603.07669,0.13037
6605.00516,0.09854
6606.93363,0.06021
6608.86210,0.03450
6610.79056,0.05216
6612.71903,0.12935
6614.64750,0.17161
6616.57597,0.11729
6618.50444,0.03672
6620.43291,-0.00454
6622.36138,0.01040
6624.28984,0.04500
6626.21831,0.04160
6628.14678,0.00385
6630.07525,-0.00615
6632.00372,0.03986
6633.93219,0.08003
6635.86066,0.07689
6637.78912,0.06388
6639.71759,0.06004
6641.64606,0.05451
6643.57453,0.06268
6645.50300,0.07396
6647.43147,0.05425
6649.35994,0.04966
6651.28841,0.07261
6653.21687,0.06435
6655.14534,0.04157
6657.07381,0.05247
6659.00228,0.03386
6660.93075,-0.05280
6662.85922,-0.11292
6664.78769,-0.10126
6666.71615,-0.06394
6668.64462,-0.00749
6670.57309,0.06352
6672.50156,0.08121
6674.43003,0.04261
6676.35850,0.04106
6678.28697,0.07860
6680.21544,0.08249
6682.14390,0.03856
6684.07237,0.00734
6686.00084,0.02538
6687.92931,0.04802
6689.85778,0.03283
6691.78625,0.00369
6693.71472,0.00354
6695.64318,0.05452
6697.57165,0.11705
6699.50012,0.11177
6701.42859,0.04541
6703.35706,0.00800
6705.28553,0.04114
6707.21400,0.06428
6709.14247,0.01712
6711.07093,-0.02914
6712.99940,-0.02642
6714.92787,-0.00035
6716.85634,0.01807
6718.78481,0.02736
6720.71328,0.02115
6722.64175,-0.00826
6724.57021,-0.00445
6726.49868,0.01487
6728.42715,-0.02912
6730.35562,-0.06693
6732.28409,-0.02547
6734.21256,0.01967
6736.14103,0.06018
6738.06950,0.09820
6739.99796,0.06308
6741.92643,0.00361
6743.85490,-0.00505
6745.78337,-0.01492
6747.71184,-0.04007
6749.64031,-0.04346
6751.56878,-0.01535
6753.49724,0.02461
6755.42571,0.06075
6757.35418,0.07136
6759.28265,0.04049
6761.21112,-0.00810
6763.13959,-0.04206
6765.06806,-0.04210
6766.99653,-0.03019
6768.92499,-0.03740
6770.85346,-0.01113
6772.78193,0.05601
6774.71040,0.08882
6776.63887,0.06574
6778.56734,0.01982
6780.49581,0.00123
6782.42427,0.02422
6784.35274,0.01099
6786.28121,-0.03855
6788.20968,-0.04000
6790.13815,-0.01148
6792.06662,-0.01107
6793.99509,-0.00874
6795.92355,-0.00440
6797.85202,-0.03271
6799.78049,-0.03505
6801.70896,0.03519
6803.63743,0.11172
6805.56590,0.14408
6807.49437,0.13919
6809.42284,0.10217
6811.35130,0.06392
6813.27977,0.03776
6815.20824,-0.01266
6817.13671,-0.06218
6819.06518,-0.05328
6820.99365,0.02152
6822.92212,0.10928
6824.85058,0.08894
6826.77905,-0.02346
6828.70752,-0.10026
6830.63599,-0.08959
6832.56446,-0.05782
6834.49293,-0.03113
6836.42140,0.00654
6838.34987,0.05426
6840.27833,0.08561
6842.20680,0.07842
6844.13527,0.03931
6846.06374,-0.02810
6847.99221,-0.08311
6849.92068,-0.02417
6851.84915,0.09062
6853.77761,0.11514
6855.70608,0.06469
6857.63455,0.03971
6859.56302,0.02059
6861.49149,-0.01646
6863.41996,-0.00255
6865.34843,0.08048
6867.27690,0.13099
6869.20536,0.09228
6871.13383,0.01286
6873.06230,-0.06561
6874.99077,-0.07941
6876.91924,-0.03168
6878.84771,0.06659
6880.77618,0.22011
6882.70464,0.29506
6884.63311,0.24188
6886.56158,0.14540
6888.49005,0.10557
6890.41852,0.16689
6892.34699,0.20332
6894.27546,0.13661
6896.20393,0.06095
6898.13239,0.02004
6900.06086,-0.02097
6901.98933,-0.05644
6903.91780,-0.05463
6905.84627,-0.02261
6907.77474,0.01293
6909.70321,0.02084
6911.63167,0.00663
6913.56014,0.01635
6915.48861,0.04343
6917.41708,0.04825
6919.34555,0.05737
6921.27402,0.08825
6923.20249,0.04438
6925.13096,-0.04810
6927.05942,-0.07509
6928.98789,-0.03352
6930.91636,0.02276
6932.84483,0.02952
6934.77330,-0.00985
6936.70177,-0.03348
6938.63024,-0.06427
6940.55870,-0.12592
6942.48717,-0.14105
6944.41564,-0.08064
6946.34411,0.02387
6948.27258,0.10890
6950.20105,0.11602
6952.12952,0.06468
6954.05799,0.02266
6955.98645,0.05569
6957.91492,0.14410
6959.84339,0.19521
6961.77186,0.17213
6963.70033,0.13070
6965.62880,0.13155
6967.55727,0.15421
6969.48573,0.13940
6971.41420,0.09526
6973.34267,0.05981
6975.27114,0.07122
6977.19961,0.14741
6979.12808,0.20566
6981.05655,0.17720
6982.98501,0.11998
6984.91348,0.09834
6986.84195,0.05512
6988.77042,-0.00057
6990.69889,0.00448
6992.62736,0.04739
6994.55583,0.07640
6996.48430,0.06729
6998.41276,0.02262
7000.34123,-0.02414
7002.26970,-0.03659
7004.19817,-0.03037
7006.12664,-0.01554
7008.05511,0.01124
7009.98358,0.01042
7011.91204,-0.02070
7013.84051,-0.06625
7015.76898,-0.06140
7017.69745,0.01602
7019.62592,0.05344
7021.55439,0.03069
7023.48286,0.00795
7025.41133,-0.04364
7027.33979,-0.06808
7029.26826,-0.00479
7031.19673,0.01436
7033.12520,-0.03240
7035.05367,-0.07454
7036.98214,-0.10931
7038.91061,-0.11591
7040.83907,-0.04288
7042.76754,0.04303
7044.69601,0.07302
7046.62448,0.09910
7048.55295,0.18334
7050.48142,0.25868
7052.40989,0.22704
7054.33836,0.15461
7056.26682,0.15750
7058.19529,0.19001
7060.12376,0.18950
7062.05223,0.16049
7063.98070,0.08289
7065.90917,0.01161
7067.83764,-0.02295
7069.76610,-0.02153
7071.69457,0.04696
7073.62304,0.08852
7075.55151,0.07070
7077.47998,0.09320
7079.40845,0.18948
7081.33692,0.24554
7083.26539,0.12527
7085.19385,-0.04132
7087.12232,-0.09011
7089.05079,-0.04084
7090.97926,-0.01163
7092.90773,0.00774
7094.83620,0.05911
7096.76467,0.10253
7098.69313,0.08755
7100.62160,0.04091
7102.55007,-0.02839
7104.47854,-0.10881
7106.40701,-0.13712
7108.33548,-0.08063
7110.26395,0.00845
7112.19242,0.06697
7114.12088,0.09355
7116.04935,0.12533
7117.97782,0.16234
7119.90629,0.14199
7121.83476,0.06479
7123.76323,0.02965
7125.69170,0.06252
7127.62016,0.08729
7129.54863,0.05940
7131.47710,-0.03195
7133.40557,-0.14557
7135.33404,-0.17638
7137.26251,-0.11448
7139.19098,-0.00858
7141.11944,0.09650
7143.04791,0.10968
7144.97638,0.02874
7146.90485,0.01584
7148.83332,0.09916
7150.76179,0.13344
7152.69026,0.09262
7154.61873,0.05591
7156.54719,0.03794
7158.47566,0.01446
7160.40413,-0.01224
7162.33260,-0.01842
7164.26107,-0.00524
7166.18954,-0.00667
7168.11801,-0.03688
7170.04647,-0.08080
7171.97494,-0.12539
7173.90341,-0.15158
7175.83188,-0.07238
7177.76035,0.09543
7179.68882,0.18206
7181.61729,0.16894
7183.54576,0.11685
7185.47422,0.06268
7187.40269,0.03917
7189.33116,0.03241
7191.25963,0.02238
7193.18810,0.02416
7195.11657,0.04779
7197.04504,0.06490
7198.97350,0.06823
7200.90197,0.07271
7202.83044,0.06193
7204.75891,0.00051
7206.68738,-0.07644
7208.61585,-0.08830
7210.54432,-0.01055
7212.47279,0.11855
7214.40125,0.20834
7216.32972,0.23066
7218.25819,0.23594
7220.18666,0.18594
7222.11513,0.08930
7224.04360,0.03032
7225.97207,0.01791
7227.90053,0.03865
7229.82900,0.08679
7231.75747,0.12257
7233.68594,0.13394
7235.61441,0.10253
7237.54288,0.04058
7239.47135,0.01104
7241.39982,0.00713
7243.32828,0.05110
7245.25675,0.13647
7247.18522,0.15129
7249.11369,0.06142
7251.04216,-0.07964
7252.97063,-0.18077
7254.89910,-0.17472
7256.82756,-0.12619
7258.75603,-0.08889
7260.68450,-0.04895
7262.61297,0.02135
7264.54144,0.08413
7266.46991,0.06503
7268.39838,-0.00230
7270.32685,-0.00441
7272.25531,0.12631
7274.18378,0.24069
7276.11225,0.26776
7278.04072,0.24269
7279.96919,0.08697
7281.89766,-0.05359
7283.82613,-0.02543
7285.75459,0.01180
7287.68306,-0.00492
7289.61153,-0.06489
7291.54000,-0.15261
7293.46847,-0.16314
7295.39694,-0.07625
7297.32541,0.00986
7299.25387,0.03236
7301.18234,0.00299
7303.11081,-0.04798
7305.03928,-0.10161
7306.96775,-0.13295
7308.89622,-0.11454
7310.82469,-0.05557
7312.75316,0.01940
7314.68162,0.05137
7316.61009,-0.04362
7318.53856,-0.14619
7320.46703,-0.10280
7322.39550,0.02159
7324.32397,0.10969
7326.25244,0.11164
7328.18090,0.12901
7330.10937,0.19107
7332.03784,0.15043
7333.96631,0.07035
7335.89478,0.03779
7337.82325,0.06082
7339.75172,0.17832
7341.68019,0.20647
7343.60865,0.09464
7345.53712,0.05050
7347.46559,0.08231
7349.39406,0.06903
7351.32253,-0.01931
7353.25100,-0.15199
7355.17947,-0.18722
7357.10793,-0.00122
7359.03640,0.23716
7360.96487,0.26355
7362.89334,0.16176
7364.82181,0.08969
7366.75028,0.04297
7368.67875,-0.00829
7370.60722,-0.01821
7372.53568,0.01211
7374.46415,0.07155
7376.39262,0.13390
7378.32109,0.11715
7380.24956,0.09104
7382.17803,0.17767
7384.10650,0.28309
7386.03496,0.25997
7387.96343,0.11797
7389.89190,-0.03274
7391.82037,-0.05741
7393.74884,0.05458
7395.67731,0.18183
7397.60578,0.23191
7399.53425,0.22949
7401.46271,0.18134
7403.39118,0.01977
7405.31965,-0.13627
7407.24812,-0.10910
7409.17659,0.01111
7411.10506,0.06697
7413.03353,-0.03402
7414.96199,-0.18783
7416.89046,-0.20282
7418.81893,-0.08060
7420.74740,-0.05187
7422.67587,-0.08832
7424.60434,-0.07772
7426.53281,-0.03057
7428.46128,0.04295
7430.38974,0.12251
7432.31821,0.15997
7434.24668,0.20759
7436.17515,0.29050
7438.10362,0.35697
7440.03209,0.38155
7441.96056,0.33291
7443.88902,0.19320
7445.81749,0.07760
7447.74596,0.02955
7449.67443,-0.04940
7451.60290,-0.05894
7453.53137,0.06375
7455.45984,0.11453
7457.38831,0.06965
7459.31677,-0.06380
7461.24524,-0.22606
7463.17371,-0.28642
7465.10218,-0.26542
7467.03065,-0.17410
7468.95912,-0.03162
7470.88759,0.08100
7472.81605,0.14264
7474.74452,0.17595
7476.67299,0.09303
7478.60146,-0.06111
7480.52993,-0.10711
7482.45840,-0.08431
7484.38687,-0.04084
7486.31533,0.04247
7488.24380,0.03932
7490.17227,-0.04297
7492.10074,-0.04171
7494.02921,0.01760
7495.95768,0.08547
7497.88615,0.13601
