399.19301,1.47431
401.12148,0.43948
403.04995,0.51812
404.97842,0.34389
406.90689,0.17794
408.83536,0.15775
410.76382,0.14804
412.69229,0.02040
414.62076,-0.07983
416.54923,-0.01399
418.47770,0.15747
420.40617,0.15573
422.33464,0.04221
424.26311,-0.01946
426.19157,-0.00672
428.12004,0.02614
430.04851,0.03152
431.97698,0.06312
433.90545,0.12070
435.83392,0.13361
437.76239,0.11095
439.69085,0.08214
441.61932,0.07734
443.54779,0.10071
445.47626,0.08207
447.40473,0.03221
449.33320,0.02928
451.26167,0.04698
453.19013,0.01737
455.11860,-0.03885
457.04707,-0.05314
458.97554,0.01657
460.90401,0.10327
462.83248,0.11332
464.76095,0.07334
466.68942,0.07658
468.61788,0.10150
470.54635,0.06634
472.47482,-0.03055
474.40329,-0.03387
476.33176,0.08890
478.26023,0.14530
480.18870,0.10711
482.11716,0.03835
484.04563,0.01233
485.97410,0.00166
487.90257,-0.01921
489.83104,0.00189
491.75951,0.05814
493.68798,0.06623
495.61645,0.00485
497.54491,-0.03301
499.47338,0.01314
501.40185,0.09053
503.33032,0.12055
505.25879,0.08068
507.18726,0.03425
509.11573,0.04958
511.04419,0.08106
512.97266,0.06467
514.90113,0.02895
516.82960,0.03306
518.75807,0.04711
520.68654,0.02229
522.61501,-0.00364
524.54348,0.01610
526.47194,0.07219
528.40041,0.11801
530.32888,0.12187
532.25735,0.09765
534.18582,0.09981
536.11429,0.13493
538.04276,0.13438
539.97122,0.07970
541.89969,0.04088
543.82816,0.05058
545.75663,0.05336
547.68510,0.02617
549.61357,0.02047
551.54204,0.05779
553.47051,0.07780
555.39897,0.04498
557.32744,0.00903
559.25591,0.02020
561.18438,0.05578
563.11285,0.07258
565.04132,0.07113
566.96979,0.07647
568.89825,0.08734
570.82672,0.08119
572.75519,0.06659
574.68366,0.06973
576.61213,0.08974
578.54060,0.10216
580.46907,0.08150
582.39754,0.04134
584.32600,0.02760
586.25447,0.04461
588.18294,0.05484
590.11141,0.05111
592.03988,0.06600
593.96835,0.08679
595.89682,0.07532
597.82528,0.05270
599.75375,0.05274
601.68222,0.06825
603.61069,0.07503
605.53916,0.06330
607.46763,0.04845
609.39610,0.05245
611.32456,0.06572
613.25303,0.06507
615.18150,0.05509
617.10997,0.05825
619.03844,0.07398
620.96691,0.06827
622.89538,0.03991
624.82385,0.03156
626.75231,0.05100
628.68078,0.06395
630.60925,0.05599
632.53772,0.04745
634.46619,0.05271
636.39466,0.05791
638.32313,0.05329
640.25159,0.05895
642.18006,0.07694
644.10853,0.07790
646.03700,0.06443
647.96547,0.05405
649.89394,0.04999
651.82241,0.05623
653.75088,0.06812
655.67934,0.07554
657.60781,0.07679
659.53628,0.07710
661.46475,0.08029
663.39322,0.08240
665.32169,0.08314
667.25016,0.08800
669.17862,0.09242
671.10709,0.08899
673.03556,0.08632
674.96403,0.09483
676.89250,0.10862
678.82097,0.10364
680.74944,0.08541
682.67791,0.07606
684.60637,0.07316
686.53484,0.06868
688.46331,0.06387
690.39178,0.05890
692.32025,0.05804
694.24872,0.06270
696.17719,0.06303
698.10565,0.06090
700.03412,0.06528
701.96259,0.07249
703.89106,0.07226
705.81953,0.06920
707.74800,0.07514
709.67647,0.07890
711.60494,0.07118
713.53340,0.06080
715.46187,0.05771
717.39034,0.06244
719.31881,0.06336
721.24728,0.05756
723.17575,0.05465
725.10422,0.05948
727.03268,0.06880
728.96115,0.07282
730.88962,0.07024
732.81809,0.06994
734.74656,0.07320
736.67503,0.07584
738.60350,0.07340
740.53197,0.06424
742.46043,0.05774
744.38890,0.06184
746.31737,0.06967
748.24584,0.07173
750.17431,0.07217
752.10278,0.07511
754.03125,0.07264
755.95971,0.06483
757.88818,0.06394
759.81665,0.07165
761.74512,0.07628
763.67359,0.07438
765.60206,0.07424
767.53053,0.07946
769.45900,0.08176
771.38746,0.07365
773.31593,0.06597
775.24440,0.07224
777.17287,0.08278
779.10134,0.08194
781.02981,0.07719
782.95828,0.07756
784.88674,0.07536
786.81521,0.06735
788.74368,0.05876
790.67215,0.05647
792.60062,0.06388
794.52909,0.07455
796.45756,0.07704
798.38602,0.07211
800.31449,0.07514
802.24296,0.08416
804.17143,0.08065
806.09990,0.06798
808.02837,0.06215
809.95684,0.06732
811.88531,0.07453
813.81377,0.06984
815.74224,0.05733
817.67071,0.05866
819.59918,0.07331
821.52765,0.08012
823.45612,0.07159
825.38459,0.06163
827.31305,0.06578
829.24152,0.07762
831.16999,0.08188
833.09846,0.07979
835.02693,0.08266
836.95540,0.08839
838.88387,0.08656
840.81234,0.08280
842.74080,0.08700
844.66927,0.09179
846.59774,0.08806
848.52621,0.08157
850.45468,0.08109
852.38315,0.08559
854.31162,0.08863
856.24008,0.09018
858.16855,0.09075
860.09702,0.08883
862.02549,0.08656
863.95396,0.08366
865.88243,0.08297
867.81090,0.09887
869.73937,0.12792
871.66783,0.13162
873.59630,0.10586
875.52477,0.08910
877.45324,0.08486
879.38171,0.07568
881.31018,0.06358
883.23865,0.06188
885.16711,0.06971
887.09558,0.07054
889.02405,0.06673
890.95252,0.06937
892.88099,0.07612
894.80946,0.08071
896.73793,0.08045
898.66640,0.08113
900.59486,0.08852
902.52333,0.09411
904.45180,0.08788
906.38027,0.07923
908.30874,0.08102
910.23721,0.08673
912.16568,0.08490
914.09414,0.07657
916.02261,0.06778
917.95108,0.06509
919.87955,0.06899
921.80802,0.07059
923.73649,0.06893
925.66496,0.07123
927.59343,0.07581
929.52189,0.07500
931.45036,0.07273
933.37883,0.07931
935.30730,0.09011
937.23577,0.09200
939.16424,0.08425
941.09271,0.07834
943.02117,0.08180
944.94964,0.08747
946.87811,0.08441
948.80658,0.07531
950.73505,0.07218
952.66352,0.07632
954.59199,0.07870
956.52045,0.07716
958.44892,0.07633
960.37739,0.07948
962.30586,0.08175
964.23433,0.07735
966.16280,0.07362
968.09127,0.07701
970.01974,0.08199
971.94820,0.08114
973.87667,0.07762
975.80514,0.07927
977.73361,0.08462
979.66208,0.08697
981.59055,0.08266
983.51902,0.07858
985.44748,0.08104
987.37595,0.08388
989.30442,0.08302
991.23289,0.08262
993.16136,0.08615
995.08983,0.08955
997.01830,0.08650
998.94677,0.08157
1000.87523,0.08370
1002.80370,0.08941
1004.73217,0.08947
1006.66064,0.08572
1008.58911,0.08400
1010.51758,0.08290
1012.44605,0.07981
1014.37451,0.07545
1016.30298,0.07340
1018.23145,0.07556
1020.15992,0.07948
1022.08839,0.08343
1024.01686,0.08536
1025.94533,0.08398
1027.87380,0.08037
1029.80226,0.07744
1031.73073,0.07892
1033.65920,0.08196
1035.58767,0.08133
1037.51614,0.08015
1039.44461,0.08597
1041.37308,0.09497
1043.30154,0.09467
1045.23001,0.08639
1047.15848,0.07948
1049.08695,0.07387
1051.01542,0.07058
1052.94389,0.07422
1054.87236,0.07969
1056.80083,0.08279
1058.72929,0.08783
1060.65776,0.09453
1062.58623,0.09561
1064.51470,0.08758
1066.44317,0.07869
1068.37164,0.07840
1070.30011,0.08228
1072.22857,0.08198
1074.15704,0.08172
1076.08551,0.08860
1078.01398,0.09853
1079.94245,0.10006
1081.87092,0.09167
1083.79939,0.08941
1085.72786,0.09862
1087.65632,0.10065
1089.58479,0.09028
1091.51326,0.08509
1093.44173,0.08908
1095.37020,0.09056
1097.29867,0.08721
1099.22714,0.08448
1101.15560,0.08612
1103.08407,0.08856
1105.01254,0.08670
1106.94101,0.08714
1108.86948,0.09159
1110.79795,0.08941
1112.72642,0.08166
1114.65489,0.07793
1116.58335,0.07967
1118.51182,0.08361
1120.44029,0.08706
1122.36876,0.08899
1124.29723,0.08826
1126.22570,0.08827
1128.15417,0.09099
1130.08263,0.08624
1132.01110,0.07444
1133.93957,0.07149
1135.86804,0.08110
1137.79651,0.09119
1139.72498,0.09404
1141.65345,0.09451
1143.58191,0.09530
1145.51038,0.09209
1147.43885,0.08720
1149.36732,0.08532
1151.29579,0.08505
1153.22426,0.08536
1155.15273,0.08517
1157.08120,0.08433
1159.00966,0.08711
1160.93813,0.09126
1162.86660,0.09004
1164.79507,0.08647
1166.72354,0.08645
1168.65201,0.08968
1170.58048,0.09238
1172.50894,0.09157
1174.43741,0.08930
1176.36588,0.08797
1178.29435,0.08632
1180.22282,0.08464
1182.15129,0.08484
1184.07976,0.08736
1186.00823,0.08994
1187.93669,0.09103
1189.86516,0.09061
1191.79363,0.08915
1193.72210,0.09042
1195.65057,0.09501
1197.57904,0.09882
1199.50751,0.10022
1201.43597,0.10027
1203.36444,0.09938
1205.29291,0.09698
1207.22138,0.09349
1209.14985,0.09106
1211.07832,0.09175
1213.00679,0.09225
1214.93526,0.09033
1216.86372,0.08912
1218.79219,0.08834
1220.72066,0.08821
1222.64913,0.09022
1224.57760,0.09335
1226.50607,0.09585
1228.43454,0.09606
1230.36300,0.09471
1232.29147,0.09239
1234.21994,0.09013
1236.14841,0.09107
1238.07688,0.09268
1240.00535,0.08932
1241.93382,0.08506
1243.86229,0.08616
1245.79075,0.08789
1247.71922,0.08630
1249.64769,0.08571
1251.57616,0.08763
1253.50463,0.08831
1255.43310,0.08613
1257.36157,0.08321
1259.29003,0.08191
1261.21850,0.08372
1263.14697,0.08776
1265.07544,0.09061
1267.00391,0.09124
1268.93238,0.09129
1270.86085,0.09136
1272.78932,0.09079
1274.71778,0.08915
1276.64625,0.08909
1278.57472,0.09198
1280.50319,0.09200
1282.43166,0.08868
1284.36013,0.08955
1286.28860,0.09227
1288.21706,0.09072
1290.14553,0.08839
1292.07400,0.08887
1294.00247,0.09003
1295.93094,0.08944
1297.85941,0.08794
1299.78788,0.08556
1301.71634,0.07885
1303.64481,0.06894
1305.57328,0.06597
1307.50175,0.07512
1309.43022,0.08791
1311.35869,0.09699
1313.28716,0.10010
1315.21563,0.09782
1317.14409,0.09748
1319.07256,0.10019
1321.00103,0.09855
1322.92950,0.09316
1324.85797,0.08881
1326.78644,0.08833
1328.71491,0.09116
1330.64337,0.09021
1332.57184,0.08745
1334.50031,0.08966
1336.42878,0.09409
1338.35725,0.09733
1340.28572,0.09294
1342.21419,0.08555
1344.14266,0.08564
1346.07112,0.08726
1347.99959,0.08651
1349.92806,0.08659
1351.85653,0.08777
1353.78500,0.08851
1355.71347,0.08907
1357.64194,0.09133
1359.57040,0.09539
1361.49887,0.09977
1363.42734,0.09945
1365.35581,0.09473
1367.28428,0.09178
1369.21275,0.09244
1371.14122,0.09720
1373.06969,0.10302
1374.99815,0.10416
1376.92662,0.10189
1378.85509,0.10005
1380.78356,0.09899
1382.71203,0.10041
1384.64050,0.10499
1386.56897,0.11022
1388.49743,0.10966
1390.42590,0.10382
1392.35437,0.10383
1394.28284,0.11360
1396.21131,0.12126
1398.13978,0.11720
1400.06825,0.10798
1401.99672,0.10489
1403.92518,0.10862
1405.85365,0.10902
1407.78212,0.10335
1409.71059,0.10082
1411.63906,0.10329
1413.56753,0.10632
1415.49600,0.11174
1417.42446,0.12074
1419.35293,0.12156
1421.28140,0.11351
1423.20987,0.10933
1425.13834,0.10736
1427.06681,0.10620
1428.99528,0.10827
1430.92375,0.11045
1432.85221,0.11008
1434.78068,0.11206
1436.70915,0.11433
1438.63762,0.10835
1440.56609,0.10217
1442.49456,0.10172
1444.42303,0.10560
1446.35149,0.11044
1448.27996,0.11041
1450.20843,0.10686
1452.13690,0.10818
1454.06537,0.11651
1455.99384,0.13087
1457.92231,0.13547
1459.85077,0.12230
1461.77924,0.11532
1463.70771,0.11715
1465.63618,0.11742
1467.56465,0.11335
1469.49312,0.11569
1471.42159,0.12751
1473.35006,0.13503
1475.27852,0.12755
1477.20699,0.11872
1479.13546,0.11438
1481.06393,0.11233
1482.99240,0.11074
1484.92087,0.11278
1486.84934,0.12105
1488.77780,0.13031
1490.70627,0.12785
1492.63474,0.11945
1494.56321,0.11892
1496.49168,0.12627
1498.42015,0.12802
1500.34862,0.12026
1502.27709,0.11544
1504.20555,0.12389
1506.13402,0.15344
1508.06249,0.16453
1509.99096,0.14251
1511.91943,0.12905
1513.84790,0.12812
1515.77637,0.13507
1517.70483,0.14107
1519.63330,0.14403
1521.56177,0.14623
1523.49024,0.14170
1525.41871,0.13455
1527.34718,0.12549
1529.27565,0.11758
1531.20412,0.11773
1533.13258,0.12359
1535.06105,0.12660
1536.98952,0.13285
1538.91799,0.15449
1540.84646,0.17306
1542.77493,0.15566
1544.70340,0.13384
1546.63186,0.12129
1548.56033,0.11823
1550.48880,0.11995
1552.41727,0.12379
1554.34574,0.13173
1556.27421,0.14760
1558.20268,0.16902
1560.13115,0.15592
1562.05961,0.13397
1563.98808,0.12431
1565.91655,0.11988
1567.84502,0.12105
1569.77349,0.12358
1571.70196,0.12021
1573.63043,0.11839
1575.55889,0.12119
1577.48736,0.11828
1579.41583,0.11077
1581.34430,0.10640
1583.27277,0.10399
1585.20124,0.10235
1587.12971,0.10172
1589.05818,0.10259
1590.98664,0.10576
1592.91511,0.10863
1594.84358,0.10931
1596.77205,0.10907
1598.70052,0.10741
1600.62899,0.10447
1602.55746,0.10280
1604.48592,0.10402
1606.41439,0.10672
1608.34286,0.10787
1610.27133,0.10725
1612.19980,0.10812
1614.12827,0.11323
1616.05674,0.12075
1617.98521,0.11895
1619.91367,0.11285
1621.84214,0.11409
1623.77061,0.11796
1625.69908,0.11829
1627.62755,0.11719
1629.55602,0.11355
1631.48449,0.11190
1633.41295,0.11989
1635.34142,0.13742
1637.26989,0.13983
1639.19836,0.12709
1641.12683,0.11797
1643.05530,0.11807
1644.98377,0.13117
1646.91223,0.14636
1648.84070,0.14159
1650.76917,0.13910
1652.69764,0.15020
1654.62611,0.14354
1656.55458,0.12704
1658.48305,0.12060
1660.41152,0.12160
1662.33998,0.12189
1664.26845,0.11674
1666.19692,0.11682
1668.12539,0.12710
1670.05386,0.13558
1671.98233,0.13225
1673.91080,0.12918
1675.83926,0.12706
1677.76773,0.12475
1679.69620,0.12731
1681.62467,0.13772
1683.55314,0.15328
1685.48161,0.14938
1687.41008,0.13310
1689.33855,0.12178
1691.26701,0.11627
1693.19548,0.12025
1695.12395,0.13201
1697.05242,0.13864
1698.98089,0.13909
1700.90936,0.13999
1702.83783,0.13798
1704.76629,0.13573
1706.69476,0.12994
1708.62323,0.12123
1710.55170,0.11662
1712.48017,0.11892
1714.40864,0.12869
1716.33711,0.14047
1718.26558,0.13651
1720.19404,0.12292
1722.12251,0.11613
1724.05098,0.11441
1725.97945,0.11350
1727.90792,0.11601
1729.83639,0.12385
1731.76486,0.13281
1733.69332,0.13620
1735.62179,0.12917
1737.55026,0.12338
1739.47873,0.12318
1741.40720,0.12529
1743.33567,0.12611
1745.26414,0.12674
1747.19261,0.12982
1749.12107,0.13140
1751.04954,0.12511
1752.97801,0.11686
1754.90648,0.11348
1756.83495,0.11435
1758.76342,0.11713
1760.69189,0.11983
1762.62035,0.11905
1764.54882,0.11675
1766.47729,0.11806
1768.40576,0.12328
1770.33423,0.13118
1772.26270,0.13446
1774.19117,0.12660
1776.11964,0.11870
1778.04810,0.11752
1779.97657,0.12029
1781.90504,0.12027
1783.83351,0.11756
1785.76198,0.11569
1787.69045,0.11680
1789.61892,0.12221
1791.54738,0.12692
1793.47585,0.12547
1795.40432,0.12283
1797.33279,0.12245
1799.26126,0.12518
1801.18973,0.12709
1803.11820,0.12301
1805.04666,0.11770
1806.97513,0.11611
1808.90360,0.11791
1810.83207,0.11957
1812.76054,0.11766
1814.68901,0.11468
1816.61748,0.11453
1818.54595,0.11682
1820.47441,0.11865
1822.40288,0.11967
1824.33135,0.12137
1826.25982,0.12342
1828.18829,0.12678
1830.11676,0.12770
1832.04523,0.12051
1833.97369,0.11419
1835.90216,0.11293
1837.83063,0.11256
1839.75910,0.11350
1841.68757,0.11764
1843.61604,0.12190
1845.54451,0.12118
1847.47298,0.11710
1849.40144,0.11289
1851.32991,0.11014
1853.25838,0.11005
1855.18685,0.11048
1857.11532,0.10945
1859.04379,0.10833
1860.97226,0.10859
1862.90072,0.11028
1864.82919,0.11425
1866.75766,0.12078
1868.68613,0.12412
1870.61460,0.12035
1872.54307,0.11697
1874.47154,0.11594
1876.40001,0.11383
1878.32847,0.11126
1880.25694,0.11062
1882.18541,0.11163
1884.11388,0.11245
1886.04235,0.11358
1887.97082,0.11718
1889.89929,0.11941
1891.82775,0.11730
1893.75622,0.11537
1895.68469,0.11430
1897.61316,0.11347
1899.54163,0.11398
1901.47010,0.11471
1903.39857,0.11504
1905.32704,0.11509
1907.25550,0.11552
1909.18397,0.11710
1911.11244,0.11747
1913.04091,0.11575
1914.96938,0.11471
1916.89785,0.11492
1918.82632,0.11517
1920.75478,0.11633
1922.68325,0.11735
1924.61172,0.11493
1926.54019,0.11094
1928.46866,0.10949
1930.39713,0.11073
1932.32560,0.11202
1934.25407,0.11148
1936.18253,0.10964
1938.11100,0.10883
1940.03947,0.11133
1941.96794,0.11651
1943.89641,0.11863
1945.82488,0.11555
1947.75335,0.11240
1949.68181,0.11209
1951.61028,0.11315
1953.53875,0.11306
1955.46722,0.11202
1957.39569,0.11251
1959.32416,0.11385
1961.25263,0.11379
1963.18110,0.11332
1965.10956,0.11404
1967.03803,0.11525
1968.96650,0.11624
1970.89497,0.11657
1972.82344,0.11576
1974.75191,0.11459
1976.68038,0.11519
1978.60884,0.11729
1980.53731,0.11698
1982.46578,0.11459
1984.39425,0.11430
1986.32272,0.11534
1988.25119,0.11589
1990.17966,0.11726
1992.10812,0.11797
1994.03659,0.11473
1995.96506,0.11058
1997.89353,0.11027
1999.82200,0.11251
2001.75047,0.11386
2003.67894,0.11389
2005.60741,0.11375
2007.53587,0.11401
2009.46434,0.11391
2011.39281,0.11352
2013.32128,0.11431
2015.24975,0.11648
2017.17822,0.11838
2019.10669,0.11931
2021.03515,0.11955
2022.96362,0.11790
2024.89209,0.11508
2026.82056,0.11405
2028.74903,0.11466
2030.67750,0.11531
2032.60597,0.11558
2034.53444,0.11516
2036.46290,0.11498
2038.39137,0.11612
2040.31984,0.11721
2042.24831,0.11687
2044.17678,0.11549
2046.10525,0.11397
2048.03372,0.11339
2049.96218,0.11388
2051.89065,0.11501
2053.81912,0.11591
2055.74759,0.11488
2057.67606,0.11245
2059.60453,0.11163
2061.53300,0.11373
2063.46147,0.11616
2065.38993,0.11561
2067.31840,0.11322
2069.24687,0.11224
2071.17534,0.11363
2073.10381,0.11628
2075.03228,0.11806
2076.96075,0.11785
2078.88921,0.11662
2080.81768,0.11563
2082.74615,0.11540
2084.67462,0.11658
2086.60309,0.11857
2088.53156,0.11920
2090.46003,0.11804
2092.38850,0.11688
2094.31696,0.11693
2096.24543,0.11698
2098.17390,0.11597
2100.10237,0.11519
2102.03084,0.11582
2103.95931,0.11685
2105.88778,0.11679
2107.81624,0.11575
2109.74471,0.11475
2111.67318,0.11499
2113.60165,0.11636
2115.53012,0.11717
2117.45859,0.11646
2119.38706,0.11478
2121.31553,0.11418
2123.24399,0.11533
2125.17246,0.11627
2127.10093,0.11649
2129.02940,0.11672
2130.95787,0.11615
2132.88634,0.11487
2134.81481,0.11462
2136.74327,0.11546
2138.67174,0.11554
2140.60021,0.11473
2142.52868,0.11485
2144.45715,0.11547
2146.38562,0.11486
2148.31409,0.11405
2150.24255,0.11481
2152.17102,0.11536
2154.09949,0.11390
2156.02796,0.11301
2157.95643,0.11478
2159.88490,0.11745
2161.81337,0.11820
2163.74184,0.11600
2165.67030,0.11356
2167.59877,0.11477
2169.52724,0.11833
2171.45571,0.11950
2173.38418,0.11774
2175.31265,0.11574
2177.24112,0.11517
2179.16958,0.11564
2181.09805,0.11515
2183.02652,0.11428
2184.95499,0.11479
2186.88346,0.11546
2188.81193,0.11575
2190.74040,0.11663
2192.66887,0.11687
2194.59733,0.11611
2196.52580,0.11611
2198.45427,0.11602
2200.38274,0.11517
2202.31121,0.11512
2204.23968,0.11526
2206.16815,0.11520
2208.09661,0.11687
2210.02508,0.11876
2211.95355,0.11781
2213.88202,0.11616
2215.81049,0.11602
2217.73896,0.11627
2219.66743,0.11660
2221.59590,0.11640
2223.52436,0.11525
2225.45283,0.11505
2227.38130,0.11635
2229.30977,0.11723
2231.23824,0.11726
2233.16671,0.11724
2235.09518,0.11778
2237.02364,0.11854
2238.95211,0.11760
2240.88058,0.11539
2242.80905,0.11432
2244.73752,0.11453
2246.66599,0.11500
2248.59446,0.11532
2250.52293,0.11575
2252.45139,0.11650
2254.37986,0.11662
2256.30833,0.11556
2258.23680,0.11483
2260.16527,0.11533
2262.09374,0.11634
2264.02221,0.11725
2265.95067,0.11739
2267.87914,0.11665
2269.80761,0.11605
2271.73608,0.11569
2273.66455,0.11419
2275.59302,0.11259
2277.52149,0.11398
2279.44996,0.11752
2281.37842,0.11940
2283.30689,0.11916
2285.23536,0.11971
2287.16383,0.12027
2289.09230,0.11792
2291.02077,0.11525
2292.94924,0.11564
2294.87770,0.11736
2296.80617,0.11765
2298.73464,0.11616
2300.66311,0.11403
2302.59158,0.11351
2304.52005,0.11609
2306.44852,0.11921
2308.37699,0.12002
2310.30545,0.11909
2312.23392,0.11741
2314.16239,0.11362
2316.09086,0.10764
2318.01933,0.10552
2319.94780,0.10943
2321.87627,0.10941
2323.80473,0.10363
2325.73320,0.10477
2327.66167,0.11320
2329.59014,0.11892
2331.51861,0.11997
2333.44708,0.11741
2335.37555,0.11440
2337.30401,0.11721
2339.23248,0.11975
2341.16095,0.11223
2343.08942,0.10086
2345.01789,0.09642
2346.94636,0.09997
2348.87483,0.10640
2350.80330,0.11069
2352.73176,0.10785
2354.66023,0.10257
2356.58870,0.10301
2358.51717,0.09290
2360.44564,0.07216
2362.37411,0.07539
2364.30258,0.10908
2366.23104,0.13135
2368.15951,0.12211
2370.08798,0.10839
2372.01645,0.10385
2373.94492,0.10424
2375.87339,0.10848
2377.80186,0.11442
2379.73033,0.11746
2381.65879,0.11683
2383.58726,0.11604
2385.51573,0.11637
2387.44420,0.11675
2389.37267,0.11633
2391.30114,0.11492
2393.22961,0.11451
2395.15807,0.11607
2397.08654,0.11740
2399.01501,0.11740
2400.94348,0.11645
2402.87195,0.11536
2404.80042,0.11550
2406.72889,0.11719
2408.65736,0.11925
2410.58582,0.12054
2412.51429,0.12109
2414.44276,0.12110
2416.37123,0.12016
2418.29970,0.11799
2420.22817,0.11577
2422.15664,0.11510
2424.08510,0.11513
2426.01357,0.11478
2427.94204,0.11527
2429.87051,0.11608
2431.79898,0.11537
2433.72745,0.11458
2435.65592,0.11547
2437.58439,0.11716
2439.51285,0.11873
2441.44132,0.11895
2443.36979,0.11707
2445.29826,0.11548
2447.22673,0.11619
2449.15520,0.11746
2451.08367,0.11640
2453.01213,0.11344
2454.94060,0.11225
2456.86907,0.11390
2458.79754,0.11609
2460.72601,0.11740
2462.65448,0.11778
2464.58295,0.11839
2466.51142,0.11980
2468.43988,0.12076
2470.36835,0.12013
2472.29682,0.11832
2474.22529,0.11698
2476.15376,0.11624
2478.08223,0.11550
2480.01070,0.11541
2481.93916,0.11628
2483.86763,0.11714
2485.79610,0.11661
2487.72457,0.11523
2489.65304,0.11405
2491.58151,0.11316
2493.50998,0.11342
2495.43844,0.11498
2497.36691,0.11703
2499.29538,0.11852
2501.22385,0.11836
2503.15232,0.11761
2505.08079,0.11825
2507.00926,0.11967
2508.93773,0.12022
2510.86619,0.12031
2512.79466,0.11982
2514.72313,0.11833
2516.65160,0.11791
2518.58007,0.11910
2520.50854,0.11945
2522.43701,0.11838
2524.36547,0.11763
2526.29394,0.11822
2528.22241,0.11955
2530.15088,0.11986
2532.07935,0.11856
2534.00782,0.11739
2535.93629,0.11752
2537.86476,0.11780
2539.79322,0.11691
2541.72169,0.11644
2543.65016,0.11822
2545.57863,0.12059
2547.50710,0.12066
2549.43557,0.11863
2551.36404,0.11782
2553.29250,0.11908
2555.22097,0.12021
2557.14944,0.12008
2559.07791,0.11847
2561.00638,0.11743
2562.93485,0.11819
2564.86332,0.11747
2566.79179,0.11534
2568.72025,0.11521
2570.64872,0.11639
2572.57719,0.11737
2574.50566,0.11816
2576.43413,0.11821
2578.36260,0.11810
2580.29107,0.11860
2582.21953,0.11913
2584.14800,0.11977
2586.07647,0.12084
2588.00494,0.12267
2589.93341,0.12407
2591.86188,0.12245
2593.79035,0.11983
2595.71882,0.11996
2597.64728,0.12067
2599.57575,0.11932
2601.50422,0.11832
2603.43269,0.11860
2605.36116,0.11840
2607.28963,0.11868
2609.21810,0.12035
2611.14656,0.12146
2613.07503,0.12087
2615.00350,0.12012
2616.93197,0.12095
2618.86044,0.12213
2620.78891,0.12175
2622.71738,0.12038
2624.64585,0.11984
2626.57431,0.11993
2628.50278,0.11916
2630.43125,0.11896
2632.35972,0.11995
2634.28819,0.11970
2636.21666,0.11803
2638.14513,0.11691
2640.07359,0.11811
2642.00206,0.12073
2643.93053,0.12155
2645.85900,0.12050
2647.78747,0.11969
2649.71594,0.11988
2651.64441,0.12034
2653.57288,0.11977
2655.50134,0.11912
2657.42981,0.12053
2659.35828,0.12306
2661.28675,0.12436
2663.21522,0.12400
2665.14369,0.12341
2667.07216,0.12418
2669.00062,0.12487
2670.92909,0.12267
2672.85756,0.11823
2674.78603,0.11589
2676.71450,0.11825
2678.64297,0.12124
2680.57144,0.12057
2682.49990,0.11816
2684.42837,0.11817
2686.35684,0.12129
2688.28531,0.12347
2690.21378,0.12236
2692.14225,0.12037
2694.07072,0.11986
2695.99919,0.12136
2697.92765,0.12344
2699.85612,0.12393
2701.78459,0.12349
2703.71306,0.12367
2705.64153,0.12379
2707.57000,0.12305
2709.49847,0.12234
2711.42693,0.12281
2713.35540,0.12321
2715.28387,0.12314
2717.21234,0.12423
2719.14081,0.12526
2721.06928,0.12524
2722.99775,0.12513
2724.92622,0.12461
2726.85468,0.12435
2728.78315,0.12463
2730.71162,0.12438
2732.64009,0.12394
2734.56856,0.12375
2736.49703,0.12402
2738.42550,0.12511
2740.35396,0.12653
2742.28243,0.12708
2744.21090,0.12646
2746.13937,0.12615
2748.06784,0.12587
2749.99631,0.12428
2751.92478,0.12293
2753.85325,0.12281
2755.78171,0.12169
2757.71018,0.12018
2759.63865,0.12163
2761.56712,0.12508
2763.49559,0.12717
2765.42406,0.12667
2767.35253,0.12473
2769.28099,0.12310
2771.20946,0.12215
2773.13793,0.12221
2775.06640,0.12306
2776.99487,0.12351
2778.92334,0.12373
2780.85181,0.12429
2782.78028,0.12471
2784.70874,0.12439
2786.63721,0.12373
2788.56568,0.12425
2790.49415,0.12571
2792.42262,0.12568
2794.35109,0.12563
2796.27956,0.12791
2798.20802,0.12941
2800.13649,0.12745
2802.06496,0.12374
2803.99343,0.12176
2805.92190,0.12384
2807.85037,0.12687
2809.77884,0.12709
2811.70731,0.12690
2813.63577,0.12848
2815.56424,0.12951
2817.49271,0.12801
2819.42118,0.12458
2821.34965,0.12152
2823.27812,0.12056
2825.20659,0.12100
2827.13505,0.12120
2829.06352,0.11989
2830.99199,0.11836
2832.92046,0.12062
2834.84893,0.12527
2836.77740,0.12664
2838.70587,0.12638
2840.63433,0.12726
2842.56280,0.12630
2844.49127,0.12439
2846.41974,0.12447
2848.34821,0.12487
2850.27668,0.12500
2852.20515,0.12521
2854.13362,0.12520
2856.06208,0.12591
2857.99055,0.12682
2859.91902,0.12637
2861.84749,0.12535
2863.77596,0.12537
2865.70443,0.12593
2867.63290,0.12656
2869.56136,0.12730
2871.48983,0.12657
2873.41830,0.12404
2875.34677,0.12238
2877.27524,0.12343
2879.20371,0.12584
2881.13218,0.12735
2883.06065,0.12746
2884.98911,0.12735
2886.91758,0.12728
2888.84605,0.12590
2890.77452,0.12302
2892.70299,0.12024
2894.63146,0.11911
2896.55993,0.12027
2898.48839,0.12193
2900.41686,0.12246
2902.34533,0.12254
2904.27380,0.12158
2906.20227,0.12100
2908.13074,0.12324
2910.05921,0.12469
2911.98768,0.12303
2913.91614,0.11927
2915.84461,0.11467
2917.77308,0.11449
2919.70155,0.11936
2921.63002,0.12194
2923.55849,0.11870
2925.48696,0.11239
2927.41542,0.10992
2929.34389,0.11426
2931.27236,0.12001
2933.20083,0.12307
2935.12930,0.12110
2937.05777,0.11565
2938.98624,0.11499
2940.91471,0.12006
2942.84317,0.12472
2944.77164,0.12397
2946.70011,0.11704
2948.62858,0.11287
2950.55705,0.11629
2952.48552,0.12062
2954.41399,0.11983
2956.34245,0.11177
2958.27092,0.10611
2960.19939,0.11210
2962.12786,0.11990
2964.05633,0.12221
2965.98480,0.12154
2967.91327,0.12008
2969.84174,0.12239
2971.77020,0.12770
2973.69867,0.13120
2975.62714,0.13003
2977.55561,0.12355
2979.48408,0.11986
2981.41255,0.12179
2983.34102,0.12282
2985.26948,0.12206
2987.19795,0.11918
2989.12642,0.11782
2991.05489,0.12413
2992.98336,0.13170
2994.91183,0.13271
2996.84030,0.12948
2998.76877,0.12811
3000.69723,0.12967
3002.62570,0.13115
3004.55417,0.13206
3006.48264,0.12969
3008.41111,0.12178
3010.33958,0.11221
3012.26805,0.09777
3014.19651,0.07304
3016.12498,0.05366
3018.05345,0.06291
3019.98192,0.09436
3021.91039,0.11878
3023.83886,0.12593
3025.76733,0.12514
3027.69579,0.12374
3029.62426,0.12633
3031.55273,0.13131
3033.48120,0.13269
3035.40967,0.13061
3037.33814,0.12852
3039.26661,0.12945
3041.19508,0.13251
3043.12354,0.13284
3045.05201,0.12820
3046.98048,0.12156
3048.90895,0.11878
3050.83742,0.12011
3052.76589,0.12201
3054.69436,0.12269
3056.62282,0.12122
3058.55129,0.12278
3060.47976,0.12927
3062.40823,0.13420
3064.33670,0.13172
3066.26517,0.12286
3068.19364,0.11922
3070.12211,0.12441
3072.05057,0.12857
3073.97904,0.12440
3075.90751,0.11592
3077.83598,0.11574
3079.76445,0.12410
3081.69292,0.12867
3083.62139,0.12265
3085.54985,0.11519
3087.47832,0.11849
3089.40679,0.12564
3091.33526,0.12695
3093.26373,0.12269
3095.19220,0.12001
3097.12067,0.12622
3099.04914,0.13419
3100.97760,0.13309
3102.90607,0.12259
3104.83454,0.11621
3106.76301,0.12359
3108.69148,0.13261
3110.61995,0.13027
3112.54842,0.12283
3114.47688,0.12216
3116.40535,0.12621
3118.33382,0.12834
3120.26229,0.12624
3122.19076,0.12240
3124.11923,0.12480
3126.04770,0.13104
3127.97617,0.13230
3129.90463,0.12851
3131.83310,0.12666
3133.76157,0.13021
3135.69004,0.13430
3137.61851,0.13473
3139.54698,0.13143
3141.47545,0.12902
3143.40391,0.12965
3145.33238,0.12890
3147.26085,0.12662
3149.18932,0.12659
3151.11779,0.12899
3153.04626,0.13040
3154.97473,0.12868
3156.90320,0.12641
3158.83166,0.12669
3160.76013,0.12751
3162.68860,0.12773
3164.61707,0.12938
3166.54554,0.13168
3168.47401,0.13334
3170.40248,0.13503
3172.33094,0.13668
3174.25941,0.13625
3176.18788,0.13427
3178.11635,0.13442
3180.04482,0.13705
3181.97329,0.13949
3183.90176,0.13955
3185.83022,0.13657
3187.75869,0.13183
3189.68716,0.12775
3191.61563,0.12628
3193.54410,0.12862
3195.47257,0.13223
3197.40104,0.13268
3199.32951,0.13188
3201.25797,0.13379
3203.18644,0.13655
3205.11491,0.13650
3207.04338,0.13463
3208.97185,0.13307
3210.90032,0.13269
3212.82879,0.13374
3214.75725,0.13345
3216.68572,0.13196
3218.61419,0.13379
3220.54266,0.13787
3222.47113,0.13963
3224.39960,0.13938
3226.32807,0.13976
3228.25654,0.14018
3230.18500,0.13761
3232.11347,0.13309
3234.04194,0.13097
3235.97041,0.13200
3237.89888,0.13389
3239.82735,0.13429
3241.75582,0.13397
3243.68428,0.13485
3245.61275,0.13507
3247.54122,0.13224
3249.46969,0.12720
3251.39816,0.12515
3253.32663,0.12842
3255.25510,0.13094
3257.18357,0.12986
3259.11203,0.12960
3261.04050,0.13050
3262.96897,0.12996
3264.89744,0.12902
3266.82591,0.12941
3268.75438,0.13049
3270.68285,0.13065
3272.61131,0.13088
3274.53978,0.13293
3276.46825,0.13789
3278.39672,0.14349
3280.32519,0.14093
3282.25366,0.12982
3284.18213,0.12294
3286.11060,0.12447
3288.03906,0.12690
3289.96753,0.12929
3291.89600,0.13328
3293.82447,0.13519
3295.75294,0.13424
3297.68141,0.13186
3299.60988,0.12861
3301.53834,0.12689
3303.46681,0.12954
3305.39528,0.13477
3307.32375,0.13784
3309.25222,0.13777
3311.18069,0.13668
3313.10916,0.13597
3315.03763,0.13575
3316.96609,0.13560
3318.89456,0.13430
3320.82303,0.13360
3322.75150,0.13410
3324.67997,0.13088
3326.60844,0.12704
3328.53691,0.12964
3330.46537,0.13472
3332.39384,0.13718
3334.32231,0.13743
3336.25078,0.13637
3338.17925,0.13576
3340.10772,0.13506
3342.03619,0.13247
3343.96466,0.13184
3345.89312,0.13507
3347.82159,0.13656
3349.75006,0.13515
3351.67853,0.13563
3353.60700,0.13881
3355.53547,0.14008
3357.46394,0.13478
3359.39240,0.12739
3361.32087,0.12841
3363.24934,0.13704
3365.17781,0.14200
3367.10628,0.14078
3369.03475,0.13893
3370.96322,0.13789
3372.89168,0.13833
3374.82015,0.13958
3376.74862,0.13853
3378.67709,0.13596
3380.60556,0.13522
3382.53403,0.13794
3384.46250,0.14052
3386.39097,0.13928
3388.31943,0.13624
3390.24790,0.13290
3392.17637,0.12859
3394.10484,0.12483
3396.03331,0.12530
3397.96178,0.12985
3399.89025,0.13302
3401.81871,0.13310
3403.74718,0.13309
3405.67565,0.13292
3407.60412,0.13195
3409.53259,0.13352
3411.46106,0.13596
3413.38953,0.13349
3415.31800,0.13019
3417.24646,0.13131
3419.17493,0.13332
3421.10340,0.13387
3423.03187,0.13279
3424.96034,0.12971
3426.88881,0.12775
3428.81728,0.12888
3430.74574,0.12842
3432.67421,0.12404
3434.60268,0.12175
3436.53115,0.12380
3438.45962,0.12537
3440.38809,0.12411
3442.31656,0.12403
3444.24503,0.12812
3446.17349,0.13247
3448.10196,0.13271
3450.03043,0.12822
3451.95890,0.12305
3453.88737,0.12074
3455.81584,0.11988
3457.74431,0.12046
3459.67277,0.12392
3461.60124,0.12771
3463.52971,0.12808
3465.45818,0.12490
3467.38665,0.12119
3469.31512,0.11956
3471.24359,0.12019
3473.17206,0.12245
3475.10052,0.12576
3477.02899,0.12788
3478.95746,0.12708
3480.88593,0.12423
3482.81440,0.12132
3484.74287,0.12023
3486.67134,0.12073
3488.59980,0.12090
3490.52827,0.11915
3492.45674,0.11575
3494.38521,0.11342
3496.31368,0.11377
3498.24215,0.11491
3500.17062,0.11607
3502.09909,0.11887
3504.02755,0.12088
3505.95602,0.11798
3507.88449,0.11219
3509.81296,0.10839
3511.74143,0.10900
3513.66990,0.11066
3515.59837,0.11163
3517.52683,0.11463
3519.45530,0.11749
3521.38377,0.11714
3523.31224,0.11602
3525.24071,0.11559
3527.16918,0.11597
3529.09765,0.11804
3531.02611,0.11940
3532.95458,0.11724
3534.88305,0.11417
3536.81152,0.11345
3538.73999,0.11192
3540.66846,0.10875
3542.59693,0.10854
3544.52540,0.10936
3546.45386,0.10808
3548.38233,0.10937
3550.31080,0.11246
3552.23927,0.11215
3554.16774,0.10939
3556.09621,0.10769
3558.02468,0.10789
3559.95314,0.10783
3561.88161,0.10689
3563.81008,0.11134
3565.73855,0.12125
3567.66702,0.12151
3569.59549,0.11309
3571.52396,0.10867
3573.45243,0.10481
3575.38089,0.10104
3577.30936,0.10073
3579.23783,0.10012
3581.16630,0.09837
3583.09477,0.10047
3585.02324,0.10841
3586.95171,0.11645
3588.88017,0.11278
3590.80864,0.10397
3592.73711,0.10244
3594.66558,0.10787
3596.59405,0.11117
3598.52252,0.10868
3600.45099,0.10323
3602.37946,0.09843
3604.30792,0.09816
3606.23639,0.10237
3608.16486,0.10553
3610.09333,0.10388
3612.02180,0.10133
3613.95027,0.09958
3615.87874,0.10027
3617.80720,0.10508
3619.73567,0.10919
3621.66414,0.10623
3623.59261,0.09947
3625.52108,0.09508
3627.44955,0.09854
3629.37802,0.10683
3631.30649,0.10422
3633.23495,0.09601
3635.16342,0.09099
3637.09189,0.09017
3639.02036,0.09025
3640.94883,0.08860
3642.87730,0.08834
3644.80577,0.09541
3646.73423,0.11072
3648.66270,0.12426
3650.59117,0.11489
3652.51964,0.09886
3654.44811,0.09311
3656.37658,0.09262
3658.30505,0.08891
3660.23352,0.08420
3662.16198,0.08378
3664.09045,0.08740
3666.01892,0.09170
3667.94739,0.09748
3669.87586,0.10539
3671.80433,0.10862
3673.73280,0.10907
3675.66126,0.10390
3677.58973,0.09371
3679.51820,0.09017
3681.44667,0.08759
3683.37514,0.08240
3685.30361,0.08149
3687.23208,0.08906
3689.16055,0.09893
3691.08901,0.10025
3693.01748,0.09480
3694.94595,0.08859
3696.87442,0.08338
3698.80289,0.08135
3700.73136,0.08418
3702.65983,0.08672
3704.58829,0.08482
3706.51676,0.08375
3708.44523,0.08888
3710.37370,0.09926
3712.30217,0.10217
3714.23064,0.09576
3716.15911,0.09203
3718.08757,0.09386
3720.01604,0.09798
3721.94451,0.10064
3723.87298,0.09996
3725.80145,0.09471
3727.72992,0.09019
3729.65839,0.09388
3731.58686,0.10472
3733.51532,0.11510
3735.44379,0.11607
3737.37226,0.10712
3739.30073,0.09768
3741.22920,0.09332
3743.15767,0.09482
3745.08614,0.09860
3747.01460,0.10014
3748.94307,0.10514
3750.87154,0.11361
3752.80001,0.10937
3754.72848,0.09740
3756.65695,0.09087
3758.58542,0.08948
3760.51389,0.08581
3762.44235,0.08349
3764.37082,0.08766
3766.29929,0.09224
3768.22776,0.09280
3770.15623,0.09087
3772.08470,0.08618
3774.01317,0.08270
3775.94163,0.08217
3777.87010,0.08361
3779.79857,0.08670
3781.72704,0.08731
3783.65551,0.08486
3785.58398,0.08272
3787.51245,0.08024
3789.44092,0.07612
3791.36938,0.07438
3793.29785,0.07956
3795.22632,0.08783
3797.15479,0.08998
3799.08326,0.08877
3801.01173,0.09003
3802.94020,0.08767
3804.86866,0.08522
3806.79713,0.08528
3808.72560,0.08155
3810.65407,0.07795
3812.58254,0.08095
3814.51101,0.08873
3816.43948,0.09184
3818.36795,0.08815
3820.29641,0.08707
3822.22488,0.08824
3824.15335,0.08648
3826.08182,0.08350
3828.01029,0.08205
3829.93876,0.08184
3831.86723,0.07843
3833.79569,0.07500
3835.72416,0.08054
3837.65263,0.09170
3839.58110,0.09646
3841.50957,0.09345
3843.43804,0.08763
3845.36651,0.08289
3847.29498,0.08142
3849.22344,0.08294
3851.15191,0.09012
3853.08038,0.10526
3855.00885,0.10466
3856.93732,0.09038
3858.86579,0.08145
3860.79426,0.08238
3862.72272,0.08955
3864.65119,0.09023
3866.57966,0.08633
3868.50813,0.08771
3870.43660,0.09024
3872.36507,0.08920
3874.29354,0.08649
3876.22200,0.08349
3878.15047,0.08300
3880.07894,0.08542
3882.00741,0.08684
3883.93588,0.08718
3885.86435,0.08815
3887.79282,0.08739
3889.72129,0.08659
3891.64975,0.08543
3893.57822,0.08011
3895.50669,0.07630
3897.43516,0.07837
3899.36363,0.08231
3901.29210,0.08223
3903.22057,0.07979
3905.14903,0.07728
3907.07750,0.07431
3909.00597,0.07312
3910.93444,0.07355
3912.86291,0.07336
3914.79138,0.07328
3916.71985,0.07283
3918.64832,0.07161
3920.57678,0.07444
3922.50525,0.07943
3924.43372,0.07808
3926.36219,0.07233
3928.29066,0.07229
3930.21913,0.07783
3932.14760,0.07993
3934.07606,0.07505
3936.00453,0.06983
3937.93300,0.06885
3939.86147,0.07032
3941.78994,0.06992
3943.71841,0.06831
3945.64688,0.06881
3947.57535,0.07051
3949.50381,0.07261
3951.43228,0.07461
3953.36075,0.07647
3955.28922,0.07776
3957.21769,0.07472
3959.14616,0.06877
3961.07463,0.06683
3963.00309,0.06773
3964.93156,0.06661
3966.86003,0.06609
3968.78850,0.06823
3970.71697,0.06976
3972.64544,0.06961
3974.57391,0.06850
3976.50238,0.06679
3978.43084,0.06818
3980.35931,0.07178
3982.28778,0.07084
3984.21625,0.06752
3986.14472,0.06616
3988.07319,0.06493
3990.00166,0.06461
3991.93012,0.06571
3993.85859,0.06621
3995.78706,0.06670
3997.71553,0.06586
3999.64400,0.06091
4001.57247,0.05697
4003.50094,0.05842
4005.42941,0.06114
4007.35787,0.06324
4009.28634,0.06390
4011.21481,0.06254
4013.14328,0.06337
4015.07175,0.06743
4017.00022,0.06913
4018.92869,0.06633
4020.85715,0.06438
4022.78562,0.06646
4024.71409,0.06943
4026.64256,0.06861
4028.57103,0.06569
4030.49950,0.06625
4032.42797,0.06650
4034.35644,0.06189
4036.28490,0.05914
4038.21337,0.06115
4040.14184,0.06240
4042.07031,0.06256
4043.99878,0.06289
4045.92725,0.06184
4047.85572,0.05903
4049.78418,0.05559
4051.71265,0.05598
4053.64112,0.06147
4055.56959,0.06634
4057.49806,0.06627
4059.42653,0.06178
4061.35500,0.05772
4063.28346,0.05880
4065.21193,0.06289
4067.14040,0.06401
4069.06887,0.06039
4070.99734,0.05659
4072.92581,0.05632
4074.85428,0.05668
4076.78275,0.05460
4078.71121,0.05239
4080.63968,0.05174
4082.56815,0.05244
4084.49662,0.05414
4086.42509,0.05498
4088.35356,0.05479
4090.28203,0.05229
4092.21049,0.04684
4094.13896,0.04640
4096.06743,0.05506
4097.99590,0.06332
4099.92437,0.06293
4101.85284,0.05929
4103.78131,0.05902
4105.70978,0.05930
4107.63824,0.05878
4109.56671,0.05854
4111.49518,0.05819
4113.42365,0.05996
4115.35212,0.06237
4117.28059,0.06090
4119.20906,0.05721
4121.13752,0.05476
4123.06599,0.05409
4124.99446,0.05446
4126.92293,0.05362
4128.85140,0.05172
4130.77987,0.05160
4132.70834,0.05263
4134.63681,0.05057
4136.56527,0.04629
4138.49374,0.04688
4140.42221,0.05060
4142.35068,0.04965
4144.27915,0.04593
4146.20762,0.04467
4148.13609,0.04549
4150.06455,0.04620
4151.99302,0.04775
4153.92149,0.05188
4155.84996,0.05542
4157.77843,0.05499
4159.70690,0.05124
4161.63537,0.04571
4163.56384,0.04370
4165.49230,0.05024
4167.42077,0.05870
4169.34924,0.06115
4171.27771,0.05784
4173.20618,0.05142
4175.13465,0.04626
4177.06312,0.04371
4178.99158,0.04332
4180.92005,0.04477
4182.84852,0.04552
4184.77699,0.04696
4186.70546,0.05038
4188.63393,0.05203
4190.56240,0.04842
4192.49087,0.04264
4194.41933,0.04144
4196.34780,0.04656
4198.27627,0.05337
4200.20474,0.05348
4202.13321,0.04676
4204.06168,0.04242
4205.99015,0.04282
4207.91861,0.04258
4209.84708,0.04063
4211.77555,0.03973
4213.70402,0.04016
4215.63249,0.04181
4217.56096,0.04524
4219.48943,0.04932
4221.41789,0.04966
4223.34636,0.04539
4225.27483,0.04149
4227.20330,0.04166
4229.13177,0.04789
4231.06024,0.05467
4232.98871,0.05267
4234.91718,0.04500
4236.84564,0.04201
4238.77411,0.04452
4240.70258,0.04612
4242.63105,0.04317
4244.55952,0.03752
4246.48799,0.03626
4248.41646,0.04068
4250.34492,0.04569
4252.27339,0.04885
4254.20186,0.04677
4256.13033,0.03993
4258.05880,0.03377
4259.98727,0.03292
4261.91574,0.03816
4263.84421,0.04290
4265.77267,0.04584
4267.70114,0.04883
4269.62961,0.04674
4271.55808,0.04101
4273.48655,0.03778
4275.41502,0.03530
4277.34349,0.03119
4279.27195,0.02980
4281.20042,0.03189
4283.12889,0.03193
4285.05736,0.03140
4286.98583,0.03403
4288.91430,0.03686
4290.84277,0.03700
4292.77124,0.03530
4294.69970,0.03225
4296.62817,0.02622
4298.55664,0.02165
4300.48511,0.02472
4302.41358,0.02728
4304.34205,0.02362
4306.27052,0.02228
4308.19898,0.02430
4310.12745,0.02627
4312.05592,0.02905
4313.98439,0.03069
4315.91286,0.02869
4317.84133,0.02494
4319.76980,0.02565
4321.69827,0.02975
4323.62673,0.03128
4325.55520,0.03231
4327.48367,0.03422
4329.41214,0.03270
4331.34061,0.02769
4333.26908,0.02370
4335.19755,0.02210
4337.12601,0.02338
4339.05448,0.02841
4340.98295,0.03403
4342.91142,0.03624
4344.83989,0.03347
4346.76836,0.02809
4348.69683,0.02481
4350.62530,0.02409
4352.55376,0.02375
4354.48223,0.02434
4356.41070,0.02634
4358.33917,0.02644
4360.26764,0.02198
4362.19611,0.01728
4364.12458,0.01721
4366.05304,0.01821
4367.98151,0.01607
4369.90998,0.01537
4371.83845,0.01923
4373.76692,0.02257
4375.69539,0.02195
4377.62386,0.01743
4379.55232,0.01394
4381.48079,0.01629
4383.40926,0.02069
4385.33773,0.02313
4387.26620,0.02337
4389.19467,0.02370
4391.12314,0.02356
4393.05161,0.02093
4394.98007,0.01933
4396.90854,0.01938
4398.83701,0.01809
4400.76548,0.01639
4402.69395,0.01814
4404.62242,0.02104
4406.55089,0.01921
4408.47935,0.01874
4410.40782,0.02183
4412.33629,0.01990
4414.26476,0.01965
4416.19323,0.02542
4418.12170,0.02275
4420.05017,0.01248
4421.97864,0.00940
4423.90710,0.01102
4425.83557,0.00835
4427.76404,0.00521
4429.69251,0.00607
4431.62098,0.00806
4433.54945,0.01023
4435.47792,0.01301
4437.40638,0.01265
4439.33485,0.00863
4441.26332,0.00622
4443.19179,0.00565
4445.12026,0.00726
4447.04873,0.01280
4448.97720,0.01725
4450.90567,0.01808
4452.83413,0.01424
4454.76260,0.00866
4456.69107,0.00963
4458.61954,0.01147
4460.54801,0.00638
4462.47648,0.00257
4464.40495,0.00556
4466.33341,0.00958
4468.26188,0.00844
4470.19035,0.00386
4472.11882,0.00048
4474.04729,-0.00302
4475.97576,-0.00667
4477.90423,-0.00580
4479.83270,0.00011
4481.76116,0.00640
4483.68963,0.00931
4485.61810,0.00849
4487.54657,0.00659
4489.47504,0.00511
4491.40351,0.00482
4493.33198,0.00900
4495.26044,0.01466
4497.18891,0.01390
4499.11738,0.00631
4501.04585,0.00208
4502.97432,0.00694
4504.90279,0.01117
4506.83126,0.00922
4508.75973,0.00661
4510.68819,0.00557
4512.61666,0.00852
4514.54513,0.01512
4516.47360,0.01574
4518.40207,0.00870
4520.33054,0.00482
4522.25901,0.00688
4524.18747,0.00753
4526.11594,0.00685
4528.04441,0.00933
4529.97288,0.01329
4531.90135,0.01566
4533.82982,0.01356
4535.75829,0.00783
4537.68676,0.00473
4539.61522,0.00334
4541.54369,0.00188
4543.47216,0.00428
4545.40063,0.00631
4547.32910,0.00412
4549.25757,0.00149
4551.18604,-0.00220
4553.11450,-0.00577
4555.04297,-0.00559
4556.97144,-0.00455
4558.89991,-0.00533
4560.82838,-0.00581
4562.75685,-0.00234
4564.68532,0.00369
4566.61378,0.00529
4568.54225,0.00277
4570.47072,0.00414
4572.39919,0.00898
4574.32766,0.01202
4576.25613,0.01357
4578.18460,0.01258
4580.11307,0.00975
4582.04153,0.00863
4583.97000,0.00851
4585.89847,0.00894
4587.82694,0.00975
4589.75541,0.00896
4591.68388,0.00775
4593.61235,0.00880
4595.54081,0.00914
4597.46928,0.00740
4599.39775,0.00904
4601.32622,0.01154
4603.25469,0.00646
4605.18316,-0.00229
4607.11163,-0.00540
4609.04010,-0.00340
4610.96856,-0.00072
4612.89703,0.00252
4614.82550,0.00637
4616.75397,0.00941
4618.68244,0.01382
4620.61091,0.01722
4622.53938,0.01502
4624.46784,0.01162
4626.39631,0.00997
4628.32478,0.01020
4630.25325,0.01270
4632.18172,0.01194
4634.11019,0.00556
4636.03866,0.00061
4637.96713,0.00081
4639.89559,0.00169
4641.82406,0.00048
4643.75253,0.00064
4645.68100,0.00566
4647.60947,0.01397
4649.53794,0.01686
4651.46641,0.00865
4653.39487,-0.00031
4655.32334,-0.00027
4657.25181,0.00348
4659.18028,0.00277
4661.10875,-0.00060
4663.03722,0.00205
4664.96569,0.00746
4666.89416,0.00631
4668.82262,0.00145
4670.75109,0.00034
4672.67956,0.00274
4674.60803,0.00240
4676.53650,0.00184
4678.46497,0.00701
4680.39344,0.01270
4682.32190,0.01167
4684.25037,0.00578
4686.17884,0.00424
4688.10731,0.00587
4690.03578,0.00079
4691.96425,-0.00488
4693.89272,-0.00099
4695.82119,0.00467
4697.74965,0.00550
4699.67812,0.00647
4701.60659,0.00621
4703.53506,0.00756
4705.46353,0.01672
4707.39200,0.02160
4709.32047,0.01571
4711.24893,0.00840
4713.17740,0.00561
4715.10587,0.00863
4717.03434,0.01006
4718.96281,0.00570
4720.89128,0.00709
4722.81975,0.01380
4724.74821,0.01483
4726.67668,0.01399
4728.60515,0.01312
4730.53362,0.00466
4732.46209,-0.00600
4734.39056,-0.00461
4736.31903,0.00350
4738.24750,0.00028
4740.17596,-0.01131
4742.10443,-0.01595
4744.03290,-0.01229
4745.96137,-0.00383
4747.88984,0.00895
4749.81831,0.01684
4751.74678,0.01179
4753.67524,0.00336
4755.60371,0.00118
4757.53218,0.00259
4759.46065,0.00327
4761.38912,0.00116
4763.31759,0.00211
4765.24606,0.00869
4767.17453,0.01223
4769.10299,0.01395
4771.03146,0.01829
4772.95993,0.01540
4774.88840,0.00422
4776.81687,-0.00076
4778.74534,0.00460
4780.67381,0.01168
4782.60227,0.01034
4784.53074,-0.00218
4786.45921,-0.01017
4788.38768,-0.00337
4790.31615,0.00566
4792.24462,0.00831
4794.17309,0.00240
4796.10156,-0.01130
4798.03002,-0.01720
4799.95849,-0.00739
4801.88696,0.00402
4803.81543,0.00580
4805.74390,0.00598
4807.67237,0.01127
4809.60084,0.01776
4811.52930,0.02133
4813.45777,0.01709
4815.38624,0.00883
4817.31471,0.00390
4819.24318,0.00255
4821.17165,0.00603
4823.10012,0.00902
4825.02859,0.00463
4826.95705,0.00232
4828.88552,0.00692
4830.81399,0.00580
4832.74246,-0.00457
4834.67093,-0.01468
4836.59940,-0.01520
4838.52787,-0.00412
4840.45633,0.00946
4842.38480,0.01532
4844.31327,0.01035
4846.24174,0.00017
4848.17021,-0.00533
4850.09868,-0.00250
4852.02715,0.00611
4853.95562,0.01284
4855.88408,0.01180
4857.81255,0.00755
4859.74102,0.00097
4861.66949,-0.01301
4863.59796,-0.02051
4865.52643,-0.01147
4867.45490,-0.00533
4869.38336,-0.00911
4871.31183,-0.00822
4873.24030,-0.00264
4875.16877,-0.00057
4877.09724,0.00077
4879.02571,0.00476
4880.95418,0.00874
4882.88265,0.01327
4884.81111,0.01748
4886.73958,0.01448
4888.66805,0.00489
4890.59652,-0.00276
4892.52499,-0.00360
4894.45346,0.00047
4896.38193,0.00460
4898.31039,0.00691
4900.23886,0.01231
4902.16733,0.01904
4904.09580,0.01037
4906.02427,-0.00963
4907.95274,-0.01443
4909.88121,-0.00751
4911.80967,-0.00673
4913.73814,-0.00802
4915.66661,-0.00586
4917.59508,-0.00272
4919.52355,-0.00092
4921.45202,-0.00015
4923.38049,0.00331
4925.30896,0.00853
4927.23742,0.00925
4929.16589,0.00762
4931.09436,0.00698
4933.02283,0.00501
4934.95130,0.00290
4936.87977,-0.00112
4938.80824,-0.00546
4940.73670,-0.00202
4942.66517,0.00782
4944.59364,0.01784
4946.52211,0.01956
4948.45058,0.00886
4950.37905,-0.00179
4952.30752,-0.00363
4954.23599,-0.00275
4956.16445,-0.00048
4958.09292,0.00327
4960.02139,0.00421
4961.94986,0.00812
4963.87833,0.01790
4965.80680,0.02335
4967.73527,0.02157
4969.66373,0.01658
4971.59220,0.00732
4973.52067,-0.00326
4975.44914,-0.00432
4977.37761,0.00642
4979.30608,0.01697
4981.23455,0.01851
4983.16302,0.01595
4985.09148,0.01653
4987.01995,0.02131
4988.94842,0.02293
4990.87689,0.01303
4992.80536,0.00092
4994.73383,0.00143
4996.66230,0.01140
4998.59076,0.01651
5000.51923,0.01002
5002.44770,0.00196
5004.37617,0.00250
5006.30464,0.00368
5008.23311,0.00033
5010.16158,0.00017
5012.09005,0.00625
5014.01851,0.01165
5015.94698,0.00931
5017.87545,0.00316
5019.80392,0.00128
5021.73239,0.00283
5023.66086,0.00175
5025.58933,-0.00430
5027.51779,-0.00721
5029.44626,-0.00386
5031.37473,-0.00336
5033.30320,-0.00025
5035.23167,0.01248
5037.16014,0.01929
5039.08861,0.01297
5041.01708,0.00734
5042.94554,0.00750
5044.87401,0.00768
5046.80248,0.01037
5048.73095,0.01510
5050.65942,0.01598
5052.58789,0.01540
5054.51636,0.01150
5056.44482,-0.00175
5058.37329,-0.01311
5060.30176,-0.00470
5062.23023,0.01202
5064.15870,0.01690
5066.08717,0.01443
5068.01564,0.00771
5069.94410,-0.00333
5071.87257,-0.00846
5073.80104,-0.00109
5075.72951,0.01192
5077.65798,0.01891
5079.58645,0.01829
5081.51492,0.01027
5083.44339,0.00029
5085.37185,-0.00014
5087.30032,0.00550
5089.22879,0.00829
5091.15726,0.00913
5093.08573,0.01211
5095.01420,0.01283
5096.94267,0.00201
5098.87113,-0.00471
5100.79960,0.00766
5102.72807,0.01599
5104.65654,0.00940
5106.58501,0.00396
5108.51348,0.00295
5110.44195,-0.00072
5112.37042,-0.00690
5114.29888,-0.00796
5116.22735,-0.00272
5118.15582,0.00493
5120.08429,0.01674
5122.01276,0.02872
5123.94123,0.03358
5125.86970,0.02932
5127.79816,0.01801
5129.72663,0.01190
5131.65510,0.01864
5133.58357,0.02447
5135.51204,0.01662
5137.44051,0.00528
5139.36898,0.00391
5141.29745,0.00998
5143.22591,0.01137
5145.15438,0.00653
5147.08285,0.00964
5149.01132,0.01986
5150.93979,0.02251
5152.86826,0.01805
5154.79673,0.01573
5156.72519,0.01477
5158.65366,0.01068
5160.58213,0.00744
5162.51060,0.01170
5164.43907,0.02599
5166.36754,0.03485
5168.29601,0.02657
5170.22448,0.01955
5172.15294,0.02887
5174.08141,0.04420
5176.00988,0.04623
5177.93835,0.03391
5179.86682,0.02393
5181.79529,0.02255
5183.72376,0.02867
5185.65222,0.03534
5187.58069,0.03048
5189.50916,0.01774
5191.43763,0.00819
5193.36610,0.00390
5195.29457,0.00501
5197.22304,0.01088
5199.15151,0.01178
5201.07997,0.00935
5203.00844,0.01891
5204.93691,0.03440
5206.86538,0.03731
5208.79385,0.02924
5210.72232,0.01783
5212.65079,0.01122
5214.57925,0.01490
5216.50772,0.02131
5218.43619,0.02861
5220.36466,0.03973
5222.29313,0.04845
5224.22160,0.04931
5226.15007,0.04971
5228.07854,0.04964
5230.00700,0.03808
5231.93547,0.02533
5233.86394,0.02247
5235.79241,0.01766
5237.72088,0.01077
5239.64935,0.01932
5241.57782,0.03254
5243.50628,0.02751
5245.43475,0.01401
5247.36322,0.00963
5249.29169,0.02075
5251.22016,0.03845
5253.14863,0.03956
5255.07710,0.02166
5257.00556,0.00950
5258.93403,0.01790
5260.86250,0.03317
5262.79097,0.04041
5264.71944,0.04180
5266.64791,0.03905
5268.57638,0.02963
5270.50485,0.01780
5272.43331,0.00930
5274.36178,0.00894
5276.29025,0.02126
5278.21872,0.03447
5280.14719,0.03422
5282.07566,0.02898
5284.00413,0.03189
5285.93259,0.03690
5287.86106,0.03182
5289.78953,0.02725
5291.71800,0.03536
5293.64647,0.04426
5295.57494,0.04668
5297.50341,0.04153
5299.43188,0.02831
5301.36034,0.01429
5303.28881,0.00253
5305.21728,-0.00580
5307.14575,-0.00170
5309.07422,0.01958
5311.00269,0.04053
5312.93116,0.03958
5314.85962,0.02380
5316.78809,0.01406
5318.71656,0.01704
5320.64503,0.03099
5322.57350,0.04815
5324.50197,0.05910
5326.43044,0.06069
5328.35891,0.05245
5330.28737,0.03762
5332.21584,0.02285
5334.14431,0.01598
5336.07278,0.01937
5338.00125,0.02715
5339.92972,0.03784
5341.85819,0.04688
5343.78665,0.03813
5345.71512,0.01986
5347.64359,0.01905
5349.57206,0.03246
5351.50053,0.04305
5353.42900,0.03883
5355.35747,0.02883
5357.28594,0.02876
5359.21440,0.03993
5361.14287,0.04485
5363.07134,0.02876
5364.99981,0.01384
5366.92828,0.01970
5368.85675,0.03519
5370.78522,0.05212
5372.71368,0.06350
5374.64215,0.06171
5376.57062,0.05562
5378.49909,0.04975
5380.42756,0.04143
5382.35603,0.03721
5384.28450,0.04226
5386.21297,0.04730
5388.14143,0.03499
5390.06990,0.01372
5391.99837,0.00702
5393.92684,0.02557
5395.85531,0.04141
5397.78378,0.03520
5399.71225,0.03011
5401.64071,0.03425
5403.56918,0.03561
5405.49765,0.03042
5407.42612,0.03007
5409.35459,0.04178
5411.28306,0.03745
5413.21153,-0.00094
5415.13999,-0.01942
5417.06846,0.00293
5418.99693,0.01941
5420.92540,0.01098
5422.85387,-0.00074
5424.78234,0.00058
5426.71081,0.01540
5428.63928,0.03577
5430.56774,0.04887
5432.49621,0.05244
5434.42468,0.05062
5436.35315,0.04790
5438.28162,0.04036
5440.21009,0.01943
5442.13856,0.01321
5444.06702,0.03754
5445.99549,0.04540
5447.92396,0.02456
5449.85243,0.01618
5451.78090,0.02558
5453.70937,0.03876
5455.63784,0.05373
5457.56631,0.05953
5459.49477,0.05140
5461.42324,0.04262
5463.35171,0.03800
5465.28018,0.03293
5467.20865,0.03209
5469.13712,0.04008
5471.06559,0.04300
5472.99405,0.03148
5474.92252,0.01425
5476.85099,0.01088
5478.77946,0.02835
5480.70793,0.04428
5482.63640,0.03802
5484.56487,0.02853
5486.49334,0.04374
5488.42180,0.06497
5490.35027,0.06318
5492.27874,0.04496
5494.20721,0.02830
5496.13568,0.02124
5498.06415,0.02947
5499.99262,0.05614
5501.92108,0.07620
5503.84955,0.06948
5505.77802,0.05537
5507.70649,0.05027
5509.63496,0.05052
5511.56343,0.05370
5513.49190,0.05371
5515.42037,0.04683
5517.34883,0.04052
5519.27730,0.03283
5521.20577,0.02397
5523.13424,0.02283
5525.06271,0.03202
5526.99118,0.05306
5528.91965,0.07290
5530.84811,0.07453
5532.77658,0.06292
5534.70505,0.04501
5536.63352,0.03052
5538.56199,0.02838
5540.49046,0.03360
5542.41893,0.04522
5544.34740,0.06100
5546.27586,0.06441
5548.20433,0.05589
5550.13280,0.06136
5552.06127,0.07410
5553.98974,0.06881
5555.91821,0.05835
5557.84668,0.05585
5559.77514,0.04960
5561.70361,0.03633
5563.63208,0.02466
5565.56055,0.02791
5567.48902,0.04127
5569.41749,0.04920
5571.34596,0.05766
5573.27443,0.06737
5575.20289,0.06545
5577.13136,0.05173
5579.05983,0.03850
5580.98830,0.04243
5582.91677,0.05840
5584.84524,0.06790
5586.77371,0.07649
5588.70217,0.08935
5590.63064,0.09580
5592.55911,0.08449
5594.48758,0.05055
5596.41605,0.01287
5598.34452,0.00846
5600.27299,0.03877
5602.20145,0.05796
5604.12992,0.04288
5606.05839,0.02114
5607.98686,0.02106
5609.91533,0.03539
5611.84380,0.04384
5613.77227,0.04870
5615.70074,0.06225
5617.62920,0.07937
5619.55767,0.08473
5621.48614,0.07027
5623.41461,0.04387
5625.34308,0.02308
5627.27155,0.01806
5629.20002,0.01786
5631.12848,0.00970
5633.05695,0.00693
5634.98542,0.02347
5636.91389,0.04912
5638.84236,0.06923
5640.77083,0.06648
5642.69930,0.03546
5644.62777,0.01394
5646.55623,0.03514
5648.48470,0.06462
5650.41317,0.06320
5652.34164,0.04940
5654.27011,0.04371
5656.19858,0.03830
5658.12705,0.03895
5660.05551,0.05860
5661.98398,0.07125
5663.91245,0.05802
5665.84092,0.04794
5667.76939,0.04528
5669.69786,0.03274
5671.62633,0.02799
5673.55480,0.04744
5675.48326,0.06772
5677.41173,0.06246
5679.34020,0.05512
5681.26867,0.07055
5683.19714,0.07467
5685.12561,0.04610
5687.05408,0.02199
5688.98254,0.03117
5690.91101,0.04813
5692.83948,0.04745
5694.76795,0.04455
5696.69642,0.05736
5698.62489,0.07387
5700.55336,0.07658
5702.48183,0.07689
5704.41029,0.08103
5706.33876,0.07955
5708.26723,0.07582
5710.19570,0.07254
5712.12417,0.06543
5714.05264,0.05452
5715.98111,0.04437
5717.90957,0.03610
5719.83804,0.02686
5721.76651,0.01894
5723.69498,0.02855
5725.62345,0.05134
5727.55192,0.05380
5729.48039,0.03946
5731.40886,0.02830
5733.33732,0.02062
5735.26579,0.02840
5737.19426,0.04669
5739.12273,0.06331
5741.05120,0.07722
5742.97967,0.06793
5744.90814,0.04461
5746.83660,0.04753
5748.76507,0.07396
5750.69354,0.08514
5752.62201,0.06818
5754.55048,0.04859
5756.47895,0.04665
5758.40742,0.05614
5760.33588,0.06370
5762.26435,0.06175
5764.19282,0.05746
5766.12129,0.06252
5768.04976,0.06278
5769.97823,0.04501
5771.90670,0.04310
5773.83517,0.07155
5775.76363,0.07686
5777.69210,0.04215
5779.62057,0.01865
5781.54904,0.03682
5783.47751,0.07466
5785.40598,0.09296
5787.33445,0.07756
5789.26291,0.06254
5791.19138,0.05548
5793.11985,0.02600
5795.04832,0.00502
5796.97679,0.02392
5798.90526,0.04106
5800.83373,0.03103
5802.76220,0.01213
5804.69066,0.00498
5806.61913,0.01200
5808.54760,0.02188
5810.47607,0.03330
5812.40454,0.03995
5814.33301,0.03081
5816.26148,0.02610
5818.18994,0.04497
5820.11841,0.07554
5822.04688,0.08369
5823.97535,0.05398
5825.90382,0.03970
5827.83229,0.06850
5829.76076,0.07990
5831.68923,0.04280
5833.61769,0.00578
5835.54616,0.00347
5837.47463,0.01794
5839.40310,0.03535
5841.33157,0.06156
5843.26004,0.08072
5845.18851,0.07196
5847.11697,0.05537
5849.04544,0.05499
5850.97391,0.05642
5852.90238,0.04118
5854.83085,0.03094
5856.75932,0.04751
5858.68779,0.07016
5860.61626,0.08099
5862.54472,0.08126
5864.47319,0.07501
5866.40166,0.07393
5868.33013,0.07239
5870.25860,0.05529
5872.18707,0.03703
5874.11554,0.03940
5876.04400,0.06293
5877.97247,0.08693
5879.90094,0.08240
5881.82941,0.05920
5883.75788,0.05516
5885.68635,0.06647
5887.61482,0.06359
5889.54329,0.04855
5891.47175,0.05217
5893.40022,0.07267
5895.32869,0.07843
5897.25716,0.07208
5899.18563,0.07197
5901.11410,0.06680
5903.04257,0.06113
5904.97103,0.05885
5906.89950,0.03171
5908.82797,0.00676
5910.75644,0.01998
5912.68491,0.03695
5914.61338,0.03536
5916.54185,0.02122
5918.47032,0.00665
5920.39878,-0.00103
5922.32725,0.00354
5924.25572,0.03077
5926.18419,0.05014
5928.11266,0.03797
5930.04113,0.02869
5931.96960,0.03618
5933.89806,0.04382
5935.82653,0.04453
5937.75500,0.02579
5939.68347,-0.00164
5941.61194,-0.00181
5943.54041,0.01954
5945.46888,0.03085
5947.39734,0.02731
5949.32581,0.02957
5951.25428,0.03996
5953.18275,0.03155
5955.11122,0.01450
5957.03969,0.01247
5958.96816,0.02499
5960.89663,0.03403
5962.82509,0.01606
5964.75356,-0.01316
5966.68203,-0.01073
5968.61050,0.02665
5970.53897,0.04786
5972.46744,0.02742
5974.39591,-0.00162
5976.32437,-0.00141
5978.25284,0.03556
5980.18131,0.09000
5982.10978,0.13435
5984.03825,0.14896
5985.96672,0.12339
5987.89519,0.07614
5989.82366,0.05405
5991.75212,0.06285
5993.68059,0.05637
5995.60906,0.02776
5997.53753,0.03313
5999.46600,0.07195
6001.39447,0.07955
6003.32294,0.05637
6005.25140,0.05673
6007.17987,0.06617
6009.10834,0.05542
6011.03681,0.04147
6012.96528,0.03755
6014.89375,0.04709
6016.82222,0.05816
6018.75069,0.05204
6020.67915,0.03397
6022.60762,0.02124
6024.53609,0.01985
6026.46456,0.01706
6028.39303,0.02030
6030.32150,0.04885
6032.24997,0.06874
6034.17843,0.06656
6036.10690,0.06560
6038.03537,0.04394
6039.96384,0.01188
6041.89231,0.01111
6043.82078,0.03244
6045.74925,0.05206
6047.67772,0.04958
6049.60618,0.01975
6051.53465,-0.00595
6053.46312,-0.01367
6055.39159,0.00227
6057.32006,0.03659
6059.24853,0.05099
6061.17700,0.04768
6063.10546,0.05707
6065.03393,0.07509
6066.96240,0.08501
6068.89087,0.07318
6070.81934,0.04208
6072.74781,0.01457
6074.67628,0.00624
6076.60475,0.01288
6078.53321,0.01742
6080.46168,0.02138
6082.39015,0.03089
6084.31862,0.03167
6086.24709,0.02781
6088.17556,0.02635
6090.10403,0.02053
6092.03249,0.02885
6093.96096,0.04437
6095.88943,0.03709
6097.81790,0.02268
6099.74637,0.01187
6101.67484,0.00483
6103.60331,0.00714
6105.53177,-0.00499
6107.46024,-0.02991
6109.38871,-0.02206
6111.31718,0.00783
6113.24565,0.01573
6115.17412,0.02979
6117.10259,0.08005
6119.03106,0.10489
6120.95952,0.06280
6122.88799,0.02121
6124.81646,0.01335
6126.74493,0.01615
6128.67340,0.03247
6130.60187,0.05952
6132.53034,0.05161
6134.45880,0.00664
6136.38727,-0.00453
6138.31574,0.04143
6140.24421,0.06825
6142.17268,0.04887
6144.10115,0.04415
6146.02962,0.05825
6147.95809,0.06012
6149.88655,0.05810
6151.81502,0.05893
6153.74349,0.05341
6155.67196,0.04534
6157.60043,0.06198
6159.52890,0.10072
6161.45737,0.09899
6163.38583,0.05615
6165.31430,0.03005
6167.24277,0.02140
6169.17124,0.02701
6171.09971,0.04392
6173.02818,0.02787
6174.95665,-0.00790
6176.88512,-0.00170
6178.81358,0.03196
6180.74205,0.04332
6182.67052,0.03483
6184.59899,0.02468
6186.52746,0.01111
6188.45593,0.00507
6190.38440,0.02429
6192.31286,0.04670
6194.24133,0.04987
6196.16980,0.01697
6198.09827,-0.03070
6200.02674,-0.02161
6201.95521,0.02716
6203.88368,0.05175
6205.81215,0.05298
6207.74061,0.05530
6209.66908,0.07949
6211.59755,0.10097
6213.52602,0.07093
6215.45449,0.02500
6217.38296,0.01355
6219.31143,0.02794
6221.23989,0.04344
6223.16836,0.05240
6225.09683,0.04561
6227.02530,0.02292
6228.95377,0.01499
6230.88224,0.02404
6232.81071,0.01704
6234.73918,0.00389
6236.66764,0.01582
6238.59611,0.04693
6240.52458,0.07472
6242.45305,0.08372
6244.38152,0.07258
6246.30999,0.04860
6248.23846,0.01559
6250.16692,0.00034
6252.09539,0.02404
6254.02386,0.04458
6255.95233,0.04090
6257.88080,0.03563
6259.80927,0.04489
6261.73774,0.05750
6263.66621,0.05980
6265.59467,0.07389
6267.52314,0.08795
6269.45161,0.05821
6271.38008,0.00781
6273.30855,-0.00952
6275.23702,0.01389
6277.16549,0.03159
6279.09395,0.04367
6281.02242,0.08057
6282.95089,0.10969
6284.87936,0.08068
6286.80783,0.02847
6288.73630,0.01480
6290.66477,0.05537
6292.59323,0.11521
6294.52170,0.13222
6296.45017,0.10202
6298.37864,0.07659
6300.30711,0.06823
6302.23558,0.05914
6304.16405,0.06491
6306.09252,0.09459
6308.02098,0.11473
6309.94945,0.10983
6311.87792,0.09823
6313.80639,0.06994
6315.73486,0.02987
6317.66333,0.03258
6319.59180,0.06510
6321.52026,0.05886
6323.44873,0.00444
6325.37720,-0.06821
6327.30567,-0.11447
6329.23414,-0.09034
6331.16261,-0.01786
6333.09108,0.04542
6335.01955,0.06960
6336.94801,0.06589
6338.87648,0.07422
6340.80495,0.09725
6342.73342,0.11114
6344.66189,0.13540
6346.59036,0.15576
6348.51883,0.11619
6350.44729,0.06034
6352.37576,0.05623
6354.30423,0.07184
6356.23270,0.06211
6358.16117,0.02561
6360.08964,-0.00313
6362.01811,0.00916
6363.94658,0.05888
6365.87504,0.10901
6367.80351,0.13056
6369.73198,0.14075
6371.66045,0.13931
6373.58892,0.12457
6375.51739,0.12134
6377.44586,0.10047
6379.37432,0.05278
6381.30279,0.04250
6383.23126,0.07318
6385.15973,0.06679
6387.08820,0.03787
6389.01667,0.03273
6390.94514,0.04912
6392.87361,0.07060
6394.80207,0.07639
6396.73054,0.08695
6398.65901,0.10359
6400.58748,0.09185
6402.51595,0.06242
6404.44442,0.04650
6406.37289,0.05160
6408.30135,0.05566
6410.22982,0.02188
6412.15829,-0.03948
6414.08676,-0.05138
6416.01523,0.01703
6417.94370,0.07862
6419.87217,0.07082
6421.80064,0.04261
6423.72910,0.02809
6425.65757,0.02808
6427.58604,0.00646
6429.51451,-0.03615
6431.44298,-0.03376
6433.37145,0.03285
6435.29992,0.10518
6437.22838,0.12035
6439.15685,0.09807
6441.08532,0.09438
6443.01379,0.10440
6444.94226,0.12469
6446.87073,0.14093
6448.79920,0.12287
6450.72766,0.10302
6452.65613,0.10645
6454.58460,0.08940
6456.51307,0.04543
6458.44154,0.02218
6460.37001,0.04936
6462.29848,0.08754
6464.22695,0.07805
6466.15541,0.06009
6468.08388,0.08842
6470.01235,0.10767
6471.94082,0.07830
6473.86929,0.06085
6475.79776,0.08634
6477.72623,0.11876
6479.65469,0.12417
6481.58316,0.13520
6483.51163,0.15582
6485.44010,0.12794
6487.36857,0.04972
6489.29704,-0.02956
6491.22551,-0.04797
6493.15398,-0.00239
6495.08244,0.02172
6497.01091,0.01798
6498.93938,0.03355
6500.86785,0.03062
6502.79632,-0.00139
6504.72479,0.00033
6506.65326,0.00985
6508.58172,-0.00398
6510.51019,-0.01882
6512.43866,-0.04587
6514.36713,-0.07331
6516.29560,-0.05985
6518.22407,-0.03183
6520.15254,-0.02231
6522.08101,-0.00765
6524.00947,0.02240
6525.93794,0.03313
6527.86641,0.00627
6529.79488,-0.00708
6531.72335,0.01888
6533.65182,0.04612
6535.58029,0.07085
6537.50875,0.09981
6539.43722,0.11145
6541.36569,0.10304
6543.29416,0.10411
6545.22263,0.12339
6547.15110,0.11681
6549.07957,0.05988
6551.00804,0.00319
6552.93650,-0.01049
6554.86497,-0.01905
6556.79344,-0.03760
6558.72191,-0.02782
6560.65038,0.03155
6562.57885,0.09095
6564.50732,0.10610
6566.43578,0.10084
6568.36425,0.08495
6570.29272,0.04230
6572.22119,0.01144
6574.14966,0.03129
6576.07813,0.07263
6578.00660,0.09455
6579.93507,0.08751
6581.86353,0.08116
6583.79200,0.08979
6585.72047,0.08040
6587.64894,0.04375
6589.57741,0.01599
6591.50588,0.04000
6593.43435,0.07182
6595.36281,0.05335
6597.29128,0.02893
6599.21975,0.01735
6601.14822,0.04911
6603.07669,0.11535
6605.00516,0.11336
6606.93363,0.04066
6608.86210,-0.02350
6610.79056,-0.03529
6612.71903,0.00428
6614.64750,0.05815
6616.57597,0.06251
6618.50444,0.00414
6620.43291,-0.03080
6622.36138,-0.01237
6624.28984,0.01025
6626.21831,0.01997
6628.14678,0.01817
6630.07525,0.02701
6632.00372,0.08498
6633.93219,0.13343
6635.86066,0.10990
6637.78912,0.09204
6639.71759,0.12968
6641.64606,0.15240
6643.57453,0.14141
6645.50300,0.10838
6647.43147,0.00988
6649.35994,-0.08824
6651.28841,-0.07085
6653.21687,0.00809
6655.14534,0.04501
6657.07381,0.06452
6659.00228,0.10866
6660.93075,0.10741
6662.85922,0.05021
6664.78769,0.00153
6666.71615,-0.02079
6668.64462,-0.01363
6670.57309,0.00951
6672.50156,0.01333
6674.43003,0.00120
6676.35850,0.02962
6678.28697,0.09214
6680.21544,0.10758
6682.14390,0.07189
6684.07237,0.03025
6686.00084,0.00534
6687.92931,0.00961
6689.85778,0.02786
6691.78625,0.03681
6693.71472,0.05274
6695.64318,0.09414
6697.57165,0.11958
6699.50012,0.07958
6701.42859,0.03506
6703.35706,0.05350
6705.28553,0.06397
6707.21400,0.02365
6709.14247,0.01089
6711.07093,0.01927
6712.99940,0.01498
6714.92787,0.02588
6716.85634,0.05182
6718.78481,0.05945
6720.71328,0.03498
6722.64175,0.03535
6724.57021,0.09740
6726.49868,0.12974
6728.42715,0.09333
6730.35562,0.05978
6732.28409,0.06040
6734.21256,0.07229
6736.14103,0.07447
6738.06950,0.04803
6739.99796,0.00408
6741.92643,-0.02133
6743.85490,-0.02125
6745.78337,-0.00861
6747.71184,0.03464
6749.64031,0.09368
6751.56878,0.11983
6753.49724,0.08275
6755.42571,0.02899
6757.35418,0.06667
6759.28265,0.14376
6761.21112,0.11180
6763.13959,0.04794
6765.06806,0.05687
6766.99653,0.09163
6768.92499,0.11843
6770.85346,0.13423
6772.78193,0.14445
6774.71040,0.17330
6776.63887,0.17028
6778.56734,0.08641
6780.49581,0.01461
6782.42427,0.02901
6784.35274,0.04732
6786.28121,0.01177
6788.20968,-0.00353
6790.13815,0.05072
6792.06662,0.13069
6793.99509,0.17897
6795.92355,0.19349
6797.85202,0.14234
6799.78049,0.03764
6801.70896,-0.00512
6803.63743,0.03730
6805.56590,0.04594
6807.49437,0.02861
6809.42284,0.08463
6811.35130,0.16463
6813.27977,0.13038
6815.20824,0.02837
6817.13671,-0.01949
6819.06518,0.00099
6820.99365,0.06203
6822.92212,0.11616
6824.85058,0.07151
6826.77905,-0.02249
6828.70752,-0.05814
6830.63599,-0.02223
6832.56446,0.05474
6834.49293,0.13730
6836.42140,0.13280
6838.34987,0.04275
6840.27833,-0.00608
6842.20680,0.01334
6844.13527,0.05121
6846.06374,0.06416
6847.99221,0.02484
6849.92068,-0.01971
6851.84915,0.00531
6853.77761,0.03695
6855.70608,0.01362
6857.63455,0.02522
6859.56302,0.08903
6861.49149,0.10186
6863.41996,0.05182
6865.34843,0.01467
6867.27690,0.03016
6869.20536,0.03845
6871.13383,-0.01463
6873.06230,-0.04109
6874.99077,0.01654
6876.91924,0.07307
6878.84771,0.06171
6880.77618,-0.02039
6882.70464,-0.05654
6884.63311,0.00812
6886.56158,0.05937
6888.49005,0.01617
6890.41852,-0.04170
6892.34699,-0.03414
6894.27546,-0.00142
6896.20393,0.00571
6898.13239,-0.00981
6900.06086,-0.01002
6901.98933,0.01710
6903.91780,0.06271
6905.84627,0.09998
6907.77474,0.08123
6909.70321,0.01270
6911.63167,-0.07219
6913.56014,-0.11898
6915.48861,-0.06205
6917.41708,0.06486
6919.34555,0.12852
6921.27402,0.08055
6923.20249,0.02941
6925.13096,-0.00024
6927.05942,-0.01863
6928.98789,-0.03206
6930.91636,-0.02918
6932.84483,0.05037
6934.77330,0.15372
6936.70177,0.16856
6938.63024,0.10424
6940.55870,0.05161
6942.48717,0.01245
6944.41564,-0.04796
6946.34411,-0.07709
6948.27258,-0.05198
6950.20105,0.01373
6952.12952,0.07430
6954.05799,0.02545
6955.98645,-0.12227
6957.91492,-0.14688
6959.84339,-0.03612
6961.77186,0.03551
6963.70033,0.04751
6965.62880,0.08331
6967.55727,0.12435
6969.48573,0.09112
6971.41420,-0.00710
6973.34267,-0.08577
6975.27114,-0.08304
6977.19961,0.00967
6979.12808,0.11885
6981.05655,0.17095
6982.98501,0.15434
6984.91348,0.11849
6986.84195,0.08717
6988.77042,0.04185
6990.69889,0.00251
6992.62736,-0.01761
6994.55583,-0.01088
6996.48430,0.03059
6998.41276,0.07261
7000.34123,0.08368
7002.26970,0.04617
7004.19817,-0.01166
7006.12664,-0.04889
7008.05511,-0.07682
7009.98358,-0.06708
7011.91204,0.02743
7013.84051,0.09793
7015.76898,0.00387
7017.69745,-0.10739
7019.62592,-0.08648
7021.55439,-0.02229
7023.48286,-0.01930
7025.41133,-0.02876
7027.33979,-0.01519
7029.26826,-0.05303
7031.19673,-0.12580
7033.12520,-0.12292
7035.05367,-0.04704
7036.98214,-0.03656
7038.91061,-0.06434
7040.83907,-0.00814
7042.76754,0.08562
7044.69601,0.14804
7046.62448,0.15973
7048.55295,0.06911
7050.48142,0.01334
7052.40989,0.05276
7054.33836,0.06985
7056.26682,0.05687
7058.19529,0.09077
7060.12376,0.15514
7062.05223,0.19251
7063.98070,0.16126
7065.90917,0.10127
7067.83764,0.03282
7069.76610,-0.07797
7071.69457,-0.12628
7073.62304,-0.04963
7075.55151,0.02891
7077.47998,0.05256
7079.40845,0.04696
7081.33692,0.03475
7083.26539,0.01244
7085.19385,-0.00895
7087.12232,0.00840
7089.05079,0.06722
7090.97926,0.08706
7092.90773,0.08446
7094.83620,0.14432
7096.76467,0.19905
7098.69313,0.13668
7100.62160,0.02806
7102.55007,-0.02837
7104.47854,-0.03887
7106.40701,-0.01366
7108.33548,0.05849
7110.26395,0.14782
7112.19242,0.16752
7114.12088,0.12189
7116.04935,0.10169
7117.97782,0.11539
7119.90629,0.12163
7121.83476,0.08985
7123.76323,0.03418
7125.69170,-0.00548
7127.62016,-0.01316
7129.54863,0.04486
7131.47710,0.11343
7133.40557,0.05284
7135.33404,-0.09131
7137.26251,-0.14080
7139.19098,-0.06887
7141.11944,-0.00716
7143.04791,-0.01149
7144.97638,0.00104
7146.90485,0.01608
7148.83332,-0.02692
7150.76179,-0.07498
7152.69026,-0.09362
7154.61873,-0.09490
7156.54719,-0.07224
7158.47566,-0.04855
7160.40413,-0.06766
7162.33260,-0.09439
7164.26107,-0.06828
7166.18954,0.00693
7168.11801,0.09681
7170.04647,0.16123
7171.97494,0.18360
7173.90341,0.19812
7175.83188,0.15991
7177.76035,0.06178
7179.68882,0.06347
7181.61729,0.17991
7183.54576,0.24421
7185.47422,0.17356
7187.40269,0.05912
7189.33116,-0.05010
7191.25963,-0.08897
7193.18810,-0.01392
7195.11657,0.10526
7197.04504,0.21392
7198.97350,0.21625
7200.90197,0.09827
7202.83044,-0.01857
7204.75891,0.02035
7206.68738,0.15331
7208.61585,0.18256
7210.54432,0.15805
7212.47279,0.12572
7214.40125,0.04501
7216.32972,-0.08793
7218.25819,-0.17820
7220.18666,-0.16772
7222.11513,-0.10218
7224.04360,-0.00654
7225.97207,0.07781
7227.90053,0.13325
7229.82900,0.20319
7231.75747,0.25010
7233.68594,0.22682
7235.61441,0.17997
7237.54288,0.09552
7239.47135,-0.01458
7241.39982,-0.05658
7243.32828,0.02991
7245.25675,0.14401
7247.18522,0.16609
7249.11369,0.12610
7251.04216,0.06108
7252.97063,-0.10003
7254.89910,-0.22323
7256.82756,-0.16090
7258.75603,-0.03385
7260.68450,0.05383
7262.61297,0.07993
7264.54144,0.04871
7266.46991,-0.02789
7268.39838,-0.05873
7270.32685,0.02872
7272.25531,0.15079
7274.18378,0.11471
7276.11225,-0.00221
7278.04072,-0.04667
7279.96919,0.06257
7281.89766,0.14909
7283.82613,0.06762
7285.75459,0.04669
7287.68306,0.14630
7289.61153,0.14711
7291.54000,0.04506
7293.46847,0.03855
7295.39694,0.06548
7297.32541,-0.00797
7299.25387,-0.08660
7301.18234,-0.07184
7303.11081,-0.02290
7305.03928,0.03181
7306.96775,0.09306
7308.89622,0.09829
7310.82469,0.09125
7312.75316,0.07815
7314.68162,-0.06529
7316.61009,-0.31439
7318.53856,-0.31203
7320.46703,-0.01651
7322.39550,0.21902
7324.32397,0.17968
7326.25244,0.10543
7328.18090,0.21734
7330.10937,0.40661
7332.03784,0.45394
7333.96631,0.30717
7335.89478,0.10609
7337.82325,-0.02765
7339.75172,-0.11676
7341.68019,-0.15003
7343.60865,-0.11235
7345.53712,-0.05397
7347.46559,-0.04003
7349.39406,-0.07314
7351.32253,-0.07130
7353.25100,-0.00292
7355.17947,0.08391
7357.10793,0.13602
7359.03640,0.16204
7360.96487,0.20136
7362.89334,0.21898
7364.82181,0.25451
7366.75028,0.31664
7368.67875,0.24782
7370.60722,0.05343
7372.53568,-0.07390
7374.46415,-0.10708
7376.39262,-0.08633
7378.32109,-0.00510
7380.24956,0.03746
7382.17803,-0.02126
7384.10650,-0.04047
7386.03496,0.03303
7387.96343,0.12981
7389.89190,0.21637
7391.82037,0.22666
7393.74884,0.19232
7395.67731,0.23962
7397.60578,0.29313
7399.53425,0.28703
7401.46271,0.31466
7403.39118,0.34101
7405.31965,0.30293
7407.24812,0.26581
7409.17659,0.18560
7411.10506,0.05683
7413.03353,-0.00775
7414.96199,-0.05487
7416.89046,-0.13782
7418.81893,-0.10236
7420.74740,0.08371
7422.67587,0.16232
7424.60434,0.15286
7426.53281,0.16796
7428.46128,0.18881
7430.38974,0.07077
7432.31821,-0.14423
7434.24668,-0.20548
7436.17515,-0.08571
7438.10362,0.01611
7440.03209,0.02543
7441.96056,0.05125
7443.88902,0.11377
7445.81749,0.16705
7447.74596,0.20687
7449.67443,0.16721
7451.60290,0.08802
7453.53137,0.05583
7455.45984,0.01866
7457.38831,-0.01154
7459.31677,0.06102
7461.24524,0.27210
7463.17371,0.34983
7465.10218,0.22554
7467.03065,0.15107
7468.95912,0.13709
7470.88759,0.02356
7472.81605,-0.07016
7474.74452,-0.01016
7476.67299,0.10340
7478.60146,0.25652
7480.52993,0.32049
7482.45840,0.14190
7484.38687,-0.00163
7486.31533,-0.01955
7488.24380,-0.03970
7490.17227,-0.04660
7492.10074,0.05312
7494.02921,0.19428
7495.95768,0.25858
7497.88615,0.21329
