399.19301,-0.16501
401.12148,0.22853
403.04995,0.10472
404.97842,-0.03355
406.90689,-0.07849
408.83536,-0.03777
410.76382,0.04179
412.69229,0.07286
414.62076,0.07302
416.54923,0.06990
418.47770,0.06397
420.40617,0.09562
422.33464,0.13577
424.26311,0.11305
426.19157,0.05409
428.12004,0.01638
430.04851,-0.04523
431.97698,-0.11935
433.90545,-0.09988
435.83392,-0.03570
437.76239,-0.01216
439.69085,-0.02171
441.61932,-0.02016
443.54779,0.03070
445.47626,0.07245
447.40473,0.03258
449.33320,-0.03417
451.26167,-0.03739
453.19013,0.00518
455.11860,0.04777
457.04707,0.10462
458.97554,0.13350
460.90401,0.10535
462.83248,0.08497
464.76095,0.08047
466.68942,0.07667
468.61788,0.07305
470.54635,0.08950
472.47482,0.19823
474.40329,0.33972
476.33176,0.27914
478.26023,0.15925
480.18870,0.10958
482.11716,0.10260
484.04563,0.05358
485.97410,0.01199
487.90257,0.05480
489.83104,0.11000
491.75951,0.10120
493.68798,0.05301
495.61645,0.02651
497.54491,0.02307
499.47338,0.02216
501.40185,0.03987
503.33032,0.05027
505.25879,0.03140
507.18726,0.03557
509.11573,0.07194
511.04419,0.07860
512.97266,0.05072
514.90113,0.03790
516.82960,0.04431
518.75807,0.03808
520.68654,0.02682
522.61501,0.02458
524.54348,0.03679
526.47194,0.07015
528.40041,0.08619
530.32888,0.05758
532.25735,0.03415
534.18582,0.03687
536.11429,0.03196
538.04276,0.03145
539.97122,0.03855
541.89969,0.03145
543.82816,0.02936
545.75663,0.04598
547.68510,0.06425
549.61357,0.09527
551.54204,0.18630
553.47051,0.28236
555.39897,0.25018
557.32744,0.12611
559.25591,0.05717
561.18438,0.05692
563.11285,0.06792
565.04132,0.06834
566.96979,0.05922
568.89825,0.04722
570.82672,0.04782
572.75519,0.06417
574.68366,0.08179
576.61213,0.08503
578.54060,0.06872
580.46907,0.05665
582.39754,0.06450
584.32600,0.07363
586.25447,0.07898
588.18294,0.08047
590.11141,0.06553
592.03988,0.05085
593.96835,0.06324
595.89682,0.09003
597.82528,0.10724
599.75375,0.10443
601.68222,0.08858
603.61069,0.07272
605.53916,0.06026
607.46763,0.04580
609.39610,0.03196
611.32456,0.03017
613.25303,0.04045
615.18150,0.05570
617.10997,0.06364
619.03844,0.06178
620.96691,0.06571
622.89538,0.06855
624.82385,0.05302
626.75231,0.03073
628.68078,0.02627
630.60925,0.04711
632.53772,0.07701
634.46619,0.08721
636.39466,0.07896
638.32313,0.07338
640.25159,0.07329
642.18006,0.07922
644.10853,0.08638
646.03700,0.08300
647.96547,0.06923
649.89394,0.05243
651.82241,0.03747
653.75088,0.02503
655.67934,0.02153
657.60781,0.03648
659.53628,0.05847
661.46475,0.06519
663.39322,0.06347
665.32169,0.07097
667.25016,0.08983
669.17862,0.09658
671.10709,0.08361
673.03556,0.07498
674.96403,0.07269
676.89250,0.07773
678.82097,0.08250
680.74944,0.07868
682.67791,0.07566
684.60637,0.07934
686.53484,0.08439
688.46331,0.08157
690.39178,0.06799
692.32025,0.05312
694.24872,0.04837
696.17719,0.05142
698.10565,0.05466
700.03412,0.05988
701.96259,0.06813
703.89106,0.07564
705.81953,0.07677
707.74800,0.06913
709.67647,0.05611
711.60494,0.05074
713.53340,0.06338
715.46187,0.07645
717.39034,0.07630
719.31881,0.07271
721.24728,0.06992
723.17575,0.06280
725.10422,0.05239
727.03268,0.05160
728.96115,0.06484
730.88962,0.07529
732.81809,0.07467
734.74656,0.07210
736.67503,0.07019
738.60350,0.06723
740.53197,0.06363
742.46043,0.06531
744.38890,0.07700
746.31737,0.08229
748.24584,0.07293
750.17431,0.06632
752.10278,0.06843
754.03125,0.07054
755.95971,0.07479
757.88818,0.08605
759.81665,0.09560
761.74512,0.09332
763.67359,0.08265
765.60206,0.07382
767.53053,0.06755
769.45900,0.06214
771.38746,0.06219
773.31593,0.07054
775.24440,0.08238
777.17287,0.08416
779.10134,0.07339
781.02981,0.06629
782.95828,0.06704
784.88674,0.06549
786.81521,0.06582
788.74368,0.07542
790.67215,0.08359
792.60062,0.08282
794.52909,0.07694
796.45756,0.07146
798.38602,0.07117
800.31449,0.07345
802.24296,0.07475
804.17143,0.07517
806.09990,0.07297
808.02837,0.07100
809.95684,0.06931
811.88531,0.06341
813.81377,0.05564
815.74224,0.05070
817.67071,0.05201
819.59918,0.05973
821.52765,0.06992
823.45612,0.07674
825.38459,0.07680
827.31305,0.07092
829.24152,0.06166
831.16999,0.05555
833.09846,0.05398
835.02693,0.05379
836.95540,0.06108
838.88387,0.07659
840.81234,0.08806
842.74080,0.08775
844.66927,0.07927
846.59774,0.07350
848.52621,0.07534
850.45468,0.08314
852.38315,0.09211
854.31162,0.09310
856.24008,0.08781
858.16855,0.08531
860.09702,0.08438
862.02549,0.08077
863.95396,0.07960
865.88243,0.08088
867.81090,0.07426
869.73937,0.06518
871.66783,0.06574
873.59630,0.07227
875.52477,0.07788
877.45324,0.08029
879.38171,0.07934
881.31018,0.07664
883.23865,0.07294
885.16711,0.07211
887.09558,0.07730
889.02405,0.08147
890.95252,0.08087
892.88099,0.07740
894.80946,0.07337
896.73793,0.07396
898.66640,0.07658
900.59486,0.07457
902.52333,0.06978
904.45180,0.06984
906.38027,0.07692
908.30874,0.08391
910.23721,0.08533
912.16568,0.08403
914.09414,0.08157
916.02261,0.07647
917.95108,0.07281
919.87955,0.07295
921.80802,0.07515
923.73649,0.08000
925.66496,0.08540
927.59343,0.08767
929.52189,0.08751
931.45036,0.08576
933.37883,0.08134
935.30730,0.07634
937.23577,0.07467
939.16424,0.07609
941.09271,0.07740
943.02117,0.07861
944.94964,0.08116
946.87811,0.08225
948.80658,0.07779
950.73505,0.07267
952.66352,0.07405
954.59199,0.07469
956.52045,0.06867
958.44892,0.06435
960.37739,0.06633
962.30586,0.07264
964.23433,0.07743
966.16280,0.07411
968.09127,0.06794
970.01974,0.06852
971.94820,0.07329
973.87667,0.07678
975.80514,0.08015
977.73361,0.08248
979.66208,0.08242
981.59055,0.08088
983.51902,0.07844
985.44748,0.07845
987.37595,0.08201
989.30442,0.08721
991.23289,0.09293
993.16136,0.09469
995.08983,0.09035
997.01830,0.08530
998.94677,0.08301
1000.87523,0.07952
1002.80370,0.07305
1004.73217,0.07059
1006.66064,0.07613
1008.58911,0.08273
1010.51758,0.08244
1012.44605,0.07858
1014.37451,0.07897
1016.30298,0.08312
1018.23145,0.08790
1020.15992,0.09052
1022.08839,0.08822
1024.01686,0.08512
1025.94533,0.08322
1027.87380,0.07994
1029.80226,0.07779
1031.73073,0.07754
1033.65920,0.07744
1035.58767,0.07857
1037.51614,0.08375
1039.44461,0.09107
1041.37308,0.09283
1043.30154,0.09028
1045.23001,0.08772
1047.15848,0.08448
1049.08695,0.08269
1051.01542,0.08434
1052.94389,0.08853
1054.87236,0.09109
1056.80083,0.08976
1058.72929,0.08702
1060.65776,0.08507
1062.58623,0.08617
1064.51470,0.08870
1066.44317,0.08784
1068.37164,0.08584
1070.30011,0.08534
1072.22857,0.08448
1074.15704,0.08652
1076.08551,0.09182
1078.01398,0.09350
1079.94245,0.09138
1081.87092,0.09295
1083.79939,0.10130
1085.72786,0.10665
1087.65632,0.09863
1089.58479,0.08333
1091.51326,0.07660
1093.44173,0.08080
1095.37020,0.08332
1097.29867,0.08369
1099.22714,0.08802
1101.15560,0.09057
1103.08407,0.08697
1105.01254,0.08377
1106.94101,0.08703
1108.86948,0.09172
1110.79795,0.09257
1112.72642,0.08879
1114.65489,0.08114
1116.58335,0.07726
1118.51182,0.08195
1120.44029,0.08762
1122.36876,0.08585
1124.29723,0.08225
1126.22570,0.08437
1128.15417,0.08547
1130.08263,0.08218
1132.01110,0.08238
1133.93957,0.08717
1135.86804,0.08946
1137.79651,0.08643
1139.72498,0.08277
1141.65345,0.08282
1143.58191,0.08456
1145.51038,0.08419
1147.43885,0.08168
1149.36732,0.08083
1151.29579,0.08318
1153.22426,0.08481
1155.15273,0.08503
1157.08120,0.08796
1159.00966,0.09331
1160.93813,0.09558
1162.86660,0.09421
1164.79507,0.09330
1166.72354,0.09251
1168.65201,0.09129
1170.58048,0.09134
1172.50894,0.09276
1174.43741,0.09494
1176.36588,0.09540
1178.29435,0.09163
1180.22282,0.08709
1182.15129,0.08631
1184.07976,0.08748
1186.00823,0.08827
1187.93669,0.08951
1189.86516,0.09060
1191.79363,0.09040
1193.72210,0.09100
1195.65057,0.09283
1197.57904,0.09316
1199.50751,0.09319
1201.43597,0.09359
1203.36444,0.09220
1205.29291,0.09175
1207.22138,0.09425
1209.14985,0.09450
1211.07832,0.09210
1213.00679,0.09341
1214.93526,0.09660
1216.86372,0.09543
1218.79219,0.09129
1220.72066,0.08832
1222.64913,0.08768
1224.57760,0.08847
1226.50607,0.08874
1228.43454,0.08826
1230.36300,0.08938
1232.29147,0.09296
1234.21994,0.09710
1236.14841,0.09892
1238.07688,0.09764
1240.00535,0.09655
1241.93382,0.09696
1243.86229,0.09589
1245.79075,0.09216
1247.71922,0.08843
1249.64769,0.08641
1251.57616,0.08587
1253.50463,0.08749
1255.43310,0.08996
1257.36157,0.09166
1259.29003,0.09324
1261.21850,0.09265
1263.14697,0.08857
1265.07544,0.08562
1267.00391,0.08750
1268.93238,0.09207
1270.86085,0.09584
1272.78932,0.09628
1274.71778,0.09437
1276.64625,0.09431
1278.57472,0.09579
1280.50319,0.09588
1282.43166,0.09473
1284.36013,0.09391
1286.28860,0.09402
1288.21706,0.09437
1290.14553,0.09471
1292.07400,0.09522
1294.00247,0.09532
1295.93094,0.09426
1297.85941,0.09306
1299.78788,0.09376
1301.71634,0.09468
1303.64481,0.09295
1305.57328,0.09102
1307.50175,0.09287
1309.43022,0.09697
1311.35869,0.09885
1313.28716,0.09822
1315.21563,0.09800
1317.14409,0.09861
1319.07256,0.09798
1321.00103,0.09618
1322.92950,0.09561
1324.85797,0.09581
1326.78644,0.09548
1328.71491,0.09635
1330.64337,0.09877
1332.57184,0.10076
1334.50031,0.10159
1336.42878,0.10367
1338.35725,0.10866
1340.28572,0.10933
1342.21419,0.10377
1344.14266,0.10041
1346.07112,0.09971
1347.99959,0.09976
1349.92806,0.10047
1351.85653,0.09971
1353.78500,0.09666
1355.71347,0.09327
1357.64194,0.09320
1359.57040,0.09666
1361.49887,0.10031
1363.42734,0.10038
1365.35581,0.09827
1367.28428,0.09882
1369.21275,0.10071
1371.14122,0.10291
1373.06969,0.10599
1374.99815,0.10506
1376.92662,0.10116
1378.85509,0.09947
1380.78356,0.09813
1382.71203,0.09750
1384.64050,0.10069
1386.56897,0.10505
1388.49743,0.10433
1390.42590,0.10109
1392.35437,0.10215
1394.28284,0.10636
1396.21131,0.10687
1398.13978,0.10359
1400.06825,0.10087
1401.99672,0.10123
1403.92518,0.10399
1405.85365,0.10554
1407.78212,0.10530
1409.71059,0.10566
1411.63906,0.10552
1413.56753,0.10471
1415.49600,0.10830
1417.42446,0.11676
1419.35293,0.11685
1421.28140,0.10826
1423.20987,0.10404
1425.13834,0.10194
1427.06681,0.10164
1428.99528,0.10557
1430.92375,0.10938
1432.85221,0.10982
1434.78068,0.10938
1436.70915,0.10776
1438.63762,0.10427
1440.56609,0.10108
1442.49456,0.09908
1444.42303,0.10079
1446.35149,0.10554
1448.27996,0.10690
1450.20843,0.10550
1452.13690,0.10874
1454.06537,0.11902
1455.99384,0.13571
1457.92231,0.13804
1459.85077,0.12107
1461.77924,0.11437
1463.70771,0.11462
1465.63618,0.11071
1467.56465,0.10643
1469.49312,0.10876
1471.42159,0.11901
1473.35006,0.12986
1475.27852,0.12793
1477.20699,0.11873
1479.13546,0.11054
1481.06393,0.10837
1482.99240,0.11182
1484.92087,0.11887
1486.84934,0.12911
1488.77780,0.13481
1490.70627,0.12617
1492.63474,0.11661
1494.56321,0.11698
1496.49168,0.12361
1498.42015,0.12507
1500.34862,0.12233
1502.27709,0.12458
1504.20555,0.13540
1506.13402,0.15639
1508.06249,0.15715
1509.99096,0.13832
1511.91943,0.12769
1513.84790,0.12508
1515.77637,0.12848
1517.70483,0.13320
1519.63330,0.13911
1521.56177,0.14594
1523.49024,0.14268
1525.41871,0.13527
1527.34718,0.12686
1529.27565,0.11878
1531.20412,0.11768
1533.13258,0.12023
1535.06105,0.11966
1536.98952,0.12492
1538.91799,0.14446
1540.84646,0.16152
1542.77493,0.14974
1544.70340,0.13300
1546.63186,0.12162
1548.56033,0.11740
1550.48880,0.11759
1552.41727,0.11979
1554.34574,0.12552
1556.27421,0.13505
1558.20268,0.14412
1560.13115,0.13300
1562.05961,0.12070
1563.98808,0.11808
1565.91655,0.11936
1567.84502,0.12197
1569.77349,0.12051
1571.70196,0.11319
1573.63043,0.11208
1575.55889,0.11694
1577.48736,0.11428
1579.41583,0.10855
1581.34430,0.10644
1583.27277,0.10427
1585.20124,0.10213
1587.12971,0.10197
1589.05818,0.10219
1590.98664,0.10300
1592.91511,0.10549
1594.84358,0.10660
1596.77205,0.10450
1598.70052,0.10255
1600.62899,0.10330
1602.55746,0.10407
1604.48592,0.10190
1606.41439,0.10076
1608.34286,0.10358
1610.27133,0.10613
1612.19980,0.10718
1614.12827,0.11164
1616.05674,0.11899
1617.98521,0.11764
1619.91367,0.11298
1621.84214,0.11501
1623.77061,0.11931
1625.69908,0.12122
1627.62755,0.12158
1629.55602,0.11779
1631.48449,0.11478
1633.41295,0.12128
1635.34142,0.13662
1637.26989,0.13794
1639.19836,0.12627
1641.12683,0.11841
1643.05530,0.11947
1644.98377,0.13166
1646.91223,0.14585
1648.84070,0.14337
1650.76917,0.14157
1652.69764,0.14862
1654.62611,0.13611
1656.55458,0.11980
1658.48305,0.11525
1660.41152,0.11668
1662.33998,0.11734
1664.26845,0.11506
1666.19692,0.11660
1668.12539,0.12534
1670.05386,0.13424
1671.98233,0.13347
1673.91080,0.12858
1675.83926,0.12257
1677.76773,0.11969
1679.69620,0.12398
1681.62467,0.13559
1683.55314,0.14843
1685.48161,0.14133
1687.41008,0.12892
1689.33855,0.12507
1691.26701,0.12390
1693.19548,0.12615
1695.12395,0.13655
1697.05242,0.14889
1698.98089,0.15228
1700.90936,0.14327
1702.83783,0.13188
1704.76629,0.12672
1706.69476,0.12330
1708.62323,0.11920
1710.55170,0.11771
1712.48017,0.12208
1714.40864,0.13115
1716.33711,0.13866
1718.26558,0.13311
1720.19404,0.12032
1722.12251,0.11413
1724.05098,0.11462
1725.97945,0.11626
1727.90792,0.11775
1729.83639,0.12072
1731.76486,0.12572
1733.69332,0.12962
1735.62179,0.12383
1737.55026,0.11808
1739.47873,0.11882
1741.40720,0.12187
1743.33567,0.12442
1745.26414,0.12724
1747.19261,0.13078
1749.12107,0.13276
1751.04954,0.12815
1752.97801,0.12159
1754.90648,0.11907
1756.83495,0.11805
1758.76342,0.11669
1760.69189,0.11820
1762.62035,0.11935
1764.54882,0.11708
1766.47729,0.11791
1768.40576,0.12317
1770.33423,0.12891
1772.26270,0.13099
1774.19117,0.12685
1776.11964,0.12216
1778.04810,0.12036
1779.97657,0.11989
1781.90504,0.11778
1783.83351,0.11586
1785.76198,0.11574
1787.69045,0.11623
1789.61892,0.11993
1791.54738,0.12637
1793.47585,0.12658
1795.40432,0.12146
1797.33279,0.11854
1799.26126,0.11934
1801.18973,0.12041
1803.11820,0.11839
1805.04666,0.11557
1806.97513,0.11396
1808.90360,0.11444
1810.83207,0.11556
1812.76054,0.11355
1814.68901,0.11074
1816.61748,0.11218
1818.54595,0.11768
1820.47441,0.12123
1822.40288,0.12151
1824.33135,0.12175
1826.25982,0.12092
1828.18829,0.11955
1830.11676,0.11789
1832.04523,0.11443
1833.97369,0.11249
1835.90216,0.11258
1837.83063,0.11288
1839.75910,0.11404
1841.68757,0.11863
1843.61604,0.12553
1845.54451,0.12578
1847.47298,0.11966
1849.40144,0.11402
1851.32991,0.11054
1853.25838,0.11041
1855.18685,0.11237
1857.11532,0.11332
1859.04379,0.11276
1860.97226,0.11115
1862.90072,0.10964
1864.82919,0.11149
1866.75766,0.11825
1868.68613,0.12405
1870.61460,0.12080
1872.54307,0.11387
1874.47154,0.11159
1876.40001,0.11460
1878.32847,0.11737
1880.25694,0.11683
1882.18541,0.11558
1884.11388,0.11516
1886.04235,0.11503
1887.97082,0.11597
1889.89929,0.11711
1891.82775,0.11659
1893.75622,0.11515
1895.68469,0.11342
1897.61316,0.11251
1899.54163,0.11271
1901.47010,0.11229
1903.39857,0.11133
1905.32704,0.11125
1907.25550,0.11222
1909.18397,0.11396
1911.11244,0.11533
1913.04091,0.11487
1914.96938,0.11396
1916.89785,0.11477
1918.82632,0.11543
1920.75478,0.11532
1922.68325,0.11673
1924.61172,0.11711
1926.54019,0.11552
1928.46866,0.11425
1930.39713,0.11302
1932.32560,0.11149
1934.25407,0.11043
1936.18253,0.11054
1938.11100,0.11183
1940.03947,0.11413
1941.96794,0.11663
1943.89641,0.11685
1945.82488,0.11459
1947.75335,0.11221
1949.68181,0.11122
1951.61028,0.11079
1953.53875,0.10951
1955.46722,0.10849
1957.39569,0.10985
1959.32416,0.11245
1961.25263,0.11343
1963.18110,0.11257
1965.10956,0.11234
1967.03803,0.11386
1968.96650,0.11405
1970.89497,0.11313
1972.82344,0.11431
1974.75191,0.11683
1976.68038,0.11893
1978.60884,0.11891
1980.53731,0.11716
1982.46578,0.11623
1984.39425,0.11562
1986.32272,0.11524
1988.25119,0.11487
1990.17966,0.11354
1992.10812,0.11321
1994.03659,0.11449
1995.96506,0.11616
1997.89353,0.11700
1999.82200,0.11569
2001.75047,0.11415
2003.67894,0.11435
2005.60741,0.11500
2007.53587,0.11507
2009.46434,0.11490
2011.39281,0.11480
2013.32128,0.11578
2015.24975,0.11761
2017.17822,0.11737
2019.10669,0.11495
2021.03515,0.11320
2022.96362,0.11261
2024.89209,0.11231
2026.82056,0.11305
2028.74903,0.11499
2030.67750,0.11566
2032.60597,0.11477
2034.53444,0.11420
2036.46290,0.11459
2038.39137,0.11585
2040.31984,0.11623
2042.24831,0.11476
2044.17678,0.11360
2046.10525,0.11407
2048.03372,0.11543
2049.96218,0.11598
2051.89065,0.11529
2053.81912,0.11484
2055.74759,0.11523
2057.67606,0.11585
2059.60453,0.11557
2061.53300,0.11478
2063.46147,0.11514
2065.38993,0.11559
2067.31840,0.11442
2069.24687,0.11340
2071.17534,0.11404
2073.10381,0.11453
2075.03228,0.11367
2076.96075,0.11313
2078.88921,0.11442
2080.81768,0.11631
2082.74615,0.11686
2084.67462,0.11641
2086.60309,0.11571
2088.53156,0.11449
2090.46003,0.11384
2092.38850,0.11515
2094.31696,0.11617
2096.24543,0.11533
2098.17390,0.11485
2100.10237,0.11475
2102.03084,0.11461
2103.95931,0.11492
2105.88778,0.11458
2107.81624,0.11421
2109.74471,0.11460
2111.67318,0.11476
2113.60165,0.11484
2115.53012,0.11544
2117.45859,0.11486
2119.38706,0.11253
2121.31553,0.11158
2123.24399,0.11347
2125.17246,0.11609
2127.10093,0.11709
2129.02940,0.11677
2130.95787,0.11661
2132.88634,0.11581
2134.81481,0.11394
2136.74327,0.11316
2138.67174,0.11470
2140.60021,0.11698
2142.52868,0.11751
2144.45715,0.11538
2146.38562,0.11284
2148.31409,0.11295
2150.24255,0.11474
2152.17102,0.11553
2154.09949,0.11546
2156.02796,0.11551
2157.95643,0.11565
2159.88490,0.11528
2161.81337,0.11403
2163.74184,0.11365
2165.67030,0.11547
2167.59877,0.11664
2169.52724,0.11480
2171.45571,0.11317
2173.38418,0.11443
2175.31265,0.11595
2177.24112,0.11593
2179.16958,0.11585
2181.09805,0.11552
2183.02652,0.11389
2184.95499,0.11251
2186.88346,0.11370
2188.81193,0.11677
2190.74040,0.11832
2192.66887,0.11766
2194.59733,0.11691
2196.52580,0.11661
2198.45427,0.11618
2200.38274,0.11534
2202.31121,0.11473
2204.23968,0.11496
2206.16815,0.11511
2208.09661,0.11545
2210.02508,0.11665
2211.95355,0.11739
2213.88202,0.11723
2215.81049,0.11713
2217.73896,0.11780
2219.66743,0.11824
2221.59590,0.11729
2223.52436,0.11656
2225.45283,0.11650
2227.38130,0.11568
2229.30977,0.11546
2231.23824,0.11739
2233.16671,0.11936
2235.09518,0.11943
2237.02364,0.11855
2238.95211,0.11804
2240.88058,0.11800
2242.80905,0.11858
2244.73752,0.11947
2246.66599,0.11888
2248.59446,0.11726
2250.52293,0.11748
2252.45139,0.11929
2254.37986,0.12024
2256.30833,0.12005
2258.23680,0.11904
2260.16527,0.11678
2262.09374,0.11425
2264.02221,0.11304
2265.95067,0.11383
2267.87914,0.11540
2269.80761,0.11650
2271.73608,0.11781
2273.66455,0.11910
2275.59302,0.11959
2277.52149,0.11955
2279.44996,0.11878
2281.37842,0.11673
2283.30689,0.11428
2285.23536,0.11313
2287.16383,0.11239
2289.09230,0.11175
2291.02077,0.11425
2292.94924,0.11995
2294.87770,0.12445
2296.80617,0.12388
2298.73464,0.11960
2300.66311,0.11605
2302.59158,0.11375
2304.52005,0.11203
2306.44852,0.11236
2308.37699,0.11335
2310.30545,0.11307
2312.23392,0.11331
2314.16239,0.11278
2316.09086,0.10787
2318.01933,0.10174
2319.94780,0.10003
2321.87627,0.10233
2323.80473,0.10457
2325.73320,0.10815
2327.66167,0.11177
2329.59014,0.10506
2331.51861,0.09665
2333.44708,0.10375
2335.37555,0.11275
2337.30401,0.11084
2339.23248,0.10574
2341.16095,0.10533
2343.08942,0.11123
2345.01789,0.11630
2346.94636,0.11182
2348.87483,0.10153
2350.80330,0.09275
2352.73176,0.09380
2354.66023,0.10781
2356.58870,0.11621
2358.51717,0.10699
2360.44564,0.10112
2362.37411,0.10748
2364.30258,0.11454
2366.23104,0.11679
2368.15951,0.11429
2370.08798,0.11049
2372.01645,0.10736
2373.94492,0.10584
2375.87339,0.10663
2377.80186,0.10844
2379.73033,0.11063
2381.65879,0.11336
2383.58726,0.11518
2385.51573,0.11543
2387.44420,0.11551
2389.37267,0.11517
2391.30114,0.11396
2393.22961,0.11401
2395.15807,0.11576
2397.08654,0.11694
2399.01501,0.11693
2400.94348,0.11614
2402.87195,0.11386
2404.80042,0.11240
2406.72889,0.11439
2408.65736,0.11695
2410.58582,0.11727
2412.51429,0.11593
2414.44276,0.11485
2416.37123,0.11479
2418.29970,0.11508
2420.22817,0.11625
2422.15664,0.11815
2424.08510,0.11980
2426.01357,0.12034
2427.94204,0.11973
2429.87051,0.11951
2431.79898,0.12008
2433.72745,0.12072
2435.65592,0.12007
2437.58439,0.11807
2439.51285,0.11693
2441.44132,0.11732
2443.36979,0.11776
2445.29826,0.11678
2447.22673,0.11523
2449.15520,0.11566
2451.08367,0.11749
2453.01213,0.11740
2454.94060,0.11588
2456.86907,0.11550
2458.79754,0.11597
2460.72601,0.11656
2462.65448,0.11738
2464.58295,0.11804
2466.51142,0.11797
2468.43988,0.11865
2470.36835,0.12037
2472.29682,0.12033
2474.22529,0.11931
2476.15376,0.11914
2478.08223,0.11804
2480.01070,0.11610
2481.93916,0.11503
2483.86763,0.11406
2485.79610,0.11313
2487.72457,0.11441
2489.65304,0.11728
2491.58151,0.11897
2493.50998,0.11872
2495.43844,0.11826
2497.36691,0.11912
2499.29538,0.11971
2501.22385,0.11882
2503.15232,0.11831
2505.08079,0.11849
2507.00926,0.11780
2508.93773,0.11653
2510.86619,0.11597
2512.79466,0.11594
2514.72313,0.11682
2516.65160,0.11946
2518.58007,0.12133
2520.50854,0.11996
2522.43701,0.11742
2524.36547,0.11649
2526.29394,0.11779
2528.22241,0.12010
2530.15088,0.12184
2532.07935,0.12265
2534.00782,0.12183
2535.93629,0.11930
2537.86476,0.11743
2539.79322,0.11705
2541.72169,0.11652
2543.65016,0.11635
2545.57863,0.11782
2547.50710,0.11970
2549.43557,0.12089
2551.36404,0.12183
2553.29250,0.12170
2555.22097,0.11906
2557.14944,0.11570
2559.07791,0.11464
2561.00638,0.11600
2562.93485,0.11843
2564.86332,0.12058
2566.79179,0.12153
2568.72025,0.12150
2570.64872,0.12114
2572.57719,0.12058
2574.50566,0.12022
2576.43413,0.12065
2578.36260,0.12103
2580.29107,0.12048
2582.21953,0.11952
2584.14800,0.11869
2586.07647,0.11875
2588.00494,0.12018
2589.93341,0.12043
2591.86188,0.11775
2593.79035,0.11485
2595.71882,0.11388
2597.64728,0.11482
2599.57575,0.11738
2601.50422,0.11986
2603.43269,0.12046
2605.36116,0.12006
2607.28963,0.12060
2609.21810,0.12168
2611.14656,0.12178
2613.07503,0.12030
2615.00350,0.11793
2616.93197,0.11677
2618.86044,0.11730
2620.78891,0.11881
2622.71738,0.12032
2624.64585,0.12091
2626.57431,0.12101
2628.50278,0.12103
2630.43125,0.12189
2632.35972,0.12353
2634.28819,0.12443
2636.21666,0.12396
2638.14513,0.12251
2640.07359,0.12101
2642.00206,0.12000
2643.93053,0.12087
2645.85900,0.12303
2647.78747,0.12216
2649.71594,0.11965
2651.64441,0.12116
2653.57288,0.12402
2655.50134,0.12386
2657.42981,0.12351
2659.35828,0.12431
2661.28675,0.12416
2663.21522,0.12228
2665.14369,0.12027
2667.07216,0.12021
2669.00062,0.12145
2670.92909,0.12257
2672.85756,0.12184
2674.78603,0.11944
2676.71450,0.11996
2678.64297,0.12333
2680.57144,0.12454
2682.49990,0.12301
2684.42837,0.12047
2686.35684,0.11884
2688.28531,0.11930
2690.21378,0.11989
2692.14225,0.11958
2694.07072,0.11928
2695.99919,0.12020
2697.92765,0.12204
2699.85612,0.12247
2701.78459,0.12155
2703.71306,0.12166
2705.64153,0.12336
2707.57000,0.12526
2709.49847,0.12647
2711.42693,0.12571
2713.35540,0.12264
2715.28387,0.12064
2717.21234,0.12125
2719.14081,0.12156
2721.06928,0.11954
2722.99775,0.11790
2724.92622,0.12096
2726.85468,0.12667
2728.78315,0.12810
2730.71162,0.12447
2732.64009,0.12176
2734.56856,0.12275
2736.49703,0.12431
2738.42550,0.12314
2740.35396,0.12119
2742.28243,0.12166
2744.21090,0.12369
2746.13937,0.12601
2748.06784,0.12841
2749.99631,0.12980
2751.92478,0.12983
2753.85325,0.12831
2755.78171,0.12536
2757.71018,0.12351
2759.63865,0.12401
2761.56712,0.12510
2763.49559,0.12698
2765.42406,0.12944
2767.35253,0.12913
2769.28099,0.12675
2771.20946,0.12553
2773.13793,0.12482
2775.06640,0.12439
2776.99487,0.12521
2778.92334,0.12662
2780.85181,0.12755
2782.78028,0.12726
2784.70874,0.12715
2786.63721,0.12904
2788.56568,0.13094
2790.49415,0.13049
2792.42262,0.12859
2794.35109,0.12740
2796.27956,0.12812
2798.20802,0.12889
2800.13649,0.12763
2802.06496,0.12628
2803.99343,0.12636
2805.92190,0.12731
2807.85037,0.12881
2809.77884,0.12996
2811.70731,0.12984
2813.63577,0.12860
2815.56424,0.12718
2817.49271,0.12605
2819.42118,0.12559
2821.34965,0.12659
2823.27812,0.12768
2825.20659,0.12641
2827.13505,0.12270
2829.06352,0.12022
2830.99199,0.12238
2832.92046,0.12725
2834.84893,0.13087
2836.77740,0.13210
2838.70587,0.13193
2840.63433,0.13063
2842.56280,0.12793
2844.49127,0.12537
2846.41974,0.12478
2848.34821,0.12560
2850.27668,0.12639
2852.20515,0.12687
2854.13362,0.12615
2856.06208,0.12446
2857.99055,0.12504
2859.91902,0.12846
2861.84749,0.13130
2863.77596,0.13149
2865.70443,0.12945
2867.63290,0.12769
2869.56136,0.12766
2871.48983,0.12701
2873.41830,0.12478
2875.34677,0.12295
2877.27524,0.12289
2879.20371,0.12467
2881.13218,0.12662
2883.06065,0.12653
2884.98911,0.12551
2886.91758,0.12579
2888.84605,0.12572
2890.77452,0.12431
2892.70299,0.12418
2894.63146,0.12546
2896.55993,0.12578
2898.48839,0.12553
2900.41686,0.12643
2902.34533,0.12705
2904.27380,0.12526
2906.20227,0.12307
2908.13074,0.12355
2910.05921,0.12655
2911.98768,0.12928
2913.91614,0.12880
2915.84461,0.12580
2917.77308,0.12357
2919.70155,0.12460
2921.63002,0.12882
2923.55849,0.13165
2925.48696,0.13043
2927.41542,0.12816
2929.34389,0.12623
2931.27236,0.12451
2933.20083,0.12446
2935.12930,0.12468
2937.05777,0.12228
2938.98624,0.12002
2940.91471,0.12135
2942.84317,0.12373
2944.77164,0.12365
2946.70011,0.12303
2948.62858,0.12400
2950.55705,0.12398
2952.48552,0.12231
2954.41399,0.12063
2956.34245,0.11948
2958.27092,0.11947
2960.19939,0.12117
2962.12786,0.12395
2964.05633,0.12554
2965.98480,0.12537
2967.91327,0.12507
2969.84174,0.12663
2971.77020,0.13043
2973.69867,0.13240
2975.62714,0.12987
2977.55561,0.12676
2979.48408,0.12664
2981.41255,0.12874
2983.34102,0.13184
2985.26948,0.13254
2987.19795,0.12979
2989.12642,0.12871
2991.05489,0.13004
2992.98336,0.13241
2994.91183,0.13642
2996.84030,0.13871
2998.76877,0.13779
3000.69723,0.13598
3002.62570,0.13329
3004.55417,0.12985
3006.48264,0.12793
3008.41111,0.12742
3010.33958,0.12518
3012.26805,0.12093
3014.19651,0.11512
3016.12498,0.10831
3018.05345,0.10813
3019.98192,0.11735
3021.91039,0.12684
3023.83886,0.13119
3025.76733,0.13272
3027.69579,0.13400
3029.62426,0.13483
3031.55273,0.13381
3033.48120,0.13158
3035.40967,0.12998
3037.33814,0.12923
3039.26661,0.12944
3041.19508,0.13005
3043.12354,0.12981
3045.05201,0.13033
3046.98048,0.13121
3048.90895,0.12990
3050.83742,0.12853
3052.76589,0.12928
3054.69436,0.12992
3056.62282,0.13038
3058.55129,0.13468
3060.47976,0.14048
3062.40823,0.14064
3064.33670,0.13573
3066.26517,0.13132
3068.19364,0.13001
3070.12211,0.13092
3072.05057,0.13332
3073.97904,0.13544
3075.90751,0.13457
3077.83598,0.13365
3079.76445,0.13565
3081.69292,0.13752
3083.62139,0.13524
3085.54985,0.12967
3087.47832,0.12651
3089.40679,0.12706
3091.33526,0.12640
3093.26373,0.12271
3095.19220,0.12253
3097.12067,0.12914
3099.04914,0.13395
3100.97760,0.13218
3102.90607,0.12733
3104.83454,0.12491
3106.76301,0.12835
3108.69148,0.13222
3110.61995,0.13242
3112.54842,0.13358
3114.47688,0.13585
3116.40535,0.13438
3118.33382,0.13092
3120.26229,0.13055
3122.19076,0.13358
3124.11923,0.13591
3126.04770,0.13454
3127.97617,0.13044
3129.90463,0.12668
3131.83310,0.12698
3133.76157,0.13110
3135.69004,0.13534
3137.61851,0.13761
3139.54698,0.13680
3141.47545,0.13487
3143.40391,0.13504
3145.33238,0.13540
3147.26085,0.13333
3149.18932,0.13096
3151.11779,0.13086
3153.04626,0.13305
3154.97473,0.13650
3156.90320,0.13867
3158.83166,0.13777
3160.76013,0.13592
3162.68860,0.13461
3164.61707,0.13242
3166.54554,0.13061
3168.47401,0.13177
3170.40248,0.13477
3172.33094,0.13661
3174.25941,0.13567
3176.18788,0.13298
3178.11635,0.13177
3180.04482,0.13411
3181.97329,0.13634
3183.90176,0.13391
3185.83022,0.12974
3187.75869,0.12940
3189.68716,0.13268
3191.61563,0.13507
3193.54410,0.13523
3195.47257,0.13351
3197.40104,0.13025
3199.32951,0.13082
3201.25797,0.13510
3203.18644,0.13453
3205.11491,0.12961
3207.04338,0.12837
3208.97185,0.13067
3210.90032,0.13075
3212.82879,0.12882
3214.75725,0.12779
3216.68572,0.12753
3218.61419,0.12816
3220.54266,0.12946
3222.47113,0.13033
3224.39960,0.13004
3226.32807,0.12862
3228.25654,0.12827
3230.18500,0.12977
3232.11347,0.12953
3234.04194,0.12530
3235.97041,0.12186
3237.89888,0.12367
3239.82735,0.12742
3241.75582,0.13036
3243.68428,0.13382
3245.61275,0.13699
3247.54122,0.13710
3249.46969,0.13385
3251.39816,0.12979
3253.32663,0.12714
3255.25510,0.12723
3257.18357,0.12917
3259.11203,0.12989
3261.04050,0.13072
3262.96897,0.13239
3264.89744,0.12976
3266.82591,0.12475
3268.75438,0.12535
3270.68285,0.13077
3272.61131,0.13459
3274.53978,0.13547
3276.46825,0.13450
3278.39672,0.13226
3280.32519,0.13218
3282.25366,0.13328
3284.18213,0.13172
3286.11060,0.13021
3288.03906,0.13103
3289.96753,0.13369
3291.89600,0.13711
3293.82447,0.13818
3295.75294,0.13496
3297.68141,0.12958
3299.60988,0.12728
3301.53834,0.12928
3303.46681,0.13174
3305.39528,0.13167
3307.32375,0.12886
3309.25222,0.12535
3311.18069,0.12424
3313.10916,0.12614
3315.03763,0.12770
3316.96609,0.13003
3318.89456,0.13570
3320.82303,0.13904
3322.75150,0.13752
3324.67997,0.13568
3326.60844,0.13299
3328.53691,0.12740
3330.46537,0.12401
3332.39384,0.12566
3334.32231,0.12781
3336.25078,0.13064
3338.17925,0.13494
3340.10772,0.13672
3342.03619,0.13755
3343.96466,0.13877
3345.89312,0.13614
3347.82159,0.13095
3349.75006,0.12930
3351.67853,0.13237
3353.60700,0.13664
3355.53547,0.13793
3357.46394,0.13480
3359.39240,0.12991
3361.32087,0.12600
3363.24934,0.12519
3365.17781,0.12808
3367.10628,0.13143
3369.03475,0.13117
3370.96322,0.12874
3372.89168,0.12973
3374.82015,0.13243
3376.74862,0.13305
3378.67709,0.13453
3380.60556,0.13624
3382.53403,0.13523
3384.46250,0.13341
3386.39097,0.13337
3388.31943,0.13575
3390.24790,0.13674
3392.17637,0.13279
3394.10484,0.12972
3396.03331,0.13166
3397.96178,0.13152
3399.89025,0.12639
3401.81871,0.12296
3403.74718,0.12373
3405.67565,0.12682
3407.60412,0.13221
3409.53259,0.13645
3411.46106,0.13438
3413.38953,0.12978
3415.31800,0.12875
3417.24646,0.12901
3419.17493,0.12736
3421.10340,0.12428
3423.03187,0.12166
3424.96034,0.12226
3426.88881,0.12508
3428.81728,0.12835
3430.74574,0.13141
3432.67421,0.13103
3434.60268,0.12732
3436.53115,0.12558
3438.45962,0.12767
3440.38809,0.12885
3442.31656,0.12755
3444.24503,0.12959
3446.17349,0.13449
3448.10196,0.13512
3450.03043,0.13131
3451.95890,0.12749
3453.88737,0.12497
3455.81584,0.12243
3457.74431,0.12013
3459.67277,0.12101
3461.60124,0.12447
3463.52971,0.12737
3465.45818,0.12842
3467.38665,0.12608
3469.31512,0.12050
3471.24359,0.11644
3473.17206,0.11699
3475.10052,0.11842
3477.02899,0.11852
3478.95746,0.12010
3480.88593,0.12239
3482.81440,0.12226
3484.74287,0.12209
3486.67134,0.12566
3488.59980,0.12884
3490.52827,0.12602
3492.45674,0.12149
3494.38521,0.12111
3496.31368,0.12281
3498.24215,0.12200
3500.17062,0.12087
3502.09909,0.12069
3504.02755,0.11619
3505.95602,0.11106
3507.88449,0.11321
3509.81296,0.11845
3511.74143,0.12011
3513.66990,0.11816
3515.59837,0.11369
3517.52683,0.10918
3519.45530,0.10752
3521.38377,0.10854
3523.31224,0.11004
3525.24071,0.11188
3527.16918,0.11576
3529.09765,0.11627
3531.02611,0.10939
3532.95458,0.10391
3534.88305,0.10496
3536.81152,0.10550
3538.73999,0.10371
3540.66846,0.10690
3542.59693,0.11430
3544.52540,0.11888
3546.45386,0.11576
3548.38233,0.10869
3550.31080,0.10718
3552.23927,0.11022
3554.16774,0.10996
3556.09621,0.10692
3558.02468,0.10660
3559.95314,0.10954
3561.88161,0.11092
3563.81008,0.10924
3565.73855,0.10835
3567.66702,0.10929
3569.59549,0.10712
3571.52396,0.10342
3573.45243,0.10279
3575.38089,0.10299
3577.30936,0.09979
3579.23783,0.09603
3581.16630,0.09795
3583.09477,0.10662
3585.02324,0.11662
3586.95171,0.12009
3588.88017,0.11256
3590.80864,0.10554
3592.73711,0.10453
3594.66558,0.10271
3596.59405,0.09873
3598.52252,0.09884
3600.45099,0.09975
3602.37946,0.09812
3604.30792,0.10106
3606.23639,0.10910
3608.16486,0.11373
3610.09333,0.11398
3612.02180,0.11426
3613.95027,0.11222
3615.87874,0.11117
3617.80720,0.11555
3619.73567,0.11563
3621.66414,0.10566
3623.59261,0.09709
3625.52108,0.09573
3627.44955,0.10043
3629.37802,0.10410
3631.30649,0.10104
3633.23495,0.09537
3635.16342,0.08963
3637.09189,0.08684
3639.02036,0.08631
3640.94883,0.08503
3642.87730,0.08557
3644.80577,0.09298
3646.73423,0.10535
3648.66270,0.11226
3650.59117,0.10451
3652.51964,0.09579
3654.44811,0.09292
3656.37658,0.09091
3658.30505,0.08724
3660.23352,0.08542
3662.16198,0.08489
3664.09045,0.08506
3666.01892,0.08675
3667.94739,0.09062
3669.87586,0.09653
3671.80433,0.10186
3673.73280,0.11093
3675.66126,0.11669
3677.58973,0.10526
3679.51820,0.09405
3681.44667,0.08828
3683.37514,0.08727
3685.30361,0.09120
3687.23208,0.09692
3689.16055,0.10009
3691.08901,0.09565
3693.01748,0.08777
3694.94595,0.08403
3696.87442,0.08564
3698.80289,0.08892
3700.73136,0.09131
3702.65983,0.09138
3704.58829,0.08902
3706.51676,0.08782
3708.44523,0.09037
3710.37370,0.09368
3712.30217,0.08961
3714.23064,0.08431
3716.15911,0.08718
3718.08757,0.09705
3720.01604,0.10326
3721.94451,0.09663
3723.87298,0.08860
3725.80145,0.08750
3727.72992,0.08590
3729.65839,0.08764
3731.58686,0.09788
3733.51532,0.10707
3735.44379,0.10059
3737.37226,0.08771
3739.30073,0.08562
3741.22920,0.09158
3743.15767,0.09917
3745.08614,0.10410
3747.01460,0.10620
3748.94307,0.11075
3750.87154,0.11474
3752.80001,0.10722
3754.72848,0.09634
3756.65695,0.09225
3758.58542,0.09494
3760.51389,0.09415
3762.44235,0.08903
3764.37082,0.08718
3766.29929,0.08821
3768.22776,0.08839
3770.15623,0.08498
3772.08470,0.08014
3774.01317,0.07989
3775.94163,0.08225
3777.87010,0.08352
3779.79857,0.08439
3781.72704,0.08309
3783.65551,0.08009
3785.58398,0.08005
3787.51245,0.08064
3789.44092,0.07831
3791.36938,0.07648
3793.29785,0.07846
3795.22632,0.08425
3797.15479,0.08953
3799.08326,0.09154
3801.01173,0.09250
3802.94020,0.08924
3804.86866,0.08634
3806.79713,0.08719
3808.72560,0.08553
3810.65407,0.08166
3812.58254,0.08058
3814.51101,0.08387
3816.43948,0.08910
3818.36795,0.09330
3820.29641,0.09617
3822.22488,0.09284
3824.15335,0.08889
3826.08182,0.08706
3828.01029,0.08424
3829.93876,0.08518
3831.86723,0.09143
3833.79569,0.09621
3835.72416,0.09759
3837.65263,0.09836
3839.58110,0.09811
3841.50957,0.09635
3843.43804,0.09192
3845.36651,0.08572
3847.29498,0.08109
3849.22344,0.07995
3851.15191,0.08453
3853.08038,0.09240
3855.00885,0.08841
3856.93732,0.08062
3858.86579,0.07859
3860.79426,0.08279
3862.72272,0.08960
3864.65119,0.09007
3866.57966,0.08412
3868.50813,0.07952
3870.43660,0.07816
3872.36507,0.07920
3874.29354,0.07908
3876.22200,0.07637
3878.15047,0.07624
3880.07894,0.07967
3882.00741,0.08150
3883.93588,0.08268
3885.86435,0.08152
3887.79282,0.07547
3889.72129,0.07133
3891.64975,0.07147
3893.57822,0.07334
3895.50669,0.07531
3897.43516,0.07911
3899.36363,0.08740
3901.29210,0.09628
3903.22057,0.09601
3905.14903,0.08895
3907.07750,0.08438
3909.00597,0.08130
3910.93444,0.07807
3912.86291,0.07580
3914.79138,0.07505
3916.71985,0.07653
3918.64832,0.07783
3920.57678,0.07683
3922.50525,0.07446
3924.43372,0.07074
3926.36219,0.06703
3928.29066,0.06650
3930.21913,0.07161
3932.14760,0.07853
3934.07606,0.08021
3936.00453,0.07857
3937.93300,0.07675
3939.86147,0.07555
3941.78994,0.07553
3943.71841,0.07406
3945.64688,0.07298
3947.57535,0.07482
3949.50381,0.07382
3951.43228,0.07087
3953.36075,0.07087
3955.28922,0.07118
3957.21769,0.07065
3959.14616,0.06971
3961.07463,0.06770
3963.00309,0.06527
3964.93156,0.06442
3966.86003,0.06477
3968.78850,0.06362
3970.71697,0.06331
3972.64544,0.06688
3974.57391,0.07027
3976.50238,0.06910
3978.43084,0.06687
3980.35931,0.06795
3982.28778,0.07042
3984.21625,0.07171
3986.14472,0.07184
3988.07319,0.07171
3990.00166,0.07241
3991.93012,0.07204
3993.85859,0.06819
3995.78706,0.06468
3997.71553,0.06557
3999.64400,0.06749
4001.57247,0.06753
4003.50094,0.06798
4005.42941,0.06855
4007.35787,0.06757
4009.28634,0.06719
4011.21481,0.06755
4013.14328,0.06746
4015.07175,0.06620
4017.00022,0.06255
4018.92869,0.05896
4020.85715,0.05974
4022.78562,0.06549
4024.71409,0.07034
4026.64256,0.06890
4028.57103,0.06554
4030.49950,0.06460
4032.42797,0.06259
4034.35644,0.05909
4036.28490,0.05772
4038.21337,0.05762
4040.14184,0.05865
4042.07031,0.06262
4043.99878,0.06735
4045.92725,0.06838
4047.85572,0.06584
4049.78418,0.06452
4051.71265,0.06573
4053.64112,0.06633
4055.56959,0.06446
4057.49806,0.06255
4059.42653,0.06350
4061.35500,0.06647
4063.28346,0.06844
4065.21193,0.06748
4067.14040,0.06376
4069.06887,0.06032
4070.99734,0.05941
4072.92581,0.05912
4074.85428,0.05920
4076.78275,0.05851
4078.71121,0.05520
4080.63968,0.05321
4082.56815,0.05540
4084.49662,0.06007
4086.42509,0.06256
4088.35356,0.05992
4090.28203,0.05605
4092.21049,0.05471
4094.13896,0.05343
4096.06743,0.05183
4097.99590,0.05429
4099.92437,0.05911
4101.85284,0.06114
4103.78131,0.06050
4105.70978,0.05843
4107.63824,0.05489
4109.56671,0.05418
4111.49518,0.05719
4113.42365,0.05569
4115.35212,0.04920
4117.28059,0.04616
4119.20906,0.04903
4121.13752,0.05417
4123.06599,0.05856
4124.99446,0.06090
4126.92293,0.06025
4128.85140,0.05650
4130.77987,0.05351
4132.70834,0.05598
4134.63681,0.05967
4136.56527,0.05806
4138.49374,0.05374
4140.42221,0.05133
4142.35068,0.05056
4144.27915,0.05183
4146.20762,0.05350
4148.13609,0.05125
4150.06455,0.05002
4151.99302,0.05180
4153.92149,0.04915
4155.84996,0.04330
4157.77843,0.04248
4159.70690,0.04704
4161.63537,0.05074
4163.56384,0.05186
4165.49230,0.05183
4167.42077,0.05129
4169.34924,0.05026
4171.27771,0.04830
4173.20618,0.04681
4175.13465,0.04856
4177.06312,0.05247
4178.99158,0.05338
4180.92005,0.05048
4182.84852,0.04583
4184.77699,0.04124
4186.70546,0.03867
4188.63393,0.03798
4190.56240,0.04022
4192.49087,0.04649
4194.41933,0.05344
4196.34780,0.05621
4198.27627,0.05356
4200.20474,0.05039
4202.13321,0.05277
4204.06168,0.05687
4205.99015,0.05481
4207.91861,0.04801
4209.84708,0.04282
4211.77555,0.04376
4213.70402,0.04752
4215.63249,0.04700
4217.56096,0.04301
4219.48943,0.04049
4221.41789,0.04175
4223.34636,0.04589
4225.27483,0.04884
4227.20330,0.04893
4229.13177,0.04880
4231.06024,0.04682
4232.98871,0.04153
4234.91718,0.03780
4236.84564,0.03748
4238.77411,0.03781
4240.70258,0.03610
4242.63105,0.03318
4244.55952,0.03266
4246.48799,0.03260
4248.41646,0.02964
4250.34492,0.02815
4252.27339,0.03143
4254.20186,0.03620
4256.13033,0.03887
4258.05880,0.04105
4259.98727,0.04495
4261.91574,0.04817
4263.84421,0.04986
4265.77267,0.04789
4267.70114,0.04057
4269.62961,0.03610
4271.55808,0.04008
4273.48655,0.04394
4275.41502,0.04082
4277.34349,0.03594
4279.27195,0.03426
4281.20042,0.03536
4283.12889,0.03597
4285.05736,0.03559
4286.98583,0.03609
4288.91430,0.03545
4290.84277,0.03350
4292.77124,0.03286
4294.69970,0.03372
4296.62817,0.03555
4298.55664,0.03894
4300.48511,0.04018
4302.41358,0.03691
4304.34205,0.03330
4306.27052,0.03081
4308.19898,0.03145
4310.12745,0.03596
4312.05592,0.03853
4313.98439,0.03697
4315.91286,0.03364
4317.84133,0.02986
4319.76980,0.02674
4321.69827,0.02443
4323.62673,0.02219
4325.55520,0.02243
4327.48367,0.02711
4329.41214,0.03253
4331.34061,0.03538
4333.26908,0.03669
4335.19755,0.03467
4337.12601,0.02833
4339.05448,0.02415
4340.98295,0.02538
4342.91142,0.02908
4344.83989,0.03055
4346.76836,0.02548
4348.69683,0.01922
4350.62530,0.02034
4352.55376,0.02443
4354.48223,0.02718
4356.41070,0.03095
4358.33917,0.03189
4360.26764,0.02946
4362.19611,0.02637
4364.12458,0.02062
4366.05304,0.01522
4367.98151,0.01475
4369.90998,0.01830
4371.83845,0.02191
4373.76692,0.02316
4375.69539,0.02391
4377.62386,0.02493
4379.55232,0.02423
4381.48079,0.02001
4383.40926,0.01528
4385.33773,0.01649
4387.26620,0.02013
4389.19467,0.01942
4391.12314,0.01831
4393.05161,0.02049
4394.98007,0.02209
4396.90854,0.02050
4398.83701,0.01695
4400.76548,0.01318
4402.69395,0.01364
4404.62242,0.01731
4406.55089,0.01692
4408.47935,0.01598
4410.40782,0.02000
4412.33629,0.02416
4414.26476,0.02536
4416.19323,0.02698
4418.12170,0.02697
4420.05017,0.02121
4421.97864,0.01865
4423.90710,0.02173
4425.83557,0.01779
4427.76404,0.01006
4429.69251,0.01042
4431.62098,0.01261
4433.54945,0.00964
4435.47792,0.00870
4437.40638,0.01110
4439.33485,0.00889
4441.26332,0.00660
4443.19179,0.01126
4445.12026,0.01542
4447.04873,0.01569
4448.97720,0.01605
4450.90567,0.01538
4452.83413,0.01397
4454.76260,0.01584
4456.69107,0.01972
4458.61954,0.01945
4460.54801,0.01430
4462.47648,0.00848
4464.40495,0.00518
4466.33341,0.00739
4468.26188,0.01377
4470.19035,0.01633
4472.11882,0.00995
4474.04729,0.00130
4475.97576,0.00047
4477.90423,0.00678
4479.83270,0.01253
4481.76116,0.01612
4483.68963,0.01825
4485.61810,0.01504
4487.54657,0.01115
4489.47504,0.01372
4491.40351,0.01567
4493.33198,0.01301
4495.26044,0.01164
4497.18891,0.01209
4499.11738,0.01198
4501.04585,0.01270
4502.97432,0.01563
4504.90279,0.01661
4506.83126,0.01179
4508.75973,0.00465
4510.68819,0.00051
4512.61666,0.00099
4514.54513,0.00270
4516.47360,0.00327
4518.40207,0.00563
4520.33054,0.00874
4522.25901,0.00777
4524.18747,0.00457
4526.11594,0.00518
4528.04441,0.00856
4529.97288,0.00958
4531.90135,0.00981
4533.82982,0.01071
4535.75829,0.00766
4537.68676,0.00270
4539.61522,0.00382
4541.54369,0.00892
4543.47216,0.00947
4545.40063,0.00593
4547.32910,0.00548
4549.25757,0.00724
4551.18604,0.00580
4553.11450,0.00501
4555.04297,0.00921
4556.97144,0.01131
4558.89991,0.00656
4560.82838,0.00266
4562.75685,0.00336
4564.68532,0.00609
4566.61378,0.01122
4568.54225,0.01305
4570.47072,0.00687
4572.39919,0.00107
4574.32766,0.00131
4576.25613,0.00388
4578.18460,0.00443
4580.11307,0.00130
4582.04153,-0.00157
4583.97000,-0.00039
4585.89847,0.00154
4587.82694,-0.00042
4589.75541,-0.00384
4591.68388,-0.00270
4593.61235,0.00130
4595.54081,0.00345
4597.46928,0.00444
4599.39775,0.00487
4601.32622,0.00353
4603.25469,0.00183
4605.18316,0.00072
4607.11163,0.00040
4609.04010,0.00570
4610.96856,0.01604
4612.89703,0.01824
4614.82550,0.00628
4616.75397,-0.00473
4618.68244,0.00033
4620.61091,0.01139
4622.53938,0.01400
4624.46784,0.01347
4626.39631,0.01387
4628.32478,0.00821
4630.25325,-0.00408
4632.18172,-0.01115
4634.11019,-0.00600
4636.03866,0.00184
4637.96713,0.00068
4639.89559,-0.00232
4641.82406,-0.00183
4643.75253,-0.00219
4645.68100,-0.00261
4647.60947,-0.00070
4649.53794,-0.00021
4651.46641,-0.00408
4653.39487,-0.00660
4655.32334,-0.00422
4657.25181,-0.00053
4659.18028,0.00356
4661.10875,0.00925
4663.03722,0.01473
4664.96569,0.01972
4666.89416,0.01865
4668.82262,0.00800
4670.75109,-0.00020
4672.67956,0.00436
4674.60803,0.01290
4676.53650,0.01077
4678.46497,0.00072
4680.39344,-0.00493
4682.32190,-0.00617
4684.25037,-0.00811
4686.17884,-0.00915
4688.10731,-0.00330
4690.03578,0.00845
4691.96425,0.01742
4693.89272,0.02125
4695.82119,0.02001
4697.74965,0.01256
4699.67812,0.00246
4701.60659,-0.00217
4703.53506,0.00291
4705.46353,0.00970
4707.39200,0.01119
4709.32047,0.00661
4711.24893,-0.00112
4713.17740,-0.00205
4715.10587,0.00139
4717.03434,-0.00185
4718.96281,-0.00599
4720.89128,-0.00524
4722.81975,-0.00491
4724.74821,-0.00598
4726.67668,-0.00568
4728.60515,0.00008
4730.53362,0.01134
4732.46209,0.01932
4734.39056,0.01768
4736.31903,0.00824
4738.24750,-0.00089
4740.17596,-0.00106
4742.10443,0.00717
4744.03290,0.01399
4745.96137,0.01362
4747.88984,0.01092
4749.81831,0.01047
4751.74678,0.01007
4753.67524,0.00915
4755.60371,0.00793
4757.53218,0.00084
4759.46065,-0.00820
4761.38912,-0.00538
4763.31759,0.00598
4765.24606,0.00926
4767.17453,0.00385
4769.10299,0.00239
4771.03146,0.00510
4772.95993,0.00557
4774.88840,0.00528
4776.81687,0.00804
4778.74534,0.01374
4780.67381,0.01987
4782.60227,0.02402
4784.53074,0.01975
4786.45921,0.00718
4788.38768,-0.00413
4790.31615,-0.00664
4792.24462,-0.00205
4794.17309,0.00183
4796.10156,0.00547
4798.03002,0.00936
4799.95849,0.00542
4801.88696,-0.00558
4803.81543,-0.01035
4805.74390,-0.00039
4807.67237,0.01252
4809.60084,0.01413
4811.52930,0.01092
4813.45777,0.00971
4815.38624,0.00409
4817.31471,-0.00057
4819.24318,0.00375
4821.17165,0.00668
4823.10012,0.00154
4825.02859,-0.00566
4826.95705,-0.00768
4828.88552,-0.00398
4830.81399,0.00031
4832.74246,0.00467
4834.67093,0.01077
4836.59940,0.01366
4838.52787,0.00892
4840.45633,-0.00021
4842.38480,-0.00581
4844.31327,-0.00417
4846.24174,-0.00031
4848.17021,0.00043
4850.09868,-0.00517
4852.02715,-0.01235
4853.95562,-0.00827
4855.88408,0.00462
4857.81255,0.01265
4859.74102,0.01395
4861.66949,0.01350
4863.59796,0.01404
4865.52643,0.01481
4867.45490,0.01056
4869.38336,0.00477
4871.31183,0.00020
4873.24030,-0.00815
4875.16877,-0.01436
4877.09724,-0.01389
4879.02571,-0.00957
4880.95418,-0.00050
4882.88265,0.01113
4884.81111,0.01850
4886.73958,0.02059
4888.66805,0.02197
4890.59652,0.02681
4892.52499,0.03180
4894.45346,0.02912
4896.38193,0.02361
4898.31039,0.01823
4900.23886,0.00577
4902.16733,-0.00647
4904.09580,-0.00335
4906.02427,0.01059
4907.95274,0.01569
4909.88121,0.01337
4911.80967,0.01742
4913.73814,0.02082
4915.66661,0.01649
4917.59508,0.01129
4919.52355,0.00462
4921.45202,-0.00374
4923.38049,-0.00413
4925.30896,-0.00097
4927.23742,-0.00248
4929.16589,-0.00200
4931.09436,-0.00080
4933.02283,-0.00177
4934.95130,0.00297
4936.87977,0.01138
4938.80824,0.01571
4940.73670,0.01597
4942.66517,0.01185
4944.59364,0.00383
4946.52211,-0.00184
4948.45058,0.00025
4950.37905,0.00626
4952.30752,0.01148
4954.23599,0.01629
4956.16445,0.01764
4958.09292,0.01369
4960.02139,0.00699
4961.94986,-0.00288
4963.87833,-0.01211
4965.80680,-0.00789
4967.73527,0.00612
4969.66373,0.00986
4971.59220,0.00302
4973.52067,-0.00104
4975.44914,0.00372
4977.37761,0.01453
4979.30608,0.02148
4981.23455,0.01969
4983.16302,0.01376
4985.09148,0.00794
4987.01995,0.00477
4988.94842,0.00825
4990.87689,0.01594
4992.80536,0.01831
4994.73383,0.01862
4996.66230,0.02848
4998.59076,0.03979
5000.51923,0.03577
5002.44770,0.01686
5004.37617,0.00165
5006.30464,0.00241
5008.23311,0.00746
5010.16158,0.00987
5012.09005,0.01402
5014.01851,0.01306
5015.94698,0.00875
5017.87545,0.01454
5019.80392,0.02092
5021.73239,0.01244
5023.66086,0.00189
5025.58933,0.00266
5027.51779,0.00640
5029.44626,0.00783
5031.37473,0.01093
5033.30320,0.01401
5035.23167,0.01307
5037.16014,0.01161
5039.08861,0.01198
5041.01708,0.00520
5042.94554,-0.01314
5044.87401,-0.02673
5046.80248,-0.02244
5048.73095,-0.01017
5050.65942,0.00358
5052.58789,0.01437
5054.51636,0.01422
5056.44482,0.01499
5058.37329,0.02188
5060.30176,0.02073
5062.23023,0.01307
5064.15870,0.01131
5066.08717,0.01915
5068.01564,0.02544
5069.94410,0.01975
5071.87257,0.01236
5073.80104,0.00698
5075.72951,-0.00165
5077.65798,-0.00597
5079.58645,-0.00157
5081.51492,0.00666
5083.44339,0.01292
5085.37185,0.01623
5087.30032,0.02159
5089.22879,0.03009
5091.15726,0.03270
5093.08573,0.02391
5095.01420,0.01543
5096.94267,0.01319
5098.87113,0.00620
5100.79960,-0.00300
5102.72807,0.00038
5104.65654,0.01417
5106.58501,0.02339
5108.51348,0.02084
5110.44195,0.01631
5112.37042,0.01975
5114.29888,0.02314
5116.22735,0.02065
5118.15582,0.01830
5120.08429,0.01590
5122.01276,0.01025
5123.94123,0.00284
5125.86970,-0.00092
5127.79816,0.00310
5129.72663,0.00979
5131.65510,0.01513
5133.58357,0.02151
5135.51204,0.02625
5137.44051,0.02040
5139.36898,0.00725
5141.29745,0.00553
5143.22591,0.01979
5145.15438,0.03114
5147.08285,0.02584
5149.01132,0.01710
5150.93979,0.02006
5152.86826,0.02414
5154.79673,0.01896
5156.72519,0.01062
5158.65366,0.00596
5160.58213,0.01139
5162.51060,0.02474
5164.43907,0.03124
5166.36754,0.02808
5168.29601,0.02233
5170.22448,0.01624
5172.15294,0.00947
5174.08141,0.00097
5176.00988,-0.00015
5177.93835,0.01399
5179.86682,0.02532
5181.79529,0.01793
5183.72376,0.00885
5185.65222,0.00989
5187.58069,0.00779
5189.50916,0.00131
5191.43763,0.00272
5193.36610,0.01095
5195.29457,0.01794
5197.22304,0.02571
5199.15151,0.03211
5201.07997,0.02825
5203.00844,0.01531
5204.93691,0.00605
5206.86538,0.01491
5208.79385,0.03111
5210.72232,0.03512
5212.65079,0.02977
5214.57925,0.02313
5216.50772,0.02094
5218.43619,0.02777
5220.36466,0.03542
5222.29313,0.03139
5224.22160,0.02363
5226.15007,0.02742
5228.07854,0.03446
5230.00700,0.03282
5231.93547,0.03156
5233.86394,0.03166
5235.79241,0.02457
5237.72088,0.01649
5239.64935,0.01403
5241.57782,0.01800
5243.50628,0.02593
5245.43475,0.02479
5247.36322,0.01526
5249.29169,0.01219
5251.22016,0.01528
5253.14863,0.02070
5255.07710,0.03090
5257.00556,0.04171
5258.93403,0.04262
5260.86250,0.03570
5262.79097,0.03362
5264.71944,0.03047
5266.64791,0.02043
5268.57638,0.01238
5270.50485,0.01081
5272.43331,0.01764
5274.36178,0.02448
5276.29025,0.02831
5278.21872,0.03666
5280.14719,0.04273
5282.07566,0.04411
5284.00413,0.04928
5285.93259,0.04988
5287.86106,0.03842
5289.78953,0.02852
5291.71800,0.03046
5293.64647,0.02942
5295.57494,0.01705
5297.50341,0.00595
5299.43188,0.00319
5301.36034,0.01231
5303.28881,0.03249
5305.21728,0.04547
5307.14575,0.04607
5309.07422,0.04396
5311.00269,0.03855
5312.93116,0.03190
5314.85962,0.03215
5316.78809,0.04303
5318.71656,0.05294
5320.64503,0.04361
5322.57350,0.02626
5324.50197,0.02612
5326.43044,0.04260
5328.35891,0.04803
5330.28737,0.02780
5332.21584,0.00630
5334.14431,0.00275
5336.07278,0.00711
5338.00125,0.00956
5339.92972,0.01060
5341.85819,0.01312
5343.78665,0.01876
5345.71512,0.03467
5347.64359,0.05240
5349.57206,0.04799
5351.50053,0.02524
5353.42900,0.00927
5355.35747,0.00613
5357.28594,0.01105
5359.21440,0.01872
5361.14287,0.02161
5363.07134,0.02767
5364.99981,0.03215
5366.92828,0.01875
5368.85675,0.00903
5370.78522,0.02825
5372.71368,0.05832
5374.64215,0.07074
5376.57062,0.06729
5378.49909,0.05975
5380.42756,0.05373
5382.35603,0.05426
5384.28450,0.05431
5386.21297,0.04833
5388.14143,0.04561
5390.06990,0.04566
5391.99837,0.04435
5393.92684,0.04472
5395.85531,0.04885
5397.78378,0.05824
5399.71225,0.05900
5401.64071,0.03874
5403.56918,0.02298
5405.49765,0.03295
5407.42612,0.05481
5409.35459,0.06661
5411.28306,0.05204
5413.21153,0.02396
5415.13999,0.01371
5417.06846,0.01525
5418.99693,0.01791
5420.92540,0.02723
5422.85387,0.03334
5424.78234,0.02649
5426.71081,0.01838
5428.63928,0.01915
5430.56774,0.02520
5432.49621,0.02764
5434.42468,0.02243
5436.35315,0.01340
5438.28162,0.00751
5440.21009,0.01238
5442.13856,0.02557
5444.06702,0.02908
5445.99549,0.02460
5447.92396,0.02706
5449.85243,0.02579
5451.78090,0.01973
5453.70937,0.03200
5455.63784,0.04973
5457.56631,0.04345
5459.49477,0.03314
5461.42324,0.03883
5463.35171,0.04895
5465.28018,0.05523
5467.20865,0.06475
5469.13712,0.07666
5471.06559,0.06976
5472.99405,0.04579
5474.92252,0.02833
5476.85099,0.02768
5478.77946,0.02558
5480.70793,0.01607
5482.63640,0.02144
5484.56487,0.04757
5486.49334,0.07224
5488.42180,0.07679
5490.35027,0.06599
5492.27874,0.05167
5494.20721,0.03408
5496.13568,0.02005
5498.06415,0.02043
5499.99262,0.03593
5501.92108,0.06010
5503.84955,0.07476
5505.77802,0.06385
5507.70649,0.04598
5509.63496,0.04203
5511.56343,0.05112
5513.49190,0.06220
5515.42037,0.05509
5517.34883,0.04090
5519.27730,0.03944
5521.20577,0.04464
5523.13424,0.04849
5525.06271,0.04883
5526.99118,0.04713
5528.91965,0.04243
5530.84811,0.04042
5532.77658,0.04471
5534.70505,0.03994
5536.63352,0.02461
5538.56199,0.02054
5540.49046,0.03364
5542.41893,0.04792
5544.34740,0.05087
5546.27586,0.04156
5548.20433,0.03514
5550.13280,0.04493
5552.06127,0.04804
5553.98974,0.02603
5555.91821,0.00768
5557.84668,0.01692
5559.77514,0.03541
5561.70361,0.03906
5563.63208,0.02476
5565.56055,0.01401
5567.48902,0.01956
5569.41749,0.03251
5571.34596,0.05131
5573.27443,0.06471
5575.20289,0.06120
5577.13136,0.05384
5579.05983,0.04642
5580.98830,0.04431
5582.91677,0.05413
5584.84524,0.06005
5586.77371,0.05859
5588.70217,0.05555
5590.63064,0.04816
5592.55911,0.04149
5594.48758,0.03511
5596.41605,0.02659
5598.34452,0.02900
5600.27299,0.03941
5602.20145,0.04359
5604.12992,0.04119
5606.05839,0.03095
5607.98686,0.01604
5609.91533,0.01080
5611.84380,0.02657
5613.77227,0.05368
5615.70074,0.06839
5617.62920,0.07045
5619.55767,0.07608
5621.48614,0.07234
5623.41461,0.04483
5625.34308,0.02090
5627.27155,0.01526
5629.20002,0.01475
5631.12848,0.01794
5633.05695,0.02402
5634.98542,0.02555
5636.91389,0.01524
5638.84236,0.00621
5640.77083,0.01982
5642.69930,0.03979
5644.62777,0.04655
5646.55623,0.05813
5648.48470,0.07237
5650.41317,0.06067
5652.34164,0.03888
5654.27011,0.02704
5656.19858,0.02229
5658.12705,0.02423
5660.05551,0.02661
5661.98398,0.04102
5663.91245,0.06562
5665.84092,0.07067
5667.76939,0.06102
5669.69786,0.05396
5671.62633,0.05909
5673.55480,0.07723
5675.48326,0.08647
5677.41173,0.07458
5679.34020,0.05021
5681.26867,0.03267
5683.19714,0.03837
5685.12561,0.05057
5687.05408,0.05769
5688.98254,0.06645
5690.91101,0.06780
5692.83948,0.06529
5694.76795,0.06483
5696.69642,0.05393
5698.62489,0.03954
5700.55336,0.04274
5702.48183,0.06103
5704.41029,0.07569
5706.33876,0.08543
5708.26723,0.09643
5710.19570,0.10119
5712.12417,0.09534
5714.05264,0.08130
5715.98111,0.06427
5717.90957,0.05339
5719.83804,0.04997
5721.76651,0.04418
5723.69498,0.03168
5725.62345,0.02510
5727.55192,0.03342
5729.48039,0.03688
5731.40886,0.02077
5733.33732,0.00812
5735.26579,0.02527
5737.19426,0.05380
5739.12273,0.05346
5741.05120,0.03678
5742.97967,0.03913
5744.90814,0.04722
5746.83660,0.03235
5748.76507,0.01115
5750.69354,0.01252
5752.62201,0.02427
5754.55048,0.03263
5756.47895,0.05020
5758.40742,0.07706
5760.33588,0.08244
5762.26435,0.05247
5764.19282,0.02054
5766.12129,0.01971
5768.04976,0.04879
5769.97823,0.07218
5771.90670,0.06665
5773.83517,0.04892
5775.76363,0.03989
5777.69210,0.05442
5779.62057,0.08431
5781.54904,0.09152
5783.47751,0.05794
5785.40598,0.02160
5787.33445,0.02311
5789.26291,0.04020
5791.19138,0.05428
5793.11985,0.07779
5795.04832,0.09735
5796.97679,0.09990
5798.90526,0.08464
5800.83373,0.05352
5802.76220,0.04004
5804.69066,0.05801
5806.61913,0.06867
5808.54760,0.05458
5810.47607,0.03208
5812.40454,0.01476
5814.33301,0.01896
5816.26148,0.05241
5818.18994,0.08818
5820.11841,0.10313
5822.04688,0.10126
5823.97535,0.08538
5825.90382,0.07076
5827.83229,0.07275
5829.76076,0.07833
5831.68923,0.07119
5833.61769,0.05598
5835.54616,0.05067
5837.47463,0.05710
5839.40310,0.05098
5841.33157,0.03110
5843.26004,0.02163
5845.18851,0.03775
5847.11697,0.07667
5849.04544,0.09567
5850.97391,0.07315
5852.90238,0.04710
5854.83085,0.03644
5856.75932,0.04620
5858.68779,0.06578
5860.61626,0.07795
5862.54472,0.08687
5864.47319,0.08567
5866.40166,0.07606
5868.33013,0.08567
5870.25860,0.10647
5872.18707,0.11646
5874.11554,0.11035
5876.04400,0.08246
5877.97247,0.06031
5879.90094,0.05449
5881.82941,0.03002
5883.75788,-0.00212
5885.68635,-0.00727
5887.61482,0.01936
5889.54329,0.05201
5891.47175,0.06041
5893.40022,0.05321
5895.32869,0.04520
5897.25716,0.02667
5899.18563,0.01286
5901.11410,0.02863
5903.04257,0.03230
5904.97103,0.00157
5906.89950,-0.01020
5908.82797,0.00411
5910.75644,0.01815
5912.68491,0.03466
5914.61338,0.04242
5916.54185,0.04869
5918.47032,0.07926
5920.39878,0.09268
5922.32725,0.05723
5924.25572,0.02150
5926.18419,0.00774
5928.11266,0.00530
5930.04113,0.02285
5931.96960,0.04286
5933.89806,0.04351
5935.82653,0.04715
5937.75500,0.06468
5939.68347,0.07588
5941.61194,0.06567
5943.54041,0.03960
5945.46888,0.03048
5947.39734,0.04364
5949.32581,0.05300
5951.25428,0.05773
5953.18275,0.06737
5955.11122,0.07611
5957.03969,0.06708
5958.96816,0.03632
5960.89663,0.01965
5962.82509,0.03139
5964.75356,0.03974
5966.68203,0.04469
5968.61050,0.06046
5970.53897,0.05264
5972.46744,0.02625
5974.39591,0.03889
5976.32437,0.06838
5978.25284,0.07043
5980.18131,0.06443
5982.10978,0.06913
5984.03825,0.06739
5985.96672,0.03750
5987.89519,0.00970
5989.82366,0.02056
5991.75212,0.03300
5993.68059,0.02827
5995.60906,0.04047
5997.53753,0.06439
5999.46600,0.07546
6001.39447,0.07557
6003.32294,0.05843
6005.25140,0.02379
6007.17987,0.01020
6009.10834,0.02551
6011.03681,0.03330
6012.96528,0.03297
6014.89375,0.04397
6016.82222,0.06531
6018.75069,0.08338
6020.67915,0.07070
6022.60762,0.03666
6024.53609,0.02670
6026.46456,0.04283
6028.39303,0.06037
6030.32150,0.06342
6032.24997,0.04711
6034.17843,0.01886
6036.10690,0.00377
6038.03537,0.02791
6039.96384,0.06756
6041.89231,0.08171
6043.82078,0.06832
6045.74925,0.05215
6047.67772,0.04982
6049.60618,0.06373
6051.53465,0.07095
6053.46312,0.05501
6055.39159,0.04089
6057.32006,0.05037
6059.24853,0.06856
6061.17700,0.08256
6063.10546,0.09024
6065.03393,0.06730
6066.96240,0.01878
6068.89087,-0.00617
6070.81934,0.00559
6072.74781,0.02609
6074.67628,0.03006
6076.60475,0.02771
6078.53321,0.04298
6080.46168,0.06170
6082.39015,0.06448
6084.31862,0.05153
6086.24709,0.01801
6088.17556,-0.02184
6090.10403,-0.00767
6092.03249,0.07099
6093.96096,0.12068
6095.88943,0.09584
6097.81790,0.06354
6099.74637,0.04240
6101.67484,0.01528
6103.60331,0.02384
6105.53177,0.06235
6107.46024,0.08843
6109.38871,0.11758
6111.31718,0.14947
6113.24565,0.14105
6115.17412,0.10365
6117.10259,0.07778
6119.03106,0.06039
6120.95952,0.03591
6122.88799,0.01547
6124.81646,0.01067
6126.74493,0.01827
6128.67340,0.04099
6130.60187,0.06720
6132.53034,0.06487
6134.45880,0.04913
6136.38727,0.05540
6138.31574,0.08982
6140.24421,0.11385
6142.17268,0.09105
6144.10115,0.07116
6146.02962,0.10007
6147.95809,0.13183
6149.88655,0.12140
6151.81502,0.09086
6153.74349,0.08024
6155.67196,0.07606
6157.60043,0.05224
6159.52890,0.03729
6161.45737,0.05465
6163.38583,0.06399
6165.31430,0.04875
6167.24277,0.02186
6169.17124,-0.00543
6171.09971,0.00075
6173.02818,0.03678
6174.95665,0.05754
6176.88512,0.07643
6178.81358,0.11524
6180.74205,0.13565
6182.67052,0.13530
6184.59899,0.13887
6186.52746,0.11047
6188.45593,0.04515
6190.38440,0.02438
6192.31286,0.03572
6194.24133,0.00755
6196.16980,-0.01368
6198.09827,0.02741
6200.02674,0.06759
6201.95521,0.05596
6203.88368,0.02644
6205.81215,0.01502
6207.74061,0.01598
6209.66908,0.03202
6211.59755,0.06122
6213.52602,0.08544
6215.45449,0.10950
6217.38296,0.12636
6219.31143,0.11116
6221.23989,0.06998
6223.16836,0.02152
6225.09683,-0.00477
6227.02530,0.01651
6228.95377,0.03807
6230.88224,0.02968
6232.81071,0.02785
6234.73918,0.03287
6236.66764,0.02550
6238.59611,0.01780
6240.52458,0.03181
6242.45305,0.06843
6244.38152,0.08323
6246.30999,0.04384
6248.23846,-0.01367
6250.16692,-0.04347
6252.09539,-0.02991
6254.02386,0.00545
6255.95233,0.01578
6257.88080,0.01195
6259.80927,0.04593
6261.73774,0.10028
6263.66621,0.12484
6265.59467,0.10528
6267.52314,0.05535
6269.45161,0.01621
6271.38008,0.01541
6273.30855,0.04343
6275.23702,0.08262
6277.16549,0.09816
6279.09395,0.08407
6281.02242,0.06375
6282.95089,0.04157
6284.87936,0.04917
6286.80783,0.06382
6288.73630,0.02663
6290.66477,-0.01455
6292.59323,-0.00405
6294.52170,0.01685
6296.45017,0.00593
6298.37864,-0.00088
6300.30711,0.04471
6302.23558,0.07910
6304.16405,0.03264
6306.09252,-0.02328
6308.02098,-0.03630
6309.94945,-0.00205
6311.87792,0.08825
6313.80639,0.14647
6315.73486,0.12222
6317.66333,0.09479
6319.59180,0.09043
6321.52026,0.09739
6323.44873,0.11716
6325.37720,0.12873
6327.30567,0.12471
6329.23414,0.09748
6331.16261,0.05559
6333.09108,0.02333
6335.01955,0.00275
6336.94801,-0.01059
6338.87648,-0.02040
6340.80495,-0.01674
6342.73342,-0.00063
6344.66189,0.01271
6346.59036,0.01894
6348.51883,0.01658
6350.44729,0.00731
6352.37576,-0.00491
6354.30423,0.00258
6356.23270,0.03652
6358.16117,0.05755
6360.08964,0.05227
6362.01811,0.03782
6363.94658,0.01405
6365.87504,0.02271
6367.80351,0.08309
6369.73198,0.11097
6371.66045,0.07483
6373.58892,0.03098
6375.51739,0.02540
6377.44586,0.05223
6379.37432,0.07496
6381.30279,0.06523
6383.23126,0.03400
6385.15973,0.02634
6387.08820,0.04180
6389.01667,0.02423
6390.94514,-0.01682
6392.87361,-0.00139
6394.80207,0.04043
6396.73054,0.04787
6398.65901,0.05207
6400.58748,0.03353
6402.51595,-0.00769
6404.44442,0.00132
6406.37289,0.05095
6408.30135,0.05585
6410.22982,0.00767
6412.15829,-0.02427
6414.08676,-0.00359
6416.01523,0.04165
6417.94370,0.05703
6419.87217,0.02549
6421.80064,0.00218
6423.72910,0.00677
6425.65757,0.01456
6427.58604,0.02478
6429.51451,0.02593
6431.44298,0.01434
6433.37145,0.04697
6435.29992,0.10779
6437.22838,0.13219
6439.15685,0.09619
6441.08532,0.02636
6443.01379,-0.01589
6444.94226,-0.00422
6446.87073,0.02302
6448.79920,0.04101
6450.72766,0.05238
6452.65613,0.06330
6454.58460,0.06542
6456.51307,0.06669
6458.44154,0.06967
6460.37001,0.04268
6462.29848,-0.00756
6464.22695,-0.02920
6466.15541,-0.00102
6468.08388,0.05437
6470.01235,0.08800
6471.94082,0.08396
6473.86929,0.07982
6475.79776,0.07421
6477.72623,0.07226
6479.65469,0.09352
6481.58316,0.07401
6483.51163,0.00830
6485.44010,-0.00351
6487.36857,0.06059
6489.29704,0.12439
6491.22551,0.10530
6493.15398,0.04136
6495.08244,0.03382
6497.01091,0.05879
6498.93938,0.06605
6500.86785,0.05444
6502.79632,0.04153
6504.72479,0.04348
6506.65326,0.03516
6508.58172,0.00546
6510.51019,-0.01236
6512.43866,-0.01324
6514.36713,0.00036
6516.29560,0.05121
6518.22407,0.09718
6520.15254,0.09198
6522.08101,0.07313
6524.00947,0.07407
6525.93794,0.09786
6527.86641,0.12549
6529.79488,0.10614
6531.72335,0.03599
6533.65182,-0.00232
6535.58029,0.04036
6537.50875,0.10007
6539.43722,0.09204
6541.36569,0.04347
6543.29416,0.03558
6545.22263,0.06678
6547.15110,0.08850
6549.07957,0.07132
6551.00804,0.03963
6552.93650,0.04246
6554.86497,0.05551
6556.79344,0.05388
6558.72191,0.05534
6560.65038,0.07805
6562.57885,0.10704
6564.50732,0.11991
6566.43578,0.11902
6568.36425,0.10641
6570.29272,0.07562
6572.22119,0.02372
6574.14966,-0.01185
6576.07813,-0.00259
6578.00660,0.03224
6579.93507,0.06885
6581.86353,0.09102
6583.79200,0.11227
6585.72047,0.13931
6587.64894,0.12460
6589.57741,0.03616
6591.50588,-0.06705
6593.43435,-0.08162
6595.36281,0.00004
6597.29128,0.08739
6599.21975,0.14147
6601.14822,0.14509
6603.07669,0.10668
6605.00516,0.08140
6606.93363,0.11527
6608.86210,0.16913
6610.79056,0.15879
6612.71903,0.09071
6614.64750,0.02050
6616.57597,-0.01132
6618.50444,-0.00000
6620.43291,0.02379
6622.36138,0.06456
6624.28984,0.07998
6626.21831,0.02653
6628.14678,-0.02747
6630.07525,-0.00544
6632.00372,0.06504
6633.93219,0.10154
6635.86066,0.06853
6637.78912,0.03009
6639.71759,0.04156
6641.64606,0.07150
6643.57453,0.09641
6645.50300,0.10445
6647.43147,0.05762
6649.35994,-0.01519
6651.28841,-0.03743
6653.21687,-0.00566
6655.14534,0.02003
6657.07381,0.00998
6659.00228,0.01091
6660.93075,0.02161
6662.85922,-0.01656
6664.78769,-0.07426
6666.71615,-0.07437
6668.64462,-0.01600
6670.57309,0.02049
6672.50156,0.00080
6674.43003,-0.01891
6676.35850,0.00504
6678.28697,0.05613
6680.21544,0.06964
6682.14390,0.02938
6684.07237,0.02161
6686.00084,0.08067
6687.92931,0.12634
6689.85778,0.10111
6691.78625,0.06284
6693.71472,0.07029
6695.64318,0.11194
6697.57165,0.15362
6699.50012,0.17640
6701.42859,0.16077
6703.35706,0.07761
6705.28553,-0.00657
6707.21400,0.02051
6709.14247,0.11658
6711.07093,0.16792
6712.99940,0.15682
6714.92787,0.10054
6716.85634,0.02017
6718.78481,-0.02141
6720.71328,0.02380
6722.64175,0.07761
6724.57021,0.06160
6726.49868,0.03193
6728.42715,0.04085
6730.35562,0.05834
6732.28409,0.06126
6734.21256,0.04679
6736.14103,0.02377
6738.06950,0.03958
6739.99796,0.05886
6741.92643,0.03714
6743.85490,0.05716
6745.78337,0.10847
6747.71184,0.08659
6749.64031,0.00098
6751.56878,-0.05502
6753.49724,-0.03616
6755.42571,0.01948
6757.35418,0.04413
6759.28265,0.05912
6761.21112,0.10569
6763.13959,0.12242
6765.06806,0.06646
6766.99653,-0.01869
6768.92499,-0.07920
6770.85346,-0.09642
6772.78193,-0.06456
6774.71040,-0.01104
6776.63887,-0.00310
6778.56734,-0.04316
6780.49581,-0.07370
6782.42427,-0.05268
6784.35274,0.00591
6786.28121,0.02234
6788.20968,0.00924
6790.13815,0.04018
6792.06662,0.09377
6793.99509,0.12416
6795.92355,0.11126
6797.85202,0.06384
6799.78049,0.02148
6801.70896,0.01260
6803.63743,0.04897
6805.56590,0.09106
6807.49437,0.08908
6809.42284,0.04025
6811.35130,-0.02025
6813.27977,-0.02292
6815.20824,0.05753
6817.13671,0.14501
6819.06518,0.17105
6820.99365,0.16634
6822.92212,0.14954
6824.85058,0.11524
6826.77905,0.08120
6828.70752,0.05654
6830.63599,0.02384
6832.56446,-0.00178
6834.49293,0.02589
6836.42140,0.10978
6838.34987,0.18116
6840.27833,0.19499
6842.20680,0.17036
6844.13527,0.12718
6846.06374,0.08585
6847.99221,0.07139
6849.92068,0.07594
6851.84915,0.09605
6853.77761,0.13499
6855.70608,0.14809
6857.63455,0.12406
6859.56302,0.11113
6861.49149,0.09156
6863.41996,0.07095
6865.34843,0.10190
6867.27690,0.13529
6869.20536,0.10470
6871.13383,0.06031
6873.06230,0.05655
6874.99077,0.05693
6876.91924,0.04257
6878.84771,0.06154
6880.77618,0.10233
6882.70464,0.10032
6884.63311,0.06456
6886.56158,0.06690
6888.49005,0.11093
6890.41852,0.11173
6892.34699,0.04850
6894.27546,0.00143
6896.20393,-0.04394
6898.13239,-0.10264
6900.06086,-0.08846
6901.98933,-0.00205
6903.91780,0.08641
6905.84627,0.13614
6907.77474,0.11651
6909.70321,0.03450
6911.63167,-0.02618
6913.56014,-0.01322
6915.48861,0.01509
6917.41708,0.02768
6919.34555,0.04302
6921.27402,0.04651
6923.20249,0.01977
6925.13096,-0.00926
6927.05942,-0.00054
6928.98789,-0.00317
6930.91636,-0.05713
6932.84483,-0.03539
6934.77330,0.05786
6936.70177,0.10934
6938.63024,0.13718
6940.55870,0.15661
6942.48717,0.14474
6944.41564,0.13111
6946.34411,0.13887
6948.27258,0.13947
6950.20105,0.10847
6952.12952,0.04759
6954.05799,-0.01935
6955.98645,-0.00800
6957.91492,0.09591
6959.84339,0.17025
6961.77186,0.13809
6963.70033,0.08527
6965.62880,0.09242
6967.55727,0.14537
6969.48573,0.19339
6971.41420,0.15738
6973.34267,0.07441
6975.27114,0.04122
6977.19961,0.02067
6979.12808,0.01948
6981.05655,0.05147
6982.98501,0.06034
6984.91348,0.03743
6986.84195,-0.02801
6988.77042,-0.11103
6990.69889,-0.10546
6992.62736,-0.04746
6994.55583,-0.01909
6996.48430,0.00527
6998.41276,0.03537
7000.34123,0.03597
7002.26970,0.03145
7004.19817,0.00284
7006.12664,-0.04831
7008.05511,-0.01329
7009.98358,0.05712
7011.91204,0.05279
7013.84051,0.01346
7015.76898,0.01943
7017.69745,0.06877
7019.62592,0.11171
7021.55439,0.13325
7023.48286,0.16875
7025.41133,0.19497
7027.33979,0.14385
7029.26826,0.03999
7031.19673,0.01721
7033.12520,0.07944
7035.05367,0.08130
7036.98214,-0.01884
7038.91061,-0.06612
7040.83907,0.00240
7042.76754,0.09820
7044.69601,0.13443
7046.62448,0.14026
7048.55295,0.10501
7050.48142,0.01357
7052.40989,-0.06328
7054.33836,-0.05405
7056.26682,0.00165
7058.19529,0.00555
7060.12376,-0.01633
7062.05223,0.00799
7063.98070,0.03774
7065.90917,0.03329
7067.83764,0.03918
7069.76610,0.02976
7071.69457,-0.05347
7073.62304,-0.07420
7075.55151,0.00699
7077.47998,0.10289
7079.40845,0.19592
7081.33692,0.21410
7083.26539,0.14052
7085.19385,0.10476
7087.12232,0.11269
7089.05079,0.10534
7090.97926,0.06809
7092.90773,0.01822
7094.83620,-0.02401
7096.76467,-0.04042
7098.69313,-0.00821
7100.62160,0.04688
7102.55007,0.08878
7104.47854,0.12559
7106.40701,0.11690
7108.33548,0.04206
7110.26395,-0.00213
7112.19242,0.01433
7114.12088,0.04280
7116.04935,0.04971
7117.97782,0.02805
7119.90629,0.03984
7121.83476,0.08210
7123.76323,0.07607
7125.69170,0.00313
7127.62016,-0.07609
7129.54863,-0.08420
7131.47710,-0.03570
7133.40557,-0.00120
7135.33404,0.00298
7137.26251,0.00492
7139.19098,-0.00635
7141.11944,-0.02539
7143.04791,0.01089
7144.97638,0.06122
7146.90485,0.03512
7148.83332,-0.01505
7150.76179,0.00846
7152.69026,0.11998
7154.61873,0.18123
7156.54719,0.15387
7158.47566,0.10993
7160.40413,0.04659
7162.33260,0.05000
7164.26107,0.14035
7166.18954,0.17086
7168.11801,0.09183
7170.04647,-0.00798
7171.97494,-0.01024
7173.90341,0.06476
7175.83188,0.07093
7177.76035,-0.01921
7179.68882,-0.04322
7181.61729,0.09530
7183.54576,0.24900
7185.47422,0.25090
7187.40269,0.19971
7189.33116,0.13346
7191.25963,0.03274
7193.18810,0.02302
7195.11657,0.09986
7197.04504,0.13617
7198.97350,0.06237
7200.90197,-0.01792
7202.83044,-0.00287
7204.75891,0.00051
7206.68738,-0.07454
7208.61585,-0.06724
7210.54432,0.00509
7212.47279,0.03339
7214.40125,0.03455
7216.32972,0.11026
7218.25819,0.19294
7220.18666,0.15126
7222.11513,0.09788
7224.04360,0.10252
7225.97207,0.12438
7227.90053,0.13242
7229.82900,0.08549
7231.75747,0.01136
7233.68594,0.01478
7235.61441,0.04086
7237.54288,0.00501
7239.47135,-0.03536
7241.39982,-0.04052
7243.32828,-0.06202
7245.25675,-0.02922
7247.18522,0.04213
7249.11369,0.04853
7251.04216,-0.00115
7252.97063,-0.02729
7254.89910,0.04621
7256.82756,0.14338
7258.75603,0.17401
7260.68450,0.12775
7262.61297,0.02291
7264.54144,-0.04386
7266.46991,0.06531
7268.39838,0.23556
7270.32685,0.29864
7272.25531,0.20071
7274.18378,0.08265
7276.11225,0.08563
7278.04072,0.11908
7279.96919,0.06845
7281.89766,0.02022
7283.82613,0.05277
7285.75459,0.12495
7287.68306,0.18793
7289.61153,0.18988
7291.54000,0.17684
7293.46847,0.16250
7295.39694,0.11971
7297.32541,0.14453
7299.25387,0.21149
7301.18234,0.18424
7303.11081,0.05843
7305.03928,-0.04436
7306.96775,-0.06461
7308.89622,0.01913
7310.82469,0.16202
7312.75316,0.20811
7314.68162,0.12126
7316.61009,0.02206
7318.53856,0.05043
7320.46703,0.07992
7322.39550,0.03348
7324.32397,0.03352
7326.25244,0.12467
7328.18090,0.19277
7330.10937,0.10849
7332.03784,-0.01937
7333.96631,-0.11616
7335.89478,-0.17336
7337.82325,-0.09267
7339.75172,0.13566
7341.68019,0.29697
7343.60865,0.35992
7345.53712,0.36489
7347.46559,0.35167
7349.39406,0.32594
7351.32253,0.21253
7353.25100,0.06981
7355.17947,-0.01283
7357.10793,0.01196
7359.03640,0.12112
7360.96487,0.16015
7362.89334,0.07839
7364.82181,0.04767
7366.75028,0.15663
7368.67875,0.25273
7370.60722,0.24303
7372.53568,0.17097
7374.46415,0.06314
7376.39262,-0.06089
7378.32109,-0.13956
7380.24956,-0.12056
7382.17803,-0.05854
7384.10650,-0.00958
7386.03496,0.02143
7387.96343,0.07362
7389.89190,0.18033
7391.82037,0.23359
7393.74884,0.17245
7395.67731,0.09898
7397.60578,0.10869
7399.53425,0.11861
7401.46271,0.05111
7403.39118,-0.01879
7405.31965,-0.00484
7407.24812,0.02158
7409.17659,-0.00114
7411.10506,-0.07510
7413.03353,-0.08859
7414.96199,0.00372
7416.89046,0.12619
7418.81893,0.16363
7420.74740,0.05001
7422.67587,-0.08398
7424.60434,-0.10171
7426.53281,-0.04102
7428.46128,0.02475
7430.38974,0.14860
7432.31821,0.27710
7434.24668,0.25777
7436.17515,0.12343
7438.10362,-0.00272
7440.03209,-0.03301
7441.96056,0.02348
7443.88902,0.05604
7445.81749,0.01268
7447.74596,-0.09257
7449.67443,-0.13924
7451.60290,0.02430
7453.53137,0.20054
7455.45984,0.24320
7457.38831,0.27029
7459.31677,0.25977
7461.24524,0.11731
7463.17371,-0.03924
7465.10218,-0.08155
7467.03065,-0.01682
7468.95912,0.02367
7470.88759,0.00595
7472.81605,0.06220
7474.74452,0.16413
7476.67299,0.12449
7478.60146,-0.04016
7480.52993,-0.12714
7482.45840,-0.08767
7484.38687,-0.02058
7486.31533,0.05733
7488.24380,0.11839
7490.17227,0.08498
7492.10074,0.01337
7494.02921,0.04814
7495.95768,0.22482
7497.88615,0.48027
