399.19301,0.43276
401.12148,0.30002
403.04995,0.12684
404.97842,0.08193
406.90689,0.02827
408.83536,0.01945
410.76382,0.12157
412.69229,0.19711
414.62076,0.15104
416.54923,0.03677
418.47770,-0.10932
420.40617,-0.10436
422.33464,0.00996
424.26311,0.04554
426.19157,0.03613
428.12004,0.05567
430.04851,0.09050
431.97698,0.07637
433.90545,0.03806
435.83392,0.03558
437.76239,0.04548
439.69085,0.04477
441.61932,0.02634
443.54779,0.00620
445.47626,0.02436
447.40473,0.06663
449.33320,0.07027
451.26167,0.05505
453.19013,0.03410
455.11860,-0.01785
457.04707,-0.03383
458.97554,-0.00419
460.90401,0.01770
462.83248,0.04537
464.76095,0.06300
466.68942,0.05761
468.61788,0.04799
470.54635,0.03220
472.47482,0.00153
474.40329,0.00567
476.33176,0.04226
478.26023,0.08698
480.18870,0.12364
482.11716,0.10856
484.04563,0.08924
485.97410,0.11899
487.90257,0.13804
489.83104,0.11310
491.75951,0.08993
493.68798,0.09277
495.61645,0.09053
497.54491,0.06887
499.47338,0.06710
501.40185,0.09180
503.33032,0.09447
505.25879,0.06810
507.18726,0.04116
509.11573,0.05143
511.04419,0.09271
512.97266,0.10917
514.90113,0.09498
516.82960,0.07431
518.75807,0.05581
520.68654,0.04125
522.61501,0.02067
524.54348,-0.00633
526.47194,-0.00244
528.40041,0.04622
530.32888,0.06711
532.25735,0.03023
534.18582,0.00842
536.11429,0.03774
538.04276,0.06089
539.97122,0.06447
541.89969,0.09271
543.82816,0.12076
545.75663,0.11676
547.68510,0.10165
549.61357,0.08536
551.54204,0.08601
553.47051,0.10577
555.39897,0.10262
557.32744,0.07637
559.25591,0.06857
561.18438,0.06558
563.11285,0.05268
565.04132,0.05368
566.96979,0.07142
568.89825,0.08605
570.82672,0.08302
572.75519,0.07205
574.68366,0.06348
576.61213,0.06142
578.54060,0.06806
580.46907,0.07549
582.39754,0.07646
584.32600,0.06550
586.25447,0.04550
588.18294,0.03009
590.11141,0.04505
592.03988,0.08741
593.96835,0.10775
595.89682,0.09199
597.82528,0.06516
599.75375,0.04550
601.68222,0.03276
603.61069,0.02280
605.53916,0.02322
607.46763,0.04460
609.39610,0.07489
611.32456,0.08977
613.25303,0.09297
615.18150,0.09383
617.10997,0.08871
619.03844,0.08030
620.96691,0.07360
622.89538,0.06863
624.82385,0.06452
626.75231,0.06178
628.68078,0.05348
630.60925,0.03973
632.53772,0.03439
634.46619,0.04142
636.39466,0.04969
638.32313,0.05308
640.25159,0.05836
642.18006,0.06526
644.10853,0.06869
646.03700,0.07534
647.96547,0.08698
649.89394,0.09046
651.82241,0.08330
653.75088,0.07588
655.67934,0.06978
657.60781,0.07050
659.53628,0.07865
661.46475,0.08328
663.39322,0.08390
665.32169,0.08453
667.25016,0.08505
669.17862,0.07810
671.10709,0.06854
673.03556,0.06642
674.96403,0.06864
676.89250,0.06510
678.82097,0.05722
680.74944,0.05665
682.67791,0.05759
684.60637,0.05964
686.53484,0.06962
688.46331,0.07316
690.39178,0.06434
692.32025,0.05297
694.24872,0.04061
696.17719,0.03111
698.10565,0.03166
700.03412,0.03902
701.96259,0.05127
703.89106,0.06684
705.81953,0.07108
707.74800,0.06469
709.67647,0.06589
711.60494,0.07242
713.53340,0.07359
715.46187,0.06921
717.39034,0.06417
719.31881,0.06858
721.24728,0.07868
723.17575,0.07853
725.10422,0.07397
727.03268,0.07319
728.96115,0.06975
730.88962,0.06508
732.81809,0.06844
734.74656,0.08187
736.67503,0.08846
738.60350,0.07561
740.53197,0.06186
742.46043,0.06106
744.38890,0.06501
746.31737,0.07187
748.24584,0.07994
750.17431,0.07770
752.10278,0.06860
754.03125,0.06688
755.95971,0.06857
757.88818,0.06365
759.81665,0.05800
761.74512,0.06271
763.67359,0.07311
765.60206,0.07383
767.53053,0.06704
769.45900,0.06681
771.38746,0.07036
773.31593,0.07217
775.24440,0.07519
777.17287,0.07503
779.10134,0.07119
781.02981,0.07203
782.95828,0.08062
784.88674,0.08595
786.81521,0.08267
788.74368,0.08231
790.67215,0.08186
792.60062,0.07464
794.52909,0.07053
796.45756,0.07549
798.38602,0.07824
800.31449,0.06982
802.24296,0.06124
804.17143,0.06159
806.09990,0.06463
808.02837,0.06452
809.95684,0.06564
811.88531,0.07158
813.81377,0.07485
815.74224,0.07098
817.67071,0.06885
819.59918,0.07492
821.52765,0.08219
823.45612,0.08356
825.38459,0.07692
827.31305,0.06852
829.24152,0.06788
831.16999,0.07104
833.09846,0.06961
835.02693,0.06373
836.95540,0.06413
838.88387,0.07587
840.81234,0.08432
842.74080,0.08143
844.66927,0.08149
846.59774,0.08401
848.52621,0.07439
850.45468,0.06434
852.38315,0.06504
854.31162,0.06894
856.24008,0.07657
858.16855,0.08706
860.09702,0.08941
862.02549,0.08455
863.95396,0.08181
865.88243,0.08206
867.81090,0.08652
869.73937,0.08920
871.66783,0.08247
873.59630,0.07519
875.52477,0.07472
877.45324,0.07929
879.38171,0.08105
881.31018,0.07769
883.23865,0.07533
885.16711,0.07447
887.09558,0.07674
889.02405,0.08070
890.95252,0.08079
892.88099,0.07867
894.80946,0.07811
896.73793,0.07740
898.66640,0.07389
900.59486,0.07311
902.52333,0.07684
904.45180,0.07844
906.38027,0.07647
908.30874,0.07511
910.23721,0.07796
912.16568,0.08290
914.09414,0.08493
916.02261,0.08134
917.95108,0.07775
919.87955,0.08192
921.80802,0.08797
923.73649,0.08666
925.66496,0.08236
927.59343,0.08340
929.52189,0.08656
931.45036,0.08955
933.37883,0.09345
935.30730,0.09152
937.23577,0.08525
939.16424,0.08491
941.09271,0.09046
943.02117,0.09328
944.94964,0.08989
946.87811,0.08354
948.80658,0.07860
950.73505,0.07629
952.66352,0.07362
954.59199,0.07236
956.52045,0.07672
958.44892,0.08454
960.37739,0.09106
962.30586,0.09276
964.23433,0.08880
966.16280,0.08176
968.09127,0.07687
970.01974,0.07809
971.94820,0.08395
973.87667,0.08848
975.80514,0.08833
977.73361,0.08606
979.66208,0.08465
981.59055,0.08246
983.51902,0.07979
985.44748,0.08167
987.37595,0.08652
989.30442,0.09087
991.23289,0.09314
993.16136,0.09017
995.08983,0.08540
997.01830,0.08313
998.94677,0.08222
1000.87523,0.08332
1002.80370,0.08539
1004.73217,0.08478
1006.66064,0.08323
1008.58911,0.08376
1010.51758,0.08758
1012.44605,0.09183
1014.37451,0.09124
1016.30298,0.08923
1018.23145,0.08712
1020.15992,0.08220
1022.08839,0.08100
1024.01686,0.08407
1025.94533,0.08308
1027.87380,0.07959
1029.80226,0.07731
1031.73073,0.07699
1033.65920,0.08266
1035.58767,0.09007
1037.51614,0.09125
1039.44461,0.08744
1041.37308,0.08248
1043.30154,0.07819
1045.23001,0.07772
1047.15848,0.08527
1049.08695,0.09074
1051.01542,0.08531
1052.94389,0.08146
1054.87236,0.08474
1056.80083,0.08738
1058.72929,0.08580
1060.65776,0.08409
1062.58623,0.08978
1064.51470,0.09918
1066.44317,0.10027
1068.37164,0.09635
1070.30011,0.09711
1072.22857,0.09575
1074.15704,0.08820
1076.08551,0.08341
1078.01398,0.08359
1079.94245,0.08624
1081.87092,0.08973
1083.79939,0.09222
1085.72786,0.09451
1087.65632,0.09598
1089.58479,0.09352
1091.51326,0.08995
1093.44173,0.09183
1095.37020,0.09671
1097.29867,0.09694
1099.22714,0.09236
1101.15560,0.08755
1103.08407,0.08359
1105.01254,0.08357
1106.94101,0.08831
1108.86948,0.08818
1110.79795,0.08095
1112.72642,0.07747
1114.65489,0.08183
1116.58335,0.08744
1118.51182,0.09135
1120.44029,0.09126
1122.36876,0.08590
1124.29723,0.08639
1126.22570,0.09459
1128.15417,0.09639
1130.08263,0.08897
1132.01110,0.08264
1133.93957,0.08203
1135.86804,0.08344
1137.79651,0.08417
1139.72498,0.08195
1141.65345,0.07878
1143.58191,0.08064
1145.51038,0.08688
1147.43885,0.09387
1149.36732,0.09839
1151.29579,0.09826
1153.22426,0.09413
1155.15273,0.08862
1157.08120,0.08755
1159.00966,0.09279
1160.93813,0.09829
1162.86660,0.10009
1164.79507,0.09772
1166.72354,0.09225
1168.65201,0.09018
1170.58048,0.09451
1172.50894,0.09883
1174.43741,0.09808
1176.36588,0.09382
1178.29435,0.08882
1180.22282,0.08603
1182.15129,0.08904
1184.07976,0.09321
1186.00823,0.09269
1187.93669,0.08919
1189.86516,0.08464
1191.79363,0.08341
1193.72210,0.08666
1195.65057,0.08801
1197.57904,0.08792
1199.50751,0.09030
1201.43597,0.09280
1203.36444,0.09394
1205.29291,0.09537
1207.22138,0.09736
1209.14985,0.09852
1211.07832,0.09691
1213.00679,0.09264
1214.93526,0.08901
1216.86372,0.08980
1218.79219,0.09357
1220.72066,0.09451
1222.64913,0.09210
1224.57760,0.09140
1226.50607,0.09306
1228.43454,0.09232
1230.36300,0.08918
1232.29147,0.08782
1234.21994,0.08910
1236.14841,0.09154
1238.07688,0.09466
1240.00535,0.09815
1241.93382,0.09763
1243.86229,0.09148
1245.79075,0.08713
1247.71922,0.08824
1249.64769,0.08990
1251.57616,0.08894
1253.50463,0.08786
1255.43310,0.08973
1257.36157,0.09391
1259.29003,0.09612
1261.21850,0.09425
1263.14697,0.09167
1265.07544,0.09082
1267.00391,0.09155
1268.93238,0.09287
1270.86085,0.09415
1272.78932,0.09532
1274.71778,0.09545
1276.64625,0.09380
1278.57472,0.09070
1280.50319,0.08906
1282.43166,0.09143
1284.36013,0.09557
1286.28860,0.09802
1288.21706,0.09839
1290.14553,0.09896
1292.07400,0.10075
1294.00247,0.10063
1295.93094,0.09714
1297.85941,0.09475
1299.78788,0.09440
1301.71634,0.09155
1303.64481,0.08705
1305.57328,0.08699
1307.50175,0.09324
1309.43022,0.10046
1311.35869,0.10360
1313.28716,0.10406
1315.21563,0.10401
1317.14409,0.10244
1319.07256,0.09941
1321.00103,0.09737
1322.92950,0.09754
1324.85797,0.09811
1326.78644,0.09665
1328.71491,0.09509
1330.64337,0.09617
1332.57184,0.09792
1334.50031,0.09875
1336.42878,0.10040
1338.35725,0.10340
1340.28572,0.10351
1342.21419,0.09849
1344.14266,0.09201
1346.07112,0.08746
1347.99959,0.08722
1349.92806,0.08997
1351.85653,0.09212
1353.78500,0.09346
1355.71347,0.09618
1357.64194,0.09926
1359.57040,0.10083
1361.49887,0.10306
1363.42734,0.10401
1365.35581,0.10154
1367.28428,0.10008
1369.21275,0.10031
1371.14122,0.10103
1373.06969,0.10242
1374.99815,0.10299
1376.92662,0.10259
1378.85509,0.10286
1380.78356,0.10148
1382.71203,0.09930
1384.64050,0.10087
1386.56897,0.10294
1388.49743,0.10066
1390.42590,0.09881
1392.35437,0.10189
1394.28284,0.10727
1396.21131,0.10867
1398.13978,0.10719
1400.06825,0.10499
1401.99672,0.10313
1403.92518,0.10444
1405.85365,0.10548
1407.78212,0.10255
1409.71059,0.09960
1411.63906,0.09950
1413.56753,0.10139
1415.49600,0.10502
1417.42446,0.11115
1419.35293,0.11343
1421.28140,0.10808
1423.20987,0.10345
1425.13834,0.09982
1427.06681,0.09827
1428.99528,0.10170
1430.92375,0.10460
1432.85221,0.10578
1434.78068,0.11157
1436.70915,0.11604
1438.63762,0.11046
1440.56609,0.10489
1442.49456,0.10297
1444.42303,0.10338
1446.35149,0.10639
1448.27996,0.10974
1450.20843,0.11193
1452.13690,0.11577
1454.06537,0.12319
1455.99384,0.13423
1457.92231,0.13262
1459.85077,0.11561
1461.77924,0.10808
1463.70771,0.11082
1465.63618,0.11183
1467.56465,0.10766
1469.49312,0.10968
1471.42159,0.11951
1473.35006,0.12537
1475.27852,0.12177
1477.20699,0.11672
1479.13546,0.11192
1481.06393,0.10882
1482.99240,0.10929
1484.92087,0.11453
1486.84934,0.12369
1488.77780,0.12966
1490.70627,0.12576
1492.63474,0.12134
1494.56321,0.12227
1496.49168,0.12536
1498.42015,0.12512
1500.34862,0.12140
1502.27709,0.11725
1504.20555,0.11824
1506.13402,0.13228
1508.06249,0.13956
1509.99096,0.12822
1511.91943,0.12126
1513.84790,0.12226
1515.77637,0.12854
1517.70483,0.13567
1519.63330,0.14607
1521.56177,0.15538
1523.49024,0.14887
1525.41871,0.13791
1527.34718,0.12894
1529.27565,0.12214
1531.20412,0.12213
1533.13258,0.12728
1535.06105,0.12757
1536.98952,0.13003
1538.91799,0.15134
1540.84646,0.17609
1542.77493,0.15959
1544.70340,0.13431
1546.63186,0.12023
1548.56033,0.11836
1550.48880,0.12097
1552.41727,0.12178
1554.34574,0.12483
1556.27421,0.13561
1558.20268,0.15167
1560.13115,0.14155
1562.05961,0.12544
1563.98808,0.11974
1565.91655,0.11746
1567.84502,0.11946
1569.77349,0.12281
1571.70196,0.12029
1573.63043,0.11987
1575.55889,0.12447
1577.48736,0.12192
1579.41583,0.11252
1581.34430,0.10572
1583.27277,0.10150
1585.20124,0.09913
1587.12971,0.09929
1589.05818,0.10139
1590.98664,0.10438
1592.91511,0.10603
1594.84358,0.10467
1596.77205,0.10159
1598.70052,0.10005
1600.62899,0.10137
1602.55746,0.10429
1604.48592,0.10742
1606.41439,0.10916
1608.34286,0.10871
1610.27133,0.10599
1612.19980,0.10302
1614.12827,0.10509
1616.05674,0.11500
1617.98521,0.12047
1619.91367,0.11664
1621.84214,0.11427
1623.77061,0.11420
1625.69908,0.11549
1627.62755,0.11654
1629.55602,0.11437
1631.48449,0.11540
1633.41295,0.12660
1635.34142,0.14256
1637.26989,0.13681
1639.19836,0.12262
1641.12683,0.11767
1643.05530,0.12067
1644.98377,0.13192
1646.91223,0.14368
1648.84070,0.14049
1650.76917,0.14043
1652.69764,0.15112
1654.62611,0.14077
1656.55458,0.12376
1658.48305,0.11788
1660.41152,0.11866
1662.33998,0.12117
1664.26845,0.12084
1666.19692,0.12329
1668.12539,0.13245
1670.05386,0.13837
1671.98233,0.13518
1673.91080,0.13262
1675.83926,0.12897
1677.76773,0.12495
1679.69620,0.12617
1681.62467,0.13351
1683.55314,0.14418
1685.48161,0.14125
1687.41008,0.13149
1689.33855,0.12657
1691.26701,0.12327
1693.19548,0.12388
1695.12395,0.13096
1697.05242,0.13903
1698.98089,0.14272
1700.90936,0.13853
1702.83783,0.13108
1704.76629,0.12752
1706.69476,0.12361
1708.62323,0.11924
1710.55170,0.11732
1712.48017,0.11738
1714.40864,0.12225
1716.33711,0.13133
1718.26558,0.13018
1720.19404,0.12109
1722.12251,0.11572
1724.05098,0.11420
1725.97945,0.11454
1727.90792,0.11754
1729.83639,0.12288
1731.76486,0.12883
1733.69332,0.13215
1735.62179,0.12528
1737.55026,0.12101
1739.47873,0.12456
1741.40720,0.12780
1743.33567,0.12790
1745.26414,0.12816
1747.19261,0.12861
1749.12107,0.12723
1751.04954,0.12303
1752.97801,0.11914
1754.90648,0.11917
1756.83495,0.12082
1758.76342,0.12013
1760.69189,0.11980
1762.62035,0.11859
1764.54882,0.11548
1766.47729,0.11662
1768.40576,0.12324
1770.33423,0.13149
1772.26270,0.13350
1774.19117,0.12454
1776.11964,0.11640
1778.04810,0.11457
1779.97657,0.11559
1781.90504,0.11632
1783.83351,0.11696
1785.76198,0.11617
1787.69045,0.11570
1789.61892,0.12054
1791.54738,0.12795
1793.47585,0.12681
1795.40432,0.12011
1797.33279,0.11827
1799.26126,0.12131
1801.18973,0.12263
1803.11820,0.12061
1805.04666,0.11867
1806.97513,0.11754
1808.90360,0.11741
1810.83207,0.11686
1812.76054,0.11413
1814.68901,0.11147
1816.61748,0.11062
1818.54595,0.11191
1820.47441,0.11510
1822.40288,0.11893
1824.33135,0.12127
1826.25982,0.12109
1828.18829,0.12120
1830.11676,0.11992
1832.04523,0.11482
1833.97369,0.11151
1835.90216,0.11192
1837.83063,0.11299
1839.75910,0.11439
1841.68757,0.11952
1843.61604,0.12666
1845.54451,0.12750
1847.47298,0.12280
1849.40144,0.11801
1851.32991,0.11572
1853.25838,0.11620
1855.18685,0.11649
1857.11532,0.11515
1859.04379,0.11285
1860.97226,0.11015
1862.90072,0.10927
1864.82919,0.11333
1866.75766,0.12083
1868.68613,0.12359
1870.61460,0.11918
1872.54307,0.11541
1874.47154,0.11376
1876.40001,0.11335
1878.32847,0.11438
1880.25694,0.11560
1882.18541,0.11529
1884.11388,0.11377
1886.04235,0.11399
1887.97082,0.11643
1889.89929,0.11760
1891.82775,0.11632
1893.75622,0.11553
1895.68469,0.11505
1897.61316,0.11307
1899.54163,0.11176
1901.47010,0.11238
1903.39857,0.11289
1905.32704,0.11220
1907.25550,0.11172
1909.18397,0.11184
1911.11244,0.11146
1913.04091,0.11088
1914.96938,0.11099
1916.89785,0.11285
1918.82632,0.11528
1920.75478,0.11700
1922.68325,0.11897
1924.61172,0.11897
1926.54019,0.11637
1928.46866,0.11437
1930.39713,0.11398
1932.32560,0.11420
1934.25407,0.11527
1936.18253,0.11700
1938.11100,0.11751
1940.03947,0.11750
1941.96794,0.11911
1943.89641,0.11971
1945.82488,0.11699
1947.75335,0.11386
1949.68181,0.11176
1951.61028,0.11133
1953.53875,0.11323
1955.46722,0.11454
1957.39569,0.11326
1959.32416,0.11169
1961.25263,0.11151
1963.18110,0.11171
1965.10956,0.11206
1967.03803,0.11300
1968.96650,0.11377
1970.89497,0.11381
1972.82344,0.11300
1974.75191,0.11238
1976.68038,0.11279
1978.60884,0.11384
1980.53731,0.11452
1982.46578,0.11378
1984.39425,0.11375
1986.32272,0.11605
1988.25119,0.11841
1990.17966,0.11939
1992.10812,0.11857
1994.03659,0.11551
1995.96506,0.11234
1997.89353,0.11156
1999.82200,0.11291
2001.75047,0.11462
2003.67894,0.11508
2005.60741,0.11399
2007.53587,0.11318
2009.46434,0.11393
2011.39281,0.11548
2013.32128,0.11738
2015.24975,0.11981
2017.17822,0.12025
2019.10669,0.11777
2021.03515,0.11542
2022.96362,0.11406
2024.89209,0.11375
2026.82056,0.11415
2028.74903,0.11383
2030.67750,0.11200
2032.60597,0.10989
2034.53444,0.11047
2036.46290,0.11286
2038.39137,0.11407
2040.31984,0.11402
2042.24831,0.11359
2044.17678,0.11303
2046.10525,0.11244
2048.03372,0.11209
2049.96218,0.11281
2051.89065,0.11474
2053.81912,0.11633
2055.74759,0.11666
2057.67606,0.11637
2059.60453,0.11641
2061.53300,0.11645
2063.46147,0.11556
2065.38993,0.11507
2067.31840,0.11560
2069.24687,0.11557
2071.17534,0.11515
2073.10381,0.11608
2075.03228,0.11662
2076.96075,0.11468
2078.88921,0.11313
2080.81768,0.11347
2082.74615,0.11474
2084.67462,0.11642
2086.60309,0.11651
2088.53156,0.11514
2090.46003,0.11497
2092.38850,0.11626
2094.31696,0.11775
2096.24543,0.11833
2098.17390,0.11715
2100.10237,0.11525
2102.03084,0.11401
2103.95931,0.11415
2105.88778,0.11537
2107.81624,0.11527
2109.74471,0.11469
2111.67318,0.11580
2113.60165,0.11605
2115.53012,0.11392
2117.45859,0.11172
2119.38706,0.11133
2121.31553,0.11281
2123.24399,0.11488
2125.17246,0.11569
2127.10093,0.11535
2129.02940,0.11591
2130.95787,0.11789
2132.88634,0.11908
2134.81481,0.11715
2136.74327,0.11359
2138.67174,0.11165
2140.60021,0.11265
2142.52868,0.11492
2144.45715,0.11564
2146.38562,0.11496
2148.31409,0.11443
2150.24255,0.11453
2152.17102,0.11515
2154.09949,0.11565
2156.02796,0.11580
2157.95643,0.11543
2159.88490,0.11537
2161.81337,0.11658
2163.74184,0.11790
2165.67030,0.11848
2167.59877,0.11907
2169.52724,0.11920
2171.45571,0.11790
2173.38418,0.11642
2175.31265,0.11681
2177.24112,0.11786
2179.16958,0.11752
2181.09805,0.11725
2183.02652,0.11723
2184.95499,0.11642
2186.88346,0.11635
2188.81193,0.11677
2190.74040,0.11705
2192.66887,0.11762
2194.59733,0.11755
2196.52580,0.11706
2198.45427,0.11707
2200.38274,0.11658
2202.31121,0.11544
2204.23968,0.11511
2206.16815,0.11527
2208.09661,0.11459
2210.02508,0.11308
2211.95355,0.11219
2213.88202,0.11240
2215.81049,0.11319
2217.73896,0.11476
2219.66743,0.11603
2221.59590,0.11579
2223.52436,0.11463
2225.45283,0.11466
2227.38130,0.11617
2229.30977,0.11688
2231.23824,0.11680
2233.16671,0.11694
2235.09518,0.11763
2237.02364,0.11933
2238.95211,0.12054
2240.88058,0.11905
2242.80905,0.11710
2244.73752,0.11810
2246.66599,0.11948
2248.59446,0.11881
2250.52293,0.11776
2252.45139,0.11726
2254.37986,0.11701
2256.30833,0.11674
2258.23680,0.11682
2260.16527,0.11751
2262.09374,0.11829
2264.02221,0.11862
2265.95067,0.11912
2267.87914,0.12003
2269.80761,0.12080
2271.73608,0.12027
2273.66455,0.11787
2275.59302,0.11677
2277.52149,0.11723
2279.44996,0.11606
2281.37842,0.11544
2283.30689,0.11752
2285.23536,0.11914
2287.16383,0.11818
2289.09230,0.11613
2291.02077,0.11507
2292.94924,0.11608
2294.87770,0.11734
2296.80617,0.11629
2298.73464,0.11312
2300.66311,0.10927
2302.59158,0.10758
2304.52005,0.10911
2306.44852,0.11087
2308.37699,0.11095
2310.30545,0.11002
2312.23392,0.10903
2314.16239,0.10851
2316.09086,0.10879
2318.01933,0.11012
2319.94780,0.11097
2321.87627,0.11101
2323.80473,0.11179
2325.73320,0.10904
2327.66167,0.10284
2329.59014,0.10058
2331.51861,0.09989
2333.44708,0.09833
2335.37555,0.09979
2337.30401,0.10400
2339.23248,0.11100
2341.16095,0.11965
2343.08942,0.12439
2345.01789,0.11881
2346.94636,0.10857
2348.87483,0.10361
2350.80330,0.10423
2352.73176,0.10506
2354.66023,0.10027
2356.58870,0.09984
2358.51717,0.11207
2360.44564,0.11914
2362.37411,0.11335
2364.30258,0.10317
2366.23104,0.09834
2368.15951,0.10345
2370.08798,0.10658
2372.01645,0.10295
2373.94492,0.10178
2375.87339,0.10442
2377.80186,0.10697
2379.73033,0.10866
2381.65879,0.11154
2383.58726,0.11595
2385.51573,0.11917
2387.44420,0.12046
2389.37267,0.11989
2391.30114,0.11716
2393.22961,0.11515
2395.15807,0.11570
2397.08654,0.11590
2399.01501,0.11440
2400.94348,0.11412
2402.87195,0.11604
2404.80042,0.11861
2406.72889,0.11959
2408.65736,0.11780
2410.58582,0.11529
2412.51429,0.11411
2414.44276,0.11480
2416.37123,0.11651
2418.29970,0.11784
2420.22817,0.11912
2422.15664,0.12011
2424.08510,0.11984
2426.01357,0.11911
2427.94204,0.11877
2429.87051,0.11824
2431.79898,0.11676
2433.72745,0.11564
2435.65592,0.11628
2437.58439,0.11736
2439.51285,0.11755
2441.44132,0.11669
2443.36979,0.11572
2445.29826,0.11552
2447.22673,0.11640
2449.15520,0.11837
2451.08367,0.11856
2453.01213,0.11570
2454.94060,0.11406
2456.86907,0.11619
2458.79754,0.11914
2460.72601,0.11989
2462.65448,0.11922
2464.58295,0.11826
2466.51142,0.11697
2468.43988,0.11632
2470.36835,0.11657
2472.29682,0.11673
2474.22529,0.11730
2476.15376,0.11827
2478.08223,0.11767
2480.01070,0.11548
2481.93916,0.11438
2483.86763,0.11544
2485.79610,0.11660
2487.72457,0.11630
2489.65304,0.11475
2491.58151,0.11289
2493.50998,0.11325
2495.43844,0.11568
2497.36691,0.11706
2499.29538,0.11761
2501.22385,0.11916
2503.15232,0.12111
2505.08079,0.12136
2507.00926,0.11919
2508.93773,0.11689
2510.86619,0.11615
2512.79466,0.11647
2514.72313,0.11584
2516.65160,0.11342
2518.58007,0.11220
2520.50854,0.11368
2522.43701,0.11550
2524.36547,0.11635
2526.29394,0.11740
2528.22241,0.11877
2530.15088,0.11908
2532.07935,0.11859
2534.00782,0.11857
2535.93629,0.11906
2537.86476,0.11938
2539.79322,0.11955
2541.72169,0.12030
2543.65016,0.12163
2545.57863,0.12185
2547.50710,0.12083
2549.43557,0.11983
2551.36404,0.11893
2553.29250,0.11922
2555.22097,0.11967
2557.14944,0.11851
2559.07791,0.11818
2561.00638,0.11897
2562.93485,0.11789
2564.86332,0.11578
2566.79179,0.11565
2568.72025,0.11727
2570.64872,0.11924
2572.57719,0.11973
2574.50566,0.11826
2576.43413,0.11794
2578.36260,0.11934
2580.29107,0.12029
2582.21953,0.12059
2584.14800,0.12075
2586.07647,0.12023
2588.00494,0.11886
2589.93341,0.11785
2591.86188,0.11798
2593.79035,0.11923
2595.71882,0.12091
2597.64728,0.12114
2599.57575,0.11963
2601.50422,0.11860
2603.43269,0.11947
2605.36116,0.12185
2607.28963,0.12375
2609.21810,0.12454
2611.14656,0.12658
2613.07503,0.12774
2615.00350,0.12498
2616.93197,0.12202
2618.86044,0.12094
2620.78891,0.11981
2622.71738,0.11941
2624.64585,0.12105
2626.57431,0.12187
2628.50278,0.11982
2630.43125,0.11753
2632.35972,0.11762
2634.28819,0.11876
2636.21666,0.11905
2638.14513,0.11999
2640.07359,0.12162
2642.00206,0.12237
2643.93053,0.12228
2645.85900,0.12174
2647.78747,0.12175
2649.71594,0.12204
2651.64441,0.12181
2653.57288,0.12235
2655.50134,0.12361
2657.42981,0.12396
2659.35828,0.12425
2661.28675,0.12466
2663.21522,0.12262
2665.14369,0.11995
2667.07216,0.12113
2669.00062,0.12403
2670.92909,0.12360
2672.85756,0.12174
2674.78603,0.12297
2676.71450,0.12567
2678.64297,0.12602
2680.57144,0.12410
2682.49990,0.12235
2684.42837,0.12225
2686.35684,0.12314
2688.28531,0.12295
2690.21378,0.12206
2692.14225,0.12205
2694.07072,0.12200
2695.99919,0.12118
2697.92765,0.11996
2699.85612,0.11991
2701.78459,0.12212
2703.71306,0.12396
2705.64153,0.12383
2707.57000,0.12306
2709.49847,0.12214
2711.42693,0.12124
2713.35540,0.12145
2715.28387,0.12219
2717.21234,0.12255
2719.14081,0.12321
2721.06928,0.12404
2722.99775,0.12476
2724.92622,0.12503
2726.85468,0.12478
2728.78315,0.12511
2730.71162,0.12682
2732.64009,0.12913
2734.56856,0.12951
2736.49703,0.12761
2738.42550,0.12625
2740.35396,0.12560
2742.28243,0.12366
2744.21090,0.12190
2746.13937,0.12266
2748.06784,0.12376
2749.99631,0.12329
2751.92478,0.12345
2753.85325,0.12512
2755.78171,0.12654
2757.71018,0.12749
2759.63865,0.12801
2761.56712,0.12794
2763.49559,0.12812
2765.42406,0.12786
2767.35253,0.12789
2769.28099,0.12829
2771.20946,0.12653
2773.13793,0.12509
2775.06640,0.12566
2776.99487,0.12462
2778.92334,0.12235
2780.85181,0.12262
2782.78028,0.12428
2784.70874,0.12427
2786.63721,0.12393
2788.56568,0.12464
2790.49415,0.12564
2792.42262,0.12615
2794.35109,0.12520
2796.27956,0.12352
2798.20802,0.12361
2800.13649,0.12516
2802.06496,0.12554
2803.99343,0.12469
2805.92190,0.12426
2807.85037,0.12498
2809.77884,0.12549
2811.70731,0.12433
2813.63577,0.12272
2815.56424,0.12287
2817.49271,0.12491
2819.42118,0.12710
2821.34965,0.12919
2823.27812,0.13016
2825.20659,0.12919
2827.13505,0.12918
2829.06352,0.13011
2830.99199,0.12934
2832.92046,0.12842
2834.84893,0.12922
2836.77740,0.13011
2838.70587,0.12956
2840.63433,0.12722
2842.56280,0.12455
2844.49127,0.12441
2846.41974,0.12543
2848.34821,0.12418
2850.27668,0.12211
2852.20515,0.12171
2854.13362,0.12319
2856.06208,0.12649
2857.99055,0.12838
2859.91902,0.12644
2861.84749,0.12450
2863.77596,0.12561
2865.70443,0.12779
2867.63290,0.12793
2869.56136,0.12698
2871.48983,0.12751
2873.41830,0.12815
2875.34677,0.12842
2877.27524,0.12979
2879.20371,0.13072
2881.13218,0.12933
2883.06065,0.12626
2884.98911,0.12378
2886.91758,0.12352
2888.84605,0.12465
2890.77452,0.12566
2892.70299,0.12592
2894.63146,0.12531
2896.55993,0.12480
2898.48839,0.12474
2900.41686,0.12436
2902.34533,0.12462
2904.27380,0.12543
2906.20227,0.12444
2908.13074,0.12320
2910.05921,0.12463
2911.98768,0.12623
2913.91614,0.12505
2915.84461,0.12312
2917.77308,0.12178
2919.70155,0.12080
2921.63002,0.12259
2923.55849,0.12564
2925.48696,0.12553
2927.41542,0.12320
2929.34389,0.12107
2931.27236,0.12077
2933.20083,0.12277
2935.12930,0.12365
2937.05777,0.12195
2938.98624,0.12170
2940.91471,0.12554
2942.84317,0.13041
2944.77164,0.13218
2946.70011,0.13126
2948.62858,0.13088
2950.55705,0.13172
2952.48552,0.13168
2954.41399,0.13000
2956.34245,0.12743
2958.27092,0.12464
2960.19939,0.12269
2962.12786,0.12190
2964.05633,0.12242
2965.98480,0.12476
2967.91327,0.12839
2969.84174,0.13186
2971.77020,0.13233
2973.69867,0.12966
2975.62714,0.12601
2977.55561,0.12287
2979.48408,0.12362
2981.41255,0.12856
2983.34102,0.13285
2985.26948,0.13273
2987.19795,0.12877
2989.12642,0.12528
2991.05489,0.12459
2992.98336,0.12539
2994.91183,0.12742
2996.84030,0.13041
2998.76877,0.13157
3000.69723,0.12966
3002.62570,0.12719
3004.55417,0.12611
3006.48264,0.12564
3008.41111,0.12667
3010.33958,0.12906
3012.26805,0.12625
3014.19651,0.11539
3016.12498,0.10599
3018.05345,0.10879
3019.98192,0.11959
3021.91039,0.12760
3023.83886,0.13056
3025.76733,0.13102
3027.69579,0.13103
3029.62426,0.13032
3031.55273,0.12915
3033.48120,0.12909
3035.40967,0.12901
3037.33814,0.12808
3039.26661,0.12780
3041.19508,0.12889
3043.12354,0.13067
3045.05201,0.13206
3046.98048,0.13183
3048.90895,0.13138
3050.83742,0.13080
3052.76589,0.12808
3054.69436,0.12587
3056.62282,0.12546
3058.55129,0.12538
3060.47976,0.12559
3062.40823,0.12597
3064.33670,0.12578
3066.26517,0.12389
3068.19364,0.12260
3070.12211,0.12522
3072.05057,0.12904
3073.97904,0.12828
3075.90751,0.12409
3077.83598,0.12249
3079.76445,0.12410
3081.69292,0.12609
3083.62139,0.12462
3085.54985,0.12015
3087.47832,0.11988
3089.40679,0.12499
3091.33526,0.12905
3093.26373,0.13003
3095.19220,0.13113
3097.12067,0.13166
3099.04914,0.13027
3100.97760,0.12874
3102.90607,0.12683
3104.83454,0.12780
3106.76301,0.13402
3108.69148,0.13759
3110.61995,0.13348
3112.54842,0.12811
3114.47688,0.12799
3116.40535,0.13254
3118.33382,0.13613
3120.26229,0.13416
3122.19076,0.12985
3124.11923,0.12876
3126.04770,0.13023
3127.97617,0.13096
3129.90463,0.13033
3131.83310,0.13018
3133.76157,0.13003
3135.69004,0.12903
3137.61851,0.12882
3139.54698,0.12895
3141.47545,0.12927
3143.40391,0.13044
3145.33238,0.13151
3147.26085,0.13245
3149.18932,0.13304
3151.11779,0.13243
3153.04626,0.12937
3154.97473,0.12566
3156.90320,0.12486
3158.83166,0.12460
3160.76013,0.12496
3162.68860,0.12937
3164.61707,0.13397
3166.54554,0.13524
3168.47401,0.13608
3170.40248,0.13805
3172.33094,0.13789
3174.25941,0.13512
3176.18788,0.13397
3178.11635,0.13516
3180.04482,0.13549
3181.97329,0.13377
3183.90176,0.13194
3185.83022,0.13171
3187.75869,0.13094
3189.68716,0.12974
3191.61563,0.13226
3193.54410,0.13625
3195.47257,0.13692
3197.40104,0.13523
3199.32951,0.13233
3201.25797,0.12907
3203.18644,0.12832
3205.11491,0.12865
3207.04338,0.12704
3208.97185,0.12547
3210.90032,0.12540
3212.82879,0.12709
3214.75725,0.12884
3216.68572,0.12668
3218.61419,0.12514
3220.54266,0.12859
3222.47113,0.13273
3224.39960,0.13557
3226.32807,0.13662
3228.25654,0.13512
3230.18500,0.13335
3232.11347,0.13288
3234.04194,0.13338
3235.97041,0.13343
3237.89888,0.13214
3239.82735,0.13101
3241.75582,0.13145
3243.68428,0.13316
3245.61275,0.13583
3247.54122,0.13829
3249.46969,0.13726
3251.39816,0.13295
3253.32663,0.13070
3255.25510,0.13250
3257.18357,0.13418
3259.11203,0.13296
3261.04050,0.13175
3262.96897,0.13191
3264.89744,0.13049
3266.82591,0.12816
3268.75438,0.12841
3270.68285,0.12990
3272.61131,0.12878
3274.53978,0.12581
3276.46825,0.12561
3278.39672,0.12872
3280.32519,0.13134
3282.25366,0.13276
3284.18213,0.13390
3286.11060,0.13375
3288.03906,0.13055
3289.96753,0.12631
3291.89600,0.12585
3293.82447,0.12784
3295.75294,0.12898
3297.68141,0.12822
3299.60988,0.12519
3301.53834,0.12427
3303.46681,0.12772
3305.39528,0.13089
3307.32375,0.13034
3309.25222,0.12803
3311.18069,0.12787
3313.10916,0.12851
3315.03763,0.12570
3316.96609,0.12297
3318.89456,0.12496
3320.82303,0.12873
3322.75150,0.13162
3324.67997,0.13282
3326.60844,0.13301
3328.53691,0.13445
3330.46537,0.13552
3332.39384,0.13598
3334.32231,0.13505
3336.25078,0.12985
3338.17925,0.12600
3340.10772,0.12751
3342.03619,0.12860
3343.96466,0.12794
3345.89312,0.12879
3347.82159,0.12974
3349.75006,0.12957
3351.67853,0.13014
3353.60700,0.13184
3355.53547,0.13413
3357.46394,0.13595
3359.39240,0.13594
3361.32087,0.13397
3363.24934,0.13239
3365.17781,0.13258
3367.10628,0.13321
3369.03475,0.13587
3370.96322,0.13875
3372.89168,0.13648
3374.82015,0.13211
3376.74862,0.13095
3378.67709,0.13109
3380.60556,0.13059
3382.53403,0.13267
3384.46250,0.13617
3386.39097,0.13625
3388.31943,0.13494
3390.24790,0.13503
3392.17637,0.13635
3394.10484,0.13884
3396.03331,0.13943
3397.96178,0.13556
3399.89025,0.13157
3401.81871,0.13236
3403.74718,0.13379
3405.67565,0.13038
3407.60412,0.12763
3409.53259,0.13110
3411.46106,0.13521
3413.38953,0.13459
3415.31800,0.13178
3417.24646,0.13012
3419.17493,0.12806
3421.10340,0.12517
3423.03187,0.12522
3424.96034,0.12860
3426.88881,0.13212
3428.81728,0.13413
3430.74574,0.13397
3432.67421,0.13113
3434.60268,0.12751
3436.53115,0.12576
3438.45962,0.12605
3440.38809,0.12650
3442.31656,0.12677
3444.24503,0.12810
3446.17349,0.12927
3448.10196,0.12825
3450.03043,0.12631
3451.95890,0.12623
3453.88737,0.12667
3455.81584,0.12586
3457.74431,0.12506
3459.67277,0.12464
3461.60124,0.12457
3463.52971,0.12387
3465.45818,0.12215
3467.38665,0.12084
3469.31512,0.12064
3471.24359,0.12103
3473.17206,0.11939
3475.10052,0.11558
3477.02899,0.11397
3478.95746,0.11661
3480.88593,0.12005
3482.81440,0.12074
3484.74287,0.11994
3486.67134,0.11822
3488.59980,0.11562
3490.52827,0.11512
3492.45674,0.11768
3494.38521,0.12003
3496.31368,0.11983
3498.24215,0.11972
3500.17062,0.12293
3502.09909,0.12680
3504.02755,0.12409
3505.95602,0.11768
3507.88449,0.11638
3509.81296,0.11816
3511.74143,0.11773
3513.66990,0.11625
3515.59837,0.11595
3517.52683,0.11483
3519.45530,0.11259
3521.38377,0.11295
3523.31224,0.11492
3525.24071,0.11532
3527.16918,0.11270
3529.09765,0.10832
3531.02611,0.10727
3532.95458,0.10876
3534.88305,0.10913
3536.81152,0.10909
3538.73999,0.10979
3540.66846,0.11063
3542.59693,0.11126
3544.52540,0.11255
3546.45386,0.11358
3548.38233,0.11110
3550.31080,0.10770
3552.23927,0.10685
3554.16774,0.10715
3556.09621,0.10662
3558.02468,0.10589
3559.95314,0.10918
3561.88161,0.11545
3563.81008,0.11796
3565.73855,0.11422
3567.66702,0.10477
3569.59549,0.09700
3571.52396,0.09585
3573.45243,0.09869
3575.38089,0.09999
3577.30936,0.09842
3579.23783,0.09640
3581.16630,0.09467
3583.09477,0.09688
3585.02324,0.10288
3586.95171,0.10522
3588.88017,0.10061
3590.80864,0.09630
3592.73711,0.09487
3594.66558,0.09655
3596.59405,0.10212
3598.52252,0.10574
3600.45099,0.10372
3602.37946,0.10127
3604.30792,0.10311
3606.23639,0.10843
3608.16486,0.11191
3610.09333,0.11002
3612.02180,0.10712
3613.95027,0.10631
3615.87874,0.10751
3617.80720,0.10940
3619.73567,0.10759
3621.66414,0.10142
3623.59261,0.09729
3625.52108,0.09848
3627.44955,0.10549
3629.37802,0.10862
3631.30649,0.10089
3633.23495,0.09336
3635.16342,0.08796
3637.09189,0.08655
3639.02036,0.08893
3640.94883,0.09107
3642.87730,0.09161
3644.80577,0.09177
3646.73423,0.09574
3648.66270,0.10827
3650.59117,0.11327
3652.51964,0.10434
3654.44811,0.09767
3656.37658,0.09543
3658.30505,0.09404
3660.23352,0.09274
3662.16198,0.09071
3664.09045,0.08932
3666.01892,0.09158
3667.94739,0.09908
3669.87586,0.10971
3671.80433,0.11439
3673.73280,0.11605
3675.66126,0.11341
3677.58973,0.10249
3679.51820,0.09449
3681.44667,0.09038
3683.37514,0.08800
3685.30361,0.08815
3687.23208,0.09230
3689.16055,0.09615
3691.08901,0.08997
3693.01748,0.08281
3694.94595,0.08305
3696.87442,0.08511
3698.80289,0.08504
3700.73136,0.08514
3702.65983,0.08525
3704.58829,0.08645
3706.51676,0.09162
3708.44523,0.09951
3710.37370,0.10436
3712.30217,0.09934
3714.23064,0.09152
3716.15911,0.08774
3718.08757,0.08557
3720.01604,0.08436
3721.94451,0.08507
3723.87298,0.08666
3725.80145,0.08967
3727.72992,0.09059
3729.65839,0.08845
3731.58686,0.08941
3733.51532,0.09533
3735.44379,0.09902
3737.37226,0.09546
3739.30073,0.09151
3741.22920,0.09134
3743.15767,0.09391
3745.08614,0.09706
3747.01460,0.09861
3748.94307,0.09949
3750.87154,0.09977
3752.80001,0.09708
3754.72848,0.09293
3756.65695,0.09093
3758.58542,0.09057
3760.51389,0.08850
3762.44235,0.08768
3764.37082,0.08892
3766.29929,0.08862
3768.22776,0.08807
3770.15623,0.08563
3772.08470,0.07895
3774.01317,0.07567
3775.94163,0.07872
3777.87010,0.08447
3779.79857,0.08747
3781.72704,0.08476
3783.65551,0.07967
3785.58398,0.07600
3787.51245,0.07441
3789.44092,0.07415
3791.36938,0.07587
3793.29785,0.07882
3795.22632,0.08101
3797.15479,0.08297
3799.08326,0.08811
3801.01173,0.09273
3802.94020,0.08950
3804.86866,0.08727
3806.79713,0.08701
3808.72560,0.08333
3810.65407,0.07955
3812.58254,0.07820
3814.51101,0.08057
3816.43948,0.08429
3818.36795,0.08526
3820.29641,0.08756
3822.22488,0.08804
3824.15335,0.08457
3826.08182,0.08212
3828.01029,0.08111
3829.93876,0.08199
3831.86723,0.08332
3833.79569,0.08367
3835.72416,0.08739
3837.65263,0.09490
3839.58110,0.09594
3841.50957,0.09023
3843.43804,0.08413
3845.36651,0.07977
3847.29498,0.07939
3849.22344,0.08155
3851.15191,0.08509
3853.08038,0.08969
3855.00885,0.08896
3856.93732,0.08579
3858.86579,0.08297
3860.79426,0.08229
3862.72272,0.08569
3864.65119,0.08808
3866.57966,0.08615
3868.50813,0.08444
3870.43660,0.08326
3872.36507,0.08196
3874.29354,0.08230
3876.22200,0.08070
3878.15047,0.07832
3880.07894,0.08088
3882.00741,0.08441
3883.93588,0.08214
3885.86435,0.07650
3887.79282,0.07281
3889.72129,0.07353
3891.64975,0.07689
3893.57822,0.07812
3895.50669,0.07880
3897.43516,0.08149
3899.36363,0.08401
3901.29210,0.08645
3903.22057,0.08934
3905.14903,0.08710
3907.07750,0.08008
3909.00597,0.07480
3910.93444,0.07202
3912.86291,0.06991
3914.79138,0.06999
3916.71985,0.07260
3918.64832,0.07424
3920.57678,0.07443
3922.50525,0.07495
3924.43372,0.07450
3926.36219,0.07297
3928.29066,0.07325
3930.21913,0.07453
3932.14760,0.07280
3934.07606,0.06801
3936.00453,0.06466
3937.93300,0.06427
3939.86147,0.06626
3941.78994,0.06805
3943.71841,0.06553
3945.64688,0.06254
3947.57535,0.06450
3949.50381,0.06989
3951.43228,0.07501
3953.36075,0.07714
3955.28922,0.07456
3957.21769,0.06989
3959.14616,0.06786
3961.07463,0.06825
3963.00309,0.06862
3964.93156,0.06727
3966.86003,0.06420
3968.78850,0.06187
3970.71697,0.06121
3972.64544,0.06271
3974.57391,0.06647
3976.50238,0.07000
3978.43084,0.07149
3980.35931,0.07090
3982.28778,0.06808
3984.21625,0.06329
3986.14472,0.06078
3988.07319,0.06143
3990.00166,0.06068
3991.93012,0.06106
3993.85859,0.06561
3995.78706,0.06877
3997.71553,0.06687
3999.64400,0.06520
4001.57247,0.06645
4003.50094,0.06616
4005.42941,0.06509
4007.35787,0.06645
4009.28634,0.06686
4011.21481,0.06327
4013.14328,0.06061
4015.07175,0.06101
4017.00022,0.05862
4018.92869,0.05536
4020.85715,0.05822
4022.78562,0.06299
4024.71409,0.06373
4026.64256,0.06378
4028.57103,0.06482
4030.49950,0.06448
4032.42797,0.06213
4034.35644,0.05663
4036.28490,0.05204
4038.21337,0.05472
4040.14184,0.06020
4042.07031,0.06027
4043.99878,0.05756
4045.92725,0.06006
4047.85572,0.06702
4049.78418,0.06996
4051.71265,0.06709
4053.64112,0.06461
4055.56959,0.06408
4057.49806,0.06293
4059.42653,0.06102
4061.35500,0.06103
4063.28346,0.06392
4065.21193,0.06517
4067.14040,0.06258
4069.06887,0.05975
4070.99734,0.05942
4072.92581,0.05995
4074.85428,0.05885
4076.78275,0.05708
4078.71121,0.05533
4080.63968,0.05297
4082.56815,0.05258
4084.49662,0.05647
4086.42509,0.06153
4088.35356,0.06350
4090.28203,0.06270
4092.21049,0.06167
4094.13896,0.06040
4096.06743,0.05859
4097.99590,0.05558
4099.92437,0.05156
4101.85284,0.05032
4103.78131,0.05086
4105.70978,0.05031
4107.63824,0.05018
4109.56671,0.05109
4111.49518,0.05511
4113.42365,0.06193
4115.35212,0.06523
4117.28059,0.06266
4119.20906,0.05952
4121.13752,0.05916
4123.06599,0.05745
4124.99446,0.05385
4126.92293,0.05293
4128.85140,0.05449
4130.77987,0.05605
4132.70834,0.05665
4134.63681,0.05643
4136.56527,0.05536
4138.49374,0.05375
4140.42221,0.05392
4142.35068,0.05436
4144.27915,0.05219
4146.20762,0.05200
4148.13609,0.05676
4150.06455,0.06009
4151.99302,0.05806
4153.92149,0.05678
4155.84996,0.06001
4157.77843,0.06274
4159.70690,0.06313
4161.63537,0.06116
4163.56384,0.05502
4165.49230,0.04996
4167.42077,0.05039
4169.34924,0.05128
4171.27771,0.04849
4173.20618,0.04531
4175.13465,0.04588
4177.06312,0.04864
4178.99158,0.04980
4180.92005,0.04933
4182.84852,0.04830
4184.77699,0.04654
4186.70546,0.04528
4188.63393,0.04545
4190.56240,0.04623
4192.49087,0.04637
4194.41933,0.04778
4196.34780,0.05227
4198.27627,0.05324
4200.20474,0.04748
4202.13321,0.04310
4204.06168,0.04546
4205.99015,0.05037
4207.91861,0.04969
4209.84708,0.04463
4211.77555,0.04280
4213.70402,0.04432
4215.63249,0.04609
4217.56096,0.04584
4219.48943,0.04477
4221.41789,0.04609
4223.34636,0.04619
4225.27483,0.04305
4227.20330,0.03975
4229.13177,0.03644
4231.06024,0.03591
4232.98871,0.04104
4234.91718,0.04728
4236.84564,0.04935
4238.77411,0.04741
4240.70258,0.04344
4242.63105,0.04005
4244.55952,0.04073
4246.48799,0.04314
4248.41646,0.04310
4250.34492,0.04174
4252.27339,0.04015
4254.20186,0.03854
4256.13033,0.03626
4258.05880,0.03490
4259.98727,0.03647
4261.91574,0.03662
4263.84421,0.03618
4265.77267,0.03809
4267.70114,0.03724
4269.62961,0.03337
4271.55808,0.03190
4273.48655,0.03479
4275.41502,0.03822
4277.34349,0.03697
4279.27195,0.03598
4281.20042,0.04056
4283.12889,0.04221
4285.05736,0.03644
4286.98583,0.03175
4288.91430,0.03159
4290.84277,0.03213
4292.77124,0.03248
4294.69970,0.03474
4296.62817,0.03884
4298.55664,0.04100
4300.48511,0.03968
4302.41358,0.03689
4304.34205,0.03554
4306.27052,0.03794
4308.19898,0.03999
4310.12745,0.03582
4312.05592,0.02844
4313.98439,0.02405
4315.91286,0.02362
4317.84133,0.02528
4319.76980,0.02943
4321.69827,0.03513
4323.62673,0.03683
4325.55520,0.03451
4327.48367,0.03401
4329.41214,0.03489
4331.34061,0.03506
4333.26908,0.03348
4335.19755,0.02751
4337.12601,0.02230
4339.05448,0.02192
4340.98295,0.02036
4342.91142,0.01768
4344.83989,0.01815
4346.76836,0.02033
4348.69683,0.02236
4350.62530,0.02224
4352.55376,0.01980
4354.48223,0.01825
4356.41070,0.01770
4358.33917,0.01766
4360.26764,0.02064
4362.19611,0.02548
4364.12458,0.02623
4366.05304,0.02027
4367.98151,0.01315
4369.90998,0.01184
4371.83845,0.01442
4373.76692,0.01613
4375.69539,0.01613
4377.62386,0.01532
4379.55232,0.01890
4381.48079,0.02469
4383.40926,0.02361
4385.33773,0.01871
4387.26620,0.01765
4389.19467,0.01969
4391.12314,0.01919
4393.05161,0.01707
4394.98007,0.01801
4396.90854,0.01965
4398.83701,0.01893
4400.76548,0.01764
4402.69395,0.01809
4404.62242,0.01791
4406.55089,0.01526
4408.47935,0.01397
4410.40782,0.01741
4412.33629,0.02266
4414.26476,0.02543
4416.19323,0.02520
4418.12170,0.01987
4420.05017,0.01301
4421.97864,0.01117
4423.90710,0.01299
4425.83557,0.01543
4427.76404,0.01457
4429.69251,0.01269
4431.62098,0.01562
4433.54945,0.01845
4435.47792,0.01741
4437.40638,0.01802
4439.33485,0.01957
4441.26332,0.01717
4443.19179,0.01752
4445.12026,0.02416
4447.04873,0.02723
4448.97720,0.02234
4450.90567,0.01526
4452.83413,0.01180
4454.76260,0.01248
4456.69107,0.01225
4458.61954,0.01041
4460.54801,0.01262
4462.47648,0.01722
4464.40495,0.01809
4466.33341,0.01405
4468.26188,0.01097
4470.19035,0.01217
4472.11882,0.01276
4474.04729,0.01576
4475.97576,0.02175
4477.90423,0.02319
4479.83270,0.01961
4481.76116,0.01077
4483.68963,0.00128
4485.61810,0.00097
4487.54657,0.00697
4489.47504,0.01179
4491.40351,0.01639
4493.33198,0.02085
4495.26044,0.02106
4497.18891,0.01496
4499.11738,0.00884
4501.04585,0.01030
4502.97432,0.01315
4504.90279,0.01172
4506.83126,0.00864
4508.75973,0.00620
4510.68819,0.00534
4512.61666,0.00533
4514.54513,0.00733
4516.47360,0.00785
4518.40207,0.00360
4520.33054,0.00208
4522.25901,0.00651
4524.18747,0.01216
4526.11594,0.01654
4528.04441,0.01809
4529.97288,0.01440
4531.90135,0.00711
4533.82982,0.00207
4535.75829,0.00119
4537.68676,0.00028
4539.61522,-0.00210
4541.54369,-0.00583
4543.47216,-0.00900
4545.40063,-0.00547
4547.32910,0.00119
4549.25757,0.00366
4551.18604,0.00143
4553.11450,-0.00165
4555.04297,0.00139
4556.97144,0.00756
4558.89991,0.00790
4560.82838,0.00400
4562.75685,0.00200
4564.68532,0.00187
4566.61378,0.00077
4568.54225,0.00041
4570.47072,0.00321
4572.39919,0.00584
4574.32766,0.00294
4576.25613,-0.00306
4578.18460,-0.00676
4580.11307,-0.00846
4582.04153,-0.00759
4583.97000,-0.00212
4585.89847,0.00286
4587.82694,0.00054
4589.75541,-0.00518
4591.68388,-0.00562
4593.61235,0.00223
4595.54081,0.01336
4597.46928,0.01836
4599.39775,0.01529
4601.32622,0.01172
4603.25469,0.01103
4605.18316,0.00874
4607.11163,0.00387
4609.04010,0.00123
4610.96856,0.00335
4612.89703,0.00519
4614.82550,0.00099
4616.75397,-0.00083
4618.68244,0.00392
4620.61091,0.00487
4622.53938,0.00370
4624.46784,0.00485
4626.39631,0.00381
4628.32478,0.00227
4630.25325,0.00166
4632.18172,-0.00141
4634.11019,-0.00523
4636.03866,-0.00436
4637.96713,0.00207
4639.89559,0.00677
4641.82406,0.00141
4643.75253,-0.00775
4645.68100,-0.00809
4647.60947,-0.00229
4649.53794,-0.00285
4651.46641,-0.00840
4653.39487,-0.00429
4655.32334,0.00759
4657.25181,0.01262
4659.18028,0.01045
4661.10875,0.00682
4663.03722,0.00519
4664.96569,0.00730
4666.89416,0.01078
4668.82262,0.01519
4670.75109,0.01845
4672.67956,0.01298
4674.60803,0.00092
4676.53650,-0.00468
4678.46497,0.00206
4680.39344,0.01294
4682.32190,0.01450
4684.25037,0.00734
4686.17884,0.00357
4688.10731,0.00558
4690.03578,0.00951
4691.96425,0.01087
4693.89272,0.00524
4695.82119,-0.00303
4697.74965,-0.00602
4699.67812,-0.00406
4701.60659,-0.00105
4703.53506,0.00104
4705.46353,0.00146
4707.39200,0.00234
4709.32047,0.00492
4711.24893,0.00744
4713.17740,0.00769
4715.10587,0.00435
4717.03434,-0.00150
4718.96281,-0.00549
4720.89128,-0.00685
4722.81975,-0.00770
4724.74821,-0.00380
4726.67668,0.00439
4728.60515,0.00876
4730.53362,0.00561
4732.46209,-0.00111
4734.39056,-0.00284
4736.31903,-0.00001
4738.24750,0.00043
4740.17596,-0.00043
4742.10443,0.00389
4744.03290,0.01156
4745.96137,0.01337
4747.88984,0.00610
4749.81831,-0.00221
4751.74678,-0.00360
4753.67524,-0.00360
4755.60371,-0.00338
4757.53218,0.00423
4759.46065,0.01248
4761.38912,0.01351
4763.31759,0.01448
4765.24606,0.02000
4767.17453,0.02302
4769.10299,0.01984
4771.03146,0.01518
4772.95993,0.00960
4774.88840,0.00294
4776.81687,0.00222
4778.74534,0.00505
4780.67381,0.00152
4782.60227,-0.00262
4784.53074,-0.00039
4786.45921,0.00047
4788.38768,-0.00385
4790.31615,-0.00354
4792.24462,-0.00041
4794.17309,-0.00200
4796.10156,-0.00270
4798.03002,-0.00231
4799.95849,-0.00509
4801.88696,-0.00552
4803.81543,-0.00090
4805.74390,0.00502
4807.67237,0.01050
4809.60084,0.01494
4811.52930,0.01404
4813.45777,0.00830
4815.38624,0.00734
4817.31471,0.01313
4819.24318,0.01654
4821.17165,0.01186
4823.10012,0.00343
4825.02859,-0.00229
4826.95705,-0.00376
4828.88552,-0.00461
4830.81399,-0.00750
4832.74246,-0.00538
4834.67093,-0.00073
4836.59940,-0.00328
4838.52787,-0.00570
4840.45633,-0.00109
4842.38480,0.00702
4844.31327,0.01217
4846.24174,0.01062
4848.17021,0.00882
4850.09868,0.00804
4852.02715,0.00060
4853.95562,-0.00622
4855.88408,0.00035
4857.81255,0.00912
4859.74102,0.00689
4861.66949,0.00377
4863.59796,0.00442
4865.52643,0.00404
4867.45490,0.00620
4869.38336,0.01139
4871.31183,0.01090
4873.24030,0.00491
4875.16877,0.00395
4877.09724,0.00311
4879.02571,-0.00163
4880.95418,0.00070
4882.88265,0.00594
4884.81111,0.00028
4886.73958,-0.00677
4888.66805,-0.00145
4890.59652,0.00276
4892.52499,0.00056
4894.45346,0.00532
4896.38193,0.01087
4898.31039,0.00574
4900.23886,-0.00451
4902.16733,-0.00911
4904.09580,-0.00510
4906.02427,0.00038
4907.95274,0.00167
4909.88121,0.00188
4911.80967,0.00750
4913.73814,0.01134
4915.66661,0.00466
4917.59508,-0.00088
4919.52355,0.00344
4921.45202,0.00498
4923.38049,0.00188
4925.30896,0.00349
4927.23742,0.00710
4929.16589,0.01082
4931.09436,0.01392
4933.02283,0.01428
4934.95130,0.01392
4936.87977,0.01074
4938.80824,0.00632
4940.73670,0.00500
4942.66517,0.00394
4944.59364,0.00194
4946.52211,-0.00290
4948.45058,-0.01314
4950.37905,-0.01816
4952.30752,-0.00905
4954.23599,0.00497
4956.16445,0.01283
4958.09292,0.01598
4960.02139,0.01483
4961.94986,0.00626
4963.87833,-0.00291
4965.80680,-0.00684
4967.73527,-0.00578
4969.66373,-0.00385
4971.59220,-0.00682
4973.52067,-0.00756
4975.44914,-0.00441
4977.37761,-0.00748
4979.30608,-0.01400
4981.23455,-0.01516
4983.16302,-0.00960
4985.09148,0.00379
4987.01995,0.01774
4988.94842,0.02028
4990.87689,0.01592
4992.80536,0.01384
4994.73383,0.01270
4996.66230,0.01098
4998.59076,0.01096
5000.51923,0.01220
5002.44770,0.01425
5004.37617,0.01305
5006.30464,0.00437
5008.23311,-0.00352
5010.16158,-0.00142
5012.09005,0.00887
5014.01851,0.01708
5015.94698,0.01627
5017.87545,0.01189
5019.80392,0.01092
5021.73239,0.01117
5023.66086,0.01232
5025.58933,0.01683
5027.51779,0.02226
5029.44626,0.02605
5031.37473,0.02174
5033.30320,0.01220
5035.23167,0.00873
5037.16014,0.00982
5039.08861,0.01296
5041.01708,0.01989
5042.94554,0.02520
5044.87401,0.01912
5046.80248,0.00532
5048.73095,-0.00418
5050.65942,-0.00871
5052.58789,-0.01395
5054.51636,-0.01592
5056.44482,-0.00883
5058.37329,-0.00038
5060.30176,0.00485
5062.23023,0.00773
5064.15870,0.00850
5066.08717,0.00708
5068.01564,0.00275
5069.94410,0.00118
5071.87257,0.00150
5073.80104,-0.00365
5075.72951,-0.01287
5077.65798,-0.01729
5079.58645,-0.01373
5081.51492,-0.00181
5083.44339,0.01710
5085.37185,0.02692
5087.30032,0.02071
5089.22879,0.01637
5091.15726,0.02172
5093.08573,0.02512
5095.01420,0.02103
5096.94267,0.01283
5098.87113,0.00621
5100.79960,0.00042
5102.72807,-0.00297
5104.65654,0.00597
5106.58501,0.01895
5108.51348,0.02360
5110.44195,0.02035
5112.37042,0.01081
5114.29888,0.00098
5116.22735,-0.00446
5118.15582,-0.00340
5120.08429,0.00596
5122.01276,0.01423
5123.94123,0.01535
5125.86970,0.01866
5127.79816,0.02051
5129.72663,0.01268
5131.65510,0.00218
5133.58357,-0.00211
5135.51204,0.00755
5137.44051,0.02391
5139.36898,0.03224
5141.29745,0.03070
5143.22591,0.02412
5145.15438,0.01912
5147.08285,0.01971
5149.01132,0.02467
5150.93979,0.02771
5152.86826,0.02552
5154.79673,0.02412
5156.72519,0.02495
5158.65366,0.02701
5160.58213,0.03308
5162.51060,0.03378
5164.43907,0.02301
5166.36754,0.01650
5168.29601,0.02004
5170.22448,0.02390
5172.15294,0.02643
5174.08141,0.02722
5176.00988,0.02261
5177.93835,0.01837
5179.86682,0.02196
5181.79529,0.02689
5183.72376,0.02262
5185.65222,0.01310
5187.58069,0.00208
5189.50916,-0.00865
5191.43763,-0.01019
5193.36610,-0.00560
5195.29457,-0.00182
5197.22304,0.00327
5199.15151,0.01491
5201.07997,0.02856
5203.00844,0.03565
5204.93691,0.03905
5206.86538,0.03183
5208.79385,0.00567
5210.72232,-0.01098
5212.65079,0.00278
5214.57925,0.02246
5216.50772,0.02774
5218.43619,0.02530
5220.36466,0.01793
5222.29313,0.01640
5224.22160,0.02648
5226.15007,0.02793
5228.07854,0.01222
5230.00700,0.00199
5231.93547,0.00539
5233.86394,0.01384
5235.79241,0.03064
5237.72088,0.04910
5239.64935,0.05348
5241.57782,0.04417
5243.50628,0.03164
5245.43475,0.03057
5247.36322,0.04226
5249.29169,0.04504
5251.22016,0.03042
5253.14863,0.01441
5255.07710,0.00523
5257.00556,0.00701
5258.93403,0.01905
5260.86250,0.03204
5262.79097,0.03864
5264.71944,0.03457
5266.64791,0.02153
5268.57638,0.00737
5270.50485,0.00206
5272.43331,0.01028
5274.36178,0.02743
5276.29025,0.04286
5278.21872,0.04853
5280.14719,0.04654
5282.07566,0.04175
5284.00413,0.03916
5285.93259,0.03603
5287.86106,0.02673
5289.78953,0.01503
5291.71800,0.00715
5293.64647,0.00653
5295.57494,0.00512
5297.50341,-0.00179
5299.43188,0.00178
5301.36034,0.02226
5303.28881,0.04221
5305.21728,0.04843
5307.14575,0.04271
5309.07422,0.03848
5311.00269,0.03888
5312.93116,0.03219
5314.85962,0.01640
5316.78809,0.00076
5318.71656,0.00180
5320.64503,0.01961
5322.57350,0.03724
5324.50197,0.04731
5326.43044,0.04371
5328.35891,0.02986
5330.28737,0.02323
5332.21584,0.03106
5334.14431,0.04070
5336.07278,0.03241
5338.00125,0.02744
5339.92972,0.04402
5341.85819,0.04865
5343.78665,0.04332
5345.71512,0.04857
5347.64359,0.04452
5349.57206,0.03064
5351.50053,0.02977
5353.42900,0.03784
5355.35747,0.03691
5357.28594,0.03094
5359.21440,0.03018
5361.14287,0.03788
5363.07134,0.04856
5364.99981,0.05330
5366.92828,0.04861
5368.85675,0.03931
5370.78522,0.03476
5372.71368,0.03956
5374.64215,0.05162
5376.57062,0.06309
5378.49909,0.06424
5380.42756,0.05758
5382.35603,0.04705
5384.28450,0.02488
5386.21297,0.00193
5388.14143,0.00616
5390.06990,0.02300
5391.99837,0.03117
5393.92684,0.03718
5395.85531,0.04690
5397.78378,0.04509
5399.71225,0.03246
5401.64071,0.02362
5403.56918,0.01713
5405.49765,0.01335
5407.42612,0.01978
5409.35459,0.03661
5411.28306,0.04935
5413.21153,0.04366
5415.13999,0.03388
5417.06846,0.02907
5418.99693,0.02996
5420.92540,0.04363
5422.85387,0.05333
5424.78234,0.04295
5426.71081,0.03384
5428.63928,0.03985
5430.56774,0.04382
5432.49621,0.03531
5434.42468,0.02235
5436.35315,0.02155
5438.28162,0.02577
5440.21009,0.02559
5442.13856,0.02538
5444.06702,0.02411
5445.99549,0.03039
5447.92396,0.03912
5449.85243,0.03363
5451.78090,0.02899
5453.70937,0.03059
5455.63784,0.02307
5457.56631,0.01787
5459.49477,0.03061
5461.42324,0.04363
5463.35171,0.04518
5465.28018,0.04258
5467.20865,0.05186
5469.13712,0.06766
5471.06559,0.06064
5472.99405,0.03356
5474.92252,0.01069
5476.85099,0.01068
5478.77946,0.02514
5480.70793,0.03755
5482.63640,0.04386
5484.56487,0.03900
5486.49334,0.03007
5488.42180,0.02888
5490.35027,0.03426
5492.27874,0.04181
5494.20721,0.04522
5496.13568,0.04410
5498.06415,0.04460
5499.99262,0.05636
5501.92108,0.07869
5503.84955,0.09091
5505.77802,0.08629
5507.70649,0.07728
5509.63496,0.06727
5511.56343,0.05851
5513.49190,0.05485
5515.42037,0.04712
5517.34883,0.03369
5519.27730,0.02158
5521.20577,0.02089
5523.13424,0.04205
5525.06271,0.06451
5526.99118,0.06231
5528.91965,0.05180
5530.84811,0.05387
5532.77658,0.05627
5534.70505,0.05296
5536.63352,0.05161
5538.56199,0.05484
5540.49046,0.05642
5542.41893,0.04387
5544.34740,0.02989
5546.27586,0.02750
5548.20433,0.02693
5550.13280,0.02166
5552.06127,0.01718
5553.98974,0.02834
5555.91821,0.04611
5557.84668,0.05006
5559.77514,0.04578
5561.70361,0.04097
5563.63208,0.04312
5565.56055,0.06214
5567.48902,0.07364
5569.41749,0.05256
5571.34596,0.02717
5573.27443,0.02976
5575.20289,0.05406
5577.13136,0.07106
5579.05983,0.05991
5580.98830,0.02708
5582.91677,0.00565
5584.84524,0.00889
5586.77371,0.01933
5588.70217,0.03654
5590.63064,0.06757
5592.55911,0.09094
5594.48758,0.08318
5596.41605,0.05896
5598.34452,0.05359
5600.27299,0.06928
5602.20145,0.07927
5604.12992,0.07635
5606.05839,0.06961
5607.98686,0.06329
5609.91533,0.06672
5611.84380,0.06860
5613.77227,0.05590
5615.70074,0.05419
5617.62920,0.05658
5619.55767,0.03873
5621.48614,0.02295
5623.41461,0.03762
5625.34308,0.07238
5627.27155,0.08995
5629.20002,0.08032
5631.12848,0.06275
5633.05695,0.05303
5634.98542,0.05812
5636.91389,0.06735
5638.84236,0.07088
5640.77083,0.06529
5642.69930,0.04703
5644.62777,0.02587
5646.55623,0.01240
5648.48470,0.00672
5650.41317,0.01015
5652.34164,0.02029
5654.27011,0.03258
5656.19858,0.04939
5658.12705,0.06494
5660.05551,0.05834
5661.98398,0.03256
5663.91245,0.02348
5665.84092,0.02903
5667.76939,0.02533
5669.69786,0.01927
5671.62633,0.02286
5673.55480,0.03679
5675.48326,0.04956
5677.41173,0.04998
5679.34020,0.04730
5681.26867,0.05517
5683.19714,0.05947
5685.12561,0.04983
5687.05408,0.05270
5688.98254,0.07236
5690.91101,0.07921
5692.83948,0.06805
5694.76795,0.05731
5696.69642,0.04768
5698.62489,0.03574
5700.55336,0.03348
5702.48183,0.02964
5704.41029,0.01708
5706.33876,0.01628
5708.26723,0.03506
5710.19570,0.05568
5712.12417,0.05877
5714.05264,0.04355
5715.98111,0.02584
5717.90957,0.02795
5719.83804,0.04925
5721.76651,0.06991
5723.69498,0.07850
5725.62345,0.07005
5727.55192,0.05768
5729.48039,0.06410
5731.40886,0.08310
5733.33732,0.09158
5735.26579,0.08947
5737.19426,0.09332
5739.12273,0.10043
5741.05120,0.08984
5742.97967,0.06072
5744.90814,0.04428
5746.83660,0.04949
5748.76507,0.05447
5750.69354,0.06199
5752.62201,0.07741
5754.55048,0.07453
5756.47895,0.05629
5758.40742,0.05206
5760.33588,0.04874
5762.26435,0.02499
5764.19282,0.01413
5766.12129,0.03109
5768.04976,0.04553
5769.97823,0.05317
5771.90670,0.05084
5773.83517,0.04174
5775.76363,0.05045
5777.69210,0.06217
5779.62057,0.05575
5781.54904,0.05841
5783.47751,0.08174
5785.40598,0.08056
5787.33445,0.03405
5789.26291,0.00484
5791.19138,0.02537
5793.11985,0.04584
5795.04832,0.04759
5796.97679,0.05170
5798.90526,0.05733
5800.83373,0.06232
5802.76220,0.07562
5804.69066,0.08767
5806.61913,0.08573
5808.54760,0.09102
5810.47607,0.10694
5812.40454,0.09629
5814.33301,0.06197
5816.26148,0.04102
5818.18994,0.02849
5820.11841,0.01157
5822.04688,0.00898
5823.97535,0.02574
5825.90382,0.03813
5827.83229,0.03611
5829.76076,0.03880
5831.68923,0.04088
5833.61769,0.03730
5835.54616,0.05006
5837.47463,0.06236
5839.40310,0.06123
5841.33157,0.05493
5843.26004,0.04894
5845.18851,0.06125
5847.11697,0.07957
5849.04544,0.07739
5850.97391,0.06867
5852.90238,0.07136
5854.83085,0.07635
5856.75932,0.08285
5858.68779,0.09277
5860.61626,0.09043
5862.54472,0.07810
5864.47319,0.07255
5866.40166,0.06963
5868.33013,0.06432
5870.25860,0.05785
5872.18707,0.04271
5874.11554,0.01759
5876.04400,-0.01160
5877.97247,-0.03031
5879.90094,-0.02137
5881.82941,0.00891
5883.75788,0.04397
5885.68635,0.06408
5887.61482,0.06781
5889.54329,0.06883
5891.47175,0.05430
5893.40022,0.03311
5895.32869,0.02512
5897.25716,0.01007
5899.18563,-0.02306
5901.11410,-0.04795
5903.04257,-0.02522
5904.97103,0.02932
5906.89950,0.04977
5908.82797,0.03799
5910.75644,0.03452
5912.68491,0.02156
5914.61338,-0.00343
5916.54185,0.00078
5918.47032,0.02483
5920.39878,0.02869
5922.32725,0.02322
5924.25572,0.02601
5926.18419,0.02416
5928.11266,0.02618
5930.04113,0.04049
5931.96960,0.04624
5933.89806,0.04321
5935.82653,0.04990
5937.75500,0.06472
5939.68347,0.06692
5941.61194,0.04341
5943.54041,0.02538
5945.46888,0.04204
5947.39734,0.05821
5949.32581,0.05043
5951.25428,0.06106
5953.18275,0.08387
5955.11122,0.07460
5957.03969,0.06896
5958.96816,0.07938
5960.89663,0.06017
5962.82509,0.03597
5964.75356,0.04990
5966.68203,0.07861
5968.61050,0.08247
5970.53897,0.06476
5972.46744,0.04743
5974.39591,0.04889
5976.32437,0.06650
5978.25284,0.06379
5980.18131,0.03783
5982.10978,0.03846
5984.03825,0.07229
5985.96672,0.08959
5987.89519,0.09449
5989.82366,0.11517
5991.75212,0.12114
5993.68059,0.08698
5995.60906,0.04460
5997.53753,0.03331
5999.46600,0.04967
6001.39447,0.06950
6003.32294,0.06491
6005.25140,0.04557
6007.17987,0.05334
6009.10834,0.07767
6011.03681,0.08034
6012.96528,0.07508
6014.89375,0.08196
6016.82222,0.07579
6018.75069,0.04639
6020.67915,0.02694
6022.60762,0.03258
6024.53609,0.03899
6026.46456,0.03642
6028.39303,0.03103
6030.32150,0.02508
6032.24997,0.03555
6034.17843,0.04972
6036.10690,0.03620
6038.03537,0.02137
6039.96384,0.04356
6041.89231,0.07757
6043.82078,0.08734
6045.74925,0.08489
6047.67772,0.08847
6049.60618,0.09033
6051.53465,0.07856
6053.46312,0.07021
6055.39159,0.06127
6057.32006,0.02680
6059.24853,0.00201
6061.17700,0.00962
6063.10546,0.00861
6065.03393,-0.01682
6066.96240,-0.02227
6068.89087,0.00721
6070.81934,0.03827
6072.74781,0.05661
6074.67628,0.07358
6076.60475,0.08634
6078.53321,0.07956
6080.46168,0.07008
6082.39015,0.08877
6084.31862,0.12305
6086.24709,0.12060
6088.17556,0.06955
6090.10403,0.03028
6092.03249,0.03018
6093.96096,0.05363
6095.88943,0.08212
6097.81790,0.08883
6099.74637,0.07313
6101.67484,0.05239
6103.60331,0.02802
6105.53177,0.01758
6107.46024,0.03522
6109.38871,0.05076
6111.31718,0.05680
6113.24565,0.08359
6115.17412,0.11027
6117.10259,0.10412
6119.03106,0.08386
6120.95952,0.06363
6122.88799,0.05529
6124.81646,0.08859
6126.74493,0.11945
6128.67340,0.09544
6130.60187,0.06396
6132.53034,0.05603
6134.45880,0.05872
6136.38727,0.07113
6138.31574,0.08987
6140.24421,0.10518
6142.17268,0.10413
6144.10115,0.09504
6146.02962,0.11569
6147.95809,0.16685
6149.88655,0.18090
6151.81502,0.11890
6153.74349,0.04069
6155.67196,0.00628
6157.60043,0.02682
6159.52890,0.09270
6161.45737,0.15481
6163.38583,0.16227
6165.31430,0.13551
6167.24277,0.09346
6169.17124,0.03776
6171.09971,0.02644
6173.02818,0.06240
6174.95665,0.07064
6176.88512,0.03553
6178.81358,0.02063
6180.74205,0.06190
6182.67052,0.09979
6184.59899,0.09474
6186.52746,0.06976
6188.45593,0.03823
6190.38440,0.00465
6192.31286,0.00045
6194.24133,0.02156
6196.16980,0.02136
6198.09827,0.01091
6200.02674,0.01960
6201.95521,0.02882
6203.88368,0.00546
6205.81215,-0.02993
6207.74061,-0.01790
6209.66908,0.02370
6211.59755,0.02374
6213.52602,0.00284
6215.45449,0.01814
6217.38296,0.05490
6219.31143,0.07663
6221.23989,0.06760
6223.16836,0.03738
6225.09683,0.01964
6227.02530,0.01855
6228.95377,0.02121
6230.88224,0.02087
6232.81071,0.00893
6234.73918,0.00025
6236.66764,0.00899
6238.59611,0.02511
6240.52458,0.04086
6242.45305,0.05292
6244.38152,0.05849
6246.30999,0.06011
6248.23846,0.06343
6250.16692,0.06436
6252.09539,0.03193
6254.02386,-0.02859
6255.95233,-0.06083
6257.88080,-0.03756
6259.80927,0.02215
6261.73774,0.08364
6263.66621,0.10855
6265.59467,0.07828
6267.52314,0.02356
6269.45161,-0.00089
6271.38008,0.02636
6273.30855,0.06988
6275.23702,0.05144
6277.16549,-0.00643
6279.09395,-0.01594
6281.02242,-0.00870
6282.95089,-0.01235
6284.87936,0.02088
6286.80783,0.07570
6288.73630,0.08728
6290.66477,0.03945
6292.59323,-0.00812
6294.52170,0.00219
6296.45017,0.04774
6298.37864,0.06173
6300.30711,0.02850
6302.23558,0.00336
6304.16405,0.02478
6306.09252,0.04670
6308.02098,0.03936
6309.94945,0.02911
6311.87792,0.01027
6313.80639,-0.02571
6315.73486,-0.04161
6317.66333,-0.01797
6319.59180,0.00918
6321.52026,-0.00708
6323.44873,-0.02653
6325.37720,0.02237
6327.30567,0.09978
6329.23414,0.10710
6331.16261,0.03973
6333.09108,-0.01908
6335.01955,-0.04268
6336.94801,-0.05098
6338.87648,-0.03724
6340.80495,-0.00912
6342.73342,0.00852
6344.66189,0.00601
6346.59036,-0.00367
6348.51883,0.00296
6350.44729,0.00235
6352.37576,-0.00033
6354.30423,0.02110
6356.23270,0.01623
6358.16117,-0.02097
6360.08964,-0.01385
6362.01811,0.05256
6363.94658,0.11438
6365.87504,0.12907
6367.80351,0.10300
6369.73198,0.07018
6371.66045,0.04786
6373.58892,0.02043
6375.51739,-0.00499
6377.44586,-0.00809
6379.37432,0.00802
6381.30279,0.02599
6383.23126,0.02783
6385.15973,0.02386
6387.08820,0.03528
6389.01667,0.06427
6390.94514,0.09187
6392.87361,0.09930
6394.80207,0.10375
6396.73054,0.11351
6398.65901,0.11566
6400.58748,0.10855
6402.51595,0.08349
6404.44442,0.02688
6406.37289,-0.02907
6408.30135,-0.02678
6410.22982,0.02167
6412.15829,0.03480
6414.08676,0.01397
6416.01523,0.04395
6417.94370,0.10190
6419.87217,0.09333
6421.80064,0.03421
6423.72910,-0.00072
6425.65757,0.01776
6427.58604,0.04350
6429.51451,0.03310
6431.44298,0.02310
6433.37145,0.07116
6435.29992,0.11323
6437.22838,0.06571
6439.15685,0.01716
6441.08532,0.05455
6443.01379,0.09206
6444.94226,0.06843
6446.87073,0.03976
6448.79920,0.01592
6450.72766,-0.01569
6452.65613,-0.02643
6454.58460,-0.00816
6456.51307,0.02859
6458.44154,0.06410
6460.37001,0.05607
6462.29848,-0.00705
6464.22695,-0.04904
6466.15541,-0.02334
6468.08388,0.03190
6470.01235,0.08185
6471.94082,0.08531
6473.86929,0.02163
6475.79776,-0.06358
6477.72623,-0.08419
6479.65469,-0.00779
6481.58316,0.07735
6483.51163,0.06380
6485.44010,-0.01114
6487.36857,-0.05269
6489.29704,-0.03348
6491.22551,0.01959
6493.15398,0.05132
6495.08244,0.05451
6497.01091,0.06342
6498.93938,0.05748
6500.86785,0.02537
6502.79632,0.00716
6504.72479,-0.00714
6506.65326,-0.03793
6508.58172,-0.05208
6510.51019,-0.04029
6512.43866,-0.00518
6514.36713,0.04050
6516.29560,0.06505
6518.22407,0.06527
6520.15254,0.04930
6522.08101,0.04138
6524.00947,0.05172
6525.93794,0.06146
6527.86641,0.07985
6529.79488,0.10221
6531.72335,0.09454
6533.65182,0.04789
6535.58029,-0.01754
6537.50875,-0.05293
6539.43722,-0.01385
6541.36569,0.07040
6543.29416,0.11924
6545.22263,0.10965
6547.15110,0.08924
6549.07957,0.06647
6551.00804,0.03017
6552.93650,0.01141
6554.86497,0.01706
6556.79344,0.00660
6558.72191,-0.01423
6560.65038,0.01213
6562.57885,0.06971
6564.50732,0.07946
6566.43578,0.02884
6568.36425,-0.00228
6570.29272,0.00710
6572.22119,0.00573
6574.14966,-0.00665
6576.07813,0.00515
6578.00660,0.04899
6579.93507,0.06974
6581.86353,0.03075
6583.79200,0.00184
6585.72047,0.03555
6587.64894,0.06957
6589.57741,0.07081
6591.50588,0.10317
6593.43435,0.15419
6595.36281,0.12590
6597.29128,0.03878
6599.21975,-0.01520
6601.14822,-0.02071
6603.07669,-0.04773
6605.00516,-0.07735
6606.93363,-0.05097
6608.86210,-0.00544
6610.79056,0.02472
6612.71903,0.05894
6614.64750,0.07256
6616.57597,0.05593
6618.50444,0.04414
6620.43291,0.04176
6622.36138,0.03373
6624.28984,0.02685
6626.21831,0.06025
6628.14678,0.09818
6630.07525,0.07182
6632.00372,0.03428
6633.93219,0.02476
6635.86066,0.00868
6637.78912,-0.01796
6639.71759,-0.01870
6641.64606,0.01879
6643.57453,0.07234
6645.50300,0.10260
6647.43147,0.08424
6649.35994,0.03994
6651.28841,0.01134
6653.21687,0.02347
6655.14534,0.06546
6657.07381,0.08610
6659.00228,0.04514
6660.93075,-0.01410
6662.85922,-0.01690
6664.78769,0.01964
6666.71615,0.02770
6668.64462,0.02166
6670.57309,0.01876
6672.50156,-0.02170
6674.43003,-0.04180
6676.35850,0.01873
6678.28697,0.10528
6680.21544,0.15153
6682.14390,0.13714
6684.07237,0.08145
6686.00084,0.01837
6687.92931,-0.02054
6689.85778,-0.01711
6691.78625,0.00477
6693.71472,0.03228
6695.64318,0.07774
6697.57165,0.12075
6699.50012,0.10853
6701.42859,0.06142
6703.35706,0.05018
6705.28553,0.07658
6707.21400,0.07423
6709.14247,0.03075
6711.07093,0.00941
6712.99940,0.00441
6714.92787,-0.01351
6716.85634,-0.02532
6718.78481,-0.03745
6720.71328,-0.04561
6722.64175,-0.04099
6724.57021,-0.03898
6726.49868,-0.02369
6728.42715,0.00477
6730.35562,0.00825
6732.28409,-0.02298
6734.21256,-0.04150
6736.14103,-0.03230
6738.06950,-0.03390
6739.99796,-0.04658
6741.92643,-0.02695
6743.85490,-0.00022
6745.78337,-0.01973
6747.71184,-0.02896
6749.64031,0.02433
6751.56878,0.07165
6753.49724,0.06635
6755.42571,0.05946
6757.35418,0.05970
6759.28265,0.02602
6761.21112,0.01992
6763.13959,0.05692
6765.06806,0.04750
6766.99653,0.01456
6768.92499,0.01065
6770.85346,0.02514
6772.78193,0.05409
6774.71040,0.09083
6776.63887,0.11332
6778.56734,0.12091
6780.49581,0.10427
6782.42427,0.07187
6784.35274,0.06427
6786.28121,0.05334
6788.20968,0.03139
6790.13815,0.06687
6792.06662,0.11946
6793.99509,0.08875
6795.92355,0.04115
6797.85202,0.05114
6799.78049,0.07157
6801.70896,0.06440
6803.63743,0.07033
6805.56590,0.10443
6807.49437,0.09657
6809.42284,0.01911
6811.35130,-0.06542
6813.27977,-0.07168
6815.20824,0.02184
6817.13671,0.12893
6819.06518,0.14253
6820.99365,0.08454
6822.92212,0.01590
6824.85058,0.00130
6826.77905,0.05077
6828.70752,0.10121
6830.63599,0.06811
6832.56446,-0.04822
6834.49293,-0.14985
6836.42140,-0.12310
6838.34987,0.00636
6840.27833,0.10303
6842.20680,0.12358
6844.13527,0.09032
6846.06374,0.02224
6847.99221,-0.07145
6849.92068,-0.11946
6851.84915,-0.06548
6853.77761,0.00933
6855.70608,0.04455
6857.63455,0.04563
6859.56302,0.03854
6861.49149,0.03073
6863.41996,-0.01195
6865.34843,-0.06768
6867.27690,-0.07398
6869.20536,-0.04941
6871.13383,-0.01255
6873.06230,0.03782
6874.99077,0.06273
6876.91924,0.08222
6878.84771,0.09188
6880.77618,0.00561
6882.70464,-0.09375
6884.63311,-0.09874
6886.56158,-0.08663
6888.49005,-0.07855
6890.41852,-0.02081
6892.34699,0.03968
6894.27546,0.06853
6896.20393,0.10927
6898.13239,0.14135
6900.06086,0.11357
6901.98933,0.07006
6903.91780,0.01600
6905.84627,-0.05946
6907.77474,-0.04540
6909.70321,0.01285
6911.63167,-0.01617
6913.56014,-0.04177
6915.48861,0.01257
6917.41708,0.06199
6919.34555,0.08125
6921.27402,0.07360
6923.20249,0.04099
6925.13096,0.04531
6927.05942,0.07870
6928.98789,0.05555
6930.91636,0.00927
6932.84483,0.02304
6934.77330,0.02733
6936.70177,0.01966
6938.63024,0.08082
6940.55870,0.15436
6942.48717,0.09725
6944.41564,0.00990
6946.34411,0.01698
6948.27258,0.03423
6950.20105,0.00534
6952.12952,0.02536
6954.05799,0.09516
6955.98645,0.09899
6957.91492,0.01851
6959.84339,-0.04498
6961.77186,-0.05726
6963.70033,-0.05284
6965.62880,0.00197
6967.55727,0.14260
6969.48573,0.25473
6971.41420,0.20596
6973.34267,0.08286
6975.27114,0.01994
6977.19961,-0.02591
6979.12808,-0.08534
6981.05655,-0.07746
6982.98501,0.03451
6984.91348,0.12723
6986.84195,0.08493
6988.77042,-0.01314
6990.69889,-0.01581
6992.62736,0.08940
6994.55583,0.16984
6996.48430,0.15458
6998.41276,0.11980
7000.34123,0.11108
7002.26970,0.10744
7004.19817,0.09161
7006.12664,0.02291
7008.05511,-0.03902
7009.98358,-0.02335
7011.91204,-0.01016
7013.84051,-0.04735
7015.76898,-0.08788
7017.69745,-0.10835
7019.62592,-0.09729
7021.55439,-0.02489
7023.48286,0.09022
7025.41133,0.15738
7027.33979,0.16077
7029.26826,0.12005
7031.19673,0.02925
7033.12520,-0.02775
7035.05367,-0.00468
7036.98214,0.00327
7038.91061,0.00614
7040.83907,0.07071
7042.76754,0.14485
7044.69601,0.16028
7046.62448,0.12359
7048.55295,0.01895
7050.48142,-0.11975
7052.40989,-0.18367
7054.33836,-0.13265
7056.26682,-0.04046
7058.19529,0.05527
7060.12376,0.15565
7062.05223,0.20203
7063.98070,0.14553
7065.90917,0.08640
7067.83764,0.06626
7069.76610,0.04173
7071.69457,0.04322
7073.62304,0.04709
7075.55151,0.00740
7077.47998,-0.05412
7079.40845,-0.06561
7081.33692,0.03855
7083.26539,0.15443
7085.19385,0.18523
7087.12232,0.16352
7089.05079,0.12568
7090.97926,0.09197
7092.90773,0.09175
7094.83620,0.10302
7096.76467,0.09058
7098.69313,0.05922
7100.62160,0.02691
7102.55007,0.02877
7104.47854,0.04734
7106.40701,0.04015
7108.33548,-0.00215
7110.26395,-0.04195
7112.19242,-0.02996
7114.12088,0.01665
7116.04935,0.04163
7117.97782,0.02605
7119.90629,-0.01199
7121.83476,-0.05169
7123.76323,-0.05743
7125.69170,0.00654
7127.62016,0.08768
7129.54863,0.07884
7131.47710,0.03776
7133.40557,0.06830
7135.33404,0.07800
7137.26251,0.01343
7139.19098,-0.04674
7141.11944,-0.04309
7143.04791,0.00599
7144.97638,0.03228
7146.90485,0.03660
7148.83332,0.07027
7150.76179,0.13495
7152.69026,0.15287
7154.61873,0.07750
7156.54719,-0.00069
7158.47566,-0.05283
7160.40413,-0.07710
7162.33260,-0.06663
7164.26107,-0.06936
7166.18954,-0.10766
7168.11801,-0.09455
7170.04647,0.01383
7171.97494,0.10442
7173.90341,0.12326
7175.83188,0.04978
7177.76035,-0.07862
7179.68882,-0.06269
7181.61729,0.07243
7183.54576,0.10894
7185.47422,0.08785
7187.40269,0.11088
7189.33116,0.14257
7191.25963,0.17135
7193.18810,0.12790
7195.11657,0.04284
7197.04504,0.00847
7198.97350,-0.02036
7200.90197,-0.05472
7202.83044,-0.03891
7204.75891,-0.01097
7206.68738,-0.05117
7208.61585,-0.06521
7210.54432,-0.04031
7212.47279,-0.01117
7214.40125,0.07880
7216.32972,0.22475
7218.25819,0.28963
7220.18666,0.23443
7222.11513,0.16384
7224.04360,0.11550
7225.97207,0.13195
7227.90053,0.23211
7229.82900,0.31192
7231.75747,0.27022
7233.68594,0.14734
7235.61441,0.04216
7237.54288,-0.01303
7239.47135,-0.04167
7241.39982,-0.03060
7243.32828,0.03422
7245.25675,0.03519
7247.18522,-0.01319
7249.11369,-0.00791
7251.04216,0.01871
7252.97063,-0.01669
7254.89910,-0.03397
7256.82756,0.02670
7258.75603,0.16070
7260.68450,0.25027
7262.61297,0.10463
7264.54144,-0.05206
7266.46991,-0.03436
7268.39838,0.01274
7270.32685,-0.03609
7272.25531,-0.09891
7274.18378,-0.05820
7276.11225,-0.05730
7278.04072,-0.04496
7279.96919,0.03545
7281.89766,0.06501
7283.82613,0.08243
7285.75459,0.07685
7287.68306,0.03876
7289.61153,0.03156
7291.54000,0.03519
7293.46847,0.02777
7295.39694,0.02676
7297.32541,0.05117
7299.25387,0.09345
7301.18234,0.07206
7303.11081,0.01568
7305.03928,0.06634
7306.96775,0.17167
7308.89622,0.23345
7310.82469,0.24414
7312.75316,0.19783
7314.68162,0.12557
7316.61009,0.06412
7318.53856,0.09899
7320.46703,0.15601
7322.39550,0.15293
7324.32397,0.20649
7326.25244,0.30214
7328.18090,0.27652
7330.10937,0.14518
7332.03784,0.07559
7333.96631,0.04415
7335.89478,0.00518
7337.82325,-0.05564
7339.75172,-0.12567
7341.68019,-0.11988
7343.60865,-0.09287
7345.53712,-0.06904
7347.46559,-0.07111
7349.39406,-0.20198
7351.32253,-0.34166
7353.25100,-0.28548
7355.17947,-0.11434
7357.10793,0.05125
7359.03640,0.08411
7360.96487,-0.06263
7362.89334,-0.08751
7364.82181,0.08633
7366.75028,0.19812
7368.67875,0.13229
7370.60722,0.01829
7372.53568,0.00220
7374.46415,0.08444
7376.39262,0.13116
7378.32109,0.06919
7380.24956,-0.01396
7382.17803,-0.00810
7384.10650,0.06351
7386.03496,0.05619
7387.96343,0.01809
7389.89190,0.04760
7391.82037,0.09631
7393.74884,0.10346
7395.67731,0.05106
7397.60578,0.03073
7399.53425,0.08138
7401.46271,0.10818
7403.39118,0.07507
7405.31965,0.02842
7407.24812,-0.00560
7409.17659,0.00341
7411.10506,0.05223
7413.03353,0.06642
7414.96199,0.05761
7416.89046,0.08244
7418.81893,0.11263
7420.74740,0.13072
7422.67587,0.14962
7424.60434,0.11136
7426.53281,0.02754
7428.46128,-0.02739
7430.38974,-0.00148
7432.31821,0.02237
7434.24668,-0.05532
7436.17515,-0.12093
7438.10362,-0.06430
7440.03209,0.00483
7441.96056,0.07046
7443.88902,0.15339
7445.81749,0.16289
7447.74596,0.11478
7449.67443,0.03464
7451.60290,-0.01814
7453.53137,-0.00967
7455.45984,-0.03567
7457.38831,-0.01139
7459.31677,0.16527
7461.24524,0.29809
7463.17371,0.23507
7465.10218,0.07821
7467.03065,-0.08493
7468.95912,-0.16570
7470.88759,-0.15868
7472.81605,-0.14806
7474.74452,-0.10687
7476.67299,0.04470
7478.60146,0.19515
7480.52993,0.18255
7482.45840,0.08444
7484.38687,0.07166
7486.31533,0.12308
7488.24380,0.16075
7490.17227,0.13599
7492.10074,0.00786
7494.02921,-0.12863
7495.95768,-0.15358
7497.88615,-0.03661
