399.19301,1.09405
401.12148,0.37780
403.04995,0.14394
404.97842,-0.06943
406.90689,-0.05822
408.83536,0.06111
410.76382,0.04532
412.69229,-0.06456
414.62076,-0.09998
416.54923,-0.08111
418.47770,-0.09003
420.40617,-0.06155
422.33464,0.01524
424.26311,0.01073
426.19157,-0.06489
428.12004,-0.09900
430.04851,-0.01995
431.97698,0.09401
433.90545,0.07468
435.83392,0.00012
437.76239,-0.03665
439.69085,-0.02686
441.61932,0.01719
443.54779,0.04729
445.47626,0.03209
447.40473,-0.00830
449.33320,-0.02119
451.26167,0.02211
453.19013,0.06362
455.11860,0.05085
457.04707,0.01544
458.97554,0.00771
460.90401,0.00635
462.83248,-0.02890
464.76095,-0.07786
466.68942,-0.07238
468.61788,-0.02347
470.54635,0.08984
472.47482,0.62566
474.40329,1.31037
476.33176,0.87053
478.26023,0.24519
480.18870,0.03267
482.11716,0.02573
484.04563,0.04621
485.97410,0.07735
487.90257,0.10132
489.83104,0.10194
491.75951,0.08266
493.68798,0.05158
495.61645,0.02713
497.54491,0.03039
499.47338,0.04437
501.40185,0.05706
503.33032,0.06354
505.25879,0.07195
507.18726,0.08250
509.11573,0.07272
511.04419,0.05928
512.97266,0.06126
514.90113,0.07386
516.82960,0.07215
518.75807,0.04989
520.68654,0.02977
522.61501,0.01335
524.54348,0.02083
526.47194,0.06326
528.40041,0.08273
530.32888,0.05710
532.25735,0.02398
534.18582,0.00343
536.11429,-0.00516
538.04276,0.00286
539.97122,0.01983
541.89969,0.03004
543.82816,0.02419
545.75663,0.00632
547.68510,0.00562
549.61357,0.04827
551.54204,0.11521
553.47051,0.15153
555.39897,0.12294
557.32744,0.07297
559.25591,0.05542
561.18438,0.06281
563.11285,0.07366
565.04132,0.07650
566.96979,0.06736
568.89825,0.04546
570.82672,0.03169
572.75519,0.04508
574.68366,0.06371
576.61213,0.06209
578.54060,0.04996
580.46907,0.04959
582.39754,0.05957
584.32600,0.06455
586.25447,0.06275
588.18294,0.05995
590.11141,0.05608
592.03988,0.05304
593.96835,0.05665
595.89682,0.05843
597.82528,0.06280
599.75375,0.08456
601.68222,0.10518
603.61069,0.09655
605.53916,0.06969
607.46763,0.05247
609.39610,0.05165
611.32456,0.06276
613.25303,0.07300
615.18150,0.06233
617.10997,0.04234
619.03844,0.03914
620.96691,0.04743
622.89538,0.06087
624.82385,0.07428
626.75231,0.07744
628.68078,0.08023
630.60925,0.08424
632.53772,0.07777
634.46619,0.06359
636.39466,0.05133
638.32313,0.04547
640.25159,0.03681
642.18006,0.02519
644.10853,0.02564
646.03700,0.03841
647.96547,0.05911
649.89394,0.07355
651.82241,0.07195
653.75088,0.07406
655.67934,0.08250
657.60781,0.08051
659.53628,0.07025
661.46475,0.06691
663.39322,0.07295
665.32169,0.07665
667.25016,0.06728
669.17862,0.05083
671.10709,0.04509
673.03556,0.04354
674.96403,0.05032
676.89250,0.05826
678.82097,0.05628
680.74944,0.05837
682.67791,0.06853
684.60637,0.08005
686.53484,0.08711
688.46331,0.08227
690.39178,0.07685
692.32025,0.08161
694.24872,0.08586
696.17719,0.07894
698.10565,0.06907
700.03412,0.06890
701.96259,0.07358
703.89106,0.07523
705.81953,0.07592
707.74800,0.07750
709.67647,0.08043
711.60494,0.08312
713.53340,0.08454
715.46187,0.08488
717.39034,0.07869
719.31881,0.06906
721.24728,0.06521
723.17575,0.06527
725.10422,0.06830
727.03268,0.07391
728.96115,0.07732
730.88962,0.08310
732.81809,0.09001
734.74656,0.08546
736.67503,0.07549
738.60350,0.07177
740.53197,0.07114
742.46043,0.07225
744.38890,0.07870
746.31737,0.08178
748.24584,0.07118
750.17431,0.06039
752.10278,0.06409
754.03125,0.07202
755.95971,0.07269
757.88818,0.06972
759.81665,0.06783
761.74512,0.06571
763.67359,0.06457
765.60206,0.07002
767.53053,0.07667
769.45900,0.07499
771.38746,0.07193
773.31593,0.07196
775.24440,0.06822
777.17287,0.06206
779.10134,0.06005
781.02981,0.06130
782.95828,0.06223
784.88674,0.06621
786.81521,0.06985
788.74368,0.06427
790.67215,0.05461
792.60062,0.05097
794.52909,0.05881
796.45756,0.07323
798.38602,0.08416
800.31449,0.08858
802.24296,0.08491
804.17143,0.07261
806.09990,0.06238
808.02837,0.06565
809.95684,0.07646
811.88531,0.08395
813.81377,0.08274
815.74224,0.07116
817.67071,0.05908
819.59918,0.05715
821.52765,0.06009
823.45612,0.06384
825.38459,0.07096
827.31305,0.07275
829.24152,0.06592
831.16999,0.05911
833.09846,0.05588
835.02693,0.05921
836.95540,0.06863
838.88387,0.07635
840.81234,0.07771
842.74080,0.07508
844.66927,0.07219
846.59774,0.06912
848.52621,0.06560
850.45468,0.06237
852.38315,0.06355
854.31162,0.07001
856.24008,0.06960
858.16855,0.06369
860.09702,0.06788
862.02549,0.07707
863.95396,0.08039
865.88243,0.07875
867.81090,0.06737
869.73937,0.04491
871.66783,0.03189
873.59630,0.04348
875.52477,0.06752
877.45324,0.08661
879.38171,0.09349
881.31018,0.09029
883.23865,0.08523
885.16711,0.08076
887.09558,0.07487
889.02405,0.07262
890.95252,0.07584
892.88099,0.07750
894.80946,0.07729
896.73793,0.07859
898.66640,0.08064
900.59486,0.08157
902.52333,0.08078
904.45180,0.08320
906.38027,0.09140
908.30874,0.09713
910.23721,0.09231
912.16568,0.08072
914.09414,0.07371
916.02261,0.07586
917.95108,0.08057
919.87955,0.08378
921.80802,0.08795
923.73649,0.09079
925.66496,0.08819
927.59343,0.08302
929.52189,0.08131
931.45036,0.08504
933.37883,0.09005
935.30730,0.08890
937.23577,0.08154
939.16424,0.07507
941.09271,0.07321
943.02117,0.07529
944.94964,0.07723
946.87811,0.07676
948.80658,0.07647
950.73505,0.07697
952.66352,0.07651
954.59199,0.07706
956.52045,0.08093
958.44892,0.08324
960.37739,0.08185
962.30586,0.08116
964.23433,0.08019
966.16280,0.07553
968.09127,0.07153
970.01974,0.07236
971.94820,0.07366
973.87667,0.07129
975.80514,0.06819
977.73361,0.06951
979.66208,0.07521
981.59055,0.08169
983.51902,0.08647
985.44748,0.08717
987.37595,0.08343
989.30442,0.07976
991.23289,0.08213
993.16136,0.08825
995.08983,0.09138
997.01830,0.09199
998.94677,0.09259
1000.87523,0.09101
1002.80370,0.08465
1004.73217,0.07767
1006.66064,0.07793
1008.58911,0.08428
1010.51758,0.08674
1012.44605,0.08285
1014.37451,0.07982
1016.30298,0.07835
1018.23145,0.07482
1020.15992,0.07307
1022.08839,0.07474
1024.01686,0.07411
1025.94533,0.07026
1027.87380,0.06751
1029.80226,0.07021
1031.73073,0.07715
1033.65920,0.08087
1035.58767,0.08206
1037.51614,0.08677
1039.44461,0.09162
1041.37308,0.08866
1043.30154,0.08133
1045.23001,0.07949
1047.15848,0.08070
1049.08695,0.07970
1051.01542,0.07787
1052.94389,0.07527
1054.87236,0.07299
1056.80083,0.07530
1058.72929,0.08132
1060.65776,0.08371
1062.58623,0.08419
1064.51470,0.08753
1066.44317,0.08754
1068.37164,0.08519
1070.30011,0.08657
1072.22857,0.08897
1074.15704,0.08993
1076.08551,0.09020
1078.01398,0.09317
1079.94245,0.09594
1081.87092,0.08936
1083.79939,0.07908
1085.72786,0.07482
1087.65632,0.07419
1089.58479,0.07578
1091.51326,0.07799
1093.44173,0.07763
1095.37020,0.07804
1097.29867,0.08188
1099.22714,0.08794
1101.15560,0.09061
1103.08407,0.08559
1105.01254,0.08155
1106.94101,0.08372
1108.86948,0.08733
1110.79795,0.09118
1112.72642,0.09331
1114.65489,0.09226
1116.58335,0.09106
1118.51182,0.09014
1120.44029,0.08866
1122.36876,0.08716
1124.29723,0.08759
1126.22570,0.09015
1128.15417,0.08958
1130.08263,0.08435
1132.01110,0.07997
1133.93957,0.08001
1135.86804,0.08308
1137.79651,0.08498
1139.72498,0.08416
1141.65345,0.08479
1143.58191,0.08866
1145.51038,0.09264
1147.43885,0.09494
1149.36732,0.09495
1151.29579,0.09427
1153.22426,0.09420
1155.15273,0.09269
1157.08120,0.09152
1159.00966,0.09369
1160.93813,0.09519
1162.86660,0.09262
1164.79507,0.08916
1166.72354,0.08796
1168.65201,0.08913
1170.58048,0.09140
1172.50894,0.09324
1174.43741,0.09322
1176.36588,0.09194
1178.29435,0.09144
1180.22282,0.09110
1182.15129,0.08841
1184.07976,0.08357
1186.00823,0.08262
1187.93669,0.08642
1189.86516,0.08869
1191.79363,0.08986
1193.72210,0.09156
1195.65057,0.09209
1197.57904,0.09213
1199.50751,0.09371
1201.43597,0.09626
1203.36444,0.09704
1205.29291,0.09599
1207.22138,0.09526
1209.14985,0.09528
1211.07832,0.09428
1213.00679,0.09219
1214.93526,0.09036
1216.86372,0.08949
1218.79219,0.09194
1220.72066,0.09596
1222.64913,0.09673
1224.57760,0.09576
1226.50607,0.09502
1228.43454,0.09314
1230.36300,0.09146
1232.29147,0.08974
1234.21994,0.08732
1236.14841,0.08625
1238.07688,0.08637
1240.00535,0.08704
1241.93382,0.08726
1243.86229,0.08616
1245.79075,0.08664
1247.71922,0.09080
1249.64769,0.09439
1251.57616,0.09336
1253.50463,0.09112
1255.43310,0.09093
1257.36157,0.09048
1259.29003,0.08834
1261.21850,0.08662
1263.14697,0.08647
1265.07544,0.08719
1267.00391,0.08818
1268.93238,0.09083
1270.86085,0.09488
1272.78932,0.09523
1274.71778,0.09235
1276.64625,0.09221
1278.57472,0.09492
1280.50319,0.09591
1282.43166,0.09488
1284.36013,0.09582
1286.28860,0.09766
1288.21706,0.09737
1290.14553,0.09577
1292.07400,0.09383
1294.00247,0.09323
1295.93094,0.09506
1297.85941,0.09674
1299.78788,0.09546
1301.71634,0.09103
1303.64481,0.08767
1305.57328,0.09050
1307.50175,0.09717
1309.43022,0.10178
1311.35869,0.10242
1313.28716,0.09930
1315.21563,0.09532
1317.14409,0.09397
1319.07256,0.09409
1321.00103,0.09385
1322.92950,0.09403
1324.85797,0.09523
1326.78644,0.09654
1328.71491,0.09670
1330.64337,0.09601
1332.57184,0.09638
1334.50031,0.09737
1336.42878,0.09939
1338.35725,0.10385
1340.28572,0.10371
1342.21419,0.09688
1344.14266,0.09151
1346.07112,0.09004
1347.99959,0.09131
1349.92806,0.09316
1351.85653,0.09411
1353.78500,0.09399
1355.71347,0.09335
1357.64194,0.09517
1359.57040,0.09950
1361.49887,0.10178
1363.42734,0.10015
1365.35581,0.09832
1367.28428,0.09740
1369.21275,0.09596
1371.14122,0.09565
1373.06969,0.09838
1374.99815,0.10168
1376.92662,0.10160
1378.85509,0.09851
1380.78356,0.09573
1382.71203,0.09694
1384.64050,0.10190
1386.56897,0.10665
1388.49743,0.10583
1390.42590,0.10231
1392.35437,0.10425
1394.28284,0.11105
1396.21131,0.11271
1398.13978,0.10728
1400.06825,0.10150
1401.99672,0.09927
1403.92518,0.10181
1405.85365,0.10487
1407.78212,0.10249
1409.71059,0.09832
1411.63906,0.09799
1413.56753,0.10159
1415.49600,0.10725
1417.42446,0.11481
1419.35293,0.11805
1421.28140,0.11458
1423.20987,0.11199
1425.13834,0.10853
1427.06681,0.10698
1428.99528,0.11019
1430.92375,0.11062
1432.85221,0.10931
1434.78068,0.11202
1436.70915,0.11109
1438.63762,0.10375
1440.56609,0.10088
1442.49456,0.10205
1444.42303,0.10385
1446.35149,0.10552
1448.27996,0.10554
1450.20843,0.10567
1452.13690,0.10895
1454.06537,0.11607
1455.99384,0.12846
1457.92231,0.13219
1459.85077,0.12116
1461.77924,0.11676
1463.70771,0.11844
1465.63618,0.11596
1467.56465,0.11142
1469.49312,0.11495
1471.42159,0.12552
1473.35006,0.13171
1475.27852,0.12715
1477.20699,0.11972
1479.13546,0.11456
1481.06393,0.11276
1482.99240,0.11256
1484.92087,0.11487
1486.84934,0.12272
1488.77780,0.13442
1490.70627,0.13540
1492.63474,0.12698
1494.56321,0.12611
1496.49168,0.13405
1498.42015,0.13585
1500.34862,0.12934
1502.27709,0.12748
1504.20555,0.13819
1506.13402,0.16224
1508.06249,0.15926
1509.99096,0.13489
1511.91943,0.12379
1513.84790,0.12363
1515.77637,0.12831
1517.70483,0.13187
1519.63330,0.13737
1521.56177,0.14535
1523.49024,0.14269
1525.41871,0.13546
1527.34718,0.13031
1529.27565,0.12744
1531.20412,0.12786
1533.13258,0.12992
1535.06105,0.13125
1536.98952,0.13693
1538.91799,0.15506
1540.84646,0.17118
1542.77493,0.15503
1544.70340,0.13186
1546.63186,0.11865
1548.56033,0.11617
1550.48880,0.11656
1552.41727,0.11750
1554.34574,0.12344
1556.27421,0.13687
1558.20268,0.15489
1560.13115,0.14182
1562.05961,0.12052
1563.98808,0.11392
1565.91655,0.11596
1567.84502,0.12070
1569.77349,0.11981
1571.70196,0.11356
1573.63043,0.11492
1575.55889,0.12257
1577.48736,0.12042
1579.41583,0.11062
1581.34430,0.10377
1583.27277,0.10171
1585.20124,0.10298
1587.12971,0.10452
1589.05818,0.10572
1590.98664,0.10711
1592.91511,0.10876
1594.84358,0.10893
1596.77205,0.10627
1598.70052,0.10428
1600.62899,0.10574
1602.55746,0.10813
1604.48592,0.10818
1606.41439,0.10574
1608.34286,0.10323
1610.27133,0.10260
1612.19980,0.10374
1614.12827,0.10817
1616.05674,0.11613
1617.98521,0.11834
1619.91367,0.11568
1621.84214,0.11699
1623.77061,0.11954
1625.69908,0.11915
1627.62755,0.11810
1629.55602,0.11633
1631.48449,0.11759
1633.41295,0.12703
1635.34142,0.13788
1637.26989,0.13011
1639.19836,0.12012
1641.12683,0.11782
1643.05530,0.11930
1644.98377,0.12736
1646.91223,0.13779
1648.84070,0.13427
1650.76917,0.13314
1652.69764,0.14814
1654.62611,0.14796
1656.55458,0.13020
1658.48305,0.12127
1660.41152,0.12176
1662.33998,0.12397
1664.26845,0.12176
1666.19692,0.12130
1668.12539,0.12683
1670.05386,0.13163
1671.98233,0.12940
1673.91080,0.12639
1675.83926,0.12182
1677.76773,0.11894
1679.69620,0.12412
1681.62467,0.13701
1683.55314,0.14868
1685.48161,0.13810
1687.41008,0.12431
1689.33855,0.11975
1691.26701,0.11786
1693.19548,0.11888
1695.12395,0.12656
1697.05242,0.13683
1698.98089,0.14180
1700.90936,0.13771
1702.83783,0.13150
1704.76629,0.12952
1706.69476,0.12499
1708.62323,0.11826
1710.55170,0.11579
1712.48017,0.11942
1714.40864,0.12995
1716.33711,0.14255
1718.26558,0.13766
1720.19404,0.12083
1722.12251,0.11133
1724.05098,0.10927
1725.97945,0.11033
1727.90792,0.11361
1729.83639,0.12040
1731.76486,0.13126
1733.69332,0.13808
1735.62179,0.12802
1737.55026,0.11800
1739.47873,0.11488
1741.40720,0.11428
1743.33567,0.11614
1745.26414,0.12101
1747.19261,0.12597
1749.12107,0.12773
1751.04954,0.12272
1752.97801,0.11570
1754.90648,0.11474
1756.83495,0.11902
1758.76342,0.12290
1760.69189,0.12336
1762.62035,0.11822
1764.54882,0.11251
1766.47729,0.11310
1768.40576,0.11950
1770.33423,0.12931
1772.26270,0.13525
1774.19117,0.12910
1776.11964,0.12053
1778.04810,0.11667
1779.97657,0.11621
1781.90504,0.11517
1783.83351,0.11345
1785.76198,0.11316
1787.69045,0.11564
1789.61892,0.12162
1791.54738,0.12670
1793.47585,0.12421
1795.40432,0.12020
1797.33279,0.12097
1799.26126,0.12337
1801.18973,0.12174
1803.11820,0.11777
1805.04666,0.11688
1806.97513,0.11836
1808.90360,0.11837
1810.83207,0.11627
1812.76054,0.11348
1814.68901,0.11194
1816.61748,0.11257
1818.54595,0.11332
1820.47441,0.11362
1822.40288,0.11548
1824.33135,0.11825
1826.25982,0.12059
1828.18829,0.12390
1830.11676,0.12434
1832.04523,0.11861
1833.97369,0.11404
1835.90216,0.11332
1837.83063,0.11359
1839.75910,0.11392
1841.68757,0.11685
1843.61604,0.12245
1845.54451,0.12390
1847.47298,0.11995
1849.40144,0.11583
1851.32991,0.11340
1853.25838,0.11257
1855.18685,0.11189
1857.11532,0.11067
1859.04379,0.11027
1860.97226,0.11048
1862.90072,0.11067
1864.82919,0.11300
1866.75766,0.11886
1868.68613,0.12337
1870.61460,0.12050
1872.54307,0.11449
1874.47154,0.11036
1876.40001,0.10983
1878.32847,0.11184
1880.25694,0.11385
1882.18541,0.11550
1884.11388,0.11747
1886.04235,0.11965
1887.97082,0.12197
1889.89929,0.12250
1891.82775,0.11974
1893.75622,0.11705
1895.68469,0.11611
1897.61316,0.11504
1899.54163,0.11305
1901.47010,0.11129
1903.39857,0.11120
1905.32704,0.11210
1907.25550,0.11313
1909.18397,0.11406
1911.11244,0.11339
1913.04091,0.11241
1914.96938,0.11348
1916.89785,0.11561
1918.82632,0.11683
1920.75478,0.11754
1922.68325,0.11821
1924.61172,0.11702
1926.54019,0.11467
1928.46866,0.11377
1930.39713,0.11414
1932.32560,0.11444
1934.25407,0.11479
1936.18253,0.11451
1938.11100,0.11335
1940.03947,0.11486
1941.96794,0.11887
1943.89641,0.12022
1945.82488,0.11938
1947.75335,0.11807
1949.68181,0.11587
1951.61028,0.11439
1953.53875,0.11462
1955.46722,0.11574
1957.39569,0.11638
1959.32416,0.11541
1961.25263,0.11390
1963.18110,0.11335
1965.10956,0.11379
1967.03803,0.11388
1968.96650,0.11282
1970.89497,0.11262
1972.82344,0.11350
1974.75191,0.11410
1976.68038,0.11503
1978.60884,0.11630
1980.53731,0.11673
1982.46578,0.11620
1984.39425,0.11550
1986.32272,0.11521
1988.25119,0.11557
1990.17966,0.11566
1992.10812,0.11529
1994.03659,0.11544
1995.96506,0.11547
1997.89353,0.11463
1999.82200,0.11389
2001.75047,0.11432
2003.67894,0.11464
2005.60741,0.11407
2007.53587,0.11294
2009.46434,0.11136
2011.39281,0.11078
2013.32128,0.11122
2015.24975,0.11298
2017.17822,0.11666
2019.10669,0.11896
2021.03515,0.11858
2022.96362,0.11767
2024.89209,0.11604
2026.82056,0.11387
2028.74903,0.11405
2030.67750,0.11597
2032.60597,0.11698
2034.53444,0.11767
2036.46290,0.11805
2038.39137,0.11690
2040.31984,0.11527
2042.24831,0.11457
2044.17678,0.11460
2046.10525,0.11454
2048.03372,0.11431
2049.96218,0.11493
2051.89065,0.11624
2053.81912,0.11681
2055.74759,0.11613
2057.67606,0.11532
2059.60453,0.11518
2061.53300,0.11527
2063.46147,0.11551
2065.38993,0.11549
2067.31840,0.11507
2069.24687,0.11448
2071.17534,0.11345
2073.10381,0.11300
2075.03228,0.11388
2076.96075,0.11528
2078.88921,0.11651
2080.81768,0.11720
2082.74615,0.11710
2084.67462,0.11597
2086.60309,0.11432
2088.53156,0.11438
2090.46003,0.11657
2092.38850,0.11767
2094.31696,0.11607
2096.24543,0.11304
2098.17390,0.11083
2100.10237,0.11141
2102.03084,0.11315
2103.95931,0.11352
2105.88778,0.11373
2107.81624,0.11520
2109.74471,0.11617
2111.67318,0.11512
2113.60165,0.11378
2115.53012,0.11399
2117.45859,0.11448
2119.38706,0.11448
2121.31553,0.11493
2123.24399,0.11588
2125.17246,0.11733
2127.10093,0.11890
2129.02940,0.11911
2130.95787,0.11801
2132.88634,0.11714
2134.81481,0.11740
2136.74327,0.11771
2138.67174,0.11634
2140.60021,0.11464
2142.52868,0.11452
2144.45715,0.11385
2146.38562,0.11188
2148.31409,0.11196
2150.24255,0.11421
2152.17102,0.11537
2154.09949,0.11526
2156.02796,0.11606
2157.95643,0.11718
2159.88490,0.11654
2161.81337,0.11566
2163.74184,0.11666
2165.67030,0.11781
2167.59877,0.11789
2169.52724,0.11750
2171.45571,0.11601
2173.38418,0.11424
2175.31265,0.11440
2177.24112,0.11608
2179.16958,0.11778
2181.09805,0.11820
2183.02652,0.11654
2184.95499,0.11461
2186.88346,0.11426
2188.81193,0.11497
2190.74040,0.11611
2192.66887,0.11734
2194.59733,0.11776
2196.52580,0.11817
2198.45427,0.11967
2200.38274,0.11977
2202.31121,0.11753
2204.23968,0.11658
2206.16815,0.11754
2208.09661,0.11658
2210.02508,0.11416
2211.95355,0.11398
2213.88202,0.11406
2215.81049,0.11226
2217.73896,0.11102
2219.66743,0.11179
2221.59590,0.11437
2223.52436,0.11703
2225.45283,0.11747
2227.38130,0.11629
2229.30977,0.11542
2231.23824,0.11568
2233.16671,0.11689
2235.09518,0.11796
2237.02364,0.11770
2238.95211,0.11616
2240.88058,0.11556
2242.80905,0.11681
2244.73752,0.11788
2246.66599,0.11831
2248.59446,0.11809
2250.52293,0.11738
2252.45139,0.11758
2254.37986,0.11766
2256.30833,0.11665
2258.23680,0.11668
2260.16527,0.11755
2262.09374,0.11648
2264.02221,0.11461
2265.95067,0.11383
2267.87914,0.11315
2269.80761,0.11296
2271.73608,0.11388
2273.66455,0.11518
2275.59302,0.11589
2277.52149,0.11552
2279.44996,0.11504
2281.37842,0.11530
2283.30689,0.11539
2285.23536,0.11436
2287.16383,0.11306
2289.09230,0.11259
2291.02077,0.11354
2292.94924,0.11569
2294.87770,0.11709
2296.80617,0.11633
2298.73464,0.11400
2300.66311,0.11082
2302.59158,0.10857
2304.52005,0.11027
2306.44852,0.11476
2308.37699,0.11755
2310.30545,0.11616
2312.23392,0.11157
2314.16239,0.10768
2316.09086,0.10722
2318.01933,0.10989
2319.94780,0.11380
2321.87627,0.11614
2323.80473,0.11160
2325.73320,0.09894
2327.66167,0.08973
2329.59014,0.08943
2331.51861,0.08991
2333.44708,0.08978
2335.37555,0.09217
2337.30401,0.09844
2339.23248,0.10654
2341.16095,0.10835
2343.08942,0.10486
2345.01789,0.10520
2346.94636,0.10923
2348.87483,0.11211
2350.80330,0.11061
2352.73176,0.10352
2354.66023,0.10013
2356.58870,0.10540
2358.51717,0.10542
2360.44564,0.10049
2362.37411,0.09705
2364.30258,0.09569
2366.23104,0.09787
2368.15951,0.10074
2370.08798,0.10516
2372.01645,0.10939
2373.94492,0.11040
2375.87339,0.11240
2377.80186,0.11633
2379.73033,0.11776
2381.65879,0.11643
2383.58726,0.11522
2385.51573,0.11542
2387.44420,0.11661
2389.37267,0.11738
2391.30114,0.11678
2393.22961,0.11480
2395.15807,0.11298
2397.08654,0.11413
2399.01501,0.11755
2400.94348,0.12010
2402.87195,0.12120
2404.80042,0.12130
2406.72889,0.12119
2408.65736,0.12050
2410.58582,0.11724
2412.51429,0.11340
2414.44276,0.11340
2416.37123,0.11628
2418.29970,0.11797
2420.22817,0.11802
2422.15664,0.11745
2424.08510,0.11652
2426.01357,0.11620
2427.94204,0.11639
2429.87051,0.11664
2431.79898,0.11738
2433.72745,0.11839
2435.65592,0.11932
2437.58439,0.11958
2439.51285,0.11770
2441.44132,0.11440
2443.36979,0.11310
2445.29826,0.11513
2447.22673,0.11797
2449.15520,0.11857
2451.08367,0.11630
2453.01213,0.11203
2454.94060,0.10889
2456.86907,0.11058
2458.79754,0.11472
2460.72601,0.11677
2462.65448,0.11678
2464.58295,0.11630
2466.51142,0.11580
2468.43988,0.11573
2470.36835,0.11592
2472.29682,0.11565
2474.22529,0.11587
2476.15376,0.11727
2478.08223,0.11796
2480.01070,0.11760
2481.93916,0.11753
2483.86763,0.11698
2485.79610,0.11532
2487.72457,0.11391
2489.65304,0.11409
2491.58151,0.11563
2493.50998,0.11690
2495.43844,0.11708
2497.36691,0.11692
2499.29538,0.11682
2501.22385,0.11783
2503.15232,0.12032
2505.08079,0.12158
2507.00926,0.12107
2508.93773,0.12039
2510.86619,0.11948
2512.79466,0.11935
2514.72313,0.11997
2516.65160,0.11962
2518.58007,0.11894
2520.50854,0.11848
2522.43701,0.11766
2524.36547,0.11669
2526.29394,0.11665
2528.22241,0.11736
2530.15088,0.11660
2532.07935,0.11536
2534.00782,0.11624
2535.93629,0.11771
2537.86476,0.11830
2539.79322,0.11868
2541.72169,0.11936
2543.65016,0.12113
2545.57863,0.12286
2547.50710,0.12267
2549.43557,0.12137
2551.36404,0.11945
2553.29250,0.11670
2555.22097,0.11477
2557.14944,0.11447
2559.07791,0.11438
2561.00638,0.11450
2562.93485,0.11532
2564.86332,0.11583
2566.79179,0.11679
2568.72025,0.11869
2570.64872,0.11974
2572.57719,0.11948
2574.50566,0.11906
2576.43413,0.11943
2578.36260,0.11951
2580.29107,0.11852
2582.21953,0.11867
2584.14800,0.12031
2586.07647,0.12110
2588.00494,0.12096
2589.93341,0.12045
2591.86188,0.11865
2593.79035,0.11672
2595.71882,0.11731
2597.64728,0.11944
2599.57575,0.11985
2601.50422,0.11851
2603.43269,0.11812
2605.36116,0.11902
2607.28963,0.11939
2609.21810,0.11847
2611.14656,0.11688
2613.07503,0.11598
2615.00350,0.11721
2616.93197,0.11974
2618.86044,0.11997
2620.78891,0.11749
2622.71738,0.11698
2624.64585,0.11988
2626.57431,0.12279
2628.50278,0.12358
2630.43125,0.12242
2632.35972,0.12127
2634.28819,0.12219
2636.21666,0.12301
2638.14513,0.12182
2640.07359,0.12147
2642.00206,0.12243
2643.93053,0.12335
2645.85900,0.12439
2647.78747,0.12427
2649.71594,0.12338
2651.64441,0.12306
2653.57288,0.12336
2655.50134,0.12427
2657.42981,0.12508
2659.35828,0.12501
2661.28675,0.12422
2663.21522,0.12319
2665.14369,0.12131
2667.07216,0.11908
2669.00062,0.11907
2670.92909,0.12050
2672.85756,0.12081
2674.78603,0.12065
2676.71450,0.12124
2678.64297,0.12275
2680.57144,0.12413
2682.49990,0.12395
2684.42837,0.12409
2686.35684,0.12531
2688.28531,0.12498
2690.21378,0.12343
2692.14225,0.12352
2694.07072,0.12519
2695.99919,0.12607
2697.92765,0.12585
2699.85612,0.12449
2701.78459,0.12215
2703.71306,0.12062
2705.64153,0.11940
2707.57000,0.11814
2709.49847,0.11885
2711.42693,0.12156
2713.35540,0.12305
2715.28387,0.12115
2717.21234,0.11862
2719.14081,0.11910
2721.06928,0.12177
2722.99775,0.12293
2724.92622,0.12177
2726.85468,0.12119
2728.78315,0.12170
2730.71162,0.12162
2732.64009,0.12136
2734.56856,0.12148
2736.49703,0.12268
2738.42550,0.12512
2740.35396,0.12571
2742.28243,0.12388
2744.21090,0.12302
2746.13937,0.12342
2748.06784,0.12373
2749.99631,0.12413
2751.92478,0.12351
2753.85325,0.12239
2755.78171,0.12294
2757.71018,0.12357
2759.63865,0.12368
2761.56712,0.12431
2763.49559,0.12393
2765.42406,0.12307
2767.35253,0.12430
2769.28099,0.12721
2771.20946,0.12905
2773.13793,0.12844
2775.06640,0.12705
2776.99487,0.12634
2778.92334,0.12597
2780.85181,0.12618
2782.78028,0.12664
2784.70874,0.12655
2786.63721,0.12720
2788.56568,0.12828
2790.49415,0.12777
2792.42262,0.12695
2794.35109,0.12673
2796.27956,0.12598
2798.20802,0.12623
2800.13649,0.12747
2802.06496,0.12793
2803.99343,0.12918
2805.92190,0.13040
2807.85037,0.12849
2809.77884,0.12542
2811.70731,0.12376
2813.63577,0.12347
2815.56424,0.12537
2817.49271,0.12845
2819.42118,0.13047
2821.34965,0.13062
2823.27812,0.12861
2825.20659,0.12661
2827.13505,0.12532
2829.06352,0.12395
2830.99199,0.12527
2832.92046,0.12941
2834.84893,0.13190
2836.77740,0.13124
2838.70587,0.12945
2840.63433,0.12778
2842.56280,0.12745
2844.49127,0.12978
2846.41974,0.13206
2848.34821,0.13004
2850.27668,0.12579
2852.20515,0.12527
2854.13362,0.12755
2856.06208,0.12795
2857.99055,0.12713
2859.91902,0.12638
2861.84749,0.12552
2863.77596,0.12681
2865.70443,0.12974
2867.63290,0.13034
2869.56136,0.12824
2871.48983,0.12609
2873.41830,0.12613
2875.34677,0.12705
2877.27524,0.12807
2879.20371,0.13020
2881.13218,0.12994
2883.06065,0.12679
2884.98911,0.12510
2886.91758,0.12522
2888.84605,0.12629
2890.77452,0.12794
2892.70299,0.12834
2894.63146,0.12652
2896.55993,0.12386
2898.48839,0.12221
2900.41686,0.12193
2902.34533,0.12359
2904.27380,0.12737
2906.20227,0.12901
2908.13074,0.12656
2910.05921,0.12462
2911.98768,0.12446
2913.91614,0.12329
2915.84461,0.12040
2917.77308,0.11849
2919.70155,0.12070
2921.63002,0.12449
2923.55849,0.12424
2925.48696,0.12026
2927.41542,0.11844
2929.34389,0.12034
2931.27236,0.12241
2933.20083,0.12434
2935.12930,0.12494
2937.05777,0.12229
2938.98624,0.12165
2940.91471,0.12386
2942.84317,0.12530
2944.77164,0.12713
2946.70011,0.12720
2948.62858,0.12525
2950.55705,0.12513
2952.48552,0.12534
2954.41399,0.12381
2956.34245,0.12133
2958.27092,0.12152
2960.19939,0.12558
2962.12786,0.12906
2964.05633,0.12979
2965.98480,0.12770
2967.91327,0.12473
2969.84174,0.12510
2971.77020,0.12643
2973.69867,0.12523
2975.62714,0.12329
2977.55561,0.12211
2979.48408,0.12387
2981.41255,0.12695
2983.34102,0.12730
2985.26948,0.12719
2987.19795,0.12741
2989.12642,0.12665
2991.05489,0.12666
2992.98336,0.12758
2994.91183,0.12820
2996.84030,0.12795
2998.76877,0.12683
3000.69723,0.12725
3002.62570,0.13020
3004.55417,0.13151
3006.48264,0.12983
3008.41111,0.12834
3010.33958,0.12708
3012.26805,0.12263
3014.19651,0.11185
3016.12498,0.10137
3018.05345,0.10495
3019.98192,0.11926
3021.91039,0.12892
3023.83886,0.13156
3025.76733,0.13178
3027.69579,0.13138
3029.62426,0.13135
3031.55273,0.13068
3033.48120,0.12967
3035.40967,0.13111
3037.33814,0.13432
3039.26661,0.13662
3041.19508,0.13643
3043.12354,0.13356
3045.05201,0.13089
3046.98048,0.12986
3048.90895,0.12888
3050.83742,0.12928
3052.76589,0.13184
3054.69436,0.13161
3056.62282,0.12739
3058.55129,0.12515
3060.47976,0.12628
3062.40823,0.12715
3064.33670,0.12501
3066.26517,0.12181
3068.19364,0.12384
3070.12211,0.12956
3072.05057,0.13135
3073.97904,0.12670
3075.90751,0.12186
3077.83598,0.12427
3079.76445,0.12742
3081.69292,0.12262
3083.62139,0.11557
3085.54985,0.11509
3087.47832,0.12129
3089.40679,0.12805
3091.33526,0.13138
3093.26373,0.13054
3095.19220,0.12873
3097.12067,0.13006
3099.04914,0.13294
3100.97760,0.13418
3102.90607,0.13298
3104.83454,0.13125
3106.76301,0.12918
3108.69148,0.12661
3110.61995,0.12548
3112.54842,0.12511
3114.47688,0.12499
3116.40535,0.12592
3118.33382,0.12871
3120.26229,0.13162
3122.19076,0.13119
3124.11923,0.12967
3126.04770,0.13027
3127.97617,0.13163
3129.90463,0.13239
3131.83310,0.13304
3133.76157,0.13451
3135.69004,0.13692
3137.61851,0.13751
3139.54698,0.13519
3141.47545,0.13341
3143.40391,0.13230
3145.33238,0.13014
3147.26085,0.12851
3149.18932,0.12942
3151.11779,0.13266
3153.04626,0.13583
3154.97473,0.13693
3156.90320,0.13594
3158.83166,0.13465
3160.76013,0.13429
3162.68860,0.13461
3164.61707,0.13568
3166.54554,0.13707
3168.47401,0.13853
3170.40248,0.13920
3172.33094,0.13705
3174.25941,0.13425
3176.18788,0.13309
3178.11635,0.13184
3180.04482,0.13197
3181.97329,0.13456
3183.90176,0.13601
3185.83022,0.13526
3187.75869,0.13392
3189.68716,0.13132
3191.61563,0.12831
3193.54410,0.12933
3195.47257,0.13402
3197.40104,0.13616
3199.32951,0.13432
3201.25797,0.13234
3203.18644,0.13174
3205.11491,0.13164
3207.04338,0.13084
3208.97185,0.12983
3210.90032,0.13229
3212.82879,0.13802
3214.75725,0.14011
3216.68572,0.13604
3218.61419,0.13125
3220.54266,0.13107
3222.47113,0.13542
3224.39960,0.13782
3226.32807,0.13549
3228.25654,0.13421
3230.18500,0.13554
3232.11347,0.13511
3234.04194,0.13351
3235.97041,0.13406
3237.89888,0.13518
3239.82735,0.13555
3241.75582,0.13548
3243.68428,0.13352
3245.61275,0.13132
3247.54122,0.13162
3249.46969,0.13241
3251.39816,0.13144
3253.32663,0.13007
3255.25510,0.13059
3257.18357,0.13323
3259.11203,0.13541
3261.04050,0.13541
3262.96897,0.13359
3264.89744,0.13055
3266.82591,0.12984
3268.75438,0.13223
3270.68285,0.13200
3272.61131,0.12689
3274.53978,0.12230
3276.46825,0.12332
3278.39672,0.12598
3280.32519,0.12519
3282.25366,0.12413
3284.18213,0.12639
3286.11060,0.13119
3288.03906,0.13526
3289.96753,0.13472
3291.89600,0.13123
3293.82447,0.12993
3295.75294,0.13052
3297.68141,0.13079
3299.60988,0.13096
3301.53834,0.13078
3303.46681,0.13101
3305.39528,0.13216
3307.32375,0.13220
3309.25222,0.13073
3311.18069,0.12925
3313.10916,0.12833
3315.03763,0.12913
3316.96609,0.13280
3318.89456,0.13582
3320.82303,0.13424
3322.75150,0.13059
3324.67997,0.12893
3326.60844,0.12963
3328.53691,0.13086
3330.46537,0.13185
3332.39384,0.13327
3334.32231,0.13402
3336.25078,0.13278
3338.17925,0.13069
3340.10772,0.13045
3342.03619,0.13323
3343.96466,0.13569
3345.89312,0.13373
3347.82159,0.13106
3349.75006,0.13285
3351.67853,0.13455
3353.60700,0.13284
3355.53547,0.13223
3357.46394,0.13356
3359.39240,0.13322
3361.32087,0.13213
3363.24934,0.13499
3365.17781,0.14004
3367.10628,0.14082
3369.03475,0.13659
3370.96322,0.13094
3372.89168,0.12852
3374.82015,0.13072
3376.74862,0.13245
3378.67709,0.13246
3380.60556,0.13381
3382.53403,0.13423
3384.46250,0.13219
3386.39097,0.13082
3388.31943,0.13070
3390.24790,0.13146
3392.17637,0.13430
3394.10484,0.13785
3396.03331,0.13810
3397.96178,0.13512
3399.89025,0.13355
3401.81871,0.13353
3403.74718,0.13300
3405.67565,0.13182
3407.60412,0.13051
3409.53259,0.13115
3411.46106,0.13297
3413.38953,0.13241
3415.31800,0.12944
3417.24646,0.12859
3419.17493,0.13154
3421.10340,0.13369
3423.03187,0.13283
3424.96034,0.13060
3426.88881,0.12846
3428.81728,0.12612
3430.74574,0.12344
3432.67421,0.12294
3434.60268,0.12496
3436.53115,0.12695
3438.45962,0.12691
3440.38809,0.12452
3442.31656,0.12242
3444.24503,0.12446
3446.17349,0.12843
3448.10196,0.12887
3450.03043,0.12678
3451.95890,0.12332
3453.88737,0.11862
3455.81584,0.11750
3457.74431,0.12116
3459.67277,0.12474
3461.60124,0.12505
3463.52971,0.12349
3465.45818,0.12336
3467.38665,0.12462
3469.31512,0.12449
3471.24359,0.12246
3473.17206,0.11918
3475.10052,0.11520
3477.02899,0.11337
3478.95746,0.11545
3480.88593,0.11992
3482.81440,0.12312
3484.74287,0.12231
3486.67134,0.11869
3488.59980,0.11393
3490.52827,0.11139
3492.45674,0.11402
3494.38521,0.11792
3496.31368,0.11896
3498.24215,0.11830
3500.17062,0.11908
3502.09909,0.12096
3504.02755,0.11816
3505.95602,0.11284
3507.88449,0.11254
3509.81296,0.11489
3511.74143,0.11337
3513.66990,0.10815
3515.59837,0.10472
3517.52683,0.10589
3519.45530,0.10987
3521.38377,0.11366
3523.31224,0.11449
3525.24071,0.11370
3527.16918,0.11307
3529.09765,0.11184
3531.02611,0.11155
3532.95458,0.11243
3534.88305,0.11318
3536.81152,0.11279
3538.73999,0.11121
3540.66846,0.11080
3542.59693,0.11121
3544.52540,0.11003
3546.45386,0.10763
3548.38233,0.10566
3550.31080,0.10646
3552.23927,0.10979
3554.16774,0.11170
3556.09621,0.11197
3558.02468,0.11141
3559.95314,0.10873
3561.88161,0.10544
3563.81008,0.10559
3565.73855,0.10992
3567.66702,0.11109
3569.59549,0.10610
3571.52396,0.10286
3573.45243,0.10374
3575.38089,0.10523
3577.30936,0.10392
3579.23783,0.10105
3581.16630,0.09984
3583.09477,0.10334
3585.02324,0.11193
3586.95171,0.11780
3588.88017,0.11183
3590.80864,0.10440
3592.73711,0.10161
3594.66558,0.09984
3596.59405,0.09858
3598.52252,0.09840
3600.45099,0.09664
3602.37946,0.09403
3604.30792,0.09709
3606.23639,0.10484
3608.16486,0.10747
3610.09333,0.10439
3612.02180,0.10341
3613.95027,0.10397
3615.87874,0.10343
3617.80720,0.10274
3619.73567,0.10137
3621.66414,0.09756
3623.59261,0.09538
3625.52108,0.09929
3627.44955,0.10928
3629.37802,0.11380
3631.30649,0.10531
3633.23495,0.09706
3635.16342,0.09282
3637.09189,0.09216
3639.02036,0.09469
3640.94883,0.09711
3642.87730,0.09674
3644.80577,0.09937
3646.73423,0.10825
3648.66270,0.11446
3650.59117,0.11068
3652.51964,0.10539
3654.44811,0.10056
3656.37658,0.09458
3658.30505,0.08960
3660.23352,0.08651
3662.16198,0.08407
3664.09045,0.08396
3666.01892,0.08726
3667.94739,0.09414
3669.87586,0.10184
3671.80433,0.10488
3673.73280,0.10854
3675.66126,0.11053
3677.58973,0.10144
3679.51820,0.09184
3681.44667,0.08776
3683.37514,0.08711
3685.30361,0.08879
3687.23208,0.09509
3689.16055,0.10100
3691.08901,0.09668
3693.01748,0.09036
3694.94595,0.08692
3696.87442,0.08624
3698.80289,0.08910
3700.73136,0.09292
3702.65983,0.09341
3704.58829,0.09031
3706.51676,0.08856
3708.44523,0.09264
3710.37370,0.10034
3712.30217,0.09913
3714.23064,0.09066
3716.15911,0.08429
3718.08757,0.07853
3720.01604,0.07488
3721.94451,0.07947
3723.87298,0.09091
3725.80145,0.09834
3727.72992,0.09603
3729.65839,0.09137
3731.58686,0.09158
3733.51532,0.09799
3735.44379,0.10357
3737.37226,0.10056
3739.30073,0.09517
3741.22920,0.09422
3743.15767,0.09931
3745.08614,0.10395
3747.01460,0.10288
3748.94307,0.10264
3750.87154,0.10195
3752.80001,0.09929
3754.72848,0.09842
3756.65695,0.09818
3758.58542,0.09533
3760.51389,0.08932
3762.44235,0.08697
3764.37082,0.08869
3766.29929,0.08869
3768.22776,0.08798
3770.15623,0.08694
3772.08470,0.08299
3774.01317,0.08061
3775.94163,0.08267
3777.87010,0.08740
3779.79857,0.08812
3781.72704,0.08465
3783.65551,0.08408
3785.58398,0.08418
3787.51245,0.08105
3789.44092,0.07769
3791.36938,0.07592
3793.29785,0.07621
3795.22632,0.07988
3797.15479,0.08414
3799.08326,0.08740
3801.01173,0.09275
3802.94020,0.09498
3804.86866,0.09265
3806.79713,0.08896
3808.72560,0.08335
3810.65407,0.07906
3812.58254,0.07824
3814.51101,0.08119
3816.43948,0.08796
3818.36795,0.09589
3820.29641,0.10109
3822.22488,0.09716
3824.15335,0.09021
3826.08182,0.08567
3828.01029,0.08034
3829.93876,0.07677
3831.86723,0.07862
3833.79569,0.08381
3835.72416,0.08994
3837.65263,0.09706
3839.58110,0.09946
3841.50957,0.09356
3843.43804,0.08595
3845.36651,0.08103
3847.29498,0.07839
3849.22344,0.07825
3851.15191,0.08237
3853.08038,0.09144
3855.00885,0.09560
3856.93732,0.09074
3858.86579,0.08349
3860.79426,0.07910
3862.72272,0.08187
3864.65119,0.08624
3866.57966,0.08534
3868.50813,0.08511
3870.43660,0.08647
3872.36507,0.08726
3874.29354,0.08937
3876.22200,0.08845
3878.15047,0.08573
3880.07894,0.08556
3882.00741,0.08381
3883.93588,0.07899
3885.86435,0.07534
3887.79282,0.07495
3889.72129,0.07784
3891.64975,0.08059
3893.57822,0.07821
3895.50669,0.07726
3897.43516,0.08156
3899.36363,0.08498
3901.29210,0.08421
3903.22057,0.08304
3905.14903,0.07890
3907.07750,0.07231
3909.00597,0.06835
3910.93444,0.06763
3912.86291,0.06837
3914.79138,0.06863
3916.71985,0.06881
3918.64832,0.07159
3920.57678,0.07528
3922.50525,0.07662
3924.43372,0.07638
3926.36219,0.07676
3928.29066,0.07789
3930.21913,0.07869
3932.14760,0.07857
3934.07606,0.07662
3936.00453,0.07393
3937.93300,0.07256
3939.86147,0.07242
3941.78994,0.07280
3943.71841,0.07141
3945.64688,0.06765
3947.57535,0.06507
3949.50381,0.06562
3951.43228,0.06726
3953.36075,0.06696
3955.28922,0.06567
3957.21769,0.06563
3959.14616,0.06536
3961.07463,0.06287
3963.00309,0.06011
3964.93156,0.05956
3966.86003,0.06094
3968.78850,0.06417
3970.71697,0.06905
3972.64544,0.07367
3974.57391,0.07530
3976.50238,0.07410
3978.43084,0.07247
3980.35931,0.06952
3982.28778,0.06552
3984.21625,0.06626
3986.14472,0.07164
3988.07319,0.07187
3990.00166,0.06642
3991.93012,0.06317
3993.85859,0.06176
3995.78706,0.06084
3997.71553,0.06147
3999.64400,0.06205
4001.57247,0.06144
4003.50094,0.06114
4005.42941,0.06332
4007.35787,0.06627
4009.28634,0.06766
4011.21481,0.06949
4013.14328,0.07129
4015.07175,0.06969
4017.00022,0.06694
4018.92869,0.06645
4020.85715,0.06736
4022.78562,0.06749
4024.71409,0.06470
4026.64256,0.05909
4028.57103,0.05529
4030.49950,0.05819
4032.42797,0.06572
4034.35644,0.07008
4036.28490,0.06723
4038.21337,0.06113
4040.14184,0.05751
4042.07031,0.05749
4043.99878,0.05945
4045.92725,0.06241
4047.85572,0.06453
4049.78418,0.06287
4051.71265,0.05915
4053.64112,0.05849
4055.56959,0.06071
4057.49806,0.06350
4059.42653,0.06661
4061.35500,0.06719
4063.28346,0.06515
4065.21193,0.06442
4067.14040,0.06498
4069.06887,0.06620
4070.99734,0.06593
4072.92581,0.06033
4074.85428,0.05292
4076.78275,0.04989
4078.71121,0.05099
4080.63968,0.05344
4082.56815,0.05575
4084.49662,0.05670
4086.42509,0.05564
4088.35356,0.05205
4090.28203,0.04838
4092.21049,0.04807
4094.13896,0.04918
4096.06743,0.05118
4097.99590,0.05729
4099.92437,0.06413
4101.85284,0.06454
4103.78131,0.05963
4105.70978,0.05578
4107.63824,0.05498
4109.56671,0.05715
4111.49518,0.06095
4113.42365,0.06171
4115.35212,0.05890
4117.28059,0.05721
4119.20906,0.05882
4121.13752,0.06146
4123.06599,0.06019
4124.99446,0.05512
4126.92293,0.05206
4128.85140,0.05120
4130.77987,0.04934
4132.70834,0.04852
4134.63681,0.05129
4136.56527,0.05478
4138.49374,0.05502
4140.42221,0.05343
4142.35068,0.05310
4144.27915,0.05418
4146.20762,0.05547
4148.13609,0.05274
4150.06455,0.04675
4151.99302,0.04461
4153.92149,0.04713
4155.84996,0.05158
4157.77843,0.05490
4159.70690,0.05461
4161.63537,0.05341
4163.56384,0.05218
4165.49230,0.04956
4167.42077,0.04836
4169.34924,0.04989
4171.27771,0.05037
4173.20618,0.04837
4175.13465,0.04595
4177.06312,0.04625
4178.99158,0.04980
4180.92005,0.05115
4182.84852,0.04846
4184.77699,0.04469
4186.70546,0.04011
4188.63393,0.03766
4190.56240,0.04013
4192.49087,0.04208
4194.41933,0.04236
4196.34780,0.04670
4198.27627,0.05334
4200.20474,0.05425
4202.13321,0.04809
4204.06168,0.04261
4205.99015,0.04371
4207.91861,0.04799
4209.84708,0.04848
4211.77555,0.04589
4213.70402,0.04603
4215.63249,0.04731
4217.56096,0.04518
4219.48943,0.04264
4221.41789,0.04413
4223.34636,0.04771
4225.27483,0.04720
4227.20330,0.04096
4229.13177,0.03573
4231.06024,0.03382
4232.98871,0.03154
4234.91718,0.03112
4236.84564,0.03495
4238.77411,0.03985
4240.70258,0.04227
4242.63105,0.04184
4244.55952,0.04001
4246.48799,0.03887
4248.41646,0.04011
4250.34492,0.04270
4252.27339,0.04433
4254.20186,0.04428
4256.13033,0.04399
4258.05880,0.04511
4259.98727,0.04664
4261.91574,0.04364
4263.84421,0.03795
4265.77267,0.03753
4267.70114,0.03993
4269.62961,0.03987
4271.55808,0.03923
4273.48655,0.03977
4275.41502,0.04090
4277.34349,0.04175
4279.27195,0.04010
4281.20042,0.03550
4283.12889,0.03239
4285.05736,0.03188
4286.98583,0.03078
4288.91430,0.02963
4290.84277,0.03236
4292.77124,0.03736
4294.69970,0.03910
4296.62817,0.03880
4298.55664,0.03919
4300.48511,0.03950
4302.41358,0.03846
4304.34205,0.03509
4306.27052,0.03158
4308.19898,0.03045
4310.12745,0.03014
4312.05592,0.02960
4313.98439,0.02890
4315.91286,0.02797
4317.84133,0.02823
4319.76980,0.03015
4321.69827,0.03193
4323.62673,0.03016
4325.55520,0.02561
4327.48367,0.02357
4329.41214,0.02506
4331.34061,0.02672
4333.26908,0.02540
4335.19755,0.02264
4337.12601,0.02249
4339.05448,0.02470
4340.98295,0.02614
4342.91142,0.02605
4344.83989,0.02612
4346.76836,0.02760
4348.69683,0.02946
4350.62530,0.02969
4352.55376,0.02959
4354.48223,0.02884
4356.41070,0.02530
4358.33917,0.02106
4360.26764,0.01953
4362.19611,0.02312
4364.12458,0.02774
4366.05304,0.02748
4367.98151,0.02579
4369.90998,0.02644
4371.83845,0.02674
4373.76692,0.02418
4375.69539,0.02212
4377.62386,0.02208
4379.55232,0.01790
4381.48079,0.00980
4383.40926,0.00511
4385.33773,0.00636
4387.26620,0.01204
4389.19467,0.01843
4391.12314,0.02185
4393.05161,0.02242
4394.98007,0.02070
4396.90854,0.01686
4398.83701,0.01487
4400.76548,0.01472
4402.69395,0.01090
4404.62242,0.00726
4406.55089,0.01137
4408.47935,0.01949
4410.40782,0.02501
4412.33629,0.02806
4414.26476,0.02853
4416.19323,0.02477
4418.12170,0.01901
4420.05017,0.01429
4421.97864,0.01056
4423.90710,0.00791
4425.83557,0.01064
4427.76404,0.01803
4429.69251,0.02246
4431.62098,0.02061
4433.54945,0.01675
4435.47792,0.01794
4437.40638,0.02278
4439.33485,0.02227
4441.26332,0.01452
4443.19179,0.00765
4445.12026,0.00831
4447.04873,0.01418
4448.97720,0.01797
4450.90567,0.01536
4452.83413,0.01039
4454.76260,0.01014
4456.69107,0.01372
4458.61954,0.01627
4460.54801,0.01815
4462.47648,0.01945
4464.40495,0.01773
4466.33341,0.01359
4468.26188,0.00852
4470.19035,0.00507
4472.11882,0.00439
4474.04729,0.00361
4475.97576,0.00289
4477.90423,0.00621
4479.83270,0.01115
4481.76116,0.00999
4483.68963,0.00464
4485.61810,0.00424
4487.54657,0.00944
4489.47504,0.01363
4491.40351,0.01257
4493.33198,0.00954
4495.26044,0.01129
4497.18891,0.01732
4499.11738,0.02031
4501.04585,0.01592
4502.97432,0.01019
4504.90279,0.00885
4506.83126,0.00842
4508.75973,0.00832
4510.68819,0.01054
4512.61666,0.01105
4514.54513,0.00500
4516.47360,-0.00303
4518.40207,-0.00102
4520.33054,0.01026
4522.25901,0.01555
4524.18747,0.00939
4526.11594,0.00075
4528.04441,-0.00272
4529.97288,-0.00234
4531.90135,-0.00219
4533.82982,0.00318
4535.75829,0.01372
4537.68676,0.01522
4539.61522,0.00911
4541.54369,0.00599
4543.47216,0.00438
4545.40063,0.00382
4547.32910,0.00408
4549.25757,0.00196
4551.18604,-0.00106
4553.11450,-0.00284
4555.04297,-0.00128
4556.97144,0.00335
4558.89991,0.00632
4560.82838,0.00637
4562.75685,0.00659
4564.68532,0.00890
4566.61378,0.00925
4568.54225,0.00688
4570.47072,0.00546
4572.39919,0.00510
4574.32766,0.00788
4576.25613,0.01087
4578.18460,0.00808
4580.11307,0.00145
4582.04153,-0.00418
4583.97000,-0.00441
4585.89847,-0.00085
4587.82694,0.00176
4589.75541,0.00374
4591.68388,0.00405
4593.61235,0.00095
4595.54081,0.00043
4597.46928,0.00584
4599.39775,0.00791
4601.32622,0.00322
4603.25469,0.00019
4605.18316,0.00042
4607.11163,0.00028
4609.04010,-0.00078
4610.96856,-0.00255
4612.89703,-0.00156
4614.82550,0.00214
4616.75397,0.00475
4618.68244,0.00696
4620.61091,0.01025
4622.53938,0.01384
4624.46784,0.01384
4626.39631,0.00740
4628.32478,0.00583
4630.25325,0.01187
4632.18172,0.01039
4634.11019,0.00379
4636.03866,0.00487
4637.96713,0.00711
4639.89559,0.00580
4641.82406,0.00650
4643.75253,0.00658
4645.68100,0.00380
4647.60947,0.00418
4649.53794,0.00608
4651.46641,0.00671
4653.39487,0.01022
4655.32334,0.01303
4657.25181,0.01077
4659.18028,0.00699
4661.10875,0.00339
4663.03722,0.00065
4664.96569,-0.00126
4666.89416,-0.00425
4668.82262,-0.00737
4670.75109,-0.00613
4672.67956,-0.00066
4674.60803,0.00435
4676.53650,0.00662
4678.46497,0.00589
4680.39344,0.00218
4682.32190,-0.00124
4684.25037,0.00154
4686.17884,0.00608
4688.10731,0.00541
4690.03578,0.00267
4691.96425,0.00056
4693.89272,-0.00121
4695.82119,0.00038
4697.74965,0.00550
4699.67812,0.01037
4701.60659,0.01064
4703.53506,0.00722
4705.46353,0.00494
4707.39200,0.00107
4709.32047,-0.00568
4711.24893,-0.00328
4713.17740,0.00871
4715.10587,0.01475
4717.03434,0.01262
4718.96281,0.00899
4720.89128,0.00542
4722.81975,0.00469
4724.74821,0.00637
4726.67668,0.00545
4728.60515,0.00421
4730.53362,0.00185
4732.46209,-0.00724
4734.39056,-0.01224
4736.31903,-0.00552
4738.24750,-0.00151
4740.17596,-0.00509
4742.10443,-0.00741
4744.03290,-0.00328
4745.96137,0.00604
4747.88984,0.01068
4749.81831,0.00264
4751.74678,-0.01028
4753.67524,-0.01070
4755.60371,0.00284
4757.53218,0.01033
4759.46065,0.00356
4761.38912,-0.00406
4763.31759,-0.00296
4765.24606,0.00058
4767.17453,0.00050
4769.10299,0.00289
4771.03146,0.00649
4772.95993,0.00659
4774.88840,0.00894
4776.81687,0.00995
4778.74534,0.00395
4780.67381,-0.00186
4782.60227,0.00255
4784.53074,0.01237
4786.45921,0.01257
4788.38768,0.00654
4790.31615,0.00249
4792.24462,-0.00235
4794.17309,-0.00613
4796.10156,-0.00692
4798.03002,-0.00540
4799.95849,-0.00109
4801.88696,0.00062
4803.81543,-0.00072
4805.74390,0.00371
4807.67237,0.00932
4809.60084,0.00989
4811.52930,0.01007
4813.45777,0.00771
4815.38624,0.00181
4817.31471,-0.00456
4819.24318,-0.00875
4821.17165,-0.00562
4823.10012,0.00392
4825.02859,0.01242
4826.95705,0.01657
4828.88552,0.01848
4830.81399,0.01831
4832.74246,0.01489
4834.67093,0.01174
4836.59940,0.00842
4838.52787,0.00162
4840.45633,-0.00213
4842.38480,0.00160
4844.31327,0.00933
4846.24174,0.01519
4848.17021,0.01408
4850.09868,0.00792
4852.02715,-0.00131
4853.95562,-0.00848
4855.88408,-0.00476
4857.81255,0.00459
4859.74102,0.00806
4861.66949,0.00606
4863.59796,0.00456
4865.52643,0.00665
4867.45490,0.00915
4869.38336,0.00604
4871.31183,0.00195
4873.24030,0.00408
4875.16877,0.00844
4877.09724,0.00636
4879.02571,0.00331
4880.95418,0.00825
4882.88265,0.01225
4884.81111,0.01006
4886.73958,0.00424
4888.66805,-0.00445
4890.59652,-0.00748
4892.52499,-0.00032
4894.45346,0.00604
4896.38193,0.00410
4898.31039,0.00421
4900.23886,0.01033
4902.16733,0.00934
4904.09580,-0.00082
4906.02427,-0.00455
4907.95274,0.00506
4909.88121,0.01234
4911.80967,0.00945
4913.73814,0.00545
4915.66661,0.00165
4917.59508,-0.00149
4919.52355,0.00073
4921.45202,0.00689
4923.38049,0.01247
4925.30896,0.01446
4927.23742,0.01553
4929.16589,0.01742
4931.09436,0.01547
4933.02283,0.00800
4934.95130,0.00299
4936.87977,0.00616
4938.80824,0.01097
4940.73670,0.01232
4942.66517,0.00947
4944.59364,0.00417
4946.52211,0.00166
4948.45058,-0.00117
4950.37905,-0.00745
4952.30752,-0.00704
4954.23599,0.00012
4956.16445,0.00520
4958.09292,0.00956
4960.02139,0.01065
4961.94986,0.00351
4963.87833,-0.00403
4965.80680,-0.00443
4967.73527,-0.00214
4969.66373,-0.00263
4971.59220,-0.00053
4973.52067,0.01096
4975.44914,0.02265
4977.37761,0.01920
4979.30608,0.00299
4981.23455,-0.01209
4983.16302,-0.01603
4985.09148,-0.00840
4987.01995,0.00089
4988.94842,0.00780
4990.87689,0.01582
4992.80536,0.01942
4994.73383,0.01181
4996.66230,-0.00056
4998.59076,-0.00527
5000.51923,0.00012
5002.44770,0.00966
5004.37617,0.01781
5006.30464,0.02207
5008.23311,0.02305
5010.16158,0.02257
5012.09005,0.02091
5014.01851,0.01784
5015.94698,0.01448
5017.87545,0.01024
5019.80392,0.00549
5021.73239,-0.00132
5023.66086,-0.01271
5025.58933,-0.01998
5027.51779,-0.01623
5029.44626,-0.00628
5031.37473,0.00631
5033.30320,0.01301
5035.23167,0.00651
5037.16014,0.00163
5039.08861,0.01077
5041.01708,0.02569
5042.94554,0.03005
5044.87401,0.01605
5046.80248,0.00165
5048.73095,0.00085
5050.65942,0.00330
5052.58789,0.00299
5054.51636,-0.00284
5056.44482,-0.01216
5058.37329,-0.01191
5060.30176,-0.00185
5062.23023,0.00880
5064.15870,0.01781
5066.08717,0.01701
5068.01564,0.00619
5069.94410,-0.00069
5071.87257,-0.00447
5073.80104,-0.01227
5075.72951,-0.01832
5077.65798,-0.01463
5079.58645,-0.00597
5081.51492,-0.00034
5083.44339,0.00439
5085.37185,0.00652
5087.30032,0.00671
5089.22879,0.01303
5091.15726,0.01617
5093.08573,0.00828
5095.01420,0.00484
5096.94267,0.01265
5098.87113,0.01443
5100.79960,0.00407
5102.72807,0.00399
5104.65654,0.02139
5106.58501,0.03438
5108.51348,0.03340
5110.44195,0.02906
5112.37042,0.03095
5114.29888,0.03480
5116.22735,0.02504
5118.15582,0.00504
5120.08429,-0.00251
5122.01276,0.00813
5123.94123,0.01948
5125.86970,0.01705
5127.79816,0.00885
5129.72663,0.00783
5131.65510,0.00876
5133.58357,0.00535
5135.51204,0.00393
5137.44051,0.00493
5139.36898,0.00460
5141.29745,0.01191
5143.22591,0.02390
5145.15438,0.02839
5147.08285,0.03334
5149.01132,0.04148
5150.93979,0.04559
5152.86826,0.04765
5154.79673,0.03940
5156.72519,0.01753
5158.65366,0.00996
5160.58213,0.01869
5162.51060,0.01814
5164.43907,0.01242
5166.36754,0.01632
5168.29601,0.02675
5170.22448,0.03438
5172.15294,0.03262
5174.08141,0.02010
5176.00988,0.00892
5177.93835,0.01734
5179.86682,0.03085
5181.79529,0.02518
5183.72376,0.01260
5185.65222,0.00769
5187.58069,0.00578
5189.50916,0.00854
5191.43763,0.01640
5193.36610,0.01743
5195.29457,0.01004
5197.22304,0.00777
5199.15151,0.01556
5201.07997,0.02188
5203.00844,0.02347
5204.93691,0.02683
5206.86538,0.03321
5208.79385,0.04274
5210.72232,0.04492
5212.65079,0.03258
5214.57925,0.02459
5216.50772,0.02900
5218.43619,0.03256
5220.36466,0.03288
5222.29313,0.03269
5224.22160,0.03100
5226.15007,0.02665
5228.07854,0.01878
5230.00700,0.01298
5231.93547,0.01267
5233.86394,0.01261
5235.79241,0.01201
5237.72088,0.01689
5239.64935,0.02407
5241.57782,0.02498
5243.50628,0.02093
5245.43475,0.01990
5247.36322,0.02424
5249.29169,0.02691
5251.22016,0.02090
5253.14863,0.01184
5255.07710,0.01138
5257.00556,0.01955
5258.93403,0.02753
5260.86250,0.03099
5262.79097,0.02900
5264.71944,0.03134
5266.64791,0.03682
5268.57638,0.02970
5270.50485,0.02282
5272.43331,0.02931
5274.36178,0.03398
5276.29025,0.03229
5278.21872,0.03356
5280.14719,0.03821
5282.07566,0.04009
5284.00413,0.03922
5285.93259,0.03588
5287.86106,0.02722
5289.78953,0.02311
5291.71800,0.02841
5293.64647,0.02108
5295.57494,-0.00106
5297.50341,-0.01145
5299.43188,0.00411
5301.36034,0.03559
5303.28881,0.05148
5305.21728,0.03676
5307.14575,0.02579
5309.07422,0.03931
5311.00269,0.05301
5312.93116,0.05610
5314.85962,0.05403
5316.78809,0.04438
5318.71656,0.02886
5320.64503,0.01786
5322.57350,0.01503
5324.50197,0.01377
5326.43044,0.01240
5328.35891,0.02626
5330.28737,0.04941
5332.21584,0.05231
5334.14431,0.03830
5336.07278,0.03347
5338.00125,0.03917
5339.92972,0.03781
5341.85819,0.03119
5343.78665,0.03448
5345.71512,0.04311
5347.64359,0.04771
5349.57206,0.05563
5351.50053,0.07006
5353.42900,0.07250
5355.35747,0.05043
5357.28594,0.03538
5359.21440,0.04172
5361.14287,0.05343
5363.07134,0.06055
5364.99981,0.06067
5366.92828,0.05561
5368.85675,0.05179
5370.78522,0.04847
5372.71368,0.04246
5374.64215,0.04232
5376.57062,0.05222
5378.49909,0.05650
5380.42756,0.04695
5382.35603,0.02988
5384.28450,0.01854
5386.21297,0.01629
5388.14143,0.00883
5390.06990,-0.00487
5391.99837,-0.01403
5393.92684,-0.01118
5395.85531,-0.00318
5397.78378,0.00529
5399.71225,0.02498
5401.64071,0.04629
5403.56918,0.04592
5405.49765,0.03679
5407.42612,0.04712
5409.35459,0.06139
5411.28306,0.04792
5413.21153,0.02024
5415.13999,0.01586
5417.06846,0.03004
5418.99693,0.03611
5420.92540,0.03535
5422.85387,0.04070
5424.78234,0.04317
5426.71081,0.04527
5428.63928,0.06000
5430.56774,0.06821
5432.49621,0.05642
5434.42468,0.04299
5436.35315,0.03660
5438.28162,0.02764
5440.21009,0.01693
5442.13856,0.01121
5444.06702,0.01903
5445.99549,0.04459
5447.92396,0.06705
5449.85243,0.06835
5451.78090,0.06150
5453.70937,0.05815
5455.63784,0.05300
5457.56631,0.04538
5459.49477,0.04261
5461.42324,0.04868
5463.35171,0.06035
5465.28018,0.05963
5467.20865,0.04545
5469.13712,0.03501
5471.06559,0.02462
5472.99405,0.02115
5474.92252,0.04321
5476.85099,0.06049
5478.77946,0.04703
5480.70793,0.03074
5482.63640,0.03517
5484.56487,0.05524
5486.49334,0.06949
5488.42180,0.06345
5490.35027,0.04075
5492.27874,0.01661
5494.20721,0.01317
5496.13568,0.03412
5498.06415,0.05476
5499.99262,0.05649
5501.92108,0.04725
5503.84955,0.04018
5505.77802,0.03370
5507.70649,0.02487
5509.63496,0.02817
5511.56343,0.04766
5513.49190,0.06198
5515.42037,0.06004
5517.34883,0.05237
5519.27730,0.05041
5521.20577,0.04505
5523.13424,0.03099
5525.06271,0.02866
5526.99118,0.03649
5528.91965,0.04186
5530.84811,0.05122
5532.77658,0.05710
5534.70505,0.05544
5536.63352,0.06208
5538.56199,0.07063
5540.49046,0.06443
5542.41893,0.05753
5544.34740,0.06320
5546.27586,0.06923
5548.20433,0.06234
5550.13280,0.04244
5552.06127,0.02362
5553.98974,0.01259
5555.91821,0.01027
5557.84668,0.02821
5559.77514,0.05052
5561.70361,0.05063
5563.63208,0.03718
5565.56055,0.03159
5567.48902,0.04273
5569.41749,0.05332
5571.34596,0.04792
5573.27443,0.03928
5575.20289,0.03624
5577.13136,0.03733
5579.05983,0.04140
5580.98830,0.05016
5582.91677,0.06573
5584.84524,0.08266
5586.77371,0.09490
5588.70217,0.08827
5590.63064,0.06072
5592.55911,0.03536
5594.48758,0.02743
5596.41605,0.03361
5598.34452,0.03951
5600.27299,0.03988
5602.20145,0.03718
5604.12992,0.03381
5606.05839,0.03874
5607.98686,0.04708
5609.91533,0.04623
5611.84380,0.03762
5613.77227,0.02791
5615.70074,0.02704
5617.62920,0.03941
5619.55767,0.06022
5621.48614,0.08025
5623.41461,0.08180
5625.34308,0.06795
5627.27155,0.05941
5629.20002,0.05383
5631.12848,0.04794
5633.05695,0.04640
5634.98542,0.04614
5636.91389,0.04948
5638.84236,0.06084
5640.77083,0.07510
5642.69930,0.08410
5644.62777,0.07732
5646.55623,0.05385
5648.48470,0.03694
5650.41317,0.03955
5652.34164,0.04352
5654.27011,0.03196
5656.19858,0.01749
5658.12705,0.01951
5660.05551,0.03028
5661.98398,0.03136
5663.91245,0.02850
5665.84092,0.03517
5667.76939,0.04001
5669.69786,0.03011
5671.62633,0.01840
5673.55480,0.02421
5675.48326,0.03585
5677.41173,0.02768
5679.34020,0.01493
5681.26867,0.01891
5683.19714,0.03107
5685.12561,0.04561
5687.05408,0.06597
5688.98254,0.08176
5690.91101,0.07751
5692.83948,0.07597
5694.76795,0.09076
5696.69642,0.08276
5698.62489,0.04794
5700.55336,0.02499
5702.48183,0.02042
5704.41029,0.03049
5706.33876,0.05080
5708.26723,0.06723
5710.19570,0.07000
5712.12417,0.06296
5714.05264,0.06545
5715.98111,0.07629
5717.90957,0.07305
5719.83804,0.05831
5721.76651,0.05540
5723.69498,0.06868
5725.62345,0.07602
5727.55192,0.07099
5729.48039,0.06962
5731.40886,0.06676
5733.33732,0.05340
5735.26579,0.04939
5737.19426,0.06443
5739.12273,0.07277
5741.05120,0.05877
5742.97967,0.03281
5744.90814,0.01233
5746.83660,0.00960
5748.76507,0.02200
5750.69354,0.03336
5752.62201,0.03972
5754.55048,0.04846
5756.47895,0.04444
5758.40742,0.02257
5760.33588,0.01500
5762.26435,0.02797
5764.19282,0.03564
5766.12129,0.04714
5768.04976,0.06161
5769.97823,0.05951
5771.90670,0.06145
5773.83517,0.07959
5775.76363,0.09218
5777.69210,0.08942
5779.62057,0.07303
5781.54904,0.04410
5783.47751,0.02040
5785.40598,0.02662
5787.33445,0.05459
5789.26291,0.07194
5791.19138,0.05690
5793.11985,0.02598
5795.04832,0.01689
5796.97679,0.02954
5798.90526,0.04171
5800.83373,0.04747
5802.76220,0.05115
5804.69066,0.05612
5806.61913,0.05413
5808.54760,0.03900
5810.47607,0.02182
5812.40454,0.01595
5814.33301,0.01015
5816.26148,-0.00259
5818.18994,-0.00087
5820.11841,0.01730
5822.04688,0.03447
5823.97535,0.04764
5825.90382,0.05592
5827.83229,0.04414
5829.76076,0.01428
5831.68923,0.00547
5833.61769,0.02832
5835.54616,0.05547
5837.47463,0.07690
5839.40310,0.08766
5841.33157,0.07704
5843.26004,0.06199
5845.18851,0.06272
5847.11697,0.06895
5849.04544,0.06132
5850.97391,0.05123
5852.90238,0.05714
5854.83085,0.05414
5856.75932,0.03999
5858.68779,0.05546
5860.61626,0.08915
5862.54472,0.08788
5864.47319,0.04854
5866.40166,0.01495
5868.33013,0.01834
5870.25860,0.04357
5872.18707,0.04586
5874.11554,0.01197
5876.04400,-0.02740
5877.97247,-0.03248
5879.90094,-0.00449
5881.82941,0.02089
5883.75788,0.03716
5885.68635,0.05646
5887.61482,0.07440
5889.54329,0.06354
5891.47175,0.02509
5893.40022,0.00592
5895.32869,0.01955
5897.25716,0.04747
5899.18563,0.06215
5901.11410,0.04081
5903.04257,0.00985
5904.97103,0.00677
5906.89950,0.02432
5908.82797,0.04363
5910.75644,0.06557
5912.68491,0.08465
5914.61338,0.07899
5916.54185,0.07205
5918.47032,0.08185
5920.39878,0.07070
5922.32725,0.04150
5924.25572,0.02309
5926.18419,0.02114
5928.11266,0.04161
5930.04113,0.06386
5931.96960,0.05296
5933.89806,0.02763
5935.82653,0.02481
5937.75500,0.02674
5939.68347,0.03474
5941.61194,0.07147
5943.54041,0.10169
5945.46888,0.09321
5947.39734,0.06769
5949.32581,0.05328
5951.25428,0.05486
5953.18275,0.05451
5955.11122,0.04616
5957.03969,0.05223
5958.96816,0.06820
5960.89663,0.06591
5962.82509,0.06558
5964.75356,0.07063
5966.68203,0.04870
5968.61050,0.02869
5970.53897,0.05041
5972.46744,0.06985
5974.39591,0.05142
5976.32437,0.03220
5978.25284,0.02597
5980.18131,0.01544
5982.10978,0.01871
5984.03825,0.03856
5985.96672,0.04372
5987.89519,0.04252
5989.82366,0.05844
5991.75212,0.08313
5993.68059,0.10184
5995.60906,0.11042
5997.53753,0.09761
5999.46600,0.06396
6001.39447,0.04031
6003.32294,0.03808
6005.25140,0.04040
6007.17987,0.03789
6009.10834,0.04115
6011.03681,0.06325
6012.96528,0.07089
6014.89375,0.03571
6016.82222,0.00292
6018.75069,0.01403
6020.67915,0.04187
6022.60762,0.05695
6024.53609,0.06936
6026.46456,0.08012
6028.39303,0.06635
6030.32150,0.04642
6032.24997,0.06323
6034.17843,0.09884
6036.10690,0.11043
6038.03537,0.08895
6039.96384,0.04420
6041.89231,0.01057
6043.82078,0.02232
6045.74925,0.04481
6047.67772,0.03470
6049.60618,0.02236
6051.53465,0.03665
6053.46312,0.03573
6055.39159,0.02178
6057.32006,0.03804
6059.24853,0.06536
6061.17700,0.07095
6063.10546,0.05573
6065.03393,0.05307
6066.96240,0.06022
6068.89087,0.04287
6070.81934,0.02109
6072.74781,0.03049
6074.67628,0.05446
6076.60475,0.07687
6078.53321,0.10227
6080.46168,0.11023
6082.39015,0.10696
6084.31862,0.10817
6086.24709,0.10634
6088.17556,0.10213
6090.10403,0.09833
6092.03249,0.09545
6093.96096,0.07877
6095.88943,0.07165
6097.81790,0.10319
6099.74637,0.12787
6101.67484,0.10299
6103.60331,0.05067
6105.53177,0.01748
6107.46024,0.03045
6109.38871,0.07278
6111.31718,0.08924
6113.24565,0.07119
6115.17412,0.05525
6117.10259,0.05858
6119.03106,0.08855
6120.95952,0.11808
6122.88799,0.11467
6124.81646,0.11204
6126.74493,0.13677
6128.67340,0.15569
6130.60187,0.15339
6132.53034,0.12263
6134.45880,0.06602
6136.38727,0.02237
6138.31574,0.00405
6140.24421,0.01408
6142.17268,0.05450
6144.10115,0.08315
6146.02962,0.07347
6147.95809,0.05103
6149.88655,0.03130
6151.81502,0.02286
6153.74349,0.03860
6155.67196,0.05628
6157.60043,0.05744
6159.52890,0.06073
6161.45737,0.09335
6163.38583,0.14387
6165.31430,0.16554
6167.24277,0.13051
6169.17124,0.04066
6171.09971,-0.04717
6173.02818,-0.04956
6174.95665,0.02049
6176.88512,0.09303
6178.81358,0.12320
6180.74205,0.09493
6182.67052,0.05523
6184.59899,0.04977
6186.52746,0.04251
6188.45593,0.02436
6190.38440,0.03542
6192.31286,0.05865
6194.24133,0.05466
6196.16980,0.03310
6198.09827,0.02635
6200.02674,0.03493
6201.95521,0.05086
6203.88368,0.06089
6205.81215,0.05564
6207.74061,0.04814
6209.66908,0.02914
6211.59755,0.00493
6213.52602,0.00745
6215.45449,0.03251
6217.38296,0.06551
6219.31143,0.07625
6221.23989,0.05384
6223.16836,0.03749
6225.09683,0.03058
6227.02530,0.02635
6228.95377,0.06547
6230.88224,0.12339
6232.81071,0.12679
6234.73918,0.09132
6236.66764,0.07428
6238.59611,0.07956
6240.52458,0.09104
6242.45305,0.09648
6244.38152,0.08957
6246.30999,0.06691
6248.23846,0.02526
6250.16692,-0.00549
6252.09539,-0.00007
6254.02386,0.01177
6255.95233,0.01493
6257.88080,0.01574
6259.80927,0.00372
6261.73774,-0.01475
6263.66621,-0.02587
6265.59467,-0.03394
6267.52314,-0.02694
6269.45161,-0.01012
6271.38008,0.00875
6273.30855,0.04463
6275.23702,0.07126
6277.16549,0.06043
6279.09395,0.03610
6281.02242,0.02077
6282.95089,0.02785
6284.87936,0.04966
6286.80783,0.06013
6288.73630,0.07323
6290.66477,0.11207
6292.59323,0.12411
6294.52170,0.08758
6296.45017,0.06476
6298.37864,0.06104
6300.30711,0.06022
6302.23558,0.07803
6304.16405,0.08849
6306.09252,0.07904
6308.02098,0.07493
6309.94945,0.07584
6311.87792,0.07598
6313.80639,0.07847
6315.73486,0.07190
6317.66333,0.04989
6319.59180,0.04172
6321.52026,0.06649
6323.44873,0.09093
6325.37720,0.09309
6327.30567,0.08071
6329.23414,0.07641
6331.16261,0.08858
6333.09108,0.07872
6335.01955,0.04807
6336.94801,0.03193
6338.87648,0.03166
6340.80495,0.03478
6342.73342,0.04020
6344.66189,0.05397
6346.59036,0.05300
6348.51883,0.02260
6350.44729,-0.00817
6352.37576,-0.01592
6354.30423,0.00333
6356.23270,0.03784
6358.16117,0.06373
6360.08964,0.07296
6362.01811,0.07646
6363.94658,0.05465
6365.87504,-0.00805
6367.80351,-0.03604
6369.73198,0.00769
6371.66045,0.07242
6373.58892,0.11542
6375.51739,0.09231
6377.44586,0.03470
6379.37432,0.01260
6381.30279,0.02586
6383.23126,0.06014
6385.15973,0.08300
6387.08820,0.03688
6389.01667,-0.03770
6390.94514,-0.04932
6392.87361,0.00114
6394.80207,0.04299
6396.73054,0.06322
6398.65901,0.07321
6400.58748,0.07858
6402.51595,0.10283
6404.44442,0.12436
6406.37289,0.10131
6408.30135,0.05821
6410.22982,0.02543
6412.15829,0.00103
6414.08676,-0.01934
6416.01523,-0.03257
6417.94370,-0.01059
6419.87217,0.03718
6421.80064,0.08476
6423.72910,0.12389
6425.65757,0.09432
6427.58604,0.00318
6429.51451,-0.02603
6431.44298,0.03432
6433.37145,0.08583
6435.29992,0.09838
6437.22838,0.08148
6439.15685,0.04996
6441.08532,0.03441
6443.01379,0.02891
6444.94226,0.04177
6446.87073,0.06769
6448.79920,0.07300
6450.72766,0.06579
6452.65613,0.05613
6454.58460,0.04504
6456.51307,0.05035
6458.44154,0.04795
6460.37001,0.02504
6462.29848,0.01958
6464.22695,0.03043
6466.15541,0.03435
6468.08388,0.02307
6470.01235,0.03264
6471.94082,0.08026
6473.86929,0.07819
6475.79776,0.02223
6477.72623,-0.02703
6479.65469,-0.05489
6481.58316,-0.01327
6483.51163,0.08156
6485.44010,0.13938
6487.36857,0.13752
6489.29704,0.08312
6491.22551,-0.00187
6493.15398,-0.04489
6495.08244,-0.00812
6497.01091,0.03696
6498.93938,0.04736
6500.86785,0.06453
6502.79632,0.08987
6504.72479,0.07717
6506.65326,0.04350
6508.58172,0.02906
6510.51019,0.03994
6512.43866,0.05439
6514.36713,0.03566
6516.29560,0.00017
6518.22407,0.01883
6520.15254,0.08247
6522.08101,0.11807
6524.00947,0.10641
6525.93794,0.09406
6527.86641,0.08890
6529.79488,0.06484
6531.72335,0.04017
6533.65182,0.00650
6535.58029,-0.03065
6537.50875,-0.02145
6539.43722,0.01605
6541.36569,0.03505
6543.29416,0.03637
6545.22263,0.04635
6547.15110,0.05865
6549.07957,0.03817
6551.00804,0.01579
6552.93650,0.04116
6554.86497,0.07128
6556.79344,0.04747
6558.72191,-0.03350
6560.65038,-0.09677
6562.57885,-0.07709
6564.50732,-0.02380
6566.43578,-0.02373
6568.36425,-0.07433
6570.29272,-0.07799
6572.22119,-0.01432
6574.14966,0.00756
6576.07813,-0.03402
6578.00660,-0.05392
6579.93507,-0.01780
6581.86353,0.02012
6583.79200,0.03556
6585.72047,0.03780
6587.64894,0.03229
6589.57741,0.04324
6591.50588,0.05554
6593.43435,0.04855
6595.36281,0.05365
6597.29128,0.06605
6599.21975,0.05764
6601.14822,0.05334
6603.07669,0.06978
6605.00516,0.06340
6606.93363,0.02056
6608.86210,-0.04016
6610.79056,-0.08420
6612.71903,-0.05033
6614.64750,0.00820
6616.57597,0.02414
6618.50444,0.05903
6620.43291,0.08013
6622.36138,0.04255
6624.28984,0.02308
6626.21831,0.05397
6628.14678,0.11535
6630.07525,0.16907
6632.00372,0.15041
6633.93219,0.08149
6635.86066,0.02094
6637.78912,-0.00112
6639.71759,0.01675
6641.64606,0.03682
6643.57453,0.02044
6645.50300,-0.01957
6647.43147,-0.02474
6649.35994,0.02038
6651.28841,0.07814
6653.21687,0.12005
6655.14534,0.09758
6657.07381,0.02367
6659.00228,-0.00783
6660.93075,0.00206
6662.85922,0.03562
6664.78769,0.07104
6666.71615,0.07053
6668.64462,0.07585
6670.57309,0.12121
6672.50156,0.14899
6674.43003,0.11660
6676.35850,0.06397
6678.28697,0.05719
6680.21544,0.09942
6682.14390,0.11392
6684.07237,0.09063
6686.00084,0.07760
6687.92931,0.05710
6689.85778,0.01780
6691.78625,0.01358
6693.71472,0.04901
6695.64318,0.07226
6697.57165,0.05640
6699.50012,0.01056
6701.42859,-0.05081
6703.35706,-0.09651
6705.28553,-0.10446
6707.21400,-0.04631
6709.14247,0.03400
6711.07093,0.04026
6712.99940,-0.00505
6714.92787,-0.03877
6716.85634,-0.03795
6718.78481,-0.02306
6720.71328,-0.00447
6722.64175,0.05471
6724.57021,0.12671
6726.49868,0.16622
6728.42715,0.18965
6730.35562,0.18116
6732.28409,0.13311
6734.21256,0.08262
6736.14103,0.05921
6738.06950,0.07012
6739.99796,0.08011
6741.92643,0.06246
6743.85490,0.04732
6745.78337,0.04985
6747.71184,0.04723
6749.64031,0.02384
6751.56878,0.00500
6753.49724,0.01273
6755.42571,0.03403
6757.35418,0.06977
6759.28265,0.09253
6761.21112,0.05886
6763.13959,0.02589
6765.06806,0.02549
6766.99653,0.03248
6768.92499,0.04448
6770.85346,0.05651
6772.78193,0.06809
6774.71040,0.08581
6776.63887,0.08912
6778.56734,0.06424
6780.49581,0.02859
6782.42427,-0.01302
6784.35274,-0.05684
6786.28121,-0.05325
6788.20968,0.01435
6790.13815,0.07467
6792.06662,0.06376
6793.99509,0.00127
6795.92355,-0.04674
6797.85202,-0.04652
6799.78049,-0.02462
6801.70896,-0.00733
6803.63743,0.00863
6805.56590,0.03003
6807.49437,0.05914
6809.42284,0.11295
6811.35130,0.18677
6813.27977,0.23099
6815.20824,0.20571
6817.13671,0.13426
6819.06518,0.09287
6820.99365,0.07587
6822.92212,0.06067
6824.85058,0.04945
6826.77905,0.04205
6828.70752,0.07289
6830.63599,0.10398
6832.56446,0.06467
6834.49293,0.00304
6836.42140,-0.00647
6838.34987,0.02572
6840.27833,0.02888
6842.20680,-0.00191
6844.13527,-0.02688
6846.06374,-0.04204
6847.99221,-0.04361
6849.92068,0.01795
6851.84915,0.11114
6853.77761,0.14242
6855.70608,0.11055
6857.63455,0.07568
6859.56302,0.03358
6861.49149,-0.02091
6863.41996,-0.04785
6865.34843,-0.01467
6867.27690,0.05887
6869.20536,0.05857
6871.13383,-0.00340
6873.06230,-0.02312
6874.99077,-0.01516
6876.91924,0.00975
6878.84771,0.05571
6880.77618,0.05373
6882.70464,-0.00527
6884.63311,-0.04269
6886.56158,-0.02749
6888.49005,0.00160
6890.41852,0.04324
6892.34699,0.08487
6894.27546,0.06314
6896.20393,0.01038
6898.13239,0.01821
6900.06086,0.08692
6901.98933,0.12205
6903.91780,0.09782
6905.84627,0.10102
6907.77474,0.13391
6909.70321,0.10488
6911.63167,0.02281
6913.56014,-0.02626
6915.48861,0.00472
6917.41708,0.05203
6919.34555,0.03727
6921.27402,-0.00753
6923.20249,-0.01229
6925.13096,0.00854
6927.05942,0.01738
6928.98789,-0.00653
6930.91636,-0.04572
6932.84483,-0.03200
6934.77330,0.00432
6936.70177,-0.00122
6938.63024,0.00903
6940.55870,0.06178
6942.48717,0.05717
6944.41564,0.03004
6946.34411,0.06287
6948.27258,0.07909
6950.20105,0.02886
6952.12952,0.02954
6954.05799,0.12354
6955.98645,0.19671
6957.91492,0.21000
6959.84339,0.19932
6961.77186,0.13913
6963.70033,0.05511
6965.62880,0.00169
6967.55727,0.00901
6969.48573,0.08330
6971.41420,0.12841
6973.34267,0.03742
6975.27114,-0.05205
6977.19961,0.02586
6979.12808,0.11270
6981.05655,0.07534
6982.98501,-0.03801
6984.91348,-0.11401
6986.84195,-0.07638
6988.77042,-0.01202
6990.69889,-0.00562
6992.62736,0.00565
6994.55583,0.02899
6996.48430,0.01296
6998.41276,-0.03389
7000.34123,-0.02466
7002.26970,0.07362
7004.19817,0.15751
7006.12664,0.13411
7008.05511,0.04783
7009.98358,0.02222
7011.91204,0.05474
7013.84051,0.06581
7015.76898,0.03261
7017.69745,-0.01968
7019.62592,-0.06639
7021.55439,-0.05047
7023.48286,0.02543
7025.41133,0.05372
7027.33979,-0.01371
7029.26826,-0.08777
7031.19673,-0.05295
7033.12520,0.05513
7035.05367,0.12742
7036.98214,0.12629
7038.91061,0.10494
7040.83907,0.08201
7042.76754,0.05338
7044.69601,0.04084
7046.62448,0.04060
7048.55295,0.02505
7050.48142,-0.01439
7052.40989,-0.05467
7054.33836,-0.05483
7056.26682,-0.01283
7058.19529,0.05284
7060.12376,0.08340
7062.05223,0.05147
7063.98070,0.00994
7065.90917,-0.00785
7067.83764,0.01015
7069.76610,0.06056
7071.69457,0.07105
7073.62304,0.04098
7075.55151,0.01890
7077.47998,0.00085
7079.40845,0.02712
7081.33692,0.10025
7083.26539,0.11890
7085.19385,0.09473
7087.12232,0.08222
7089.05079,0.11132
7090.97926,0.14618
7092.90773,0.09113
7094.83620,-0.05048
7096.76467,-0.15820
7098.69313,-0.10721
7100.62160,0.02689
7102.55007,0.04343
7104.47854,-0.00687
7106.40701,0.05127
7108.33548,0.13950
7110.26395,0.13129
7112.19242,0.07969
7114.12088,0.04121
7116.04935,0.01082
7117.97782,-0.01900
7119.90629,-0.00971
7121.83476,0.04092
7123.76323,0.06584
7125.69170,0.05388
7127.62016,0.07692
7129.54863,0.11939
7131.47710,0.12436
7133.40557,0.10713
7135.33404,0.09694
7137.26251,0.10418
7139.19098,0.12538
7141.11944,0.20604
7143.04791,0.27337
7144.97638,0.09580
7146.90485,-0.15291
7148.83332,-0.11766
7150.76179,0.05467
7152.69026,0.08732
7154.61873,-0.01462
7156.54719,-0.03783
7158.47566,-0.00075
7160.40413,0.03608
7162.33260,0.11473
7164.26107,0.21851
7166.18954,0.25548
7168.11801,0.20682
7170.04647,0.18854
7171.97494,0.24083
7173.90341,0.23995
7175.83188,0.14367
7177.76035,0.02815
7179.68882,-0.06928
7181.61729,-0.11725
7183.54576,-0.07891
7185.47422,-0.02421
7187.40269,-0.00368
7189.33116,-0.03326
7191.25963,-0.05863
7193.18810,-0.02252
7195.11657,-0.00124
7197.04504,-0.01200
7198.97350,0.03631
7200.90197,0.10982
7202.83044,0.12960
7204.75891,0.07814
7206.68738,-0.05335
7208.61585,-0.15477
7210.54432,-0.11298
7212.47279,-0.04141
7214.40125,-0.10716
7216.32972,-0.25520
7218.25819,-0.27700
7220.18666,-0.16980
7222.11513,-0.09424
7224.04360,-0.01330
7225.97207,0.12491
7227.90053,0.20415
7229.82900,0.15871
7231.75747,0.08258
7233.68594,0.05470
7235.61441,0.08286
7237.54288,0.10111
7239.47135,0.00608
7241.39982,-0.11911
7243.32828,-0.10383
7245.25675,-0.02043
7247.18522,-0.00314
7249.11369,-0.02830
7251.04216,-0.05682
7252.97063,-0.01748
7254.89910,0.08789
7256.82756,0.09892
7258.75603,0.00084
7260.68450,-0.09158
7262.61297,-0.09840
7264.54144,-0.09551
7266.46991,-0.05728
7268.39838,-0.00623
7270.32685,-0.00365
7272.25531,-0.04983
7274.18378,-0.08817
7276.11225,-0.05645
7278.04072,-0.00485
7279.96919,0.05672
7281.89766,0.16293
7283.82613,0.17468
7285.75459,0.05919
7287.68306,0.00222
7289.61153,0.05580
7291.54000,0.07292
7293.46847,0.01675
7295.39694,0.00809
7297.32541,0.06210
7299.25387,0.08216
7301.18234,0.04320
7303.11081,0.04469
7305.03928,0.13690
7306.96775,0.21791
7308.89622,0.16796
7310.82469,0.06049
7312.75316,0.03715
7314.68162,0.07054
7316.61009,0.11128
7318.53856,0.14889
7320.46703,0.18447
7322.39550,0.16460
7324.32397,0.05451
7326.25244,-0.08596
7328.18090,-0.18966
7330.10937,-0.22380
7332.03784,-0.22647
7333.96631,-0.14966
7335.89478,-0.02375
7337.82325,0.04874
7339.75172,0.05298
7341.68019,0.06340
7343.60865,0.08909
7345.53712,0.11650
7347.46559,0.16515
7349.39406,0.16931
7351.32253,0.16267
7353.25100,0.17007
7355.17947,0.06659
7357.10793,-0.16135
7359.03640,-0.32707
7360.96487,-0.24250
7362.89334,0.00222
7364.82181,0.14975
7366.75028,0.09765
7368.67875,-0.00134
7370.60722,0.00122
7372.53568,0.06101
7374.46415,0.08619
7376.39262,0.03742
7378.32109,0.01606
7380.24956,0.06249
7382.17803,0.14004
7384.10650,0.19034
7386.03496,0.17408
7387.96343,0.15061
7389.89190,0.20856
7391.82037,0.29607
7393.74884,0.31211
7395.67731,0.25368
7397.60578,0.18160
7399.53425,0.09253
7401.46271,-0.00479
7403.39118,-0.02117
7405.31965,0.02587
7407.24812,-0.00945
7409.17659,-0.05947
7411.10506,-0.02803
7413.03353,0.05683
7414.96199,0.15623
7416.89046,0.19677
7418.81893,0.14198
7420.74740,0.15122
7422.67587,0.20662
7424.60434,0.16790
7426.53281,0.07773
7428.46128,-0.01728
7430.38974,-0.13193
7432.31821,-0.17954
7434.24668,-0.13385
7436.17515,-0.09166
7438.10362,-0.08413
7440.03209,-0.00725
7441.96056,0.19383
7443.88902,0.32582
7445.81749,0.19992
7447.74596,-0.01227
7449.67443,-0.06781
7451.60290,0.02003
7453.53137,0.03883
7455.45984,-0.02684
7457.38831,-0.05983
7459.31677,-0.02873
7461.24524,-0.03768
7463.17371,-0.12969
7465.10218,-0.13021
7467.03065,0.02711
7468.95912,0.15400
7470.88759,0.15941
7472.81605,0.11835
7474.74452,0.11810
7476.67299,0.12290
7478.60146,0.10059
7480.52993,0.11935
7482.45840,0.18962
7484.38687,0.17363
7486.31533,0.08914
7488.24380,0.11968
7490.17227,0.21974
7492.10074,0.20328
7494.02921,0.14346
7495.95768,0.14958
7497.88615,0.18343
