399.19301,3.18681
401.12148,0.87784
403.04995,0.16932
404.97842,-0.02587
406.90689,-0.01309
408.83536,-0.03935
410.76382,-0.06601
412.69229,0.00341
414.62076,0.06343
416.54923,0.00350
418.47770,-0.10437
420.40617,-0.09389
422.33464,-0.03035
424.26311,0.03771
426.19157,0.09939
428.12004,0.13101
430.04851,0.13967
431.97698,0.07640
433.90545,0.00928
435.83392,0.02972
437.76239,0.06243
439.69085,0.05686
441.61932,0.01327
443.54779,-0.00931
445.47626,0.02739
447.40473,0.04046
449.33320,0.02411
451.26167,-0.00749
453.19013,-0.04610
455.11860,-0.04044
457.04707,-0.02014
458.97554,-0.01958
460.90401,-0.00352
462.83248,0.02547
464.76095,0.05651
466.68942,0.08692
468.61788,0.10651
470.54635,0.12487
472.47482,0.15194
474.40329,0.12146
476.33176,0.04841
478.26023,0.01978
480.18870,0.00077
482.11716,-0.01217
484.04563,0.04060
485.97410,0.12667
487.90257,0.14775
489.83104,0.12309
491.75951,0.10206
493.68798,0.07170
495.61645,0.02694
497.54491,-0.00728
499.47338,-0.00349
501.40185,0.01249
503.33032,-0.01030
505.25879,-0.04791
507.18726,-0.04771
509.11573,-0.01999
511.04419,0.00367
512.97266,0.02623
514.90113,0.04865
516.82960,0.05852
518.75807,0.04342
520.68654,0.02546
522.61501,0.03164
524.54348,0.04739
526.47194,0.04939
528.40041,0.04152
530.32888,0.04242
532.25735,0.06655
534.18582,0.09811
536.11429,0.10298
538.04276,0.08948
539.97122,0.09018
541.89969,0.09513
543.82816,0.08553
545.75663,0.07022
547.68510,0.06331
549.61357,0.05087
551.54204,0.01901
553.47051,0.00852
555.39897,0.03451
557.32744,0.05277
559.25591,0.05324
561.18438,0.05027
563.11285,0.04486
565.04132,0.04648
566.96979,0.05371
568.89825,0.05825
570.82672,0.06475
572.75519,0.07250
574.68366,0.07241
576.61213,0.06719
578.54060,0.06468
580.46907,0.06251
582.39754,0.06017
584.32600,0.05626
586.25447,0.05727
588.18294,0.06962
590.11141,0.08504
592.03988,0.09468
593.96835,0.08688
595.89682,0.06692
597.82528,0.05930
599.75375,0.07928
601.68222,0.10780
603.61069,0.11252
605.53916,0.09900
607.46763,0.08474
609.39610,0.07240
611.32456,0.06509
613.25303,0.07229
615.18150,0.08926
617.10997,0.09008
619.03844,0.06930
620.96691,0.05313
622.89538,0.05820
624.82385,0.06328
626.75231,0.04827
628.68078,0.03120
630.60925,0.03077
632.53772,0.03990
634.46619,0.05084
636.39466,0.06682
638.32313,0.08377
640.25159,0.09265
642.18006,0.09511
644.10853,0.08802
646.03700,0.07683
647.96547,0.07998
649.89394,0.08554
651.82241,0.07611
653.75088,0.06352
655.67934,0.05810
657.60781,0.05418
659.53628,0.04569
661.46475,0.04907
663.39322,0.06619
665.32169,0.07061
667.25016,0.05937
669.17862,0.06236
671.10709,0.07465
673.03556,0.07464
674.96403,0.06800
676.89250,0.07097
678.82097,0.08631
680.74944,0.09296
682.67791,0.08613
684.60637,0.07732
686.53484,0.07088
688.46331,0.06965
690.39178,0.06829
692.32025,0.06327
694.24872,0.06089
696.17719,0.06440
698.10565,0.07357
700.03412,0.08265
701.96259,0.08491
703.89106,0.08438
705.81953,0.08490
707.74800,0.07950
709.67647,0.06740
711.60494,0.05638
713.53340,0.05224
715.46187,0.05482
717.39034,0.06043
719.31881,0.07013
721.24728,0.07964
723.17575,0.08208
725.10422,0.08020
727.03268,0.07660
728.96115,0.07321
730.88962,0.07403
732.81809,0.08067
734.74656,0.08766
736.67503,0.08533
738.60350,0.07275
740.53197,0.06192
742.46043,0.06194
744.38890,0.06715
746.31737,0.07112
748.24584,0.07544
750.17431,0.08027
752.10278,0.07992
754.03125,0.07425
755.95971,0.07346
757.88818,0.07823
759.81665,0.07970
761.74512,0.07743
763.67359,0.07208
765.60206,0.06657
767.53053,0.07151
769.45900,0.08196
771.38746,0.08163
773.31593,0.07476
775.24440,0.07359
777.17287,0.07543
779.10134,0.07191
781.02981,0.06781
782.95828,0.07643
784.88674,0.08967
786.81521,0.09412
788.74368,0.09989
790.67215,0.10603
792.60062,0.09600
794.52909,0.07542
796.45756,0.06408
798.38602,0.06534
800.31449,0.06909
802.24296,0.06895
804.17143,0.06755
806.09990,0.06800
808.02837,0.07046
809.95684,0.07192
811.88531,0.07019
813.81377,0.06676
815.74224,0.06338
817.67071,0.06518
819.59918,0.06821
821.52765,0.06434
823.45612,0.06537
825.38459,0.07872
827.31305,0.09030
829.24152,0.08943
831.16999,0.07965
833.09846,0.07301
835.02693,0.07962
836.95540,0.08992
838.88387,0.08862
840.81234,0.08126
842.74080,0.07614
844.66927,0.07010
846.59774,0.06587
848.52621,0.06828
850.45468,0.07145
852.38315,0.07222
854.31162,0.07311
856.24008,0.07086
858.16855,0.06835
860.09702,0.07250
862.02549,0.07638
863.95396,0.07412
865.88243,0.06824
867.81090,0.05055
869.73937,0.02308
871.66783,0.01688
873.59630,0.03939
875.52477,0.06327
877.45324,0.07232
879.38171,0.07000
881.31018,0.06816
883.23865,0.06959
885.16711,0.06808
887.09558,0.06692
889.02405,0.07281
890.95252,0.08344
892.88099,0.09046
894.80946,0.09209
896.73793,0.09079
898.66640,0.08593
900.59486,0.08036
902.52333,0.07702
904.45180,0.07434
906.38027,0.07404
908.30874,0.07876
910.23721,0.08570
912.16568,0.09109
914.09414,0.09028
916.02261,0.08071
917.95108,0.07048
919.87955,0.06920
921.80802,0.07376
923.73649,0.07670
925.66496,0.07968
927.59343,0.08567
929.52189,0.09087
931.45036,0.09166
933.37883,0.08984
935.30730,0.08607
937.23577,0.08025
939.16424,0.07668
941.09271,0.07536
943.02117,0.07346
944.94964,0.07123
946.87811,0.06819
948.80658,0.06658
950.73505,0.07020
952.66352,0.07791
954.59199,0.08458
956.52045,0.08546
958.44892,0.08017
960.37739,0.07431
962.30586,0.07375
964.23433,0.07829
966.16280,0.08231
968.09127,0.08237
970.01974,0.08226
971.94820,0.08307
973.87667,0.07946
975.80514,0.07413
977.73361,0.07462
979.66208,0.07724
981.59055,0.07739
983.51902,0.07872
985.44748,0.08120
987.37595,0.08288
989.30442,0.08451
991.23289,0.08511
993.16136,0.08457
995.08983,0.08489
997.01830,0.08536
998.94677,0.08647
1000.87523,0.08997
1002.80370,0.09177
1004.73217,0.09077
1006.66064,0.09048
1008.58911,0.08851
1010.51758,0.08481
1012.44605,0.08379
1014.37451,0.08433
1016.30298,0.08289
1018.23145,0.08154
1020.15992,0.08544
1022.08839,0.08698
1024.01686,0.07803
1025.94533,0.07124
1027.87380,0.07135
1029.80226,0.07104
1031.73073,0.07396
1033.65920,0.07813
1035.58767,0.07528
1037.51614,0.07237
1039.44461,0.07752
1041.37308,0.08440
1043.30154,0.08495
1045.23001,0.08156
1047.15848,0.08010
1049.08695,0.08054
1051.01542,0.08475
1052.94389,0.09271
1054.87236,0.09691
1056.80083,0.09669
1058.72929,0.09374
1060.65776,0.08576
1062.58623,0.07925
1064.51470,0.08113
1066.44317,0.08573
1068.37164,0.08976
1070.30011,0.09484
1072.22857,0.09721
1074.15704,0.09168
1076.08551,0.08240
1078.01398,0.07683
1079.94245,0.07151
1081.87092,0.06817
1083.79939,0.07204
1085.72786,0.07598
1087.65632,0.07761
1089.58479,0.08228
1091.51326,0.08844
1093.44173,0.08986
1095.37020,0.08504
1097.29867,0.08017
1099.22714,0.08341
1101.15560,0.09175
1103.08407,0.09454
1105.01254,0.08870
1106.94101,0.08124
1108.86948,0.07965
1110.79795,0.08002
1112.72642,0.07810
1114.65489,0.07774
1116.58335,0.08121
1118.51182,0.08538
1120.44029,0.08525
1122.36876,0.08234
1124.29723,0.08167
1126.22570,0.08447
1128.15417,0.08810
1130.08263,0.08927
1132.01110,0.08683
1133.93957,0.08291
1135.86804,0.08379
1137.79651,0.09078
1139.72498,0.09438
1141.65345,0.08868
1143.58191,0.08293
1145.51038,0.08443
1147.43885,0.08569
1149.36732,0.08360
1151.29579,0.08477
1153.22426,0.08922
1155.15273,0.09283
1157.08120,0.09446
1159.00966,0.09243
1160.93813,0.08810
1162.86660,0.08610
1164.79507,0.08784
1166.72354,0.09211
1168.65201,0.09455
1170.58048,0.09155
1172.50894,0.08785
1174.43741,0.08792
1176.36588,0.08842
1178.29435,0.08782
1180.22282,0.08762
1182.15129,0.08868
1184.07976,0.09158
1186.00823,0.09280
1187.93669,0.09140
1189.86516,0.09231
1191.79363,0.09497
1193.72210,0.09468
1195.65057,0.09028
1197.57904,0.08580
1199.50751,0.08798
1201.43597,0.09493
1203.36444,0.09826
1205.29291,0.09607
1207.22138,0.09268
1209.14985,0.09187
1211.07832,0.09356
1213.00679,0.09517
1214.93526,0.09489
1216.86372,0.09342
1218.79219,0.09187
1220.72066,0.09105
1222.64913,0.09231
1224.57760,0.09213
1226.50607,0.08789
1228.43454,0.08551
1230.36300,0.08722
1232.29147,0.08891
1234.21994,0.09015
1236.14841,0.09257
1238.07688,0.09554
1240.00535,0.09756
1241.93382,0.09719
1243.86229,0.09491
1245.79075,0.09317
1247.71922,0.09268
1249.64769,0.09303
1251.57616,0.09313
1253.50463,0.09148
1255.43310,0.08950
1257.36157,0.08822
1259.29003,0.08664
1261.21850,0.08614
1263.14697,0.08845
1265.07544,0.09190
1267.00391,0.09364
1268.93238,0.09299
1270.86085,0.09113
1272.78932,0.09079
1274.71778,0.09416
1276.64625,0.09711
1278.57472,0.09527
1280.50319,0.09266
1282.43166,0.09223
1284.36013,0.09104
1286.28860,0.09027
1288.21706,0.09285
1290.14553,0.09651
1292.07400,0.09848
1294.00247,0.09814
1295.93094,0.09593
1297.85941,0.09353
1299.78788,0.09114
1301.71634,0.08713
1303.64481,0.08361
1305.57328,0.08601
1307.50175,0.09282
1309.43022,0.09587
1311.35869,0.09531
1313.28716,0.09771
1315.21563,0.10116
1317.14409,0.10086
1319.07256,0.09968
1321.00103,0.09973
1322.92950,0.09876
1324.85797,0.09659
1326.78644,0.09533
1328.71491,0.09689
1330.64337,0.09834
1332.57184,0.09694
1334.50031,0.09754
1336.42878,0.10294
1338.35725,0.10727
1340.28572,0.10330
1342.21419,0.09619
1344.14266,0.09390
1346.07112,0.09440
1347.99959,0.09428
1349.92806,0.09409
1351.85653,0.09565
1353.78500,0.09806
1355.71347,0.09873
1357.64194,0.09840
1359.57040,0.09918
1361.49887,0.10181
1363.42734,0.10490
1365.35581,0.10496
1367.28428,0.10269
1369.21275,0.10149
1371.14122,0.10273
1373.06969,0.10527
1374.99815,0.10504
1376.92662,0.10079
1378.85509,0.09746
1380.78356,0.09607
1382.71203,0.09528
1384.64050,0.09767
1386.56897,0.10314
1388.49743,0.10345
1390.42590,0.10017
1392.35437,0.10250
1394.28284,0.10898
1396.21131,0.11384
1398.13978,0.11638
1400.06825,0.11337
1401.99672,0.10671
1403.92518,0.10218
1405.85365,0.09850
1407.78212,0.09607
1409.71059,0.09817
1411.63906,0.10242
1413.56753,0.10554
1415.49600,0.11010
1417.42446,0.11798
1419.35293,0.11973
1421.28140,0.11290
1423.20987,0.10939
1425.13834,0.10959
1427.06681,0.11069
1428.99528,0.11168
1430.92375,0.11163
1432.85221,0.11390
1434.78068,0.12075
1436.70915,0.12431
1438.63762,0.11653
1440.56609,0.10892
1442.49456,0.10769
1444.42303,0.11070
1446.35149,0.11390
1448.27996,0.11287
1450.20843,0.10965
1452.13690,0.11163
1454.06537,0.12087
1455.99384,0.13460
1457.92231,0.13462
1459.85077,0.11848
1461.77924,0.11032
1463.70771,0.11041
1465.63618,0.10966
1467.56465,0.10619
1469.49312,0.10880
1471.42159,0.12082
1473.35006,0.12999
1475.27852,0.12332
1477.20699,0.11488
1479.13546,0.11138
1481.06393,0.10963
1482.99240,0.10978
1484.92087,0.11410
1486.84934,0.12141
1488.77780,0.12848
1490.70627,0.12866
1492.63474,0.12532
1494.56321,0.12530
1496.49168,0.12607
1498.42015,0.12308
1500.34862,0.11795
1502.27709,0.11579
1504.20555,0.12274
1506.13402,0.14358
1508.06249,0.15028
1509.99096,0.13594
1511.91943,0.12713
1513.84790,0.12580
1515.77637,0.13158
1517.70483,0.13799
1519.63330,0.14081
1521.56177,0.14411
1523.49024,0.14180
1525.41871,0.13410
1527.34718,0.12598
1529.27565,0.12191
1531.20412,0.12648
1533.13258,0.13602
1535.06105,0.13653
1536.98952,0.13666
1538.91799,0.15444
1540.84646,0.17365
1542.77493,0.15564
1544.70340,0.13237
1546.63186,0.12061
1548.56033,0.11766
1550.48880,0.11521
1552.41727,0.11299
1554.34574,0.11830
1556.27421,0.13399
1558.20268,0.15500
1560.13115,0.14353
1562.05961,0.12354
1563.98808,0.11802
1565.91655,0.11929
1567.84502,0.12145
1569.77349,0.12045
1571.70196,0.11698
1573.63043,0.11628
1575.55889,0.11716
1577.48736,0.11227
1579.41583,0.10541
1581.34430,0.10260
1583.27277,0.10132
1585.20124,0.10036
1587.12971,0.10160
1589.05818,0.10378
1590.98664,0.10506
1592.91511,0.10573
1594.84358,0.10630
1596.77205,0.10615
1598.70052,0.10530
1600.62899,0.10556
1602.55746,0.10679
1604.48592,0.10645
1606.41439,0.10559
1608.34286,0.10621
1610.27133,0.10740
1612.19980,0.10960
1614.12827,0.11367
1616.05674,0.11712
1617.98521,0.11347
1619.91367,0.10981
1621.84214,0.11422
1623.77061,0.12109
1625.69908,0.12249
1627.62755,0.12133
1629.55602,0.11872
1631.48449,0.11680
1633.41295,0.12053
1635.34142,0.13142
1637.26989,0.13324
1639.19836,0.12380
1641.12683,0.11690
1643.05530,0.11693
1644.98377,0.12541
1646.91223,0.13667
1648.84070,0.13572
1650.76917,0.13453
1652.69764,0.14304
1654.62611,0.13897
1656.55458,0.12539
1658.48305,0.11870
1660.41152,0.11873
1662.33998,0.12074
1664.26845,0.11933
1666.19692,0.12002
1668.12539,0.12763
1670.05386,0.13506
1671.98233,0.13477
1673.91080,0.13416
1675.83926,0.13119
1677.76773,0.12551
1679.69620,0.12456
1681.62467,0.13073
1683.55314,0.14074
1685.48161,0.13838
1687.41008,0.12860
1689.33855,0.12192
1691.26701,0.11933
1693.19548,0.12404
1695.12395,0.13550
1697.05242,0.14517
1698.98089,0.14721
1700.90936,0.13999
1702.83783,0.13089
1704.76629,0.12801
1706.69476,0.12588
1708.62323,0.12026
1710.55170,0.11531
1712.48017,0.11646
1714.40864,0.12792
1716.33711,0.14472
1718.26558,0.14082
1720.19404,0.12185
1722.12251,0.11224
1724.05098,0.11075
1725.97945,0.11030
1727.90792,0.11101
1729.83639,0.11685
1731.76486,0.12798
1733.69332,0.13477
1735.62179,0.12720
1737.55026,0.12142
1739.47873,0.12143
1741.40720,0.12127
1743.33567,0.12116
1745.26414,0.12513
1747.19261,0.13229
1749.12107,0.13520
1751.04954,0.12762
1752.97801,0.11970
1754.90648,0.11990
1756.83495,0.12229
1758.76342,0.12065
1760.69189,0.11898
1762.62035,0.11795
1764.54882,0.11644
1766.47729,0.11891
1768.40576,0.12532
1770.33423,0.13194
1772.26270,0.13468
1774.19117,0.13080
1776.11964,0.12589
1778.04810,0.12288
1779.97657,0.12071
1781.90504,0.11771
1783.83351,0.11521
1785.76198,0.11338
1787.69045,0.11262
1789.61892,0.11685
1791.54738,0.12408
1793.47585,0.12442
1795.40432,0.11844
1797.33279,0.11534
1799.26126,0.11836
1801.18973,0.12081
1803.11820,0.11748
1805.04666,0.11416
1806.97513,0.11440
1808.90360,0.11616
1810.83207,0.11625
1812.76054,0.11357
1814.68901,0.11083
1816.61748,0.11017
1818.54595,0.11215
1820.47441,0.11625
1822.40288,0.11997
1824.33135,0.12125
1826.25982,0.12068
1828.18829,0.12042
1830.11676,0.11932
1832.04523,0.11637
1833.97369,0.11451
1835.90216,0.11417
1837.83063,0.11328
1839.75910,0.11226
1841.68757,0.11538
1843.61604,0.12163
1845.54451,0.12171
1847.47298,0.11728
1849.40144,0.11342
1851.32991,0.10974
1853.25838,0.10894
1855.18685,0.11085
1857.11532,0.11022
1859.04379,0.10707
1860.97226,0.10700
1862.90072,0.11158
1864.82919,0.11751
1866.75766,0.12281
1868.68613,0.12392
1870.61460,0.11849
1872.54307,0.11383
1874.47154,0.11237
1876.40001,0.11104
1878.32847,0.10977
1880.25694,0.11069
1882.18541,0.11299
1884.11388,0.11357
1886.04235,0.11412
1887.97082,0.11786
1889.89929,0.12027
1891.82775,0.11895
1893.75622,0.11815
1895.68469,0.11616
1897.61316,0.11197
1899.54163,0.11062
1901.47010,0.11240
1903.39857,0.11333
1905.32704,0.11318
1907.25550,0.11315
1909.18397,0.11223
1911.11244,0.11172
1913.04091,0.11325
1914.96938,0.11451
1916.89785,0.11459
1918.82632,0.11491
1920.75478,0.11552
1922.68325,0.11550
1924.61172,0.11454
1926.54019,0.11443
1928.46866,0.11570
1930.39713,0.11666
1932.32560,0.11697
1934.25407,0.11648
1936.18253,0.11442
1938.11100,0.11282
1940.03947,0.11518
1941.96794,0.11985
1943.89641,0.12091
1945.82488,0.11806
1947.75335,0.11543
1949.68181,0.11460
1951.61028,0.11405
1953.53875,0.11209
1955.46722,0.10999
1957.39569,0.10919
1959.32416,0.10934
1961.25263,0.10966
1963.18110,0.11004
1965.10956,0.11193
1967.03803,0.11429
1968.96650,0.11460
1970.89497,0.11398
1972.82344,0.11312
1974.75191,0.11096
1976.68038,0.10599
1978.60884,0.09956
1980.53731,0.09809
1982.46578,0.10352
1984.39425,0.10969
1986.32272,0.11217
1988.25119,0.11272
1990.17966,0.11385
1992.10812,0.11414
1994.03659,0.11222
1995.96506,0.11069
1997.89353,0.11123
1999.82200,0.11250
2001.75047,0.11450
2003.67894,0.11618
2005.60741,0.11507
2007.53587,0.11394
2009.46434,0.11526
2011.39281,0.11617
2013.32128,0.11537
2015.24975,0.11526
2017.17822,0.11566
2019.10669,0.11393
2021.03515,0.11187
2022.96362,0.11154
2024.89209,0.11198
2026.82056,0.11298
2028.74903,0.11360
2030.67750,0.11278
2032.60597,0.11201
2034.53444,0.11278
2036.46290,0.11422
2038.39137,0.11503
2040.31984,0.11508
2042.24831,0.11428
2044.17678,0.11344
2046.10525,0.11334
2048.03372,0.11277
2049.96218,0.11166
2051.89065,0.11211
2053.81912,0.11405
2055.74759,0.11536
2057.67606,0.11509
2059.60453,0.11440
2061.53300,0.11545
2063.46147,0.11731
2065.38993,0.11701
2067.31840,0.11505
2069.24687,0.11376
2071.17534,0.11350
2073.10381,0.11376
2075.03228,0.11459
2076.96075,0.11600
2078.88921,0.11706
2080.81768,0.11667
2082.74615,0.11472
2084.67462,0.11334
2086.60309,0.11450
2088.53156,0.11630
2090.46003,0.11585
2092.38850,0.11418
2094.31696,0.11479
2096.24543,0.11696
2098.17390,0.11761
2100.10237,0.11698
2102.03084,0.11613
2103.95931,0.11566
2105.88778,0.11589
2107.81624,0.11661
2109.74471,0.11798
2111.67318,0.11847
2113.60165,0.11649
2115.53012,0.11468
2117.45859,0.11548
2119.38706,0.11649
2121.31553,0.11571
2123.24399,0.11472
2125.17246,0.11530
2127.10093,0.11603
2129.02940,0.11483
2130.95787,0.11347
2132.88634,0.11512
2134.81481,0.11839
2136.74327,0.11981
2138.67174,0.12075
2140.60021,0.12038
2142.52868,0.11561
2144.45715,0.11207
2146.38562,0.11291
2148.31409,0.11409
2150.24255,0.11498
2152.17102,0.11592
2154.09949,0.11578
2156.02796,0.11501
2157.95643,0.11540
2159.88490,0.11693
2161.81337,0.11722
2163.74184,0.11633
2165.67030,0.11592
2167.59877,0.11518
2169.52724,0.11410
2171.45571,0.11418
2173.38418,0.11466
2175.31265,0.11434
2177.24112,0.11450
2179.16958,0.11608
2181.09805,0.11687
2183.02652,0.11503
2184.95499,0.11243
2186.88346,0.11197
2188.81193,0.11360
2190.74040,0.11503
2192.66887,0.11553
2194.59733,0.11538
2196.52580,0.11449
2198.45427,0.11450
2200.38274,0.11646
2202.31121,0.11872
2204.23968,0.11971
2206.16815,0.11877
2208.09661,0.11675
2210.02508,0.11564
2211.95355,0.11562
2213.88202,0.11523
2215.81049,0.11392
2217.73896,0.11292
2219.66743,0.11314
2221.59590,0.11402
2223.52436,0.11486
2225.45283,0.11520
2227.38130,0.11501
2229.30977,0.11482
2231.23824,0.11525
2233.16671,0.11654
2235.09518,0.11754
2237.02364,0.11764
2238.95211,0.11766
2240.88058,0.11746
2242.80905,0.11674
2244.73752,0.11532
2246.66599,0.11386
2248.59446,0.11442
2250.52293,0.11589
2252.45139,0.11587
2254.37986,0.11567
2256.30833,0.11676
2258.23680,0.11830
2260.16527,0.11902
2262.09374,0.11853
2264.02221,0.11763
2265.95067,0.11655
2267.87914,0.11493
2269.80761,0.11475
2271.73608,0.11681
2273.66455,0.11790
2275.59302,0.11709
2277.52149,0.11600
2279.44996,0.11530
2281.37842,0.11572
2283.30689,0.11727
2285.23536,0.11848
2287.16383,0.11803
2289.09230,0.11645
2291.02077,0.11602
2292.94924,0.11697
2294.87770,0.11664
2296.80617,0.11460
2298.73464,0.11306
2300.66311,0.11208
2302.59158,0.11146
2304.52005,0.11162
2306.44852,0.11093
2308.37699,0.10951
2310.30545,0.10934
2312.23392,0.10941
2314.16239,0.10963
2316.09086,0.11084
2318.01933,0.10937
2319.94780,0.10635
2321.87627,0.10672
2323.80473,0.10579
2325.73320,0.10125
2327.66167,0.09859
2329.59014,0.09956
2331.51861,0.10293
2333.44708,0.10733
2335.37555,0.11057
2337.30401,0.11018
2339.23248,0.11140
2341.16095,0.11891
2343.08942,0.12001
2345.01789,0.11183
2346.94636,0.10923
2348.87483,0.11103
2350.80330,0.11167
2352.73176,0.11163
2354.66023,0.10843
2356.58870,0.09505
2358.51717,0.08175
2360.44564,0.08776
2362.37411,0.09996
2364.30258,0.10115
2366.23104,0.10778
2368.15951,0.12198
2370.08798,0.12357
2372.01645,0.11268
2373.94492,0.10309
2375.87339,0.10210
2377.80186,0.10745
2379.73033,0.11321
2381.65879,0.11563
2383.58726,0.11512
2385.51573,0.11497
2387.44420,0.11627
2389.37267,0.11667
2391.30114,0.11641
2393.22961,0.11693
2395.15807,0.11647
2397.08654,0.11524
2399.01501,0.11561
2400.94348,0.11719
2402.87195,0.11833
2404.80042,0.11763
2406.72889,0.11532
2408.65736,0.11386
2410.58582,0.11385
2412.51429,0.11378
2414.44276,0.11424
2416.37123,0.11575
2418.29970,0.11749
2420.22817,0.11952
2422.15664,0.12039
2424.08510,0.11929
2426.01357,0.11809
2427.94204,0.11820
2429.87051,0.11928
2431.79898,0.11962
2433.72745,0.11801
2435.65592,0.11533
2437.58439,0.11319
2439.51285,0.11254
2441.44132,0.11367
2443.36979,0.11564
2445.29826,0.11693
2447.22673,0.11709
2449.15520,0.11656
2451.08367,0.11145
2453.01213,0.09844
2454.94060,0.09159
2456.86907,0.10311
2458.79754,0.11752
2460.72601,0.12096
2462.65448,0.12014
2464.58295,0.11968
2466.51142,0.11869
2468.43988,0.11836
2470.36835,0.11817
2472.29682,0.11809
2474.22529,0.11887
2476.15376,0.11913
2478.08223,0.11975
2480.01070,0.12233
2481.93916,0.12351
2483.86763,0.12103
2485.79610,0.11841
2487.72457,0.11736
2489.65304,0.11648
2491.58151,0.11619
2493.50998,0.11709
2495.43844,0.11760
2497.36691,0.11721
2499.29538,0.11721
2501.22385,0.11665
2503.15232,0.11568
2505.08079,0.11611
2507.00926,0.11612
2508.93773,0.11452
2510.86619,0.11389
2512.79466,0.11579
2514.72313,0.11812
2516.65160,0.11831
2518.58007,0.11789
2520.50854,0.11868
2522.43701,0.11944
2524.36547,0.11950
2526.29394,0.11929
2528.22241,0.11909
2530.15088,0.11809
2532.07935,0.11534
2534.00782,0.11334
2535.93629,0.11500
2537.86476,0.11811
2539.79322,0.11959
2541.72169,0.11988
2543.65016,0.11901
2545.57863,0.11690
2547.50710,0.11601
2549.43557,0.11729
2551.36404,0.11806
2553.29250,0.11741
2555.22097,0.11732
2557.14944,0.11772
2559.07791,0.11836
2561.00638,0.11952
2562.93485,0.12004
2564.86332,0.11904
2566.79179,0.11699
2568.72025,0.11658
2570.64872,0.11906
2572.57719,0.12128
2574.50566,0.12063
2576.43413,0.11863
2578.36260,0.11791
2580.29107,0.11839
2582.21953,0.11929
2584.14800,0.12066
2586.07647,0.12168
2588.00494,0.12120
2589.93341,0.11932
2591.86188,0.11777
2593.79035,0.11845
2595.71882,0.12016
2597.64728,0.12005
2599.57575,0.11818
2601.50422,0.11697
2603.43269,0.11731
2605.36116,0.11801
2607.28963,0.11838
2609.21810,0.11873
2611.14656,0.11941
2613.07503,0.11919
2615.00350,0.11759
2616.93197,0.11796
2618.86044,0.12095
2620.78891,0.12291
2622.71738,0.12248
2624.64585,0.12136
2626.57431,0.12086
2628.50278,0.12089
2630.43125,0.12187
2632.35972,0.12436
2634.28819,0.12630
2636.21666,0.12552
2638.14513,0.12392
2640.07359,0.12294
2642.00206,0.12148
2643.93053,0.11987
2645.85900,0.11883
2647.78747,0.11821
2649.71594,0.11826
2651.64441,0.12002
2653.57288,0.12299
2655.50134,0.12479
2657.42981,0.12431
2659.35828,0.12270
2661.28675,0.12161
2663.21522,0.12178
2665.14369,0.12222
2667.07216,0.12164
2669.00062,0.12114
2670.92909,0.12109
2672.85756,0.12088
2674.78603,0.12138
2676.71450,0.12106
2678.64297,0.11908
2680.57144,0.11897
2682.49990,0.12138
2684.42837,0.12189
2686.35684,0.12030
2688.28531,0.12046
2690.21378,0.12207
2692.14225,0.12278
2694.07072,0.12207
2695.99919,0.12099
2697.92765,0.12002
2699.85612,0.11879
2701.78459,0.11905
2703.71306,0.12204
2705.64153,0.12544
2707.57000,0.12643
2709.49847,0.12453
2711.42693,0.12114
2713.35540,0.11818
2715.28387,0.11705
2717.21234,0.11755
2719.14081,0.11789
2721.06928,0.11792
2722.99775,0.12001
2724.92622,0.12388
2726.85468,0.12685
2728.78315,0.12821
2730.71162,0.12760
2732.64009,0.12491
2734.56856,0.12257
2736.49703,0.12259
2738.42550,0.12416
2740.35396,0.12502
2742.28243,0.12459
2744.21090,0.12530
2746.13937,0.12691
2748.06784,0.12675
2749.99631,0.12618
2751.92478,0.12716
2753.85325,0.12810
2755.78171,0.12751
2757.71018,0.12656
2759.63865,0.12603
2761.56712,0.12484
2763.49559,0.12348
2765.42406,0.12401
2767.35253,0.12459
2769.28099,0.12173
2771.20946,0.11741
2773.13793,0.11591
2775.06640,0.11750
2776.99487,0.11890
2778.92334,0.11935
2780.85181,0.12127
2782.78028,0.12354
2784.70874,0.12448
2786.63721,0.12504
2788.56568,0.12565
2790.49415,0.12526
2792.42262,0.12307
2794.35109,0.12136
2796.27956,0.12177
2798.20802,0.12305
2800.13649,0.12497
2802.06496,0.12680
2803.99343,0.12747
2805.92190,0.12807
2807.85037,0.12811
2809.77884,0.12693
2811.70731,0.12668
2813.63577,0.12751
2815.56424,0.12879
2817.49271,0.13154
2819.42118,0.13441
2821.34965,0.13428
2823.27812,0.13120
2825.20659,0.12891
2827.13505,0.12848
2829.06352,0.12772
2830.99199,0.12677
2832.92046,0.12631
2834.84893,0.12612
2836.77740,0.12721
2838.70587,0.12799
2840.63433,0.12666
2842.56280,0.12482
2844.49127,0.12403
2846.41974,0.12460
2848.34821,0.12496
2850.27668,0.12485
2852.20515,0.12525
2854.13362,0.12591
2856.06208,0.12706
2857.99055,0.12792
2859.91902,0.12929
2861.84749,0.13196
2863.77596,0.13237
2865.70443,0.13022
2867.63290,0.12946
2869.56136,0.12919
2871.48983,0.12651
2873.41830,0.12397
2875.34677,0.12579
2877.27524,0.12937
2879.20371,0.12908
2881.13218,0.12637
2883.06065,0.12550
2884.98911,0.12642
2886.91758,0.12695
2888.84605,0.12663
2890.77452,0.12649
2892.70299,0.12517
2894.63146,0.12259
2896.55993,0.12245
2898.48839,0.12575
2900.41686,0.12858
2902.34533,0.12933
2904.27380,0.13054
2906.20227,0.12935
2908.13074,0.12317
2910.05921,0.11835
2911.98768,0.11901
2913.91614,0.12229
2915.84461,0.12400
2917.77308,0.12300
2919.70155,0.12273
2921.63002,0.12554
2923.55849,0.12800
2925.48696,0.12476
2927.41542,0.12013
2929.34389,0.12170
2931.27236,0.12360
2933.20083,0.12149
2935.12930,0.12013
2937.05777,0.12060
2938.98624,0.12295
2940.91471,0.12552
2942.84317,0.12589
2944.77164,0.12528
2946.70011,0.12390
2948.62858,0.12319
2950.55705,0.12478
2952.48552,0.12620
2954.41399,0.12540
2956.34245,0.12253
2958.27092,0.12103
2960.19939,0.12471
2962.12786,0.12830
2964.05633,0.12635
2965.98480,0.12404
2967.91327,0.12608
2969.84174,0.12991
2971.77020,0.13116
2973.69867,0.12933
2975.62714,0.12671
2977.55561,0.12514
2979.48408,0.12678
2981.41255,0.12996
2983.34102,0.13015
2985.26948,0.12763
2987.19795,0.12436
2989.12642,0.12235
2991.05489,0.12422
2992.98336,0.12818
2994.91183,0.13140
2996.84030,0.13297
2998.76877,0.13252
3000.69723,0.13253
3002.62570,0.13470
3004.55417,0.13517
3006.48264,0.13064
3008.41111,0.12681
3010.33958,0.12852
3012.26805,0.12720
3014.19651,0.11446
3016.12498,0.10122
3018.05345,0.10542
3019.98192,0.12176
3021.91039,0.13116
3023.83886,0.13156
3025.76733,0.13026
3027.69579,0.12957
3029.62426,0.12929
3031.55273,0.12879
3033.48120,0.12894
3035.40967,0.12878
3037.33814,0.12698
3039.26661,0.12668
3041.19508,0.12782
3043.12354,0.12750
3045.05201,0.12700
3046.98048,0.12903
3048.90895,0.13289
3050.83742,0.13385
3052.76589,0.13180
3054.69436,0.12992
3056.62282,0.12733
3058.55129,0.12627
3060.47976,0.12992
3062.40823,0.13499
3064.33670,0.13534
3066.26517,0.13022
3068.19364,0.12810
3070.12211,0.13138
3072.05057,0.13377
3073.97904,0.13363
3075.90751,0.13250
3077.83598,0.13178
3079.76445,0.13171
3081.69292,0.13271
3083.62139,0.13077
3085.54985,0.12174
3087.47832,0.11471
3089.40679,0.11727
3091.33526,0.12380
3093.26373,0.12524
3095.19220,0.12310
3097.12067,0.12511
3099.04914,0.12844
3100.97760,0.12765
3102.90607,0.12370
3104.83454,0.12173
3106.76301,0.12310
3108.69148,0.12201
3110.61995,0.11845
3112.54842,0.11900
3114.47688,0.12408
3116.40535,0.12708
3118.33382,0.12631
3120.26229,0.12506
3122.19076,0.12460
3124.11923,0.12595
3126.04770,0.12903
3127.97617,0.13183
3129.90463,0.13202
3131.83310,0.13109
3133.76157,0.13089
3135.69004,0.12946
3137.61851,0.12947
3139.54698,0.13295
3141.47545,0.13584
3143.40391,0.13737
3145.33238,0.13706
3147.26085,0.13367
3149.18932,0.13059
3151.11779,0.12838
3153.04626,0.12619
3154.97473,0.12788
3156.90320,0.13339
3158.83166,0.13772
3160.76013,0.13855
3162.68860,0.13575
3164.61707,0.13117
3166.54554,0.12827
3168.47401,0.12808
3170.40248,0.12948
3172.33094,0.13003
3174.25941,0.12801
3176.18788,0.12705
3178.11635,0.12948
3180.04482,0.13183
3181.97329,0.13255
3183.90176,0.13344
3185.83022,0.13579
3187.75869,0.13738
3189.68716,0.13531
3191.61563,0.13378
3193.54410,0.13686
3195.47257,0.13873
3197.40104,0.13491
3199.32951,0.12983
3201.25797,0.12751
3203.18644,0.12855
3205.11491,0.13184
3207.04338,0.13489
3208.97185,0.13636
3210.90032,0.13678
3212.82879,0.13753
3214.75725,0.13666
3216.68572,0.13252
3218.61419,0.12857
3220.54266,0.12692
3222.47113,0.12820
3224.39960,0.13069
3226.32807,0.13122
3228.25654,0.13185
3230.18500,0.13304
3232.11347,0.13282
3234.04194,0.13380
3235.97041,0.13549
3237.89888,0.13416
3239.82735,0.13200
3241.75582,0.13220
3243.68428,0.13617
3245.61275,0.14222
3247.54122,0.14145
3249.46969,0.13349
3251.39816,0.12965
3253.32663,0.12979
3255.25510,0.12796
3257.18357,0.12776
3259.11203,0.13035
3261.04050,0.13187
3262.96897,0.13172
3264.89744,0.13125
3266.82591,0.13062
3268.75438,0.13034
3270.68285,0.13270
3272.61131,0.13657
3274.53978,0.13796
3276.46825,0.13631
3278.39672,0.13404
3280.32519,0.13085
3282.25366,0.12642
3284.18213,0.12581
3286.11060,0.12904
3288.03906,0.12997
3289.96753,0.12936
3291.89600,0.13009
3293.82447,0.13137
3295.75294,0.13274
3297.68141,0.13375
3299.60988,0.13399
3301.53834,0.13311
3303.46681,0.13106
3305.39528,0.13145
3307.32375,0.13597
3309.25222,0.13847
3311.18069,0.13429
3313.10916,0.12859
3315.03763,0.12675
3316.96609,0.12761
3318.89456,0.12967
3320.82303,0.13279
3322.75150,0.13472
3324.67997,0.13267
3326.60844,0.12855
3328.53691,0.12749
3330.46537,0.12986
3332.39384,0.13362
3334.32231,0.13731
3336.25078,0.13777
3338.17925,0.13538
3340.10772,0.13273
3342.03619,0.13021
3343.96466,0.12906
3345.89312,0.12957
3347.82159,0.13058
3349.75006,0.13160
3351.67853,0.13257
3353.60700,0.13454
3355.53547,0.13691
3357.46394,0.13811
3359.39240,0.13914
3361.32087,0.13791
3363.24934,0.13280
3365.17781,0.13006
3367.10628,0.13221
3369.03475,0.13442
3370.96322,0.13461
3372.89168,0.13511
3374.82015,0.13679
3376.74862,0.13667
3378.67709,0.13480
3380.60556,0.13382
3382.53403,0.13209
3384.46250,0.12940
3386.39097,0.12986
3388.31943,0.13234
3390.24790,0.13290
3392.17637,0.13267
3394.10484,0.13245
3396.03331,0.13206
3397.96178,0.13278
3399.89025,0.13190
3401.81871,0.12753
3403.74718,0.12240
3405.67565,0.11959
3407.60412,0.12375
3409.53259,0.13257
3411.46106,0.13543
3413.38953,0.13301
3415.31800,0.13380
3417.24646,0.13540
3419.17493,0.13051
3421.10340,0.12394
3423.03187,0.12378
3424.96034,0.12735
3426.88881,0.13092
3428.81728,0.13357
3430.74574,0.13332
3432.67421,0.12942
3434.60268,0.12439
3436.53115,0.12282
3438.45962,0.12608
3440.38809,0.12988
3442.31656,0.13163
3444.24503,0.13307
3446.17349,0.13468
3448.10196,0.13444
3450.03043,0.13066
3451.95890,0.12608
3453.88737,0.12479
3455.81584,0.12659
3457.74431,0.12809
3459.67277,0.12654
3461.60124,0.12214
3463.52971,0.11880
3465.45818,0.12058
3467.38665,0.12257
3469.31512,0.12018
3471.24359,0.11992
3473.17206,0.12301
3475.10052,0.12245
3477.02899,0.11807
3478.95746,0.11743
3480.88593,0.12244
3482.81440,0.12621
3484.74287,0.12716
3486.67134,0.12575
3488.59980,0.11991
3490.52827,0.11463
3492.45674,0.11366
3494.38521,0.11439
3496.31368,0.11546
3498.24215,0.11791
3500.17062,0.12225
3502.09909,0.12503
3504.02755,0.12133
3505.95602,0.11366
3507.88449,0.10932
3509.81296,0.11101
3511.74143,0.11477
3513.66990,0.11593
3515.59837,0.11367
3517.52683,0.11033
3519.45530,0.10816
3521.38377,0.10764
3523.31224,0.11019
3525.24071,0.11515
3527.16918,0.11842
3529.09765,0.11699
3531.02611,0.11140
3532.95458,0.10884
3534.88305,0.11314
3536.81152,0.11664
3538.73999,0.11477
3540.66846,0.11206
3542.59693,0.11129
3544.52540,0.11286
3546.45386,0.11267
3548.38233,0.11013
3550.31080,0.11160
3552.23927,0.11374
3554.16774,0.11102
3556.09621,0.10712
3558.02468,0.10439
3559.95314,0.10314
3561.88161,0.10458
3563.81008,0.10939
3565.73855,0.11734
3567.66702,0.11887
3569.59549,0.10968
3571.52396,0.10245
3573.45243,0.09976
3575.38089,0.09813
3577.30936,0.09680
3579.23783,0.09552
3581.16630,0.09576
3583.09477,0.09909
3585.02324,0.10435
3586.95171,0.10993
3588.88017,0.10955
3590.80864,0.10509
3592.73711,0.10512
3594.66558,0.10941
3596.59405,0.11159
3598.52252,0.10924
3600.45099,0.10586
3602.37946,0.10367
3604.30792,0.10114
3606.23639,0.09971
3608.16486,0.10057
3610.09333,0.10105
3612.02180,0.10448
3613.95027,0.11153
3615.87874,0.11350
3617.80720,0.10906
3619.73567,0.10040
3621.66414,0.09259
3623.59261,0.09234
3625.52108,0.10046
3627.44955,0.11467
3629.37802,0.11884
3631.30649,0.10693
3633.23495,0.09772
3635.16342,0.09270
3637.09189,0.09222
3639.02036,0.09260
3640.94883,0.08863
3642.87730,0.08682
3644.80577,0.09487
3646.73423,0.11224
3648.66270,0.12527
3650.59117,0.11192
3652.51964,0.09458
3654.44811,0.08756
3656.37658,0.08627
3658.30505,0.08612
3660.23352,0.08513
3662.16198,0.08304
3664.09045,0.08087
3666.01892,0.08177
3667.94739,0.08833
3669.87586,0.09572
3671.80433,0.09480
3673.73280,0.09484
3675.66126,0.09932
3677.58973,0.09653
3679.51820,0.09065
3681.44667,0.08694
3683.37514,0.08465
3685.30361,0.08568
3687.23208,0.09176
3689.16055,0.09870
3691.08901,0.09897
3693.01748,0.09353
3694.94595,0.08644
3696.87442,0.08187
3698.80289,0.08332
3700.73136,0.08839
3702.65983,0.08893
3704.58829,0.08527
3706.51676,0.08590
3708.44523,0.09095
3710.37370,0.09559
3712.30217,0.09460
3714.23064,0.08872
3716.15911,0.08485
3718.08757,0.08703
3720.01604,0.09373
3721.94451,0.09587
3723.87298,0.09054
3725.80145,0.08573
3727.72992,0.08508
3729.65839,0.08751
3731.58686,0.09464
3733.51532,0.10597
3735.44379,0.10978
3737.37226,0.10245
3739.30073,0.09725
3741.22920,0.09733
3743.15767,0.09949
3745.08614,0.10037
3747.01460,0.10224
3748.94307,0.10865
3750.87154,0.11183
3752.80001,0.10424
3754.72848,0.09845
3756.65695,0.09636
3758.58542,0.09507
3760.51389,0.09277
3762.44235,0.08919
3764.37082,0.08695
3766.29929,0.08631
3768.22776,0.08574
3770.15623,0.08487
3772.08470,0.08334
3774.01317,0.08200
3775.94163,0.08228
3777.87010,0.08462
3779.79857,0.08702
3781.72704,0.08697
3783.65551,0.08520
3785.58398,0.08314
3787.51245,0.08158
3789.44092,0.08053
3791.36938,0.07920
3793.29785,0.07870
3795.22632,0.08187
3797.15479,0.08594
3799.08326,0.08545
3801.01173,0.08182
3802.94020,0.08177
3804.86866,0.08724
3806.79713,0.09027
3808.72560,0.08680
3810.65407,0.08477
3812.58254,0.08542
3814.51101,0.08602
3816.43948,0.08580
3818.36795,0.08716
3820.29641,0.09376
3822.22488,0.09627
3824.15335,0.09221
3826.08182,0.09098
3828.01029,0.08902
3829.93876,0.08313
3831.86723,0.07828
3833.79569,0.07941
3835.72416,0.08239
3837.65263,0.08027
3839.58110,0.07756
3841.50957,0.08081
3843.43804,0.08492
3845.36651,0.08365
3847.29498,0.08076
3849.22344,0.08482
3851.15191,0.09698
3853.08038,0.10346
3855.00885,0.09212
3856.93732,0.08447
3858.86579,0.08117
3860.79426,0.07997
3862.72272,0.08216
3864.65119,0.08506
3866.57966,0.08734
3868.50813,0.09124
3870.43660,0.09371
3872.36507,0.09280
3874.29354,0.09188
3876.22200,0.08806
3878.15047,0.08086
3880.07894,0.07759
3882.00741,0.08352
3883.93588,0.08755
3885.86435,0.08304
3887.79282,0.07898
3889.72129,0.07989
3891.64975,0.08126
3893.57822,0.08070
3895.50669,0.08072
3897.43516,0.08268
3899.36363,0.08331
3901.29210,0.08216
3903.22057,0.08544
3905.14903,0.08822
3907.07750,0.08360
3909.00597,0.07558
3910.93444,0.06898
3912.86291,0.06627
3914.79138,0.06721
3916.71985,0.07078
3918.64832,0.07167
3920.57678,0.06666
3922.50525,0.06296
3924.43372,0.06481
3926.36219,0.06752
3928.29066,0.06969
3930.21913,0.07307
3932.14760,0.07220
3934.07606,0.06556
3936.00453,0.06222
3937.93300,0.06504
3939.86147,0.06910
3941.78994,0.06987
3943.71841,0.06724
3945.64688,0.06584
3947.57535,0.06723
3949.50381,0.06780
3951.43228,0.06830
3953.36075,0.07264
3955.28922,0.07781
3957.21769,0.07676
3959.14616,0.06886
3961.07463,0.06295
3963.00309,0.06577
3964.93156,0.07134
3966.86003,0.07163
3968.78850,0.06847
3970.71697,0.06537
3972.64544,0.06324
3974.57391,0.06361
3976.50238,0.06497
3978.43084,0.06524
3980.35931,0.06592
3982.28778,0.06673
3984.21625,0.06598
3986.14472,0.06473
3988.07319,0.06421
3990.00166,0.06322
3991.93012,0.06255
3993.85859,0.06533
3995.78706,0.06923
3997.71553,0.07083
3999.64400,0.06944
4001.57247,0.06510
4003.50094,0.06202
4005.42941,0.06155
4007.35787,0.06055
4009.28634,0.06022
4011.21481,0.06106
4013.14328,0.06079
4015.07175,0.06193
4017.00022,0.06636
4018.92869,0.06954
4020.85715,0.06742
4022.78562,0.06029
4024.71409,0.05250
4026.64256,0.04982
4028.57103,0.05377
4030.49950,0.05806
4032.42797,0.05922
4034.35644,0.06674
4036.28490,0.08031
4038.21337,0.08432
4040.14184,0.07877
4042.07031,0.07244
4043.99878,0.06540
4045.92725,0.06000
4047.85572,0.05907
4049.78418,0.06007
4051.71265,0.05933
4053.64112,0.05586
4055.56959,0.05374
4057.49806,0.05521
4059.42653,0.05721
4061.35500,0.05703
4063.28346,0.05567
4065.21193,0.05392
4067.14040,0.05280
4069.06887,0.05605
4070.99734,0.06089
4072.92581,0.06114
4074.85428,0.05921
4076.78275,0.05981
4078.71121,0.06211
4080.63968,0.06270
4082.56815,0.06098
4084.49662,0.06085
4086.42509,0.06284
4088.35356,0.06211
4090.28203,0.05838
4092.21049,0.05631
4094.13896,0.05632
4096.06743,0.05517
4097.99590,0.05246
4099.92437,0.04968
4101.85284,0.04840
4103.78131,0.04972
4105.70978,0.05303
4107.63824,0.05440
4109.56671,0.05229
4111.49518,0.05127
4113.42365,0.05166
4115.35212,0.05257
4117.28059,0.05487
4119.20906,0.05424
4121.13752,0.04984
4123.06599,0.04803
4124.99446,0.05061
4126.92293,0.05289
4128.85140,0.05439
4130.77987,0.05479
4132.70834,0.05197
4134.63681,0.05118
4136.56527,0.05457
4138.49374,0.05644
4140.42221,0.05600
4142.35068,0.05834
4144.27915,0.06323
4146.20762,0.06289
4148.13609,0.05710
4150.06455,0.05523
4151.99302,0.05633
4153.92149,0.05391
4155.84996,0.05211
4157.77843,0.05452
4159.70690,0.05715
4161.63537,0.05703
4163.56384,0.05459
4165.49230,0.05108
4167.42077,0.04898
4169.34924,0.05023
4171.27771,0.05116
4173.20618,0.04927
4175.13465,0.04863
4177.06312,0.05091
4178.99158,0.05234
4180.92005,0.05092
4182.84852,0.04882
4184.77699,0.04605
4186.70546,0.04191
4188.63393,0.04160
4190.56240,0.04571
4192.49087,0.04839
4194.41933,0.04861
4196.34780,0.04717
4198.27627,0.04571
4200.20474,0.04479
4202.13321,0.04260
4204.06168,0.04119
4205.99015,0.04289
4207.91861,0.04623
4209.84708,0.04786
4211.77555,0.04662
4213.70402,0.04513
4215.63249,0.04558
4217.56096,0.04732
4219.48943,0.04801
4221.41789,0.04675
4223.34636,0.04462
4225.27483,0.04225
4227.20330,0.04046
4229.13177,0.04214
4231.06024,0.04650
4232.98871,0.04831
4234.91718,0.04808
4236.84564,0.04739
4238.77411,0.04291
4240.70258,0.03609
4242.63105,0.03366
4244.55952,0.03898
4246.48799,0.04651
4248.41646,0.04764
4250.34492,0.04400
4252.27339,0.04232
4254.20186,0.04253
4256.13033,0.04135
4258.05880,0.03850
4259.98727,0.03569
4261.91574,0.03640
4263.84421,0.04113
4265.77267,0.04367
4267.70114,0.04320
4269.62961,0.04377
4271.55808,0.04322
4273.48655,0.03964
4275.41502,0.03637
4277.34349,0.03693
4279.27195,0.03931
4281.20042,0.03793
4283.12889,0.03418
4285.05736,0.03466
4286.98583,0.03777
4288.91430,0.03611
4290.84277,0.03114
4292.77124,0.02823
4294.69970,0.02743
4296.62817,0.03016
4298.55664,0.03408
4300.48511,0.03356
4302.41358,0.03178
4304.34205,0.03027
4306.27052,0.02790
4308.19898,0.02723
4310.12745,0.02707
4312.05592,0.02713
4313.98439,0.02789
4315.91286,0.02667
4317.84133,0.02612
4319.76980,0.03030
4321.69827,0.03536
4323.62673,0.03515
4325.55520,0.02980
4327.48367,0.02451
4329.41214,0.02450
4331.34061,0.03051
4333.26908,0.03483
4335.19755,0.03035
4337.12601,0.02235
4339.05448,0.02132
4340.98295,0.02928
4342.91142,0.03830
4344.83989,0.03876
4346.76836,0.02910
4348.69683,0.02096
4350.62530,0.02274
4352.55376,0.02586
4354.48223,0.02533
4356.41070,0.02750
4358.33917,0.02966
4360.26764,0.02478
4362.19611,0.02022
4364.12458,0.02198
4366.05304,0.02229
4367.98151,0.01920
4369.90998,0.01639
4371.83845,0.01216
4373.76692,0.00812
4375.69539,0.00948
4377.62386,0.01350
4379.55232,0.01410
4381.48079,0.01320
4383.40926,0.01388
4385.33773,0.01484
4387.26620,0.01476
4389.19467,0.01393
4391.12314,0.01323
4393.05161,0.01055
4394.98007,0.00621
4396.90854,0.00710
4398.83701,0.01565
4400.76548,0.02497
4402.69395,0.02499
4404.62242,0.01674
4406.55089,0.01294
4408.47935,0.01578
4410.40782,0.01851
4412.33629,0.02000
4414.26476,0.02005
4416.19323,0.01770
4418.12170,0.01611
4420.05017,0.01725
4421.97864,0.01809
4423.90710,0.01749
4425.83557,0.01737
4427.76404,0.01626
4429.69251,0.01129
4431.62098,0.00687
4433.54945,0.00909
4435.47792,0.01381
4437.40638,0.01459
4439.33485,0.01282
4441.26332,0.01402
4443.19179,0.01980
4445.12026,0.02299
4447.04873,0.01915
4448.97720,0.01473
4450.90567,0.01225
4452.83413,0.00909
4454.76260,0.00786
4456.69107,0.01099
4458.61954,0.01680
4460.54801,0.01987
4462.47648,0.01687
4464.40495,0.01176
4466.33341,0.00841
4468.26188,0.00629
4470.19035,0.00438
4472.11882,0.00648
4474.04729,0.01433
4475.97576,0.01906
4477.90423,0.01589
4479.83270,0.01259
4481.76116,0.01338
4483.68963,0.01270
4485.61810,0.00789
4487.54657,0.00211
4489.47504,-0.00202
4491.40351,-0.00237
4493.33198,0.00246
4495.26044,0.01091
4497.18891,0.01811
4499.11738,0.02085
4501.04585,0.02032
4502.97432,0.01637
4504.90279,0.00997
4506.83126,0.00353
4508.75973,-0.00402
4510.68819,-0.00644
4512.61666,-0.00005
4514.54513,0.00172
4516.47360,0.00019
4518.40207,0.00867
4520.33054,0.01526
4522.25901,0.00649
4524.18747,-0.00320
4526.11594,-0.00083
4528.04441,0.00354
4529.97288,0.00341
4531.90135,0.00481
4533.82982,0.00666
4535.75829,0.00447
4537.68676,0.00169
4539.61522,0.00238
4541.54369,0.00546
4543.47216,0.01031
4545.40063,0.01346
4547.32910,0.01123
4549.25757,0.00594
4551.18604,0.00054
4553.11450,-0.00059
4555.04297,0.00338
4556.97144,0.00451
4558.89991,-0.00214
4560.82838,-0.01004
4562.75685,-0.01184
4564.68532,-0.00910
4566.61378,-0.00782
4568.54225,-0.00549
4570.47072,0.00360
4572.39919,0.01126
4574.32766,0.01179
4576.25613,0.01135
4578.18460,0.01357
4580.11307,0.01476
4582.04153,0.00776
4583.97000,-0.00247
4585.89847,-0.00840
4587.82694,-0.01360
4589.75541,-0.01747
4591.68388,-0.01591
4593.61235,-0.01144
4595.54081,-0.00555
4597.46928,0.00279
4599.39775,0.00816
4601.32622,0.00646
4603.25469,0.00344
4605.18316,0.00697
4607.11163,0.01339
4609.04010,0.01281
4610.96856,0.00867
4612.89703,0.00871
4614.82550,0.00755
4616.75397,0.00250
4618.68244,-0.00068
4620.61091,-0.00251
4622.53938,-0.00314
4624.46784,-0.00179
4626.39631,0.00018
4628.32478,0.00539
4630.25325,0.00938
4632.18172,0.00223
4634.11019,-0.00996
4636.03866,-0.01293
4637.96713,-0.00749
4639.89559,-0.00078
4641.82406,0.00620
4643.75253,0.00974
4645.68100,0.01046
4647.60947,0.01479
4649.53794,0.01413
4651.46641,0.00300
4653.39487,-0.00243
4655.32334,0.00053
4657.25181,-0.00120
4659.18028,-0.00462
4661.10875,0.00005
4663.03722,0.00942
4664.96569,0.01342
4666.89416,0.00790
4668.82262,-0.00517
4670.75109,-0.01791
4672.67956,-0.01651
4674.60803,0.00035
4676.53650,0.01192
4678.46497,0.00786
4680.39344,0.00259
4682.32190,0.00295
4684.25037,0.00367
4686.17884,0.00305
4688.10731,0.00162
4690.03578,-0.00238
4691.96425,-0.00901
4693.89272,-0.00961
4695.82119,-0.00369
4697.74965,-0.00040
4699.67812,0.00366
4701.60659,0.00998
4703.53506,0.01265
4705.46353,0.01418
4707.39200,0.01485
4709.32047,0.01385
4711.24893,0.01442
4713.17740,0.01504
4715.10587,0.01242
4717.03434,0.00622
4718.96281,0.00037
4720.89128,-0.00122
4722.81975,0.00135
4724.74821,0.00648
4726.67668,0.00813
4728.60515,0.00112
4730.53362,-0.00658
4732.46209,-0.00471
4734.39056,0.00616
4736.31903,0.01710
4738.24750,0.01466
4740.17596,0.00049
4742.10443,-0.00588
4744.03290,-0.00253
4745.96137,-0.00018
4747.88984,0.00519
4749.81831,0.01366
4751.74678,0.01277
4753.67524,0.00666
4755.60371,0.00672
4757.53218,0.00510
4759.46065,-0.00338
4761.38912,-0.00695
4763.31759,-0.00053
4765.24606,0.00692
4767.17453,0.00817
4769.10299,0.00461
4771.03146,0.00023
4772.95993,0.00043
4774.88840,0.00669
4776.81687,0.01289
4778.74534,0.01559
4780.67381,0.01469
4782.60227,0.00947
4784.53074,0.00346
4786.45921,0.00242
4788.38768,0.00434
4790.31615,0.00554
4792.24462,0.00939
4794.17309,0.01417
4796.10156,0.01406
4798.03002,0.01294
4799.95849,0.01367
4801.88696,0.01127
4803.81543,0.00332
4805.74390,-0.01296
4807.67237,-0.03190
4809.60084,-0.03417
4811.52930,-0.01645
4813.45777,0.00497
4815.38624,0.01745
4817.31471,0.02170
4819.24318,0.02182
4821.17165,0.01830
4823.10012,0.01322
4825.02859,0.00687
4826.95705,-0.00208
4828.88552,-0.01058
4830.81399,-0.01599
4832.74246,-0.01743
4834.67093,-0.01405
4836.59940,-0.00972
4838.52787,-0.00598
4840.45633,0.00147
4842.38480,0.00808
4844.31327,0.00199
4846.24174,-0.01213
4848.17021,-0.01562
4850.09868,-0.00549
4852.02715,0.00754
4853.95562,0.01637
4855.88408,0.01884
4857.81255,0.01271
4859.74102,0.00305
4861.66949,0.00188
4863.59796,0.00531
4865.52643,0.00334
4867.45490,-0.00002
4869.38336,0.00285
4871.31183,0.00834
4873.24030,0.00986
4875.16877,0.01038
4877.09724,0.01328
4879.02571,0.01605
4880.95418,0.01404
4882.88265,0.00718
4884.81111,-0.00072
4886.73958,-0.00302
4888.66805,0.00375
4890.59652,0.00652
4892.52499,0.00008
4894.45346,-0.00264
4896.38193,0.00102
4898.31039,0.00740
4900.23886,0.01624
4902.16733,0.02128
4904.09580,0.02000
4906.02427,0.01996
4907.95274,0.01997
4909.88121,0.01400
4911.80967,0.00795
4913.73814,0.00878
4915.66661,0.01160
4917.59508,0.00766
4919.52355,-0.00348
4921.45202,-0.01239
4923.38049,-0.00847
4925.30896,0.00668
4927.23742,0.01886
4929.16589,0.02202
4931.09436,0.02137
4933.02283,0.01918
4934.95130,0.01567
4936.87977,0.01250
4938.80824,0.00974
4940.73670,0.00600
4942.66517,0.00524
4944.59364,0.01082
4946.52211,0.01586
4948.45058,0.01557
4950.37905,0.00832
4952.30752,-0.00432
4954.23599,-0.00965
4956.16445,-0.00207
4958.09292,0.00791
4960.02139,0.01059
4961.94986,0.00552
4963.87833,-0.00169
4965.80680,-0.00270
4967.73527,0.00420
4969.66373,0.01072
4971.59220,0.01419
4973.52067,0.01954
4975.44914,0.02754
4977.37761,0.03140
4979.30608,0.02647
4981.23455,0.01845
4983.16302,0.01715
4985.09148,0.02900
4987.01995,0.04552
4988.94842,0.04784
4990.87689,0.03227
4992.80536,0.01198
4994.73383,0.00155
4996.66230,0.00056
4998.59076,-0.00163
5000.51923,-0.00122
5002.44770,0.00709
5004.37617,0.01404
5006.30464,0.01224
5008.23311,0.00948
5010.16158,0.01225
5012.09005,0.01102
5014.01851,0.00451
5015.94698,0.00070
5017.87545,-0.00021
5019.80392,0.00199
5021.73239,0.00464
5023.66086,0.00555
5025.58933,0.00690
5027.51779,0.00696
5029.44626,-0.00063
5031.37473,-0.01364
5033.30320,-0.01733
5035.23167,-0.00824
5037.16014,0.00565
5039.08861,0.01716
5041.01708,0.01966
5042.94554,0.01466
5044.87401,0.00947
5046.80248,0.00833
5048.73095,0.00942
5050.65942,0.01136
5052.58789,0.01496
5054.51636,0.01894
5056.44482,0.02242
5058.37329,0.02763
5060.30176,0.03026
5062.23023,0.02433
5064.15870,0.01828
5066.08717,0.01403
5068.01564,0.00556
5069.94410,-0.00126
5071.87257,-0.00044
5073.80104,0.00085
5075.72951,-0.00027
5077.65798,0.00716
5079.58645,0.01266
5081.51492,0.00388
5083.44339,0.00190
5085.37185,0.01256
5087.30032,0.02037
5089.22879,0.02361
5091.15726,0.02270
5093.08573,0.01814
5095.01420,0.01761
5096.94267,0.01914
5098.87113,0.01746
5100.79960,0.01377
5102.72807,0.00914
5104.65654,0.00630
5106.58501,0.00374
5108.51348,0.00038
5110.44195,0.00321
5112.37042,0.01347
5114.29888,0.02299
5116.22735,0.02550
5118.15582,0.02360
5120.08429,0.01924
5122.01276,0.00992
5123.94123,0.00290
5125.86970,0.00655
5127.79816,0.01611
5129.72663,0.01771
5131.65510,0.00518
5133.58357,-0.00843
5135.51204,-0.01286
5137.44051,-0.00680
5139.36898,0.01248
5141.29745,0.03595
5143.22591,0.04449
5145.15438,0.03224
5147.08285,0.01834
5149.01132,0.01717
5150.93979,0.01769
5152.86826,0.00868
5154.79673,-0.00559
5156.72519,-0.01336
5158.65366,-0.00651
5160.58213,0.00777
5162.51060,0.01222
5164.43907,0.01087
5166.36754,0.01758
5168.29601,0.02564
5170.22448,0.03056
5172.15294,0.03041
5174.08141,0.01938
5176.00988,0.00447
5177.93835,0.00037
5179.86682,0.01005
5181.79529,0.02255
5183.72376,0.02815
5185.65222,0.02653
5187.58069,0.02608
5189.50916,0.02683
5191.43763,0.02044
5193.36610,0.01477
5195.29457,0.02279
5197.22304,0.03224
5199.15151,0.02673
5201.07997,0.01391
5203.00844,0.00051
5204.93691,-0.00463
5206.86538,0.01079
5208.79385,0.02655
5210.72232,0.02717
5212.65079,0.02608
5214.57925,0.02934
5216.50772,0.03201
5218.43619,0.02962
5220.36466,0.02235
5222.29313,0.01276
5224.22160,0.00459
5226.15007,0.00878
5228.07854,0.02561
5230.00700,0.03676
5231.93547,0.03379
5233.86394,0.02460
5235.79241,0.01966
5237.72088,0.02144
5239.64935,0.02578
5241.57782,0.02620
5243.50628,0.02393
5245.43475,0.03032
5247.36322,0.04604
5249.29169,0.05833
5251.22016,0.05715
5253.14863,0.04141
5255.07710,0.02584
5257.00556,0.03059
5258.93403,0.04342
5260.86250,0.03946
5262.79097,0.02316
5264.71944,0.02093
5266.64791,0.04207
5268.57638,0.05884
5270.50485,0.04477
5272.43331,0.02109
5274.36178,0.01541
5276.29025,0.01926
5278.21872,0.01705
5280.14719,0.00551
5282.07566,-0.00139
5284.00413,0.00753
5285.93259,0.02072
5287.86106,0.02407
5289.78953,0.02069
5291.71800,0.02631
5293.64647,0.04522
5295.57494,0.06225
5297.50341,0.06282
5299.43188,0.05167
5301.36034,0.04140
5303.28881,0.02743
5305.21728,0.01269
5307.14575,0.01181
5309.07422,0.02130
5311.00269,0.03176
5312.93116,0.03872
5314.85962,0.03405
5316.78809,0.02707
5318.71656,0.03418
5320.64503,0.04085
5322.57350,0.03198
5324.50197,0.01983
5326.43044,0.02145
5328.35891,0.03765
5330.28737,0.04686
5332.21584,0.04114
5334.14431,0.03795
5336.07278,0.03805
5338.00125,0.03452
5339.92972,0.03787
5341.85819,0.04573
5343.78665,0.04402
5345.71512,0.03141
5347.64359,0.02710
5349.57206,0.03600
5351.50053,0.03608
5353.42900,0.02254
5355.35747,0.01675
5357.28594,0.01277
5359.21440,0.00772
5361.14287,0.01630
5363.07134,0.02749
5364.99981,0.02966
5366.92828,0.03893
5368.85675,0.06204
5370.78522,0.07817
5372.71368,0.07064
5374.64215,0.05694
5376.57062,0.05593
5378.49909,0.05261
5380.42756,0.04325
5382.35603,0.03608
5384.28450,0.02535
5386.21297,0.01700
5388.14143,0.02223
5390.06990,0.03161
5391.99837,0.04160
5393.92684,0.04509
5395.85531,0.04044
5397.78378,0.04409
5399.71225,0.04583
5401.64071,0.03256
5403.56918,0.01377
5405.49765,-0.00646
5407.42612,-0.01749
5409.35459,0.00455
5411.28306,0.04535
5413.21153,0.06104
5415.13999,0.05132
5417.06846,0.03876
5418.99693,0.02559
5420.92540,0.01479
5422.85387,0.01498
5424.78234,0.02838
5426.71081,0.03604
5428.63928,0.01822
5430.56774,-0.00198
5432.49621,0.00264
5434.42468,0.02036
5436.35315,0.03544
5438.28162,0.04911
5440.21009,0.05744
5442.13856,0.05785
5444.06702,0.05740
5445.99549,0.05266
5447.92396,0.04302
5449.85243,0.03378
5451.78090,0.02921
5453.70937,0.03839
5455.63784,0.05722
5457.56631,0.06747
5459.49477,0.07000
5461.42324,0.07171
5463.35171,0.06226
5465.28018,0.05131
5467.20865,0.05365
5469.13712,0.04784
5471.06559,0.03502
5472.99405,0.04785
5474.92252,0.06863
5476.85099,0.05739
5478.77946,0.03394
5480.70793,0.02525
5482.63640,0.02445
5484.56487,0.02993
5486.49334,0.04407
5488.42180,0.04837
5490.35027,0.03880
5492.27874,0.03181
5494.20721,0.02847
5496.13568,0.02213
5498.06415,0.02097
5499.99262,0.03194
5501.92108,0.04044
5503.84955,0.03947
5505.77802,0.03330
5507.70649,0.02470
5509.63496,0.02318
5511.56343,0.02940
5513.49190,0.03833
5515.42037,0.04953
5517.34883,0.05953
5519.27730,0.06732
5521.20577,0.07558
5523.13424,0.08306
5525.06271,0.09057
5526.99118,0.08860
5528.91965,0.06988
5530.84811,0.06003
5532.77658,0.07162
5534.70505,0.08432
5536.63352,0.08334
5538.56199,0.06875
5540.49046,0.05261
5542.41893,0.05355
5544.34740,0.06785
5546.27586,0.06211
5548.20433,0.03534
5550.13280,0.01743
5552.06127,0.01672
5553.98974,0.03285
5555.91821,0.05512
5557.84668,0.05917
5559.77514,0.03892
5561.70361,0.01837
5563.63208,0.02390
5565.56055,0.04929
5567.48902,0.06041
5569.41749,0.04465
5571.34596,0.03351
5573.27443,0.04682
5575.20289,0.05709
5577.13136,0.05112
5579.05983,0.05881
5580.98830,0.08285
5582.91677,0.08515
5584.84524,0.06991
5586.77371,0.06904
5588.70217,0.07316
5590.63064,0.06370
5592.55911,0.05063
5594.48758,0.04595
5596.41605,0.05428
5598.34452,0.06666
5600.27299,0.06307
5602.20145,0.04309
5604.12992,0.02535
5606.05839,0.02758
5607.98686,0.04334
5609.91533,0.04385
5611.84380,0.02855
5613.77227,0.02856
5615.70074,0.04185
5617.62920,0.04449
5619.55767,0.04442
5621.48614,0.05038
5623.41461,0.05858
5625.34308,0.06853
5627.27155,0.06575
5629.20002,0.05191
5631.12848,0.04943
5633.05695,0.06345
5634.98542,0.07783
5636.91389,0.06745
5638.84236,0.04119
5640.77083,0.02971
5642.69930,0.03466
5644.62777,0.04982
5646.55623,0.07426
5648.48470,0.08420
5650.41317,0.06687
5652.34164,0.05031
5654.27011,0.04349
5656.19858,0.02840
5658.12705,0.00784
5660.05551,0.00012
5661.98398,0.01870
5663.91245,0.04790
5665.84092,0.05792
5667.76939,0.05299
5669.69786,0.04970
5671.62633,0.04394
5673.55480,0.03521
5675.48326,0.03847
5677.41173,0.04745
5679.34020,0.04445
5681.26867,0.04078
5683.19714,0.04417
5685.12561,0.04844
5687.05408,0.04623
5688.98254,0.03018
5690.91101,0.01870
5692.83948,0.02636
5694.76795,0.04283
5696.69642,0.06003
5698.62489,0.06424
5700.55336,0.05829
5702.48183,0.05964
5704.41029,0.05926
5706.33876,0.05729
5708.26723,0.06219
5710.19570,0.06208
5712.12417,0.06654
5714.05264,0.08613
5715.98111,0.09216
5717.90957,0.07619
5719.83804,0.06110
5721.76651,0.05170
5723.69498,0.03518
5725.62345,0.02546
5727.55192,0.04330
5729.48039,0.05699
5731.40886,0.04096
5733.33732,0.02163
5735.26579,0.02010
5737.19426,0.02685
5739.12273,0.02523
5741.05120,0.02499
5742.97967,0.04007
5744.90814,0.05306
5746.83660,0.05151
5748.76507,0.04967
5750.69354,0.04678
5752.62201,0.05037
5754.55048,0.07613
5756.47895,0.08794
5758.40742,0.07072
5760.33588,0.05691
5762.26435,0.05803
5764.19282,0.06103
5766.12129,0.05137
5768.04976,0.03432
5769.97823,0.04257
5771.90670,0.08488
5773.83517,0.12373
5775.76363,0.13222
5777.69210,0.11307
5779.62057,0.09098
5781.54904,0.08301
5783.47751,0.06531
5785.40598,0.03510
5787.33445,0.03060
5789.26291,0.05348
5791.19138,0.07013
5793.11985,0.07181
5795.04832,0.07900
5796.97679,0.09602
5798.90526,0.09862
5800.83373,0.07976
5802.76220,0.05549
5804.69066,0.04548
5806.61913,0.05711
5808.54760,0.06823
5810.47607,0.06297
5812.40454,0.06473
5814.33301,0.07720
5816.26148,0.06807
5818.18994,0.05043
5820.11841,0.04804
5822.04688,0.04061
5823.97535,0.02496
5825.90382,0.01796
5827.83229,0.02884
5829.76076,0.04793
5831.68923,0.04989
5833.61769,0.04205
5835.54616,0.04715
5837.47463,0.06562
5839.40310,0.09441
5841.33157,0.10714
5843.26004,0.08031
5845.18851,0.04962
5847.11697,0.04266
5849.04544,0.04609
5850.97391,0.04433
5852.90238,0.03946
5854.83085,0.03886
5856.75932,0.03516
5858.68779,0.01806
5860.61626,0.00041
5862.54472,0.01502
5864.47319,0.05413
5866.40166,0.07450
5868.33013,0.07215
5870.25860,0.06242
5872.18707,0.04915
5874.11554,0.03904
5876.04400,0.03057
5877.97247,0.00982
5879.90094,0.00204
5881.82941,0.03627
5883.75788,0.06096
5885.68635,0.05380
5887.61482,0.06047
5889.54329,0.07020
5891.47175,0.06290
5893.40022,0.06387
5895.32869,0.07913
5897.25716,0.08651
5899.18563,0.06337
5901.11410,0.02991
5903.04257,0.02341
5904.97103,0.04166
5906.89950,0.06241
5908.82797,0.07668
5910.75644,0.08966
5912.68491,0.08117
5914.61338,0.04016
5916.54185,0.01120
5918.47032,0.01020
5920.39878,0.00620
5922.32725,-0.00075
5924.25572,0.00619
5926.18419,0.00608
5928.11266,-0.01299
5930.04113,-0.02506
5931.96960,-0.00709
5933.89806,0.03920
5935.82653,0.06454
5937.75500,0.04428
5939.68347,0.02229
5941.61194,0.01552
5943.54041,0.01866
5945.46888,0.03248
5947.39734,0.03221
5949.32581,0.01867
5951.25428,0.01376
5953.18275,0.00835
5955.11122,0.01321
5957.03969,0.04200
5958.96816,0.07425
5960.89663,0.08903
5962.82509,0.07840
5964.75356,0.05115
5966.68203,0.03051
5968.61050,0.02135
5970.53897,0.01244
5972.46744,0.01274
5974.39591,0.03076
5976.32437,0.05661
5978.25284,0.07786
5980.18131,0.07753
5982.10978,0.06090
5984.03825,0.05627
5985.96672,0.06296
5987.89519,0.06407
5989.82366,0.05807
5991.75212,0.05839
5993.68059,0.07300
5995.60906,0.07256
5997.53753,0.05374
5999.46600,0.05464
6001.39447,0.06473
6003.32294,0.05272
6005.25140,0.03890
6007.17987,0.05480
6009.10834,0.07725
6011.03681,0.07956
6012.96528,0.06208
6014.89375,0.03032
6016.82222,0.00693
6018.75069,0.00908
6020.67915,0.02648
6022.60762,0.05689
6024.53609,0.08987
6026.46456,0.09612
6028.39303,0.06970
6030.32150,0.04279
6032.24997,0.03588
6034.17843,0.03233
6036.10690,0.02307
6038.03537,0.02172
6039.96384,0.02586
6041.89231,0.02609
6043.82078,0.04087
6045.74925,0.06326
6047.67772,0.06391
6049.60618,0.05936
6051.53465,0.07217
6053.46312,0.08250
6055.39159,0.06755
6057.32006,0.04892
6059.24853,0.05099
6061.17700,0.05273
6063.10546,0.04976
6065.03393,0.05318
6066.96240,0.05567
6068.89087,0.05757
6070.81934,0.06065
6072.74781,0.05279
6074.67628,0.03638
6076.60475,0.02898
6078.53321,0.02833
6080.46168,0.02215
6082.39015,0.01393
6084.31862,0.02029
6086.24709,0.03472
6088.17556,0.03804
6090.10403,0.02655
6092.03249,0.00164
6093.96096,-0.00461
6095.88943,0.02725
6097.81790,0.05927
6099.74637,0.06576
6101.67484,0.06150
6103.60331,0.05352
6105.53177,0.04080
6107.46024,0.04164
6109.38871,0.05546
6111.31718,0.05703
6113.24565,0.05170
6115.17412,0.05799
6117.10259,0.06996
6119.03106,0.07294
6120.95952,0.06858
6122.88799,0.06104
6124.81646,0.04803
6126.74493,0.03215
6128.67340,0.01898
6130.60187,0.00987
6132.53034,0.00358
6134.45880,0.00380
6136.38727,0.01103
6138.31574,0.01975
6140.24421,0.02389
6142.17268,0.01681
6144.10115,0.00968
6146.02962,0.00444
6147.95809,-0.00693
6149.88655,-0.00607
6151.81502,-0.00037
6153.74349,0.00136
6155.67196,0.01152
6157.60043,0.00699
6159.52890,-0.01369
6161.45737,-0.02492
6163.38583,-0.02409
6165.31430,-0.01159
6167.24277,0.02010
6169.17124,0.06621
6171.09971,0.10049
6173.02818,0.10088
6174.95665,0.07430
6176.88512,0.05939
6178.81358,0.08986
6180.74205,0.12620
6182.67052,0.11334
6184.59899,0.07786
6186.52746,0.06037
6188.45593,0.04301
6190.38440,0.01337
6192.31286,-0.00860
6194.24133,-0.04165
6196.16980,-0.09489
6198.09827,-0.10837
6200.02674,-0.05083
6201.95521,0.04307
6203.88368,0.12097
6205.81215,0.13219
6207.74061,0.08745
6209.66908,0.04183
6211.59755,0.03942
6213.52602,0.07554
6215.45449,0.10743
6217.38296,0.08881
6219.31143,0.03536
6221.23989,-0.01073
6223.16836,-0.02748
6225.09683,-0.00027
6227.02530,0.03781
6228.95377,0.05308
6230.88224,0.04837
6232.81071,0.04396
6234.73918,0.05857
6236.66764,0.06316
6238.59611,0.03768
6240.52458,0.03123
6242.45305,0.07929
6244.38152,0.11422
6246.30999,0.09205
6248.23846,0.05900
6250.16692,0.03699
6252.09539,0.01684
6254.02386,-0.00054
6255.95233,-0.02157
6257.88080,-0.03645
6259.80927,-0.00660
6261.73774,0.04507
6263.66621,0.05777
6265.59467,0.04498
6267.52314,0.04900
6269.45161,0.06670
6271.38008,0.08250
6273.30855,0.07539
6275.23702,0.05540
6277.16549,0.07206
6279.09395,0.07602
6281.02242,0.01528
6282.95089,-0.01298
6284.87936,0.03561
6286.80783,0.07182
6288.73630,0.07518
6290.66477,0.07457
6292.59323,0.07081
6294.52170,0.04812
6296.45017,-0.01002
6298.37864,-0.05345
6300.30711,-0.02459
6302.23558,0.02659
6304.16405,0.03651
6306.09252,0.02915
6308.02098,0.02780
6309.94945,0.03456
6311.87792,0.02841
6313.80639,0.00196
6315.73486,0.02193
6317.66333,0.07598
6319.59180,0.08256
6321.52026,0.06889
6323.44873,0.05382
6325.37720,0.01971
6327.30567,0.02051
6329.23414,0.07119
6331.16261,0.09386
6333.09108,0.05235
6335.01955,0.00202
6336.94801,0.01201
6338.87648,0.06683
6340.80495,0.07935
6342.73342,0.04246
6344.66189,0.01494
6346.59036,0.01024
6348.51883,0.00767
6350.44729,-0.00873
6352.37576,-0.01608
6354.30423,0.02156
6356.23270,0.07624
6358.16117,0.08744
6360.08964,0.05722
6362.01811,0.03597
6363.94658,0.02357
6365.87504,0.00517
6367.80351,0.01049
6369.73198,0.02448
6371.66045,0.00421
6373.58892,-0.00564
6375.51739,0.02251
6377.44586,0.04898
6379.37432,0.04972
6381.30279,0.02383
6383.23126,0.02066
6385.15973,0.04484
6387.08820,0.02803
6389.01667,0.00718
6390.94514,0.03391
6392.87361,0.08116
6394.80207,0.11417
6396.73054,0.11796
6398.65901,0.09623
6400.58748,0.06775
6402.51595,0.04864
6404.44442,0.05893
6406.37289,0.09778
6408.30135,0.11453
6410.22982,0.08591
6412.15829,0.04724
6414.08676,0.02858
6416.01523,0.02550
6417.94370,0.03510
6419.87217,0.04820
6421.80064,0.03505
6423.72910,-0.00186
6425.65757,-0.02912
6427.58604,-0.02817
6429.51451,-0.02361
6431.44298,-0.03256
6433.37145,-0.03880
6435.29992,-0.04067
6437.22838,-0.05662
6439.15685,-0.08501
6441.08532,-0.05614
6443.01379,0.04677
6444.94226,0.10649
6446.87073,0.08666
6448.79920,0.05694
6450.72766,0.04034
6452.65613,0.03001
6454.58460,0.02955
6456.51307,0.03241
6458.44154,0.03330
6460.37001,0.04344
6462.29848,0.04450
6464.22695,0.02434
6466.15541,0.01316
6468.08388,0.01662
6470.01235,0.02483
6471.94082,0.04676
6473.86929,0.05831
6475.79776,0.04576
6477.72623,0.05380
6479.65469,0.08273
6481.58316,0.08375
6483.51163,0.06899
6485.44010,0.06111
6487.36857,0.02659
6489.29704,-0.02089
6491.22551,-0.01555
6493.15398,0.01628
6495.08244,0.01430
6497.01091,0.02201
6498.93938,0.05774
6500.86785,0.06780
6502.79632,0.03978
6504.72479,-0.00238
6506.65326,-0.04055
6508.58172,-0.03748
6510.51019,0.00504
6512.43866,0.03738
6514.36713,0.03524
6516.29560,0.01499
6518.22407,0.01444
6520.15254,0.05066
6522.08101,0.09956
6524.00947,0.13072
6525.93794,0.11509
6527.86641,0.05615
6529.79488,-0.00061
6531.72335,-0.02556
6533.65182,-0.01898
6535.58029,0.00165
6537.50875,0.01987
6539.43722,0.04159
6541.36569,0.08086
6543.29416,0.11074
6545.22263,0.08604
6547.15110,0.04599
6549.07957,0.04469
6551.00804,0.06313
6552.93650,0.05707
6554.86497,0.03815
6556.79344,0.04022
6558.72191,0.04447
6560.65038,0.04478
6562.57885,0.05956
6564.50732,0.03441
6566.43578,-0.02435
6568.36425,-0.03974
6570.29272,-0.02922
6572.22119,0.00416
6574.14966,0.04187
6576.07813,0.01842
6578.00660,-0.03245
6579.93507,-0.03476
6581.86353,0.02087
6583.79200,0.09364
6585.72047,0.13055
6587.64894,0.12832
6589.57741,0.09197
6591.50588,0.02176
6593.43435,-0.02412
6595.36281,-0.00561
6597.29128,0.00713
6599.21975,0.00052
6601.14822,0.02024
6603.07669,0.04900
6605.00516,0.04958
6606.93363,0.03953
6608.86210,0.04675
6610.79056,0.05256
6612.71903,0.05177
6614.64750,0.06912
6616.57597,0.10047
6618.50444,0.12974
6620.43291,0.12938
6622.36138,0.07868
6624.28984,0.00615
6626.21831,-0.02367
6628.14678,0.00533
6630.07525,0.04001
6632.00372,0.04792
6633.93219,0.03652
6635.86066,0.01633
6637.78912,0.02622
6639.71759,0.05863
6641.64606,0.07384
6643.57453,0.08510
6645.50300,0.10990
6647.43147,0.09780
6649.35994,0.02270
6651.28841,-0.03083
6653.21687,-0.01321
6655.14534,0.00466
6657.07381,0.02052
6659.00228,0.09516
6660.93075,0.14465
6662.85922,0.12983
6664.78769,0.08602
6666.71615,0.01181
6668.64462,-0.04282
6670.57309,-0.04359
6672.50156,-0.04084
6674.43003,-0.03200
6676.35850,0.02059
6678.28697,0.07204
6680.21544,0.08408
6682.14390,0.08245
6684.07237,0.07879
6686.00084,0.07427
6687.92931,0.05720
6689.85778,0.01080
6691.78625,-0.00852
6693.71472,0.03015
6695.64318,0.07238
6697.57165,0.05911
6699.50012,0.00455
6701.42859,-0.03654
6703.35706,-0.02755
6705.28553,-0.00223
6707.21400,-0.02482
6709.14247,-0.06167
6711.07093,-0.03060
6712.99940,0.04578
6714.92787,0.09638
6716.85634,0.11208
6718.78481,0.08990
6720.71328,0.01895
6722.64175,0.00536
6724.57021,0.07883
6726.49868,0.09485
6728.42715,0.04517
6730.35562,0.02668
6732.28409,0.01281
6734.21256,-0.02115
6736.14103,-0.02124
6738.06950,0.00453
6739.99796,0.01927
6741.92643,0.01540
6743.85490,0.00941
6745.78337,0.05498
6747.71184,0.15941
6749.64031,0.20896
6751.56878,0.14205
6753.49724,0.05144
6755.42571,0.04771
6757.35418,0.09336
6759.28265,0.08714
6761.21112,0.09144
6763.13959,0.15044
6765.06806,0.12700
6766.99653,0.03477
6768.92499,0.01185
6770.85346,0.00868
6772.78193,-0.04311
6774.71040,-0.05803
6776.63887,0.00303
6778.56734,0.06807
6780.49581,0.09125
6782.42427,0.09275
6784.35274,0.10151
6786.28121,0.09761
6788.20968,0.07449
6790.13815,0.06591
6792.06662,0.09112
6793.99509,0.09374
6795.92355,0.03866
6797.85202,-0.00636
6799.78049,-0.01552
6801.70896,-0.02113
6803.63743,-0.02175
6805.56590,-0.01787
6807.49437,0.02473
6809.42284,0.10672
6811.35130,0.11877
6813.27977,0.04770
6815.20824,-0.01106
6817.13671,-0.03304
6819.06518,-0.02194
6820.99365,-0.02021
6822.92212,-0.07395
6824.85058,-0.09365
6826.77905,-0.03064
6828.70752,0.03218
6830.63599,0.06234
6832.56446,0.06055
6834.49293,-0.00855
6836.42140,-0.09480
6838.34987,-0.10188
6840.27833,-0.06300
6842.20680,-0.02943
6844.13527,0.01196
6846.06374,0.05124
6847.99221,0.05395
6849.92068,0.03854
6851.84915,0.05108
6853.77761,0.07486
6855.70608,0.07386
6857.63455,0.03156
6859.56302,-0.01360
6861.49149,0.02085
6863.41996,0.11835
6865.34843,0.13261
6867.27690,0.06474
6869.20536,0.04353
6871.13383,0.08106
6873.06230,0.10165
6874.99077,0.08898
6876.91924,0.07138
6878.84771,0.02565
6880.77618,-0.02642
6882.70464,0.00600
6884.63311,0.12764
6886.56158,0.22470
6888.49005,0.20829
6890.41852,0.11261
6892.34699,0.02029
6894.27546,0.01848
6896.20393,0.09566
6898.13239,0.09368
6900.06086,-0.02728
6901.98933,-0.09216
6903.91780,-0.05654
6905.84627,-0.02153
6907.77474,0.01329
6909.70321,0.05814
6911.63167,0.05523
6913.56014,0.04315
6915.48861,0.06874
6917.41708,0.05101
6919.34555,-0.05581
6921.27402,-0.08493
6923.20249,0.03474
6925.13096,0.16375
6927.05942,0.19339
6928.98789,0.09692
6930.91636,-0.02729
6932.84483,-0.03850
6934.77330,0.02737
6936.70177,0.07111
6938.63024,0.07056
6940.55870,0.03825
6942.48717,-0.00238
6944.41564,0.00283
6946.34411,0.07356
6948.27258,0.11912
6950.20105,0.08521
6952.12952,0.01186
6954.05799,-0.04525
6955.98645,-0.03260
6957.91492,0.00092
6959.84339,-0.02741
6961.77186,-0.06918
6963.70033,-0.04467
6965.62880,-0.00095
6967.55727,-0.02140
6969.48573,-0.07723
6971.41420,-0.03119
6973.34267,0.08306
6975.27114,0.08743
6977.19961,0.03518
6979.12808,0.06303
6981.05655,0.14695
6982.98501,0.18954
6984.91348,0.16588
6986.84195,0.12643
6988.77042,0.07406
6990.69889,0.02499
6992.62736,0.00851
6994.55583,0.00632
6996.48430,-0.01291
6998.41276,-0.05373
7000.34123,-0.07436
7002.26970,-0.03499
7004.19817,0.01329
7006.12664,0.01497
7008.05511,0.01886
7009.98358,0.02175
7011.91204,-0.02181
7013.84051,-0.03020
7015.76898,0.02165
7017.69745,0.03241
7019.62592,0.02497
7021.55439,0.06489
7023.48286,0.11043
7025.41133,0.09873
7027.33979,0.07022
7029.26826,0.09725
7031.19673,0.11761
7033.12520,0.06234
7035.05367,-0.00653
7036.98214,-0.01430
7038.91061,0.03476
7040.83907,0.09183
7042.76754,0.08788
7044.69601,0.06678
7046.62448,0.09557
7048.55295,0.10293
7050.48142,0.07486
7052.40989,0.06210
7054.33836,0.06870
7056.26682,0.06354
7058.19529,-0.01418
7060.12376,-0.09934
7062.05223,-0.04596
7063.98070,0.08379
7065.90917,0.13366
7067.83764,0.12806
7069.76610,0.11740
7071.69457,0.11863
7073.62304,0.13000
7075.55151,0.11006
7077.47998,0.06896
7079.40845,0.03379
7081.33692,-0.03849
7083.26539,-0.13436
7085.19385,-0.19160
7087.12232,-0.22650
7089.05079,-0.19008
7090.97926,-0.05234
7092.90773,0.04837
7094.83620,0.04050
7096.76467,0.04986
7098.69313,0.06311
7100.62160,-0.02674
7102.55007,-0.09900
7104.47854,-0.07785
7106.40701,-0.05839
7108.33548,-0.07456
7110.26395,-0.06281
7112.19242,-0.01300
7114.12088,0.07051
7116.04935,0.16846
7117.97782,0.20931
7119.90629,0.16657
7121.83476,0.10879
7123.76323,0.08262
7125.69170,0.07597
7127.62016,0.05273
7129.54863,0.04339
7131.47710,0.09707
7133.40557,0.14858
7135.33404,0.10038
7137.26251,-0.01296
7139.19098,-0.06401
7141.11944,0.01627
7143.04791,0.07906
7144.97638,0.01407
7146.90485,-0.05770
7148.83332,-0.07783
7150.76179,-0.06426
7152.69026,-0.01210
7154.61873,0.05728
7156.54719,0.14093
7158.47566,0.16618
7160.40413,0.09787
7162.33260,0.07265
7164.26107,0.11322
7166.18954,0.08374
7168.11801,0.03704
7170.04647,0.05328
7171.97494,0.04125
7173.90341,-0.02445
7175.83188,-0.09216
7177.76035,-0.07493
7179.68882,0.02611
7181.61729,0.04530
7183.54576,-0.00642
7185.47422,0.06838
7187.40269,0.17818
7189.33116,0.19298
7191.25963,0.17379
7193.18810,0.21220
7195.11657,0.19014
7197.04504,0.06572
7198.97350,0.02437
7200.90197,0.07987
7202.83044,0.09648
7204.75891,0.02373
7206.68738,-0.08693
7208.61585,-0.14075
7210.54432,-0.12340
7212.47279,-0.09257
7214.40125,-0.07900
7216.32972,-0.05185
7218.25819,0.02308
7220.18666,0.06231
7222.11513,-0.00530
7224.04360,-0.09805
7225.97207,-0.09607
7227.90053,-0.03206
7229.82900,-0.01706
7231.75747,0.03365
7233.68594,0.14394
7235.61441,0.15091
7237.54288,0.08638
7239.47135,0.04308
7241.39982,-0.05634
7243.32828,-0.15994
7245.25675,-0.08797
7247.18522,0.02792
7249.11369,0.09621
7251.04216,0.17566
7252.97063,0.23895
7254.89910,0.16717
7256.82756,0.08378
7258.75603,0.11736
7260.68450,0.25252
7262.61297,0.29616
7264.54144,0.20843
7266.46991,0.12766
7268.39838,0.07109
7270.32685,0.01829
7272.25531,0.01060
7274.18378,0.04172
7276.11225,0.07444
7278.04072,0.10860
7279.96919,0.07964
7281.89766,-0.04386
7283.82613,-0.11590
7285.75459,-0.08692
7287.68306,-0.04286
7289.61153,-0.03002
7291.54000,-0.01550
7293.46847,0.05957
7295.39694,0.17757
7297.32541,0.19061
7299.25387,0.09778
7301.18234,0.04121
7303.11081,0.03961
7305.03928,-0.00113
7306.96775,-0.09761
7308.89622,-0.17352
7310.82469,-0.14268
7312.75316,-0.04521
7314.68162,-0.01472
7316.61009,0.03316
7318.53856,0.13518
7320.46703,0.13736
7322.39550,0.05058
7324.32397,0.01900
7326.25244,-0.02763
7328.18090,-0.15083
7330.10937,-0.17124
7332.03784,-0.06849
7333.96631,0.00396
7335.89478,0.01523
7337.82325,-0.01999
7339.75172,-0.00573
7341.68019,0.10810
7343.60865,0.10244
7345.53712,0.03342
7347.46559,0.02468
7349.39406,0.05264
7351.32253,0.11497
7353.25100,0.19650
7355.17947,0.23912
7357.10793,0.26480
7359.03640,0.20211
7360.96487,0.05470
7362.89334,0.01903
7364.82181,0.06709
7366.75028,0.06814
7368.67875,0.05931
7370.60722,0.09420
7372.53568,0.12568
7374.46415,0.10427
7376.39262,0.02628
7378.32109,-0.02049
7380.24956,0.00721
7382.17803,0.08403
7384.10650,0.10770
7386.03496,0.03825
7387.96343,-0.03658
7389.89190,-0.01852
7391.82037,0.04154
7393.74884,0.08555
7395.67731,0.16521
7397.60578,0.23383
7399.53425,0.18233
7401.46271,0.06995
7403.39118,-0.01586
7405.31965,-0.04152
7407.24812,-0.00834
7409.17659,0.01148
7411.10506,-0.01065
7413.03353,0.01070
7414.96199,0.09640
7416.89046,0.17764
7418.81893,0.17024
7420.74740,0.10649
7422.67587,0.10229
7424.60434,0.10769
7426.53281,0.08443
7428.46128,0.06876
7430.38974,0.05055
7432.31821,0.04212
7434.24668,0.09950
7436.17515,0.16886
7438.10362,0.16485
7440.03209,0.05300
7441.96056,-0.04388
7443.88902,0.02693
7445.81749,0.12623
7447.74596,0.14249
7449.67443,0.10511
7451.60290,0.01053
7453.53137,-0.09149
7455.45984,-0.12324
7457.38831,-0.03680
7459.31677,0.17644
7461.24524,0.31935
7463.17371,0.30620
7465.10218,0.23766
7467.03065,0.10764
7468.95912,-0.04653
7470.88759,-0.12916
7472.81605,-0.09665
7474.74452,-0.09392
7476.67299,-0.11268
7478.60146,-0.03769
7480.52993,0.10863
7482.45840,0.21013
7484.38687,0.13701
7486.31533,-0.04687
7488.24380,-0.12795
7490.17227,-0.02741
7492.10074,0.11627
7494.02921,0.13272
7495.95768,0.00818
7497.88615,-0.11869
