399.19301,0.85925
401.12148,0.28742
403.04995,0.30992
404.97842,0.25968
406.90689,0.17083
408.83536,0.14163
410.76382,0.14311
412.69229,0.13079
414.62076,0.09750
416.54923,0.03346
418.47770,-0.06069
420.40617,-0.09515
422.33464,-0.02087
424.26311,0.08066
426.19157,0.10672
428.12004,0.07258
430.04851,0.05551
431.97698,0.08810
433.90545,0.11095
435.83392,0.08827
437.76239,0.08697
439.69085,0.13409
441.61932,0.17428
443.54779,0.14614
445.47626,0.07652
447.40473,0.05381
449.33320,0.09747
451.26167,0.13712
453.19013,0.13893
455.11860,0.12180
457.04707,0.09667
458.97554,0.08566
460.90401,0.09392
462.83248,0.09340
464.76095,0.09329
466.68942,0.11367
468.61788,0.14395
470.54635,0.18495
472.47482,0.28505
474.40329,0.38335
476.33176,0.28979
478.26023,0.15342
480.18870,0.07396
482.11716,0.04645
484.04563,0.04973
485.97410,0.06340
487.90257,0.07557
489.83104,0.08909
491.75951,0.11393
493.68798,0.12818
495.61645,0.09968
497.54491,0.06509
499.47338,0.07279
501.40185,0.08266
503.33032,0.06268
505.25879,0.04659
507.18726,0.04745
509.11573,0.06511
511.04419,0.08838
512.97266,0.07700
514.90113,0.03471
516.82960,0.03877
518.75807,0.08809
520.68654,0.10044
522.61501,0.09484
524.54348,0.09575
526.47194,0.07630
528.40041,0.05783
530.32888,0.05995
532.25735,0.05646
534.18582,0.03486
536.11429,0.01252
538.04276,0.00292
539.97122,0.01832
541.89969,0.05462
543.82816,0.06571
545.75663,0.04548
547.68510,0.04122
549.61357,0.06644
551.54204,0.08042
553.47051,0.06220
555.39897,0.04927
557.32744,0.05888
559.25591,0.06603
561.18438,0.06232
563.11285,0.05539
565.04132,0.05570
566.96979,0.06619
568.89825,0.06906
570.82672,0.05650
572.75519,0.03381
574.68366,0.01492
576.61213,0.02126
578.54060,0.04185
580.46907,0.05968
582.39754,0.06153
584.32600,0.04249
586.25447,0.03549
588.18294,0.05432
590.11141,0.06774
592.03988,0.06154
593.96835,0.05624
595.89682,0.05694
597.82528,0.05596
599.75375,0.05776
601.68222,0.06115
603.61069,0.06216
605.53916,0.05870
607.46763,0.05529
609.39610,0.06347
611.32456,0.07573
613.25303,0.07051
615.18150,0.05228
617.10997,0.04330
619.03844,0.04710
620.96691,0.05461
622.89538,0.05491
624.82385,0.04665
626.75231,0.03645
628.68078,0.03163
630.60925,0.04096
632.53772,0.05683
634.46619,0.06248
636.39466,0.06141
638.32313,0.06784
640.25159,0.07394
642.18006,0.06168
644.10853,0.04508
646.03700,0.05167
647.96547,0.07457
649.89394,0.07352
651.82241,0.05047
653.75088,0.05156
655.67934,0.06715
657.60781,0.05921
659.53628,0.04317
661.46475,0.03865
663.39322,0.03221
665.32169,0.01707
667.25016,0.00024
669.17862,0.00954
671.10709,0.04097
673.03556,0.06253
674.96403,0.06549
676.89250,0.06083
678.82097,0.06931
680.74944,0.08125
682.67791,0.08068
684.60637,0.07254
686.53484,0.06287
688.46331,0.04947
690.39178,0.04110
692.32025,0.04925
694.24872,0.06260
696.17719,0.07225
698.10565,0.08116
700.03412,0.08500
701.96259,0.07717
703.89106,0.06430
705.81953,0.06184
707.74800,0.06684
709.67647,0.07024
711.60494,0.07364
713.53340,0.07417
715.46187,0.07082
717.39034,0.06882
719.31881,0.07177
721.24728,0.08359
723.17575,0.09974
725.10422,0.10408
727.03268,0.08951
728.96115,0.07119
730.88962,0.06776
732.81809,0.07225
734.74656,0.06892
736.67503,0.06542
738.60350,0.07179
740.53197,0.08223
742.46043,0.08289
744.38890,0.07099
746.31737,0.06563
748.24584,0.07469
750.17431,0.08673
752.10278,0.09136
754.03125,0.08554
755.95971,0.08068
757.88818,0.07963
759.81665,0.07348
761.74512,0.06596
763.67359,0.05961
765.60206,0.05588
767.53053,0.06465
769.45900,0.08296
771.38746,0.09155
773.31593,0.08499
775.24440,0.07842
777.17287,0.07671
779.10134,0.07271
781.02981,0.07260
782.95828,0.07916
784.88674,0.08053
786.81521,0.07788
788.74368,0.07539
790.67215,0.06893
792.60062,0.06639
794.52909,0.07482
796.45756,0.08347
798.38602,0.08421
800.31449,0.08204
802.24296,0.08103
804.17143,0.08303
806.09990,0.08666
808.02837,0.08573
809.95684,0.08030
811.88531,0.07439
813.81377,0.07079
815.74224,0.07015
817.67071,0.07201
819.59918,0.07336
821.52765,0.06764
823.45612,0.06029
825.38459,0.06079
827.31305,0.06968
829.24152,0.08324
831.16999,0.08814
833.09846,0.07763
835.02693,0.06317
836.95540,0.05691
838.88387,0.06238
840.81234,0.06827
842.74080,0.06447
844.66927,0.06042
846.59774,0.06631
848.52621,0.07691
850.45468,0.08103
852.38315,0.07808
854.31162,0.07685
856.24008,0.07644
858.16855,0.07096
860.09702,0.06694
862.02549,0.07032
863.95396,0.07759
865.88243,0.08216
867.81090,0.08607
869.73937,0.09857
871.66783,0.10162
873.59630,0.08288
875.52477,0.06918
877.45324,0.07103
879.38171,0.07683
881.31018,0.08314
883.23865,0.08633
885.16711,0.08285
887.09558,0.07838
889.02405,0.07722
890.95252,0.07590
892.88099,0.07509
894.80946,0.07516
896.73793,0.07040
898.66640,0.06312
900.59486,0.06068
902.52333,0.06242
904.45180,0.06533
906.38027,0.06924
908.30874,0.07623
910.23721,0.08340
912.16568,0.08232
914.09414,0.07656
916.02261,0.07825
917.95108,0.08569
919.87955,0.08511
921.80802,0.07898
923.73649,0.08003
925.66496,0.08150
927.59343,0.07647
929.52189,0.07411
931.45036,0.07806
933.37883,0.08296
935.30730,0.08515
937.23577,0.08363
939.16424,0.08163
941.09271,0.08193
943.02117,0.07839
944.94964,0.06835
946.87811,0.06423
948.80658,0.07127
950.73505,0.07609
952.66352,0.07528
954.59199,0.07754
956.52045,0.08102
958.44892,0.08247
960.37739,0.08267
962.30586,0.07812
964.23433,0.07148
966.16280,0.06958
968.09127,0.07127
970.01974,0.07248
971.94820,0.07255
973.87667,0.07491
975.80514,0.08136
977.73361,0.08649
979.66208,0.08543
981.59055,0.07860
983.51902,0.07061
985.44748,0.07057
987.37595,0.08028
989.30442,0.08841
991.23289,0.08820
993.16136,0.08582
995.08983,0.08758
997.01830,0.09061
998.94677,0.09200
1000.87523,0.09337
1002.80370,0.09231
1004.73217,0.08893
1006.66064,0.08757
1008.58911,0.08777
1010.51758,0.08792
1012.44605,0.08516
1014.37451,0.08113
1016.30298,0.08373
1018.23145,0.08670
1020.15992,0.08212
1022.08839,0.07970
1024.01686,0.08190
1025.94533,0.08125
1027.87380,0.08083
1029.80226,0.08362
1031.73073,0.08417
1033.65920,0.08461
1035.58767,0.08959
1037.51614,0.09116
1039.44461,0.08834
1041.37308,0.08987
1043.30154,0.09325
1045.23001,0.09168
1047.15848,0.08849
1049.08695,0.08987
1051.01542,0.09170
1052.94389,0.08912
1054.87236,0.08453
1056.80083,0.08081
1058.72929,0.07878
1060.65776,0.07910
1062.58623,0.08519
1064.51470,0.09746
1066.44317,0.10694
1068.37164,0.10587
1070.30011,0.10037
1072.22857,0.09944
1074.15704,0.10194
1076.08551,0.10312
1078.01398,0.09878
1079.94245,0.09176
1081.87092,0.08906
1083.79939,0.08939
1085.72786,0.08912
1087.65632,0.08748
1089.58479,0.08644
1091.51326,0.08943
1093.44173,0.09322
1095.37020,0.09285
1097.29867,0.08964
1099.22714,0.08540
1101.15560,0.08303
1103.08407,0.08514
1105.01254,0.08883
1106.94101,0.09354
1108.86948,0.09909
1110.79795,0.10032
1112.72642,0.09641
1114.65489,0.09376
1116.58335,0.09768
1118.51182,0.10282
1120.44029,0.09776
1122.36876,0.08577
1124.29723,0.08169
1126.22570,0.08458
1128.15417,0.08333
1130.08263,0.08039
1132.01110,0.08073
1133.93957,0.08175
1135.86804,0.08064
1137.79651,0.07716
1139.72498,0.07609
1141.65345,0.07907
1143.58191,0.08148
1145.51038,0.08410
1147.43885,0.09002
1149.36732,0.09615
1151.29579,0.09667
1153.22426,0.09061
1155.15273,0.08509
1157.08120,0.08568
1159.00966,0.08920
1160.93813,0.09094
1162.86660,0.08975
1164.79507,0.08972
1166.72354,0.09401
1168.65201,0.09749
1170.58048,0.09653
1172.50894,0.09398
1174.43741,0.09304
1176.36588,0.09556
1178.29435,0.09834
1180.22282,0.09605
1182.15129,0.09225
1184.07976,0.09072
1186.00823,0.08848
1187.93669,0.08686
1189.86516,0.08800
1191.79363,0.09024
1193.72210,0.09260
1195.65057,0.09343
1197.57904,0.09242
1199.50751,0.09216
1201.43597,0.09344
1203.36444,0.09448
1205.29291,0.09402
1207.22138,0.09245
1209.14985,0.09174
1211.07832,0.09235
1213.00679,0.09321
1214.93526,0.09385
1216.86372,0.09158
1218.79219,0.08751
1220.72066,0.08707
1222.64913,0.08910
1224.57760,0.09007
1226.50607,0.09123
1228.43454,0.09302
1230.36300,0.09401
1232.29147,0.09401
1234.21994,0.09256
1236.14841,0.09062
1238.07688,0.08892
1240.00535,0.08784
1241.93382,0.08958
1243.86229,0.09158
1245.79075,0.09097
1247.71922,0.08984
1249.64769,0.08924
1251.57616,0.09002
1253.50463,0.09257
1255.43310,0.09312
1257.36157,0.08943
1259.29003,0.08532
1261.21850,0.08408
1263.14697,0.08605
1265.07544,0.08963
1267.00391,0.09040
1268.93238,0.08873
1270.86085,0.09000
1272.78932,0.09350
1274.71778,0.09476
1276.64625,0.09454
1278.57472,0.09481
1280.50319,0.09459
1282.43166,0.09326
1284.36013,0.09229
1286.28860,0.09298
1288.21706,0.09429
1290.14553,0.09538
1292.07400,0.09608
1294.00247,0.09594
1295.93094,0.09461
1297.85941,0.09298
1299.78788,0.09155
1301.71634,0.08756
1303.64481,0.08243
1305.57328,0.08358
1307.50175,0.09171
1309.43022,0.09837
1311.35869,0.10040
1313.28716,0.10121
1315.21563,0.10066
1317.14409,0.09920
1319.07256,0.09928
1321.00103,0.10053
1322.92950,0.10209
1324.85797,0.10084
1326.78644,0.09608
1328.71491,0.09387
1330.64337,0.09448
1332.57184,0.09420
1334.50031,0.09458
1336.42878,0.09626
1338.35725,0.09803
1340.28572,0.09871
1342.21419,0.09776
1344.14266,0.09551
1346.07112,0.09355
1347.99959,0.09447
1349.92806,0.09505
1351.85653,0.09402
1353.78500,0.09575
1355.71347,0.09718
1357.64194,0.09601
1359.57040,0.09799
1361.49887,0.10240
1363.42734,0.10194
1365.35581,0.09985
1367.28428,0.10104
1369.21275,0.10141
1371.14122,0.10107
1373.06969,0.10454
1374.99815,0.10792
1376.92662,0.10623
1378.85509,0.10281
1380.78356,0.10008
1382.71203,0.09810
1384.64050,0.09762
1386.56897,0.09989
1388.49743,0.10168
1390.42590,0.10172
1392.35437,0.10562
1394.28284,0.11129
1396.21131,0.11123
1398.13978,0.10845
1400.06825,0.10672
1401.99672,0.10646
1403.92518,0.10764
1405.85365,0.10757
1407.78212,0.10646
1409.71059,0.10642
1411.63906,0.10554
1413.56753,0.10487
1415.49600,0.10980
1417.42446,0.11910
1419.35293,0.12072
1421.28140,0.11421
1423.20987,0.11051
1425.13834,0.10807
1427.06681,0.10583
1428.99528,0.10672
1430.92375,0.10968
1432.85221,0.11079
1434.78068,0.11159
1436.70915,0.11291
1438.63762,0.10896
1440.56609,0.10318
1442.49456,0.10172
1444.42303,0.10592
1446.35149,0.11270
1448.27996,0.11417
1450.20843,0.10946
1452.13690,0.10777
1454.06537,0.11294
1455.99384,0.12372
1457.92231,0.12723
1459.85077,0.11854
1461.77924,0.11441
1463.70771,0.11444
1465.63618,0.11137
1467.56465,0.10788
1469.49312,0.11217
1471.42159,0.12499
1473.35006,0.13447
1475.27852,0.12967
1477.20699,0.12026
1479.13546,0.11316
1481.06393,0.10990
1482.99240,0.10847
1484.92087,0.11079
1486.84934,0.12042
1488.77780,0.12908
1490.70627,0.12137
1492.63474,0.11030
1494.56321,0.11142
1496.49168,0.12134
1498.42015,0.12390
1500.34862,0.11770
1502.27709,0.11564
1504.20555,0.12693
1506.13402,0.15729
1508.06249,0.16196
1509.99096,0.13639
1511.91943,0.12224
1513.84790,0.11990
1515.77637,0.12668
1517.70483,0.13567
1519.63330,0.14278
1521.56177,0.14787
1523.49024,0.14106
1525.41871,0.13070
1527.34718,0.12401
1529.27565,0.12129
1531.20412,0.12385
1533.13258,0.12705
1535.06105,0.12461
1536.98952,0.12617
1538.91799,0.14191
1540.84646,0.16076
1542.77493,0.15611
1544.70340,0.14180
1546.63186,0.12809
1548.56033,0.12206
1550.48880,0.11997
1552.41727,0.11844
1554.34574,0.12427
1556.27421,0.14021
1558.20268,0.15963
1560.13115,0.14590
1562.05961,0.12513
1563.98808,0.11812
1565.91655,0.11753
1567.84502,0.12158
1569.77349,0.12408
1571.70196,0.11797
1573.63043,0.11585
1575.55889,0.12361
1577.48736,0.12384
1579.41583,0.11194
1581.34430,0.10199
1583.27277,0.09708
1585.20124,0.09734
1587.12971,0.10103
1589.05818,0.10377
1590.98664,0.10483
1592.91511,0.10648
1594.84358,0.10728
1596.77205,0.10704
1598.70052,0.10879
1600.62899,0.11168
1602.55746,0.11242
1604.48592,0.11068
1606.41439,0.10924
1608.34286,0.10830
1610.27133,0.10639
1612.19980,0.10555
1614.12827,0.10959
1616.05674,0.11843
1617.98521,0.11957
1619.91367,0.11525
1621.84214,0.11642
1623.77061,0.11830
1625.69908,0.11727
1627.62755,0.11696
1629.55602,0.11585
1631.48449,0.11631
1633.41295,0.12475
1635.34142,0.14024
1637.26989,0.14197
1639.19836,0.13392
1641.12683,0.13080
1643.05530,0.13470
1644.98377,0.14616
1646.91223,0.15355
1648.84070,0.14337
1650.76917,0.13927
1652.69764,0.14907
1654.62611,0.14292
1656.55458,0.12793
1658.48305,0.12153
1660.41152,0.12089
1662.33998,0.12250
1664.26845,0.12279
1666.19692,0.12415
1668.12539,0.13083
1670.05386,0.13702
1671.98233,0.13501
1673.91080,0.13296
1675.83926,0.12999
1677.76773,0.12507
1679.69620,0.12513
1681.62467,0.13222
1683.55314,0.14122
1685.48161,0.13654
1687.41008,0.12726
1689.33855,0.12315
1691.26701,0.12179
1693.19548,0.12506
1695.12395,0.13559
1697.05242,0.14675
1698.98089,0.15121
1700.90936,0.14495
1702.83783,0.13409
1704.76629,0.12884
1706.69476,0.12436
1708.62323,0.11842
1710.55170,0.11689
1712.48017,0.12286
1714.40864,0.13516
1716.33711,0.14701
1718.26558,0.13897
1720.19404,0.12053
1722.12251,0.11140
1724.05098,0.10987
1725.97945,0.11314
1727.90792,0.11970
1729.83639,0.12511
1731.76486,0.12826
1733.69332,0.12920
1735.62179,0.12306
1737.55026,0.11770
1739.47873,0.11655
1741.40720,0.11695
1743.33567,0.11868
1745.26414,0.12161
1747.19261,0.12300
1749.12107,0.12121
1751.04954,0.11795
1752.97801,0.11581
1754.90648,0.11625
1756.83495,0.11939
1758.76342,0.12336
1760.69189,0.12561
1762.62035,0.12100
1764.54882,0.11403
1766.47729,0.11471
1768.40576,0.12155
1770.33423,0.12860
1772.26270,0.13054
1774.19117,0.12439
1776.11964,0.11868
1778.04810,0.11739
1779.97657,0.11819
1781.90504,0.11910
1783.83351,0.12007
1785.76198,0.11913
1787.69045,0.11799
1789.61892,0.12223
1791.54738,0.12803
1793.47585,0.12585
1795.40432,0.12165
1797.33279,0.12177
1799.26126,0.12392
1801.18973,0.12355
1803.11820,0.11936
1805.04666,0.11568
1806.97513,0.11444
1808.90360,0.11418
1810.83207,0.11333
1812.76054,0.11130
1814.68901,0.11020
1816.61748,0.11136
1818.54595,0.11419
1820.47441,0.11706
1822.40288,0.11841
1824.33135,0.11974
1826.25982,0.12272
1828.18829,0.12573
1830.11676,0.12417
1832.04523,0.11793
1833.97369,0.11478
1835.90216,0.11501
1837.83063,0.11405
1839.75910,0.11314
1841.68757,0.11654
1843.61604,0.12168
1845.54451,0.12118
1847.47298,0.11712
1849.40144,0.11398
1851.32991,0.11281
1853.25838,0.11321
1855.18685,0.11361
1857.11532,0.11405
1859.04379,0.11433
1860.97226,0.11319
1862.90072,0.11149
1864.82919,0.11268
1866.75766,0.11776
1868.68613,0.12062
1870.61460,0.11728
1872.54307,0.11445
1874.47154,0.11419
1876.40001,0.11403
1878.32847,0.11386
1880.25694,0.11381
1882.18541,0.11384
1884.11388,0.11446
1886.04235,0.11555
1887.97082,0.11854
1889.89929,0.12191
1891.82775,0.12066
1893.75622,0.11659
1895.68469,0.11426
1897.61316,0.11474
1899.54163,0.11601
1901.47010,0.11623
1903.39857,0.11634
1905.32704,0.11784
1907.25550,0.11952
1909.18397,0.11873
1911.11244,0.11554
1913.04091,0.11331
1914.96938,0.11501
1916.89785,0.11903
1918.82632,0.11994
1920.75478,0.11892
1922.68325,0.11898
1924.61172,0.11779
1926.54019,0.11570
1928.46866,0.11419
1930.39713,0.11317
1932.32560,0.11300
1934.25407,0.11320
1936.18253,0.11331
1938.11100,0.11461
1940.03947,0.11780
1941.96794,0.12048
1943.89641,0.11893
1945.82488,0.11465
1947.75335,0.11157
1949.68181,0.11034
1951.61028,0.11013
1953.53875,0.11115
1955.46722,0.11349
1957.39569,0.11529
1959.32416,0.11597
1961.25263,0.11670
1963.18110,0.11758
1965.10956,0.11820
1967.03803,0.11672
1968.96650,0.11407
1970.89497,0.11382
1972.82344,0.11409
1974.75191,0.11313
1976.68038,0.11395
1978.60884,0.11658
1980.53731,0.11739
1982.46578,0.11533
1984.39425,0.11273
1986.32272,0.11276
1988.25119,0.11573
1990.17966,0.11809
1992.10812,0.11714
1994.03659,0.11530
1995.96506,0.11532
1997.89353,0.11590
1999.82200,0.11600
2001.75047,0.11553
2003.67894,0.11439
2005.60741,0.11371
2007.53587,0.11430
2009.46434,0.11532
2011.39281,0.11489
2013.32128,0.11384
2015.24975,0.11510
2017.17822,0.11718
2019.10669,0.11651
2021.03515,0.11427
2022.96362,0.11352
2024.89209,0.11387
2026.82056,0.11367
2028.74903,0.11402
2030.67750,0.11553
2032.60597,0.11558
2034.53444,0.11404
2036.46290,0.11371
2038.39137,0.11379
2040.31984,0.11248
2042.24831,0.11072
2044.17678,0.10980
2046.10525,0.11068
2048.03372,0.11369
2049.96218,0.11612
2051.89065,0.11518
2053.81912,0.11315
2055.74759,0.11327
2057.67606,0.11401
2059.60453,0.11343
2061.53300,0.11348
2063.46147,0.11480
2065.38993,0.11518
2067.31840,0.11507
2069.24687,0.11515
2071.17534,0.11507
2073.10381,0.11560
2075.03228,0.11544
2076.96075,0.11334
2078.88921,0.11152
2080.81768,0.11151
2082.74615,0.11213
2084.67462,0.11235
2086.60309,0.11260
2088.53156,0.11313
2090.46003,0.11386
2092.38850,0.11495
2094.31696,0.11611
2096.24543,0.11736
2098.17390,0.11846
2100.10237,0.11827
2102.03084,0.11679
2103.95931,0.11515
2105.88778,0.11469
2107.81624,0.11556
2109.74471,0.11625
2111.67318,0.11615
2113.60165,0.11637
2115.53012,0.11766
2117.45859,0.11829
2119.38706,0.11716
2121.31553,0.11596
2123.24399,0.11565
2125.17246,0.11581
2127.10093,0.11559
2129.02940,0.11438
2130.95787,0.11299
2132.88634,0.11253
2134.81481,0.11424
2136.74327,0.11821
2138.67174,0.12100
2140.60021,0.12042
2142.52868,0.11786
2144.45715,0.11550
2146.38562,0.11550
2148.31409,0.11649
2150.24255,0.11596
2152.17102,0.11611
2154.09949,0.11822
2156.02796,0.11906
2157.95643,0.11757
2159.88490,0.11660
2161.81337,0.11773
2163.74184,0.11908
2165.67030,0.11872
2167.59877,0.11737
2169.52724,0.11696
2171.45571,0.11736
2173.38418,0.11668
2175.31265,0.11534
2177.24112,0.11573
2179.16958,0.11843
2181.09805,0.12065
2183.02652,0.11977
2184.95499,0.11778
2186.88346,0.11717
2188.81193,0.11772
2190.74040,0.11900
2192.66887,0.12003
2194.59733,0.12002
2196.52580,0.11932
2198.45427,0.11812
2200.38274,0.11731
2202.31121,0.11817
2204.23968,0.11940
2206.16815,0.11928
2208.09661,0.11902
2210.02508,0.11886
2211.95355,0.11748
2213.88202,0.11660
2215.81049,0.11704
2217.73896,0.11613
2219.66743,0.11443
2221.59590,0.11528
2223.52436,0.11819
2225.45283,0.12009
2227.38130,0.12015
2229.30977,0.11927
2231.23824,0.11789
2233.16671,0.11582
2235.09518,0.11421
2237.02364,0.11488
2238.95211,0.11677
2240.88058,0.11760
2242.80905,0.11787
2244.73752,0.11876
2246.66599,0.11863
2248.59446,0.11660
2250.52293,0.11509
2252.45139,0.11596
2254.37986,0.11832
2256.30833,0.11956
2258.23680,0.11881
2260.16527,0.11815
2262.09374,0.11823
2264.02221,0.11782
2265.95067,0.11611
2267.87914,0.11355
2269.80761,0.11349
2271.73608,0.11651
2273.66455,0.11891
2275.59302,0.11999
2277.52149,0.11972
2279.44996,0.11774
2281.37842,0.11630
2283.30689,0.11705
2285.23536,0.11836
2287.16383,0.11785
2289.09230,0.11623
2291.02077,0.11572
2292.94924,0.11901
2294.87770,0.12581
2296.80617,0.12783
2298.73464,0.12057
2300.66311,0.11239
2302.59158,0.11096
2304.52005,0.11413
2306.44852,0.11744
2308.37699,0.11878
2310.30545,0.11708
2312.23392,0.11368
2314.16239,0.11231
2316.09086,0.11278
2318.01933,0.11158
2319.94780,0.10973
2321.87627,0.10995
2323.80473,0.11170
2325.73320,0.11196
2327.66167,0.11242
2329.59014,0.11600
2331.51861,0.11511
2333.44708,0.11103
2335.37555,0.11056
2337.30401,0.10843
2339.23248,0.10437
2341.16095,0.10318
2343.08942,0.10658
2345.01789,0.11254
2346.94636,0.11627
2348.87483,0.11768
2350.80330,0.11767
2352.73176,0.11610
2354.66023,0.11150
2356.58870,0.10249
2358.51717,0.09780
2360.44564,0.10741
2362.37411,0.12161
2364.30258,0.12021
2366.23104,0.10764
2368.15951,0.10484
2370.08798,0.10972
2372.01645,0.11280
2373.94492,0.11362
2375.87339,0.11584
2377.80186,0.12063
2379.73033,0.12390
2381.65879,0.12340
2383.58726,0.12084
2385.51573,0.11837
2387.44420,0.11675
2389.37267,0.11628
2391.30114,0.11700
2393.22961,0.11772
2395.15807,0.11722
2397.08654,0.11583
2399.01501,0.11520
2400.94348,0.11549
2402.87195,0.11605
2404.80042,0.11709
2406.72889,0.11776
2408.65736,0.11750
2410.58582,0.11662
2412.51429,0.11585
2414.44276,0.11668
2416.37123,0.11827
2418.29970,0.11823
2420.22817,0.11724
2422.15664,0.11606
2424.08510,0.11485
2426.01357,0.11586
2427.94204,0.11849
2429.87051,0.11960
2431.79898,0.11827
2433.72745,0.11619
2435.65592,0.11550
2437.58439,0.11555
2439.51285,0.11517
2441.44132,0.11485
2443.36979,0.11500
2445.29826,0.11649
2447.22673,0.11900
2449.15520,0.11974
2451.08367,0.11820
2453.01213,0.11678
2454.94060,0.11623
2456.86907,0.11537
2458.79754,0.11453
2460.72601,0.11480
2462.65448,0.11537
2464.58295,0.11562
2466.51142,0.11595
2468.43988,0.11726
2470.36835,0.11969
2472.29682,0.12083
2474.22529,0.11968
2476.15376,0.11847
2478.08223,0.11865
2480.01070,0.11928
2481.93916,0.11919
2483.86763,0.11874
2485.79610,0.11826
2487.72457,0.11694
2489.65304,0.11529
2491.58151,0.11521
2493.50998,0.11669
2495.43844,0.11821
2497.36691,0.11918
2499.29538,0.12016
2501.22385,0.12112
2503.15232,0.12034
2505.08079,0.11872
2507.00926,0.11880
2508.93773,0.11848
2510.86619,0.11680
2512.79466,0.11761
2514.72313,0.12047
2516.65160,0.12087
2518.58007,0.11940
2520.50854,0.11909
2522.43701,0.11896
2524.36547,0.11810
2526.29394,0.11717
2528.22241,0.11684
2530.15088,0.11766
2532.07935,0.11808
2534.00782,0.11821
2535.93629,0.11927
2537.86476,0.11946
2539.79322,0.11751
2541.72169,0.11613
2543.65016,0.11753
2545.57863,0.11837
2547.50710,0.11749
2549.43557,0.11855
2551.36404,0.12083
2553.29250,0.12087
2555.22097,0.11921
2557.14944,0.11859
2559.07791,0.11992
2561.00638,0.12217
2562.93485,0.12320
2564.86332,0.12211
2566.79179,0.12082
2568.72025,0.12064
2570.64872,0.12086
2572.57719,0.12025
2574.50566,0.11819
2576.43413,0.11680
2578.36260,0.11845
2580.29107,0.12074
2582.21953,0.12076
2584.14800,0.11970
2586.07647,0.11927
2588.00494,0.11939
2589.93341,0.11868
2591.86188,0.11593
2593.79035,0.11394
2595.71882,0.11512
2597.64728,0.11665
2599.57575,0.11758
2601.50422,0.11860
2603.43269,0.11873
2605.36116,0.11833
2607.28963,0.11827
2609.21810,0.11956
2611.14656,0.12129
2613.07503,0.12146
2615.00350,0.12088
2616.93197,0.12081
2618.86044,0.12143
2620.78891,0.12177
2622.71738,0.12057
2624.64585,0.12089
2626.57431,0.12465
2628.50278,0.12604
2630.43125,0.12309
2632.35972,0.12036
2634.28819,0.11888
2636.21666,0.11824
2638.14513,0.11920
2640.07359,0.12004
2642.00206,0.11925
2643.93053,0.11885
2645.85900,0.11888
2647.78747,0.11722
2649.71594,0.11586
2651.64441,0.11681
2653.57288,0.11875
2655.50134,0.12083
2657.42981,0.12177
2659.35828,0.12065
2661.28675,0.11929
2663.21522,0.11867
2665.14369,0.11814
2667.07216,0.11824
2669.00062,0.11946
2670.92909,0.12007
2672.85756,0.11939
2674.78603,0.11894
2676.71450,0.11902
2678.64297,0.11949
2680.57144,0.12059
2682.49990,0.12215
2684.42837,0.12335
2686.35684,0.12283
2688.28531,0.12111
2690.21378,0.12171
2692.14225,0.12512
2694.07072,0.12615
2695.99919,0.12402
2697.92765,0.12303
2699.85612,0.12309
2701.78459,0.12260
2703.71306,0.12245
2705.64153,0.12294
2707.57000,0.12317
2709.49847,0.12369
2711.42693,0.12520
2713.35540,0.12502
2715.28387,0.12294
2717.21234,0.12309
2719.14081,0.12582
2721.06928,0.12837
2722.99775,0.12827
2724.92622,0.12579
2726.85468,0.12492
2728.78315,0.12663
2730.71162,0.12690
2732.64009,0.12368
2734.56856,0.12123
2736.49703,0.12252
2738.42550,0.12396
2740.35396,0.12386
2742.28243,0.12514
2744.21090,0.12710
2746.13937,0.12716
2748.06784,0.12662
2749.99631,0.12640
2751.92478,0.12587
2753.85325,0.12499
2755.78171,0.12496
2757.71018,0.12762
2759.63865,0.13071
2761.56712,0.13020
2763.49559,0.12726
2765.42406,0.12617
2767.35253,0.12721
2769.28099,0.12795
2771.20946,0.12718
2773.13793,0.12578
2775.06640,0.12643
2776.99487,0.12787
2778.92334,0.12641
2780.85181,0.12405
2782.78028,0.12510
2784.70874,0.12865
2786.63721,0.13075
2788.56568,0.13019
2790.49415,0.12857
2792.42262,0.12737
2794.35109,0.12709
2796.27956,0.12732
2798.20802,0.12714
2800.13649,0.12676
2802.06496,0.12661
2803.99343,0.12639
2805.92190,0.12609
2807.85037,0.12574
2809.77884,0.12598
2811.70731,0.12704
2813.63577,0.12819
2815.56424,0.12875
2817.49271,0.12828
2819.42118,0.12660
2821.34965,0.12384
2823.27812,0.12288
2825.20659,0.12515
2827.13505,0.12656
2829.06352,0.12582
2830.99199,0.12521
2832.92046,0.12613
2834.84893,0.12984
2836.77740,0.13337
2838.70587,0.13360
2840.63433,0.13301
2842.56280,0.13236
2844.49127,0.13020
2846.41974,0.12844
2848.34821,0.12848
2850.27668,0.12920
2852.20515,0.13003
2854.13362,0.13045
2856.06208,0.13009
2857.99055,0.12900
2859.91902,0.12754
2861.84749,0.12645
2863.77596,0.12610
2865.70443,0.12761
2867.63290,0.12976
2869.56136,0.12927
2871.48983,0.12682
2873.41830,0.12624
2875.34677,0.12866
2877.27524,0.13032
2879.20371,0.12947
2881.13218,0.12738
2883.06065,0.12325
2884.98911,0.11948
2886.91758,0.12076
2888.84605,0.12486
2890.77452,0.12695
2892.70299,0.12595
2894.63146,0.12364
2896.55993,0.12272
2898.48839,0.12239
2900.41686,0.12215
2902.34533,0.12360
2904.27380,0.12355
2906.20227,0.12131
2908.13074,0.12140
2910.05921,0.12322
2911.98768,0.12449
2913.91614,0.12515
2915.84461,0.12360
2917.77308,0.12053
2919.70155,0.12019
2921.63002,0.12376
2923.55849,0.12728
2925.48696,0.12620
2927.41542,0.12263
2929.34389,0.12229
2931.27236,0.12407
2933.20083,0.12318
2935.12930,0.12022
2937.05777,0.11953
2938.98624,0.12153
2940.91471,0.12202
2942.84317,0.12131
2944.77164,0.12182
2946.70011,0.12059
2948.62858,0.11839
2950.55705,0.12011
2952.48552,0.12519
2954.41399,0.12821
2956.34245,0.12602
2958.27092,0.12407
2960.19939,0.12745
2962.12786,0.13187
2964.05633,0.13059
2965.98480,0.12434
2967.91327,0.12020
2969.84174,0.12207
2971.77020,0.12675
2973.69867,0.12829
2975.62714,0.12543
2977.55561,0.12217
2979.48408,0.12353
2981.41255,0.12947
2983.34102,0.13375
2985.26948,0.13303
2987.19795,0.12851
2989.12642,0.12480
2991.05489,0.12722
2992.98336,0.13261
2994.91183,0.13358
2996.84030,0.13140
2998.76877,0.13167
3000.69723,0.13280
3002.62570,0.13223
3004.55417,0.13200
3006.48264,0.13285
3008.41111,0.13306
3010.33958,0.12862
3012.26805,0.11692
3014.19651,0.10100
3016.12498,0.08914
3018.05345,0.09349
3019.98192,0.11212
3021.91039,0.12764
3023.83886,0.13460
3025.76733,0.13551
3027.69579,0.13148
3029.62426,0.12940
3031.55273,0.13156
3033.48120,0.13319
3035.40967,0.13342
3037.33814,0.13415
3039.26661,0.13482
3041.19508,0.13357
3043.12354,0.13124
3045.05201,0.12919
3046.98048,0.12879
3048.90895,0.13086
3050.83742,0.13215
3052.76589,0.13100
3054.69436,0.12731
3056.62282,0.12169
3058.55129,0.12036
3060.47976,0.12522
3062.40823,0.12893
3064.33670,0.12651
3066.26517,0.12216
3068.19364,0.12349
3070.12211,0.12815
3072.05057,0.12957
3073.97904,0.12840
3075.90751,0.12702
3077.83598,0.12729
3079.76445,0.12872
3081.69292,0.12733
3083.62139,0.12083
3085.54985,0.11524
3087.47832,0.11791
3089.40679,0.12287
3091.33526,0.12254
3093.26373,0.11843
3095.19220,0.11706
3097.12067,0.12290
3099.04914,0.13047
3100.97760,0.13273
3102.90607,0.12869
3104.83454,0.12466
3106.76301,0.12594
3108.69148,0.12836
3110.61995,0.12739
3112.54842,0.12615
3114.47688,0.12910
3116.40535,0.13168
3118.33382,0.12818
3120.26229,0.12335
3122.19076,0.12488
3124.11923,0.12914
3126.04770,0.12870
3127.97617,0.12740
3129.90463,0.12735
3131.83310,0.12636
3133.76157,0.12752
3135.69004,0.13088
3137.61851,0.13266
3139.54698,0.13198
3141.47545,0.12966
3143.40391,0.12822
3145.33238,0.13067
3147.26085,0.13434
3149.18932,0.13596
3151.11779,0.13548
3153.04626,0.13264
3154.97473,0.12946
3156.90320,0.12750
3158.83166,0.12673
3160.76013,0.12802
3162.68860,0.12971
3164.61707,0.12832
3166.54554,0.12599
3168.47401,0.12640
3170.40248,0.12665
3172.33094,0.12639
3174.25941,0.12887
3176.18788,0.13195
3178.11635,0.13304
3180.04482,0.13272
3181.97329,0.13067
3183.90176,0.12822
3185.83022,0.12848
3187.75869,0.13037
3189.68716,0.13150
3191.61563,0.13265
3193.54410,0.13519
3195.47257,0.13736
3197.40104,0.13667
3199.32951,0.13501
3201.25797,0.13468
3203.18644,0.13353
3205.11491,0.13027
3207.04338,0.12844
3208.97185,0.12917
3210.90032,0.12979
3212.82879,0.13261
3214.75725,0.13814
3216.68572,0.13881
3218.61419,0.13469
3220.54266,0.13214
3222.47113,0.13116
3224.39960,0.13128
3226.32807,0.13252
3228.25654,0.13227
3230.18500,0.13209
3232.11347,0.13610
3234.04194,0.14165
3235.97041,0.14341
3237.89888,0.14134
3239.82735,0.13798
3241.75582,0.13527
3243.68428,0.13232
3245.61275,0.12928
3247.54122,0.13058
3249.46969,0.13479
3251.39816,0.13640
3253.32663,0.13520
3255.25510,0.13253
3257.18357,0.12958
3259.11203,0.12899
3261.04050,0.13094
3262.96897,0.13330
3264.89744,0.13600
3266.82591,0.13859
3268.75438,0.13857
3270.68285,0.13556
3272.61131,0.13084
3274.53978,0.12686
3276.46825,0.12649
3278.39672,0.12801
3280.32519,0.12806
3282.25366,0.12734
3284.18213,0.12959
3286.11060,0.13544
3288.03906,0.13761
3289.96753,0.13249
3291.89600,0.12857
3293.82447,0.13056
3295.75294,0.13321
3297.68141,0.13240
3299.60988,0.12791
3301.53834,0.12328
3303.46681,0.12222
3305.39528,0.12368
3307.32375,0.12553
3309.25222,0.12731
3311.18069,0.12938
3313.10916,0.13138
3315.03763,0.13299
3316.96609,0.13485
3318.89456,0.13465
3320.82303,0.13168
3322.75150,0.13087
3324.67997,0.13251
3326.60844,0.13172
3328.53691,0.12859
3330.46537,0.12689
3332.39384,0.12803
3334.32231,0.13045
3336.25078,0.13254
3338.17925,0.13493
3340.10772,0.13737
3342.03619,0.13659
3343.96466,0.13199
3345.89312,0.12821
3347.82159,0.12885
3349.75006,0.13038
3351.67853,0.12852
3353.60700,0.12683
3355.53547,0.12767
3357.46394,0.12795
3359.39240,0.12784
3361.32087,0.12883
3363.24934,0.13031
3365.17781,0.13232
3367.10628,0.13577
3369.03475,0.13995
3370.96322,0.14139
3372.89168,0.13978
3374.82015,0.14009
3376.74862,0.14147
3378.67709,0.13869
3380.60556,0.13444
3382.53403,0.13235
3384.46250,0.13055
3386.39097,0.12937
3388.31943,0.12964
3390.24790,0.12916
3392.17637,0.12808
3394.10484,0.12849
3396.03331,0.13009
3397.96178,0.13304
3399.89025,0.13717
3401.81871,0.13857
3403.74718,0.13581
3405.67565,0.13168
3407.60412,0.12886
3409.53259,0.12847
3411.46106,0.12625
3413.38953,0.12081
3415.31800,0.11956
3417.24646,0.12392
3419.17493,0.12844
3421.10340,0.12904
3423.03187,0.12670
3424.96034,0.12660
3426.88881,0.12780
3428.81728,0.12779
3430.74574,0.12762
3432.67421,0.12595
3434.60268,0.12340
3436.53115,0.12405
3438.45962,0.12518
3440.38809,0.12251
3442.31656,0.12152
3444.24503,0.12566
3446.17349,0.12914
3448.10196,0.12729
3450.03043,0.12341
3451.95890,0.12314
3453.88737,0.12510
3455.81584,0.12669
3457.74431,0.12872
3459.67277,0.12949
3461.60124,0.12668
3463.52971,0.12245
3465.45818,0.12110
3467.38665,0.12291
3469.31512,0.12442
3471.24359,0.12393
3473.17206,0.12174
3475.10052,0.11676
3477.02899,0.11140
3478.95746,0.11253
3480.88593,0.11875
3482.81440,0.12155
3484.74287,0.12042
3486.67134,0.12127
3488.59980,0.12428
3490.52827,0.12469
3492.45674,0.12288
3494.38521,0.12175
3496.31368,0.12032
3498.24215,0.11744
3500.17062,0.11554
3502.09909,0.11652
3504.02755,0.11565
3505.95602,0.11202
3507.88449,0.11231
3509.81296,0.11452
3511.74143,0.11294
3513.66990,0.11076
3515.59837,0.11087
3517.52683,0.11160
3519.45530,0.11283
3521.38377,0.11697
3523.31224,0.12211
3525.24071,0.12081
3527.16918,0.11401
3529.09765,0.10804
3531.02611,0.10502
3532.95458,0.10571
3534.88305,0.10759
3536.81152,0.10789
3538.73999,0.10747
3540.66846,0.10854
3542.59693,0.11147
3544.52540,0.11360
3546.45386,0.11355
3548.38233,0.11091
3550.31080,0.10745
3552.23927,0.10536
3554.16774,0.10396
3556.09621,0.10464
3558.02468,0.10742
3559.95314,0.10784
3561.88161,0.10571
3563.81008,0.10814
3565.73855,0.11710
3567.66702,0.11882
3569.59549,0.10738
3571.52396,0.09932
3573.45243,0.10006
3575.38089,0.10471
3577.30936,0.10951
3579.23783,0.11111
3581.16630,0.10931
3583.09477,0.10836
3585.02324,0.10874
3586.95171,0.11086
3588.88017,0.11204
3590.80864,0.10855
3592.73711,0.10661
3594.66558,0.10807
3596.59405,0.10722
3598.52252,0.10427
3600.45099,0.10169
3602.37946,0.10023
3604.30792,0.10182
3606.23639,0.10666
3608.16486,0.10937
3610.09333,0.10579
3612.02180,0.10397
3613.95027,0.10480
3615.87874,0.10328
3617.80720,0.10243
3619.73567,0.10044
3621.66414,0.09370
3623.59261,0.08924
3625.52108,0.09198
3627.44955,0.10141
3629.37802,0.10763
3631.30649,0.10172
3633.23495,0.09479
3635.16342,0.09184
3637.09189,0.09165
3639.02036,0.09255
3640.94883,0.09453
3642.87730,0.09601
3644.80577,0.09795
3646.73423,0.10703
3648.66270,0.12297
3650.59117,0.12310
3652.51964,0.11115
3654.44811,0.10417
3656.37658,0.10018
3658.30505,0.09458
3660.23352,0.09023
3662.16198,0.08859
3664.09045,0.08872
3666.01892,0.09021
3667.94739,0.09448
3669.87586,0.10135
3671.80433,0.10712
3673.73280,0.11446
3675.66126,0.11735
3677.58973,0.10770
3679.51820,0.09807
3681.44667,0.09126
3683.37514,0.08789
3685.30361,0.08916
3687.23208,0.09305
3689.16055,0.09595
3691.08901,0.09699
3693.01748,0.09505
3694.94595,0.08856
3696.87442,0.08094
3698.80289,0.07937
3700.73136,0.08606
3702.65983,0.09154
3704.58829,0.08843
3706.51676,0.08530
3708.44523,0.09021
3710.37370,0.10047
3712.30217,0.10264
3714.23064,0.09788
3716.15911,0.09523
3718.08757,0.09350
3720.01604,0.09197
3721.94451,0.09209
3723.87298,0.09202
3725.80145,0.09058
3727.72992,0.08878
3729.65839,0.08741
3731.58686,0.09007
3733.51532,0.10212
3735.44379,0.11587
3737.37226,0.11516
3739.30073,0.10791
3741.22920,0.10384
3743.15767,0.10299
3745.08614,0.10258
3747.01460,0.10351
3748.94307,0.10678
3750.87154,0.10286
3752.80001,0.09101
3754.72848,0.08703
3756.65695,0.08859
3758.58542,0.08885
3760.51389,0.08451
3762.44235,0.08009
3764.37082,0.07977
3766.29929,0.08197
3768.22776,0.08457
3770.15623,0.08557
3772.08470,0.08283
3774.01317,0.07967
3775.94163,0.07939
3777.87010,0.08245
3779.79857,0.08405
3781.72704,0.08206
3783.65551,0.08263
3785.58398,0.08543
3787.51245,0.08476
3789.44092,0.08077
3791.36938,0.07822
3793.29785,0.08079
3795.22632,0.08771
3797.15479,0.09187
3799.08326,0.09015
3801.01173,0.09096
3802.94020,0.09474
3804.86866,0.09419
3806.79713,0.09121
3808.72560,0.08809
3810.65407,0.08591
3812.58254,0.08634
3814.51101,0.09100
3816.43948,0.09662
3818.36795,0.09993
3820.29641,0.10184
3822.22488,0.09561
3824.15335,0.08806
3826.08182,0.08542
3828.01029,0.08373
3829.93876,0.08283
3831.86723,0.08408
3833.79569,0.08846
3835.72416,0.09584
3837.65263,0.09897
3839.58110,0.09494
3841.50957,0.09183
3843.43804,0.08786
3845.36651,0.08329
3847.29498,0.08140
3849.22344,0.08214
3851.15191,0.08987
3853.08038,0.10439
3855.00885,0.10017
3856.93732,0.08748
3858.86579,0.08058
3860.79426,0.07866
3862.72272,0.08282
3864.65119,0.09001
3866.57966,0.09397
3868.50813,0.09357
3870.43660,0.08568
3872.36507,0.07794
3874.29354,0.07766
3876.22200,0.07984
3878.15047,0.08344
3880.07894,0.08742
3882.00741,0.08713
3883.93588,0.08593
3885.86435,0.08647
3887.79282,0.08557
3889.72129,0.08332
3891.64975,0.08059
3893.57822,0.07778
3895.50669,0.07701
3897.43516,0.07826
3899.36363,0.07870
3901.29210,0.07895
3903.22057,0.08311
3905.14903,0.08459
3907.07750,0.07892
3909.00597,0.07303
3910.93444,0.06988
3912.86291,0.06901
3914.79138,0.07150
3916.71985,0.07706
3918.64832,0.08054
3920.57678,0.08044
3922.50525,0.08170
3924.43372,0.08446
3926.36219,0.08546
3928.29066,0.08600
3930.21913,0.08622
3932.14760,0.08204
3934.07606,0.07313
3936.00453,0.06479
3937.93300,0.06122
3939.86147,0.06465
3941.78994,0.07252
3943.71841,0.07765
3945.64688,0.07931
3947.57535,0.07959
3949.50381,0.07629
3951.43228,0.07227
3953.36075,0.07147
3955.28922,0.07214
3957.21769,0.07128
3959.14616,0.06838
3961.07463,0.06644
3963.00309,0.06673
3964.93156,0.06698
3966.86003,0.06652
3968.78850,0.06706
3970.71697,0.06941
3972.64544,0.07194
3974.57391,0.07399
3976.50238,0.07498
3978.43084,0.07195
3980.35931,0.06818
3982.28778,0.06849
3984.21625,0.07005
3986.14472,0.06908
3988.07319,0.06641
3990.00166,0.06562
3991.93012,0.06669
3993.85859,0.06693
3995.78706,0.06544
3997.71553,0.06451
3999.64400,0.06648
4001.57247,0.06634
4003.50094,0.06283
4005.42941,0.06197
4007.35787,0.06368
4009.28634,0.06580
4011.21481,0.06743
4013.14328,0.06617
4015.07175,0.06393
4017.00022,0.06369
4018.92869,0.06390
4020.85715,0.06405
4022.78562,0.06474
4024.71409,0.06535
4026.64256,0.06487
4028.57103,0.06310
4030.49950,0.06267
4032.42797,0.06489
4034.35644,0.06751
4036.28490,0.06763
4038.21337,0.06501
4040.14184,0.06348
4042.07031,0.06432
4043.99878,0.06459
4045.92725,0.06470
4047.85572,0.06569
4049.78418,0.06465
4051.71265,0.06176
4053.64112,0.06029
4055.56959,0.06041
4057.49806,0.05914
4059.42653,0.05594
4061.35500,0.05427
4063.28346,0.05637
4065.21193,0.05901
4067.14040,0.05829
4069.06887,0.05772
4070.99734,0.05899
4072.92581,0.05738
4074.85428,0.05374
4076.78275,0.05260
4078.71121,0.05469
4080.63968,0.05742
4082.56815,0.05787
4084.49662,0.05751
4086.42509,0.06026
4088.35356,0.06348
4090.28203,0.06182
4092.21049,0.05808
4094.13896,0.05641
4096.06743,0.05519
4097.99590,0.05522
4099.92437,0.05889
4101.85284,0.06092
4103.78131,0.05690
4105.70978,0.05234
4107.63824,0.05377
4109.56671,0.05800
4111.49518,0.05762
4113.42365,0.05414
4115.35212,0.05349
4117.28059,0.05392
4119.20906,0.05177
4121.13752,0.04975
4123.06599,0.05018
4124.99446,0.05285
4126.92293,0.05709
4128.85140,0.05758
4130.77987,0.05234
4132.70834,0.04847
4134.63681,0.05098
4136.56527,0.05434
4138.49374,0.05248
4140.42221,0.04977
4142.35068,0.04938
4144.27915,0.04784
4146.20762,0.04616
4148.13609,0.04757
4150.06455,0.05119
4151.99302,0.05556
4153.92149,0.05747
4155.84996,0.05418
4157.77843,0.05036
4159.70690,0.04856
4161.63537,0.04621
4163.56384,0.04627
4165.49230,0.04936
4167.42077,0.05081
4169.34924,0.05185
4171.27771,0.05329
4173.20618,0.05284
4175.13465,0.05250
4177.06312,0.05225
4178.99158,0.04855
4180.92005,0.04388
4182.84852,0.04255
4184.77699,0.04402
4186.70546,0.04763
4188.63393,0.05172
4190.56240,0.05313
4192.49087,0.05170
4194.41933,0.04942
4196.34780,0.04941
4198.27627,0.05261
4200.20474,0.05441
4202.13321,0.05056
4204.06168,0.04595
4205.99015,0.04675
4207.91861,0.04902
4209.84708,0.04752
4211.77555,0.04392
4213.70402,0.04122
4215.63249,0.03970
4217.56096,0.03979
4219.48943,0.04094
4221.41789,0.04298
4223.34636,0.04689
4225.27483,0.04922
4227.20330,0.04831
4229.13177,0.04683
4231.06024,0.04568
4232.98871,0.04578
4234.91718,0.04734
4236.84564,0.04699
4238.77411,0.04239
4240.70258,0.03579
4242.63105,0.03197
4244.55952,0.03515
4246.48799,0.04260
4248.41646,0.04628
4250.34492,0.04426
4252.27339,0.04212
4254.20186,0.04257
4256.13033,0.04299
4258.05880,0.04271
4259.98727,0.04266
4261.91574,0.04269
4263.84421,0.04304
4265.77267,0.04236
4267.70114,0.03841
4269.62961,0.03441
4271.55808,0.03424
4273.48655,0.03603
4275.41502,0.03652
4277.34349,0.03320
4279.27195,0.03079
4281.20042,0.03407
4283.12889,0.03786
4285.05736,0.03794
4286.98583,0.03578
4288.91430,0.03590
4290.84277,0.03910
4292.77124,0.04159
4294.69970,0.04173
4296.62817,0.03901
4298.55664,0.03610
4300.48511,0.03531
4302.41358,0.03193
4304.34205,0.02590
4306.27052,0.02611
4308.19898,0.03198
4310.12745,0.03387
4312.05592,0.02866
4313.98439,0.02110
4315.91286,0.01885
4317.84133,0.02376
4319.76980,0.03060
4321.69827,0.03458
4323.62673,0.03413
4325.55520,0.03100
4327.48367,0.02938
4329.41214,0.02874
4331.34061,0.02613
4333.26908,0.02548
4335.19755,0.02635
4337.12601,0.02371
4339.05448,0.02107
4340.98295,0.02227
4342.91142,0.02368
4344.83989,0.02098
4346.76836,0.01672
4348.69683,0.01621
4350.62530,0.01908
4352.55376,0.01964
4354.48223,0.01592
4356.41070,0.01157
4358.33917,0.00916
4360.26764,0.01062
4362.19611,0.01599
4364.12458,0.02125
4366.05304,0.02156
4367.98151,0.01562
4369.90998,0.01121
4371.83845,0.01437
4373.76692,0.01823
4375.69539,0.01885
4377.62386,0.02120
4379.55232,0.02605
4381.48079,0.02996
4383.40926,0.03019
4385.33773,0.02567
4387.26620,0.01919
4389.19467,0.01578
4391.12314,0.01694
4393.05161,0.01955
4394.98007,0.02047
4396.90854,0.01915
4398.83701,0.01889
4400.76548,0.02203
4402.69395,0.02433
4404.62242,0.02268
4406.55089,0.01817
4408.47935,0.01120
4410.40782,0.00826
4412.33629,0.01367
4414.26476,0.01726
4416.19323,0.01425
4418.12170,0.01227
4420.05017,0.01418
4421.97864,0.01663
4423.90710,0.01794
4425.83557,0.01779
4427.76404,0.01462
4429.69251,0.01045
4431.62098,0.00871
4433.54945,0.01018
4435.47792,0.01624
4437.40638,0.02163
4439.33485,0.01914
4441.26332,0.01479
4443.19179,0.01438
4445.12026,0.01324
4447.04873,0.01195
4448.97720,0.01640
4450.90567,0.02309
4452.83413,0.02471
4454.76260,0.02325
4456.69107,0.02401
4458.61954,0.02563
4460.54801,0.02438
4462.47648,0.02029
4464.40495,0.01290
4466.33341,0.00406
4468.26188,0.00129
4470.19035,0.00574
4472.11882,0.00977
4474.04729,0.01079
4475.97576,0.01242
4477.90423,0.01537
4479.83270,0.01830
4481.76116,0.01697
4483.68963,0.01215
4485.61810,0.01173
4487.54657,0.01149
4489.47504,0.00728
4491.40351,0.00631
4493.33198,0.01022
4495.26044,0.01053
4497.18891,0.00071
4499.11738,-0.01040
4501.04585,-0.00913
4502.97432,0.00281
4504.90279,0.01348
4506.83126,0.01590
4508.75973,0.01433
4510.68819,0.01720
4512.61666,0.02130
4514.54513,0.01488
4516.47360,0.00254
4518.40207,0.00126
4520.33054,0.01062
4522.25901,0.01520
4524.18747,0.01000
4526.11594,0.00327
4528.04441,0.00594
4529.97288,0.01632
4531.90135,0.02043
4533.82982,0.01904
4535.75829,0.01850
4537.68676,0.01409
4539.61522,0.00682
4541.54369,0.00269
4543.47216,0.00146
4545.40063,0.00136
4547.32910,0.00219
4549.25757,0.00312
4551.18604,0.00291
4553.11450,0.00128
4555.04297,0.00306
4556.97144,0.01258
4558.89991,0.02251
4560.82838,0.02342
4562.75685,0.01812
4564.68532,0.01415
4566.61378,0.01113
4568.54225,0.00838
4570.47072,0.00591
4572.39919,-0.00058
4574.32766,-0.00617
4576.25613,-0.00550
4578.18460,-0.00578
4580.11307,-0.01193
4582.04153,-0.01918
4583.97000,-0.01821
4585.89847,-0.00960
4587.82694,-0.00437
4589.75541,-0.00521
4591.68388,-0.00728
4593.61235,-0.00358
4595.54081,0.00871
4597.46928,0.01701
4599.39775,0.01170
4601.32622,0.00373
4603.25469,0.00204
4605.18316,0.00263
4607.11163,0.00401
4609.04010,0.00818
4610.96856,0.01443
4612.89703,0.01922
4614.82550,0.01727
4616.75397,0.01204
4618.68244,0.01284
4620.61091,0.01524
4622.53938,0.01180
4624.46784,0.00961
4626.39631,0.01168
4628.32478,0.01074
4630.25325,0.01014
4632.18172,0.01358
4634.11019,0.01119
4636.03866,0.00382
4637.96713,0.00227
4639.89559,0.00631
4641.82406,0.01056
4643.75253,0.00688
4645.68100,-0.00322
4647.60947,-0.00668
4649.53794,-0.00372
4651.46641,0.00008
4653.39487,0.00434
4655.32334,0.00457
4657.25181,0.00062
4659.18028,-0.00075
4661.10875,0.00051
4663.03722,0.00240
4664.96569,0.00477
4666.89416,0.00372
4668.82262,-0.00035
4670.75109,-0.00104
4672.67956,0.00095
4674.60803,0.00152
4676.53650,0.00274
4678.46497,0.00266
4680.39344,-0.00014
4682.32190,0.00124
4684.25037,0.00369
4686.17884,-0.00104
4688.10731,-0.00544
4690.03578,-0.00253
4691.96425,-0.00067
4693.89272,-0.00276
4695.82119,-0.00456
4697.74965,-0.00585
4699.67812,-0.00713
4701.60659,-0.00785
4703.53506,-0.00456
4705.46353,0.00403
4707.39200,0.01085
4709.32047,0.01249
4711.24893,0.01350
4713.17740,0.01015
4715.10587,0.00008
4717.03434,-0.00521
4718.96281,-0.00145
4720.89128,0.00366
4722.81975,0.00462
4724.74821,0.00492
4726.67668,0.00759
4728.60515,0.00728
4730.53362,0.00185
4732.46209,0.00009
4734.39056,0.00223
4736.31903,-0.00012
4738.24750,-0.00169
4740.17596,-0.00001
4742.10443,-0.00008
4744.03290,-0.00205
4745.96137,-0.00412
4747.88984,-0.00338
4749.81831,-0.00056
4751.74678,0.00473
4753.67524,0.01066
4755.60371,0.01060
4757.53218,0.00518
4759.46065,0.00018
4761.38912,-0.00353
4763.31759,-0.00710
4765.24606,-0.00616
4767.17453,0.00091
4769.10299,0.00977
4771.03146,0.01594
4772.95993,0.01626
4774.88840,0.01040
4776.81687,0.00274
4778.74534,0.00140
4780.67381,0.00888
4782.60227,0.01726
4784.53074,0.01783
4786.45921,0.01255
4788.38768,0.00786
4790.31615,0.00484
4792.24462,0.00343
4794.17309,0.00038
4796.10156,-0.00674
4798.03002,-0.01188
4799.95849,-0.01339
4801.88696,-0.01158
4803.81543,-0.00067
4805.74390,0.01480
4807.67237,0.02285
4809.60084,0.01898
4811.52930,0.01014
4813.45777,0.00750
4815.38624,0.00860
4817.31471,0.00920
4819.24318,0.01181
4821.17165,0.01383
4823.10012,0.01150
4825.02859,0.01035
4826.95705,0.01708
4828.88552,0.02089
4830.81399,0.01312
4832.74246,0.00210
4834.67093,-0.00590
4836.59940,-0.00890
4838.52787,-0.00576
4840.45633,-0.00186
4842.38480,-0.00219
4844.31327,-0.00107
4846.24174,0.00323
4848.17021,0.00325
4850.09868,0.00198
4852.02715,0.00635
4853.95562,0.00732
4855.88408,-0.00159
4857.81255,-0.00515
4859.74102,0.00465
4861.66949,0.00914
4863.59796,-0.00118
4865.52643,-0.01106
4867.45490,-0.00984
4869.38336,0.00127
4871.31183,0.00919
4873.24030,-0.00004
4875.16877,-0.01366
4877.09724,-0.01464
4879.02571,-0.01076
4880.95418,-0.00892
4882.88265,-0.00275
4884.81111,0.00533
4886.73958,0.00657
4888.66805,0.00250
4890.59652,0.00090
4892.52499,0.00619
4894.45346,0.01422
4896.38193,0.01882
4898.31039,0.01862
4900.23886,0.01362
4902.16733,0.00709
4904.09580,0.00648
4906.02427,0.01056
4907.95274,0.01034
4909.88121,0.00543
4911.80967,-0.00085
4913.73814,-0.00714
4915.66661,-0.00555
4917.59508,0.00415
4919.52355,0.00871
4921.45202,0.00632
4923.38049,0.00176
4925.30896,-0.00150
4927.23742,0.00305
4929.16589,0.01160
4931.09436,0.01763
4933.02283,0.01651
4934.95130,0.00644
4936.87977,-0.00418
4938.80824,-0.00581
4940.73670,0.00527
4942.66517,0.01817
4944.59364,0.01957
4946.52211,0.01259
4948.45058,0.00030
4950.37905,-0.01327
4952.30752,-0.01609
4954.23599,-0.00503
4956.16445,0.00488
4958.09292,-0.00004
4960.02139,-0.00700
4961.94986,-0.00578
4963.87833,-0.00773
4965.80680,-0.00550
4967.73527,0.01240
4969.66373,0.02517
4971.59220,0.01711
4973.52067,0.00573
4975.44914,0.00450
4977.37761,0.00408
4979.30608,0.00042
4981.23455,0.00137
4983.16302,0.01012
4985.09148,0.01907
4987.01995,0.02134
4988.94842,0.01525
4990.87689,0.00548
4992.80536,0.00139
4994.73383,0.00120
4996.66230,0.00275
4998.59076,0.00986
5000.51923,0.01753
5002.44770,0.02195
5004.37617,0.02289
5006.30464,0.01679
5008.23311,0.00762
5010.16158,0.00375
5012.09005,0.00229
5014.01851,0.00061
5015.94698,0.00376
5017.87545,0.01051
5019.80392,0.01386
5021.73239,0.01443
5023.66086,0.01660
5025.58933,0.01655
5027.51779,0.01239
5029.44626,0.00906
5031.37473,0.01015
5033.30320,0.01312
5035.23167,0.01058
5037.16014,0.00338
5039.08861,0.00154
5041.01708,0.00451
5042.94554,-0.00103
5044.87401,-0.01195
5046.80248,-0.01216
5048.73095,-0.00082
5050.65942,0.00836
5052.58789,0.01210
5054.51636,0.01835
5056.44482,0.02025
5058.37329,0.01447
5060.30176,0.01366
5062.23023,0.01759
5064.15870,0.01623
5066.08717,0.01224
5068.01564,0.01509
5069.94410,0.02001
5071.87257,0.01824
5073.80104,0.00900
5075.72951,-0.00163
5077.65798,0.00058
5079.58645,0.01696
5081.51492,0.02789
5083.44339,0.02384
5085.37185,0.01844
5087.30032,0.02072
5089.22879,0.02208
5091.15726,0.01826
5093.08573,0.01639
5095.01420,0.01597
5096.94267,0.00973
5098.87113,0.00428
5100.79960,0.00886
5102.72807,0.01315
5104.65654,0.00793
5106.58501,0.00127
5108.51348,-0.00161
5110.44195,-0.00574
5112.37042,-0.00710
5114.29888,0.00052
5116.22735,0.00691
5118.15582,0.00564
5120.08429,0.00404
5122.01276,0.01150
5123.94123,0.02746
5125.86970,0.03300
5127.79816,0.02191
5129.72663,0.01318
5131.65510,0.01249
5133.58357,0.01101
5135.51204,0.00339
5137.44051,-0.00645
5139.36898,-0.00232
5141.29745,0.01679
5143.22591,0.02746
5145.15438,0.02315
5147.08285,0.01615
5149.01132,0.01696
5150.93979,0.02572
5152.86826,0.02697
5154.79673,0.02450
5156.72519,0.02839
5158.65366,0.02430
5160.58213,0.01405
5162.51060,0.00687
5164.43907,0.00233
5166.36754,0.00471
5168.29601,0.00883
5170.22448,0.01177
5172.15294,0.01438
5174.08141,0.01302
5176.00988,0.01212
5177.93835,0.01282
5179.86682,0.01130
5181.79529,0.00655
5183.72376,0.00665
5185.65222,0.01763
5187.58069,0.02253
5189.50916,0.01540
5191.43763,0.01330
5193.36610,0.02280
5195.29457,0.03040
5197.22304,0.02286
5199.15151,0.00761
5201.07997,0.00145
5203.00844,0.00881
5204.93691,0.03090
5206.86538,0.05692
5208.79385,0.05618
5210.72232,0.03213
5212.65079,0.01028
5214.57925,0.00269
5216.50772,0.01145
5218.43619,0.02575
5220.36466,0.03051
5222.29313,0.02379
5224.22160,0.01171
5226.15007,0.00844
5228.07854,0.02507
5230.00700,0.04127
5231.93547,0.03627
5233.86394,0.02624
5235.79241,0.03058
5237.72088,0.04106
5239.64935,0.04564
5241.57782,0.04238
5243.50628,0.03600
5245.43475,0.03619
5247.36322,0.04481
5249.29169,0.05230
5251.22016,0.05281
5253.14863,0.04635
5255.07710,0.03272
5257.00556,0.02439
5258.93403,0.03316
5260.86250,0.04268
5262.79097,0.03715
5264.71944,0.02488
5266.64791,0.01829
5268.57638,0.02538
5270.50485,0.03484
5272.43331,0.03092
5274.36178,0.02146
5276.29025,0.01390
5278.21872,0.01414
5280.14719,0.02821
5282.07566,0.04249
5284.00413,0.04436
5285.93259,0.04376
5287.86106,0.04506
5289.78953,0.03998
5291.71800,0.03344
5293.64647,0.02983
5295.57494,0.02827
5297.50341,0.03808
5299.43188,0.04973
5301.36034,0.03699
5303.28881,0.01027
5305.21728,-0.00117
5307.14575,0.00904
5309.07422,0.03208
5311.00269,0.04632
5312.93116,0.04470
5314.85962,0.03726
5316.78809,0.02681
5318.71656,0.01840
5320.64503,0.01981
5322.57350,0.02820
5324.50197,0.03626
5326.43044,0.03998
5328.35891,0.03727
5330.28737,0.03501
5332.21584,0.03740
5334.14431,0.03627
5336.07278,0.03325
5338.00125,0.03614
5339.92972,0.04514
5341.85819,0.05015
5343.78665,0.05121
5345.71512,0.06326
5347.64359,0.07576
5349.57206,0.07281
5351.50053,0.06166
5353.42900,0.05462
5355.35747,0.04742
5357.28594,0.02862
5359.21440,0.01111
5361.14287,0.01362
5363.07134,0.02805
5364.99981,0.03246
5366.92828,0.02647
5368.85675,0.02319
5370.78522,0.02585
5372.71368,0.03298
5374.64215,0.04649
5376.57062,0.06244
5378.49909,0.06673
5380.42756,0.05549
5382.35603,0.02678
5384.28450,-0.00497
5386.21297,-0.00839
5388.14143,0.00527
5390.06990,0.00926
5391.99837,0.01049
5393.92684,0.02077
5395.85531,0.02466
5397.78378,0.02429
5399.71225,0.04120
5401.64071,0.05619
5403.56918,0.05105
5405.49765,0.03882
5407.42612,0.03040
5409.35459,0.03129
5411.28306,0.04657
5413.21153,0.06395
5415.13999,0.05926
5417.06846,0.04187
5418.99693,0.02706
5420.92540,0.01785
5422.85387,0.02563
5424.78234,0.04701
5426.71081,0.05184
5428.63928,0.03285
5430.56774,0.02845
5432.49621,0.05067
5434.42468,0.07493
5436.35315,0.08194
5438.28162,0.07336
5440.21009,0.06360
5442.13856,0.05931
5444.06702,0.05581
5445.99549,0.04719
5447.92396,0.02939
5449.85243,0.01101
5451.78090,0.00368
5453.70937,0.00424
5455.63784,0.01230
5457.56631,0.03078
5459.49477,0.04847
5461.42324,0.05327
5463.35171,0.04779
5465.28018,0.03961
5467.20865,0.03154
5469.13712,0.03105
5471.06559,0.03537
5472.99405,0.02965
5474.92252,0.02125
5476.85099,0.02128
5478.77946,0.02532
5480.70793,0.03895
5482.63640,0.05782
5484.56487,0.06379
5486.49334,0.04923
5488.42180,0.03052
5490.35027,0.03610
5492.27874,0.05047
5494.20721,0.04335
5496.13568,0.02849
5498.06415,0.01480
5499.99262,0.00097
5501.92108,0.00708
5503.84955,0.04162
5505.77802,0.07711
5507.70649,0.09613
5509.63496,0.09996
5511.56343,0.08093
5513.49190,0.04541
5515.42037,0.02539
5517.34883,0.03801
5519.27730,0.05234
5521.20577,0.03833
5523.13424,0.01445
5525.06271,0.00809
5526.99118,0.02055
5528.91965,0.04258
5530.84811,0.06105
5532.77658,0.06430
5534.70505,0.05349
5536.63352,0.02703
5538.56199,-0.00271
5540.49046,-0.01047
5542.41893,0.00450
5544.34740,0.02975
5546.27586,0.04537
5548.20433,0.03980
5550.13280,0.03413
5552.06127,0.03495
5553.98974,0.02891
5555.91821,0.02806
5557.84668,0.04133
5559.77514,0.05189
5561.70361,0.05731
5563.63208,0.05691
5565.56055,0.04951
5567.48902,0.04997
5569.41749,0.06348
5571.34596,0.07991
5573.27443,0.09022
5575.20289,0.08857
5577.13136,0.06922
5579.05983,0.05110
5580.98830,0.06068
5582.91677,0.06767
5584.84524,0.04642
5586.77371,0.02589
5588.70217,0.01466
5590.63064,0.01147
5592.55911,0.03017
5594.48758,0.05499
5596.41605,0.06010
5598.34452,0.05442
5600.27299,0.06493
5602.20145,0.08730
5604.12992,0.09738
5606.05839,0.09138
5607.98686,0.07172
5609.91533,0.04421
5611.84380,0.02007
5613.77227,0.01313
5615.70074,0.03641
5617.62920,0.06736
5619.55767,0.07256
5621.48614,0.06457
5623.41461,0.06636
5625.34308,0.07398
5627.27155,0.07758
5629.20002,0.07315
5631.12848,0.06367
5633.05695,0.05381
5634.98542,0.04993
5636.91389,0.05602
5638.84236,0.05855
5640.77083,0.05368
5642.69930,0.06121
5644.62777,0.07848
5646.55623,0.07850
5648.48470,0.06092
5650.41317,0.04797
5652.34164,0.04456
5654.27011,0.04846
5656.19858,0.06597
5658.12705,0.08907
5660.05551,0.09414
5661.98398,0.07116
5663.91245,0.04321
5665.84092,0.03631
5667.76939,0.03684
5669.69786,0.03141
5671.62633,0.02578
5673.55480,0.01621
5675.48326,0.01139
5677.41173,0.02616
5679.34020,0.05132
5681.26867,0.07151
5683.19714,0.07511
5685.12561,0.06577
5687.05408,0.06028
5688.98254,0.05666
5690.91101,0.04919
5692.83948,0.04282
5694.76795,0.03450
5696.69642,0.01993
5698.62489,-0.00176
5700.55336,-0.01633
5702.48183,-0.00543
5704.41029,0.02192
5706.33876,0.04654
5708.26723,0.06879
5710.19570,0.09412
5712.12417,0.10667
5714.05264,0.09769
5715.98111,0.08531
5717.90957,0.07360
5719.83804,0.04688
5721.76651,0.01947
5723.69498,0.02206
5725.62345,0.04074
5727.55192,0.04633
5729.48039,0.04005
5731.40886,0.03963
5733.33732,0.05450
5735.26579,0.08632
5737.19426,0.11435
5739.12273,0.10732
5741.05120,0.08313
5742.97967,0.07419
5744.90814,0.07971
5746.83660,0.08062
5748.76507,0.06576
5750.69354,0.04964
5752.62201,0.03675
5754.55048,0.02820
5756.47895,0.02750
5758.40742,0.02041
5760.33588,0.01541
5762.26435,0.02706
5764.19282,0.03965
5766.12129,0.04149
5768.04976,0.04429
5769.97823,0.05119
5771.90670,0.05447
5773.83517,0.06255
5775.76363,0.07029
5777.69210,0.06146
5779.62057,0.05261
5781.54904,0.05463
5783.47751,0.05386
5785.40598,0.05127
5787.33445,0.05190
5789.26291,0.05412
5791.19138,0.06477
5793.11985,0.07928
5795.04832,0.07157
5796.97679,0.04412
5798.90526,0.03469
5800.83373,0.04680
5802.76220,0.04922
5804.69066,0.03366
5806.61913,0.02778
5808.54760,0.04969
5810.47607,0.08013
5812.40454,0.09000
5814.33301,0.07187
5816.26148,0.03990
5818.18994,0.01685
5820.11841,0.01349
5822.04688,0.01790
5823.97535,0.02083
5825.90382,0.02409
5827.83229,0.03438
5829.76076,0.05646
5831.68923,0.07976
5833.61769,0.08633
5835.54616,0.07702
5837.47463,0.06540
5839.40310,0.05185
5841.33157,0.04278
5843.26004,0.04410
5845.18851,0.05195
5847.11697,0.06744
5849.04544,0.08632
5850.97391,0.10775
5852.90238,0.12536
5854.83085,0.11194
5856.75932,0.06401
5858.68779,0.02862
5860.61626,0.03767
5862.54472,0.05413
5864.47319,0.04768
5866.40166,0.04587
5868.33013,0.05250
5870.25860,0.04021
5872.18707,0.01995
5874.11554,0.01228
5876.04400,0.01893
5877.97247,0.03192
5879.90094,0.03501
5881.82941,0.03607
5883.75788,0.04203
5885.68635,0.04208
5887.61482,0.05137
5889.54329,0.06933
5891.47175,0.06986
5893.40022,0.05577
5895.32869,0.04670
5897.25716,0.05535
5899.18563,0.06844
5901.11410,0.06523
5903.04257,0.05901
5904.97103,0.05841
5906.89950,0.05537
5908.82797,0.06410
5910.75644,0.08413
5912.68491,0.09681
5914.61338,0.10730
5916.54185,0.11145
5918.47032,0.09101
5920.39878,0.06303
5922.32725,0.05169
5924.25572,0.04907
5926.18419,0.04673
5928.11266,0.05431
5930.04113,0.07631
5931.96960,0.08886
5933.89806,0.06494
5935.82653,0.02086
5937.75500,-0.00272
5939.68347,0.00273
5941.61194,0.01730
5943.54041,0.02640
5945.46888,0.04443
5947.39734,0.06722
5949.32581,0.06932
5951.25428,0.08486
5953.18275,0.11592
5955.11122,0.11299
5957.03969,0.11321
5958.96816,0.13951
5960.89663,0.13687
5962.82509,0.10003
5964.75356,0.07174
5966.68203,0.06543
5968.61050,0.07257
5970.53897,0.07743
5972.46744,0.06218
5974.39591,0.02723
5976.32437,-0.01374
5978.25284,-0.04683
5980.18131,-0.06478
5982.10978,-0.05054
5984.03825,-0.00778
5985.96672,0.01898
5987.89519,0.02092
5989.82366,0.02178
5991.75212,0.03131
5993.68059,0.04449
5995.60906,0.06822
5997.53753,0.09824
5999.46600,0.09522
6001.39447,0.06593
6003.32294,0.04924
6005.25140,0.04782
6007.17987,0.03640
6009.10834,0.01796
6011.03681,0.01755
6012.96528,0.02319
6014.89375,0.01902
6016.82222,0.03399
6018.75069,0.06201
6020.67915,0.05033
6022.60762,0.03644
6024.53609,0.05383
6026.46456,0.04959
6028.39303,0.02665
6030.32150,0.04928
6032.24997,0.09755
6034.17843,0.10830
6036.10690,0.09544
6038.03537,0.08640
6039.96384,0.06195
6041.89231,0.02894
6043.82078,0.03808
6045.74925,0.08331
6047.67772,0.09022
6049.60618,0.03974
6051.53465,-0.00412
6053.46312,0.00216
6055.39159,0.02843
6057.32006,0.04076
6059.24853,0.06239
6061.17700,0.09809
6063.10546,0.11496
6065.03393,0.10499
6066.96240,0.10662
6068.89087,0.13145
6070.81934,0.13922
6072.74781,0.11294
6074.67628,0.08072
6076.60475,0.05694
6078.53321,0.02849
6080.46168,0.02230
6082.39015,0.05538
6084.31862,0.06955
6086.24709,0.03723
6088.17556,0.01066
6090.10403,0.01559
6092.03249,0.02430
6093.96096,0.02077
6095.88943,0.02598
6097.81790,0.05659
6099.74637,0.07492
6101.67484,0.05063
6103.60331,0.01287
6105.53177,-0.02250
6107.46024,-0.04454
6109.38871,-0.01676
6111.31718,0.03522
6113.24565,0.04196
6115.17412,0.01459
6117.10259,0.01161
6119.03106,0.05121
6120.95952,0.08587
6122.88799,0.07099
6124.81646,0.03318
6126.74493,0.01823
6128.67340,0.03693
6130.60187,0.05367
6132.53034,0.03394
6134.45880,0.01877
6136.38727,0.03367
6138.31574,0.05352
6140.24421,0.07695
6142.17268,0.07725
6144.10115,0.03791
6146.02962,0.02130
6147.95809,0.04923
6149.88655,0.07644
6151.81502,0.05913
6153.74349,0.01422
6155.67196,-0.00124
6157.60043,0.02509
6159.52890,0.05312
6161.45737,0.04340
6163.38583,0.03141
6165.31430,0.04031
6167.24277,0.03149
6169.17124,0.02246
6171.09971,0.04225
6173.02818,0.07908
6174.95665,0.10696
6176.88512,0.10466
6178.81358,0.07986
6180.74205,0.05614
6182.67052,0.04691
6184.59899,0.04687
6186.52746,0.05457
6188.45593,0.05210
6190.38440,0.02850
6192.31286,0.01727
6194.24133,0.01933
6196.16980,0.03282
6198.09827,0.06777
6200.02674,0.10078
6201.95521,0.10927
6203.88368,0.08746
6205.81215,0.05983
6207.74061,0.07056
6209.66908,0.10877
6211.59755,0.12358
6213.52602,0.12723
6215.45449,0.13303
6217.38296,0.10405
6219.31143,0.06104
6221.23989,0.05937
6223.16836,0.08586
6225.09683,0.09492
6227.02530,0.09002
6228.95377,0.09497
6230.88224,0.09364
6232.81071,0.06119
6234.73918,0.02978
6236.66764,0.02318
6238.59611,0.02719
6240.52458,0.04010
6242.45305,0.05998
6244.38152,0.06272
6246.30999,0.04616
6248.23846,0.04166
6250.16692,0.04540
6252.09539,0.05072
6254.02386,0.08046
6255.95233,0.11417
6257.88080,0.11238
6259.80927,0.08821
6261.73774,0.06708
6263.66621,0.05384
6265.59467,0.04867
6267.52314,0.03642
6269.45161,0.03381
6271.38008,0.04905
6273.30855,0.03736
6275.23702,0.00456
6277.16549,0.02563
6279.09395,0.09356
6281.02242,0.13703
6282.95089,0.14947
6284.87936,0.13396
6286.80783,0.08300
6288.73630,0.03987
6290.66477,0.02609
6292.59323,0.02991
6294.52170,0.04608
6296.45017,0.04571
6298.37864,0.01569
6300.30711,-0.00638
6302.23558,0.01384
6304.16405,0.04664
6306.09252,0.05522
6308.02098,0.06281
6309.94945,0.09148
6311.87792,0.10663
6313.80639,0.08351
6315.73486,0.05262
6317.66333,0.03500
6319.59180,0.03120
6321.52026,0.04855
6323.44873,0.08086
6325.37720,0.10856
6327.30567,0.09469
6329.23414,0.03088
6331.16261,-0.00097
6333.09108,0.02481
6335.01955,0.04414
6336.94801,0.06056
6338.87648,0.09225
6340.80495,0.09164
6342.73342,0.04412
6344.66189,0.00129
6346.59036,0.00214
6348.51883,0.03167
6350.44729,0.05870
6352.37576,0.06473
6354.30423,0.06436
6356.23270,0.07461
6358.16117,0.07677
6360.08964,0.06767
6362.01811,0.05850
6363.94658,0.04901
6365.87504,0.05348
6367.80351,0.06499
6369.73198,0.05858
6371.66045,0.05096
6373.58892,0.04627
6375.51739,0.02263
6377.44586,0.02767
6379.37432,0.09752
6381.30279,0.17878
6383.23126,0.20449
6385.15973,0.15009
6387.08820,0.06691
6389.01667,0.02279
6390.94514,0.01949
6392.87361,0.00310
6394.80207,-0.01934
6396.73054,-0.03311
6398.65901,-0.05383
6400.58748,-0.02944
6402.51595,0.04035
6404.44442,0.06787
6406.37289,0.04189
6408.30135,0.01074
6410.22982,-0.00328
6412.15829,0.02040
6414.08676,0.07723
6416.01523,0.11360
6417.94370,0.11071
6419.87217,0.09534
6421.80064,0.07657
6423.72910,0.07256
6425.65757,0.10629
6427.58604,0.13893
6429.51451,0.13702
6431.44298,0.11074
6433.37145,0.07824
6435.29992,0.06801
6437.22838,0.08371
6439.15685,0.08645
6441.08532,0.06774
6443.01379,0.06407
6444.94226,0.06496
6446.87073,0.03087
6448.79920,-0.02226
6450.72766,-0.04623
6452.65613,-0.02681
6454.58460,-0.01123
6456.51307,0.00179
6458.44154,0.03892
6460.37001,0.06312
6462.29848,0.05494
6464.22695,0.05222
6466.15541,0.09558
6468.08388,0.13738
6470.01235,0.10445
6471.94082,0.04658
6473.86929,0.02522
6475.79776,0.02953
6477.72623,0.04208
6479.65469,0.05103
6481.58316,0.04203
6483.51163,0.01846
6485.44010,0.01269
6487.36857,0.01098
6489.29704,0.00540
6491.22551,0.03880
6493.15398,0.06582
6495.08244,0.03608
6497.01091,0.01337
6498.93938,0.02142
6500.86785,0.02778
6502.79632,0.00806
6504.72479,-0.01092
6506.65326,0.00561
6508.58172,0.03015
6510.51019,0.02680
6512.43866,0.01208
6514.36713,0.01198
6516.29560,0.03549
6518.22407,0.07614
6520.15254,0.07938
6522.08101,0.01645
6524.00947,-0.02088
6525.93794,0.05645
6527.86641,0.14883
6529.79488,0.14949
6531.72335,0.08195
6533.65182,0.02028
6535.58029,-0.00764
6537.50875,-0.03131
6539.43722,-0.03990
6541.36569,0.00149
6543.29416,0.05820
6545.22263,0.07547
6547.15110,0.05677
6549.07957,0.03275
6551.00804,0.03011
6552.93650,0.02844
6554.86497,0.00902
6556.79344,0.02313
6558.72191,0.06844
6560.65038,0.07716
6562.57885,0.06851
6564.50732,0.08125
6566.43578,0.07342
6568.36425,0.04506
6570.29272,0.01258
6572.22119,-0.02657
6574.14966,-0.01439
6576.07813,0.04690
6578.00660,0.08497
6579.93507,0.07927
6581.86353,0.03319
6583.79200,-0.02468
6585.72047,-0.01287
6587.64894,0.05481
6589.57741,0.07833
6591.50588,0.05702
6593.43435,0.04525
6595.36281,0.04197
6597.29128,0.05027
6599.21975,0.07047
6601.14822,0.04584
6603.07669,-0.02745
6605.00516,-0.05861
6606.93363,-0.02248
6608.86210,0.02711
6610.79056,0.03692
6612.71903,0.01240
6614.64750,0.01008
6616.57597,0.03179
6618.50444,0.04270
6620.43291,0.04850
6622.36138,0.03184
6624.28984,-0.00764
6626.21831,0.00544
6628.14678,0.09148
6630.07525,0.16159
6632.00372,0.17248
6633.93219,0.18115
6635.86066,0.19657
6637.78912,0.15806
6639.71759,0.07521
6641.64606,0.02476
6643.57453,0.02525
6645.50300,0.03940
6647.43147,0.05437
6649.35994,0.04951
6651.28841,0.01496
6653.21687,-0.00696
6655.14534,0.00732
6657.07381,0.03572
6659.00228,0.05696
6660.93075,0.06022
6662.85922,0.02655
6664.78769,-0.01681
6666.71615,-0.01187
6668.64462,0.04654
6670.57309,0.11648
6672.50156,0.16246
6674.43003,0.16695
6676.35850,0.11101
6678.28697,0.03696
6680.21544,0.04626
6682.14390,0.09608
6684.07237,0.10800
6686.00084,0.11672
6687.92931,0.11646
6689.85778,0.09799
6691.78625,0.10698
6693.71472,0.13333
6695.64318,0.14302
6697.57165,0.11860
6699.50012,0.06365
6701.42859,0.01508
6703.35706,0.01618
6705.28553,0.02448
6707.21400,0.01541
6709.14247,0.02503
6711.07093,0.04350
6712.99940,0.04807
6714.92787,0.03722
6716.85634,0.03772
6718.78481,0.04429
6720.71328,0.03245
6722.64175,0.02227
6724.57021,0.02557
6726.49868,0.03339
6728.42715,0.03612
6730.35562,0.03218
6732.28409,0.01503
6734.21256,-0.00849
6736.14103,0.00803
6738.06950,0.05345
6739.99796,0.05362
6741.92643,0.02342
6743.85490,0.01571
6745.78337,0.00054
6747.71184,-0.01387
6749.64031,-0.00589
6751.56878,0.00493
6753.49724,0.03505
6755.42571,0.10078
6757.35418,0.13199
6759.28265,0.08656
6761.21112,0.03652
6763.13959,0.01619
6765.06806,0.02757
6766.99653,0.05938
6768.92499,0.04118
6770.85346,0.01208
6772.78193,0.03785
6774.71040,0.05824
6776.63887,0.03101
6778.56734,0.03377
6780.49581,0.09040
6782.42427,0.12731
6784.35274,0.12027
6786.28121,0.08969
6788.20968,0.03533
6790.13815,-0.00218
6792.06662,0.01616
6793.99509,0.03920
6795.92355,0.03683
6797.85202,0.04280
6799.78049,0.09668
6801.70896,0.13400
6803.63743,0.07884
6805.56590,0.02840
6807.49437,0.02979
6809.42284,0.03746
6811.35130,0.02447
6813.27977,-0.02843
6815.20824,-0.07717
6817.13671,-0.06816
6819.06518,-0.06785
6820.99365,-0.10158
6822.92212,-0.03119
6824.85058,0.11706
6826.77905,0.18353
6828.70752,0.20305
6830.63599,0.19951
6832.56446,0.13224
6834.49293,0.03647
6836.42140,0.00687
6838.34987,0.04258
6840.27833,0.05784
6842.20680,0.08712
6844.13527,0.15644
6846.06374,0.16852
6847.99221,0.06295
6849.92068,-0.04720
6851.84915,-0.03332
6853.77761,0.03960
6855.70608,0.05172
6857.63455,-0.02949
6859.56302,-0.12008
6861.49149,-0.10745
6863.41996,0.02510
6865.34843,0.12007
6867.27690,0.11693
6869.20536,0.07199
6871.13383,0.03150
6873.06230,0.09124
6874.99077,0.19715
6876.91924,0.18150
6878.84771,0.07910
6880.77618,0.01520
6882.70464,-0.00087
6884.63311,0.01490
6886.56158,0.04360
6888.49005,0.03559
6890.41852,0.03149
6892.34699,0.07292
6894.27546,0.09343
6896.20393,0.06879
6898.13239,0.02832
6900.06086,0.00245
6901.98933,0.01247
6903.91780,0.04028
6905.84627,0.06948
6907.77474,0.11858
6909.70321,0.12591
6911.63167,0.05647
6913.56014,0.01907
6915.48861,0.05928
6917.41708,0.13428
6919.34555,0.20413
6921.27402,0.18235
6923.20249,0.11980
6925.13096,0.09198
6927.05942,0.06560
6928.98789,0.03520
6930.91636,0.02165
6932.84483,0.05171
6934.77330,0.10946
6936.70177,0.11970
6938.63024,0.07663
6940.55870,0.03314
6942.48717,0.00276
6944.41564,-0.05651
6946.34411,-0.14286
6948.27258,-0.18580
6950.20105,-0.15193
6952.12952,-0.10098
6954.05799,-0.07338
6955.98645,-0.02483
6957.91492,0.03325
6959.84339,0.02440
6961.77186,-0.02097
6963.70033,-0.00795
6965.62880,0.03989
6967.55727,0.00852
6969.48573,-0.11485
6971.41420,-0.15501
6973.34267,-0.01518
6975.27114,0.13966
6977.19961,0.15687
6979.12808,0.09726
6981.05655,0.06487
6982.98501,0.10136
6984.91348,0.13737
6986.84195,0.10055
6988.77042,0.04960
6990.69889,0.06901
6992.62736,0.11984
6994.55583,0.11330
6996.48430,0.03962
6998.41276,-0.01377
7000.34123,0.00749
7002.26970,0.01003
7004.19817,-0.04378
7006.12664,-0.03830
7008.05511,0.02800
7009.98358,0.01625
7011.91204,-0.03666
7013.84051,-0.03973
7015.76898,-0.01798
7017.69745,-0.00320
7019.62592,0.00479
7021.55439,0.00480
7023.48286,0.02966
7025.41133,0.06345
7027.33979,0.06514
7029.26826,0.07773
7031.19673,0.10990
7033.12520,0.12228
7035.05367,0.11566
7036.98214,0.11618
7038.91061,0.12274
7040.83907,0.10451
7042.76754,0.06232
7044.69601,0.03521
7046.62448,0.01595
7048.55295,-0.01953
7050.48142,-0.04034
7052.40989,-0.03840
7054.33836,-0.05105
7056.26682,-0.07049
7058.19529,-0.06819
7060.12376,-0.04513
7062.05223,-0.00402
7063.98070,0.02467
7065.90917,-0.00308
7067.83764,-0.03896
7069.76610,-0.04397
7071.69457,-0.06329
7073.62304,-0.04133
7075.55151,0.04146
7077.47998,0.06213
7079.40845,0.01155
7081.33692,0.00429
7083.26539,0.01996
7085.19385,-0.02669
7087.12232,-0.09533
7089.05079,-0.12417
7090.97926,-0.10989
7092.90773,-0.09919
7094.83620,-0.06959
7096.76467,0.03813
7098.69313,0.15193
7100.62160,0.17480
7102.55007,0.17433
7104.47854,0.20504
7106.40701,0.17494
7108.33548,0.05297
7110.26395,-0.03759
7112.19242,-0.07551
7114.12088,-0.11594
7116.04935,-0.13835
7117.97782,-0.04146
7119.90629,0.10268
7121.83476,0.13617
7123.76323,0.09480
7125.69170,0.03253
7127.62016,-0.01716
7129.54863,0.02589
7131.47710,0.11241
7133.40557,0.08850
7135.33404,-0.00913
7137.26251,-0.04312
7139.19098,0.01922
7141.11944,0.10017
7143.04791,0.15616
7144.97638,0.21364
7146.90485,0.20565
7148.83332,0.10587
7150.76179,0.00160
7152.69026,-0.03428
7154.61873,0.00793
7156.54719,0.05800
7158.47566,0.07015
7160.40413,0.07846
7162.33260,0.08825
7164.26107,0.03656
7166.18954,-0.00004
7168.11801,0.09449
7170.04647,0.21872
7171.97494,0.22019
7173.90341,0.14590
7175.83188,0.12028
7177.76035,0.14811
7179.68882,0.11471
7181.61729,0.00213
7183.54576,-0.05152
7185.47422,0.00164
7187.40269,0.06195
7189.33116,0.12720
7191.25963,0.21116
7193.18810,0.25975
7195.11657,0.23971
7197.04504,0.14821
7198.97350,0.06804
7200.90197,0.07770
7202.83044,0.09111
7204.75891,0.03299
7206.68738,0.02147
7208.61585,0.10625
7210.54432,0.18118
7212.47279,0.13494
7214.40125,-0.05089
7216.32972,-0.23207
7218.25819,-0.11922
7220.18666,0.08453
7222.11513,0.05369
7224.04360,-0.04785
7225.97207,-0.08700
7227.90053,-0.12986
7229.82900,-0.12243
7231.75747,0.04240
7233.68594,0.12060
7235.61441,0.06664
7237.54288,0.07129
7239.47135,0.11948
7241.39982,0.11360
7243.32828,0.05948
7245.25675,0.02565
7247.18522,0.00970
7249.11369,-0.00624
7251.04216,0.01786
7252.97063,0.08357
7254.89910,0.08423
7256.82756,0.01569
7258.75603,-0.03604
7260.68450,-0.03048
7262.61297,0.07837
7264.54144,0.22033
7266.46991,0.21529
7268.39838,0.17392
7270.32685,0.26472
7272.25531,0.35813
7274.18378,0.26967
7276.11225,0.18045
7278.04072,0.14148
7279.96919,0.07891
7281.89766,0.05066
7283.82613,0.08156
7285.75459,0.10537
7287.68306,0.06828
7289.61153,-0.01685
7291.54000,-0.03836
7293.46847,0.04739
7295.39694,0.10300
7297.32541,0.06263
7299.25387,0.06449
7301.18234,0.12265
7303.11081,0.10593
7305.03928,0.10136
7306.96775,0.26800
7308.89622,0.37912
7310.82469,0.23648
7312.75316,0.14223
7314.68162,0.23440
7316.61009,0.34800
7318.53856,0.24384
7320.46703,0.09058
7322.39550,0.08261
7324.32397,0.11208
7326.25244,0.09007
7328.18090,0.06558
7330.10937,0.03832
7332.03784,-0.00516
7333.96631,-0.04590
7335.89478,-0.08441
7337.82325,-0.07497
7339.75172,0.07691
7341.68019,0.17390
7343.60865,0.14044
7345.53712,0.14417
7347.46559,0.13004
7349.39406,0.06902
7351.32253,0.06558
7353.25100,0.08658
7355.17947,0.07625
7357.10793,0.10919
7359.03640,0.20296
7360.96487,0.20318
7362.89334,0.09015
7364.82181,-0.03568
7366.75028,-0.13277
7368.67875,-0.17321
7370.60722,-0.13609
7372.53568,-0.08386
7374.46415,-0.04511
7376.39262,0.02477
7378.32109,-0.01280
7380.24956,-0.15174
7382.17803,-0.21760
7384.10650,-0.10737
7386.03496,0.03708
7387.96343,0.03135
7389.89190,-0.03565
7391.82037,-0.00718
7393.74884,0.06096
7395.67731,0.03172
7397.60578,-0.10415
7399.53425,-0.16623
7401.46271,-0.04791
7403.39118,0.09928
7405.31965,0.08983
7407.24812,0.05616
7409.17659,0.07205
7411.10506,0.09517
7413.03353,0.08545
7414.96199,0.04261
7416.89046,0.01962
7418.81893,0.03320
7420.74740,0.00659
7422.67587,-0.03259
7424.60434,0.02399
7426.53281,0.12449
7428.46128,0.20086
7430.38974,0.28680
7432.31821,0.29259
7434.24668,0.17983
7436.17515,0.16390
7438.10362,0.29285
7440.03209,0.30851
7441.96056,0.20709
7443.88902,0.11586
7445.81749,-0.00503
7447.74596,-0.08505
7449.67443,0.00517
7451.60290,0.15942
7453.53137,0.14231
7455.45984,0.05705
7457.38831,0.01476
7459.31677,-0.00556
7461.24524,0.02391
7463.17371,0.01730
7465.10218,-0.03193
7467.03065,0.03256
7468.95912,0.13673
7470.88759,0.15420
7472.81605,0.15393
7474.74452,0.22067
7476.67299,0.26131
7478.60146,0.20304
7480.52993,0.14132
7482.45840,0.08017
7484.38687,-0.01379
7486.31533,-0.08399
7488.24380,-0.10452
7490.17227,-0.02878
7492.10074,0.10897
7494.02921,0.16058
7495.95768,0.09518
7497.88615,-0.05918
