399.19301,0.07737
401.12148,0.29201
403.04995,0.02197
404.97842,0.01507
406.90689,-0.00960
408.83536,-0.10929
410.76382,-0.15577
412.69229,-0.06166
414.62076,0.13260
416.54923,0.29371
418.47770,0.25554
420.40617,0.11624
422.33464,0.18224
424.26311,0.30281
426.19157,0.26032
428.12004,0.11327
430.04851,0.07670
431.97698,0.17409
433.90545,0.14250
435.83392,0.01669
437.76239,-0.03027
439.69085,-0.03543
441.61932,-0.07904
443.54779,-0.04312
445.47626,0.10976
447.40473,0.17826
449.33320,0.14026
451.26167,0.11156
453.19013,0.09406
455.11860,0.08489
457.04707,0.10210
458.97554,0.11330
460.90401,0.11761
462.83248,0.11006
464.76095,0.11587
466.68942,0.17269
468.61788,0.19848
470.54635,0.14129
472.47482,0.05793
474.40329,0.09697
476.33176,0.21006
478.26023,0.22436
480.18870,0.18597
482.11716,0.18477
484.04563,0.23117
485.97410,0.22556
487.90257,0.15258
489.83104,0.11012
491.75951,0.10980
493.68798,0.10128
495.61645,0.10496
497.54491,0.12737
499.47338,0.11662
501.40185,0.08081
503.33032,0.09663
505.25879,0.16005
507.18726,0.17527
509.11573,0.12257
511.04419,0.08413
512.97266,0.08369
514.90113,0.08798
516.82960,0.08310
518.75807,0.06833
520.68654,0.07553
522.61501,0.12549
524.54348,0.14929
526.47194,0.11223
528.40041,0.07366
530.32888,0.04001
532.25735,0.00284
534.18582,0.00084
536.11429,0.04239
538.04276,0.07821
539.97122,0.09773
541.89969,0.12323
543.82816,0.11726
545.75663,0.07007
547.68510,0.04220
549.61357,0.09430
551.54204,0.34988
553.47051,0.64698
555.39897,0.57726
557.32744,0.27937
559.25591,0.12953
561.18438,0.08035
563.11285,0.07286
565.04132,0.12799
566.96979,0.16816
568.89825,0.15052
570.82672,0.12492
572.75519,0.12941
574.68366,0.12110
576.61213,0.08263
578.54060,0.07486
580.46907,0.11081
582.39754,0.13846
584.32600,0.13164
586.25447,0.11530
588.18294,0.12572
590.11141,0.14823
592.03988,0.13750
593.96835,0.12073
595.89682,0.12564
597.82528,0.10364
599.75375,0.05269
601.68222,0.04409
603.61069,0.08750
605.53916,0.11848
607.46763,0.12069
609.39610,0.11781
611.32456,0.11218
613.25303,0.10270
615.18150,0.09894
617.10997,0.10393
619.03844,0.10675
620.96691,0.10201
622.89538,0.10673
624.82385,0.11692
626.75231,0.11144
628.68078,0.10088
630.60925,0.10389
632.53772,0.12608
634.46619,0.15301
636.39466,0.15405
638.32313,0.13788
640.25159,0.13249
642.18006,0.12503
644.10853,0.10781
646.03700,0.11646
647.96547,0.15017
649.89394,0.15460
651.82241,0.12279
653.75088,0.10291
655.67934,0.11478
657.60781,0.12995
659.53628,0.12175
661.46475,0.11769
663.39322,0.13437
665.32169,0.13465
667.25016,0.10569
669.17862,0.10592
671.10709,0.13249
673.03556,0.12733
674.96403,0.11229
676.89250,0.12445
678.82097,0.14938
680.74944,0.15157
682.67791,0.13960
684.60637,0.14198
686.53484,0.14935
688.46331,0.14216
690.39178,0.13618
692.32025,0.14630
694.24872,0.15649
696.17719,0.14608
698.10565,0.12678
700.03412,0.12097
701.96259,0.11843
703.89106,0.11351
705.81953,0.12561
707.74800,0.14059
709.67647,0.12460
711.60494,0.09359
713.53340,0.08608
715.46187,0.10329
717.39034,0.11978
719.31881,0.12697
721.24728,0.13652
723.17575,0.14676
725.10422,0.14124
727.03268,0.12948
728.96115,0.13414
730.88962,0.13842
732.81809,0.12147
734.74656,0.11104
736.67503,0.12384
738.60350,0.13202
740.53197,0.12834
742.46043,0.13597
744.38890,0.14879
746.31737,0.14313
748.24584,0.12881
750.17431,0.13189
752.10278,0.14846
754.03125,0.14494
755.95971,0.11818
757.88818,0.10100
759.81665,0.10549
761.74512,0.11937
763.67359,0.12810
765.60206,0.13057
767.53053,0.13416
769.45900,0.13445
771.38746,0.13022
773.31593,0.13522
775.24440,0.14444
777.17287,0.13558
779.10134,0.11812
781.02981,0.11723
782.95828,0.12660
784.88674,0.13009
786.81521,0.13373
788.74368,0.14443
790.67215,0.15856
792.60062,0.17068
794.52909,0.17484
796.45756,0.17536
798.38602,0.17360
800.31449,0.16037
802.24296,0.14765
804.17143,0.15632
806.09990,0.16879
808.02837,0.15634
809.95684,0.13385
811.88531,0.12812
813.81377,0.12603
815.74224,0.11034
817.67071,0.10245
819.59918,0.11667
821.52765,0.13006
823.45612,0.13065
825.38459,0.13076
827.31305,0.13258
829.24152,0.12928
831.16999,0.12175
833.09846,0.11978
835.02693,0.13130
836.95540,0.14434
838.88387,0.14454
840.81234,0.14015
842.74080,0.13981
844.66927,0.13602
846.59774,0.13021
848.52621,0.13406
850.45468,0.14853
852.38315,0.16005
854.31162,0.15343
856.24008,0.14094
858.16855,0.14095
860.09702,0.14152
862.02549,0.13620
863.95396,0.14131
865.88243,0.15277
867.81090,0.15092
869.73937,0.14181
871.66783,0.14226
873.59630,0.14316
875.52477,0.13284
877.45324,0.12856
879.38171,0.13431
881.31018,0.13251
883.23865,0.13037
885.16711,0.14078
887.09558,0.15147
889.02405,0.14940
890.95252,0.14004
892.88099,0.13456
894.80946,0.14225
896.73793,0.15367
898.66640,0.14888
900.59486,0.14172
902.52333,0.14688
904.45180,0.14812
906.38027,0.14497
908.30874,0.15048
910.23721,0.15861
912.16568,0.15869
914.09414,0.15527
916.02261,0.15273
917.95108,0.14575
919.87955,0.13642
921.80802,0.13332
923.73649,0.14147
925.66496,0.15310
927.59343,0.15257
929.52189,0.14629
931.45036,0.15001
933.37883,0.15492
935.30730,0.14695
937.23577,0.13617
939.16424,0.13820
941.09271,0.14343
943.02117,0.13903
944.94964,0.13835
946.87811,0.14761
948.80658,0.14989
950.73505,0.14504
952.66352,0.14693
954.59199,0.15544
956.52045,0.16123
958.44892,0.16058
960.37739,0.15897
962.30586,0.15626
964.23433,0.14582
966.16280,0.13655
968.09127,0.14078
970.01974,0.14538
971.94820,0.13654
973.87667,0.12808
975.80514,0.13204
977.73361,0.14122
979.66208,0.14374
981.59055,0.14167
983.51902,0.14693
985.44748,0.15133
987.37595,0.14483
989.30442,0.13897
991.23289,0.14421
993.16136,0.15180
995.08983,0.14857
997.01830,0.14212
998.94677,0.14431
1000.87523,0.15007
1002.80370,0.15516
1004.73217,0.16278
1006.66064,0.16768
1008.58911,0.15990
1010.51758,0.15077
1012.44605,0.15949
1014.37451,0.17257
1016.30298,0.16805
1018.23145,0.15691
1020.15992,0.15454
1022.08839,0.15489
1024.01686,0.14907
1025.94533,0.13704
1027.87380,0.12899
1029.80226,0.12992
1031.73073,0.12986
1033.65920,0.13129
1035.58767,0.14174
1037.51614,0.14605
1039.44461,0.13882
1041.37308,0.14237
1043.30154,0.16068
1045.23001,0.16847
1047.15848,0.15907
1049.08695,0.15255
1051.01542,0.15767
1052.94389,0.16365
1054.87236,0.16496
1056.80083,0.17052
1058.72929,0.17672
1060.65776,0.17074
1062.58623,0.16077
1064.51470,0.15713
1066.44317,0.15343
1068.37164,0.14780
1070.30011,0.14703
1072.22857,0.15249
1074.15704,0.16174
1076.08551,0.16792
1078.01398,0.17030
1079.94245,0.17459
1081.87092,0.17204
1083.79939,0.16056
1085.72786,0.15180
1087.65632,0.14998
1089.58479,0.15205
1091.51326,0.15049
1093.44173,0.15146
1095.37020,0.16501
1097.29867,0.17711
1099.22714,0.17665
1101.15560,0.17014
1103.08407,0.16494
1105.01254,0.16014
1106.94101,0.15320
1108.86948,0.15536
1110.79795,0.16831
1112.72642,0.17358
1114.65489,0.16704
1116.58335,0.16505
1118.51182,0.16886
1120.44029,0.16247
1122.36876,0.15183
1124.29723,0.15150
1126.22570,0.15708
1128.15417,0.15828
1130.08263,0.15309
1132.01110,0.15021
1133.93957,0.15274
1135.86804,0.15261
1137.79651,0.15099
1139.72498,0.15599
1141.65345,0.16298
1143.58191,0.16300
1145.51038,0.15981
1147.43885,0.16390
1149.36732,0.17358
1151.29579,0.17564
1153.22426,0.17045
1155.15273,0.17037
1157.08120,0.17309
1159.00966,0.16926
1160.93813,0.16230
1162.86660,0.15750
1164.79507,0.15849
1166.72354,0.16546
1168.65201,0.16853
1170.58048,0.16654
1172.50894,0.16743
1174.43741,0.17093
1176.36588,0.17279
1178.29435,0.17066
1180.22282,0.16432
1182.15129,0.15704
1184.07976,0.15431
1186.00823,0.15721
1187.93669,0.16112
1189.86516,0.16430
1191.79363,0.16779
1193.72210,0.16932
1195.65057,0.16736
1197.57904,0.16521
1199.50751,0.16645
1201.43597,0.16956
1203.36444,0.16940
1205.29291,0.16520
1207.22138,0.16169
1209.14985,0.16084
1211.07832,0.16094
1213.00679,0.16214
1214.93526,0.16518
1216.86372,0.16773
1218.79219,0.16693
1220.72066,0.16479
1222.64913,0.16799
1224.57760,0.17363
1226.50607,0.17080
1228.43454,0.16403
1230.36300,0.16427
1232.29147,0.16764
1234.21994,0.16499
1236.14841,0.15851
1238.07688,0.15834
1240.00535,0.16424
1241.93382,0.16748
1243.86229,0.16632
1245.79075,0.16156
1247.71922,0.15353
1249.64769,0.14999
1251.57616,0.15475
1253.50463,0.15974
1255.43310,0.15989
1257.36157,0.15435
1259.29003,0.14546
1261.21850,0.14202
1263.14697,0.14571
1265.07544,0.15075
1267.00391,0.15164
1268.93238,0.14732
1270.86085,0.14633
1272.78932,0.15113
1274.71778,0.15409
1276.64625,0.15646
1278.57472,0.16229
1280.50319,0.16309
1282.43166,0.15760
1284.36013,0.15634
1286.28860,0.15656
1288.21706,0.15562
1290.14553,0.15959
1292.07400,0.16195
1294.00247,0.15620
1295.93094,0.15003
1297.85941,0.14681
1299.78788,0.13473
1301.71634,0.10678
1303.64481,0.08461
1305.57328,0.09907
1307.50175,0.13988
1309.43022,0.16545
1311.35869,0.16954
1313.28716,0.17337
1315.21563,0.17623
1317.14409,0.17285
1319.07256,0.17042
1321.00103,0.17104
1322.92950,0.16973
1324.85797,0.16196
1326.78644,0.15400
1328.71491,0.15294
1330.64337,0.14870
1332.57184,0.14271
1334.50031,0.14611
1336.42878,0.15251
1338.35725,0.15636
1340.28572,0.14931
1342.21419,0.13327
1344.14266,0.12734
1346.07112,0.13098
1347.99959,0.13940
1349.92806,0.14965
1351.85653,0.15223
1353.78500,0.14726
1355.71347,0.14456
1357.64194,0.15213
1359.57040,0.16515
1361.49887,0.17212
1363.42734,0.17045
1365.35581,0.16914
1367.28428,0.17065
1369.21275,0.16855
1371.14122,0.16484
1373.06969,0.16748
1374.99815,0.17452
1376.92662,0.17736
1378.85509,0.17765
1380.78356,0.17947
1382.71203,0.18158
1384.64050,0.18508
1386.56897,0.19049
1388.49743,0.19038
1390.42590,0.18509
1392.35437,0.18408
1394.28284,0.18876
1396.21131,0.19193
1398.13978,0.18973
1400.06825,0.18463
1401.99672,0.18147
1403.92518,0.18315
1405.85365,0.18447
1407.78212,0.18129
1409.71059,0.17893
1411.63906,0.17843
1413.56753,0.17830
1415.49600,0.18093
1417.42446,0.18748
1419.35293,0.19425
1421.28140,0.19570
1423.20987,0.19310
1425.13834,0.18841
1427.06681,0.18598
1428.99528,0.18687
1430.92375,0.18645
1432.85221,0.18476
1434.78068,0.18396
1436.70915,0.18179
1438.63762,0.18105
1440.56609,0.18458
1442.49456,0.18778
1444.42303,0.18734
1446.35149,0.18471
1448.27996,0.18335
1450.20843,0.18351
1452.13690,0.18697
1454.06537,0.20019
1455.99384,0.22282
1457.92231,0.22595
1459.85077,0.20396
1461.77924,0.19380
1463.70771,0.19856
1465.63618,0.20319
1467.56465,0.20014
1469.49312,0.20327
1471.42159,0.21324
1473.35006,0.21209
1475.27852,0.20079
1477.20699,0.19467
1479.13546,0.19185
1481.06393,0.18906
1482.99240,0.18673
1484.92087,0.18900
1486.84934,0.19734
1488.77780,0.20514
1490.70627,0.20267
1492.63474,0.19805
1494.56321,0.20137
1496.49168,0.20763
1498.42015,0.20399
1500.34862,0.19674
1502.27709,0.19619
1504.20555,0.20649
1506.13402,0.23248
1508.06249,0.23794
1509.99096,0.21627
1511.91943,0.20393
1513.84790,0.20290
1515.77637,0.20848
1517.70483,0.21418
1519.63330,0.22097
1521.56177,0.22901
1523.49024,0.22295
1525.41871,0.20953
1527.34718,0.20188
1529.27565,0.20050
1531.20412,0.20318
1533.13258,0.20673
1535.06105,0.20639
1536.98952,0.20983
1538.91799,0.22543
1540.84646,0.24112
1542.77493,0.23345
1544.70340,0.21937
1546.63186,0.20749
1548.56033,0.20011
1550.48880,0.19664
1552.41727,0.19790
1554.34574,0.20398
1556.27421,0.21440
1558.20268,0.22897
1560.13115,0.21718
1562.05961,0.20000
1563.98808,0.19619
1565.91655,0.19646
1567.84502,0.19730
1569.77349,0.19546
1571.70196,0.19064
1573.63043,0.19234
1575.55889,0.19809
1577.48736,0.19434
1579.41583,0.18721
1581.34430,0.18499
1583.27277,0.18412
1585.20124,0.18089
1587.12971,0.17775
1589.05818,0.17923
1590.98664,0.18268
1592.91511,0.18348
1594.84358,0.18253
1596.77205,0.18131
1598.70052,0.18025
1600.62899,0.17936
1602.55746,0.17966
1604.48592,0.18247
1606.41439,0.18541
1608.34286,0.18500
1610.27133,0.18148
1612.19980,0.17997
1614.12827,0.18244
1616.05674,0.18573
1617.98521,0.18805
1619.91367,0.19183
1621.84214,0.19834
1623.77061,0.20265
1625.69908,0.20045
1627.62755,0.19843
1629.55602,0.19857
1631.48449,0.20013
1633.41295,0.20776
1635.34142,0.22060
1637.26989,0.21495
1639.19836,0.20046
1641.12683,0.19687
1643.05530,0.20204
1644.98377,0.21237
1646.91223,0.22415
1648.84070,0.22689
1650.76917,0.22835
1652.69764,0.22904
1654.62611,0.21782
1656.55458,0.21008
1658.48305,0.20275
1660.41152,0.19411
1662.33998,0.19427
1664.26845,0.20152
1666.19692,0.20399
1668.12539,0.20667
1670.05386,0.21244
1671.98233,0.21383
1673.91080,0.21175
1675.83926,0.20548
1677.76773,0.20150
1679.69620,0.20743
1681.62467,0.21767
1683.55314,0.22240
1685.48161,0.21581
1687.41008,0.20939
1689.33855,0.20616
1691.26701,0.20407
1693.19548,0.20633
1695.12395,0.21438
1697.05242,0.22049
1698.98089,0.21717
1700.90936,0.20972
1702.83783,0.20758
1704.76629,0.20707
1706.69476,0.20384
1708.62323,0.20009
1710.55170,0.19697
1712.48017,0.19410
1714.40864,0.19572
1716.33711,0.21031
1718.26558,0.21850
1720.19404,0.20536
1722.12251,0.19527
1724.05098,0.19173
1725.97945,0.18916
1727.90792,0.18879
1729.83639,0.19375
1731.76486,0.20603
1733.69332,0.21539
1735.62179,0.20568
1737.55026,0.19959
1739.47873,0.20116
1741.40720,0.19752
1743.33567,0.19254
1745.26414,0.19538
1747.19261,0.20380
1749.12107,0.20789
1751.04954,0.20180
1752.97801,0.19535
1754.90648,0.19336
1756.83495,0.19153
1758.76342,0.19110
1760.69189,0.19562
1762.62035,0.19736
1764.54882,0.19381
1766.47729,0.19573
1768.40576,0.20542
1770.33423,0.21398
1772.26270,0.21237
1774.19117,0.20398
1776.11964,0.19870
1778.04810,0.19620
1779.97657,0.19472
1781.90504,0.19457
1783.83351,0.19277
1785.76198,0.18866
1787.69045,0.18915
1789.61892,0.19475
1791.54738,0.20020
1793.47585,0.20071
1795.40432,0.19635
1797.33279,0.19362
1799.26126,0.19496
1801.18973,0.19417
1803.11820,0.18915
1805.04666,0.18769
1806.97513,0.19119
1808.90360,0.19374
1810.83207,0.19371
1812.76054,0.19327
1814.68901,0.19307
1816.61748,0.19311
1818.54595,0.19218
1820.47441,0.19131
1822.40288,0.19324
1824.33135,0.19620
1826.25982,0.19934
1828.18829,0.20455
1830.11676,0.20522
1832.04523,0.19701
1833.97369,0.19036
1835.90216,0.19050
1837.83063,0.19174
1839.75910,0.19038
1841.68757,0.19316
1843.61604,0.20054
1845.54451,0.19948
1847.47298,0.19197
1849.40144,0.18863
1851.32991,0.18885
1853.25838,0.18921
1855.18685,0.18861
1857.11532,0.18908
1859.04379,0.19154
1860.97226,0.19232
1862.90072,0.19243
1864.82919,0.19655
1866.75766,0.20280
1868.68613,0.20444
1870.61460,0.19970
1872.54307,0.19535
1874.47154,0.19454
1876.40001,0.19352
1878.32847,0.18982
1880.25694,0.18794
1882.18541,0.18960
1884.11388,0.19152
1886.04235,0.19377
1887.97082,0.19683
1889.89929,0.19634
1891.82775,0.19238
1893.75622,0.19135
1895.68469,0.19351
1897.61316,0.19386
1899.54163,0.19122
1901.47010,0.18839
1903.39857,0.18741
1905.32704,0.18787
1907.25550,0.18907
1909.18397,0.19098
1911.11244,0.19230
1913.04091,0.19216
1914.96938,0.19295
1916.89785,0.19552
1918.82632,0.19702
1920.75478,0.19741
1922.68325,0.19715
1924.61172,0.19458
1926.54019,0.19224
1928.46866,0.19116
1930.39713,0.18948
1932.32560,0.18890
1934.25407,0.19037
1936.18253,0.19138
1938.11100,0.19101
1940.03947,0.19283
1941.96794,0.19827
1943.89641,0.19917
1945.82488,0.19323
1947.75335,0.18947
1949.68181,0.19005
1951.61028,0.19058
1953.53875,0.19017
1955.46722,0.19047
1957.39569,0.19116
1959.32416,0.19175
1961.25263,0.19298
1963.18110,0.19461
1965.10956,0.19515
1967.03803,0.19321
1968.96650,0.19126
1970.89497,0.19196
1972.82344,0.19315
1974.75191,0.19357
1976.68038,0.19397
1978.60884,0.19416
1980.53731,0.19377
1982.46578,0.19266
1984.39425,0.19140
1986.32272,0.19137
1988.25119,0.19266
1990.17966,0.19359
1992.10812,0.19355
1994.03659,0.19385
1995.96506,0.19522
1997.89353,0.19636
1999.82200,0.19545
2001.75047,0.19363
2003.67894,0.19314
2005.60741,0.19348
2007.53587,0.19515
2009.46434,0.19687
2011.39281,0.19388
2013.32128,0.18976
2015.24975,0.19112
2017.17822,0.19492
2019.10669,0.19599
2021.03515,0.19518
2022.96362,0.19479
2024.89209,0.19365
2026.82056,0.19070
2028.74903,0.18841
2030.67750,0.18879
2032.60597,0.19085
2034.53444,0.19233
2036.46290,0.19221
2038.39137,0.18981
2040.31984,0.18527
2042.24831,0.18232
2044.17678,0.18353
2046.10525,0.18630
2048.03372,0.18788
2049.96218,0.18923
2051.89065,0.19156
2053.81912,0.19297
2055.74759,0.19243
2057.67606,0.19169
2059.60453,0.19080
2061.53300,0.18937
2063.46147,0.18910
2065.38993,0.18983
2067.31840,0.19001
2069.24687,0.19016
2071.17534,0.19102
2073.10381,0.19239
2075.03228,0.19363
2076.96075,0.19282
2078.88921,0.18978
2080.81768,0.18808
2082.74615,0.18915
2084.67462,0.18935
2086.60309,0.18759
2088.53156,0.18795
2090.46003,0.19201
2092.38850,0.19467
2094.31696,0.19293
2096.24543,0.19231
2098.17390,0.19464
2100.10237,0.19414
2102.03084,0.19115
2103.95931,0.19152
2105.88778,0.19534
2107.81624,0.19666
2109.74471,0.19328
2111.67318,0.18991
2113.60165,0.19025
2115.53012,0.19355
2117.45859,0.19608
2119.38706,0.19481
2121.31553,0.19164
2123.24399,0.19055
2125.17246,0.19180
2127.10093,0.19404
2129.02940,0.19585
2130.95787,0.19435
2132.88634,0.19030
2134.81481,0.18550
2136.74327,0.18108
2138.67174,0.18214
2140.60021,0.18817
2142.52868,0.19234
2144.45715,0.19344
2146.38562,0.19360
2148.31409,0.19383
2150.24255,0.19498
2152.17102,0.19585
2154.09949,0.19532
2156.02796,0.19477
2157.95643,0.19392
2159.88490,0.19266
2161.81337,0.19363
2163.74184,0.19728
2165.67030,0.19948
2167.59877,0.19645
2169.52724,0.19204
2171.45571,0.19288
2173.38418,0.19601
2175.31265,0.19497
2177.24112,0.19235
2179.16958,0.19297
2181.09805,0.19491
2183.02652,0.19456
2184.95499,0.19241
2186.88346,0.19116
2188.81193,0.19030
2190.74040,0.18859
2192.66887,0.18895
2194.59733,0.19159
2196.52580,0.19244
2198.45427,0.19136
2200.38274,0.19154
2202.31121,0.19375
2204.23968,0.19556
2206.16815,0.19395
2208.09661,0.19049
2210.02508,0.19101
2211.95355,0.19530
2213.88202,0.19654
2215.81049,0.19410
2217.73896,0.19240
2219.66743,0.19067
2221.59590,0.18856
2223.52436,0.18962
2225.45283,0.19368
2227.38130,0.19716
2229.30977,0.19726
2231.23824,0.19537
2233.16671,0.19441
2235.09518,0.19354
2237.02364,0.19290
2238.95211,0.19493
2240.88058,0.19798
2242.80905,0.19759
2244.73752,0.19439
2246.66599,0.19318
2248.59446,0.19315
2250.52293,0.19020
2252.45139,0.18725
2254.37986,0.18932
2256.30833,0.19290
2258.23680,0.19233
2260.16527,0.18918
2262.09374,0.18696
2264.02221,0.18571
2265.95067,0.18525
2267.87914,0.18658
2269.80761,0.18936
2271.73608,0.19119
2273.66455,0.19043
2275.59302,0.18809
2277.52149,0.18726
2279.44996,0.18889
2281.37842,0.18985
2283.30689,0.19036
2285.23536,0.19253
2287.16383,0.19176
2289.09230,0.18670
2291.02077,0.18442
2292.94924,0.18762
2294.87770,0.19170
2296.80617,0.19215
2298.73464,0.19137
2300.66311,0.19242
2302.59158,0.19254
2304.52005,0.19093
2306.44852,0.18919
2308.37699,0.18843
2310.30545,0.18628
2312.23392,0.17835
2314.16239,0.17153
2316.09086,0.17190
2318.01933,0.17029
2319.94780,0.16297
2321.87627,0.15910
2323.80473,0.16501
2325.73320,0.17513
2327.66167,0.17780
2329.59014,0.17470
2331.51861,0.17524
2333.44708,0.17547
2335.37555,0.17481
2337.30401,0.18133
2339.23248,0.18181
2341.16095,0.16646
2343.08942,0.16358
2345.01789,0.18123
2346.94636,0.18991
2348.87483,0.18433
2350.80330,0.17735
2352.73176,0.17802
2354.66023,0.17833
2356.58870,0.17037
2358.51717,0.17327
2360.44564,0.17969
2362.37411,0.17167
2364.30258,0.16786
2366.23104,0.17729
2368.15951,0.18374
2370.08798,0.17963
2372.01645,0.17570
2373.94492,0.17901
2375.87339,0.18324
2377.80186,0.18331
2379.73033,0.18306
2381.65879,0.18734
2383.58726,0.19258
2385.51573,0.19255
2387.44420,0.19027
2389.37267,0.19147
2391.30114,0.19330
2393.22961,0.19317
2395.15807,0.19510
2397.08654,0.19880
2399.01501,0.19904
2400.94348,0.19474
2402.87195,0.19065
2404.80042,0.19129
2406.72889,0.19407
2408.65736,0.19505
2410.58582,0.19656
2412.51429,0.19846
2414.44276,0.19594
2416.37123,0.19116
2418.29970,0.18997
2420.22817,0.19222
2422.15664,0.19421
2424.08510,0.19434
2426.01357,0.19405
2427.94204,0.19345
2429.87051,0.19188
2431.79898,0.19137
2433.72745,0.19268
2435.65592,0.19397
2437.58439,0.19341
2439.51285,0.19073
2441.44132,0.18811
2443.36979,0.18759
2445.29826,0.18712
2447.22673,0.18575
2449.15520,0.18854
2451.08367,0.19587
2453.01213,0.19952
2454.94060,0.19603
2456.86907,0.19249
2458.79754,0.19286
2460.72601,0.19190
2462.65448,0.19103
2464.58295,0.19522
2466.51142,0.19882
2468.43988,0.19659
2470.36835,0.19299
2472.29682,0.19370
2474.22529,0.19669
2476.15376,0.19658
2478.08223,0.19542
2480.01070,0.19774
2481.93916,0.19975
2483.86763,0.19711
2485.79610,0.19284
2487.72457,0.19133
2489.65304,0.19377
2491.58151,0.19653
2493.50998,0.19726
2495.43844,0.19803
2497.36691,0.19744
2499.29538,0.19456
2501.22385,0.19425
2503.15232,0.19685
2505.08079,0.19706
2507.00926,0.19444
2508.93773,0.19333
2510.86619,0.19553
2512.79466,0.19565
2514.72313,0.19078
2516.65160,0.18798
2518.58007,0.19070
2520.50854,0.19398
2522.43701,0.19535
2524.36547,0.19649
2526.29394,0.19595
2528.22241,0.19288
2530.15088,0.19112
2532.07935,0.19162
2534.00782,0.19136
2535.93629,0.19007
2537.86476,0.19092
2539.79322,0.19390
2541.72169,0.19608
2543.65016,0.19697
2545.57863,0.19733
2547.50710,0.19650
2549.43557,0.19409
2551.36404,0.19303
2553.29250,0.19426
2555.22097,0.19403
2557.14944,0.19155
2559.07791,0.18961
2561.00638,0.19007
2562.93485,0.19330
2564.86332,0.19726
2566.79179,0.19773
2568.72025,0.19476
2570.64872,0.19340
2572.57719,0.19369
2574.50566,0.19294
2576.43413,0.19364
2578.36260,0.19738
2580.29107,0.20067
2582.21953,0.20017
2584.14800,0.19691
2586.07647,0.19436
2588.00494,0.19461
2589.93341,0.19662
2591.86188,0.19793
2593.79035,0.19875
2595.71882,0.19934
2597.64728,0.19902
2599.57575,0.19800
2601.50422,0.19572
2603.43269,0.19234
2605.36116,0.19139
2607.28963,0.19446
2609.21810,0.19652
2611.14656,0.19644
2613.07503,0.19931
2615.00350,0.20283
2616.93197,0.20039
2618.86044,0.19503
2620.78891,0.19435
2622.71738,0.19616
2624.64585,0.19513
2626.57431,0.19278
2628.50278,0.19282
2630.43125,0.19608
2632.35972,0.19842
2634.28819,0.19702
2636.21666,0.19592
2638.14513,0.19739
2640.07359,0.19810
2642.00206,0.19729
2643.93053,0.19868
2645.85900,0.20090
2647.78747,0.19880
2649.71594,0.19489
2651.64441,0.19436
2653.57288,0.19619
2655.50134,0.19832
2657.42981,0.20101
2659.35828,0.20266
2661.28675,0.20100
2663.21522,0.19785
2665.14369,0.19737
2667.07216,0.19873
2669.00062,0.19679
2670.92909,0.19313
2672.85756,0.19487
2674.78603,0.20027
2676.71450,0.20097
2678.64297,0.19670
2680.57144,0.19471
2682.49990,0.19573
2684.42837,0.19477
2686.35684,0.19315
2688.28531,0.19487
2690.21378,0.19708
2692.14225,0.19572
2694.07072,0.19471
2695.99919,0.19846
2697.92765,0.20169
2699.85612,0.19963
2701.78459,0.19774
2703.71306,0.20037
2705.64153,0.20396
2707.57000,0.20364
2709.49847,0.20050
2711.42693,0.19958
2713.35540,0.19979
2715.28387,0.19841
2717.21234,0.19869
2719.14081,0.20124
2721.06928,0.20230
2722.99775,0.20174
2724.92622,0.20104
2726.85468,0.20032
2728.78315,0.19991
2730.71162,0.20010
2732.64009,0.20162
2734.56856,0.20316
2736.49703,0.20367
2738.42550,0.20515
2740.35396,0.20661
2742.28243,0.20657
2744.21090,0.20618
2746.13937,0.20550
2748.06784,0.20673
2749.99631,0.21088
2751.92478,0.21174
2753.85325,0.20724
2755.78171,0.20415
2757.71018,0.20597
2759.63865,0.20817
2761.56712,0.20714
2763.49559,0.20761
2765.42406,0.20998
2767.35253,0.20766
2769.28099,0.20341
2771.20946,0.20324
2773.13793,0.20511
2775.06640,0.20585
2776.99487,0.20584
2778.92334,0.20587
2780.85181,0.20475
2782.78028,0.20258
2784.70874,0.20221
2786.63721,0.20261
2788.56568,0.20193
2790.49415,0.20338
2792.42262,0.20735
2794.35109,0.21091
2796.27956,0.21315
2798.20802,0.21390
2800.13649,0.21442
2802.06496,0.21560
2803.99343,0.21541
2805.92190,0.21287
2807.85037,0.21070
2809.77884,0.21045
2811.70731,0.20914
2813.63577,0.20602
2815.56424,0.20507
2817.49271,0.20594
2819.42118,0.20532
2821.34965,0.20342
2823.27812,0.20217
2825.20659,0.20308
2827.13505,0.20331
2829.06352,0.20289
2830.99199,0.20748
2832.92046,0.21324
2834.84893,0.21553
2836.77740,0.21646
2838.70587,0.21373
2840.63433,0.20778
2842.56280,0.20404
2844.49127,0.20399
2846.41974,0.20595
2848.34821,0.20763
2850.27668,0.20972
2852.20515,0.21245
2854.13362,0.21040
2856.06208,0.20401
2857.99055,0.20252
2859.91902,0.20713
2861.84749,0.20997
2863.77596,0.20783
2865.70443,0.20478
2867.63290,0.20604
2869.56136,0.21219
2871.48983,0.21515
2873.41830,0.20846
2875.34677,0.20123
2877.27524,0.20251
2879.20371,0.20635
2881.13218,0.20683
2883.06065,0.20393
2884.98911,0.19849
2886.91758,0.19641
2888.84605,0.20045
2890.77452,0.20412
2892.70299,0.20370
2894.63146,0.20177
2896.55993,0.20243
2898.48839,0.20516
2900.41686,0.20550
2902.34533,0.20275
2904.27380,0.19806
2906.20227,0.19510
2908.13074,0.19790
2910.05921,0.20155
2911.98768,0.19935
2913.91614,0.19005
2915.84461,0.17889
2917.77308,0.17926
2919.70155,0.19280
2921.63002,0.20335
2923.55849,0.19778
2925.48696,0.17778
2927.41542,0.16730
2929.34389,0.18147
2931.27236,0.20004
2933.20083,0.20514
2935.12930,0.19699
2937.05777,0.18356
2938.98624,0.18288
2940.91471,0.19709
2942.84317,0.20692
2944.77164,0.19974
2946.70011,0.18111
2948.62858,0.17566
2950.55705,0.19095
2952.48552,0.20231
2954.41399,0.19802
2956.34245,0.18455
2958.27092,0.17715
2960.19939,0.18859
2962.12786,0.20428
2964.05633,0.20663
2965.98480,0.19647
2967.91327,0.18612
2969.84174,0.19261
2971.77020,0.20917
2973.69867,0.21385
2975.62714,0.20269
2977.55561,0.18660
2979.48408,0.18351
2981.41255,0.19466
2983.34102,0.20196
2985.26948,0.19879
2987.19795,0.19022
2989.12642,0.18862
2991.05489,0.19902
2992.98336,0.20971
2994.91183,0.21532
2996.84030,0.21649
2998.76877,0.21354
3000.69723,0.20931
3002.62570,0.20563
3004.55417,0.20481
3006.48264,0.20197
3008.41111,0.18783
3010.33958,0.16313
3012.26805,0.13016
3014.19651,0.08902
3016.12498,0.06089
3018.05345,0.08315
3019.98192,0.14638
3021.91039,0.19623
3023.83886,0.21324
3025.76733,0.21286
3027.69579,0.20902
3029.62426,0.21101
3031.55273,0.21500
3033.48120,0.21554
3035.40967,0.21316
3037.33814,0.20415
3039.26661,0.19671
3041.19508,0.20140
3043.12354,0.20827
3045.05201,0.20542
3046.98048,0.19667
3048.90895,0.19378
3050.83742,0.19769
3052.76589,0.19912
3054.69436,0.19018
3056.62282,0.17731
3058.55129,0.18363
3060.47976,0.20448
3062.40823,0.21298
3064.33670,0.20454
3066.26517,0.18929
3068.19364,0.18526
3070.12211,0.19779
3072.05057,0.20706
3073.97904,0.19883
3075.90751,0.18415
3077.83598,0.18732
3079.76445,0.20598
3081.69292,0.21505
3083.62139,0.20459
3085.54985,0.18911
3087.47832,0.18853
3089.40679,0.19851
3091.33526,0.20300
3093.26373,0.19339
3095.19220,0.18243
3097.12067,0.19073
3099.04914,0.20506
3100.97760,0.20453
3102.90607,0.19142
3104.83454,0.18684
3106.76301,0.20105
3108.69148,0.21284
3110.61995,0.20456
3112.54842,0.18924
3114.47688,0.19260
3116.40535,0.21111
3118.33382,0.21771
3120.26229,0.20506
3122.19076,0.19429
3124.11923,0.20200
3126.04770,0.21270
3127.97617,0.21127
3129.90463,0.20375
3131.83310,0.20051
3133.76157,0.20373
3135.69004,0.20844
3137.61851,0.20921
3139.54698,0.20734
3141.47545,0.21052
3143.40391,0.21423
3145.33238,0.21344
3147.26085,0.21312
3149.18932,0.21487
3151.11779,0.21908
3153.04626,0.22292
3154.97473,0.21925
3156.90320,0.20942
3158.83166,0.20663
3160.76013,0.21420
3162.68860,0.22050
3164.61707,0.21959
3166.54554,0.21710
3168.47401,0.21746
3170.40248,0.21734
3172.33094,0.21601
3174.25941,0.21533
3176.18788,0.21657
3178.11635,0.21852
3180.04482,0.21673
3181.97329,0.21479
3183.90176,0.21880
3185.83022,0.22306
3187.75869,0.22188
3189.68716,0.22013
3191.61563,0.22015
3193.54410,0.22104
3195.47257,0.22081
3197.40104,0.21721
3199.32951,0.21542
3201.25797,0.21580
3203.18644,0.21416
3205.11491,0.21224
3207.04338,0.21119
3208.97185,0.20885
3210.90032,0.20599
3212.82879,0.20703
3214.75725,0.20842
3216.68572,0.20573
3218.61419,0.20534
3220.54266,0.20926
3222.47113,0.21286
3224.39960,0.21312
3226.32807,0.20969
3228.25654,0.20675
3230.18500,0.20674
3232.11347,0.20919
3234.04194,0.21248
3235.97041,0.21208
3237.89888,0.20981
3239.82735,0.21147
3241.75582,0.21533
3243.68428,0.21580
3245.61275,0.21254
3247.54122,0.21259
3249.46969,0.21730
3251.39816,0.21788
3253.32663,0.21381
3255.25510,0.21406
3257.18357,0.21731
3259.11203,0.21488
3261.04050,0.20791
3262.96897,0.20554
3264.89744,0.20954
3266.82591,0.21272
3268.75438,0.21253
3270.68285,0.21184
3272.61131,0.21158
3274.53978,0.21040
3276.46825,0.20886
3278.39672,0.21051
3280.32519,0.21246
3282.25366,0.20895
3284.18213,0.20408
3286.11060,0.20535
3288.03906,0.21133
3289.96753,0.21342
3291.89600,0.20841
3293.82447,0.20307
3295.75294,0.20066
3297.68141,0.19844
3299.60988,0.20091
3301.53834,0.21078
3303.46681,0.21802
3305.39528,0.21722
3307.32375,0.21630
3309.25222,0.22047
3311.18069,0.22272
3313.10916,0.21710
3315.03763,0.20817
3316.96609,0.20206
3318.89456,0.20064
3320.82303,0.20305
3322.75150,0.20753
3324.67997,0.21156
3326.60844,0.21372
3328.53691,0.21418
3330.46537,0.21368
3332.39384,0.21489
3334.32231,0.21584
3336.25078,0.21264
3338.17925,0.21062
3340.10772,0.21266
3342.03619,0.21371
3343.96466,0.21181
3345.89312,0.21004
3347.82159,0.21176
3349.75006,0.21415
3351.67853,0.21248
3353.60700,0.20901
3355.53547,0.20709
3357.46394,0.20683
3359.39240,0.20981
3361.32087,0.21467
3363.24934,0.21433
3365.17781,0.20883
3367.10628,0.20834
3369.03475,0.21558
3370.96322,0.22036
3372.89168,0.21853
3374.82015,0.21772
3376.74862,0.22281
3378.67709,0.22712
3380.60556,0.22066
3382.53403,0.20990
3384.46250,0.20861
3386.39097,0.21171
3388.31943,0.21008
3390.24790,0.20960
3392.17637,0.21345
3394.10484,0.21737
3396.03331,0.22197
3397.96178,0.22469
3399.89025,0.22107
3401.81871,0.21590
3403.74718,0.21164
3405.67565,0.20574
3407.60412,0.20046
3409.53259,0.19991
3411.46106,0.20623
3413.38953,0.21461
3415.31800,0.21574
3417.24646,0.21087
3419.17493,0.20854
3421.10340,0.20887
3423.03187,0.20652
3424.96034,0.20222
3426.88881,0.19957
3428.81728,0.20035
3430.74574,0.20275
3432.67421,0.20335
3434.60268,0.20431
3436.53115,0.20712
3438.45962,0.20619
3440.38809,0.19845
3442.31656,0.19288
3444.24503,0.19710
3446.17349,0.20301
3448.10196,0.20326
3450.03043,0.20221
3451.95890,0.20172
3453.88737,0.19904
3455.81584,0.19773
3457.74431,0.20133
3459.67277,0.20399
3461.60124,0.20006
3463.52971,0.19306
3465.45818,0.19145
3467.38665,0.19552
3469.31512,0.19538
3471.24359,0.18659
3473.17206,0.18016
3475.10052,0.18491
3477.02899,0.18955
3478.95746,0.18663
3480.88593,0.18788
3482.81440,0.19632
3484.74287,0.20034
3486.67134,0.19608
3488.59980,0.18975
3490.52827,0.18853
3492.45674,0.18946
3494.38521,0.18693
3496.31368,0.18352
3498.24215,0.17992
3500.17062,0.17556
3502.09909,0.17339
3504.02755,0.17469
3505.95602,0.17850
3507.88449,0.18084
3509.81296,0.17854
3511.74143,0.17577
3513.66990,0.17603
3515.59837,0.17374
3517.52683,0.16656
3519.45530,0.16223
3521.38377,0.16402
3523.31224,0.16641
3525.24071,0.16912
3527.16918,0.17523
3529.09765,0.17720
3531.02611,0.17189
3532.95458,0.17043
3534.88305,0.17595
3536.81152,0.17823
3538.73999,0.17031
3540.66846,0.16313
3542.59693,0.16794
3544.52540,0.17619
3546.45386,0.17812
3548.38233,0.17785
3550.31080,0.17673
3552.23927,0.17225
3554.16774,0.16678
3556.09621,0.16306
3558.02468,0.16003
3559.95314,0.15912
3561.88161,0.16279
3563.81008,0.17055
3565.73855,0.17973
3567.66702,0.18058
3569.59549,0.17114
3571.52396,0.16273
3573.45243,0.15737
3575.38089,0.15488
3577.30936,0.15802
3579.23783,0.16261
3581.16630,0.16081
3583.09477,0.15689
3585.02324,0.15960
3586.95171,0.16420
3588.88017,0.15788
3590.80864,0.14928
3592.73711,0.14897
3594.66558,0.15536
3596.59405,0.15914
3598.52252,0.15506
3600.45099,0.14968
3602.37946,0.14990
3604.30792,0.15676
3606.23639,0.16879
3608.16486,0.17638
3610.09333,0.17166
3612.02180,0.16563
3613.95027,0.16393
3615.87874,0.16485
3617.80720,0.16559
3619.73567,0.15636
3621.66414,0.14348
3623.59261,0.14159
3625.52108,0.14755
3627.44955,0.15303
3629.37802,0.14910
3631.30649,0.14328
3633.23495,0.14313
3635.16342,0.14197
3637.09189,0.14132
3639.02036,0.14522
3640.94883,0.14813
3642.87730,0.14549
3644.80577,0.14253
3646.73423,0.14698
3648.66270,0.15628
3650.59117,0.15410
3652.51964,0.14706
3654.44811,0.14601
3656.37658,0.14815
3658.30505,0.14627
3660.23352,0.14306
3662.16198,0.14276
3664.09045,0.14240
3666.01892,0.13972
3667.94739,0.13850
3669.87586,0.14205
3671.80433,0.14776
3673.73280,0.15608
3675.66126,0.16276
3677.58973,0.15660
3679.51820,0.14384
3681.44667,0.13262
3683.37514,0.13186
3685.30361,0.14069
3687.23208,0.14950
3689.16055,0.15205
3691.08901,0.14763
3693.01748,0.14218
3694.94595,0.14129
3696.87442,0.14337
3698.80289,0.14367
3700.73136,0.14075
3702.65983,0.13699
3704.58829,0.13623
3706.51676,0.13965
3708.44523,0.14656
3710.37370,0.14935
3712.30217,0.14367
3714.23064,0.14191
3716.15911,0.14333
3718.08757,0.14196
3720.01604,0.13824
3721.94451,0.13748
3723.87298,0.14028
3725.80145,0.13982
3727.72992,0.13458
3729.65839,0.13221
3731.58686,0.13865
3733.51532,0.15235
3735.44379,0.15887
3737.37226,0.15054
3739.30073,0.14013
3741.22920,0.13446
3743.15767,0.13845
3745.08614,0.14789
3747.01460,0.14304
3748.94307,0.13495
3750.87154,0.13911
3752.80001,0.14422
3754.72848,0.14239
3756.65695,0.14545
3758.58542,0.15472
3760.51389,0.15700
3762.44235,0.14986
3764.37082,0.14157
3766.29929,0.13551
3768.22776,0.13224
3770.15623,0.12843
3772.08470,0.12362
3774.01317,0.12215
3775.94163,0.12494
3777.87010,0.12897
3779.79857,0.13166
3781.72704,0.13637
3783.65551,0.14073
3785.58398,0.13685
3787.51245,0.12980
3789.44092,0.12869
3791.36938,0.13178
3793.29785,0.13613
3795.22632,0.14094
3797.15479,0.14432
3799.08326,0.15003
3801.01173,0.15630
3802.94020,0.14825
3804.86866,0.13829
3806.79713,0.13561
3808.72560,0.13369
3810.65407,0.13276
3812.58254,0.13357
3814.51101,0.13057
3816.43948,0.12433
3818.36795,0.12982
3820.29641,0.14469
3822.22488,0.14752
3824.15335,0.14088
3826.08182,0.13835
3828.01029,0.13315
3829.93876,0.12355
3831.86723,0.12214
3833.79569,0.13439
3835.72416,0.15049
3837.65263,0.15685
3839.58110,0.14573
3841.50957,0.13334
3843.43804,0.12977
3845.36651,0.12834
3847.29498,0.12647
3849.22344,0.12710
3851.15191,0.13317
3853.08038,0.14666
3855.00885,0.14450
3856.93732,0.12721
3858.86579,0.11509
3860.79426,0.11273
3862.72272,0.11673
3864.65119,0.11793
3866.57966,0.11505
3868.50813,0.11418
3870.43660,0.12109
3872.36507,0.13005
3874.29354,0.12852
3876.22200,0.12355
3878.15047,0.12805
3880.07894,0.13909
3882.00741,0.14148
3883.93588,0.13374
3885.86435,0.12519
3887.79282,0.12111
3889.72129,0.12137
3891.64975,0.12509
3893.57822,0.12711
3895.50669,0.12632
3897.43516,0.12966
3899.36363,0.13778
3901.29210,0.14119
3903.22057,0.13740
3905.14903,0.13011
3907.07750,0.12056
3909.00597,0.11477
3910.93444,0.11498
3912.86291,0.11800
3914.79138,0.12416
3916.71985,0.13077
3918.64832,0.12875
3920.57678,0.12134
3922.50525,0.11891
3924.43372,0.11850
3926.36219,0.11386
3928.29066,0.11099
3930.21913,0.11287
3932.14760,0.11573
3934.07606,0.11792
3936.00453,0.11823
3937.93300,0.11620
3939.86147,0.11414
3941.78994,0.11174
3943.71841,0.10749
3945.64688,0.10720
3947.57535,0.11225
3949.50381,0.11718
3951.43228,0.11865
3953.36075,0.11655
3955.28922,0.11219
3957.21769,0.10711
3959.14616,0.10622
3961.07463,0.11041
3963.00309,0.11275
3964.93156,0.11255
3966.86003,0.11243
3968.78850,0.10929
3970.71697,0.10280
3972.64544,0.10085
3974.57391,0.10610
3976.50238,0.10771
3978.43084,0.10297
3980.35931,0.10244
3982.28778,0.10790
3984.21625,0.11366
3986.14472,0.11518
3988.07319,0.11179
3990.00166,0.11021
3991.93012,0.11220
3993.85859,0.11322
3995.78706,0.11328
3997.71553,0.11212
3999.64400,0.10759
4001.57247,0.10349
4003.50094,0.10420
4005.42941,0.10540
4007.35787,0.10495
4009.28634,0.10484
4011.21481,0.10429
4013.14328,0.10487
4015.07175,0.10559
4017.00022,0.10348
4018.92869,0.10240
4020.85715,0.10329
4022.78562,0.10089
4024.71409,0.09722
4026.64256,0.09880
4028.57103,0.10436
4030.49950,0.10776
4032.42797,0.10641
4034.35644,0.10365
4036.28490,0.10471
4038.21337,0.10806
4040.14184,0.10782
4042.07031,0.10601
4043.99878,0.10496
4045.92725,0.09907
4047.85572,0.08994
4049.78418,0.08721
4051.71265,0.09158
4053.64112,0.09634
4055.56959,0.09894
4057.49806,0.09952
4059.42653,0.09862
4061.35500,0.09813
4063.28346,0.09716
4065.21193,0.09466
4067.14040,0.09216
4069.06887,0.09068
4070.99734,0.09158
4072.92581,0.09609
4074.85428,0.10042
4076.78275,0.10045
4078.71121,0.10038
4080.63968,0.10275
4082.56815,0.10281
4084.49662,0.09910
4086.42509,0.09486
4088.35356,0.09347
4090.28203,0.09362
4092.21049,0.09184
4094.13896,0.08943
4096.06743,0.08827
4097.99590,0.08651
4099.92437,0.08178
4101.85284,0.07997
4103.78131,0.08633
4105.70978,0.09112
4107.63824,0.08994
4109.56671,0.09001
4111.49518,0.09032
4113.42365,0.08902
4115.35212,0.09113
4117.28059,0.09591
4119.20906,0.09470
4121.13752,0.08575
4123.06599,0.07966
4124.99446,0.08340
4126.92293,0.09073
4128.85140,0.09390
4130.77987,0.09534
4132.70834,0.09771
4134.63681,0.09450
4136.56527,0.08566
4138.49374,0.08137
4140.42221,0.08446
4142.35068,0.08678
4144.27915,0.08439
4146.20762,0.08425
4148.13609,0.08813
4150.06455,0.08890
4151.99302,0.08647
4153.92149,0.08959
4155.84996,0.09841
4157.77843,0.09914
4159.70690,0.08912
4161.63537,0.08216
4163.56384,0.08265
4165.49230,0.08746
4167.42077,0.09340
4169.34924,0.09176
4171.27771,0.08375
4173.20618,0.07877
4175.13465,0.07626
4177.06312,0.07494
4178.99158,0.07535
4180.92005,0.07366
4182.84852,0.07288
4184.77699,0.07856
4186.70546,0.08239
4188.63393,0.07829
4190.56240,0.07552
4192.49087,0.07956
4194.41933,0.08415
4196.34780,0.08188
4198.27627,0.07442
4200.20474,0.07263
4202.13321,0.07832
4204.06168,0.08070
4205.99015,0.07749
4207.91861,0.07483
4209.84708,0.07454
4211.77555,0.07472
4213.70402,0.07303
4215.63249,0.07122
4217.56096,0.07137
4219.48943,0.07298
4221.41789,0.07699
4223.34636,0.07989
4225.27483,0.07518
4227.20330,0.06687
4229.13177,0.06557
4231.06024,0.07075
4232.98871,0.07075
4234.91718,0.06304
4236.84564,0.05885
4238.77411,0.06200
4240.70258,0.06754
4242.63105,0.07428
4244.55952,0.08104
4246.48799,0.08465
4248.41646,0.08275
4250.34492,0.07791
4252.27339,0.07256
4254.20186,0.06466
4256.13033,0.05743
4258.05880,0.05775
4259.98727,0.06384
4261.91574,0.06569
4263.84421,0.06332
4265.77267,0.06651
4267.70114,0.07172
4269.62961,0.06739
4271.55808,0.05517
4273.48655,0.04750
4275.41502,0.05153
4277.34349,0.05915
4279.27195,0.06030
4281.20042,0.05794
4283.12889,0.05678
4285.05736,0.05470
4286.98583,0.05096
4288.91430,0.05111
4290.84277,0.05495
4292.77124,0.05633
4294.69970,0.06210
4296.62817,0.07599
4298.55664,0.08229
4300.48511,0.07474
4302.41358,0.06631
4304.34205,0.06246
4306.27052,0.05690
4308.19898,0.05140
4310.12745,0.05300
4312.05592,0.05959
4313.98439,0.06264
4315.91286,0.05956
4317.84133,0.05855
4319.76980,0.06344
4321.69827,0.06858
4323.62673,0.07052
4325.55520,0.06588
4327.48367,0.05792
4329.41214,0.05437
4331.34061,0.05021
4333.26908,0.04275
4335.19755,0.03871
4337.12601,0.03864
4339.05448,0.03976
4340.98295,0.04509
4342.91142,0.05572
4344.83989,0.06158
4346.76836,0.05869
4348.69683,0.05549
4350.62530,0.05306
4352.55376,0.04751
4354.48223,0.04021
4356.41070,0.03673
4358.33917,0.03937
4360.26764,0.04057
4362.19611,0.03555
4364.12458,0.03236
4366.05304,0.03630
4367.98151,0.03847
4369.90998,0.03498
4371.83845,0.03487
4373.76692,0.03881
4375.69539,0.03742
4377.62386,0.03292
4379.55232,0.03810
4381.48079,0.04848
4383.40926,0.04813
4385.33773,0.04015
4387.26620,0.03853
4389.19467,0.04132
4391.12314,0.03709
4393.05161,0.03306
4394.98007,0.03863
4396.90854,0.04206
4398.83701,0.03813
4400.76548,0.03473
4402.69395,0.03601
4404.62242,0.04227
4406.55089,0.04820
4408.47935,0.05064
4410.40782,0.05272
4412.33629,0.05172
4414.26476,0.04479
4416.19323,0.03758
4418.12170,0.03472
4420.05017,0.03222
4421.97864,0.02773
4423.90710,0.02794
4425.83557,0.03313
4427.76404,0.03512
4429.69251,0.03365
4431.62098,0.03469
4433.54945,0.03485
4435.47792,0.02919
4437.40638,0.02919
4439.33485,0.03892
4441.26332,0.04176
4443.19179,0.03280
4445.12026,0.02440
4447.04873,0.02248
4448.97720,0.02392
4450.90567,0.02526
4452.83413,0.02593
4454.76260,0.03255
4456.69107,0.04101
4458.61954,0.03876
4460.54801,0.03431
4462.47648,0.03493
4464.40495,0.03170
4466.33341,0.02455
4468.26188,0.02135
4470.19035,0.02546
4472.11882,0.02796
4474.04729,0.02339
4475.97576,0.02268
4477.90423,0.02911
4479.83270,0.03371
4481.76116,0.03016
4483.68963,0.01971
4485.61810,0.01274
4487.54657,0.01511
4489.47504,0.02123
4491.40351,0.02319
4493.33198,0.01668
4495.26044,0.00883
4497.18891,0.01116
4499.11738,0.02303
4501.04585,0.03248
4502.97432,0.03296
4504.90279,0.02556
4506.83126,0.01351
4508.75973,0.00877
4510.68819,0.01422
4512.61666,0.01883
4514.54513,0.02307
4516.47360,0.02747
4518.40207,0.02705
4520.33054,0.02665
4522.25901,0.02984
4524.18747,0.02777
4526.11594,0.01842
4528.04441,0.01549
4529.97288,0.01816
4531.90135,0.01174
4533.82982,0.00345
4535.75829,0.00643
4537.68676,0.00977
4539.61522,0.00392
4541.54369,-0.00107
4543.47216,0.00266
4545.40063,0.01020
4547.32910,0.01313
4549.25757,0.01162
4551.18604,0.01121
4553.11450,0.00930
4555.04297,0.00215
4556.97144,-0.00018
4558.89991,0.00838
4560.82838,0.01700
4562.75685,0.01415
4564.68532,-0.00231
4566.61378,-0.01069
4568.54225,0.00665
4570.47072,0.02579
4572.39919,0.02598
4574.32766,0.01918
4576.25613,0.01555
4578.18460,0.01612
4580.11307,0.02165
4582.04153,0.02537
4583.97000,0.02341
4585.89847,0.01711
4587.82694,0.00968
4589.75541,0.00874
4591.68388,0.01154
4593.61235,0.01475
4595.54081,0.02188
4597.46928,0.02775
4599.39775,0.02902
4601.32622,0.02674
4603.25469,0.01913
4605.18316,0.01454
4607.11163,0.02023
4609.04010,0.02379
4610.96856,0.02041
4612.89703,0.01934
4614.82550,0.01848
4616.75397,0.01457
4618.68244,0.01548
4620.61091,0.02020
4622.53938,0.01887
4624.46784,0.01556
4626.39631,0.01627
4628.32478,0.01807
4630.25325,0.02179
4632.18172,0.02599
4634.11019,0.02852
4636.03866,0.03109
4637.96713,0.02808
4639.89559,0.01664
4641.82406,0.00974
4643.75253,0.01030
4645.68100,0.00721
4647.60947,0.00595
4649.53794,0.00932
4651.46641,0.00452
4653.39487,-0.00709
4655.32334,-0.01387
4657.25181,-0.01602
4659.18028,-0.01984
4661.10875,-0.02033
4663.03722,-0.01102
4664.96569,-0.00077
4666.89416,0.00175
4668.82262,0.00440
4670.75109,0.01619
4672.67956,0.03085
4674.60803,0.03385
4676.53650,0.02526
4678.46497,0.02182
4680.39344,0.02054
4682.32190,0.00984
4684.25037,0.00260
4686.17884,0.00714
4688.10731,0.01629
4690.03578,0.02165
4691.96425,0.01581
4693.89272,0.00278
4695.82119,-0.00535
4697.74965,0.00085
4699.67812,0.01216
4701.60659,0.00951
4703.53506,0.00269
4705.46353,0.00967
4707.39200,0.02108
4709.32047,0.02201
4711.24893,0.01483
4713.17740,0.00900
4715.10587,0.00949
4717.03434,0.01376
4718.96281,0.01223
4720.89128,0.00129
4722.81975,-0.01078
4724.74821,-0.01041
4726.67668,0.00053
4728.60515,0.00447
4730.53362,0.00028
4732.46209,0.00051
4734.39056,0.00840
4736.31903,0.01616
4738.24750,0.01635
4740.17596,0.01077
4742.10443,0.00294
4744.03290,-0.00378
4745.96137,-0.00382
4747.88984,0.00415
4749.81831,0.01332
4751.74678,0.01009
4753.67524,-0.00325
4755.60371,-0.00906
4757.53218,-0.00544
4759.46065,-0.00092
4761.38912,0.00302
4763.31759,0.00919
4765.24606,0.01443
4767.17453,0.01319
4769.10299,0.01147
4771.03146,0.01476
4772.95993,0.01395
4774.88840,0.00443
4776.81687,-0.00264
4778.74534,0.00282
4780.67381,0.01585
4782.60227,0.01855
4784.53074,0.01084
4786.45921,0.00378
4788.38768,-0.00458
4790.31615,-0.00810
4792.24462,-0.00429
4794.17309,0.00199
4796.10156,0.01177
4798.03002,0.02147
4799.95849,0.02449
4801.88696,0.02202
4803.81543,0.02281
4805.74390,0.02524
4807.67237,0.02122
4809.60084,0.01069
4811.52930,0.00420
4813.45777,0.00667
4815.38624,0.00342
4817.31471,-0.00728
4819.24318,-0.00917
4821.17165,0.00106
4823.10012,0.00901
4825.02859,0.00291
4826.95705,-0.00403
4828.88552,0.00116
4830.81399,0.00550
4832.74246,0.00086
4834.67093,0.00194
4836.59940,0.01915
4838.52787,0.03482
4840.45633,0.03320
4842.38480,0.02995
4844.31327,0.03520
4846.24174,0.03844
4848.17021,0.02977
4850.09868,0.00859
4852.02715,-0.00760
4853.95562,-0.00252
4855.88408,0.01329
4857.81255,0.02127
4859.74102,0.02176
4861.66949,0.02240
4863.59796,0.01968
4865.52643,0.01293
4867.45490,0.01033
4869.38336,0.00978
4871.31183,0.00174
4873.24030,-0.00473
4875.16877,0.00115
4877.09724,0.00468
4879.02571,-0.00268
4880.95418,-0.00384
4882.88265,0.00708
4884.81111,0.01375
4886.73958,0.01037
4888.66805,0.00810
4890.59652,0.01231
4892.52499,0.01464
4894.45346,0.01359
4896.38193,0.01460
4898.31039,0.01958
4900.23886,0.02437
4902.16733,0.01899
4904.09580,0.00909
4906.02427,0.00672
4907.95274,0.01267
4909.88121,0.02403
4911.80967,0.02700
4913.73814,0.01531
4915.66661,0.00485
4917.59508,0.00432
4919.52355,0.00241
4921.45202,-0.00274
4923.38049,0.00717
4925.30896,0.02760
4927.23742,0.03081
4929.16589,0.01168
4931.09436,-0.00733
4933.02283,-0.00899
4934.95130,-0.00724
4936.87977,-0.01174
4938.80824,-0.01104
4940.73670,-0.00298
4942.66517,0.00790
4944.59364,0.01000
4946.52211,-0.00248
4948.45058,-0.01015
4950.37905,-0.00756
4952.30752,-0.00814
4954.23599,-0.00946
4956.16445,-0.00381
4958.09292,0.00323
4960.02139,0.00690
4961.94986,0.01280
4963.87833,0.02521
4965.80680,0.03929
4967.73527,0.04194
4969.66373,0.02930
4971.59220,0.01519
4973.52067,0.01024
4975.44914,0.01324
4977.37761,0.01928
4979.30608,0.02192
4981.23455,0.01586
4983.16302,0.00943
4985.09148,0.01216
4987.01995,0.02078
4988.94842,0.03061
4990.87689,0.03290
4992.80536,0.02511
4994.73383,0.01965
4996.66230,0.02374
4998.59076,0.02463
5000.51923,0.01313
5002.44770,0.00632
5004.37617,0.01337
5006.30464,0.02225
5008.23311,0.02523
5010.16158,0.02134
5012.09005,0.01450
5014.01851,0.01107
5015.94698,0.01223
5017.87545,0.01016
5019.80392,0.00483
5021.73239,0.01197
5023.66086,0.03559
5025.58933,0.05214
5027.51779,0.03955
5029.44626,0.01733
5031.37473,0.01404
5033.30320,0.01870
5035.23167,0.01871
5037.16014,0.02466
5039.08861,0.03292
5041.01708,0.02857
5042.94554,0.01741
5044.87401,0.01538
5046.80248,0.01796
5048.73095,0.01167
5050.65942,0.00431
5052.58789,0.01352
5054.51636,0.03216
5056.44482,0.03335
5058.37329,0.01615
5060.30176,0.00133
5062.23023,-0.00415
5064.15870,-0.00061
5066.08717,0.01585
5068.01564,0.03747
5069.94410,0.04391
5071.87257,0.02941
5073.80104,0.01059
5075.72951,0.00655
5077.65798,0.01467
5079.58645,0.01920
5081.51492,0.01784
5083.44339,0.01707
5085.37185,0.01750
5087.30032,0.01659
5089.22879,0.02387
5091.15726,0.04438
5093.08573,0.05869
5095.01420,0.05200
5096.94267,0.03283
5098.87113,0.01735
5100.79960,0.01103
5102.72807,0.01400
5104.65654,0.01771
5106.58501,0.00679
5108.51348,-0.01199
5110.44195,-0.02026
5112.37042,-0.00922
5114.29888,0.01808
5116.22735,0.04063
5118.15582,0.04078
5120.08429,0.02328
5122.01276,0.00592
5123.94123,0.00531
5125.86970,0.02278
5127.79816,0.03997
5129.72663,0.03644
5131.65510,0.02639
5133.58357,0.03003
5135.51204,0.02599
5137.44051,0.00631
5139.36898,-0.00545
5141.29745,-0.00428
5143.22591,0.00472
5145.15438,0.02527
5147.08285,0.05399
5149.01132,0.06811
5150.93979,0.05907
5152.86826,0.04839
5154.79673,0.04819
5156.72519,0.04570
5158.65366,0.03400
5160.58213,0.03259
5162.51060,0.04957
5164.43907,0.06587
5166.36754,0.06357
5168.29601,0.03562
5170.22448,0.00013
5172.15294,-0.00306
5174.08141,0.02186
5176.00988,0.03237
5177.93835,0.02678
5179.86682,0.03003
5181.79529,0.03802
5183.72376,0.04458
5185.65222,0.04931
5187.58069,0.04165
5189.50916,0.02986
5191.43763,0.02957
5193.36610,0.04065
5195.29457,0.05288
5197.22304,0.04978
5199.15151,0.03273
5201.07997,0.02191
5203.00844,0.02462
5204.93691,0.02825
5206.86538,0.01849
5208.79385,0.01416
5210.72232,0.01721
5212.65079,0.00833
5214.57925,0.01002
5216.50772,0.04545
5218.43619,0.08768
5220.36466,0.09204
5222.29313,0.07028
5224.22160,0.06340
5226.15007,0.06689
5228.07854,0.05778
5230.00700,0.03655
5231.93547,0.01159
5233.86394,-0.00280
5235.79241,0.00500
5237.72088,0.03201
5239.64935,0.05999
5241.57782,0.06631
5243.50628,0.04709
5245.43475,0.03577
5247.36322,0.05145
5249.29169,0.05353
5251.22016,0.03905
5253.14863,0.04998
5255.07710,0.07170
5257.00556,0.07655
5258.93403,0.07288
5260.86250,0.06488
5262.79097,0.04776
5264.71944,0.02582
5266.64791,0.01986
5268.57638,0.03557
5270.50485,0.05354
5272.43331,0.06669
5274.36178,0.07373
5276.29025,0.05434
5278.21872,0.02389
5280.14719,0.02367
5282.07566,0.03947
5284.00413,0.04569
5285.93259,0.04997
5287.86106,0.04896
5289.78953,0.03600
5291.71800,0.03650
5293.64647,0.05313
5295.57494,0.05085
5297.50341,0.03584
5299.43188,0.03842
5301.36034,0.05356
5303.28881,0.05892
5305.21728,0.05269
5307.14575,0.04488
5309.07422,0.03850
5311.00269,0.03740
5312.93116,0.03804
5314.85962,0.03551
5316.78809,0.04500
5318.71656,0.05818
5320.64503,0.05152
5322.57350,0.04148
5324.50197,0.03735
5326.43044,0.02669
5328.35891,0.02329
5330.28737,0.04129
5332.21584,0.05774
5334.14431,0.04623
5336.07278,0.02528
5338.00125,0.03628
5339.92972,0.07455
5341.85819,0.10030
5343.78665,0.11449
5345.71512,0.11063
5347.64359,0.08452
5349.57206,0.07255
5351.50053,0.06968
5353.42900,0.05953
5355.35747,0.05560
5357.28594,0.05131
5359.21440,0.05250
5361.14287,0.06715
5363.07134,0.07494
5364.99981,0.06315
5366.92828,0.04446
5368.85675,0.03427
5370.78522,0.03807
5372.71368,0.05084
5374.64215,0.05776
5376.57062,0.05749
5378.49909,0.05342
5380.42756,0.04535
5382.35603,0.04949
5384.28450,0.07000
5386.21297,0.08746
5388.14143,0.08901
5390.06990,0.07844
5391.99837,0.06136
5393.92684,0.04555
5395.85531,0.04214
5397.78378,0.05159
5399.71225,0.07677
5401.64071,0.11249
5403.56918,0.12274
5405.49765,0.09229
5407.42612,0.05324
5409.35459,0.04072
5411.28306,0.05552
5413.21153,0.06161
5415.13999,0.05119
5417.06846,0.04638
5418.99693,0.05103
5420.92540,0.06378
5422.85387,0.07796
5424.78234,0.10106
5426.71081,0.12712
5428.63928,0.10766
5430.56774,0.05813
5432.49621,0.04120
5434.42468,0.04122
5436.35315,0.03072
5438.28162,0.03049
5440.21009,0.04487
5442.13856,0.05669
5444.06702,0.07202
5445.99549,0.09744
5447.92396,0.10941
5449.85243,0.10002
5451.78090,0.08100
5453.70937,0.05807
5455.63784,0.05525
5457.56631,0.07621
5459.49477,0.08886
5461.42324,0.09341
5463.35171,0.10205
5465.28018,0.11093
5467.20865,0.10016
5469.13712,0.06717
5471.06559,0.03955
5472.99405,0.02828
5474.92252,0.03787
5476.85099,0.06067
5478.77946,0.07268
5480.70793,0.07490
5482.63640,0.07231
5484.56487,0.06574
5486.49334,0.06348
5488.42180,0.07280
5490.35027,0.08441
5492.27874,0.07311
5494.20721,0.05267
5496.13568,0.06179
5498.06415,0.08875
5499.99262,0.10074
5501.92108,0.08883
5503.84955,0.08069
5505.77802,0.09196
5507.70649,0.09433
5509.63496,0.06939
5511.56343,0.03805
5513.49190,0.02717
5515.42037,0.04800
5517.34883,0.08419
5519.27730,0.09926
5521.20577,0.09686
5523.13424,0.10385
5525.06271,0.10615
5526.99118,0.09566
5528.91965,0.09155
5530.84811,0.09517
5532.77658,0.08606
5534.70505,0.05962
5536.63352,0.03343
5538.56199,0.02673
5540.49046,0.04429
5542.41893,0.06132
5544.34740,0.05982
5546.27586,0.06067
5548.20433,0.07604
5550.13280,0.07675
5552.06127,0.05372
5553.98974,0.05694
5555.91821,0.09285
5557.84668,0.09431
5559.77514,0.06622
5561.70361,0.06515
5563.63208,0.07945
5565.56055,0.08250
5567.48902,0.08000
5569.41749,0.07905
5571.34596,0.07728
5573.27443,0.07288
5575.20289,0.06949
5577.13136,0.06543
5579.05983,0.06144
5580.98830,0.05807
5582.91677,0.06431
5584.84524,0.08594
5586.77371,0.09662
5588.70217,0.08413
5590.63064,0.07175
5592.55911,0.07944
5594.48758,0.10387
5596.41605,0.12695
5598.34452,0.12596
5600.27299,0.09579
5602.20145,0.07276
5604.12992,0.07788
5606.05839,0.08118
5607.98686,0.06647
5609.91533,0.05269
5611.84380,0.05801
5613.77227,0.07569
5615.70074,0.06762
5617.62920,0.04005
5619.55767,0.05299
5621.48614,0.09235
5623.41461,0.09726
5625.34308,0.06807
5627.27155,0.05129
5629.20002,0.06841
5631.12848,0.07468
5633.05695,0.04984
5634.98542,0.03503
5636.91389,0.04568
5638.84236,0.06410
5640.77083,0.08515
5642.69930,0.09321
5644.62777,0.08029
5646.55623,0.06847
5648.48470,0.05972
5650.41317,0.03632
5652.34164,0.00448
5654.27011,-0.00325
5656.19858,0.03519
5658.12705,0.09297
5660.05551,0.13109
5661.98398,0.13671
5663.91245,0.11620
5665.84092,0.09258
5667.76939,0.08918
5669.69786,0.09719
5671.62633,0.08550
5673.55480,0.06670
5675.48326,0.08044
5677.41173,0.10341
5679.34020,0.09032
5681.26867,0.06140
5683.19714,0.05079
5685.12561,0.05089
5687.05408,0.05485
5688.98254,0.07363
5690.91101,0.09687
5692.83948,0.10067
5694.76795,0.07532
5696.69642,0.04674
5698.62489,0.04855
5700.55336,0.05975
5702.48183,0.05831
5704.41029,0.05973
5706.33876,0.06412
5708.26723,0.06524
5710.19570,0.07202
5712.12417,0.08095
5714.05264,0.07122
5715.98111,0.04786
5717.90957,0.05299
5719.83804,0.09073
5721.76651,0.12002
5723.69498,0.11891
5725.62345,0.08936
5727.55192,0.06452
5729.48039,0.05865
5731.40886,0.04497
5733.33732,0.03281
5735.26579,0.04621
5737.19426,0.08029
5739.12273,0.10648
5741.05120,0.10620
5742.97967,0.09839
5744.90814,0.10678
5746.83660,0.11878
5748.76507,0.11451
5750.69354,0.10925
5752.62201,0.09716
5754.55048,0.06505
5756.47895,0.06085
5758.40742,0.08643
5760.33588,0.09550
5762.26435,0.10366
5764.19282,0.12988
5766.12129,0.13773
5768.04976,0.11160
5769.97823,0.07751
5771.90670,0.06926
5773.83517,0.08147
5775.76363,0.07231
5777.69210,0.05282
5779.62057,0.08037
5781.54904,0.12963
5783.47751,0.12666
5785.40598,0.10076
5787.33445,0.10595
5789.26291,0.11863
5791.19138,0.12339
5793.11985,0.12568
5795.04832,0.11136
5796.97679,0.07948
5798.90526,0.06421
5800.83373,0.08584
5802.76220,0.12781
5804.69066,0.14164
5806.61913,0.09769
5808.54760,0.06409
5810.47607,0.08089
5812.40454,0.08681
5814.33301,0.06752
5816.26148,0.07091
5818.18994,0.09910
5820.11841,0.11873
5822.04688,0.11764
5823.97535,0.11809
5825.90382,0.13022
5827.83229,0.12662
5829.76076,0.09149
5831.68923,0.04815
5833.61769,0.03092
5835.54616,0.04536
5837.47463,0.06304
5839.40310,0.06622
5841.33157,0.06584
5843.26004,0.08509
5845.18851,0.10607
5847.11697,0.10554
5849.04544,0.09158
5850.97391,0.07541
5852.90238,0.08402
5854.83085,0.10726
5856.75932,0.11954
5858.68779,0.13301
5860.61626,0.14814
5862.54472,0.14571
5864.47319,0.10800
5866.40166,0.06298
5868.33013,0.05262
5870.25860,0.07052
5872.18707,0.09120
5874.11554,0.09207
5876.04400,0.08587
5877.97247,0.09462
5879.90094,0.08544
5881.82941,0.05691
5883.75788,0.06651
5885.68635,0.09911
5887.61482,0.10321
5889.54329,0.09307
5891.47175,0.09720
5893.40022,0.11341
5895.32869,0.11565
5897.25716,0.09164
5899.18563,0.07807
5901.11410,0.09456
5903.04257,0.09900
5904.97103,0.09473
5906.89950,0.12022
5908.82797,0.12642
5910.75644,0.09777
5912.68491,0.09009
5914.61338,0.09625
5916.54185,0.10327
5918.47032,0.11633
5920.39878,0.12122
5922.32725,0.12111
5924.25572,0.11874
5926.18419,0.09434
5928.11266,0.05888
5930.04113,0.05804
5931.96960,0.08574
5933.89806,0.09810
5935.82653,0.09492
5937.75500,0.08373
5939.68347,0.06217
5941.61194,0.07101
5943.54041,0.11880
5945.46888,0.13641
5947.39734,0.10805
5949.32581,0.07456
5951.25428,0.04718
5953.18275,0.03396
5955.11122,0.03801
5957.03969,0.04377
5958.96816,0.05927
5960.89663,0.08679
5962.82509,0.09721
5964.75356,0.08768
5966.68203,0.09992
5968.61050,0.14101
5970.53897,0.16167
5972.46744,0.15224
5974.39591,0.11618
5976.32437,0.04474
5978.25284,0.00188
5980.18131,0.05118
5982.10978,0.13529
5984.03825,0.15564
5985.96672,0.11174
5987.89519,0.04690
5989.82366,-0.03595
5991.75212,-0.07671
5993.68059,-0.01039
5995.60906,0.09072
5997.53753,0.13122
5999.46600,0.11130
6001.39447,0.06493
6003.32294,0.03717
6005.25140,0.04268
6007.17987,0.05656
6009.10834,0.06066
6011.03681,0.04083
6012.96528,0.01643
6014.89375,0.02118
6016.82222,0.03957
6018.75069,0.06587
6020.67915,0.12492
6022.60762,0.17461
6024.53609,0.17009
6026.46456,0.14618
6028.39303,0.13905
6030.32150,0.13416
6032.24997,0.11922
6034.17843,0.10154
6036.10690,0.07672
6038.03537,0.06444
6039.96384,0.07763
6041.89231,0.07568
6043.82078,0.05437
6045.74925,0.05736
6047.67772,0.09722
6049.60618,0.14617
6051.53465,0.15729
6053.46312,0.11701
6055.39159,0.07691
6057.32006,0.07504
6059.24853,0.07772
6061.17700,0.09384
6063.10546,0.12746
6065.03393,0.10973
6066.96240,0.04825
6068.89087,0.02368
6070.81934,0.05022
6072.74781,0.06576
6074.67628,0.05869
6076.60475,0.06279
6078.53321,0.06745
6080.46168,0.04508
6082.39015,0.03749
6084.31862,0.08603
6086.24709,0.10833
6088.17556,0.08083
6090.10403,0.07895
6092.03249,0.07831
6093.96096,0.06316
6095.88943,0.06308
6097.81790,0.07953
6099.74637,0.12748
6101.67484,0.18040
6103.60331,0.17186
6105.53177,0.13483
6107.46024,0.13109
6109.38871,0.14831
6111.31718,0.16595
6113.24565,0.15916
6115.17412,0.12667
6117.10259,0.11400
6119.03106,0.11497
6120.95952,0.09438
6122.88799,0.09475
6124.81646,0.14191
6126.74493,0.16145
6128.67340,0.10903
6130.60187,0.07431
6132.53034,0.10297
6134.45880,0.11454
6136.38727,0.07365
6138.31574,0.03625
6140.24421,0.05345
6142.17268,0.11120
6144.10115,0.14612
6146.02962,0.13319
6147.95809,0.10078
6149.88655,0.08233
6151.81502,0.07499
6153.74349,0.05901
6155.67196,0.06992
6157.60043,0.10046
6159.52890,0.08150
6161.45737,0.02304
6163.38583,-0.00344
6165.31430,0.01854
6167.24277,0.04249
6169.17124,0.06159
6171.09971,0.08691
6173.02818,0.06639
6174.95665,0.02538
6176.88512,0.03122
6178.81358,0.03982
6180.74205,0.04527
6182.67052,0.08084
6184.59899,0.09037
6186.52746,0.04020
6188.45593,0.01402
6190.38440,0.06876
6192.31286,0.10405
6194.24133,0.08624
6196.16980,0.11435
6198.09827,0.17058
6200.02674,0.15597
6201.95521,0.10930
6203.88368,0.08787
6205.81215,0.08376
6207.74061,0.09315
6209.66908,0.09334
6211.59755,0.06491
6213.52602,0.03121
6215.45449,0.01747
6217.38296,0.04246
6219.31143,0.09562
6221.23989,0.14613
6223.16836,0.16038
6225.09683,0.13748
6227.02530,0.13156
6228.95377,0.15776
6230.88224,0.19049
6232.81071,0.21546
6234.73918,0.19854
6236.66764,0.12932
6238.59611,0.05163
6240.52458,0.00501
6242.45305,-0.00498
6244.38152,0.01064
6246.30999,0.02902
6248.23846,0.04688
6250.16692,0.07988
6252.09539,0.09939
6254.02386,0.12447
6255.95233,0.18937
6257.88080,0.21367
6259.80927,0.18120
6261.73774,0.15910
6263.66621,0.14258
6265.59467,0.11663
6267.52314,0.09216
6269.45161,0.09402
6271.38008,0.13068
6273.30855,0.15112
6275.23702,0.13511
6277.16549,0.11420
6279.09395,0.10490
6281.02242,0.13574
6282.95089,0.16429
6284.87936,0.13216
6286.80783,0.12286
6288.73630,0.17233
6290.66477,0.15723
6292.59323,0.06473
6294.52170,0.02282
6296.45017,0.03049
6298.37864,0.02660
6300.30711,0.00404
6302.23558,-0.01287
6304.16405,0.01901
6306.09252,0.07477
6308.02098,0.08031
6309.94945,0.04157
6311.87792,0.05299
6313.80639,0.11904
6315.73486,0.14205
6317.66333,0.11903
6319.59180,0.12547
6321.52026,0.13107
6323.44873,0.05669
6325.37720,-0.01963
6327.30567,0.00769
6329.23414,0.08527
6331.16261,0.09371
6333.09108,0.02423
6335.01955,-0.02855
6336.94801,0.00312
6338.87648,0.05253
6340.80495,0.06786
6342.73342,0.11267
6344.66189,0.16672
6346.59036,0.18196
6348.51883,0.18420
6350.44729,0.14465
6352.37576,0.07436
6354.30423,0.04892
6356.23270,0.03928
6358.16117,-0.00242
6360.08964,-0.04552
6362.01811,-0.02832
6363.94658,0.05598
6365.87504,0.09552
6367.80351,0.02853
6369.73198,-0.00956
6371.66045,0.02222
6373.58892,0.00715
6375.51739,-0.05010
6377.44586,-0.02046
6379.37432,0.06063
6381.30279,0.06125
6383.23126,0.00694
6385.15973,0.04655
6387.08820,0.15191
6389.01667,0.19238
6390.94514,0.17318
6392.87361,0.16071
6394.80207,0.14899
6396.73054,0.09003
6398.65901,0.02687
6400.58748,0.04295
6402.51595,0.07078
6404.44442,0.03393
6406.37289,-0.00474
6408.30135,0.03061
6410.22982,0.10408
6412.15829,0.10454
6414.08676,0.05542
6416.01523,0.03445
6417.94370,0.04071
6419.87217,0.05552
6421.80064,0.07764
6423.72910,0.09098
6425.65757,0.05503
6427.58604,0.01927
6429.51451,0.05246
6431.44298,0.09176
6433.37145,0.05521
6435.29992,-0.01272
6437.22838,-0.01228
6439.15685,0.06123
6441.08532,0.10832
6443.01379,0.09833
6444.94226,0.08487
6446.87073,0.11061
6448.79920,0.16516
6450.72766,0.20541
6452.65613,0.18202
6454.58460,0.13496
6456.51307,0.09932
6458.44154,0.01355
6460.37001,-0.04454
6462.29848,0.07100
6464.22695,0.23319
6466.15541,0.23818
6468.08388,0.09957
6470.01235,-0.00544
6471.94082,0.04041
6473.86929,0.13149
6475.79776,0.18232
6477.72623,0.19225
6479.65469,0.13870
6481.58316,0.08881
6483.51163,0.10482
6485.44010,0.13018
6487.36857,0.14528
6489.29704,0.17211
6491.22551,0.20022
6493.15398,0.15498
6495.08244,0.01864
6497.01091,-0.07521
6498.93938,-0.06294
6500.86785,-0.01817
6502.79632,-0.01113
6504.72479,-0.02147
6506.65326,-0.01315
6508.58172,-0.02407
6510.51019,-0.03073
6512.43866,0.05596
6514.36713,0.13825
6516.29560,0.11158
6518.22407,0.08814
6520.15254,0.15720
6522.08101,0.22491
6524.00947,0.17801
6525.93794,0.04839
6527.86641,-0.02315
6529.79488,0.00497
6531.72335,0.06935
6533.65182,0.13455
6535.58029,0.20691
6537.50875,0.23401
6539.43722,0.13155
6541.36569,-0.02682
6543.29416,-0.10903
6545.22263,-0.12495
6547.15110,-0.10148
6549.07957,-0.05966
6551.00804,-0.02341
6552.93650,0.06966
6554.86497,0.14225
6556.79344,0.06910
6558.72191,0.01746
6560.65038,0.10794
6562.57885,0.16554
6564.50732,0.13005
6566.43578,0.11833
6568.36425,0.09480
6570.29272,0.04999
6572.22119,0.09915
6574.14966,0.16155
6576.07813,0.08259
6578.00660,-0.05932
6579.93507,-0.06431
6581.86353,0.04735
6583.79200,0.11461
6585.72047,0.13263
6587.64894,0.12764
6589.57741,0.10496
6591.50588,0.13510
6593.43435,0.17851
6595.36281,0.13558
6597.29128,0.07753
6599.21975,0.06207
6601.14822,0.08514
6603.07669,0.12828
6605.00516,0.11444
6606.93363,0.06713
6608.86210,0.05709
6610.79056,0.05664
6612.71903,0.05509
6614.64750,0.06917
6616.57597,0.06547
6618.50444,0.01660
6620.43291,-0.02656
6622.36138,-0.02834
6624.28984,-0.00354
6626.21831,0.02262
6628.14678,0.01531
6630.07525,-0.01877
6632.00372,-0.02489
6633.93219,0.03038
6635.86066,0.12067
6637.78912,0.14339
6639.71759,0.10566
6641.64606,0.07369
6643.57453,0.02357
6645.50300,-0.02566
6647.43147,0.00230
6649.35994,0.06487
6651.28841,0.09646
6653.21687,0.09475
6655.14534,0.09160
6657.07381,0.08489
6659.00228,0.03523
6660.93075,-0.01081
6662.85922,-0.02961
6664.78769,-0.02282
6666.71615,0.00806
6668.64462,-0.00121
6670.57309,-0.05205
6672.50156,-0.06694
6674.43003,-0.03580
6676.35850,0.00183
6678.28697,0.02283
6680.21544,0.01615
6682.14390,0.00510
6684.07237,0.02632
6686.00084,0.05179
6687.92931,0.01061
6689.85778,-0.08318
6691.78625,-0.11729
6693.71472,-0.06023
6695.64318,0.02808
6697.57165,0.09148
6699.50012,0.13951
6701.42859,0.17572
6703.35706,0.18701
6705.28553,0.18063
6707.21400,0.15565
6709.14247,0.15499
6711.07093,0.18150
6712.99940,0.15649
6714.92787,0.08786
6716.85634,0.02561
6718.78481,-0.04663
6720.71328,-0.03152
6722.64175,0.11245
6724.57021,0.14948
6726.49868,0.04552
6728.42715,-0.02299
6730.35562,-0.00818
6732.28409,0.03193
6734.21256,0.08806
6736.14103,0.18785
6738.06950,0.24988
6739.99796,0.21839
6741.92643,0.15825
6743.85490,0.11188
6745.78337,0.08495
6747.71184,0.06294
6749.64031,0.01552
6751.56878,0.00184
6753.49724,0.06506
6755.42571,0.10395
6757.35418,0.08831
6759.28265,0.14414
6761.21112,0.22563
6763.13959,0.19322
6765.06806,0.14768
6766.99653,0.13222
6768.92499,0.08540
6770.85346,-0.00526
6772.78193,-0.12194
6774.71040,-0.20293
6776.63887,-0.18563
6778.56734,-0.10271
6780.49581,-0.01730
6782.42427,0.02841
6784.35274,0.01675
6786.28121,-0.02139
6788.20968,-0.02752
6790.13815,0.02424
6792.06662,0.04414
6793.99509,-0.01442
6795.92355,0.00024
6797.85202,0.09981
6799.78049,0.14759
6801.70896,0.13918
6803.63743,0.12141
6805.56590,0.03863
6807.49437,-0.12899
6809.42284,-0.26843
6811.35130,-0.23802
6813.27977,-0.07870
6815.20824,0.06244
6817.13671,0.16802
6819.06518,0.21906
6820.99365,0.20232
6822.92212,0.15493
6824.85058,0.15051
6826.77905,0.18452
6828.70752,0.17124
6830.63599,0.07810
6832.56446,-0.00916
6834.49293,0.00329
6836.42140,0.08744
6838.34987,0.09247
6840.27833,0.03766
6842.20680,0.00847
6844.13527,-0.01205
6846.06374,-0.00382
6847.99221,0.07175
6849.92068,0.10549
6851.84915,-0.01442
6853.77761,-0.16224
6855.70608,-0.14049
6857.63455,-0.00215
6859.56302,0.07522
6861.49149,0.12003
6863.41996,0.14837
6865.34843,0.11319
6867.27690,0.04184
6869.20536,0.03376
6871.13383,0.11564
6873.06230,0.22695
6874.99077,0.28731
6876.91924,0.24349
6878.84771,0.09461
6880.77618,0.00027
6882.70464,0.05160
6884.63311,0.06374
6886.56158,0.02775
6888.49005,0.06042
6890.41852,0.08115
6892.34699,0.01913
6894.27546,-0.05292
6896.20393,-0.07872
6898.13239,-0.05959
6900.06086,-0.02494
6901.98933,0.00408
6903.91780,-0.00447
6905.84627,-0.04452
6907.77474,-0.06760
6909.70321,-0.08795
6911.63167,-0.09878
6913.56014,-0.06347
6915.48861,0.01283
6917.41708,0.15255
6919.34555,0.28484
6921.27402,0.28271
6923.20249,0.20245
6925.13096,0.11781
6927.05942,0.06565
6928.98789,0.07947
6930.91636,0.10614
6932.84483,0.00510
6934.77330,-0.12454
6936.70177,-0.12660
6938.63024,-0.07899
6940.55870,-0.07100
6942.48717,-0.07047
6944.41564,-0.02804
6946.34411,0.09478
6948.27258,0.24122
6950.20105,0.27440
6952.12952,0.19805
6954.05799,0.14086
6955.98645,0.20318
6957.91492,0.24147
6959.84339,0.14888
6961.77186,0.09017
6963.70033,0.10783
6965.62880,0.11393
6967.55727,0.14070
6969.48573,0.20309
6971.41420,0.19993
6973.34267,0.06647
6975.27114,-0.07623
6977.19961,-0.08101
6979.12808,-0.00653
6981.05655,0.00293
6982.98501,-0.09885
6984.91348,-0.15183
6986.84195,-0.06390
6988.77042,0.04163
6990.69889,0.09510
6992.62736,0.11004
6994.55583,0.05072
6996.48430,-0.10117
6998.41276,-0.24544
7000.34123,-0.27678
7002.26970,-0.17813
7004.19817,0.01032
7006.12664,0.15632
7008.05511,0.18223
7009.98358,0.17007
7011.91204,0.14778
7013.84051,0.08084
7015.76898,0.01092
7017.69745,0.00226
7019.62592,0.01226
7021.55439,-0.03187
7023.48286,-0.06414
7025.41133,-0.06361
7027.33979,-0.17967
7029.26826,-0.33629
7031.19673,-0.25541
7033.12520,-0.07989
7035.05367,-0.04711
7036.98214,-0.06173
7038.91061,-0.01811
7040.83907,0.05788
7042.76754,0.18960
7044.69601,0.30419
7046.62448,0.33420
7048.55295,0.25808
7050.48142,0.07371
7052.40989,-0.10939
7054.33836,-0.19339
7056.26682,-0.13426
7058.19529,0.02293
7060.12376,0.09509
7062.05223,0.03532
7063.98070,-0.03475
7065.90917,0.01855
7067.83764,0.09684
7069.76610,0.04595
7071.69457,-0.02950
7073.62304,-0.00098
7075.55151,0.04339
7077.47998,0.08016
7079.40845,0.12789
7081.33692,0.12403
7083.26539,0.08279
7085.19385,0.04514
7087.12232,-0.02599
7089.05079,-0.02960
7090.97926,0.04507
7092.90773,0.03492
7094.83620,0.02302
7096.76467,0.10635
7098.69313,0.12288
7100.62160,0.13131
7102.55007,0.22646
7104.47854,0.21024
7106.40701,0.02912
7108.33548,-0.07096
7110.26395,0.00274
7112.19242,0.15655
7114.12088,0.22812
7116.04935,0.11965
7117.97782,-0.00209
7119.90629,0.00272
7121.83476,0.00511
7123.76323,0.04339
7125.69170,0.14862
7127.62016,0.20274
7129.54863,0.15597
7131.47710,0.09743
7133.40557,0.11722
7135.33404,0.19841
7137.26251,0.28986
7139.19098,0.28912
7141.11944,0.17047
7143.04791,0.09526
7144.97638,0.06663
7146.90485,0.03522
7148.83332,0.01111
7150.76179,-0.09664
7152.69026,-0.26756
7154.61873,-0.30820
7156.54719,-0.17542
7158.47566,-0.01778
7160.40413,0.03626
7162.33260,-0.06155
7164.26107,-0.16111
7166.18954,-0.11590
7168.11801,-0.00655
7170.04647,0.09930
7171.97494,0.08068
7173.90341,-0.05706
7175.83188,-0.08952
7177.76035,-0.05692
7179.68882,-0.05312
7181.61729,-0.02992
7183.54576,-0.08257
7185.47422,-0.12459
7187.40269,0.02952
7189.33116,0.26865
7191.25963,0.29762
7193.18810,0.08973
7195.11657,-0.00338
7197.04504,0.08043
7198.97350,0.13192
7200.90197,0.09980
7202.83044,0.10390
7204.75891,0.14066
7206.68738,0.03359
7208.61585,-0.11037
7210.54432,-0.14179
7212.47279,-0.07417
7214.40125,0.01312
7216.32972,0.10171
7218.25819,0.13963
7220.18666,-0.03354
7222.11513,-0.20039
7224.04360,-0.12916
7225.97207,0.09136
7227.90053,0.23279
7229.82900,0.16890
7231.75747,-0.03219
7233.68594,-0.05025
7235.61441,0.08169
7237.54288,0.09775
7239.47135,-0.03449
7241.39982,-0.10919
7243.32828,-0.05609
7245.25675,0.04867
7247.18522,0.21112
7249.11369,0.40111
7251.04216,0.48759
7252.97063,0.39639
7254.89910,0.26030
7256.82756,0.17531
7258.75603,0.12736
7260.68450,0.17872
7262.61297,0.27725
7264.54144,0.23523
7266.46991,0.12694
7268.39838,0.07968
7270.32685,0.07383
7272.25531,0.13238
7274.18378,0.13562
7276.11225,0.03706
7278.04072,-0.01921
7279.96919,-0.06305
7281.89766,-0.14773
7283.82613,-0.09517
7285.75459,0.10013
7287.68306,0.17951
7289.61153,0.03769
7291.54000,-0.09409
7293.46847,-0.05074
7295.39694,0.02492
7297.32541,-0.03843
7299.25387,-0.15188
7301.18234,-0.13922
7303.11081,-0.04374
7305.03928,0.02042
7306.96775,0.06472
7308.89622,0.01781
7310.82469,-0.08028
7312.75316,0.01340
7314.68162,0.28008
7316.61009,0.43711
7318.53856,0.33917
7320.46703,0.35227
7322.39550,0.52234
7324.32397,0.52721
7326.25244,0.35462
7328.18090,0.18357
7330.10937,0.09881
7332.03784,0.10941
7333.96631,0.10159
7335.89478,0.01011
7337.82325,-0.06699
7339.75172,0.03197
7341.68019,0.17359
7343.60865,0.16315
7345.53712,0.10484
7347.46559,0.09117
7349.39406,0.18465
7351.32253,0.19164
7353.25100,0.07190
7355.17947,0.03538
7357.10793,0.04188
7359.03640,-0.14287
7360.96487,-0.39950
7362.89334,-0.29456
7364.82181,0.07313
7366.75028,0.20545
7368.67875,0.07634
7370.60722,-0.03912
7372.53568,-0.10265
7374.46415,-0.11693
7376.39262,-0.04260
7378.32109,0.01377
7380.24956,0.04170
7382.17803,0.04607
7384.10650,0.08998
7386.03496,0.24385
7387.96343,0.37149
7389.89190,0.29733
7391.82037,0.04792
7393.74884,-0.16454
7395.67731,-0.18055
7397.60578,-0.06621
7399.53425,0.07582
7401.46271,0.20431
7403.39118,0.23840
7405.31965,0.06105
7407.24812,-0.10654
7409.17659,-0.06820
7411.10506,0.01236
7413.03353,-0.00004
7414.96199,0.01794
7416.89046,0.16218
7418.81893,0.24690
7420.74740,0.08603
7422.67587,0.00032
7424.60434,0.07598
7426.53281,0.11172
7428.46128,0.07591
7430.38974,0.13563
7432.31821,0.27172
7434.24668,0.23627
7436.17515,-0.02461
7438.10362,-0.21968
7440.03209,-0.14545
7441.96056,-0.04677
7443.88902,-0.09135
7445.81749,-0.09711
7447.74596,-0.02925
7449.67443,0.03490
7451.60290,0.16831
7453.53137,0.29836
7455.45984,0.24448
7457.38831,0.10945
7459.31677,0.03596
7461.24524,0.05763
7463.17371,0.14476
7465.10218,0.18601
7467.03065,0.09140
7468.95912,-0.05613
7470.88759,-0.15236
7472.81605,-0.04489
7474.74452,0.16157
7476.67299,0.17965
7478.60146,0.01288
7480.52993,-0.08526
7482.45840,-0.07941
7484.38687,0.02014
7486.31533,0.25166
7488.24380,0.36050
7490.17227,0.15637
7492.10074,-0.05341
7494.02921,-0.04005
7495.95768,0.02530
7497.88615,0.03354
