399.19301,5.72190
401.12148,0.28040
403.04995,-0.10557
404.97842,-0.07396
406.90689,-0.10004
408.83536,-0.16302
410.76382,-0.12631
412.69229,0.02822
414.62076,0.13629
416.54923,0.09048
418.47770,-0.11675
420.40617,-0.28850
422.33464,-0.28886
424.26311,-0.20454
426.19157,-0.06982
428.12004,0.05458
430.04851,0.11449
431.97698,0.08513
433.90545,0.05174
435.83392,0.05985
437.76239,0.08513
439.69085,0.10709
441.61932,0.08580
443.54779,0.05502
445.47626,0.11303
447.40473,0.20576
449.33320,0.18836
451.26167,0.10563
453.19013,0.04512
455.11860,-0.02322
457.04707,-0.07602
458.97554,-0.07635
460.90401,-0.06416
462.83248,-0.04283
464.76095,-0.00201
466.68942,0.01379
468.61788,-0.01089
470.54635,-0.02250
472.47482,0.04038
474.40329,0.13211
476.33176,0.11320
478.26023,0.07128
480.18870,0.04286
482.11716,0.02304
484.04563,0.05491
485.97410,0.14345
487.90257,0.19100
489.83104,0.13122
491.75951,0.05202
493.68798,0.05420
495.61645,0.11620
497.54491,0.17882
499.47338,0.20681
501.40185,0.18002
503.33032,0.11978
505.25879,0.07842
507.18726,0.06937
509.11573,0.08712
511.04419,0.11672
512.97266,0.13945
514.90113,0.13734
516.82960,0.10094
518.75807,0.06305
520.68654,0.07160
522.61501,0.11661
524.54348,0.13642
526.47194,0.10497
528.40041,0.09377
530.32888,0.11623
532.25735,0.10332
534.18582,0.06464
536.11429,0.07896
538.04276,0.12932
539.97122,0.13283
541.89969,0.10394
543.82816,0.09869
545.75663,0.11727
547.68510,0.15081
549.61357,0.16747
551.54204,0.13436
553.47051,0.11392
555.39897,0.13816
557.32744,0.15242
559.25591,0.15562
561.18438,0.16913
563.11285,0.16927
565.04132,0.15475
566.96979,0.13823
568.89825,0.10870
570.82672,0.08639
572.75519,0.11429
574.68366,0.15690
576.61213,0.15426
578.54060,0.12881
580.46907,0.10594
582.39754,0.08672
584.32600,0.07522
586.25447,0.07480
588.18294,0.08755
590.11141,0.09760
592.03988,0.09135
593.96835,0.08336
595.89682,0.09761
597.82528,0.12480
599.75375,0.13520
601.68222,0.13477
603.61069,0.12957
605.53916,0.10992
607.46763,0.09054
609.39610,0.07137
611.32456,0.05329
613.25303,0.06448
615.18150,0.09523
617.10997,0.10689
619.03844,0.10544
620.96691,0.11234
622.89538,0.12073
624.82385,0.13090
626.75231,0.14892
628.68078,0.15509
630.60925,0.13501
632.53772,0.11947
634.46619,0.12614
636.39466,0.12693
638.32313,0.11957
640.25159,0.11805
642.18006,0.11817
644.10853,0.11434
646.03700,0.11079
647.96547,0.11263
649.89394,0.11747
651.82241,0.12892
653.75088,0.14107
655.67934,0.14370
657.60781,0.14083
659.53628,0.12383
661.46475,0.09975
663.39322,0.09960
665.32169,0.11765
667.25016,0.12854
669.17862,0.12408
671.10709,0.11017
673.03556,0.09308
674.96403,0.08507
676.89250,0.09411
678.82097,0.11040
680.74944,0.12393
682.67791,0.13602
684.60637,0.14562
686.53484,0.15182
688.46331,0.14991
690.39178,0.13972
692.32025,0.13508
694.24872,0.13459
696.17719,0.13122
698.10565,0.11916
700.03412,0.09972
701.96259,0.09736
703.89106,0.11285
705.81953,0.12153
707.74800,0.12832
709.67647,0.14001
711.60494,0.13921
713.53340,0.12671
715.46187,0.12066
717.39034,0.12351
719.31881,0.12812
721.24728,0.12868
723.17575,0.13015
725.10422,0.14456
727.03268,0.15765
728.96115,0.15352
730.88962,0.15139
732.81809,0.15645
734.74656,0.15049
736.67503,0.13785
738.60350,0.13141
740.53197,0.13186
742.46043,0.13639
744.38890,0.14165
746.31737,0.14760
748.24584,0.16051
750.17431,0.17306
752.10278,0.16812
754.03125,0.15161
755.95971,0.14037
757.88818,0.13776
759.81665,0.13836
761.74512,0.14021
763.67359,0.14611
765.60206,0.14968
767.53053,0.15047
769.45900,0.15582
771.38746,0.15104
773.31593,0.13289
775.24440,0.12371
777.17287,0.12732
779.10134,0.13901
781.02981,0.15078
782.95828,0.14293
784.88674,0.12505
786.81521,0.12621
788.74368,0.13859
790.67215,0.13834
792.60062,0.12950
794.52909,0.12345
796.45756,0.12278
798.38602,0.12832
800.31449,0.13205
802.24296,0.13182
804.17143,0.13755
806.09990,0.14831
808.02837,0.15660
809.95684,0.15639
811.88531,0.15124
813.81377,0.15041
815.74224,0.14863
817.67071,0.13578
819.59918,0.11729
821.52765,0.11186
823.45612,0.12665
825.38459,0.14008
827.31305,0.13150
829.24152,0.11440
831.16999,0.10999
833.09846,0.11819
835.02693,0.12357
836.95540,0.11725
838.88387,0.11020
840.81234,0.10907
842.74080,0.11089
844.66927,0.12192
846.59774,0.13759
848.52621,0.14435
850.45468,0.15185
852.38315,0.16334
854.31162,0.15878
856.24008,0.14524
858.16855,0.14341
860.09702,0.14371
862.02549,0.13547
863.95396,0.12764
865.88243,0.12890
867.81090,0.13615
869.73937,0.14165
871.66783,0.15029
873.59630,0.15918
875.52477,0.15659
877.45324,0.15384
879.38171,0.15420
881.31018,0.15025
883.23865,0.14578
885.16711,0.14034
887.09558,0.13555
889.02405,0.13214
890.95252,0.12964
892.88099,0.13455
894.80946,0.14500
896.73793,0.15221
898.66640,0.15568
900.59486,0.15424
902.52333,0.14646
904.45180,0.14471
906.38027,0.15266
908.30874,0.16116
910.23721,0.16710
912.16568,0.16764
914.09414,0.16245
916.02261,0.15730
917.95108,0.15656
919.87955,0.15667
921.80802,0.14917
923.73649,0.13570
925.66496,0.13133
927.59343,0.14130
929.52189,0.15113
931.45036,0.15232
933.37883,0.15037
935.30730,0.15169
937.23577,0.15649
939.16424,0.15758
941.09271,0.14966
943.02117,0.13976
944.94964,0.13999
946.87811,0.14863
948.80658,0.15321
950.73505,0.15167
952.66352,0.14971
954.59199,0.14602
956.52045,0.14017
958.44892,0.13674
960.37739,0.13310
962.30586,0.13091
964.23433,0.13727
966.16280,0.14371
968.09127,0.14489
970.01974,0.14851
971.94820,0.15333
973.87667,0.15626
975.80514,0.15476
977.73361,0.14772
979.66208,0.14383
981.59055,0.14333
983.51902,0.13771
985.44748,0.12882
987.37595,0.12637
989.30442,0.13250
991.23289,0.13953
993.16136,0.14207
995.08983,0.14256
997.01830,0.14500
998.94677,0.14708
1000.87523,0.14786
1002.80370,0.15087
1004.73217,0.15444
1006.66064,0.15374
1008.58911,0.14940
1010.51758,0.14785
1012.44605,0.15128
1014.37451,0.15519
1016.30298,0.15508
1018.23145,0.15229
1020.15992,0.15227
1022.08839,0.15450
1024.01686,0.15712
1025.94533,0.15809
1027.87380,0.15314
1029.80226,0.15220
1031.73073,0.16008
1033.65920,0.16213
1035.58767,0.16372
1037.51614,0.17530
1039.44461,0.17855
1041.37308,0.16582
1043.30154,0.15582
1045.23001,0.15735
1047.15848,0.16179
1049.08695,0.16272
1051.01542,0.16362
1052.94389,0.16264
1054.87236,0.15627
1056.80083,0.15823
1058.72929,0.17104
1060.65776,0.17651
1062.58623,0.17024
1064.51470,0.16123
1066.44317,0.15689
1068.37164,0.15947
1070.30011,0.16505
1072.22857,0.16873
1074.15704,0.16892
1076.08551,0.16466
1078.01398,0.16053
1079.94245,0.16092
1081.87092,0.16141
1083.79939,0.15817
1085.72786,0.14938
1087.65632,0.14222
1089.58479,0.14525
1091.51326,0.15396
1093.44173,0.16314
1095.37020,0.17039
1097.29867,0.17167
1099.22714,0.16743
1101.15560,0.16853
1103.08407,0.17837
1105.01254,0.17986
1106.94101,0.16846
1108.86948,0.16193
1110.79795,0.16476
1112.72642,0.16669
1114.65489,0.16778
1116.58335,0.17205
1118.51182,0.17462
1120.44029,0.17229
1122.36876,0.16895
1124.29723,0.16466
1126.22570,0.15866
1128.15417,0.15536
1130.08263,0.15485
1132.01110,0.15403
1133.93957,0.15534
1135.86804,0.16031
1137.79651,0.16172
1139.72498,0.15393
1141.65345,0.14396
1143.58191,0.14555
1145.51038,0.15760
1147.43885,0.16413
1149.36732,0.16236
1151.29579,0.16155
1153.22426,0.16472
1155.15273,0.16811
1157.08120,0.17071
1159.00966,0.17379
1160.93813,0.17524
1162.86660,0.17407
1164.79507,0.16951
1166.72354,0.16714
1168.65201,0.17238
1170.58048,0.17531
1172.50894,0.17210
1174.43741,0.17147
1176.36588,0.17469
1178.29435,0.17621
1180.22282,0.17446
1182.15129,0.17043
1184.07976,0.16489
1186.00823,0.16218
1187.93669,0.16240
1189.86516,0.16072
1191.79363,0.15989
1193.72210,0.16366
1195.65057,0.16629
1197.57904,0.16258
1199.50751,0.16000
1201.43597,0.16371
1203.36444,0.16645
1205.29291,0.16715
1207.22138,0.16863
1209.14985,0.16856
1211.07832,0.16894
1213.00679,0.16862
1214.93526,0.16346
1216.86372,0.15902
1218.79219,0.15957
1220.72066,0.16121
1222.64913,0.16404
1224.57760,0.16972
1226.50607,0.17103
1228.43454,0.16643
1230.36300,0.16478
1232.29147,0.16538
1234.21994,0.16071
1236.14841,0.15250
1238.07688,0.14990
1240.00535,0.15433
1241.93382,0.15764
1243.86229,0.15782
1245.79075,0.15888
1247.71922,0.15981
1249.64769,0.15887
1251.57616,0.15765
1253.50463,0.15723
1255.43310,0.15851
1257.36157,0.16005
1259.29003,0.15921
1261.21850,0.15770
1263.14697,0.15841
1265.07544,0.15758
1267.00391,0.15038
1268.93238,0.14545
1270.86085,0.15183
1272.78932,0.15904
1274.71778,0.15624
1276.64625,0.15368
1278.57472,0.15776
1280.50319,0.15570
1282.43166,0.15059
1284.36013,0.15505
1286.28860,0.15835
1288.21706,0.15637
1290.14553,0.15962
1292.07400,0.16393
1294.00247,0.16444
1295.93094,0.16271
1297.85941,0.15597
1299.78788,0.14181
1301.71634,0.11880
1303.64481,0.09575
1305.57328,0.09925
1307.50175,0.13401
1309.43022,0.16466
1311.35869,0.17343
1313.28716,0.17237
1315.21563,0.16769
1317.14409,0.16449
1319.07256,0.16549
1321.00103,0.16685
1322.92950,0.16892
1324.85797,0.16725
1326.78644,0.15997
1328.71491,0.15582
1330.64337,0.15255
1332.57184,0.14911
1334.50031,0.15059
1336.42878,0.15254
1338.35725,0.15413
1340.28572,0.15169
1342.21419,0.15580
1344.14266,0.17737
1346.07112,0.18866
1347.99959,0.17694
1349.92806,0.16370
1351.85653,0.15854
1353.78500,0.15674
1355.71347,0.15671
1357.64194,0.15922
1359.57040,0.16288
1361.49887,0.16792
1363.42734,0.17129
1365.35581,0.16839
1367.28428,0.16392
1369.21275,0.16404
1371.14122,0.16903
1373.06969,0.17519
1374.99815,0.17894
1376.92662,0.17856
1378.85509,0.17727
1380.78356,0.17608
1382.71203,0.17526
1384.64050,0.17770
1386.56897,0.18202
1388.49743,0.18297
1390.42590,0.18225
1392.35437,0.18572
1394.28284,0.19204
1396.21131,0.19473
1398.13978,0.19098
1400.06825,0.18077
1401.99672,0.17373
1403.92518,0.17718
1405.85365,0.18347
1407.78212,0.18515
1409.71059,0.18493
1411.63906,0.18435
1413.56753,0.18541
1415.49600,0.18982
1417.42446,0.19642
1419.35293,0.19853
1421.28140,0.19125
1423.20987,0.18444
1425.13834,0.18257
1427.06681,0.18220
1428.99528,0.18291
1430.92375,0.18575
1432.85221,0.18811
1434.78068,0.19121
1436.70915,0.19402
1438.63762,0.18951
1440.56609,0.18222
1442.49456,0.17864
1444.42303,0.18065
1446.35149,0.18423
1448.27996,0.18444
1450.20843,0.18504
1452.13690,0.19039
1454.06537,0.20104
1455.99384,0.21825
1457.92231,0.22111
1459.85077,0.20241
1461.77924,0.19426
1463.70771,0.19666
1465.63618,0.19519
1467.56465,0.18861
1469.49312,0.18965
1471.42159,0.19915
1473.35006,0.20376
1475.27852,0.19914
1477.20699,0.19589
1479.13546,0.19354
1481.06393,0.19173
1482.99240,0.19168
1484.92087,0.19415
1486.84934,0.19928
1488.77780,0.20252
1490.70627,0.19768
1492.63474,0.19212
1494.56321,0.19550
1496.49168,0.20514
1498.42015,0.20562
1500.34862,0.19966
1502.27709,0.19913
1504.20555,0.20732
1506.13402,0.22826
1508.06249,0.23396
1509.99096,0.21655
1511.91943,0.20672
1513.84790,0.20810
1515.77637,0.21708
1517.70483,0.22414
1519.63330,0.22830
1521.56177,0.23172
1523.49024,0.22278
1525.41871,0.21016
1527.34718,0.20007
1529.27565,0.19356
1531.20412,0.19444
1533.13258,0.19988
1535.06105,0.20409
1536.98952,0.21455
1538.91799,0.24274
1540.84646,0.26504
1542.77493,0.24516
1544.70340,0.22166
1546.63186,0.20807
1548.56033,0.20364
1550.48880,0.20332
1552.41727,0.20668
1554.34574,0.21581
1556.27421,0.22929
1558.20268,0.23827
1560.13115,0.21424
1562.05961,0.19605
1563.98808,0.19356
1565.91655,0.19669
1567.84502,0.20197
1569.77349,0.20369
1571.70196,0.19893
1573.63043,0.19958
1575.55889,0.20771
1577.48736,0.20629
1579.41583,0.19402
1581.34430,0.18311
1583.27277,0.17601
1585.20124,0.17314
1587.12971,0.17351
1589.05818,0.17462
1590.98664,0.17516
1592.91511,0.17655
1594.84358,0.17804
1596.77205,0.17776
1598.70052,0.17765
1600.62899,0.17785
1602.55746,0.17661
1604.48592,0.17743
1606.41439,0.18418
1608.34286,0.19294
1610.27133,0.19517
1612.19980,0.19079
1614.12827,0.18861
1616.05674,0.19192
1617.98521,0.19295
1619.91367,0.19184
1621.84214,0.19240
1623.77061,0.19162
1625.69908,0.19277
1627.62755,0.19718
1629.55602,0.20007
1631.48449,0.20295
1633.41295,0.21005
1635.34142,0.21868
1637.26989,0.21445
1639.19836,0.20482
1641.12683,0.19952
1643.05530,0.20035
1644.98377,0.21104
1646.91223,0.22513
1648.84070,0.22263
1650.76917,0.21764
1652.69764,0.22110
1654.62611,0.21486
1656.55458,0.20192
1658.48305,0.19732
1660.41152,0.20153
1662.33998,0.20844
1664.26845,0.21125
1666.19692,0.21176
1668.12539,0.21297
1670.05386,0.21168
1671.98233,0.20793
1673.91080,0.20928
1675.83926,0.21081
1677.76773,0.20808
1679.69620,0.20820
1681.62467,0.21531
1683.55314,0.22648
1685.48161,0.22047
1687.41008,0.20704
1689.33855,0.20198
1691.26701,0.20268
1693.19548,0.20961
1695.12395,0.22557
1697.05242,0.23888
1698.98089,0.23820
1700.90936,0.23087
1702.83783,0.22214
1704.76629,0.21439
1706.69476,0.20816
1708.62323,0.20240
1710.55170,0.19749
1712.48017,0.19884
1714.40864,0.20811
1716.33711,0.21594
1718.26558,0.20759
1720.19404,0.19452
1722.12251,0.19001
1724.05098,0.19104
1725.97945,0.19253
1727.90792,0.19534
1729.83639,0.20213
1731.76486,0.21341
1733.69332,0.22264
1735.62179,0.21566
1737.55026,0.20810
1739.47873,0.20696
1741.40720,0.20327
1743.33567,0.19905
1745.26414,0.19936
1747.19261,0.20172
1749.12107,0.20391
1751.04954,0.20053
1752.97801,0.19509
1754.90648,0.19499
1756.83495,0.19541
1758.76342,0.19373
1760.69189,0.19592
1762.62035,0.19848
1764.54882,0.19540
1766.47729,0.19281
1768.40576,0.19619
1770.33423,0.20382
1772.26270,0.20676
1774.19117,0.20183
1776.11964,0.19795
1778.04810,0.19844
1779.97657,0.20075
1781.90504,0.19917
1783.83351,0.19470
1785.76198,0.19188
1787.69045,0.19160
1789.61892,0.19516
1791.54738,0.20067
1793.47585,0.20175
1795.40432,0.20076
1797.33279,0.20063
1799.26126,0.20107
1801.18973,0.20048
1803.11820,0.19557
1805.04666,0.19033
1806.97513,0.19003
1808.90360,0.19398
1810.83207,0.19660
1812.76054,0.19396
1814.68901,0.19122
1816.61748,0.19422
1818.54595,0.20015
1820.47441,0.20377
1822.40288,0.20554
1824.33135,0.20442
1826.25982,0.20144
1828.18829,0.20229
1830.11676,0.20346
1832.04523,0.19967
1833.97369,0.19344
1835.90216,0.18786
1837.83063,0.18624
1839.75910,0.19096
1841.68757,0.20083
1843.61604,0.20824
1845.54451,0.20498
1847.47298,0.19881
1849.40144,0.19557
1851.32991,0.19328
1853.25838,0.19133
1855.18685,0.18953
1857.11532,0.18802
1859.04379,0.18911
1860.97226,0.19369
1862.90072,0.19806
1864.82919,0.20104
1866.75766,0.20546
1868.68613,0.20543
1870.61460,0.19665
1872.54307,0.18932
1874.47154,0.18639
1876.40001,0.18587
1878.32847,0.18637
1880.25694,0.18697
1882.18541,0.18857
1884.11388,0.19117
1886.04235,0.19396
1887.97082,0.19682
1889.89929,0.19788
1891.82775,0.19643
1893.75622,0.19466
1895.68469,0.19282
1897.61316,0.19084
1899.54163,0.18975
1901.47010,0.19065
1903.39857,0.19245
1905.32704,0.19284
1907.25550,0.19301
1909.18397,0.19242
1911.11244,0.18998
1913.04091,0.18993
1914.96938,0.19322
1916.89785,0.19605
1918.82632,0.19541
1920.75478,0.19365
1922.68325,0.19298
1924.61172,0.19191
1926.54019,0.19234
1928.46866,0.19344
1930.39713,0.19173
1932.32560,0.19011
1934.25407,0.19084
1936.18253,0.19077
1938.11100,0.18863
1940.03947,0.18792
1941.96794,0.18938
1943.89641,0.18914
1945.82488,0.18850
1947.75335,0.18959
1949.68181,0.19048
1951.61028,0.19136
1953.53875,0.19268
1955.46722,0.19324
1957.39569,0.19347
1959.32416,0.19291
1961.25263,0.19107
1963.18110,0.19161
1965.10956,0.19489
1967.03803,0.19465
1968.96650,0.19116
1970.89497,0.19063
1972.82344,0.19150
1974.75191,0.18977
1976.68038,0.18595
1978.60884,0.18355
1980.53731,0.18634
1982.46578,0.19107
1984.39425,0.19112
1986.32272,0.18718
1988.25119,0.18427
1990.17966,0.18547
1992.10812,0.18918
1994.03659,0.19091
1995.96506,0.18949
1997.89353,0.18679
1999.82200,0.18449
2001.75047,0.18421
2003.67894,0.18617
2005.60741,0.18852
2007.53587,0.19016
2009.46434,0.19031
2011.39281,0.18934
2013.32128,0.19006
2015.24975,0.19299
2017.17822,0.19530
2019.10669,0.19417
2021.03515,0.19189
2022.96362,0.19199
2024.89209,0.19157
2026.82056,0.18958
2028.74903,0.18989
2030.67750,0.19192
2032.60597,0.19295
2034.53444,0.19249
2036.46290,0.19127
2038.39137,0.19109
2040.31984,0.19133
2042.24831,0.19027
2044.17678,0.18989
2046.10525,0.19128
2048.03372,0.19177
2049.96218,0.19011
2051.89065,0.18783
2053.81912,0.18742
2055.74759,0.19032
2057.67606,0.19414
2059.60453,0.19386
2061.53300,0.19064
2063.46147,0.19126
2065.38993,0.19537
2067.31840,0.19688
2069.24687,0.19381
2071.17534,0.19021
2073.10381,0.19078
2075.03228,0.19371
2076.96075,0.19571
2078.88921,0.19643
2080.81768,0.19515
2082.74615,0.19308
2084.67462,0.19241
2086.60309,0.19266
2088.53156,0.19255
2090.46003,0.19179
2092.38850,0.19080
2094.31696,0.18991
2096.24543,0.18997
2098.17390,0.19098
2100.10237,0.19174
2102.03084,0.19349
2103.95931,0.19642
2105.88778,0.19686
2107.81624,0.19342
2109.74471,0.18956
2111.67318,0.18872
2113.60165,0.19038
2115.53012,0.19223
2117.45859,0.19234
2119.38706,0.19052
2121.31553,0.18899
2123.24399,0.18892
2125.17246,0.18961
2127.10093,0.19191
2129.02940,0.19529
2130.95787,0.19543
2132.88634,0.19299
2134.81481,0.19235
2136.74327,0.19216
2138.67174,0.19067
2140.60021,0.19008
2142.52868,0.19134
2144.45715,0.19339
2146.38562,0.19509
2148.31409,0.19516
2150.24255,0.19408
2152.17102,0.19252
2154.09949,0.18986
2156.02796,0.18868
2157.95643,0.19050
2159.88490,0.19174
2161.81337,0.19156
2163.74184,0.19261
2165.67030,0.19445
2167.59877,0.19575
2169.52724,0.19715
2171.45571,0.19753
2173.38418,0.19534
2175.31265,0.19351
2177.24112,0.19487
2179.16958,0.19656
2181.09805,0.19772
2183.02652,0.19971
2184.95499,0.19838
2186.88346,0.19319
2188.81193,0.18964
2190.74040,0.18910
2192.66887,0.19013
2194.59733,0.19110
2196.52580,0.19079
2198.45427,0.19116
2200.38274,0.19291
2202.31121,0.19332
2204.23968,0.19156
2206.16815,0.18967
2208.09661,0.19018
2210.02508,0.19263
2211.95355,0.19367
2213.88202,0.19240
2215.81049,0.19073
2217.73896,0.19158
2219.66743,0.19518
2221.59590,0.19772
2223.52436,0.19743
2225.45283,0.19564
2227.38130,0.19488
2229.30977,0.19599
2231.23824,0.19580
2233.16671,0.19305
2235.09518,0.19078
2237.02364,0.19064
2238.95211,0.19081
2240.88058,0.18990
2242.80905,0.18896
2244.73752,0.18940
2246.66599,0.19123
2248.59446,0.19202
2250.52293,0.19052
2252.45139,0.18923
2254.37986,0.18885
2256.30833,0.18925
2258.23680,0.19160
2260.16527,0.19341
2262.09374,0.19184
2264.02221,0.18864
2265.95067,0.18653
2267.87914,0.18601
2269.80761,0.18662
2271.73608,0.18832
2273.66455,0.19012
2275.59302,0.19031
2277.52149,0.18964
2279.44996,0.18993
2281.37842,0.19131
2283.30689,0.19232
2285.23536,0.19184
2287.16383,0.19176
2289.09230,0.19176
2291.02077,0.18979
2292.94924,0.18873
2294.87770,0.18966
2296.80617,0.19181
2298.73464,0.19452
2300.66311,0.19430
2302.59158,0.19172
2304.52005,0.19020
2306.44852,0.18868
2308.37699,0.18485
2310.30545,0.18007
2312.23392,0.17782
2314.16239,0.17857
2316.09086,0.17746
2318.01933,0.17391
2319.94780,0.17164
2321.87627,0.16870
2323.80473,0.16968
2325.73320,0.17895
2327.66167,0.18692
2329.59014,0.18884
2331.51861,0.18721
2333.44708,0.18952
2335.37555,0.19576
2337.30401,0.19334
2339.23248,0.18128
2341.16095,0.17194
2343.08942,0.17347
2345.01789,0.17600
2346.94636,0.17438
2348.87483,0.17661
2350.80330,0.18096
2352.73176,0.18078
2354.66023,0.17225
2356.58870,0.16825
2358.51717,0.18200
2360.44564,0.18615
2362.37411,0.16786
2364.30258,0.15363
2366.23104,0.16459
2368.15951,0.18677
2370.08798,0.18937
2372.01645,0.17891
2373.94492,0.17385
2375.87339,0.17418
2377.80186,0.17646
2379.73033,0.17993
2381.65879,0.18466
2383.58726,0.18931
2385.51573,0.19107
2387.44420,0.19149
2389.37267,0.19372
2391.30114,0.19513
2393.22961,0.19346
2395.15807,0.19221
2397.08654,0.19262
2399.01501,0.19151
2400.94348,0.18988
2402.87195,0.19058
2404.80042,0.19117
2406.72889,0.18989
2408.65736,0.18940
2410.58582,0.19030
2412.51429,0.19082
2414.44276,0.19210
2416.37123,0.19472
2418.29970,0.19555
2420.22817,0.19443
2422.15664,0.19456
2424.08510,0.19608
2426.01357,0.19611
2427.94204,0.19356
2429.87051,0.19167
2431.79898,0.19369
2433.72745,0.19691
2435.65592,0.19682
2437.58439,0.19494
2439.51285,0.19422
2441.44132,0.19383
2443.36979,0.19237
2445.29826,0.19008
2447.22673,0.18722
2449.15520,0.18616
2451.08367,0.19237
2453.01213,0.20175
2454.94060,0.20237
2456.86907,0.19529
2458.79754,0.19097
2460.72601,0.19187
2462.65448,0.19360
2464.58295,0.19428
2466.51142,0.19459
2468.43988,0.19345
2470.36835,0.19151
2472.29682,0.19217
2474.22529,0.19385
2476.15376,0.19242
2478.08223,0.19021
2480.01070,0.19048
2481.93916,0.19161
2483.86763,0.19141
2485.79610,0.19025
2487.72457,0.19037
2489.65304,0.19211
2491.58151,0.19387
2493.50998,0.19487
2495.43844,0.19460
2497.36691,0.19364
2499.29538,0.19277
2501.22385,0.19069
2503.15232,0.18748
2505.08079,0.18604
2507.00926,0.18757
2508.93773,0.19023
2510.86619,0.19074
2512.79466,0.18994
2514.72313,0.19194
2516.65160,0.19488
2518.58007,0.19694
2520.50854,0.20000
2522.43701,0.20063
2524.36547,0.19684
2526.29394,0.19475
2528.22241,0.19684
2530.15088,0.19888
2532.07935,0.19850
2534.00782,0.19651
2535.93629,0.19507
2537.86476,0.19572
2539.79322,0.19716
2541.72169,0.19672
2543.65016,0.19499
2545.57863,0.19602
2547.50710,0.19855
2549.43557,0.19738
2551.36404,0.19319
2553.29250,0.19171
2555.22097,0.19551
2557.14944,0.20026
2559.07791,0.20151
2561.00638,0.19899
2562.93485,0.19555
2564.86332,0.19425
2566.79179,0.19447
2568.72025,0.19470
2570.64872,0.19510
2572.57719,0.19527
2574.50566,0.19531
2576.43413,0.19616
2578.36260,0.19738
2580.29107,0.19845
2582.21953,0.19806
2584.14800,0.19533
2586.07647,0.19299
2588.00494,0.19245
2589.93341,0.19313
2591.86188,0.19393
2593.79035,0.19355
2595.71882,0.19353
2597.64728,0.19336
2599.57575,0.19212
2601.50422,0.19298
2603.43269,0.19443
2605.36116,0.19356
2607.28963,0.19420
2609.21810,0.19708
2611.14656,0.19883
2613.07503,0.19887
2615.00350,0.19806
2616.93197,0.19874
2618.86044,0.20091
2620.78891,0.20076
2622.71738,0.19812
2624.64585,0.19622
2626.57431,0.19673
2628.50278,0.19726
2630.43125,0.19462
2632.35972,0.19133
2634.28819,0.19196
2636.21666,0.19516
2638.14513,0.19656
2640.07359,0.19699
2642.00206,0.19816
2643.93053,0.19684
2645.85900,0.19402
2647.78747,0.19570
2649.71594,0.20084
2651.64441,0.20315
2653.57288,0.20225
2655.50134,0.20160
2657.42981,0.20182
2659.35828,0.20251
2661.28675,0.20228
2663.21522,0.19915
2665.14369,0.19631
2667.07216,0.19740
2669.00062,0.20040
2670.92909,0.20238
2672.85756,0.20285
2674.78603,0.20324
2676.71450,0.20345
2678.64297,0.20305
2680.57144,0.20307
2682.49990,0.20176
2684.42837,0.19991
2686.35684,0.20085
2688.28531,0.20305
2690.21378,0.20480
2692.14225,0.20701
2694.07072,0.20862
2695.99919,0.20711
2697.92765,0.20391
2699.85612,0.20175
2701.78459,0.19966
2703.71306,0.19707
2705.64153,0.19608
2707.57000,0.19659
2709.49847,0.19761
2711.42693,0.20054
2713.35540,0.20369
2715.28387,0.20558
2717.21234,0.20678
2719.14081,0.20507
2721.06928,0.20310
2722.99775,0.20418
2724.92622,0.20384
2726.85468,0.20175
2728.78315,0.20057
2730.71162,0.19993
2732.64009,0.20156
2734.56856,0.20418
2736.49703,0.20376
2738.42550,0.20082
2740.35396,0.19890
2742.28243,0.19905
2744.21090,0.19905
2746.13937,0.19886
2748.06784,0.19917
2749.99631,0.19966
2751.92478,0.20102
2753.85325,0.20229
2755.78171,0.20201
2757.71018,0.20194
2759.63865,0.20318
2761.56712,0.20311
2763.49559,0.20222
2765.42406,0.20453
2767.35253,0.20814
2769.28099,0.20765
2771.20946,0.20487
2773.13793,0.20506
2775.06640,0.20820
2776.99487,0.21041
2778.92334,0.21016
2780.85181,0.20933
2782.78028,0.20885
2784.70874,0.20909
2786.63721,0.20930
2788.56568,0.20822
2790.49415,0.20689
2792.42262,0.20736
2794.35109,0.20814
2796.27956,0.20645
2798.20802,0.20499
2800.13649,0.20434
2802.06496,0.20217
2803.99343,0.19991
2805.92190,0.20034
2807.85037,0.20362
2809.77884,0.20512
2811.70731,0.20536
2813.63577,0.20811
2815.56424,0.21041
2817.49271,0.20928
2819.42118,0.20764
2821.34965,0.20912
2823.27812,0.21180
2825.20659,0.21261
2827.13505,0.21104
2829.06352,0.20967
2830.99199,0.21036
2832.92046,0.20943
2834.84893,0.20727
2836.77740,0.20971
2838.70587,0.21458
2840.63433,0.21358
2842.56280,0.20830
2844.49127,0.20704
2846.41974,0.21053
2848.34821,0.21493
2850.27668,0.21657
2852.20515,0.21331
2854.13362,0.20704
2856.06208,0.20055
2857.99055,0.19715
2859.91902,0.19817
2861.84749,0.19985
2863.77596,0.20145
2865.70443,0.20641
2867.63290,0.21206
2869.56136,0.21288
2871.48983,0.20902
2873.41830,0.20314
2875.34677,0.19935
2877.27524,0.20170
2879.20371,0.20721
2881.13218,0.20910
2883.06065,0.20452
2884.98911,0.19905
2886.91758,0.20075
2888.84605,0.20716
2890.77452,0.21004
2892.70299,0.20618
2894.63146,0.19932
2896.55993,0.19731
2898.48839,0.20213
2900.41686,0.20837
2902.34533,0.21034
2904.27380,0.20401
2906.20227,0.19583
2908.13074,0.19770
2910.05921,0.20492
2911.98768,0.20658
2913.91614,0.20022
2915.84461,0.18910
2917.77308,0.18522
2919.70155,0.19243
2921.63002,0.20022
2923.55849,0.19817
2925.48696,0.18390
2927.41542,0.17485
2929.34389,0.18504
2931.27236,0.20042
2933.20083,0.20315
2935.12930,0.19061
2937.05777,0.17803
2938.98624,0.18341
2940.91471,0.19809
2942.84317,0.20321
2944.77164,0.19427
2946.70011,0.17953
2948.62858,0.17928
2950.55705,0.19553
2952.48552,0.20778
2954.41399,0.20628
2956.34245,0.18992
2958.27092,0.17773
2960.19939,0.19089
2962.12786,0.21024
2964.05633,0.21179
2965.98480,0.19695
2967.91327,0.18443
2969.84174,0.19205
2971.77020,0.20720
2973.69867,0.21145
2975.62714,0.20332
2977.55561,0.19024
2979.48408,0.19062
2981.41255,0.20411
2983.34102,0.21102
2985.26948,0.20640
2987.19795,0.19465
2989.12642,0.18914
2991.05489,0.19890
2992.98336,0.20949
2994.91183,0.21098
2996.84030,0.20655
2998.76877,0.20032
3000.69723,0.19815
3002.62570,0.19834
3004.55417,0.19554
3006.48264,0.19176
3008.41111,0.18693
3010.33958,0.17246
3012.26805,0.14026
3014.19651,0.09469
3016.12498,0.06359
3018.05345,0.08468
3019.98192,0.14586
3021.91039,0.19328
3023.83886,0.21135
3025.76733,0.21466
3027.69579,0.20932
3029.62426,0.20324
3031.55273,0.20534
3033.48120,0.21182
3035.40967,0.21093
3037.33814,0.20284
3039.26661,0.20153
3041.19508,0.21071
3043.12354,0.21804
3045.05201,0.21357
3046.98048,0.20170
3048.90895,0.19637
3050.83742,0.19979
3052.76589,0.20174
3054.69436,0.19577
3056.62282,0.18523
3058.55129,0.18638
3060.47976,0.19939
3062.40823,0.20535
3064.33670,0.19879
3066.26517,0.18820
3068.19364,0.18904
3070.12211,0.20128
3072.05057,0.20800
3073.97904,0.20343
3075.90751,0.19583
3077.83598,0.19770
3079.76445,0.20758
3081.69292,0.21004
3083.62139,0.19432
3085.54985,0.17735
3087.47832,0.18453
3089.40679,0.20304
3091.33526,0.20745
3093.26373,0.19430
3095.19220,0.18549
3097.12067,0.19824
3099.04914,0.21377
3100.97760,0.21365
3102.90607,0.20015
3104.83454,0.19048
3106.76301,0.19570
3108.69148,0.20345
3110.61995,0.20128
3112.54842,0.19222
3114.47688,0.19117
3116.40535,0.19973
3118.33382,0.20156
3120.26229,0.19070
3122.19076,0.18264
3124.11923,0.19113
3126.04770,0.20583
3127.97617,0.21201
3129.90463,0.20482
3131.83310,0.19656
3133.76157,0.20315
3135.69004,0.21308
3137.61851,0.20935
3139.54698,0.19915
3141.47545,0.20018
3143.40391,0.21024
3145.33238,0.21465
3147.26085,0.21107
3149.18932,0.20776
3151.11779,0.21000
3153.04626,0.20922
3154.97473,0.20256
3156.90320,0.20298
3158.83166,0.21356
3160.76013,0.22097
3162.68860,0.21717
3164.61707,0.21189
3166.54554,0.21540
3168.47401,0.22375
3170.40248,0.22819
3172.33094,0.22633
3174.25941,0.22249
3176.18788,0.22143
3178.11635,0.22215
3180.04482,0.21998
3181.97329,0.21748
3183.90176,0.21969
3185.83022,0.22046
3187.75869,0.21444
3189.68716,0.21041
3191.61563,0.21595
3193.54410,0.22495
3195.47257,0.22998
3197.40104,0.23326
3199.32951,0.23369
3201.25797,0.22470
3203.18644,0.21367
3205.11491,0.21282
3207.04338,0.21838
3208.97185,0.22048
3210.90032,0.21799
3212.82879,0.21649
3214.75725,0.21736
3216.68572,0.21567
3218.61419,0.21197
3220.54266,0.21204
3222.47113,0.21393
3224.39960,0.21202
3226.32807,0.21130
3228.25654,0.21753
3230.18500,0.22372
3232.11347,0.22301
3234.04194,0.21858
3235.97041,0.21653
3237.89888,0.21817
3239.82735,0.22084
3241.75582,0.22285
3243.68428,0.21962
3245.61275,0.20949
3247.54122,0.20382
3249.46969,0.20864
3251.39816,0.21455
3253.32663,0.21406
3255.25510,0.21047
3257.18357,0.21085
3259.11203,0.21440
3261.04050,0.21606
3262.96897,0.21686
3264.89744,0.21527
3266.82591,0.20888
3268.75438,0.20464
3270.68285,0.20645
3272.61131,0.20925
3274.53978,0.21103
3276.46825,0.21391
3278.39672,0.21628
3280.32519,0.21483
3282.25366,0.21220
3284.18213,0.21381
3286.11060,0.21738
3288.03906,0.21651
3289.96753,0.21341
3291.89600,0.21291
3293.82447,0.21140
3295.75294,0.20642
3297.68141,0.20307
3299.60988,0.20509
3301.53834,0.21053
3303.46681,0.21296
3305.39528,0.20838
3307.32375,0.20339
3309.25222,0.20351
3311.18069,0.20549
3313.10916,0.20872
3315.03763,0.21539
3316.96609,0.22252
3318.89456,0.22364
3320.82303,0.21943
3322.75150,0.21854
3324.67997,0.22062
3326.60844,0.21946
3328.53691,0.21787
3330.46537,0.21723
3332.39384,0.21650
3334.32231,0.21949
3336.25078,0.22166
3338.17925,0.21761
3340.10772,0.21360
3342.03619,0.21262
3343.96466,0.21177
3345.89312,0.21099
3347.82159,0.21276
3349.75006,0.21629
3351.67853,0.21872
3353.60700,0.22149
3355.53547,0.22211
3357.46394,0.21682
3359.39240,0.21047
3361.32087,0.20591
3363.24934,0.20421
3365.17781,0.20772
3367.10628,0.21114
3369.03475,0.21192
3370.96322,0.21656
3372.89168,0.22291
3374.82015,0.22304
3376.74862,0.22089
3378.67709,0.22208
3380.60556,0.22321
3382.53403,0.22287
3384.46250,0.22199
3386.39097,0.21706
3388.31943,0.21068
3390.24790,0.21205
3392.17637,0.21690
3394.10484,0.21711
3396.03331,0.21818
3397.96178,0.22064
3399.89025,0.21854
3401.81871,0.21313
3403.74718,0.20884
3405.67565,0.20946
3407.60412,0.21230
3409.53259,0.21189
3411.46106,0.20988
3413.38953,0.20808
3415.31800,0.20566
3417.24646,0.20465
3419.17493,0.20627
3421.10340,0.20785
3423.03187,0.20820
3424.96034,0.20995
3426.88881,0.21203
3428.81728,0.21055
3430.74574,0.20771
3432.67421,0.20715
3434.60268,0.20687
3436.53115,0.20520
3438.45962,0.20545
3440.38809,0.20809
3442.31656,0.20863
3444.24503,0.20652
3446.17349,0.20719
3448.10196,0.21186
3450.03043,0.21223
3451.95890,0.20762
3453.88737,0.20457
3455.81584,0.20246
3457.74431,0.20165
3459.67277,0.20442
3461.60124,0.20522
3463.52971,0.19982
3465.45818,0.19465
3467.38665,0.19622
3469.31512,0.19968
3471.24359,0.19785
3473.17206,0.19506
3475.10052,0.19750
3477.02899,0.20069
3478.95746,0.19798
3480.88593,0.19207
3482.81440,0.19006
3484.74287,0.19038
3486.67134,0.18815
3488.59980,0.18503
3490.52827,0.18482
3492.45674,0.18642
3494.38521,0.18610
3496.31368,0.18409
3498.24215,0.18370
3500.17062,0.18504
3502.09909,0.18516
3504.02755,0.18363
3505.95602,0.18362
3507.88449,0.18744
3509.81296,0.19144
3511.74143,0.19018
3513.66990,0.18490
3515.59837,0.17857
3517.52683,0.17457
3519.45530,0.17517
3521.38377,0.17817
3523.31224,0.18003
3525.24071,0.18277
3527.16918,0.18832
3529.09765,0.18703
3531.02611,0.17849
3532.95458,0.17298
3534.88305,0.17068
3536.81152,0.16717
3538.73999,0.16377
3540.66846,0.16534
3542.59693,0.16927
3544.52540,0.17018
3546.45386,0.16855
3548.38233,0.16643
3550.31080,0.16639
3552.23927,0.16924
3554.16774,0.17160
3556.09621,0.17271
3558.02468,0.17413
3559.95314,0.17504
3561.88161,0.17793
3563.81008,0.18379
3565.73855,0.18379
3567.66702,0.17164
3569.59549,0.16029
3571.52396,0.15795
3573.45243,0.15911
3575.38089,0.15727
3577.30936,0.15266
3579.23783,0.15230
3581.16630,0.15919
3583.09477,0.16843
3585.02324,0.17772
3586.95171,0.18336
3588.88017,0.17621
3590.80864,0.16669
3592.73711,0.16296
3594.66558,0.16041
3596.59405,0.15917
3598.52252,0.16192
3600.45099,0.16421
3602.37946,0.16288
3604.30792,0.15807
3606.23639,0.15092
3608.16486,0.14946
3610.09333,0.15904
3612.02180,0.17042
3613.95027,0.17461
3615.87874,0.17397
3617.80720,0.17471
3619.73567,0.16874
3621.66414,0.15313
3623.59261,0.14238
3625.52108,0.14179
3627.44955,0.14740
3629.37802,0.15076
3631.30649,0.14858
3633.23495,0.14671
3635.16342,0.14622
3637.09189,0.14649
3639.02036,0.14702
3640.94883,0.14680
3642.87730,0.14554
3644.80577,0.14588
3646.73423,0.15121
3648.66270,0.15918
3650.59117,0.15760
3652.51964,0.15097
3654.44811,0.14829
3656.37658,0.14692
3658.30505,0.14267
3660.23352,0.13863
3662.16198,0.13776
3664.09045,0.14004
3666.01892,0.14462
3667.94739,0.15047
3669.87586,0.15193
3671.80433,0.14918
3673.73280,0.15550
3675.66126,0.16257
3677.58973,0.15281
3679.51820,0.14407
3681.44667,0.14200
3683.37514,0.14103
3685.30361,0.14157
3687.23208,0.14696
3689.16055,0.15598
3691.08901,0.15606
3693.01748,0.14719
3694.94595,0.14099
3696.87442,0.13857
3698.80289,0.13947
3700.73136,0.14505
3702.65983,0.14967
3704.58829,0.14887
3706.51676,0.14747
3708.44523,0.15167
3710.37370,0.15821
3712.30217,0.15030
3714.23064,0.13861
3716.15911,0.13463
3718.08757,0.13177
3720.01604,0.13077
3721.94451,0.13638
3723.87298,0.14310
3725.80145,0.14104
3727.72992,0.13227
3729.65839,0.13010
3731.58686,0.14108
3733.51532,0.15839
3735.44379,0.16496
3737.37226,0.15647
3739.30073,0.14570
3741.22920,0.13961
3743.15767,0.13899
3745.08614,0.14197
3747.01460,0.14874
3748.94307,0.16208
3750.87154,0.16807
3752.80001,0.15283
3754.72848,0.14234
3756.65695,0.14490
3758.58542,0.15232
3760.51389,0.15130
3762.44235,0.14343
3764.37082,0.13692
3766.29929,0.13591
3768.22776,0.14174
3770.15623,0.14159
3772.08470,0.13092
3774.01317,0.12383
3775.94163,0.12254
3777.87010,0.12355
3779.79857,0.12583
3781.72704,0.12832
3783.65551,0.12990
3785.58398,0.12933
3787.51245,0.12692
3789.44092,0.12484
3791.36938,0.12551
3793.29785,0.13125
3795.22632,0.13958
3797.15479,0.14244
3799.08326,0.14061
3801.01173,0.13824
3802.94020,0.13002
3804.86866,0.12349
3806.79713,0.12463
3808.72560,0.12755
3810.65407,0.12815
3812.58254,0.12729
3814.51101,0.12445
3816.43948,0.12550
3818.36795,0.13810
3820.29641,0.14884
3822.22488,0.13974
3824.15335,0.13245
3826.08182,0.13573
3828.01029,0.13553
3829.93876,0.13084
3831.86723,0.12817
3833.79569,0.13192
3835.72416,0.14163
3837.65263,0.15157
3839.58110,0.15368
3841.50957,0.14445
3843.43804,0.13284
3845.36651,0.12763
3847.29498,0.12801
3849.22344,0.13035
3851.15191,0.12978
3853.08038,0.11612
3855.00885,0.10683
3856.93732,0.11588
3858.86579,0.12511
3860.79426,0.13154
3862.72272,0.13655
3864.65119,0.13509
3866.57966,0.12880
3868.50813,0.12631
3870.43660,0.12882
3872.36507,0.13179
3874.29354,0.12862
3876.22200,0.12076
3878.15047,0.11684
3880.07894,0.11959
3882.00741,0.12746
3883.93588,0.13665
3885.86435,0.14176
3887.79282,0.13787
3889.72129,0.12921
3891.64975,0.12055
3893.57822,0.11688
3895.50669,0.11608
3897.43516,0.11393
3899.36363,0.11610
3901.29210,0.12959
3903.22057,0.14230
3905.14903,0.13708
3907.07750,0.12228
3909.00597,0.11474
3910.93444,0.11420
3912.86291,0.11496
3914.79138,0.11546
3916.71985,0.11522
3918.64832,0.11599
3920.57678,0.11731
3922.50525,0.11823
3924.43372,0.12113
3926.36219,0.12305
3928.29066,0.12045
3930.21913,0.11417
3932.14760,0.10818
3934.07606,0.10847
3936.00453,0.11120
3937.93300,0.11165
3939.86147,0.11321
3941.78994,0.11561
3943.71841,0.11529
3945.64688,0.11590
3947.57535,0.11908
3949.50381,0.11982
3951.43228,0.11593
3953.36075,0.11216
3955.28922,0.11300
3957.21769,0.11456
3959.14616,0.11099
3961.07463,0.10720
3963.00309,0.11014
3964.93156,0.11484
3966.86003,0.11470
3968.78850,0.11375
3970.71697,0.11579
3972.64544,0.11786
3974.57391,0.11767
3976.50238,0.11458
3978.43084,0.10920
3980.35931,0.10326
3982.28778,0.09933
3984.21625,0.10157
3986.14472,0.10863
3988.07319,0.11420
3990.00166,0.11713
3991.93012,0.11769
3993.85859,0.11505
3995.78706,0.11085
3997.71553,0.10709
3999.64400,0.10415
4001.57247,0.10096
4003.50094,0.09770
4005.42941,0.09569
4007.35787,0.09683
4009.28634,0.10035
4011.21481,0.10136
4013.14328,0.09997
4015.07175,0.09999
4017.00022,0.10198
4018.92869,0.10277
4020.85715,0.10135
4022.78562,0.10089
4024.71409,0.10013
4026.64256,0.09625
4028.57103,0.09253
4030.49950,0.09298
4032.42797,0.09603
4034.35644,0.09871
4036.28490,0.10130
4038.21337,0.10255
4040.14184,0.10055
4042.07031,0.10089
4043.99878,0.10546
4045.92725,0.10453
4047.85572,0.09742
4049.78418,0.09266
4051.71265,0.09349
4053.64112,0.10019
4055.56959,0.10789
4057.49806,0.11122
4059.42653,0.11088
4061.35500,0.10842
4063.28346,0.10364
4065.21193,0.09765
4067.14040,0.09387
4069.06887,0.09382
4070.99734,0.09402
4072.92581,0.09166
4074.85428,0.08872
4076.78275,0.08802
4078.71121,0.09152
4080.63968,0.09703
4082.56815,0.09835
4084.49662,0.09630
4086.42509,0.09750
4088.35356,0.10001
4090.28203,0.09685
4092.21049,0.09140
4094.13896,0.09102
4096.06743,0.09379
4097.99590,0.09164
4099.92437,0.08555
4101.85284,0.08357
4103.78131,0.08573
4105.70978,0.08862
4107.63824,0.08945
4109.56671,0.08535
4111.49518,0.07875
4113.42365,0.07616
4115.35212,0.08066
4117.28059,0.08828
4119.20906,0.09472
4121.13752,0.09726
4123.06599,0.09427
4124.99446,0.08970
4126.92293,0.08914
4128.85140,0.09038
4130.77987,0.08869
4132.70834,0.08867
4134.63681,0.09265
4136.56527,0.09141
4138.49374,0.08618
4140.42221,0.08946
4142.35068,0.09411
4144.27915,0.08803
4146.20762,0.07886
4148.13609,0.07355
4150.06455,0.07209
4151.99302,0.07520
4153.92149,0.08116
4155.84996,0.08620
4157.77843,0.08646
4159.70690,0.08544
4161.63537,0.08675
4163.56384,0.08191
4165.49230,0.07187
4167.42077,0.06869
4169.34924,0.07218
4171.27771,0.07768
4173.20618,0.08259
4175.13465,0.08432
4177.06312,0.08371
4178.99158,0.07921
4180.92005,0.07326
4182.84852,0.07288
4184.77699,0.07367
4186.70546,0.06965
4188.63393,0.06723
4190.56240,0.07114
4192.49087,0.07546
4194.41933,0.07386
4196.34780,0.06910
4198.27627,0.06767
4200.20474,0.06813
4202.13321,0.06860
4204.06168,0.07366
4205.99015,0.08244
4207.91861,0.08944
4209.84708,0.09361
4211.77555,0.09289
4213.70402,0.08640
4215.63249,0.08004
4217.56096,0.07640
4219.48943,0.07406
4221.41789,0.07228
4223.34636,0.06892
4225.27483,0.06554
4227.20330,0.06712
4229.13177,0.06933
4231.06024,0.06728
4232.98871,0.06693
4234.91718,0.06872
4236.84564,0.07071
4238.77411,0.07552
4240.70258,0.07585
4242.63105,0.06614
4244.55952,0.05788
4246.48799,0.05963
4248.41646,0.06457
4250.34492,0.06602
4252.27339,0.06569
4254.20186,0.06954
4256.13033,0.07561
4258.05880,0.07388
4259.98727,0.06816
4261.91574,0.06762
4263.84421,0.06732
4265.77267,0.06356
4267.70114,0.06230
4269.62961,0.06372
4271.55808,0.06213
4273.48655,0.06083
4275.41502,0.06534
4277.34349,0.07051
4279.27195,0.06943
4281.20042,0.06258
4283.12889,0.05557
4285.05736,0.05442
4286.98583,0.05695
4288.91430,0.05534
4290.84277,0.05026
4292.77124,0.04749
4294.69970,0.04820
4296.62817,0.05390
4298.55664,0.06125
4300.48511,0.06101
4302.41358,0.05712
4304.34205,0.05908
4306.27052,0.06217
4308.19898,0.06172
4310.12745,0.06146
4312.05592,0.06031
4313.98439,0.05762
4315.91286,0.05675
4317.84133,0.05635
4319.76980,0.05652
4321.69827,0.06042
4323.62673,0.06510
4325.55520,0.06482
4327.48367,0.05879
4329.41214,0.05018
4331.34061,0.04748
4333.26908,0.05505
4335.19755,0.06019
4337.12601,0.05423
4339.05448,0.04658
4340.98295,0.04528
4342.91142,0.04750
4344.83989,0.04989
4346.76836,0.05451
4348.69683,0.06099
4350.62530,0.06321
4352.55376,0.05635
4354.48223,0.04414
4356.41070,0.04044
4358.33917,0.05153
4360.26764,0.06184
4362.19611,0.06089
4364.12458,0.05471
4366.05304,0.04506
4367.98151,0.03525
4369.90998,0.03450
4371.83845,0.04243
4373.76692,0.04958
4375.69539,0.04965
4377.62386,0.04366
4379.55232,0.03851
4381.48079,0.04144
4383.40926,0.04895
4385.33773,0.05369
4387.26620,0.05520
4389.19467,0.05435
4391.12314,0.04914
4393.05161,0.03780
4394.98007,0.02727
4396.90854,0.02835
4398.83701,0.03918
4400.76548,0.04827
4402.69395,0.04921
4404.62242,0.04332
4406.55089,0.03581
4408.47935,0.03126
4410.40782,0.03063
4412.33629,0.03064
4414.26476,0.02802
4416.19323,0.02753
4418.12170,0.03138
4420.05017,0.03396
4421.97864,0.03582
4423.90710,0.03863
4425.83557,0.03893
4427.76404,0.03578
4429.69251,0.03091
4431.62098,0.02727
4433.54945,0.02983
4435.47792,0.03412
4437.40638,0.03074
4439.33485,0.02902
4441.26332,0.03649
4443.19179,0.03975
4445.12026,0.03494
4447.04873,0.02994
4448.97720,0.02408
4450.90567,0.01966
4452.83413,0.02319
4454.76260,0.02425
4456.69107,0.01738
4458.61954,0.02087
4460.54801,0.03386
4462.47648,0.03767
4464.40495,0.03588
4466.33341,0.03694
4468.26188,0.03945
4470.19035,0.04082
4472.11882,0.03735
4474.04729,0.03242
4475.97576,0.03304
4477.90423,0.03151
4479.83270,0.02255
4481.76116,0.01709
4483.68963,0.01753
4485.61810,0.01754
4487.54657,0.01982
4489.47504,0.02536
4491.40351,0.02922
4493.33198,0.03537
4495.26044,0.04215
4497.18891,0.03767
4499.11738,0.02728
4501.04585,0.02127
4502.97432,0.01685
4504.90279,0.01732
4506.83126,0.02856
4508.75973,0.04005
4510.68819,0.03983
4512.61666,0.02982
4514.54513,0.01802
4516.47360,0.01271
4518.40207,0.01216
4520.33054,0.01070
4522.25901,0.01479
4524.18747,0.02484
4526.11594,0.02862
4528.04441,0.02511
4529.97288,0.02110
4531.90135,0.02142
4533.82982,0.02795
4535.75829,0.02983
4537.68676,0.02040
4539.61522,0.01146
4541.54369,0.00984
4543.47216,0.01301
4545.40063,0.01586
4547.32910,0.01228
4549.25757,0.00770
4551.18604,0.00597
4553.11450,0.00719
4555.04297,0.01908
4556.97144,0.03233
4558.89991,0.03289
4560.82838,0.02489
4562.75685,0.01458
4564.68532,0.01139
4566.61378,0.01682
4568.54225,0.01643
4570.47072,0.01106
4572.39919,0.01375
4574.32766,0.01984
4576.25613,0.02095
4578.18460,0.01822
4580.11307,0.01236
4582.04153,0.01059
4583.97000,0.01828
4585.89847,0.02429
4587.82694,0.02114
4589.75541,0.01763
4591.68388,0.01928
4593.61235,0.02186
4595.54081,0.01931
4597.46928,0.01175
4599.39775,0.00804
4601.32622,0.00908
4603.25469,0.00786
4605.18316,0.00237
4607.11163,-0.00111
4609.04010,0.00649
4610.96856,0.02090
4612.89703,0.02735
4614.82550,0.02220
4616.75397,0.01774
4618.68244,0.01911
4620.61091,0.01635
4622.53938,0.01033
4624.46784,0.01203
4626.39631,0.01945
4628.32478,0.02059
4630.25325,0.01338
4632.18172,0.00673
4634.11019,0.00622
4636.03866,0.00935
4637.96713,0.01246
4639.89559,0.01364
4641.82406,0.01560
4643.75253,0.02031
4645.68100,0.01692
4647.60947,0.00507
4649.53794,0.00485
4651.46641,0.01694
4653.39487,0.02261
4655.32334,0.01841
4657.25181,0.01572
4659.18028,0.01832
4661.10875,0.01934
4663.03722,0.01446
4664.96569,0.00680
4666.89416,0.00395
4668.82262,0.00492
4670.75109,-0.00037
4672.67956,-0.00683
4674.60803,-0.00388
4676.53650,0.00052
4678.46497,0.00038
4680.39344,0.00328
4682.32190,0.00590
4684.25037,0.00093
4686.17884,-0.00318
4688.10731,-0.00072
4690.03578,0.00040
4691.96425,0.00227
4693.89272,0.01201
4695.82119,0.01873
4697.74965,0.01533
4699.67812,0.01170
4701.60659,0.01154
4703.53506,0.01064
4705.46353,0.01098
4707.39200,0.00967
4709.32047,-0.00111
4711.24893,-0.00919
4713.17740,-0.00174
4715.10587,0.01099
4717.03434,0.02106
4718.96281,0.02817
4720.89128,0.02681
4722.81975,0.01915
4724.74821,0.01451
4726.67668,0.00777
4728.60515,-0.00131
4730.53362,-0.00260
4732.46209,0.00018
4734.39056,0.00261
4736.31903,0.00293
4738.24750,-0.00149
4740.17596,-0.00184
4742.10443,0.00001
4744.03290,-0.00304
4745.96137,-0.00556
4747.88984,-0.00599
4749.81831,-0.00445
4751.74678,-0.00077
4753.67524,0.00320
4755.60371,0.00462
4757.53218,0.00277
4759.46065,0.00305
4761.38912,0.00672
4763.31759,0.01184
4765.24606,0.01557
4767.17453,0.01388
4769.10299,0.01016
4771.03146,0.01265
4772.95993,0.02455
4774.88840,0.03796
4776.81687,0.04224
4778.74534,0.04045
4780.67381,0.04225
4782.60227,0.04441
4784.53074,0.03708
4786.45921,0.02449
4788.38768,0.01830
4790.31615,0.01682
4792.24462,0.01159
4794.17309,0.00226
4796.10156,-0.00625
4798.03002,-0.00682
4799.95849,-0.00046
4801.88696,0.00036
4803.81543,-0.00530
4805.74390,-0.00483
4807.67237,0.00137
4809.60084,0.00619
4811.52930,0.00664
4813.45777,-0.00030
4815.38624,-0.00681
4817.31471,0.00056
4819.24318,0.01397
4821.17165,0.02165
4823.10012,0.02100
4825.02859,0.01044
4826.95705,0.00797
4828.88552,0.02571
4830.81399,0.03682
4832.74246,0.02299
4834.67093,-0.00385
4836.59940,-0.02021
4838.52787,-0.01523
4840.45633,-0.00766
4842.38480,-0.00770
4844.31327,-0.00230
4846.24174,0.00707
4848.17021,0.00837
4850.09868,0.00248
4852.02715,-0.00466
4853.95562,-0.01006
4855.88408,-0.01182
4857.81255,-0.01035
4859.74102,-0.00770
4861.66949,-0.00767
4863.59796,-0.01108
4865.52643,-0.00746
4867.45490,0.00893
4869.38336,0.02306
4871.31183,0.01946
4873.24030,0.01209
4875.16877,0.01526
4877.09724,0.01621
4879.02571,0.01903
4880.95418,0.03154
4882.88265,0.03568
4884.81111,0.02218
4886.73958,0.00400
4888.66805,-0.00037
4890.59652,0.00742
4892.52499,0.00620
4894.45346,-0.00086
4896.38193,-0.00193
4898.31039,-0.00295
4900.23886,0.00238
4902.16733,0.01375
4904.09580,0.01130
4906.02427,0.00194
4907.95274,0.01241
4909.88121,0.03998
4911.80967,0.04923
4913.73814,0.02622
4915.66661,0.00253
4917.59508,-0.00013
4919.52355,0.00555
4921.45202,0.00971
4923.38049,0.01227
4925.30896,0.00795
4927.23742,0.00133
4929.16589,0.00749
4931.09436,0.02464
4933.02283,0.03208
4934.95130,0.01881
4936.87977,0.00022
4938.80824,-0.00518
4940.73670,-0.00133
4942.66517,0.00671
4944.59364,0.01360
4946.52211,0.00945
4948.45058,0.00303
4950.37905,0.00272
4952.30752,0.00697
4954.23599,0.01451
4956.16445,0.02118
4958.09292,0.02019
4960.02139,0.00884
4961.94986,-0.00415
4963.87833,-0.01328
4965.80680,-0.01608
4967.73527,-0.00660
4969.66373,0.00813
4971.59220,0.01370
4973.52067,0.01286
4975.44914,0.01612
4977.37761,0.02199
4979.30608,0.02118
4981.23455,0.00977
4983.16302,-0.00051
4985.09148,-0.00767
4987.01995,-0.01331
4988.94842,-0.00287
4990.87689,0.01581
4992.80536,0.02320
4994.73383,0.02274
4996.66230,0.02085
4998.59076,0.02335
5000.51923,0.03261
5002.44770,0.03411
5004.37617,0.02560
5006.30464,0.01914
5008.23311,0.01373
5010.16158,0.00646
5012.09005,-0.00423
5014.01851,-0.00819
5015.94698,0.00223
5017.87545,0.00827
5019.80392,0.00389
5021.73239,0.00251
5023.66086,0.00608
5025.58933,0.00960
5027.51779,0.01043
5029.44626,0.00870
5031.37473,0.00829
5033.30320,0.00604
5035.23167,-0.00602
5037.16014,-0.01963
5039.08861,-0.01689
5041.01708,0.00150
5042.94554,0.01698
5044.87401,0.02333
5046.80248,0.02941
5048.73095,0.02998
5050.65942,0.01012
5052.58789,-0.01289
5054.51636,-0.01411
5056.44482,-0.00568
5058.37329,-0.00257
5060.30176,0.00760
5062.23023,0.02968
5064.15870,0.04085
5066.08717,0.03192
5068.01564,0.02485
5069.94410,0.03336
5071.87257,0.04007
5073.80104,0.03164
5075.72951,0.02867
5077.65798,0.04291
5079.58645,0.04958
5081.51492,0.03470
5083.44339,0.02086
5085.37185,0.02112
5087.30032,0.02623
5089.22879,0.03321
5091.15726,0.04388
5093.08573,0.05260
5095.01420,0.04845
5096.94267,0.03708
5098.87113,0.03679
5100.79960,0.04544
5102.72807,0.04705
5104.65654,0.04284
5106.58501,0.05000
5108.51348,0.06686
5110.44195,0.07127
5112.37042,0.05712
5114.29888,0.04710
5116.22735,0.04979
5118.15582,0.04700
5120.08429,0.03914
5122.01276,0.03472
5123.94123,0.03572
5125.86970,0.04622
5127.79816,0.05516
5129.72663,0.05615
5131.65510,0.05735
5133.58357,0.05358
5135.51204,0.04020
5137.44051,0.03016
5139.36898,0.03113
5141.29745,0.03429
5143.22591,0.03452
5145.15438,0.02958
5147.08285,0.01363
5149.01132,-0.00632
5150.93979,-0.01261
5152.86826,0.00230
5154.79673,0.01951
5156.72519,0.01797
5158.65366,0.00819
5160.58213,0.00766
5162.51060,0.01488
5164.43907,0.02128
5166.36754,0.02833
5168.29601,0.03751
5170.22448,0.03943
5172.15294,0.03542
5174.08141,0.04066
5176.00988,0.06216
5177.93835,0.08113
5179.86682,0.06719
5181.79529,0.03135
5183.72376,0.01565
5185.65222,0.03216
5187.58069,0.05557
5189.50916,0.05691
5191.43763,0.03726
5193.36610,0.01968
5195.29457,0.01125
5197.22304,0.00989
5199.15151,0.01572
5201.07997,0.02450
5203.00844,0.03835
5204.93691,0.05359
5206.86538,0.06260
5208.79385,0.07487
5210.72232,0.08219
5212.65079,0.07101
5214.57925,0.05489
5216.50772,0.03862
5218.43619,0.01860
5220.36466,0.01066
5222.29313,0.02746
5224.22160,0.05700
5226.15007,0.07618
5228.07854,0.07697
5230.00700,0.07109
5231.93547,0.06824
5233.86394,0.06895
5235.79241,0.06766
5237.72088,0.05154
5239.64935,0.02454
5241.57782,0.01416
5243.50628,0.01776
5245.43475,0.00966
5247.36322,0.00421
5249.29169,0.02650
5251.22016,0.04978
5253.14863,0.05523
5255.07710,0.05430
5257.00556,0.04138
5258.93403,0.02600
5260.86250,0.03296
5262.79097,0.04794
5264.71944,0.03511
5266.64791,0.00904
5268.57638,0.00681
5270.50485,0.02616
5272.43331,0.04231
5274.36178,0.04404
5276.29025,0.03426
5278.21872,0.02273
5280.14719,0.02263
5282.07566,0.03173
5284.00413,0.04337
5285.93259,0.05187
5287.86106,0.05009
5289.78953,0.04527
5291.71800,0.03754
5293.64647,0.03236
5295.57494,0.03812
5297.50341,0.03779
5299.43188,0.03681
5301.36034,0.05800
5303.28881,0.07968
5305.21728,0.07400
5307.14575,0.04904
5309.07422,0.03190
5311.00269,0.04346
5312.93116,0.06663
5314.85962,0.07655
5316.78809,0.07749
5318.71656,0.07783
5320.64503,0.07665
5322.57350,0.07550
5324.50197,0.06668
5326.43044,0.05006
5328.35891,0.05345
5330.28737,0.07856
5332.21584,0.09333
5334.14431,0.08109
5336.07278,0.06041
5338.00125,0.05657
5339.92972,0.06356
5341.85819,0.07334
5343.78665,0.09526
5345.71512,0.11572
5347.64359,0.11643
5349.57206,0.10912
5351.50053,0.09887
5353.42900,0.08464
5355.35747,0.08025
5357.28594,0.08216
5359.21440,0.07648
5361.14287,0.06356
5363.07134,0.04908
5364.99981,0.05060
5366.92828,0.07273
5368.85675,0.08617
5370.78522,0.08191
5372.71368,0.07730
5374.64215,0.07487
5376.57062,0.08281
5378.49909,0.10153
5380.42756,0.09871
5382.35603,0.07588
5384.28450,0.06996
5386.21297,0.08985
5388.14143,0.10017
5390.06990,0.09227
5391.99837,0.08095
5393.92684,0.06742
5395.85531,0.05197
5397.78378,0.04635
5399.71225,0.05103
5401.64071,0.05927
5403.56918,0.07273
5405.49765,0.08426
5407.42612,0.08338
5409.35459,0.08037
5411.28306,0.07896
5413.21153,0.06670
5415.13999,0.05045
5417.06846,0.04460
5418.99693,0.05259
5420.92540,0.06672
5422.85387,0.07477
5424.78234,0.07587
5426.71081,0.06846
5428.63928,0.05263
5430.56774,0.05190
5432.49621,0.07224
5434.42468,0.08021
5436.35315,0.07009
5438.28162,0.07132
5440.21009,0.08393
5442.13856,0.09451
5444.06702,0.09283
5445.99549,0.07417
5447.92396,0.06014
5449.85243,0.06722
5451.78090,0.06883
5453.70937,0.05114
5455.63784,0.03656
5457.56631,0.04646
5459.49477,0.07152
5461.42324,0.08480
5463.35171,0.07472
5465.28018,0.06122
5467.20865,0.08212
5469.13712,0.12535
5471.06559,0.12052
5472.99405,0.06781
5474.92252,0.03748
5476.85099,0.06520
5478.77946,0.10171
5480.70793,0.10108
5482.63640,0.08309
5484.56487,0.07575
5486.49334,0.06135
5488.42180,0.03809
5490.35027,0.04633
5492.27874,0.09492
5494.20721,0.11931
5496.13568,0.08600
5498.06415,0.04925
5499.99262,0.04731
5501.92108,0.05873
5503.84955,0.05987
5505.77802,0.05228
5507.70649,0.05013
5509.63496,0.06538
5511.56343,0.08706
5513.49190,0.09586
5515.42037,0.08255
5517.34883,0.05522
5519.27730,0.04566
5521.20577,0.06532
5523.13424,0.09524
5525.06271,0.12406
5526.99118,0.13475
5528.91965,0.11239
5530.84811,0.07944
5532.77658,0.07392
5534.70505,0.09345
5536.63352,0.09603
5538.56199,0.07124
5540.49046,0.05271
5542.41893,0.05406
5544.34740,0.06737
5546.27586,0.07563
5548.20433,0.06589
5550.13280,0.05839
5552.06127,0.06344
5553.98974,0.06140
5555.91821,0.05075
5557.84668,0.04865
5559.77514,0.04222
5561.70361,0.02357
5563.63208,0.02887
5565.56055,0.06746
5567.48902,0.10468
5569.41749,0.11680
5571.34596,0.10097
5573.27443,0.06602
5575.20289,0.03961
5577.13136,0.03685
5579.05983,0.04180
5580.98830,0.04999
5582.91677,0.07155
5584.84524,0.09929
5586.77371,0.10936
5588.70217,0.09745
5590.63064,0.07980
5592.55911,0.05472
5594.48758,0.03508
5596.41605,0.04665
5598.34452,0.08688
5600.27299,0.14081
5602.20145,0.16939
5604.12992,0.13875
5606.05839,0.07704
5607.98686,0.03010
5609.91533,0.01826
5611.84380,0.03194
5613.77227,0.04607
5615.70074,0.06144
5617.62920,0.09074
5619.55767,0.12183
5621.48614,0.12428
5623.41461,0.09748
5625.34308,0.08851
5627.27155,0.10794
5629.20002,0.10674
5631.12848,0.08912
5633.05695,0.09466
5634.98542,0.10612
5636.91389,0.09771
5638.84236,0.08779
5640.77083,0.08549
5642.69930,0.07947
5644.62777,0.07111
5646.55623,0.07381
5648.48470,0.08525
5650.41317,0.08125
5652.34164,0.05623
5654.27011,0.03630
5656.19858,0.03609
5658.12705,0.05403
5660.05551,0.08832
5661.98398,0.11160
5663.91245,0.10284
5665.84092,0.09252
5667.76939,0.09732
5669.69786,0.09071
5671.62633,0.07854
5673.55480,0.09369
5675.48326,0.10853
5677.41173,0.08212
5679.34020,0.04657
5681.26867,0.03817
5683.19714,0.05227
5685.12561,0.07047
5687.05408,0.06247
5688.98254,0.02880
5690.91101,0.02001
5692.83948,0.05023
5694.76795,0.08773
5696.69642,0.11309
5698.62489,0.11685
5700.55336,0.09425
5702.48183,0.05314
5704.41029,0.02604
5706.33876,0.04664
5708.26723,0.08255
5710.19570,0.08897
5712.12417,0.09347
5714.05264,0.11941
5715.98111,0.13773
5717.90957,0.13403
5719.83804,0.12058
5721.76651,0.11395
5723.69498,0.11261
5725.62345,0.10186
5727.55192,0.08772
5729.48039,0.07560
5731.40886,0.05352
5733.33732,0.03638
5735.26579,0.06518
5737.19426,0.12352
5739.12273,0.14441
5741.05120,0.13378
5742.97967,0.12322
5744.90814,0.11000
5746.83660,0.10256
5748.76507,0.10238
5750.69354,0.10803
5752.62201,0.12737
5754.55048,0.14808
5756.47895,0.14728
5758.40742,0.10741
5760.33588,0.05118
5762.26435,0.02827
5764.19282,0.04511
5766.12129,0.07893
5768.04976,0.10036
5769.97823,0.08105
5771.90670,0.03792
5773.83517,0.02020
5775.76363,0.04833
5777.69210,0.09445
5779.62057,0.11906
5781.54904,0.12885
5783.47751,0.14284
5785.40598,0.13746
5787.33445,0.09195
5789.26291,0.05113
5791.19138,0.06297
5793.11985,0.08736
5795.04832,0.08640
5796.97679,0.08396
5798.90526,0.07912
5800.83373,0.06383
5802.76220,0.05473
5804.69066,0.05421
5806.61913,0.06623
5808.54760,0.10543
5810.47607,0.14969
5812.40454,0.15570
5814.33301,0.13259
5816.26148,0.11199
5818.18994,0.10185
5820.11841,0.10578
5822.04688,0.10058
5823.97535,0.07752
5825.90382,0.08803
5827.83229,0.13457
5829.76076,0.15093
5831.68923,0.14657
5833.61769,0.16657
5835.54616,0.17063
5837.47463,0.13195
5839.40310,0.08790
5841.33157,0.07791
5843.26004,0.10262
5845.18851,0.12034
5847.11697,0.11968
5849.04544,0.12838
5850.97391,0.12716
5852.90238,0.08072
5854.83085,0.03056
5856.75932,0.01531
5858.68779,0.01041
5860.61626,0.01970
5862.54472,0.04457
5864.47319,0.06142
5866.40166,0.08960
5868.33013,0.11695
5870.25860,0.09958
5872.18707,0.05662
5874.11554,0.05729
5876.04400,0.11978
5877.97247,0.14841
5879.90094,0.10157
5881.82941,0.06553
5883.75788,0.09485
5885.68635,0.15311
5887.61482,0.16488
5889.54329,0.12176
5891.47175,0.09626
5893.40022,0.10602
5895.32869,0.12176
5897.25716,0.14503
5899.18563,0.17069
5901.11410,0.15790
5903.04257,0.09938
5904.97103,0.05035
5906.89950,0.02651
5908.82797,0.02198
5910.75644,0.06395
5912.68491,0.11763
5914.61338,0.13136
5916.54185,0.12423
5918.47032,0.10927
5920.39878,0.09604
5922.32725,0.09815
5924.25572,0.08631
5926.18419,0.03870
5928.11266,0.00227
5930.04113,0.02983
5931.96960,0.07945
5933.89806,0.09045
5935.82653,0.06477
5937.75500,0.03093
5939.68347,0.02898
5941.61194,0.05865
5943.54041,0.06815
5945.46888,0.05632
5947.39734,0.05416
5949.32581,0.06388
5951.25428,0.07967
5953.18275,0.10526
5955.11122,0.13294
5957.03969,0.13415
5958.96816,0.10911
5960.89663,0.08699
5962.82509,0.08127
5964.75356,0.10024
5966.68203,0.11763
5968.61050,0.09037
5970.53897,0.04323
5972.46744,0.00541
5974.39591,-0.01237
5976.32437,0.02038
5978.25284,0.08027
5980.18131,0.12342
5982.10978,0.13813
5984.03825,0.11323
5985.96672,0.06107
5987.89519,0.04175
5989.82366,0.09432
5991.75212,0.14467
5993.68059,0.12265
5995.60906,0.07389
5997.53753,0.03120
5999.46600,0.00155
6001.39447,0.00959
6003.32294,0.05096
6005.25140,0.10173
6007.17987,0.12452
6009.10834,0.11814
6011.03681,0.11528
6012.96528,0.11060
6014.89375,0.09199
6016.82222,0.07549
6018.75069,0.09508
6020.67915,0.13345
6022.60762,0.10186
6024.53609,0.00758
6026.46456,-0.02729
6028.39303,0.03967
6030.32150,0.10106
6032.24997,0.09151
6034.17843,0.06862
6036.10690,0.06488
6038.03537,0.06740
6039.96384,0.07992
6041.89231,0.10630
6043.82078,0.11772
6045.74925,0.10299
6047.67772,0.10172
6049.60618,0.10654
6051.53465,0.08055
6053.46312,0.04773
6055.39159,0.02382
6057.32006,-0.00656
6059.24853,-0.02022
6061.17700,0.01461
6063.10546,0.05808
6065.03393,0.05669
6066.96240,0.05088
6068.89087,0.07779
6070.81934,0.08243
6072.74781,0.04385
6074.67628,0.04961
6076.60475,0.10571
6078.53321,0.08399
6080.46168,-0.00942
6082.39015,-0.03561
6084.31862,0.03208
6086.24709,0.10790
6088.17556,0.12857
6090.10403,0.11643
6092.03249,0.09842
6093.96096,0.09838
6095.88943,0.12772
6097.81790,0.14826
6099.74637,0.13838
6101.67484,0.09264
6103.60331,0.02344
6105.53177,-0.03343
6107.46024,-0.04346
6109.38871,0.00692
6111.31718,0.07920
6113.24565,0.12682
6115.17412,0.13392
6117.10259,0.13181
6119.03106,0.16144
6120.95952,0.17197
6122.88799,0.13423
6124.81646,0.11562
6126.74493,0.13145
6128.67340,0.14690
6130.60187,0.12551
6132.53034,0.04759
6134.45880,0.00766
6136.38727,0.07195
6138.31574,0.14397
6140.24421,0.13205
6142.17268,0.08540
6144.10115,0.07558
6146.02962,0.09085
6147.95809,0.09085
6149.88655,0.04981
6151.81502,0.01646
6153.74349,0.03311
6155.67196,0.04637
6157.60043,0.04022
6159.52890,0.03988
6161.45737,0.06821
6163.38583,0.11489
6165.31430,0.10439
6167.24277,0.03432
6169.17124,-0.00262
6171.09971,0.02331
6173.02818,0.07439
6174.95665,0.10879
6176.88512,0.09847
6178.81358,0.08488
6180.74205,0.09131
6182.67052,0.08990
6184.59899,0.09576
6186.52746,0.11970
6188.45593,0.14266
6190.38440,0.13478
6192.31286,0.09185
6194.24133,0.03511
6196.16980,0.01757
6198.09827,0.06784
6200.02674,0.10993
6201.95521,0.09092
6203.88368,0.03617
6205.81215,0.01750
6207.74061,0.06605
6209.66908,0.12055
6211.59755,0.12765
6213.52602,0.12530
6215.45449,0.16732
6217.38296,0.18698
6219.31143,0.12939
6221.23989,0.08876
6223.16836,0.09563
6225.09683,0.10501
6227.02530,0.12492
6228.95377,0.11935
6230.88224,0.06669
6232.81071,0.06099
6234.73918,0.12286
6236.66764,0.14392
6238.59611,0.10963
6240.52458,0.09852
6242.45305,0.10498
6244.38152,0.09710
6246.30999,0.10265
6248.23846,0.09730
6250.16692,0.06800
6252.09539,0.06314
6254.02386,0.08720
6255.95233,0.10833
6257.88080,0.10219
6259.80927,0.07659
6261.73774,0.05997
6263.66621,0.06486
6265.59467,0.08174
6267.52314,0.09395
6269.45161,0.09218
6271.38008,0.07382
6273.30855,0.05825
6275.23702,0.06071
6277.16549,0.06584
6279.09395,0.08164
6281.02242,0.07904
6282.95089,0.03592
6284.87936,0.02859
6286.80783,0.04451
6288.73630,0.02613
6290.66477,0.00129
6292.59323,-0.00781
6294.52170,0.01107
6296.45017,0.04971
6298.37864,0.08382
6300.30711,0.10877
6302.23558,0.12554
6304.16405,0.12461
6306.09252,0.10128
6308.02098,0.10243
6309.94945,0.14256
6311.87792,0.19999
6313.80639,0.25236
6315.73486,0.26059
6317.66333,0.25789
6319.59180,0.26381
6321.52026,0.21521
6323.44873,0.13761
6325.37720,0.10595
6327.30567,0.09344
6329.23414,0.09709
6331.16261,0.15765
6333.09108,0.20732
6335.01955,0.17528
6336.94801,0.10960
6338.87648,0.07249
6340.80495,0.07892
6342.73342,0.11398
6344.66189,0.15178
6346.59036,0.17699
6348.51883,0.17861
6350.44729,0.15406
6352.37576,0.13425
6354.30423,0.12108
6356.23270,0.07636
6358.16117,0.01564
6360.08964,0.01274
6362.01811,0.06087
6363.94658,0.06616
6365.87504,0.04363
6367.80351,0.08686
6369.73198,0.14677
6371.66045,0.15002
6373.58892,0.12891
6375.51739,0.10264
6377.44586,0.08225
6379.37432,0.07184
6381.30279,0.04487
6383.23126,0.03547
6385.15973,0.05828
6387.08820,0.05539
6389.01667,0.02985
6390.94514,0.02970
6392.87361,0.08964
6394.80207,0.14123
6396.73054,0.11954
6398.65901,0.08286
6400.58748,0.08336
6402.51595,0.10716
6404.44442,0.12755
6406.37289,0.14967
6408.30135,0.16622
6410.22982,0.17465
6412.15829,0.16795
6414.08676,0.12480
6416.01523,0.08972
6417.94370,0.11255
6419.87217,0.15696
6421.80064,0.17371
6423.72910,0.16898
6425.65757,0.12495
6427.58604,0.03928
6429.51451,-0.01301
6431.44298,-0.00516
6433.37145,0.00758
6435.29992,0.01832
6437.22838,0.04379
6439.15685,0.05647
6441.08532,0.05507
6443.01379,0.05977
6444.94226,0.05543
6446.87073,0.06938
6448.79920,0.12888
6450.72766,0.16269
6452.65613,0.13222
6454.58460,0.07850
6456.51307,0.02341
6458.44154,0.00046
6460.37001,0.03246
6462.29848,0.10451
6464.22695,0.15004
6466.15541,0.11776
6468.08388,0.06322
6470.01235,0.04573
6471.94082,0.07616
6473.86929,0.12630
6475.79776,0.13777
6477.72623,0.10340
6479.65469,0.06105
6481.58316,0.03811
6483.51163,0.01991
6485.44010,-0.02332
6487.36857,-0.06006
6489.29704,-0.03102
6491.22551,0.04156
6493.15398,0.06382
6495.08244,0.05115
6497.01091,0.07332
6498.93938,0.08203
6500.86785,0.03475
6502.79632,0.00879
6504.72479,0.04218
6506.65326,0.04036
6508.58172,-0.02920
6510.51019,-0.04623
6512.43866,0.01717
6514.36713,0.06038
6516.29560,0.07293
6518.22407,0.05977
6520.15254,0.02452
6522.08101,0.01758
6524.00947,0.05336
6525.93794,0.06771
6527.86641,0.04120
6529.79488,0.04418
6531.72335,0.08738
6533.65182,0.10157
6535.58029,0.06442
6537.50875,0.04491
6539.43722,0.08176
6541.36569,0.10561
6543.29416,0.07600
6545.22263,0.05424
6547.15110,0.06034
6549.07957,0.04607
6551.00804,-0.00054
6552.93650,-0.03672
6554.86497,-0.03517
6556.79344,-0.00815
6558.72191,0.06121
6560.65038,0.17272
6562.57885,0.20615
6564.50732,0.12689
6566.43578,0.08765
6568.36425,0.13217
6570.29272,0.16218
6572.22119,0.14691
6574.14966,0.13322
6576.07813,0.15403
6578.00660,0.16325
6579.93507,0.11781
6581.86353,0.05267
6583.79200,0.02223
6585.72047,0.04752
6587.64894,0.09295
6589.57741,0.09388
6591.50588,0.05098
6593.43435,0.03795
6595.36281,0.05710
6597.29128,0.06358
6599.21975,0.08697
6601.14822,0.11616
6603.07669,0.07922
6605.00516,-0.01031
6606.93363,-0.05830
6608.86210,-0.02172
6610.79056,0.02960
6612.71903,0.04403
6614.64750,0.06206
6616.57597,0.11469
6618.50444,0.14393
6620.43291,0.10473
6622.36138,0.05151
6624.28984,0.05376
6626.21831,0.06465
6628.14678,0.01014
6630.07525,-0.07591
6632.00372,-0.10545
6633.93219,-0.02991
6635.86066,0.11464
6637.78912,0.20024
6639.71759,0.20676
6641.64606,0.19645
6643.57453,0.15408
6645.50300,0.05565
6647.43147,-0.03349
6649.35994,-0.04332
6651.28841,0.02067
6653.21687,0.10876
6655.14534,0.15036
6657.07381,0.12753
6659.00228,0.12113
6660.93075,0.14167
6662.85922,0.10371
6664.78769,0.02573
6666.71615,-0.01602
6668.64462,0.00974
6670.57309,0.09919
6672.50156,0.17213
6674.43003,0.14364
6676.35850,0.08109
6678.28697,0.06716
6680.21544,0.10896
6682.14390,0.17422
6684.07237,0.22577
6686.00084,0.25169
6687.92931,0.23178
6689.85778,0.15669
6691.78625,0.12740
6693.71472,0.18348
6695.64318,0.21943
6697.57165,0.17793
6699.50012,0.15446
6701.42859,0.18318
6703.35706,0.15442
6705.28553,0.02326
6707.21400,-0.06233
6709.14247,-0.03164
6711.07093,-0.01854
6712.99940,-0.06707
6714.92787,-0.09855
6716.85634,-0.06778
6718.78481,-0.00907
6720.71328,0.01498
6722.64175,-0.01921
6724.57021,-0.04558
6726.49868,-0.02592
6728.42715,0.02255
6730.35562,0.10022
6732.28409,0.14972
6734.21256,0.09232
6736.14103,0.01623
6738.06950,0.05904
6739.99796,0.12402
6741.92643,0.08739
6743.85490,0.04729
6745.78337,0.05435
6747.71184,0.01924
6749.64031,-0.06793
6751.56878,-0.10050
6753.49724,-0.05202
6755.42571,0.02241
6757.35418,0.11783
6759.28265,0.19199
6761.21112,0.16946
6763.13959,0.10459
6765.06806,0.06229
6766.99653,0.08446
6768.92499,0.14375
6770.85346,0.09210
6772.78193,-0.06426
6774.71040,-0.13204
6776.63887,-0.05357
6778.56734,0.00238
6780.49581,0.00742
6782.42427,0.06166
6784.35274,0.11152
6786.28121,0.10198
6788.20968,0.11963
6790.13815,0.16557
6792.06662,0.16057
6793.99509,0.08918
6795.92355,-0.03423
6797.85202,-0.11439
6799.78049,-0.08053
6801.70896,-0.01591
6803.63743,-0.00769
6805.56590,-0.00004
6807.49437,0.04858
6809.42284,0.09208
6811.35130,0.09274
6813.27977,0.06851
6815.20824,0.04645
6817.13671,0.02681
6819.06518,0.04333
6820.99365,0.09415
6822.92212,0.14617
6824.85058,0.17439
6826.77905,0.14653
6828.70752,0.09354
6830.63599,0.06796
6832.56446,0.02823
6834.49293,-0.03292
6836.42140,-0.02792
6838.34987,0.01174
6840.27833,-0.00803
6842.20680,-0.00994
6844.13527,0.03331
6846.06374,0.06841
6847.99221,0.12476
6849.92068,0.15590
6851.84915,0.11113
6853.77761,0.07783
6855.70608,0.05213
6857.63455,-0.00611
6859.56302,-0.05049
6861.49149,-0.02407
6863.41996,0.11455
6865.34843,0.26321
6867.27690,0.22358
6869.20536,0.03408
6871.13383,-0.09328
6873.06230,-0.08451
6874.99077,-0.00083
6876.91924,0.07609
6878.84771,0.10045
6880.77618,0.04751
6882.70464,-0.02418
6884.63311,-0.00917
6886.56158,0.07932
6888.49005,0.11380
6890.41852,0.07991
6892.34699,0.10257
6894.27546,0.16222
6896.20393,0.14633
6898.13239,0.10023
6900.06086,0.07411
6901.98933,0.03040
6903.91780,-0.01478
6905.84627,-0.07595
6907.77474,-0.17378
6909.70321,-0.16572
6911.63167,0.00340
6913.56014,0.16762
6915.48861,0.25033
6917.41708,0.27016
6919.34555,0.18666
6921.27402,0.10052
6923.20249,0.14411
6925.13096,0.24359
6927.05942,0.24194
6928.98789,0.14354
6930.91636,0.13916
6932.84483,0.25851
6934.77330,0.30965
6936.70177,0.27896
6938.63024,0.26003
6940.55870,0.23727
6942.48717,0.13207
6944.41564,0.04900
6946.34411,0.09416
6948.27258,0.14995
6950.20105,0.11512
6952.12952,0.03677
6954.05799,-0.08874
6955.98645,-0.19137
6957.91492,-0.07439
6959.84339,0.14688
6961.77186,0.19157
6963.70033,0.13545
6965.62880,0.14193
6967.55727,0.12679
6969.48573,0.03073
6971.41420,-0.04486
6973.34267,-0.01914
6975.27114,0.09307
6977.19961,0.16422
6979.12808,0.11393
6981.05655,0.06563
6982.98501,0.11942
6984.91348,0.15859
6986.84195,0.10904
6988.77042,0.09410
6990.69889,0.14471
6992.62736,0.18530
6994.55583,0.22709
6996.48430,0.26028
6998.41276,0.24304
7000.34123,0.21452
7002.26970,0.22921
7004.19817,0.25796
7006.12664,0.24362
7008.05511,0.20619
7009.98358,0.13935
7011.91204,0.05766
7013.84051,0.03041
7015.76898,-0.02438
7017.69745,-0.13119
7019.62592,-0.15509
7021.55439,-0.12401
7023.48286,-0.13080
7025.41133,-0.06704
7027.33979,0.06062
7029.26826,0.03726
7031.19673,0.01383
7033.12520,0.19689
7035.05367,0.27726
7036.98214,0.08909
7038.91061,-0.03387
7040.83907,0.00813
7042.76754,0.13444
7044.69601,0.26233
7046.62448,0.26979
7048.55295,0.14235
7050.48142,0.02004
7052.40989,-0.04017
7054.33836,-0.09659
7056.26682,-0.11864
7058.19529,-0.04786
7060.12376,0.03913
7062.05223,0.13669
7063.98070,0.26277
7065.90917,0.32472
7067.83764,0.25779
7069.76610,0.09525
7071.69457,-0.01276
7073.62304,0.00141
7075.55151,0.06451
7077.47998,0.13688
7079.40845,0.17526
7081.33692,0.06050
7083.26539,-0.15777
7085.19385,-0.28404
7087.12232,-0.23641
7089.05079,0.00406
7090.97926,0.26398
7092.90773,0.33285
7094.83620,0.25884
7096.76467,0.19152
7098.69313,0.15164
7100.62160,0.18385
7102.55007,0.22467
7104.47854,0.19925
7106.40701,0.17880
7108.33548,0.15973
7110.26395,0.08983
7112.19242,0.03927
7114.12088,-0.01858
7116.04935,-0.19860
7117.97782,-0.28643
7119.90629,-0.04742
7121.83476,0.17302
7123.76323,0.15984
7125.69170,-0.00102
7127.62016,-0.13873
7129.54863,-0.10144
7131.47710,0.08621
7133.40557,0.23848
7135.33404,0.25863
7137.26251,0.21424
7139.19098,0.15651
7141.11944,0.12981
7143.04791,0.11234
7144.97638,0.08007
7146.90485,0.13968
7148.83332,0.20702
7150.76179,0.10258
7152.69026,-0.11130
7154.61873,-0.19731
7156.54719,-0.17133
7158.47566,-0.12071
7160.40413,0.01720
7162.33260,0.15576
7164.26107,0.14693
7166.18954,-0.00322
7168.11801,-0.14280
7170.04647,-0.14309
7171.97494,-0.05974
7173.90341,0.01771
7175.83188,0.10102
7177.76035,0.18049
7179.68882,0.21403
7181.61729,0.20523
7183.54576,0.20286
7185.47422,0.20443
7187.40269,0.15032
7189.33116,0.12763
7191.25963,0.18981
7193.18810,0.14289
7195.11657,0.01709
7197.04504,0.03606
7198.97350,0.17286
7200.90197,0.20759
7202.83044,0.07233
7204.75891,-0.03164
7206.68738,-0.01953
7208.61585,-0.01610
7210.54432,0.05835
7212.47279,0.15192
7214.40125,0.15120
7216.32972,0.11257
7218.25819,0.09538
7220.18666,0.09374
7222.11513,0.10667
7224.04360,0.10343
7225.97207,0.05684
7227.90053,0.02361
7229.82900,0.08191
7231.75747,0.10252
7233.68594,-0.08095
7235.61441,-0.23664
7237.54288,-0.14055
7239.47135,0.01164
7241.39982,0.00147
7243.32828,0.01730
7245.25675,0.14654
7247.18522,0.19689
7249.11369,0.16800
7251.04216,0.15893
7252.97063,0.15279
7254.89910,0.07640
7256.82756,0.05102
7258.75603,0.13106
7260.68450,0.19323
7262.61297,0.08569
7264.54144,-0.09473
7266.46991,-0.15577
7268.39838,-0.09829
7270.32685,0.00063
7272.25531,0.09145
7274.18378,0.08891
7276.11225,0.07741
7278.04072,0.05381
7279.96919,-0.02885
7281.89766,-0.03255
7283.82613,-0.00899
7285.75459,0.03328
7287.68306,0.17166
7289.61153,0.29284
7291.54000,0.26830
7293.46847,0.22875
7295.39694,0.28510
7297.32541,0.31189
7299.25387,0.27864
7301.18234,0.25588
7303.11081,0.20976
7305.03928,0.10034
7306.96775,-0.01573
7308.89622,-0.06422
7310.82469,0.02217
7312.75316,0.16091
7314.68162,0.21914
7316.61009,0.17751
7318.53856,0.08878
7320.46703,0.00681
7322.39550,0.04646
7324.32397,0.19308
7326.25244,0.17491
7328.18090,0.00529
7330.10937,-0.03782
7332.03784,0.01165
7333.96631,0.00377
7335.89478,-0.04235
7337.82325,-0.12718
7339.75172,-0.14116
7341.68019,0.13321
7343.60865,0.39131
7345.53712,0.37305
7347.46559,0.16818
7349.39406,0.08830
7351.32253,0.12657
7353.25100,0.05733
7355.17947,-0.00561
7357.10793,0.16073
7359.03640,0.49086
7360.96487,0.66067
7362.89334,0.50662
7364.82181,0.18931
7366.75028,0.02986
7368.67875,0.14593
7370.60722,0.30427
7372.53568,0.26814
7374.46415,0.03204
7376.39262,-0.06092
7378.32109,0.11099
7380.24956,0.23984
7382.17803,0.23096
7384.10650,0.15600
7386.03496,0.14554
7387.96343,0.21522
7389.89190,0.24999
7391.82037,0.24819
7393.74884,0.23697
7395.67731,0.21777
7397.60578,0.18726
7399.53425,0.14006
7401.46271,0.07208
7403.39118,0.01068
7405.31965,0.05688
7407.24812,0.12512
7409.17659,0.05614
7411.10506,-0.03498
7413.03353,-0.07094
7414.96199,-0.07978
7416.89046,-0.05072
7418.81893,-0.06490
7420.74740,-0.16605
7422.67587,-0.21772
7424.60434,-0.23452
7426.53281,-0.24910
7428.46128,-0.21056
7430.38974,-0.04612
7432.31821,0.13825
7434.24668,0.17448
7436.17515,0.12435
7438.10362,0.18761
7440.03209,0.35017
7441.96056,0.39668
7443.88902,0.30774
7445.81749,0.21617
7447.74596,0.10015
7449.67443,-0.01580
7451.60290,-0.06247
7453.53137,-0.10605
7455.45984,-0.11265
7457.38831,-0.07964
7459.31677,-0.08100
7461.24524,-0.12099
7463.17371,-0.13494
7465.10218,-0.08661
7467.03065,0.02082
7468.95912,0.14557
7470.88759,0.20661
7472.81605,0.08885
7474.74452,0.00830
7476.67299,0.12699
7478.60146,0.16462
7480.52993,-0.04363
7482.45840,-0.17962
7484.38687,-0.14399
7486.31533,-0.03623
7488.24380,0.16577
7490.17227,0.33537
7492.10074,0.31344
7494.02921,0.17532
7495.95768,0.00429
7497.88615,-0.09127
