399.19301,0.42385
401.12148,1.11700
403.04995,0.90297
404.97842,0.46221
406.90689,0.17327
408.83536,0.02066
410.76382,-0.09300
412.69229,-0.06337
414.62076,0.10045
416.54923,0.16765
418.47770,0.07494
420.40617,0.03387
422.33464,0.04752
424.26311,-0.01671
426.19157,-0.08786
428.12004,-0.08315
430.04851,-0.00616
431.97698,0.12232
433.90545,0.17742
435.83392,0.16016
437.76239,0.18475
439.69085,0.20923
441.61932,0.16762
443.54779,0.12348
445.47626,0.12312
447.40473,0.14623
449.33320,0.15117
451.26167,0.14286
453.19013,0.17000
455.11860,0.20677
457.04707,0.17841
458.97554,0.09318
460.90401,0.07382
462.83248,0.14785
464.76095,0.22011
466.68942,0.21823
468.61788,0.18061
470.54635,0.15346
472.47482,0.11913
474.40329,0.08079
476.33176,0.07940
478.26023,0.08576
480.18870,0.09603
482.11716,0.10274
484.04563,0.11274
485.97410,0.12211
487.90257,0.09771
489.83104,0.07381
491.75951,0.07766
493.68798,0.08652
495.61645,0.10155
497.54491,0.12506
499.47338,0.13563
501.40185,0.11864
503.33032,0.08923
505.25879,0.09046
507.18726,0.11660
509.11573,0.11073
511.04419,0.09607
512.97266,0.10856
514.90113,0.12416
516.82960,0.15664
518.75807,0.18305
520.68654,0.15855
522.61501,0.15528
524.54348,0.18164
526.47194,0.15633
528.40041,0.10871
530.32888,0.09467
532.25735,0.10786
534.18582,0.12295
536.11429,0.12073
538.04276,0.10568
539.97122,0.09134
541.89969,0.08161
543.82816,0.07307
545.75663,0.06889
547.68510,0.06883
549.61357,0.08089
551.54204,0.12577
553.47051,0.16870
555.39897,0.16669
557.32744,0.13747
559.25591,0.10432
561.18438,0.08516
563.11285,0.11320
565.04132,0.16461
566.96979,0.17464
568.89825,0.15662
570.82672,0.15537
572.75519,0.15886
574.68366,0.14878
576.61213,0.12473
578.54060,0.09496
580.46907,0.08049
582.39754,0.09652
584.32600,0.12962
586.25447,0.15597
588.18294,0.16199
590.11141,0.15104
592.03988,0.13528
593.96835,0.12692
595.89682,0.13449
597.82528,0.15006
599.75375,0.15068
601.68222,0.13764
603.61069,0.13626
605.53916,0.13696
607.46763,0.11754
609.39610,0.09351
611.32456,0.09252
613.25303,0.11710
615.18150,0.13653
617.10997,0.13835
619.03844,0.14987
620.96691,0.16418
622.89538,0.14968
624.82385,0.12116
626.75231,0.11048
628.68078,0.12895
630.60925,0.15077
632.53772,0.13878
634.46619,0.10777
636.39466,0.09229
638.32313,0.09157
640.25159,0.08751
642.18006,0.08559
644.10853,0.09640
646.03700,0.10459
647.96547,0.11720
649.89394,0.13273
651.82241,0.12790
653.75088,0.13064
655.67934,0.14968
657.60781,0.14825
659.53628,0.13819
661.46475,0.14159
663.39322,0.14409
665.32169,0.14501
667.25016,0.16124
669.17862,0.17457
671.10709,0.14945
673.03556,0.13823
674.96403,0.15376
676.89250,0.15365
678.82097,0.13194
680.74944,0.11101
682.67791,0.10027
684.60637,0.11237
686.53484,0.12939
688.46331,0.12883
690.39178,0.13340
692.32025,0.14793
694.24872,0.15118
696.17719,0.14333
698.10565,0.13294
700.03412,0.11855
701.96259,0.10779
703.89106,0.11272
705.81953,0.12070
707.74800,0.08618
709.67647,-0.05591
711.60494,-0.19886
713.53340,-0.12495
715.46187,0.06172
717.39034,0.13121
719.31881,0.11812
721.24728,0.12114
723.17575,0.14489
725.10422,0.16128
727.03268,0.15272
728.96115,0.12711
730.88962,0.11325
732.81809,0.12085
734.74656,0.12991
736.67503,0.13383
738.60350,0.13242
740.53197,0.12682
742.46043,0.12914
744.38890,0.13603
746.31737,0.13410
748.24584,0.12707
750.17431,0.12520
752.10278,0.12875
754.03125,0.13223
755.95971,0.13081
757.88818,0.12949
759.81665,0.13383
761.74512,0.13992
763.67359,0.14866
765.60206,0.15712
767.53053,0.15469
769.45900,0.14916
771.38746,0.15292
773.31593,0.15322
775.24440,0.13842
777.17287,0.12179
779.10134,0.11551
781.02981,0.11848
782.95828,0.12613
784.88674,0.13132
786.81521,0.13546
788.74368,0.14585
790.67215,0.15822
792.60062,0.16215
794.52909,0.15768
796.45756,0.15399
798.38602,0.14983
800.31449,0.14293
802.24296,0.14122
804.17143,0.14428
806.09990,0.14395
808.02837,0.14059
809.95684,0.13991
811.88531,0.14440
813.81377,0.15168
815.74224,0.15384
817.67071,0.14437
819.59918,0.12676
821.52765,0.11016
823.45612,0.09867
825.38459,0.10029
827.31305,0.11856
829.24152,0.13480
831.16999,0.13959
833.09846,0.13687
835.02693,0.12960
836.95540,0.12830
838.88387,0.13528
840.81234,0.14058
842.74080,0.14460
844.66927,0.15141
846.59774,0.15145
848.52621,0.14025
850.45468,0.13172
852.38315,0.13874
854.31162,0.15407
856.24008,0.16035
858.16855,0.15701
860.09702,0.15375
862.02549,0.14872
863.95396,0.13930
865.88243,0.13032
867.81090,0.12339
869.73937,0.12261
871.66783,0.13054
873.59630,0.13989
875.52477,0.14553
877.45324,0.14869
879.38171,0.15163
881.31018,0.15250
883.23865,0.15252
885.16711,0.15662
887.09558,0.15687
889.02405,0.14684
890.95252,0.13669
892.88099,0.13009
894.80946,0.12841
896.73793,0.13731
898.66640,0.14612
900.59486,0.14920
902.52333,0.15405
904.45180,0.15411
906.38027,0.14599
908.30874,0.14666
910.23721,0.15569
912.16568,0.15129
914.09414,0.14222
916.02261,0.14753
917.95108,0.15560
919.87955,0.15634
921.80802,0.15426
923.73649,0.15134
925.66496,0.14596
927.59343,0.13827
929.52189,0.13569
931.45036,0.14194
933.37883,0.14717
935.30730,0.14388
937.23577,0.13803
939.16424,0.13946
941.09271,0.14796
943.02117,0.15455
944.94964,0.15557
946.87811,0.15381
948.80658,0.15458
950.73505,0.15994
952.66352,0.16322
954.59199,0.15984
956.52045,0.15225
958.44892,0.14187
960.37739,0.13177
962.30586,0.13072
964.23433,0.14058
966.16280,0.15066
968.09127,0.15433
970.01974,0.15267
971.94820,0.14783
973.87667,0.14301
975.80514,0.13888
977.73361,0.13596
979.66208,0.13890
981.59055,0.14591
983.51902,0.14702
985.44748,0.14866
987.37595,0.16278
989.30442,0.17277
991.23289,0.16491
993.16136,0.15573
995.08983,0.15037
997.01830,0.14213
998.94677,0.14067
1000.87523,0.14811
1002.80370,0.15391
1004.73217,0.15563
1006.66064,0.15839
1008.58911,0.16455
1010.51758,0.17032
1012.44605,0.17318
1014.37451,0.17187
1016.30298,0.16699
1018.23145,0.16317
1020.15992,0.16082
1022.08839,0.15289
1024.01686,0.13843
1025.94533,0.13121
1027.87380,0.13976
1029.80226,0.15533
1031.73073,0.16376
1033.65920,0.16253
1035.58767,0.16109
1037.51614,0.16457
1039.44461,0.16582
1041.37308,0.16004
1043.30154,0.15503
1045.23001,0.15347
1047.15848,0.15142
1049.08695,0.15263
1051.01542,0.16120
1052.94389,0.17050
1054.87236,0.16972
1056.80083,0.16305
1058.72929,0.16314
1060.65776,0.17030
1062.58623,0.17396
1064.51470,0.16965
1066.44317,0.16396
1068.37164,0.16035
1070.30011,0.15964
1072.22857,0.16199
1074.15704,0.16175
1076.08551,0.15789
1078.01398,0.15640
1079.94245,0.16018
1081.87092,0.16444
1083.79939,0.16523
1085.72786,0.16446
1087.65632,0.16663
1089.58479,0.17218
1091.51326,0.17326
1093.44173,0.17072
1095.37020,0.17159
1097.29867,0.17480
1099.22714,0.17527
1101.15560,0.16840
1103.08407,0.15774
1105.01254,0.14985
1106.94101,0.14740
1108.86948,0.14816
1110.79795,0.14776
1112.72642,0.14886
1114.65489,0.15492
1116.58335,0.15860
1118.51182,0.15553
1120.44029,0.15702
1122.36876,0.15804
1124.29723,0.14787
1126.22570,0.14335
1128.15417,0.15177
1130.08263,0.15672
1132.01110,0.15192
1133.93957,0.14889
1135.86804,0.15540
1137.79651,0.15945
1139.72498,0.15382
1141.65345,0.15189
1143.58191,0.15886
1145.51038,0.16643
1147.43885,0.17010
1149.36732,0.16894
1151.29579,0.16605
1153.22426,0.16637
1155.15273,0.16999
1157.08120,0.17173
1159.00966,0.16851
1160.93813,0.16601
1162.86660,0.16617
1164.79507,0.16257
1166.72354,0.15832
1168.65201,0.16153
1170.58048,0.16664
1172.50894,0.16751
1174.43741,0.16836
1176.36588,0.17149
1178.29435,0.17203
1180.22282,0.16712
1182.15129,0.16331
1184.07976,0.16501
1186.00823,0.16891
1187.93669,0.17143
1189.86516,0.17022
1191.79363,0.16648
1193.72210,0.16256
1195.65057,0.15865
1197.57904,0.15580
1199.50751,0.15567
1201.43597,0.15769
1203.36444,0.15836
1205.29291,0.15788
1207.22138,0.15927
1209.14985,0.16145
1211.07832,0.16495
1213.00679,0.16912
1214.93526,0.16791
1216.86372,0.16203
1218.79219,0.15824
1220.72066,0.15938
1222.64913,0.16437
1224.57760,0.16801
1226.50607,0.16715
1228.43454,0.16738
1230.36300,0.17223
1232.29147,0.17476
1234.21994,0.16990
1236.14841,0.16444
1238.07688,0.16401
1240.00535,0.16373
1241.93382,0.16003
1243.86229,0.15508
1245.79075,0.15025
1247.71922,0.14979
1249.64769,0.15599
1251.57616,0.16051
1253.50463,0.15921
1255.43310,0.15884
1257.36157,0.16057
1259.29003,0.15850
1261.21850,0.15618
1263.14697,0.16051
1265.07544,0.16394
1267.00391,0.15934
1268.93238,0.15621
1270.86085,0.16229
1272.78932,0.16891
1274.71778,0.16808
1276.64625,0.16596
1278.57472,0.16725
1280.50319,0.16579
1282.43166,0.16043
1284.36013,0.15747
1286.28860,0.15664
1288.21706,0.15813
1290.14553,0.16195
1292.07400,0.16145
1294.00247,0.15845
1295.93094,0.15613
1297.85941,0.14991
1299.78788,0.13790
1301.71634,0.11696
1303.64481,0.09455
1305.57328,0.09841
1307.50175,0.13139
1309.43022,0.15939
1311.35869,0.16851
1313.28716,0.17088
1315.21563,0.17173
1317.14409,0.17211
1319.07256,0.17034
1321.00103,0.16617
1322.92950,0.16401
1324.85797,0.15818
1326.78644,0.14934
1328.71491,0.14773
1330.64337,0.14619
1332.57184,0.14366
1334.50031,0.14925
1336.42878,0.15534
1338.35725,0.15693
1340.28572,0.14824
1342.21419,0.12738
1344.14266,0.11188
1346.07112,0.11388
1347.99959,0.13363
1349.92806,0.15283
1351.85653,0.15807
1353.78500,0.15839
1355.71347,0.15748
1357.64194,0.15509
1359.57040,0.15623
1361.49887,0.16294
1363.42734,0.16748
1365.35581,0.16589
1367.28428,0.16594
1369.21275,0.16733
1371.14122,0.16864
1373.06969,0.17230
1374.99815,0.17566
1376.92662,0.17874
1378.85509,0.18285
1380.78356,0.18098
1382.71203,0.17373
1384.64050,0.17326
1386.56897,0.18103
1388.49743,0.18588
1390.42590,0.18614
1392.35437,0.18913
1394.28284,0.19661
1396.21131,0.20103
1398.13978,0.19395
1400.06825,0.18205
1401.99672,0.17859
1403.92518,0.18367
1405.85365,0.18819
1407.78212,0.18548
1409.71059,0.17904
1411.63906,0.17488
1413.56753,0.17662
1415.49600,0.18393
1417.42446,0.19158
1419.35293,0.19169
1421.28140,0.18810
1423.20987,0.18775
1425.13834,0.18670
1427.06681,0.18421
1428.99528,0.18341
1430.92375,0.18276
1432.85221,0.18245
1434.78068,0.18628
1436.70915,0.19024
1438.63762,0.18679
1440.56609,0.18208
1442.49456,0.18024
1444.42303,0.18266
1446.35149,0.18964
1448.27996,0.19577
1450.20843,0.19732
1452.13690,0.19874
1454.06537,0.20417
1455.99384,0.21304
1457.92231,0.20872
1459.85077,0.19363
1461.77924,0.18894
1463.70771,0.19083
1465.63618,0.18959
1467.56465,0.18772
1469.49312,0.19574
1471.42159,0.21611
1473.35006,0.23025
1475.27852,0.21617
1477.20699,0.19622
1479.13546,0.18848
1481.06393,0.18947
1482.99240,0.18977
1484.92087,0.19241
1486.84934,0.20425
1488.77780,0.21626
1490.70627,0.20995
1492.63474,0.19622
1494.56321,0.19029
1496.49168,0.19211
1498.42015,0.19188
1500.34862,0.17880
1502.27709,0.16297
1504.20555,0.16670
1506.13402,0.20835
1508.06249,0.23460
1509.99096,0.21398
1511.91943,0.20198
1513.84790,0.20490
1515.77637,0.21482
1517.70483,0.22235
1519.63330,0.22774
1521.56177,0.22771
1523.49024,0.21655
1525.41871,0.20836
1527.34718,0.20305
1529.27565,0.19576
1531.20412,0.19345
1533.13258,0.20069
1535.06105,0.21023
1536.98952,0.21990
1538.91799,0.23421
1540.84646,0.23837
1542.77493,0.22670
1544.70340,0.21567
1546.63186,0.20574
1548.56033,0.19908
1550.48880,0.19575
1552.41727,0.19622
1554.34574,0.20171
1556.27421,0.21326
1558.20268,0.23082
1560.13115,0.22360
1562.05961,0.20523
1563.98808,0.19778
1565.91655,0.19609
1567.84502,0.19723
1569.77349,0.19760
1571.70196,0.19171
1573.63043,0.18783
1575.55889,0.19189
1577.48736,0.19413
1579.41583,0.18857
1581.34430,0.18278
1583.27277,0.18056
1585.20124,0.18255
1587.12971,0.18504
1589.05818,0.18451
1590.98664,0.18368
1592.91511,0.18489
1594.84358,0.18613
1596.77205,0.18680
1598.70052,0.18629
1600.62899,0.18470
1602.55746,0.18398
1604.48592,0.18393
1606.41439,0.18320
1608.34286,0.18254
1610.27133,0.18308
1612.19980,0.18436
1614.12827,0.18942
1616.05674,0.19932
1617.98521,0.20123
1619.91367,0.19829
1621.84214,0.20117
1623.77061,0.20296
1625.69908,0.19895
1627.62755,0.19595
1629.55602,0.19514
1631.48449,0.19649
1633.41295,0.20212
1635.34142,0.20956
1637.26989,0.20772
1639.19836,0.20196
1641.12683,0.19877
1643.05530,0.20035
1644.98377,0.21056
1646.91223,0.22118
1648.84070,0.21597
1650.76917,0.21184
1652.69764,0.21411
1654.62611,0.20541
1656.55458,0.19727
1658.48305,0.19622
1660.41152,0.19903
1662.33998,0.20312
1664.26845,0.20324
1666.19692,0.20270
1668.12539,0.20888
1670.05386,0.21461
1671.98233,0.20892
1673.91080,0.20293
1675.83926,0.20123
1677.76773,0.20273
1679.69620,0.20582
1681.62467,0.21025
1683.55314,0.21792
1685.48161,0.21712
1687.41008,0.20885
1689.33855,0.20216
1691.26701,0.19829
1693.19548,0.20215
1695.12395,0.21424
1697.05242,0.22690
1698.98089,0.23234
1700.90936,0.22142
1702.83783,0.20532
1704.76629,0.19898
1706.69476,0.19809
1708.62323,0.19794
1710.55170,0.19855
1712.48017,0.20280
1714.40864,0.21293
1716.33711,0.22146
1718.26558,0.21279
1720.19404,0.19722
1722.12251,0.18857
1724.05098,0.18615
1725.97945,0.18735
1727.90792,0.19279
1729.83639,0.20145
1731.76486,0.20872
1733.69332,0.21022
1735.62179,0.20580
1737.55026,0.20378
1739.47873,0.20279
1741.40720,0.20249
1743.33567,0.20341
1745.26414,0.20341
1747.19261,0.20521
1749.12107,0.20736
1751.04954,0.20342
1752.97801,0.19770
1754.90648,0.19556
1756.83495,0.19409
1758.76342,0.19349
1760.69189,0.19611
1762.62035,0.19400
1764.54882,0.18888
1766.47729,0.19097
1768.40576,0.19892
1770.33423,0.20756
1772.26270,0.21113
1774.19117,0.20510
1776.11964,0.19685
1778.04810,0.19184
1779.97657,0.19125
1781.90504,0.19280
1783.83351,0.19509
1785.76198,0.19731
1787.69045,0.19731
1789.61892,0.19822
1791.54738,0.20124
1793.47585,0.19975
1795.40432,0.19611
1797.33279,0.19639
1799.26126,0.19895
1801.18973,0.19947
1803.11820,0.19679
1805.04666,0.19345
1806.97513,0.19211
1808.90360,0.19320
1810.83207,0.19318
1812.76054,0.19079
1814.68901,0.18994
1816.61748,0.19049
1818.54595,0.18935
1820.47441,0.18868
1822.40288,0.19166
1824.33135,0.19621
1826.25982,0.19850
1828.18829,0.19906
1830.11676,0.19852
1832.04523,0.19519
1833.97369,0.19245
1835.90216,0.19306
1837.83063,0.19368
1839.75910,0.19228
1841.68757,0.19359
1843.61604,0.19761
1845.54451,0.19585
1847.47298,0.19201
1849.40144,0.19148
1851.32991,0.19051
1853.25838,0.18857
1855.18685,0.18706
1857.11532,0.18612
1859.04379,0.18738
1860.97226,0.18986
1862.90072,0.19025
1864.82919,0.19110
1866.75766,0.19554
1868.68613,0.19755
1870.61460,0.19337
1872.54307,0.19024
1874.47154,0.19092
1876.40001,0.19279
1878.32847,0.19226
1880.25694,0.19018
1882.18541,0.19112
1884.11388,0.19422
1886.04235,0.19424
1887.97082,0.19169
1889.89929,0.19096
1891.82775,0.19237
1893.75622,0.19349
1895.68469,0.19331
1897.61316,0.19268
1899.54163,0.19289
1901.47010,0.19411
1903.39857,0.19533
1905.32704,0.19515
1907.25550,0.19435
1909.18397,0.19497
1911.11244,0.19690
1913.04091,0.19708
1914.96938,0.19431
1916.89785,0.19165
1918.82632,0.19146
1920.75478,0.19348
1922.68325,0.19536
1924.61172,0.19404
1926.54019,0.19162
1928.46866,0.19116
1930.39713,0.19131
1932.32560,0.19012
1934.25407,0.18832
1936.18253,0.18641
1938.11100,0.18635
1940.03947,0.19225
1941.96794,0.19933
1943.89641,0.19740
1945.82488,0.19063
1947.75335,0.18783
1949.68181,0.18802
1951.61028,0.18853
1953.53875,0.18958
1955.46722,0.19078
1957.39569,0.19154
1959.32416,0.19284
1961.25263,0.19570
1963.18110,0.19799
1965.10956,0.19671
1967.03803,0.19266
1968.96650,0.18982
1970.89497,0.19021
1972.82344,0.19172
1974.75191,0.19199
1976.68038,0.19136
1978.60884,0.19093
1980.53731,0.19136
1982.46578,0.19246
1984.39425,0.19280
1986.32272,0.19310
1988.25119,0.19504
1990.17966,0.19596
1992.10812,0.19349
1994.03659,0.19111
1995.96506,0.19257
1997.89353,0.19555
1999.82200,0.19560
2001.75047,0.19312
2003.67894,0.19108
2005.60741,0.18947
2007.53587,0.18787
2009.46434,0.18639
2011.39281,0.18504
2013.32128,0.18684
2015.24975,0.19256
2017.17822,0.19664
2019.10669,0.19597
2021.03515,0.19293
2022.96362,0.18979
2024.89209,0.18720
2026.82056,0.18617
2028.74903,0.18676
2030.67750,0.18715
2032.60597,0.18794
2034.53444,0.19031
2036.46290,0.19288
2038.39137,0.19417
2040.31984,0.19296
2042.24831,0.19021
2044.17678,0.18896
2046.10525,0.18941
2048.03372,0.19069
2049.96218,0.19250
2051.89065,0.19239
2053.81912,0.19032
2055.74759,0.18909
2057.67606,0.18976
2059.60453,0.19100
2061.53300,0.19039
2063.46147,0.18953
2065.38993,0.19087
2067.31840,0.19218
2069.24687,0.19180
2071.17534,0.19128
2073.10381,0.19175
2075.03228,0.19299
2076.96075,0.19433
2078.88921,0.19411
2080.81768,0.19281
2082.74615,0.19238
2084.67462,0.19112
2086.60309,0.18836
2088.53156,0.18703
2090.46003,0.18859
2092.38850,0.19148
2094.31696,0.19262
2096.24543,0.19197
2098.17390,0.19254
2100.10237,0.19337
2102.03084,0.19311
2103.95931,0.19429
2105.88778,0.19697
2107.81624,0.19790
2109.74471,0.19583
2111.67318,0.19354
2113.60165,0.19369
2115.53012,0.19482
2117.45859,0.19423
2119.38706,0.19180
2121.31553,0.19011
2123.24399,0.19094
2125.17246,0.19295
2127.10093,0.19402
2129.02940,0.19385
2130.95787,0.19369
2132.88634,0.19409
2134.81481,0.19308
2136.74327,0.18971
2138.67174,0.18767
2140.60021,0.18957
2142.52868,0.19197
2144.45715,0.19154
2146.38562,0.19006
2148.31409,0.19031
2150.24255,0.19216
2152.17102,0.19220
2154.09949,0.18938
2156.02796,0.18774
2157.95643,0.18868
2159.88490,0.19016
2161.81337,0.19094
2163.74184,0.19212
2165.67030,0.19445
2167.59877,0.19567
2169.52724,0.19573
2171.45571,0.19632
2173.38418,0.19654
2175.31265,0.19413
2177.24112,0.19062
2179.16958,0.19092
2181.09805,0.19372
2183.02652,0.19437
2184.95499,0.19219
2186.88346,0.18848
2188.81193,0.18700
2190.74040,0.18979
2192.66887,0.19465
2194.59733,0.19887
2196.52580,0.19905
2198.45427,0.19557
2200.38274,0.19231
2202.31121,0.19010
2204.23968,0.19092
2206.16815,0.19561
2208.09661,0.19840
2210.02508,0.19733
2211.95355,0.19587
2213.88202,0.19412
2215.81049,0.19117
2217.73896,0.18944
2219.66743,0.19075
2221.59590,0.19148
2223.52436,0.18849
2225.45283,0.18664
2227.38130,0.18932
2229.30977,0.19138
2231.23824,0.19079
2233.16671,0.19242
2235.09518,0.19605
2237.02364,0.19626
2238.95211,0.19357
2240.88058,0.19299
2242.80905,0.19517
2244.73752,0.19722
2246.66599,0.19756
2248.59446,0.19628
2250.52293,0.19397
2252.45139,0.19209
2254.37986,0.19148
2256.30833,0.19162
2258.23680,0.19179
2260.16527,0.19094
2262.09374,0.19106
2264.02221,0.19410
2265.95067,0.19515
2267.87914,0.19085
2269.80761,0.18632
2271.73608,0.18695
2273.66455,0.19110
2275.59302,0.19275
2277.52149,0.18922
2279.44996,0.18494
2281.37842,0.18503
2283.30689,0.18807
2285.23536,0.19158
2287.16383,0.19480
2289.09230,0.19437
2291.02077,0.18943
2292.94924,0.18526
2294.87770,0.18510
2296.80617,0.18657
2298.73464,0.18642
2300.66311,0.18360
2302.59158,0.17948
2304.52005,0.17567
2306.44852,0.17491
2308.37699,0.18035
2310.30545,0.18701
2312.23392,0.18582
2314.16239,0.17751
2316.09086,0.17024
2318.01933,0.16750
2319.94780,0.16731
2321.87627,0.16666
2323.80473,0.16556
2325.73320,0.16936
2327.66167,0.17559
2329.59014,0.17670
2331.51861,0.17570
2333.44708,0.17707
2335.37555,0.17839
2337.30401,0.17392
2339.23248,0.16077
2341.16095,0.14769
2343.08942,0.14475
2345.01789,0.14903
2346.94636,0.15344
2348.87483,0.15726
2350.80330,0.16408
2352.73176,0.17591
2354.66023,0.18119
2356.58870,0.17200
2358.51717,0.16950
2360.44564,0.17684
2362.37411,0.17253
2364.30258,0.15469
2366.23104,0.14600
2368.15951,0.15733
2370.08798,0.16608
2372.01645,0.16485
2373.94492,0.16691
2375.87339,0.17345
2377.80186,0.17845
2379.73033,0.18203
2381.65879,0.18724
2383.58726,0.19171
2385.51573,0.19117
2387.44420,0.18685
2389.37267,0.18432
2391.30114,0.18688
2393.22961,0.19211
2395.15807,0.19499
2397.08654,0.19383
2399.01501,0.19230
2400.94348,0.19282
2402.87195,0.19451
2404.80042,0.19635
2406.72889,0.19624
2408.65736,0.19402
2410.58582,0.19195
2412.51429,0.18986
2414.44276,0.18728
2416.37123,0.18631
2418.29970,0.18829
2420.22817,0.19101
2422.15664,0.19167
2424.08510,0.19127
2426.01357,0.19073
2427.94204,0.18961
2429.87051,0.18914
2431.79898,0.18860
2433.72745,0.18746
2435.65592,0.18924
2437.58439,0.19487
2439.51285,0.19924
2441.44132,0.19892
2443.36979,0.19560
2445.29826,0.19322
2447.22673,0.19451
2449.15520,0.19557
2451.08367,0.19346
2453.01213,0.19073
2454.94060,0.18941
2456.86907,0.19056
2458.79754,0.19283
2460.72601,0.19379
2462.65448,0.19270
2464.58295,0.19156
2466.51142,0.19285
2468.43988,0.19433
2470.36835,0.19389
2472.29682,0.19310
2474.22529,0.19270
2476.15376,0.19340
2478.08223,0.19521
2480.01070,0.19562
2481.93916,0.19464
2483.86763,0.19332
2485.79610,0.19189
2487.72457,0.19199
2489.65304,0.19398
2491.58151,0.19615
2493.50998,0.19660
2495.43844,0.19537
2497.36691,0.19443
2499.29538,0.19396
2501.22385,0.19270
2503.15232,0.19201
2505.08079,0.19298
2507.00926,0.19432
2508.93773,0.19646
2510.86619,0.19852
2512.79466,0.19674
2514.72313,0.19281
2516.65160,0.19232
2518.58007,0.19408
2520.50854,0.19310
2522.43701,0.19064
2524.36547,0.19130
2526.29394,0.19425
2528.22241,0.19554
2530.15088,0.19559
2532.07935,0.19606
2534.00782,0.19607
2535.93629,0.19500
2537.86476,0.19299
2539.79322,0.19062
2541.72169,0.18907
2543.65016,0.18969
2545.57863,0.19144
2547.50710,0.19239
2549.43557,0.19352
2551.36404,0.19584
2553.29250,0.19712
2555.22097,0.19519
2557.14944,0.19377
2559.07791,0.19605
2561.00638,0.19782
2562.93485,0.19654
2564.86332,0.19466
2566.79179,0.19429
2568.72025,0.19551
2570.64872,0.19650
2572.57719,0.19678
2574.50566,0.19751
2576.43413,0.19804
2578.36260,0.19697
2580.29107,0.19563
2582.21953,0.19686
2584.14800,0.19842
2586.07647,0.19726
2588.00494,0.19605
2589.93341,0.19522
2591.86188,0.19368
2593.79035,0.19322
2595.71882,0.19256
2597.64728,0.19083
2599.57575,0.19084
2601.50422,0.19322
2603.43269,0.19632
2605.36116,0.19889
2607.28963,0.19922
2609.21810,0.19674
2611.14656,0.19514
2613.07503,0.19629
2615.00350,0.19661
2616.93197,0.19549
2618.86044,0.19596
2620.78891,0.19771
2622.71738,0.19828
2624.64585,0.19857
2626.57431,0.19999
2628.50278,0.19958
2630.43125,0.19690
2632.35972,0.19646
2634.28819,0.19830
2636.21666,0.19821
2638.14513,0.19549
2640.07359,0.19366
2642.00206,0.19470
2643.93053,0.19697
2645.85900,0.19885
2647.78747,0.19982
2649.71594,0.20035
2651.64441,0.20171
2653.57288,0.20335
2655.50134,0.20371
2657.42981,0.20338
2659.35828,0.20375
2661.28675,0.20457
2663.21522,0.20412
2665.14369,0.20234
2667.07216,0.20283
2669.00062,0.20577
2670.92909,0.20546
2672.85756,0.20055
2674.78603,0.19541
2676.71450,0.19284
2678.64297,0.19287
2680.57144,0.19538
2682.49990,0.19996
2684.42837,0.20375
2686.35684,0.20413
2688.28531,0.20271
2690.21378,0.20201
2692.14225,0.20237
2694.07072,0.20388
2695.99919,0.20622
2697.92765,0.20719
2699.85612,0.20548
2701.78459,0.20262
2703.71306,0.19979
2705.64153,0.19813
2707.57000,0.19814
2709.49847,0.19754
2711.42693,0.19598
2713.35540,0.19477
2715.28387,0.19433
2717.21234,0.19574
2719.14081,0.19897
2721.06928,0.20217
2722.99775,0.20254
2724.92622,0.20015
2726.85468,0.19799
2728.78315,0.19742
2730.71162,0.19933
2732.64009,0.20343
2734.56856,0.20766
2736.49703,0.21057
2738.42550,0.20991
2740.35396,0.20675
2742.28243,0.20625
2744.21090,0.20735
2746.13937,0.20515
2748.06784,0.20002
2749.99631,0.19696
2751.92478,0.19875
2753.85325,0.20226
2755.78171,0.20653
2757.71018,0.21107
2759.63865,0.21143
2761.56712,0.20810
2763.49559,0.20435
2765.42406,0.20140
2767.35253,0.20124
2769.28099,0.20437
2771.20946,0.20737
2773.13793,0.20847
2775.06640,0.20947
2776.99487,0.20966
2778.92334,0.20840
2780.85181,0.20715
2782.78028,0.20626
2784.70874,0.20644
2786.63721,0.20675
2788.56568,0.20588
2790.49415,0.20502
2792.42262,0.20308
2794.35109,0.19996
2796.27956,0.19990
2798.20802,0.20319
2800.13649,0.20407
2802.06496,0.20191
2803.99343,0.20257
2805.92190,0.20606
2807.85037,0.20843
2809.77884,0.20952
2811.70731,0.20861
2813.63577,0.20718
2815.56424,0.20861
2817.49271,0.21082
2819.42118,0.21192
2821.34965,0.21149
2823.27812,0.20943
2825.20659,0.20837
2827.13505,0.20782
2829.06352,0.20745
2830.99199,0.20933
2832.92046,0.21092
2834.84893,0.21195
2836.77740,0.21440
2838.70587,0.21467
2840.63433,0.21211
2842.56280,0.21020
2844.49127,0.20987
2846.41974,0.21065
2848.34821,0.21128
2850.27668,0.21261
2852.20515,0.21470
2854.13362,0.21290
2856.06208,0.20721
2857.99055,0.20320
2859.91902,0.20395
2861.84749,0.20721
2863.77596,0.20847
2865.70443,0.20687
2867.63290,0.20426
2869.56136,0.20251
2871.48983,0.20231
2873.41830,0.20174
2875.34677,0.20105
2877.27524,0.20356
2879.20371,0.20881
2881.13218,0.21112
2883.06065,0.20823
2884.98911,0.20546
2886.91758,0.20599
2888.84605,0.20765
2890.77452,0.20850
2892.70299,0.20635
2894.63146,0.20167
2896.55993,0.20052
2898.48839,0.20395
2900.41686,0.20723
2902.34533,0.20731
2904.27380,0.19966
2906.20227,0.19063
2908.13074,0.19418
2910.05921,0.20540
2911.98768,0.21133
2913.91614,0.20528
2915.84461,0.19074
2917.77308,0.18567
2919.70155,0.19296
2921.63002,0.19737
2923.55849,0.19524
2925.48696,0.19016
2927.41542,0.19032
2929.34389,0.19908
2931.27236,0.20394
2933.20083,0.20026
2935.12930,0.18965
2937.05777,0.17961
2938.98624,0.18494
2940.91471,0.19621
2942.84317,0.19831
2944.77164,0.19020
2946.70011,0.17507
2948.62858,0.17242
2950.55705,0.18949
2952.48552,0.20426
2954.41399,0.20149
2956.34245,0.18187
2958.27092,0.16896
2960.19939,0.18282
2962.12786,0.20167
2964.05633,0.20547
2965.98480,0.19775
2967.91327,0.18742
2969.84174,0.18978
2971.77020,0.20134
2973.69867,0.20658
2975.62714,0.20241
2977.55561,0.19292
2979.48408,0.19420
2981.41255,0.20815
2983.34102,0.21597
2985.26948,0.21199
2987.19795,0.20046
2989.12642,0.19534
2991.05489,0.20568
2992.98336,0.21635
2994.91183,0.21751
2996.84030,0.21224
2998.76877,0.20655
3000.69723,0.20733
3002.62570,0.21083
3004.55417,0.20873
3006.48264,0.19913
3008.41111,0.18449
3010.33958,0.16353
3012.26805,0.13005
3014.19651,0.08590
3016.12498,0.05661
3018.05345,0.07936
3019.98192,0.14257
3021.91039,0.19207
3023.83886,0.20934
3025.76733,0.20925
3027.69579,0.20549
3029.62426,0.20616
3031.55273,0.21193
3033.48120,0.21799
3035.40967,0.21535
3037.33814,0.20591
3039.26661,0.20565
3041.19508,0.21438
3043.12354,0.21693
3045.05201,0.20818
3046.98048,0.19482
3048.90895,0.19008
3050.83742,0.19678
3052.76589,0.20451
3054.69436,0.20378
3056.62282,0.19341
3058.55129,0.19117
3060.47976,0.20165
3062.40823,0.20448
3064.33670,0.19259
3066.26517,0.17977
3068.19364,0.18528
3070.12211,0.20260
3072.05057,0.20912
3073.97904,0.20241
3075.90751,0.19374
3077.83598,0.19433
3079.76445,0.20335
3081.69292,0.20709
3083.62139,0.19322
3085.54985,0.17451
3087.47832,0.17759
3089.40679,0.19581
3091.33526,0.20354
3093.26373,0.19366
3095.19220,0.18509
3097.12067,0.19415
3099.04914,0.20579
3100.97760,0.20210
3102.90607,0.18659
3104.83454,0.18231
3106.76301,0.19669
3108.69148,0.20782
3110.61995,0.20276
3112.54842,0.19089
3114.47688,0.19134
3116.40535,0.20309
3118.33382,0.20586
3120.26229,0.19546
3122.19076,0.18722
3124.11923,0.19352
3126.04770,0.20618
3127.97617,0.21090
3129.90463,0.20555
3131.83310,0.20393
3133.76157,0.21258
3135.69004,0.21664
3137.61851,0.21015
3139.54698,0.20415
3141.47545,0.20707
3143.40391,0.21138
3145.33238,0.20751
3147.26085,0.20020
3149.18932,0.19843
3151.11779,0.20486
3153.04626,0.21312
3154.97473,0.21467
3156.90320,0.21186
3158.83166,0.21496
3160.76013,0.22299
3162.68860,0.22490
3164.61707,0.21880
3166.54554,0.21369
3168.47401,0.21405
3170.40248,0.21470
3172.33094,0.21583
3174.25941,0.22131
3176.18788,0.22640
3178.11635,0.22502
3180.04482,0.21978
3181.97329,0.21637
3183.90176,0.21579
3185.83022,0.21793
3187.75869,0.22049
3189.68716,0.21911
3191.61563,0.21583
3193.54410,0.21720
3195.47257,0.22131
3197.40104,0.21992
3199.32951,0.21605
3201.25797,0.21888
3203.18644,0.22656
3205.11491,0.23010
3207.04338,0.22603
3208.97185,0.21829
3210.90032,0.21289
3212.82879,0.21116
3214.75725,0.21023
3216.68572,0.20826
3218.61419,0.20469
3220.54266,0.20522
3222.47113,0.21255
3224.39960,0.21613
3226.32807,0.21364
3228.25654,0.21570
3230.18500,0.22195
3232.11347,0.22184
3234.04194,0.21766
3235.97041,0.21780
3237.89888,0.21815
3239.82735,0.21620
3241.75582,0.21445
3243.68428,0.21183
3245.61275,0.21157
3247.54122,0.21400
3249.46969,0.21391
3251.39816,0.21433
3253.32663,0.21814
3255.25510,0.21971
3257.18357,0.21742
3259.11203,0.21457
3261.04050,0.21380
3262.96897,0.21447
3264.89744,0.21273
3266.82591,0.21156
3268.75438,0.21478
3270.68285,0.21585
3272.61131,0.21039
3274.53978,0.20489
3276.46825,0.20307
3278.39672,0.20362
3280.32519,0.21002
3282.25366,0.21740
3284.18213,0.21521
3286.11060,0.20892
3288.03906,0.20771
3289.96753,0.20983
3291.89600,0.21366
3293.82447,0.21798
3295.75294,0.21798
3297.68141,0.21483
3299.60988,0.21279
3301.53834,0.21180
3303.46681,0.21084
3305.39528,0.20959
3307.32375,0.20844
3309.25222,0.20851
3311.18069,0.21149
3313.10916,0.21472
3315.03763,0.21257
3316.96609,0.20860
3318.89456,0.20944
3320.82303,0.21245
3322.75150,0.21412
3324.67997,0.21447
3326.60844,0.21400
3328.53691,0.21481
3330.46537,0.21379
3332.39384,0.20861
3334.32231,0.20414
3336.25078,0.20103
3338.17925,0.20002
3340.10772,0.20479
3342.03619,0.21122
3343.96466,0.21267
3345.89312,0.21291
3347.82159,0.21650
3349.75006,0.21859
3351.67853,0.21845
3353.60700,0.21915
3355.53547,0.21866
3357.46394,0.21657
3359.39240,0.21668
3361.32087,0.21896
3363.24934,0.21605
3365.17781,0.20700
3367.10628,0.20381
3369.03475,0.21212
3370.96322,0.22029
3372.89168,0.22032
3374.82015,0.21762
3376.74862,0.21320
3378.67709,0.20717
3380.60556,0.20528
3382.53403,0.20641
3384.46250,0.20604
3386.39097,0.20601
3388.31943,0.20893
3390.24790,0.21271
3392.17637,0.21513
3394.10484,0.21605
3396.03331,0.21682
3397.96178,0.21840
3399.89025,0.21827
3401.81871,0.21400
3403.74718,0.20712
3405.67565,0.20262
3407.60412,0.20404
3409.53259,0.20881
3411.46106,0.21033
3413.38953,0.20530
3415.31800,0.19975
3417.24646,0.19904
3419.17493,0.20076
3421.10340,0.20285
3423.03187,0.20486
3424.96034,0.20557
3426.88881,0.20418
3428.81728,0.20264
3430.74574,0.20429
3432.67421,0.20875
3434.60268,0.21183
3436.53115,0.21080
3438.45962,0.20906
3440.38809,0.20798
3442.31656,0.20397
3444.24503,0.19913
3446.17349,0.19656
3448.10196,0.19325
3450.03043,0.19010
3451.95890,0.19125
3453.88737,0.19184
3455.81584,0.18819
3457.74431,0.18768
3459.67277,0.18980
3461.60124,0.19056
3463.52971,0.19652
3465.45818,0.20249
3467.38665,0.19929
3469.31512,0.19386
3471.24359,0.19295
3473.17206,0.19797
3475.10052,0.20451
3477.02899,0.20223
3478.95746,0.19233
3480.88593,0.18614
3482.81440,0.18581
3484.74287,0.18566
3486.67134,0.18486
3488.59980,0.18335
3490.52827,0.18101
3492.45674,0.18047
3494.38521,0.18333
3496.31368,0.18760
3498.24215,0.19053
3500.17062,0.19382
3502.09909,0.19706
3504.02755,0.19432
3505.95602,0.18822
3507.88449,0.18552
3509.81296,0.18489
3511.74143,0.18403
3513.66990,0.18070
3515.59837,0.17416
3517.52683,0.16955
3519.45530,0.16975
3521.38377,0.17406
3523.31224,0.18011
3525.24071,0.18360
3527.16918,0.18368
3529.09765,0.18198
3531.02611,0.17856
3532.95458,0.17141
3534.88305,0.16313
3536.81152,0.16113
3538.73999,0.16471
3540.66846,0.16786
3542.59693,0.17014
3544.52540,0.17242
3546.45386,0.17354
3548.38233,0.17121
3550.31080,0.16679
3552.23927,0.16500
3554.16774,0.16788
3556.09621,0.17125
3558.02468,0.17247
3559.95314,0.17515
3561.88161,0.17961
3563.81008,0.18510
3565.73855,0.18900
3567.66702,0.17790
3569.59549,0.16213
3571.52396,0.15924
3573.45243,0.16149
3575.38089,0.16014
3577.30936,0.15971
3579.23783,0.16506
3581.16630,0.16965
3583.09477,0.16906
3585.02324,0.16760
3586.95171,0.16568
3588.88017,0.15875
3590.80864,0.15498
3592.73711,0.15816
3594.66558,0.16235
3596.59405,0.16485
3598.52252,0.16369
3600.45099,0.15659
3602.37946,0.15209
3604.30792,0.15722
3606.23639,0.16662
3608.16486,0.17097
3610.09333,0.16871
3612.02180,0.16713
3613.95027,0.16358
3615.87874,0.15609
3617.80720,0.15328
3619.73567,0.15555
3621.66414,0.15418
3623.59261,0.15000
3625.52108,0.14696
3627.44955,0.14926
3629.37802,0.15727
3631.30649,0.15834
3633.23495,0.15437
3635.16342,0.14933
3637.09189,0.14375
3639.02036,0.14142
3640.94883,0.14175
3642.87730,0.14078
3644.80577,0.14045
3646.73423,0.14447
3648.66270,0.15416
3650.59117,0.15781
3652.51964,0.15022
3654.44811,0.14517
3656.37658,0.14432
3658.30505,0.14154
3660.23352,0.13786
3662.16198,0.13611
3664.09045,0.13705
3666.01892,0.14028
3667.94739,0.14747
3669.87586,0.15870
3671.80433,0.16083
3673.73280,0.15819
3675.66126,0.15849
3677.58973,0.15234
3679.51820,0.14219
3681.44667,0.13514
3683.37514,0.13331
3685.30361,0.13521
3687.23208,0.13935
3689.16055,0.14568
3691.08901,0.14466
3693.01748,0.13646
3694.94595,0.13259
3696.87442,0.13329
3698.80289,0.13405
3700.73136,0.13418
3702.65983,0.13443
3704.58829,0.13351
3706.51676,0.13327
3708.44523,0.13943
3710.37370,0.14788
3712.30217,0.14324
3714.23064,0.13465
3716.15911,0.13407
3718.08757,0.13841
3720.01604,0.14250
3721.94451,0.14350
3723.87298,0.14241
3725.80145,0.13898
3727.72992,0.13524
3729.65839,0.13652
3731.58686,0.14355
3733.51532,0.15356
3735.44379,0.16206
3737.37226,0.16338
3739.30073,0.15580
3741.22920,0.14393
3743.15767,0.13415
3745.08614,0.13354
3747.01460,0.13883
3748.94307,0.14637
3750.87154,0.15546
3752.80001,0.15086
3754.72848,0.14169
3756.65695,0.13943
3758.58542,0.13868
3760.51389,0.13145
3762.44235,0.12374
3764.37082,0.12473
3766.29929,0.13117
3768.22776,0.13474
3770.15623,0.13574
3772.08470,0.13405
3774.01317,0.13104
3775.94163,0.13061
3777.87010,0.13265
3779.79857,0.12880
3781.72704,0.12026
3783.65551,0.12067
3785.58398,0.12596
3787.51245,0.12568
3789.44092,0.12417
3791.36938,0.12522
3793.29785,0.12803
3795.22632,0.13300
3797.15479,0.13599
3799.08326,0.13550
3801.01173,0.13785
3802.94020,0.13965
3804.86866,0.13532
3806.79713,0.12750
3808.72560,0.12358
3810.65407,0.12720
3812.58254,0.13060
3814.51101,0.12837
3816.43948,0.12530
3818.36795,0.13311
3820.29641,0.14818
3822.22488,0.15150
3824.15335,0.14459
3826.08182,0.13960
3828.01029,0.13497
3829.93876,0.13254
3831.86723,0.13586
3833.79569,0.14109
3835.72416,0.14282
3837.65263,0.14209
3839.58110,0.13477
3841.50957,0.12127
3843.43804,0.11344
3845.36651,0.11542
3847.29498,0.12128
3849.22344,0.12745
3851.15191,0.13818
3853.08038,0.15129
3855.00885,0.14221
3856.93732,0.12701
3858.86579,0.12228
3860.79426,0.12739
3862.72272,0.13539
3864.65119,0.13724
3866.57966,0.13475
3868.50813,0.13247
3870.43660,0.13135
3872.36507,0.13707
3874.29354,0.14428
3876.22200,0.14206
3878.15047,0.13794
3880.07894,0.13580
3882.00741,0.12925
3883.93588,0.12482
3885.86435,0.12590
3887.79282,0.12521
3889.72129,0.12186
3891.64975,0.11904
3893.57822,0.11876
3895.50669,0.11979
3897.43516,0.11914
3899.36363,0.11820
3901.29210,0.12212
3903.22057,0.12860
3905.14903,0.13145
3907.07750,0.12808
3909.00597,0.12251
3910.93444,0.11764
3912.86291,0.11294
3914.79138,0.11073
3916.71985,0.11467
3918.64832,0.12045
3920.57678,0.12099
3922.50525,0.11895
3924.43372,0.11608
3926.36219,0.11261
3928.29066,0.11166
3930.21913,0.11282
3932.14760,0.11643
3934.07606,0.12011
3936.00453,0.11887
3937.93300,0.11399
3939.86147,0.10971
3941.78994,0.10867
3943.71841,0.10948
3945.64688,0.11069
3947.57535,0.11172
3949.50381,0.10876
3951.43228,0.10426
3953.36075,0.10409
3955.28922,0.10480
3957.21769,0.10489
3959.14616,0.10814
3961.07463,0.11286
3963.00309,0.11555
3964.93156,0.11520
3966.86003,0.11062
3968.78850,0.10429
3970.71697,0.10272
3972.64544,0.10612
3974.57391,0.10961
3976.50238,0.11234
3978.43084,0.11414
3980.35931,0.11165
3982.28778,0.10481
3984.21625,0.10171
3986.14472,0.10703
3988.07319,0.11334
3990.00166,0.11249
3991.93012,0.10604
3993.85859,0.10233
3995.78706,0.10648
3997.71553,0.11268
3999.64400,0.11347
4001.57247,0.11128
4003.50094,0.10949
4005.42941,0.10728
4007.35787,0.10508
4009.28634,0.10409
4011.21481,0.10277
4013.14328,0.09868
4015.07175,0.09557
4017.00022,0.09771
4018.92869,0.09971
4020.85715,0.09789
4022.78562,0.09594
4024.71409,0.09484
4026.64256,0.09698
4028.57103,0.10335
4030.49950,0.10839
4032.42797,0.11108
4034.35644,0.11218
4036.28490,0.11169
4038.21337,0.11047
4040.14184,0.10661
4042.07031,0.10122
4043.99878,0.09774
4045.92725,0.09790
4047.85572,0.10028
4049.78418,0.10073
4051.71265,0.10073
4053.64112,0.10107
4055.56959,0.09785
4057.49806,0.09713
4059.42653,0.10481
4061.35500,0.11229
4063.28346,0.11212
4065.21193,0.10492
4067.14040,0.09720
4069.06887,0.09721
4070.99734,0.10134
4072.92581,0.10191
4074.85428,0.10054
4076.78275,0.10018
4078.71121,0.09996
4080.63968,0.10104
4082.56815,0.10477
4084.49662,0.10556
4086.42509,0.09996
4088.35356,0.09400
4090.28203,0.09234
4092.21049,0.09508
4094.13896,0.09792
4096.06743,0.09501
4097.99590,0.08965
4099.92437,0.08886
4101.85284,0.09217
4103.78131,0.09296
4105.70978,0.08935
4107.63824,0.08860
4109.56671,0.09259
4111.49518,0.09410
4113.42365,0.09112
4115.35212,0.08792
4117.28059,0.08724
4119.20906,0.08979
4121.13752,0.09345
4123.06599,0.09434
4124.99446,0.09168
4126.92293,0.08741
4128.85140,0.08626
4130.77987,0.08943
4132.70834,0.08893
4134.63681,0.08385
4136.56527,0.08525
4138.49374,0.09228
4140.42221,0.09291
4142.35068,0.08748
4144.27915,0.08279
4146.20762,0.08015
4148.13609,0.08269
4150.06455,0.09024
4151.99302,0.09438
4153.92149,0.09102
4155.84996,0.08491
4157.77843,0.08321
4159.70690,0.08852
4161.63537,0.09555
4163.56384,0.09733
4165.49230,0.09304
4167.42077,0.08813
4169.34924,0.08456
4171.27771,0.08060
4173.20618,0.07931
4175.13465,0.08004
4177.06312,0.07968
4178.99158,0.08006
4180.92005,0.07927
4182.84852,0.07691
4184.77699,0.07826
4186.70546,0.08246
4188.63393,0.08493
4190.56240,0.08567
4192.49087,0.08437
4194.41933,0.08053
4196.34780,0.07823
4198.27627,0.07936
4200.20474,0.08277
4202.13321,0.08691
4204.06168,0.08712
4205.99015,0.08152
4207.91861,0.07581
4209.84708,0.07321
4211.77555,0.06937
4213.70402,0.06716
4215.63249,0.07266
4217.56096,0.07758
4219.48943,0.07653
4221.41789,0.07472
4223.34636,0.07126
4225.27483,0.06615
4227.20330,0.06399
4229.13177,0.06376
4231.06024,0.06486
4232.98871,0.06733
4234.91718,0.06785
4236.84564,0.06450
4238.77411,0.06002
4240.70258,0.05970
4242.63105,0.06243
4244.55952,0.06423
4246.48799,0.06539
4248.41646,0.06605
4250.34492,0.06578
4252.27339,0.06524
4254.20186,0.06395
4256.13033,0.06055
4258.05880,0.05919
4259.98727,0.06445
4261.91574,0.06892
4263.84421,0.06473
4265.77267,0.05818
4267.70114,0.05668
4269.62961,0.05981
4271.55808,0.06512
4273.48655,0.06741
4275.41502,0.06398
4277.34349,0.06027
4279.27195,0.05968
4281.20042,0.06077
4283.12889,0.06490
4285.05736,0.06987
4286.98583,0.07010
4288.91430,0.06556
4290.84277,0.05831
4292.77124,0.05444
4294.69970,0.05487
4296.62817,0.05429
4298.55664,0.05465
4300.48511,0.05769
4302.41358,0.06194
4304.34205,0.06226
4306.27052,0.05717
4308.19898,0.05539
4310.12745,0.05905
4312.05592,0.06273
4313.98439,0.06403
4315.91286,0.06251
4317.84133,0.05631
4319.76980,0.04989
4321.69827,0.05119
4323.62673,0.05227
4325.55520,0.04699
4327.48367,0.04839
4329.41214,0.06007
4331.34061,0.06917
4333.26908,0.06634
4335.19755,0.05272
4337.12601,0.03942
4339.05448,0.03834
4340.98295,0.04712
4342.91142,0.05175
4344.83989,0.04738
4346.76836,0.03978
4348.69683,0.03312
4350.62530,0.03152
4352.55376,0.03304
4354.48223,0.03162
4356.41070,0.02939
4358.33917,0.03073
4360.26764,0.03587
4362.19611,0.04081
4364.12458,0.04398
4366.05304,0.04852
4367.98151,0.05097
4369.90998,0.05055
4371.83845,0.04982
4373.76692,0.04523
4375.69539,0.03949
4377.62386,0.03686
4379.55232,0.03680
4381.48079,0.03834
4383.40926,0.03991
4385.33773,0.04357
4387.26620,0.04744
4389.19467,0.04679
4391.12314,0.04468
4393.05161,0.04317
4394.98007,0.03931
4396.90854,0.03463
4398.83701,0.03310
4400.76548,0.03242
4402.69395,0.03117
4404.62242,0.03461
4406.55089,0.03852
4408.47935,0.03601
4410.40782,0.03467
4412.33629,0.03571
4414.26476,0.03174
4416.19323,0.02744
4418.12170,0.02994
4420.05017,0.03596
4421.97864,0.03918
4423.90710,0.04086
4425.83557,0.04237
4427.76404,0.03822
4429.69251,0.02896
4431.62098,0.02473
4433.54945,0.03042
4435.47792,0.03703
4437.40638,0.03640
4439.33485,0.03280
4441.26332,0.02935
4443.19179,0.02467
4445.12026,0.02115
4447.04873,0.02164
4448.97720,0.02493
4450.90567,0.02449
4452.83413,0.01991
4454.76260,0.01950
4456.69107,0.02341
4458.61954,0.02566
4460.54801,0.02476
4462.47648,0.02422
4464.40495,0.02393
4466.33341,0.02093
4468.26188,0.01877
4470.19035,0.01831
4472.11882,0.01603
4474.04729,0.01564
4475.97576,0.01836
4477.90423,0.02080
4479.83270,0.02407
4481.76116,0.02414
4483.68963,0.02019
4485.61810,0.02050
4487.54657,0.02457
4489.47504,0.02921
4491.40351,0.03072
4493.33198,0.02411
4495.26044,0.01641
4497.18891,0.01735
4499.11738,0.02456
4501.04585,0.02744
4502.97432,0.02462
4504.90279,0.02447
4506.83126,0.02642
4508.75973,0.02193
4510.68819,0.01544
4512.61666,0.01660
4514.54513,0.01867
4516.47360,0.01901
4518.40207,0.02323
4520.33054,0.02575
4522.25901,0.02554
4524.18747,0.02703
4526.11594,0.02670
4528.04441,0.02142
4529.97288,0.01453
4531.90135,0.01246
4533.82982,0.01314
4535.75829,0.00929
4537.68676,0.00745
4539.61522,0.01603
4541.54369,0.02942
4543.47216,0.03581
4545.40063,0.02924
4547.32910,0.02455
4549.25757,0.03068
4551.18604,0.03439
4553.11450,0.03739
4555.04297,0.04246
4556.97144,0.03512
4558.89991,0.02111
4560.82838,0.01824
4562.75685,0.02146
4564.68532,0.02119
4566.61378,0.02059
4568.54225,0.02116
4570.47072,0.01809
4572.39919,0.01215
4574.32766,0.01137
4576.25613,0.01360
4578.18460,0.01126
4580.11307,0.00754
4582.04153,0.00752
4583.97000,0.01145
4585.89847,0.01600
4587.82694,0.01719
4589.75541,0.01702
4591.68388,0.01811
4593.61235,0.01832
4595.54081,0.01813
4597.46928,0.01612
4599.39775,0.01055
4601.32622,0.00639
4603.25469,0.00711
4605.18316,0.01662
4607.11163,0.02599
4609.04010,0.01961
4610.96856,0.00957
4612.89703,0.01187
4614.82550,0.01691
4616.75397,0.01523
4618.68244,0.01276
4620.61091,0.01108
4622.53938,0.00317
4624.46784,-0.00884
4626.39631,-0.01322
4628.32478,-0.00800
4630.25325,-0.00492
4632.18172,-0.00603
4634.11019,0.00139
4636.03866,0.01334
4637.96713,0.01417
4639.89559,0.00954
4641.82406,0.00689
4643.75253,0.00213
4645.68100,0.00024
4647.60947,0.00545
4649.53794,0.01086
4651.46641,0.00979
4653.39487,0.00277
4655.32334,-0.00069
4657.25181,0.00696
4659.18028,0.01906
4661.10875,0.02764
4663.03722,0.03345
4664.96569,0.03249
4666.89416,0.01977
4668.82262,0.00336
4670.75109,-0.00632
4672.67956,-0.00492
4674.60803,0.00905
4676.53650,0.02853
4678.46497,0.03659
4680.39344,0.02596
4682.32190,0.01300
4684.25037,0.00798
4686.17884,0.00372
4688.10731,0.00376
4690.03578,0.01089
4691.96425,0.01659
4693.89272,0.01610
4695.82119,0.01058
4697.74965,0.00820
4699.67812,0.01150
4701.60659,0.01346
4703.53506,0.01462
4705.46353,0.01478
4707.39200,0.01022
4709.32047,0.01509
4711.24893,0.03304
4713.17740,0.03804
4715.10587,0.02560
4717.03434,0.01394
4718.96281,0.00982
4720.89128,0.01255
4722.81975,0.01487
4724.74821,0.00942
4726.67668,0.00306
4728.60515,0.00378
4730.53362,0.00905
4732.46209,0.01296
4734.39056,0.00989
4736.31903,0.00406
4738.24750,0.00470
4740.17596,0.00830
4742.10443,0.00922
4744.03290,0.00828
4745.96137,0.00713
4747.88984,0.00542
4749.81831,-0.00106
4751.74678,-0.01066
4753.67524,-0.01283
4755.60371,-0.00417
4757.53218,0.00600
4759.46065,0.00838
4761.38912,0.00220
4763.31759,-0.00622
4765.24606,-0.00804
4767.17453,-0.00105
4769.10299,0.01163
4771.03146,0.02433
4772.95993,0.02178
4774.88840,0.00462
4776.81687,-0.00066
4778.74534,0.00783
4780.67381,0.01084
4782.60227,0.01086
4784.53074,0.01131
4786.45921,0.00372
4788.38768,-0.00589
4790.31615,-0.00721
4792.24462,-0.00392
4794.17309,0.00009
4796.10156,0.00566
4798.03002,0.01390
4799.95849,0.02144
4801.88696,0.02747
4803.81543,0.02927
4805.74390,0.01817
4807.67237,0.00856
4809.60084,0.00940
4811.52930,0.00814
4813.45777,0.00593
4815.38624,0.00498
4817.31471,0.00479
4819.24318,0.00894
4821.17165,0.01349
4823.10012,0.01429
4825.02859,0.01537
4826.95705,0.01999
4828.88552,0.02039
4830.81399,0.01236
4832.74246,0.00453
4834.67093,0.00144
4836.59940,-0.00431
4838.52787,-0.01135
4840.45633,-0.00593
4842.38480,0.01098
4844.31327,0.01860
4846.24174,0.00516
4848.17021,-0.01040
4850.09868,-0.00737
4852.02715,-0.00064
4853.95562,-0.00745
4855.88408,-0.01053
4857.81255,0.00357
4859.74102,0.01683
4861.66949,0.01544
4863.59796,0.00971
4865.52643,0.00810
4867.45490,0.00680
4869.38336,0.00116
4871.31183,-0.00711
4873.24030,-0.00862
4875.16877,0.00188
4877.09724,0.01067
4879.02571,0.00983
4880.95418,0.01247
4882.88265,0.01843
4884.81111,0.01211
4886.73958,-0.00300
4888.66805,-0.00831
4890.59652,-0.00088
4892.52499,0.00382
4894.45346,0.00195
4896.38193,0.00471
4898.31039,0.01460
4900.23886,0.02417
4902.16733,0.02493
4904.09580,0.01097
4906.02427,-0.00509
4907.95274,-0.00779
4909.88121,-0.00397
4911.80967,-0.00237
4913.73814,-0.00110
4915.66661,0.00116
4917.59508,0.00350
4919.52355,0.01143
4921.45202,0.01864
4923.38049,0.01685
4925.30896,0.02164
4927.23742,0.03436
4929.16589,0.03731
4931.09436,0.02487
4933.02283,0.00836
4934.95130,0.00030
4936.87977,-0.00622
4938.80824,-0.01695
4940.73670,-0.02052
4942.66517,-0.01679
4944.59364,-0.01066
4946.52211,0.00263
4948.45058,0.01321
4950.37905,0.00916
4952.30752,0.00195
4954.23599,-0.00164
4956.16445,-0.00443
4958.09292,0.00039
4960.02139,0.01604
4961.94986,0.02791
4963.87833,0.01786
4965.80680,-0.00131
4967.73527,0.00067
4969.66373,0.01908
4971.59220,0.03201
4973.52067,0.02755
4975.44914,0.01031
4977.37761,0.00829
4979.30608,0.02126
4981.23455,0.02163
4983.16302,0.00726
4985.09148,-0.01179
4987.01995,-0.02168
4988.94842,-0.01196
4990.87689,0.00294
4992.80536,0.00445
4994.73383,-0.00342
4996.66230,-0.00108
4998.59076,0.01266
5000.51923,0.01457
5002.44770,-0.00291
5004.37617,-0.01408
5006.30464,-0.00140
5008.23311,0.01646
5010.16158,0.02715
5012.09005,0.03599
5014.01851,0.03493
5015.94698,0.02177
5017.87545,0.01463
5019.80392,0.01508
5021.73239,0.00786
5023.66086,-0.00096
5025.58933,0.00480
5027.51779,0.01742
5029.44626,0.01831
5031.37473,0.00910
5033.30320,0.00444
5035.23167,0.00735
5037.16014,0.01545
5039.08861,0.02531
5041.01708,0.02608
5042.94554,0.01787
5044.87401,0.00989
5046.80248,0.00527
5048.73095,0.01057
5050.65942,0.02652
5052.58789,0.03240
5054.51636,0.02209
5056.44482,0.02257
5058.37329,0.03900
5060.30176,0.04128
5062.23023,0.02891
5064.15870,0.02503
5066.08717,0.02465
5068.01564,0.02149
5069.94410,0.02119
5071.87257,0.02259
5073.80104,0.02497
5075.72951,0.03160
5077.65798,0.04354
5079.58645,0.05241
5081.51492,0.04530
5083.44339,0.02574
5085.37185,0.01732
5087.30032,0.02638
5089.22879,0.03496
5091.15726,0.03952
5093.08573,0.04468
5095.01420,0.04625
5096.94267,0.03752
5098.87113,0.02163
5100.79960,0.01079
5102.72807,0.00614
5104.65654,0.00294
5106.58501,0.00028
5108.51348,0.00009
5110.44195,0.00227
5112.37042,-0.00070
5114.29888,-0.00712
5116.22735,-0.00594
5118.15582,-0.00059
5120.08429,0.00703
5122.01276,0.01849
5123.94123,0.01984
5125.86970,0.01397
5127.79816,0.01733
5129.72663,0.02483
5131.65510,0.02755
5133.58357,0.02706
5135.51204,0.02660
5137.44051,0.02870
5139.36898,0.02896
5141.29745,0.01815
5143.22591,0.00884
5145.15438,0.02028
5147.08285,0.03658
5149.01132,0.02920
5150.93979,0.00611
5152.86826,0.00173
5154.79673,0.01802
5156.72519,0.02384
5158.65366,0.01689
5160.58213,0.02023
5162.51060,0.02974
5164.43907,0.03542
5166.36754,0.04191
5168.29601,0.03881
5170.22448,0.02018
5172.15294,0.00536
5174.08141,0.00269
5176.00988,0.00716
5177.93835,0.01897
5179.86682,0.02831
5181.79529,0.02827
5183.72376,0.03289
5185.65222,0.04303
5187.58069,0.04752
5189.50916,0.04662
5191.43763,0.03336
5193.36610,0.01060
5195.29457,0.00649
5197.22304,0.03655
5199.15151,0.06597
5201.07997,0.05520
5203.00844,0.03403
5204.93691,0.03850
5206.86538,0.05780
5208.79385,0.06842
5210.72232,0.05989
5212.65079,0.04588
5214.57925,0.03847
5216.50772,0.02793
5218.43619,0.01277
5220.36466,0.01529
5222.29313,0.04083
5224.22160,0.06091
5226.15007,0.06376
5228.07854,0.05945
5230.00700,0.06088
5231.93547,0.06940
5233.86394,0.06219
5235.79241,0.04569
5237.72088,0.04418
5239.64935,0.05296
5241.57782,0.06306
5243.50628,0.07148
5245.43475,0.06575
5247.36322,0.04495
5249.29169,0.03235
5251.22016,0.04099
5253.14863,0.05957
5255.07710,0.06797
5257.00556,0.05931
5258.93403,0.04138
5260.86250,0.02114
5262.79097,0.02070
5264.71944,0.04604
5266.64791,0.06748
5268.57638,0.07562
5270.50485,0.07359
5272.43331,0.05675
5274.36178,0.03890
5276.29025,0.03805
5278.21872,0.04702
5280.14719,0.05162
5282.07566,0.04789
5284.00413,0.04377
5285.93259,0.04548
5287.86106,0.04623
5289.78953,0.04719
5291.71800,0.04787
5293.64647,0.04008
5295.57494,0.03643
5297.50341,0.04862
5299.43188,0.06116
5301.36034,0.05944
5303.28881,0.05744
5305.21728,0.05537
5307.14575,0.02840
5309.07422,0.01032
5311.00269,0.04304
5312.93116,0.08088
5314.85962,0.08629
5316.78809,0.06925
5318.71656,0.04767
5320.64503,0.04236
5322.57350,0.05512
5324.50197,0.06531
5326.43044,0.06325
5328.35891,0.06375
5330.28737,0.06987
5332.21584,0.06955
5334.14431,0.07327
5336.07278,0.08772
5338.00125,0.09518
5339.92972,0.08992
5341.85819,0.08154
5343.78665,0.07036
5345.71512,0.06361
5347.64359,0.06606
5349.57206,0.06959
5351.50053,0.07442
5353.42900,0.07475
5355.35747,0.06045
5357.28594,0.05119
5359.21440,0.06134
5361.14287,0.07082
5363.07134,0.07565
5364.99981,0.09312
5366.92828,0.10695
5368.85675,0.10392
5370.78522,0.09475
5372.71368,0.08881
5374.64215,0.09021
5376.57062,0.08497
5378.49909,0.06856
5380.42756,0.06647
5382.35603,0.07917
5384.28450,0.07781
5386.21297,0.06481
5388.14143,0.07400
5390.06990,0.08825
5391.99837,0.08351
5393.92684,0.07632
5395.85531,0.08107
5397.78378,0.07987
5399.71225,0.06346
5401.64071,0.04980
5403.56918,0.05026
5405.49765,0.05344
5407.42612,0.06201
5409.35459,0.08420
5411.28306,0.10358
5413.21153,0.09559
5415.13999,0.07299
5417.06846,0.06476
5418.99693,0.05754
5420.92540,0.05014
5422.85387,0.07014
5424.78234,0.10513
5426.71081,0.11048
5428.63928,0.07522
5430.56774,0.05213
5432.49621,0.06382
5434.42468,0.07459
5436.35315,0.07072
5438.28162,0.06952
5440.21009,0.08009
5442.13856,0.08895
5444.06702,0.08496
5445.99549,0.08410
5447.92396,0.08448
5449.85243,0.07779
5451.78090,0.08237
5453.70937,0.08435
5455.63784,0.07249
5457.56631,0.07328
5459.49477,0.07899
5461.42324,0.07150
5463.35171,0.06152
5465.28018,0.05866
5467.20865,0.05959
5469.13712,0.05254
5471.06559,0.05151
5472.99405,0.08099
5474.92252,0.11781
5476.85099,0.11032
5478.77946,0.08183
5480.70793,0.07731
5482.63640,0.08599
5484.56487,0.08652
5486.49334,0.07031
5488.42180,0.04917
5490.35027,0.04767
5492.27874,0.05999
5494.20721,0.07617
5496.13568,0.08770
5498.06415,0.07045
5499.99262,0.03731
5501.92108,0.02605
5503.84955,0.03543
5505.77802,0.05045
5507.70649,0.07463
5509.63496,0.10156
5511.56343,0.09065
5513.49190,0.03967
5515.42037,0.00977
5517.34883,0.01255
5519.27730,0.01616
5521.20577,0.02106
5523.13424,0.02800
5525.06271,0.02924
5526.99118,0.02728
5528.91965,0.03189
5530.84811,0.05016
5532.77658,0.06055
5534.70505,0.05996
5536.63352,0.07542
5538.56199,0.09702
5540.49046,0.08917
5542.41893,0.06199
5544.34740,0.06051
5546.27586,0.08120
5548.20433,0.10588
5550.13280,0.13670
5552.06127,0.15726
5553.98974,0.14925
5555.91821,0.11982
5557.84668,0.09392
5559.77514,0.07425
5561.70361,0.06062
5563.63208,0.07043
5565.56055,0.08736
5567.48902,0.07966
5569.41749,0.05669
5571.34596,0.04713
5573.27443,0.04802
5575.20289,0.05355
5577.13136,0.06690
5579.05983,0.07276
5580.98830,0.06592
5582.91677,0.06063
5584.84524,0.06251
5586.77371,0.06081
5588.70217,0.04881
5590.63064,0.03625
5592.55911,0.03424
5594.48758,0.03858
5596.41605,0.04194
5598.34452,0.04894
5600.27299,0.06414
5602.20145,0.08602
5604.12992,0.10522
5606.05839,0.11218
5607.98686,0.10122
5609.91533,0.06636
5611.84380,0.03007
5613.77227,0.03907
5615.70074,0.08442
5617.62920,0.09624
5619.55767,0.06208
5621.48614,0.05083
5623.41461,0.07500
5625.34308,0.08202
5627.27155,0.06656
5629.20002,0.05927
5631.12848,0.07047
5633.05695,0.09995
5634.98542,0.13252
5636.91389,0.14292
5638.84236,0.12965
5640.77083,0.11791
5642.69930,0.11952
5644.62777,0.11749
5646.55623,0.10408
5648.48470,0.09547
5650.41317,0.10859
5652.34164,0.12618
5654.27011,0.11475
5656.19858,0.08747
5658.12705,0.06050
5660.05551,0.01808
5661.98398,-0.01759
5663.91245,-0.00171
5665.84092,0.05013
5667.76939,0.09574
5669.69786,0.11489
5671.62633,0.09881
5673.55480,0.06967
5675.48326,0.06769
5677.41173,0.09821
5679.34020,0.11678
5681.26867,0.08146
5683.19714,0.03893
5685.12561,0.05850
5687.05408,0.09662
5688.98254,0.09639
5690.91101,0.07980
5692.83948,0.06664
5694.76795,0.05760
5696.69642,0.05206
5698.62489,0.05564
5700.55336,0.07930
5702.48183,0.10509
5704.41029,0.10489
5706.33876,0.08617
5708.26723,0.06520
5710.19570,0.03871
5712.12417,0.02838
5714.05264,0.06026
5715.98111,0.10100
5717.90957,0.10874
5719.83804,0.10265
5721.76651,0.11890
5723.69498,0.13759
5725.62345,0.11729
5727.55192,0.05987
5729.48039,0.02716
5731.40886,0.06316
5733.33732,0.12735
5735.26579,0.14769
5737.19426,0.11013
5739.12273,0.07209
5741.05120,0.06725
5742.97967,0.08886
5744.90814,0.11690
5746.83660,0.12723
5748.76507,0.10958
5750.69354,0.08401
5752.62201,0.07563
5754.55048,0.07585
5756.47895,0.07177
5758.40742,0.07135
5760.33588,0.07937
5762.26435,0.07488
5764.19282,0.04671
5766.12129,0.02370
5768.04976,0.03374
5769.97823,0.06478
5771.90670,0.08197
5773.83517,0.07829
5775.76363,0.07170
5777.69210,0.07677
5779.62057,0.07923
5781.54904,0.06828
5783.47751,0.08036
5785.40598,0.11919
5787.33445,0.14365
5789.26291,0.13992
5791.19138,0.11273
5793.11985,0.06186
5795.04832,0.02714
5796.97679,0.04897
5798.90526,0.08093
5800.83373,0.08454
5802.76220,0.07762
5804.69066,0.07318
5806.61913,0.06443
5808.54760,0.04797
5810.47607,0.04954
5812.40454,0.07522
5814.33301,0.10431
5816.26148,0.13383
5818.18994,0.13777
5820.11841,0.10415
5822.04688,0.07665
5823.97535,0.06811
5825.90382,0.07829
5827.83229,0.11647
5829.76076,0.14650
5831.68923,0.12306
5833.61769,0.07481
5835.54616,0.06221
5837.47463,0.06389
5839.40310,0.05368
5841.33157,0.05790
5843.26004,0.06698
5845.18851,0.07432
5847.11697,0.10687
5849.04544,0.14378
5850.97391,0.13396
5852.90238,0.10084
5854.83085,0.08749
5856.75932,0.08636
5858.68779,0.08211
5860.61626,0.08547
5862.54472,0.10837
5864.47319,0.12812
5866.40166,0.10874
5868.33013,0.05757
5870.25860,0.02772
5872.18707,0.04491
5874.11554,0.08347
5876.04400,0.10979
5877.97247,0.09869
5879.90094,0.08064
5881.82941,0.10744
5883.75788,0.14265
5885.68635,0.13984
5887.61482,0.12044
5889.54329,0.10885
5891.47175,0.10320
5893.40022,0.09622
5895.32869,0.08335
5897.25716,0.07114
5899.18563,0.07501
5901.11410,0.08232
5903.04257,0.07791
5904.97103,0.08609
5906.89950,0.09876
5908.82797,0.09512
5910.75644,0.09347
5912.68491,0.08393
5914.61338,0.06055
5916.54185,0.05277
5918.47032,0.06291
5920.39878,0.06919
5922.32725,0.05379
5924.25572,0.03204
5926.18419,0.05288
5928.11266,0.11718
5930.04113,0.15457
5931.96960,0.13408
5933.89806,0.09331
5935.82653,0.06971
5937.75500,0.08266
5939.68347,0.13166
5941.61194,0.17258
5943.54041,0.17838
5945.46888,0.17878
5947.39734,0.17242
5949.32581,0.13613
5951.25428,0.08974
5953.18275,0.06141
5955.11122,0.06135
5957.03969,0.08280
5958.96816,0.09297
5960.89663,0.07289
5962.82509,0.05892
5964.75356,0.08816
5966.68203,0.14363
5968.61050,0.15807
5970.53897,0.09709
5972.46744,0.03528
5974.39591,0.04671
5976.32437,0.08106
5978.25284,0.08540
5980.18131,0.08691
5982.10978,0.11437
5984.03825,0.16002
5985.96672,0.18355
5987.89519,0.15013
5989.82366,0.11015
5991.75212,0.12372
5993.68059,0.13671
5995.60906,0.09476
5997.53753,0.05096
5999.46600,0.05653
6001.39447,0.07917
6003.32294,0.05977
6005.25140,0.02612
6007.17987,0.03282
6009.10834,0.05302
6011.03681,0.07060
6012.96528,0.08552
6014.89375,0.08502
6016.82222,0.09206
6018.75069,0.12337
6020.67915,0.14975
6022.60762,0.15092
6024.53609,0.13113
6026.46456,0.11207
6028.39303,0.11417
6030.32150,0.14018
6032.24997,0.16475
6034.17843,0.15419
6036.10690,0.11808
6038.03537,0.08649
6039.96384,0.07991
6041.89231,0.08122
6043.82078,0.05591
6045.74925,0.04255
6047.67772,0.06464
6049.60618,0.06632
6051.53465,0.04376
6053.46312,0.03995
6055.39159,0.04954
6057.32006,0.06731
6059.24853,0.09285
6061.17700,0.11811
6063.10546,0.14762
6065.03393,0.14161
6066.96240,0.08298
6068.89087,0.04054
6070.81934,0.04814
6072.74781,0.07213
6074.67628,0.10128
6076.60475,0.13096
6078.53321,0.13523
6080.46168,0.10858
6082.39015,0.08685
6084.31862,0.10987
6086.24709,0.14913
6088.17556,0.13544
6090.10403,0.09104
6092.03249,0.07854
6093.96096,0.08951
6095.88943,0.10496
6097.81790,0.12909
6099.74637,0.14880
6101.67484,0.15316
6103.60331,0.13111
6105.53177,0.09603
6107.46024,0.09924
6109.38871,0.13619
6111.31718,0.13884
6113.24565,0.10582
6115.17412,0.08112
6117.10259,0.07682
6119.03106,0.09534
6120.95952,0.10512
6122.88799,0.08033
6124.81646,0.04922
6126.74493,0.05692
6128.67340,0.12671
6130.60187,0.15966
6132.53034,0.09263
6134.45880,0.04215
6136.38727,0.05357
6138.31574,0.06285
6140.24421,0.06621
6142.17268,0.07593
6144.10115,0.06575
6146.02962,0.04961
6147.95809,0.04059
6149.88655,0.03767
6151.81502,0.06594
6153.74349,0.09678
6155.67196,0.06781
6157.60043,0.00027
6159.52890,-0.03328
6161.45737,-0.01075
6163.38583,0.04560
6165.31430,0.09826
6167.24277,0.08879
6169.17124,0.02291
6171.09971,-0.04446
6173.02818,-0.05361
6174.95665,0.00038
6176.88512,0.06192
6178.81358,0.10563
6180.74205,0.12592
6182.67052,0.12359
6184.59899,0.09906
6186.52746,0.03787
6188.45593,-0.03547
6190.38440,-0.06664
6192.31286,-0.04435
6194.24133,0.01412
6196.16980,0.08994
6198.09827,0.13044
6200.02674,0.10478
6201.95521,0.06085
6203.88368,0.03421
6205.81215,0.04183
6207.74061,0.07046
6209.66908,0.04195
6211.59755,-0.02864
6213.52602,-0.03484
6215.45449,0.01704
6217.38296,0.09070
6219.31143,0.12646
6221.23989,0.06964
6223.16836,-0.00748
6225.09683,-0.01117
6227.02530,0.05326
6228.95377,0.12540
6230.88224,0.12675
6232.81071,0.07265
6234.73918,0.06088
6236.66764,0.07986
6238.59611,0.07975
6240.52458,0.07205
6242.45305,0.07581
6244.38152,0.09931
6246.30999,0.12548
6248.23846,0.12500
6250.16692,0.09925
6252.09539,0.04926
6254.02386,0.01091
6255.95233,0.03916
6257.88080,0.10998
6259.80927,0.17279
6261.73774,0.21787
6263.66621,0.23217
6265.59467,0.18606
6267.52314,0.08802
6269.45161,0.02060
6271.38008,0.03377
6273.30855,0.11138
6275.23702,0.17207
6277.16549,0.13635
6279.09395,0.09492
6281.02242,0.12441
6282.95089,0.13324
6284.87936,0.09847
6286.80783,0.11665
6288.73630,0.17824
6290.66477,0.16550
6292.59323,0.08470
6294.52170,0.07305
6296.45017,0.11250
6298.37864,0.09529
6300.30711,0.05150
6302.23558,0.05110
6304.16405,0.05467
6306.09252,0.02954
6308.02098,0.03039
6309.94945,0.06012
6311.87792,0.06256
6313.80639,0.03823
6315.73486,-0.00145
6317.66333,-0.04438
6319.59180,-0.04419
6321.52026,0.00142
6323.44873,0.03990
6325.37720,0.05871
6327.30567,0.06280
6329.23414,0.05498
6331.16261,0.10099
6333.09108,0.17352
6335.01955,0.14343
6336.94801,0.07121
6338.87648,0.07588
6340.80495,0.10719
6342.73342,0.09376
6344.66189,0.04914
6346.59036,0.02216
6348.51883,0.05520
6350.44729,0.11027
6352.37576,0.10309
6354.30423,0.07692
6356.23270,0.10249
6358.16117,0.13469
6360.08964,0.12175
6362.01811,0.07719
6363.94658,0.03431
6365.87504,0.03749
6367.80351,0.10777
6369.73198,0.17653
6371.66045,0.16645
6373.58892,0.09937
6375.51739,0.04408
6377.44586,0.03288
6379.37432,0.03954
6381.30279,0.02708
6383.23126,0.04642
6385.15973,0.10292
6387.08820,0.09394
6389.01667,0.05408
6390.94514,0.04998
6392.87361,0.05719
6394.80207,0.08918
6396.73054,0.13349
6398.65901,0.12570
6400.58748,0.07070
6402.51595,0.02449
6404.44442,0.04376
6406.37289,0.10470
6408.30135,0.13986
6410.22982,0.16492
6412.15829,0.16463
6414.08676,0.09273
6416.01523,0.00860
6417.94370,-0.00776
6419.87217,0.04023
6421.80064,0.12132
6423.72910,0.18044
6425.65757,0.12023
6427.58604,0.01390
6429.51451,0.00120
6431.44298,0.06437
6433.37145,0.12146
6435.29992,0.13388
6437.22838,0.12275
6439.15685,0.12446
6441.08532,0.11471
6443.01379,0.07070
6444.94226,0.03954
6446.87073,0.03808
6448.79920,0.03148
6450.72766,0.02756
6452.65613,0.05420
6454.58460,0.09305
6456.51307,0.10074
6458.44154,0.08458
6460.37001,0.09190
6462.29848,0.10799
6464.22695,0.09781
6466.15541,0.09535
6468.08388,0.14552
6470.01235,0.16527
6471.94082,0.07517
6473.86929,0.02562
6475.79776,0.10445
6477.72623,0.16848
6479.65469,0.11296
6481.58316,0.02223
6483.51163,0.03032
6485.44010,0.09934
6487.36857,0.12847
6489.29704,0.12969
6491.22551,0.12666
6493.15398,0.08749
6495.08244,0.05414
6497.01091,0.06370
6498.93938,0.05742
6500.86785,0.05072
6502.79632,0.07901
6504.72479,0.05265
6506.65326,-0.01296
6508.58172,0.00324
6510.51019,0.07669
6512.43866,0.10067
6514.36713,0.08771
6516.29560,0.07663
6518.22407,0.04853
6520.15254,-0.01204
6522.08101,-0.05552
6524.00947,0.00675
6525.93794,0.08181
6527.86641,0.03981
6529.79488,-0.01134
6531.72335,-0.02256
6533.65182,-0.02970
6535.58029,-0.00770
6537.50875,0.01157
6539.43722,-0.00015
6541.36569,0.00378
6543.29416,0.04485
6545.22263,0.09530
6547.15110,0.10145
6549.07957,0.05692
6551.00804,0.02742
6552.93650,0.03262
6554.86497,0.03475
6556.79344,0.04196
6558.72191,0.03448
6560.65038,0.01525
6562.57885,0.04930
6564.50732,0.09195
6566.43578,0.05096
6568.36425,-0.02110
6570.29272,-0.04300
6572.22119,-0.03109
6574.14966,0.01366
6576.07813,0.05866
6578.00660,0.00321
6579.93507,-0.07878
6581.86353,-0.05344
6583.79200,0.04518
6585.72047,0.12561
6587.64894,0.13358
6589.57741,0.07959
6591.50588,0.03971
6593.43435,0.06435
6595.36281,0.09073
6597.29128,0.04631
6599.21975,-0.00890
6601.14822,-0.00113
6603.07669,0.01914
6605.00516,0.00725
6606.93363,-0.00109
6608.86210,0.00995
6610.79056,0.01362
6612.71903,-0.00038
6614.64750,0.01941
6616.57597,0.07851
6618.50444,0.15184
6620.43291,0.21203
6622.36138,0.19908
6624.28984,0.13597
6626.21831,0.09136
6628.14678,0.10712
6630.07525,0.16074
6632.00372,0.17353
6633.93219,0.16979
6635.86066,0.19782
6637.78912,0.18938
6639.71759,0.08164
6641.64606,-0.01535
6643.57453,-0.01651
6645.50300,0.01759
6647.43147,0.01790
6649.35994,-0.02176
6651.28841,-0.02996
6653.21687,0.03937
6655.14534,0.13267
6657.07381,0.18750
6659.00228,0.20844
6660.93075,0.21041
6662.85922,0.18743
6664.78769,0.14594
6666.71615,0.06521
6668.64462,-0.03156
6670.57309,-0.00879
6672.50156,0.11167
6674.43003,0.10402
6676.35850,0.04822
6678.28697,0.09143
6680.21544,0.09662
6682.14390,0.01724
6684.07237,-0.01905
6686.00084,0.03917
6687.92931,0.10081
6689.85778,0.06061
6691.78625,-0.01109
6693.71472,-0.01847
6695.64318,0.04293
6697.57165,0.12503
6699.50012,0.15088
6701.42859,0.14278
6703.35706,0.14434
6705.28553,0.11081
6707.21400,0.04028
6709.14247,0.00317
6711.07093,0.00027
6712.99940,-0.00584
6714.92787,0.00715
6716.85634,0.04486
6718.78481,0.07511
6720.71328,0.09873
6722.64175,0.13872
6724.57021,0.16751
6726.49868,0.11931
6728.42715,0.06600
6730.35562,0.10129
6732.28409,0.12166
6734.21256,0.07344
6736.14103,0.04913
6738.06950,0.03785
6739.99796,-0.00311
6741.92643,0.01372
6743.85490,0.10478
6745.78337,0.14210
6747.71184,0.09170
6749.64031,0.05624
6751.56878,0.10270
6753.49724,0.13957
6755.42571,0.08696
6757.35418,-0.01322
6759.28265,-0.12481
6761.21112,-0.18586
6763.13959,-0.13426
6765.06806,-0.01902
6766.99653,0.06497
6768.92499,0.07025
6770.85346,0.06004
6772.78193,0.08421
6774.71040,0.10992
6776.63887,0.09782
6778.56734,0.06937
6780.49581,0.07530
6782.42427,0.08414
6784.35274,0.04487
6786.28121,-0.03218
6788.20968,-0.10121
6790.13815,-0.09601
6792.06662,-0.02604
6793.99509,-0.00702
6795.92355,-0.03504
6797.85202,0.00146
6799.78049,0.08717
6801.70896,0.11562
6803.63743,0.07638
6805.56590,-0.00752
6807.49437,-0.08775
6809.42284,-0.06376
6811.35130,0.05072
6813.27977,0.12691
6815.20824,0.16619
6817.13671,0.16709
6819.06518,0.06920
6820.99365,-0.00344
6822.92212,0.03732
6824.85058,0.06936
6826.77905,0.06911
6828.70752,0.07130
6830.63599,0.05672
6832.56446,0.05532
6834.49293,0.08208
6836.42140,0.10714
6838.34987,0.09303
6840.27833,0.03068
6842.20680,-0.02357
6844.13527,0.03811
6846.06374,0.14806
6847.99221,0.09898
6849.92068,-0.02808
6851.84915,0.00731
6853.77761,0.15251
6855.70608,0.25990
6857.63455,0.24941
6859.56302,0.21143
6861.49149,0.18744
6863.41996,0.10303
6865.34843,-0.00292
6867.27690,-0.02453
6869.20536,0.01472
6871.13383,0.05990
6873.06230,0.06689
6874.99077,-0.00624
6876.91924,-0.09286
6878.84771,-0.11160
6880.77618,-0.07181
6882.70464,-0.04208
6884.63311,0.00379
6886.56158,0.06657
6888.49005,0.12532
6890.41852,0.23773
6892.34699,0.29711
6894.27546,0.19907
6896.20393,0.12611
6898.13239,0.18448
6900.06086,0.24867
6901.98933,0.27716
6903.91780,0.28179
6905.84627,0.23492
6907.77474,0.17616
6909.70321,0.18595
6911.63167,0.24647
6913.56014,0.21259
6915.48861,0.06255
6917.41708,-0.04227
6919.34555,0.00315
6921.27402,0.07890
6923.20249,0.08128
6925.13096,0.10944
6927.05942,0.16473
6928.98789,0.16316
6930.91636,0.13900
6932.84483,0.15646
6934.77330,0.15609
6936.70177,0.07068
6938.63024,-0.09363
6940.55870,-0.16690
6942.48717,-0.02872
6944.41564,0.13273
6946.34411,0.21640
6948.27258,0.20039
6950.20105,0.11047
6952.12952,0.08790
6954.05799,0.17795
6955.98645,0.21301
6957.91492,0.14804
6959.84339,0.12093
6961.77186,0.10461
6963.70033,0.04698
6965.62880,0.03863
6967.55727,0.14878
6969.48573,0.31363
6971.41420,0.42788
6973.34267,0.44668
6975.27114,0.37208
6977.19961,0.24119
6979.12808,0.05891
6981.05655,-0.10488
6982.98501,-0.10781
6984.91348,0.02578
6986.84195,0.09361
6988.77042,0.04113
6990.69889,0.01190
6992.62736,0.04458
6994.55583,0.05381
6996.48430,-0.01586
6998.41276,-0.14670
7000.34123,-0.22294
7002.26970,-0.17033
7004.19817,-0.04703
7006.12664,0.13123
7008.05511,0.30623
7009.98358,0.32983
7011.91204,0.23746
7013.84051,0.13023
7015.76898,0.02625
7017.69745,-0.02887
7019.62592,0.05313
7021.55439,0.16999
7023.48286,0.16589
7025.41133,0.05290
7027.33979,-0.07932
7029.26826,-0.09100
7031.19673,0.01097
7033.12520,0.08798
7035.05367,0.09055
7036.98214,0.04341
7038.91061,0.04581
7040.83907,0.08734
7042.76754,0.11555
7044.69601,0.09636
7046.62448,0.00524
7048.55295,-0.12351
7050.48142,-0.15307
7052.40989,-0.06782
7054.33836,-0.00168
7056.26682,0.00733
7058.19529,0.07936
7060.12376,0.19599
7062.05223,0.15543
7063.98070,0.00197
7065.90917,-0.03885
7067.83764,0.01120
7069.76610,0.00561
7071.69457,-0.11974
7073.62304,-0.22980
7075.55151,-0.17638
7077.47998,-0.07543
7079.40845,-0.03781
7081.33692,-0.06268
7083.26539,-0.04149
7085.19385,0.04261
7087.12232,0.12418
7089.05079,0.19168
7090.97926,0.21237
7092.90773,0.19143
7094.83620,0.19917
7096.76467,0.20994
7098.69313,0.12043
7100.62160,-0.05764
7102.55007,-0.18169
7104.47854,-0.17320
7106.40701,-0.03766
7108.33548,0.09524
7110.26395,0.13103
7112.19242,0.07456
7114.12088,-0.02494
7116.04935,-0.03386
7117.97782,0.08743
7119.90629,0.19924
7121.83476,0.27457
7123.76323,0.30339
7125.69170,0.26509
7127.62016,0.24016
7129.54863,0.20441
7131.47710,0.10437
7133.40557,0.07943
7135.33404,0.11121
7137.26251,0.06437
7139.19098,0.01422
7141.11944,-0.01488
7143.04791,-0.07747
7144.97638,-0.11618
7146.90485,-0.09905
7148.83332,-0.02242
7150.76179,0.04115
7152.69026,0.01873
7154.61873,0.02271
7156.54719,0.04324
7158.47566,-0.00985
7160.40413,-0.01818
7162.33260,0.02581
7164.26107,0.07324
7166.18954,0.19222
7168.11801,0.34216
7170.04647,0.39471
7171.97494,0.28882
7173.90341,0.09911
7175.83188,-0.02541
7177.76035,-0.00459
7179.68882,0.09485
7181.61729,0.12815
7183.54576,0.03040
7185.47422,-0.12687
7187.40269,-0.26655
7189.33116,-0.24251
7191.25963,-0.01469
7193.18810,0.15079
7195.11657,0.20555
7197.04504,0.20273
7198.97350,0.09932
7200.90197,-0.03581
7202.83044,-0.14511
7204.75891,-0.12594
7206.68738,0.02511
7208.61585,0.08441
7210.54432,0.06235
7212.47279,0.03385
7214.40125,0.01561
7216.32972,0.06229
7218.25819,0.22469
7220.18666,0.28078
7222.11513,0.21838
7224.04360,0.21902
7225.97207,0.24865
7227.90053,0.20702
7229.82900,0.12526
7231.75747,0.08550
7233.68594,0.12002
7235.61441,0.13058
7237.54288,0.08361
7239.47135,0.12275
7241.39982,0.25540
7243.32828,0.24751
7245.25675,0.13410
7247.18522,0.05579
7249.11369,-0.04108
7251.04216,-0.12183
7252.97063,-0.08474
7254.89910,0.05752
7256.82756,0.16381
7258.75603,0.17094
7260.68450,0.07553
7262.61297,-0.00315
7264.54144,0.04642
7266.46991,0.17558
7268.39838,0.22297
7270.32685,0.20326
7272.25531,0.30936
7274.18378,0.36349
7276.11225,0.25655
7278.04072,0.26211
7279.96919,0.38729
7281.89766,0.27361
7283.82613,-0.01185
7285.75459,-0.16599
7287.68306,-0.10790
7289.61153,0.01047
7291.54000,-0.01853
7293.46847,-0.13515
7295.39694,-0.15676
7297.32541,-0.05258
7299.25387,0.16794
7301.18234,0.39646
7303.11081,0.46272
7305.03928,0.40899
7306.96775,0.29887
7308.89622,0.11410
7310.82469,0.04207
7312.75316,0.03986
7314.68162,-0.08365
7316.61009,-0.29605
7318.53856,-0.35687
7320.46703,-0.19998
7322.39550,0.05625
7324.32397,0.22169
7326.25244,0.20568
7328.18090,0.06092
7330.10937,-0.10025
7332.03784,-0.06720
7333.96631,0.04787
7335.89478,0.08178
7337.82325,0.04154
7339.75172,-0.17562
7341.68019,-0.33115
7343.60865,-0.14736
7345.53712,0.04676
7347.46559,0.09140
7349.39406,0.13054
7351.32253,0.09025
7353.25100,-0.03620
7355.17947,0.00665
7357.10793,0.14652
7359.03640,0.07086
7360.96487,-0.02575
7362.89334,0.03012
7364.82181,0.03575
7366.75028,0.01761
7368.67875,0.02252
7370.60722,-0.03392
7372.53568,-0.04495
7374.46415,0.12105
7376.39262,0.20201
7378.32109,0.05224
7380.24956,-0.00969
7382.17803,0.12535
7384.10650,0.27304
7386.03496,0.23032
7387.96343,0.10196
7389.89190,0.21107
7391.82037,0.32823
7393.74884,0.07494
7395.67731,-0.18072
7397.60578,-0.05802
7399.53425,0.07822
7401.46271,-0.00716
7403.39118,-0.08154
7405.31965,-0.00801
7407.24812,-0.05337
7409.17659,-0.08702
7411.10506,0.09715
7413.03353,0.23691
7414.96199,0.22148
7416.89046,0.20131
7418.81893,0.16849
7420.74740,0.04796
7422.67587,0.03609
7424.60434,0.11403
7426.53281,0.05578
7428.46128,-0.08844
7430.38974,-0.02855
7432.31821,0.12830
7434.24668,0.12367
7436.17515,0.07805
7438.10362,0.13803
7440.03209,0.14827
7441.96056,0.01903
7443.88902,-0.01795
7445.81749,0.05950
7447.74596,0.13835
7449.67443,0.24636
7451.60290,0.29797
7453.53137,0.23413
7455.45984,0.20821
7457.38831,0.19330
7459.31677,0.02411
7461.24524,-0.18466
7463.17371,-0.11860
7465.10218,0.11587
7467.03065,0.23090
7468.95912,0.19950
7470.88759,0.17235
7472.81605,0.16610
7474.74452,0.13344
7476.67299,0.17577
7478.60146,0.35427
7480.52993,0.43652
7482.45840,0.27635
7484.38687,0.10670
7486.31533,0.00811
7488.24380,-0.08316
7490.17227,-0.11609
7492.10074,-0.06009
7494.02921,0.00083
7495.95768,0.05046
7497.88615,0.12832
