399.19301,0.21732
401.12148,0.14663
403.04995,0.19290
404.97842,0.19908
406.90689,0.13789
408.83536,0.01016
410.76382,-0.09537
412.69229,-0.11834
414.62076,-0.09518
416.54923,0.01176
418.47770,0.14824
420.40617,0.01970
422.33464,-0.16262
424.26311,-0.16718
426.19157,-0.08640
428.12004,-0.02218
430.04851,0.05935
431.97698,0.13296
433.90545,0.10697
435.83392,0.04043
437.76239,0.03236
439.69085,0.08645
441.61932,0.17843
443.54779,0.26981
445.47626,0.25891
447.40473,0.18174
449.33320,0.11372
451.26167,0.06656
453.19013,0.07318
455.11860,0.11060
457.04707,0.10680
458.97554,0.09255
460.90401,0.10510
462.83248,0.09862
464.76095,0.06684
466.68942,0.04537
468.61788,0.07248
470.54635,0.23751
472.47482,0.95405
474.40329,1.79628
476.33176,1.19823
478.26023,0.39900
480.18870,0.12877
482.11716,0.13441
484.04563,0.16647
485.97410,0.16042
487.90257,0.13366
489.83104,0.10991
491.75951,0.07747
493.68798,0.05446
495.61645,0.07700
497.54491,0.12781
499.47338,0.16980
501.40185,0.20267
503.33032,0.20939
505.25879,0.17651
507.18726,0.13287
509.11573,0.09720
511.04419,0.08374
512.97266,0.09319
514.90113,0.09997
516.82960,0.10883
518.75807,0.10233
520.68654,0.07222
522.61501,0.07552
524.54348,0.11237
526.47194,0.13484
528.40041,0.14556
530.32888,0.15140
532.25735,0.15002
534.18582,0.14398
536.11429,0.10784
538.04276,0.04877
539.97122,0.01690
541.89969,0.02756
543.82816,0.05636
545.75663,0.06909
547.68510,0.09000
549.61357,0.08469
551.54204,-0.14298
553.47051,-0.42423
555.39897,-0.32217
557.32744,-0.01105
559.25591,0.10756
561.18438,0.09606
563.11285,0.06715
565.04132,0.05637
566.96979,0.09646
568.89825,0.13078
570.82672,0.13461
572.75519,0.14059
574.68366,0.13792
576.61213,0.11359
578.54060,0.09434
580.46907,0.09246
582.39754,0.10441
584.32600,0.10826
586.25447,0.09613
588.18294,0.09361
590.11141,0.11481
592.03988,0.14573
593.96835,0.16547
595.89682,0.16837
597.82528,0.15669
599.75375,0.13530
601.68222,0.10990
603.61069,0.10110
605.53916,0.11401
607.46763,0.12980
609.39610,0.13893
611.32456,0.12544
613.25303,0.09714
615.18150,0.08862
617.10997,0.09708
619.03844,0.09839
620.96691,0.09757
622.89538,0.10412
624.82385,0.10816
626.75231,0.10072
628.68078,0.08631
630.60925,0.07819
632.53772,0.08984
634.46619,0.12126
636.39466,0.14025
638.32313,0.13385
640.25159,0.12725
642.18006,0.12195
644.10853,0.10654
646.03700,0.08949
647.96547,0.07782
649.89394,0.07751
651.82241,0.09128
653.75088,0.10230
655.67934,0.09707
657.60781,0.08941
659.53628,0.09232
661.46475,0.10132
663.39322,0.10700
665.32169,0.09932
667.25016,0.07778
669.17862,0.07441
671.10709,0.09021
673.03556,0.10070
674.96403,0.12105
676.89250,0.14988
678.82097,0.16378
680.74944,0.15880
682.67791,0.15089
684.60637,0.13533
686.53484,0.10833
688.46331,0.09574
690.39178,0.10160
692.32025,0.11500
694.24872,0.12963
696.17719,0.12670
698.10565,0.10651
700.03412,0.09921
701.96259,0.11447
703.89106,0.13879
705.81953,0.15969
707.74800,0.18405
709.67647,0.27092
711.60494,0.37205
713.53340,0.32837
715.46187,0.20332
717.39034,0.14848
719.31881,0.13254
721.24728,0.11457
723.17575,0.11328
725.10422,0.12938
727.03268,0.14596
728.96115,0.15308
730.88962,0.15765
732.81809,0.15655
734.74656,0.14164
736.67503,0.12237
738.60350,0.11072
740.53197,0.11162
742.46043,0.12409
744.38890,0.13295
746.31737,0.12541
748.24584,0.11238
750.17431,0.11219
752.10278,0.12685
754.03125,0.14608
755.95971,0.16338
757.88818,0.16862
759.81665,0.15808
761.74512,0.14249
763.67359,0.12949
765.60206,0.11961
767.53053,0.11080
769.45900,0.10630
771.38746,0.11090
773.31593,0.11983
775.24440,0.12474
777.17287,0.12661
779.10134,0.13228
781.02981,0.14261
782.95828,0.15065
784.88674,0.14596
786.81521,0.12712
788.74368,0.10835
790.67215,0.10679
792.60062,0.11939
794.52909,0.12846
796.45756,0.13268
798.38602,0.13945
800.31449,0.14442
802.24296,0.14055
804.17143,0.13343
806.09990,0.13830
808.02837,0.14751
809.95684,0.14209
811.88531,0.13122
813.81377,0.13161
815.74224,0.14343
817.67071,0.15561
819.59918,0.15835
821.52765,0.15097
823.45612,0.14181
825.38459,0.13785
827.31305,0.13145
829.24152,0.12095
831.16999,0.11668
833.09846,0.11907
835.02693,0.12684
836.95540,0.14213
838.88387,0.15495
840.81234,0.15440
842.74080,0.14781
844.66927,0.14781
846.59774,0.15598
848.52621,0.16455
850.45468,0.16498
852.38315,0.15811
854.31162,0.15099
856.24008,0.14479
858.16855,0.13987
860.09702,0.13935
862.02549,0.14018
863.95396,0.13986
865.88243,0.14600
867.81090,0.15789
869.73937,0.15948
871.66783,0.15172
873.59630,0.14568
875.52477,0.14079
877.45324,0.14205
879.38171,0.14903
881.31018,0.15300
883.23865,0.15056
885.16711,0.13813
887.09558,0.12442
889.02405,0.12579
890.95252,0.13714
892.88099,0.14675
894.80946,0.15647
896.73793,0.15808
898.66640,0.14584
900.59486,0.13874
902.52333,0.14553
904.45180,0.15273
906.38027,0.14771
908.30874,0.13375
910.23721,0.12748
912.16568,0.13472
914.09414,0.14532
916.02261,0.15112
917.95108,0.15163
919.87955,0.15274
921.80802,0.15981
923.73649,0.16388
925.66496,0.15463
927.59343,0.14048
929.52189,0.13533
931.45036,0.13763
933.37883,0.13555
935.30730,0.12888
937.23577,0.12998
939.16424,0.14075
941.09271,0.14553
943.02117,0.14108
944.94964,0.14471
946.87811,0.15434
948.80658,0.15239
950.73505,0.14311
952.66352,0.14415
954.59199,0.15790
956.52045,0.16888
958.44892,0.16811
960.37739,0.16111
962.30586,0.15607
964.23433,0.15381
966.16280,0.15167
968.09127,0.15236
970.01974,0.15613
971.94820,0.15428
973.87667,0.14278
975.80514,0.13706
977.73361,0.14862
979.66208,0.16010
981.59055,0.15590
983.51902,0.14729
985.44748,0.14588
987.37595,0.14674
989.30442,0.14521
991.23289,0.14695
993.16136,0.15547
995.08983,0.16311
997.01830,0.16170
998.94677,0.15537
1000.87523,0.15206
1002.80370,0.15005
1004.73217,0.14714
1006.66064,0.14936
1008.58911,0.15777
1010.51758,0.16434
1012.44605,0.16706
1014.37451,0.16629
1016.30298,0.16132
1018.23145,0.15673
1020.15992,0.15214
1022.08839,0.14830
1024.01686,0.15145
1025.94533,0.16287
1027.87380,0.17612
1029.80226,0.17549
1031.73073,0.15901
1033.65920,0.14641
1035.58767,0.14851
1037.51614,0.15831
1039.44461,0.16505
1041.37308,0.16371
1043.30154,0.15594
1045.23001,0.14736
1047.15848,0.14843
1049.08695,0.16175
1051.01542,0.16980
1052.94389,0.16302
1054.87236,0.15498
1056.80083,0.15653
1058.72929,0.16398
1060.65776,0.17113
1062.58623,0.17379
1064.51470,0.17178
1066.44317,0.17110
1068.37164,0.17062
1070.30011,0.16831
1072.22857,0.16700
1074.15704,0.16710
1076.08551,0.17175
1078.01398,0.17668
1079.94245,0.17303
1081.87092,0.16897
1083.79939,0.17296
1085.72786,0.17371
1087.65632,0.16581
1089.58479,0.16132
1091.51326,0.16263
1093.44173,0.16474
1095.37020,0.16873
1097.29867,0.17174
1099.22714,0.17403
1101.15560,0.17819
1103.08407,0.17370
1105.01254,0.16529
1106.94101,0.17101
1108.86948,0.17977
1110.79795,0.17384
1112.72642,0.16223
1114.65489,0.15910
1116.58335,0.16534
1118.51182,0.17375
1120.44029,0.17567
1122.36876,0.16872
1124.29723,0.16305
1126.22570,0.16581
1128.15417,0.16851
1130.08263,0.16568
1132.01110,0.16102
1133.93957,0.15722
1135.86804,0.15615
1137.79651,0.15690
1139.72498,0.15527
1141.65345,0.15179
1143.58191,0.15446
1145.51038,0.16363
1147.43885,0.16858
1149.36732,0.16592
1151.29579,0.16266
1153.22426,0.16237
1155.15273,0.15998
1157.08120,0.15481
1159.00966,0.15285
1160.93813,0.15673
1162.86660,0.16265
1164.79507,0.16354
1166.72354,0.16183
1168.65201,0.16344
1170.58048,0.16615
1172.50894,0.16840
1174.43741,0.16896
1176.36588,0.16751
1178.29435,0.16808
1180.22282,0.16892
1182.15129,0.16756
1184.07976,0.16787
1186.00823,0.16731
1187.93669,0.16271
1189.86516,0.15872
1191.79363,0.15539
1193.72210,0.15233
1195.65057,0.15584
1197.57904,0.16524
1199.50751,0.17003
1201.43597,0.16914
1203.36444,0.17006
1205.29291,0.17022
1207.22138,0.16618
1209.14985,0.16393
1211.07832,0.16736
1213.00679,0.17284
1214.93526,0.17353
1216.86372,0.16803
1218.79219,0.16573
1220.72066,0.17108
1222.64913,0.17432
1224.57760,0.17069
1226.50607,0.16756
1228.43454,0.16916
1230.36300,0.17127
1232.29147,0.16999
1234.21994,0.16599
1236.14841,0.16315
1238.07688,0.16387
1240.00535,0.16615
1241.93382,0.16940
1243.86229,0.17334
1245.79075,0.17366
1247.71922,0.16945
1249.64769,0.16718
1251.57616,0.16969
1253.50463,0.17389
1255.43310,0.17780
1257.36157,0.17754
1259.29003,0.17203
1261.21850,0.16673
1263.14697,0.16617
1265.07544,0.17089
1267.00391,0.17646
1268.93238,0.17548
1270.86085,0.16849
1272.78932,0.16572
1274.71778,0.17023
1276.64625,0.17485
1278.57472,0.17474
1280.50319,0.17133
1282.43166,0.17006
1284.36013,0.17262
1286.28860,0.17408
1288.21706,0.17279
1290.14553,0.17288
1292.07400,0.17440
1294.00247,0.17583
1295.93094,0.17661
1297.85941,0.17441
1299.78788,0.17009
1301.71634,0.16593
1303.64481,0.16385
1305.57328,0.16497
1307.50175,0.16821
1309.43022,0.17185
1311.35869,0.17400
1313.28716,0.17504
1315.21563,0.17546
1317.14409,0.17377
1319.07256,0.16952
1321.00103,0.16631
1322.92950,0.16954
1324.85797,0.17632
1326.78644,0.17854
1328.71491,0.17626
1330.64337,0.17368
1332.57184,0.17129
1334.50031,0.17063
1336.42878,0.17371
1338.35725,0.17841
1340.28572,0.17674
1342.21419,0.15840
1344.14266,0.13500
1346.07112,0.13571
1347.99959,0.16013
1349.92806,0.17804
1351.85653,0.18173
1353.78500,0.18022
1355.71347,0.17835
1357.64194,0.17890
1359.57040,0.17761
1361.49887,0.17250
1363.42734,0.16913
1365.35581,0.16927
1367.28428,0.16998
1369.21275,0.17022
1371.14122,0.17100
1373.06969,0.17262
1374.99815,0.17216
1376.92662,0.16929
1378.85509,0.17113
1380.78356,0.17674
1382.71203,0.17900
1384.64050,0.18007
1386.56897,0.18181
1388.49743,0.18183
1390.42590,0.18313
1392.35437,0.18597
1394.28284,0.18376
1396.21131,0.17622
1398.13978,0.17479
1400.06825,0.18175
1401.99672,0.18624
1403.92518,0.18233
1405.85365,0.17779
1407.78212,0.17999
1409.71059,0.18408
1411.63906,0.18513
1413.56753,0.18183
1415.49600,0.17802
1417.42446,0.17988
1419.35293,0.18626
1421.28140,0.18850
1423.20987,0.18925
1425.13834,0.19020
1427.06681,0.18983
1428.99528,0.19001
1430.92375,0.18926
1432.85221,0.18645
1434.78068,0.18414
1436.70915,0.18406
1438.63762,0.18661
1440.56609,0.18878
1442.49456,0.18961
1444.42303,0.19025
1446.35149,0.18941
1448.27996,0.18750
1450.20843,0.19117
1452.13690,0.19773
1454.06537,0.20010
1455.99384,0.20004
1457.92231,0.20066
1459.85077,0.19863
1461.77924,0.19647
1463.70771,0.19561
1465.63618,0.19358
1467.56465,0.19108
1469.49312,0.19142
1471.42159,0.19245
1473.35006,0.18908
1475.27852,0.18540
1477.20699,0.18462
1479.13546,0.18459
1481.06393,0.18513
1482.99240,0.18523
1484.92087,0.18477
1486.84934,0.18481
1488.77780,0.18460
1490.70627,0.18285
1492.63474,0.17908
1494.56321,0.17649
1496.49168,0.18070
1498.42015,0.18439
1500.34862,0.18154
1502.27709,0.18421
1504.20555,0.19024
1506.13402,0.18750
1508.06249,0.18079
1509.99096,0.18352
1511.91943,0.18707
1513.84790,0.18760
1515.77637,0.18365
1517.70483,0.18042
1519.63330,0.18192
1521.56177,0.18497
1523.49024,0.18730
1525.41871,0.18866
1527.34718,0.18751
1529.27565,0.18553
1531.20412,0.18557
1533.13258,0.18416
1535.06105,0.18198
1536.98952,0.18564
1538.91799,0.19532
1540.84646,0.20215
1542.77493,0.19684
1544.70340,0.19070
1546.63186,0.18929
1548.56033,0.19179
1550.48880,0.19159
1552.41727,0.18493
1554.34574,0.17919
1556.27421,0.18130
1558.20268,0.18700
1560.13115,0.18710
1562.05961,0.18562
1563.98808,0.18346
1565.91655,0.18268
1567.84502,0.18622
1569.77349,0.18885
1571.70196,0.18679
1573.63043,0.18614
1575.55889,0.18797
1577.48736,0.18788
1579.41583,0.18662
1581.34430,0.18672
1583.27277,0.18667
1585.20124,0.18555
1587.12971,0.18439
1589.05818,0.18283
1590.98664,0.18087
1592.91511,0.18111
1594.84358,0.18367
1596.77205,0.18412
1598.70052,0.18074
1600.62899,0.17876
1602.55746,0.18172
1604.48592,0.18446
1606.41439,0.18410
1608.34286,0.18187
1610.27133,0.17808
1612.19980,0.17907
1614.12827,0.18849
1616.05674,0.19809
1617.98521,0.19595
1619.91367,0.19004
1621.84214,0.18808
1623.77061,0.18953
1625.69908,0.19171
1627.62755,0.19201
1629.55602,0.19026
1631.48449,0.18915
1633.41295,0.19208
1635.34142,0.19933
1637.26989,0.20019
1639.19836,0.19535
1641.12683,0.19183
1643.05530,0.18946
1644.98377,0.19010
1646.91223,0.19629
1648.84070,0.19977
1650.76917,0.19972
1652.69764,0.20267
1654.62611,0.20154
1656.55458,0.19631
1658.48305,0.19431
1660.41152,0.19562
1662.33998,0.19809
1664.26845,0.19672
1666.19692,0.19338
1668.12539,0.19375
1670.05386,0.19789
1671.98233,0.19892
1673.91080,0.19639
1675.83926,0.19436
1677.76773,0.19532
1679.69620,0.19795
1681.62467,0.20002
1683.55314,0.19915
1685.48161,0.19491
1687.41008,0.19143
1689.33855,0.18903
1691.26701,0.18897
1693.19548,0.19364
1695.12395,0.20053
1697.05242,0.20063
1698.98089,0.19633
1700.90936,0.19552
1702.83783,0.19738
1704.76629,0.20164
1706.69476,0.20335
1708.62323,0.19817
1710.55170,0.19183
1712.48017,0.18955
1714.40864,0.19252
1716.33711,0.19485
1718.26558,0.19024
1720.19404,0.18767
1722.12251,0.18712
1724.05098,0.18576
1725.97945,0.18550
1727.90792,0.18529
1729.83639,0.18460
1731.76486,0.18848
1733.69332,0.19561
1735.62179,0.19415
1737.55026,0.19049
1739.47873,0.19047
1741.40720,0.19028
1743.33567,0.18799
1745.26414,0.18397
1747.19261,0.18097
1749.12107,0.18552
1751.04954,0.19309
1752.97801,0.19475
1754.90648,0.19427
1756.83495,0.19337
1758.76342,0.19097
1760.69189,0.18932
1762.62035,0.19019
1764.54882,0.19057
1766.47729,0.18998
1768.40576,0.19095
1770.33423,0.19184
1772.26270,0.18740
1774.19117,0.18117
1776.11964,0.18030
1778.04810,0.18289
1779.97657,0.18629
1781.90504,0.18911
1783.83351,0.19180
1785.76198,0.19340
1787.69045,0.19172
1789.61892,0.18924
1791.54738,0.18937
1793.47585,0.19178
1795.40432,0.19281
1797.33279,0.19326
1799.26126,0.19406
1801.18973,0.19264
1803.11820,0.19015
1805.04666,0.18951
1806.97513,0.19073
1808.90360,0.19271
1810.83207,0.19289
1812.76054,0.19098
1814.68901,0.18888
1816.61748,0.18298
1818.54595,0.17226
1820.47441,0.16810
1822.40288,0.17648
1824.33135,0.18777
1826.25982,0.19145
1828.18829,0.19068
1830.11676,0.19105
1832.04523,0.19147
1833.97369,0.19076
1835.90216,0.18891
1837.83063,0.18745
1839.75910,0.18796
1841.68757,0.18875
1843.61604,0.18877
1845.54451,0.19006
1847.47298,0.19300
1849.40144,0.19469
1851.32991,0.19371
1853.25838,0.19113
1855.18685,0.18771
1857.11532,0.18370
1859.04379,0.18181
1860.97226,0.18480
1862.90072,0.18967
1864.82919,0.19122
1866.75766,0.18919
1868.68613,0.18748
1870.61460,0.18769
1872.54307,0.18753
1874.47154,0.18669
1876.40001,0.18573
1878.32847,0.18595
1880.25694,0.18834
1882.18541,0.19103
1884.11388,0.19264
1886.04235,0.19294
1887.97082,0.19212
1889.89929,0.19172
1891.82775,0.19203
1893.75622,0.19179
1895.68469,0.19122
1897.61316,0.19178
1899.54163,0.19276
1901.47010,0.19268
1903.39857,0.19272
1905.32704,0.19378
1907.25550,0.19425
1909.18397,0.19336
1911.11244,0.19280
1913.04091,0.19409
1914.96938,0.19548
1916.89785,0.19481
1918.82632,0.19417
1920.75478,0.19569
1922.68325,0.19687
1924.61172,0.19575
1926.54019,0.19322
1928.46866,0.18956
1930.39713,0.18607
1932.32560,0.18584
1934.25407,0.18722
1936.18253,0.18663
1938.11100,0.18613
1940.03947,0.18813
1941.96794,0.19135
1943.89641,0.19350
1945.82488,0.19303
1947.75335,0.18969
1949.68181,0.18670
1951.61028,0.18802
1953.53875,0.19056
1955.46722,0.19015
1957.39569,0.18942
1959.32416,0.19033
1961.25263,0.19150
1963.18110,0.19282
1965.10956,0.19348
1967.03803,0.19254
1968.96650,0.19095
1970.89497,0.18946
1972.82344,0.19003
1974.75191,0.19243
1976.68038,0.19226
1978.60884,0.18958
1980.53731,0.18908
1982.46578,0.19177
1984.39425,0.19424
1986.32272,0.19428
1988.25119,0.19301
1990.17966,0.19240
1992.10812,0.19208
1994.03659,0.19102
1995.96506,0.19031
1997.89353,0.18996
1999.82200,0.18858
2001.75047,0.18842
2003.67894,0.19109
2005.60741,0.19226
2007.53587,0.19115
2009.46434,0.19179
2011.39281,0.19311
2013.32128,0.19232
2015.24975,0.19095
2017.17822,0.19115
2019.10669,0.19149
2021.03515,0.19096
2022.96362,0.19120
2024.89209,0.19174
2026.82056,0.19108
2028.74903,0.19064
2030.67750,0.19273
2032.60597,0.19569
2034.53444,0.19599
2036.46290,0.19479
2038.39137,0.19486
2040.31984,0.19539
2042.24831,0.19397
2044.17678,0.19053
2046.10525,0.18860
2048.03372,0.18913
2049.96218,0.18811
2051.89065,0.18594
2053.81912,0.18793
2055.74759,0.19173
2057.67606,0.19127
2059.60453,0.18902
2061.53300,0.18958
2063.46147,0.19142
2065.38993,0.19143
2067.31840,0.19054
2069.24687,0.19088
2071.17534,0.19087
2073.10381,0.18892
2075.03228,0.18787
2076.96075,0.19079
2078.88921,0.19529
2080.81768,0.19700
2082.74615,0.19540
2084.67462,0.19350
2086.60309,0.19432
2088.53156,0.19693
2090.46003,0.19680
2092.38850,0.19286
2094.31696,0.18991
2096.24543,0.19011
2098.17390,0.19155
2100.10237,0.19382
2102.03084,0.19613
2103.95931,0.19642
2105.88778,0.19466
2107.81624,0.19391
2109.74471,0.19561
2111.67318,0.19712
2113.60165,0.19507
2115.53012,0.18970
2117.45859,0.18862
2119.38706,0.19536
2121.31553,0.20128
2123.24399,0.20020
2125.17246,0.19582
2127.10093,0.19320
2129.02940,0.19333
2130.95787,0.19310
2132.88634,0.18768
2134.81481,0.18115
2136.74327,0.18167
2138.67174,0.18582
2140.60021,0.18871
2142.52868,0.19060
2144.45715,0.19085
2146.38562,0.19185
2148.31409,0.19481
2150.24255,0.19521
2152.17102,0.19307
2154.09949,0.19240
2156.02796,0.19211
2157.95643,0.19154
2159.88490,0.19257
2161.81337,0.19469
2163.74184,0.19643
2165.67030,0.19686
2167.59877,0.19590
2169.52724,0.19314
2171.45571,0.18935
2173.38418,0.18851
2175.31265,0.19129
2177.24112,0.19294
2179.16958,0.19212
2181.09805,0.19135
2183.02652,0.18909
2184.95499,0.18586
2186.88346,0.18654
2188.81193,0.18926
2190.74040,0.18936
2192.66887,0.18847
2194.59733,0.18947
2196.52580,0.19193
2198.45427,0.19435
2200.38274,0.19617
2202.31121,0.19650
2204.23968,0.19451
2206.16815,0.19174
2208.09661,0.19082
2210.02508,0.19236
2211.95355,0.19477
2213.88202,0.19672
2215.81049,0.19672
2217.73896,0.19449
2219.66743,0.19360
2221.59590,0.19414
2223.52436,0.19350
2225.45283,0.19408
2227.38130,0.19532
2229.30977,0.19365
2231.23824,0.19134
2233.16671,0.19107
2235.09518,0.19063
2237.02364,0.18875
2238.95211,0.18768
2240.88058,0.18838
2242.80905,0.18960
2244.73752,0.19047
2246.66599,0.19249
2248.59446,0.19555
2250.52293,0.19599
2252.45139,0.19430
2254.37986,0.19233
2256.30833,0.18971
2258.23680,0.18809
2260.16527,0.18720
2262.09374,0.18554
2264.02221,0.18507
2265.95067,0.18733
2267.87914,0.18999
2269.80761,0.19031
2271.73608,0.18859
2273.66455,0.18689
2275.59302,0.18612
2277.52149,0.18450
2279.44996,0.18317
2281.37842,0.18525
2283.30689,0.18717
2285.23536,0.18566
2287.16383,0.18259
2289.09230,0.17888
2291.02077,0.17435
2292.94924,0.17038
2294.87770,0.16867
2296.80617,0.16771
2298.73464,0.16618
2300.66311,0.16446
2302.59158,0.16060
2304.52005,0.15474
2306.44852,0.15135
2308.37699,0.15217
2310.30545,0.15275
2312.23392,0.14789
2314.16239,0.13859
2316.09086,0.13189
2318.01933,0.13061
2319.94780,0.12841
2321.87627,0.12222
2323.80473,0.11685
2325.73320,0.11132
2327.66167,0.10189
2329.59014,0.09473
2331.51861,0.09517
2333.44708,0.09937
2335.37555,0.10477
2337.30401,0.10498
2339.23248,0.09196
2341.16095,0.07559
2343.08942,0.07453
2345.01789,0.08859
2346.94636,0.10030
2348.87483,0.10220
2350.80330,0.09531
2352.73176,0.07843
2354.66023,0.05709
2356.58870,0.05569
2358.51717,0.07738
2360.44564,0.07671
2362.37411,0.05139
2364.30258,0.04764
2366.23104,0.06621
2368.15951,0.08483
2370.08798,0.10500
2372.01645,0.12493
2373.94492,0.13351
2375.87339,0.13581
2377.80186,0.14491
2379.73033,0.15948
2381.65879,0.17186
2383.58726,0.18177
2385.51573,0.18871
2387.44420,0.18992
2389.37267,0.18948
2391.30114,0.19188
2393.22961,0.19479
2395.15807,0.19605
2397.08654,0.19612
2399.01501,0.19475
2400.94348,0.19339
2402.87195,0.19485
2404.80042,0.19701
2406.72889,0.19604
2408.65736,0.19303
2410.58582,0.19184
2412.51429,0.19329
2414.44276,0.19474
2416.37123,0.19469
2418.29970,0.19391
2420.22817,0.19337
2422.15664,0.19168
2424.08510,0.18816
2426.01357,0.18631
2427.94204,0.18922
2429.87051,0.19380
2431.79898,0.19570
2433.72745,0.19541
2435.65592,0.19409
2437.58439,0.19331
2439.51285,0.19493
2441.44132,0.19668
2443.36979,0.19570
2445.29826,0.19379
2447.22673,0.19353
2449.15520,0.19444
2451.08367,0.19440
2453.01213,0.19329
2454.94060,0.19466
2456.86907,0.19659
2458.79754,0.19492
2460.72601,0.19255
2462.65448,0.19099
2464.58295,0.19052
2466.51142,0.19304
2468.43988,0.19673
2470.36835,0.19740
2472.29682,0.19540
2474.22529,0.19414
2476.15376,0.19308
2478.08223,0.19236
2480.01070,0.19482
2481.93916,0.19869
2483.86763,0.19902
2485.79610,0.19606
2487.72457,0.19432
2489.65304,0.19468
2491.58151,0.19544
2493.50998,0.19547
2495.43844,0.19544
2497.36691,0.19603
2499.29538,0.19461
2501.22385,0.19186
2503.15232,0.19172
2505.08079,0.19198
2507.00926,0.19005
2508.93773,0.18890
2510.86619,0.19080
2512.79466,0.19520
2514.72313,0.19962
2516.65160,0.19982
2518.58007,0.19580
2520.50854,0.19390
2522.43701,0.19546
2524.36547,0.19501
2526.29394,0.19309
2528.22241,0.19348
2530.15088,0.19395
2532.07935,0.19255
2534.00782,0.19200
2535.93629,0.19340
2537.86476,0.19484
2539.79322,0.19540
2541.72169,0.19545
2543.65016,0.19640
2545.57863,0.19920
2547.50710,0.20127
2549.43557,0.20019
2551.36404,0.19754
2553.29250,0.19679
2555.22097,0.19822
2557.14944,0.19775
2559.07791,0.19458
2561.00638,0.19269
2562.93485,0.19359
2564.86332,0.19536
2566.79179,0.19690
2568.72025,0.19742
2570.64872,0.19593
2572.57719,0.19455
2574.50566,0.19410
2576.43413,0.19235
2578.36260,0.19114
2580.29107,0.19324
2582.21953,0.19595
2584.14800,0.19637
2586.07647,0.19572
2588.00494,0.19557
2589.93341,0.19460
2591.86188,0.19199
2593.79035,0.19158
2595.71882,0.19581
2597.64728,0.20009
2599.57575,0.20012
2601.50422,0.19705
2603.43269,0.19356
2605.36116,0.19277
2607.28963,0.19494
2609.21810,0.19494
2611.14656,0.19291
2613.07503,0.19427
2615.00350,0.19936
2616.93197,0.20340
2618.86044,0.20137
2620.78891,0.19634
2622.71738,0.19483
2624.64585,0.19644
2626.57431,0.19799
2628.50278,0.19789
2630.43125,0.19678
2632.35972,0.19652
2634.28819,0.19770
2636.21666,0.19918
2638.14513,0.20007
2640.07359,0.20040
2642.00206,0.20083
2643.93053,0.20224
2645.85900,0.20070
2647.78747,0.19402
2649.71594,0.19065
2651.64441,0.19503
2653.57288,0.19971
2655.50134,0.20056
2657.42981,0.19988
2659.35828,0.19897
2661.28675,0.19962
2663.21522,0.20096
2665.14369,0.19978
2667.07216,0.19895
2669.00062,0.20077
2670.92909,0.20063
2672.85756,0.19825
2674.78603,0.19819
2676.71450,0.19895
2678.64297,0.19871
2680.57144,0.20014
2682.49990,0.20246
2684.42837,0.20368
2686.35684,0.20545
2688.28531,0.20722
2690.21378,0.20610
2692.14225,0.20409
2694.07072,0.20426
2695.99919,0.20546
2697.92765,0.20501
2699.85612,0.20236
2701.78459,0.20024
2703.71306,0.19916
2705.64153,0.19739
2707.57000,0.19789
2709.49847,0.20236
2711.42693,0.20595
2713.35540,0.20471
2715.28387,0.20039
2717.21234,0.19777
2719.14081,0.19925
2721.06928,0.20216
2722.99775,0.20334
2724.92622,0.20387
2726.85468,0.20492
2728.78315,0.20422
2730.71162,0.20293
2732.64009,0.20431
2734.56856,0.20528
2736.49703,0.20276
2738.42550,0.20114
2740.35396,0.20468
2742.28243,0.20963
2744.21090,0.21017
2746.13937,0.20657
2748.06784,0.20425
2749.99631,0.20553
2751.92478,0.20660
2753.85325,0.20643
2755.78171,0.20755
2757.71018,0.20900
2759.63865,0.20874
2761.56712,0.20824
2763.49559,0.20837
2765.42406,0.20670
2767.35253,0.20409
2769.28099,0.20137
2771.20946,0.19832
2773.13793,0.19876
2775.06640,0.20144
2776.99487,0.20220
2778.92334,0.20356
2780.85181,0.20778
2782.78028,0.21100
2784.70874,0.20955
2786.63721,0.20653
2788.56568,0.20721
2790.49415,0.21108
2792.42262,0.21302
2794.35109,0.21140
2796.27956,0.20960
2798.20802,0.20856
2800.13649,0.20769
2802.06496,0.20846
2803.99343,0.20939
2805.92190,0.20872
2807.85037,0.20850
2809.77884,0.20911
2811.70731,0.21053
2813.63577,0.21268
2815.56424,0.21326
2817.49271,0.21275
2819.42118,0.21282
2821.34965,0.21270
2823.27812,0.21301
2825.20659,0.21429
2827.13505,0.21418
2829.06352,0.21173
2830.99199,0.20840
2832.92046,0.20706
2834.84893,0.20876
2836.77740,0.21041
2838.70587,0.21106
2840.63433,0.21072
2842.56280,0.20943
2844.49127,0.20819
2846.41974,0.20672
2848.34821,0.20741
2850.27668,0.21168
2852.20515,0.21549
2854.13362,0.21577
2856.06208,0.21394
2857.99055,0.21089
2859.91902,0.20824
2861.84749,0.20974
2863.77596,0.21225
2865.70443,0.21126
2867.63290,0.20819
2869.56136,0.20538
2871.48983,0.20408
2873.41830,0.20477
2875.34677,0.20669
2877.27524,0.20831
2879.20371,0.21167
2881.13218,0.21606
2883.06065,0.21531
2884.98911,0.20939
2886.91758,0.20422
2888.84605,0.20471
2890.77452,0.20907
2892.70299,0.21188
2894.63146,0.21266
2896.55993,0.21296
2898.48839,0.21215
2900.41686,0.20959
2902.34533,0.20628
2904.27380,0.20531
2906.20227,0.20611
2908.13074,0.20446
2910.05921,0.20240
2911.98768,0.20221
2913.91614,0.20200
2915.84461,0.20290
2917.77308,0.20491
2919.70155,0.20730
2921.63002,0.21057
2923.55849,0.20670
2925.48696,0.19315
2927.41542,0.18972
2929.34389,0.20332
2931.27236,0.21285
2933.20083,0.21097
2935.12930,0.20865
2937.05777,0.20930
2938.98624,0.21177
2940.91471,0.21295
2942.84317,0.20904
2944.77164,0.20414
2946.70011,0.20310
2948.62858,0.20419
2950.55705,0.20371
2952.48552,0.20390
2954.41399,0.20806
2956.34245,0.20985
2958.27092,0.20778
2960.19939,0.20770
2962.12786,0.20895
2964.05633,0.21139
2965.98480,0.21554
2967.91327,0.21739
2969.84174,0.21545
2971.77020,0.21259
2973.69867,0.21205
2975.62714,0.21240
2977.55561,0.20957
2979.48408,0.20597
2981.41255,0.20518
2983.34102,0.20465
2985.26948,0.20451
2987.19795,0.20833
2989.12642,0.21327
2991.05489,0.21471
2992.98336,0.21379
2994.91183,0.21284
2996.84030,0.21273
2998.76877,0.21395
3000.69723,0.21456
3002.62570,0.21406
3004.55417,0.21644
3006.48264,0.21988
3008.41111,0.21751
3010.33958,0.21043
3012.26805,0.20299
3014.19651,0.19703
3016.12498,0.19733
3018.05345,0.20693
3019.98192,0.21618
3021.91039,0.21572
3023.83886,0.21272
3025.76733,0.21278
3027.69579,0.21181
3029.62426,0.21080
3031.55273,0.21156
3033.48120,0.21148
3035.40967,0.20933
3037.33814,0.20604
3039.26661,0.20458
3041.19508,0.20698
3043.12354,0.21192
3045.05201,0.21594
3046.98048,0.21705
3048.90895,0.21690
3050.83742,0.21574
3052.76589,0.21421
3054.69436,0.21238
3056.62282,0.20743
3058.55129,0.20338
3060.47976,0.20590
3062.40823,0.21042
3064.33670,0.20987
3066.26517,0.20681
3068.19364,0.20810
3070.12211,0.21355
3072.05057,0.21797
3073.97904,0.21696
3075.90751,0.21298
3077.83598,0.21310
3079.76445,0.21608
3081.69292,0.21543
3083.62139,0.21339
3085.54985,0.21322
3087.47832,0.21246
3089.40679,0.21272
3091.33526,0.21460
3093.26373,0.21483
3095.19220,0.21419
3097.12067,0.21541
3099.04914,0.21630
3100.97760,0.21163
3102.90607,0.20454
3104.83454,0.20230
3106.76301,0.20387
3108.69148,0.20597
3110.61995,0.20575
3112.54842,0.20261
3114.47688,0.20498
3116.40535,0.21441
3118.33382,0.21873
3120.26229,0.21438
3122.19076,0.20858
3124.11923,0.20428
3126.04770,0.20361
3127.97617,0.20999
3129.90463,0.21602
3131.83310,0.21431
3133.76157,0.21071
3135.69004,0.21235
3137.61851,0.21967
3139.54698,0.22452
3141.47545,0.22097
3143.40391,0.21650
3145.33238,0.21581
3147.26085,0.21467
3149.18932,0.21309
3151.11779,0.21474
3153.04626,0.21815
3154.97473,0.21722
3156.90320,0.21116
3158.83166,0.20863
3160.76013,0.21242
3162.68860,0.21585
3164.61707,0.21928
3166.54554,0.22351
3168.47401,0.22288
3170.40248,0.21959
3172.33094,0.21916
3174.25941,0.22206
3176.18788,0.22595
3178.11635,0.22640
3180.04482,0.22268
3181.97329,0.21651
3183.90176,0.21181
3185.83022,0.21315
3187.75869,0.21537
3189.68716,0.21446
3191.61563,0.21552
3193.54410,0.21874
3195.47257,0.21956
3197.40104,0.21774
3199.32951,0.21571
3201.25797,0.21564
3203.18644,0.21718
3205.11491,0.21805
3207.04338,0.21900
3208.97185,0.22057
3210.90032,0.22223
3212.82879,0.22286
3214.75725,0.21890
3216.68572,0.21250
3218.61419,0.20910
3220.54266,0.20860
3222.47113,0.20974
3224.39960,0.21071
3226.32807,0.21056
3228.25654,0.21199
3230.18500,0.21552
3232.11347,0.21918
3234.04194,0.22031
3235.97041,0.21495
3237.89888,0.20885
3239.82735,0.21354
3241.75582,0.22115
3243.68428,0.21909
3245.61275,0.21467
3247.54122,0.21417
3249.46969,0.21421
3251.39816,0.21308
3253.32663,0.21060
3255.25510,0.20998
3257.18357,0.21166
3259.11203,0.21131
3261.04050,0.20947
3262.96897,0.20870
3264.89744,0.20936
3266.82591,0.21068
3268.75438,0.21111
3270.68285,0.21129
3272.61131,0.21069
3274.53978,0.20724
3276.46825,0.20455
3278.39672,0.20635
3280.32519,0.20784
3282.25366,0.20478
3284.18213,0.20309
3286.11060,0.20552
3288.03906,0.20717
3289.96753,0.20758
3291.89600,0.20696
3293.82447,0.20539
3295.75294,0.20651
3297.68141,0.21054
3299.60988,0.21337
3301.53834,0.21407
3303.46681,0.21435
3305.39528,0.21294
3307.32375,0.20965
3309.25222,0.20859
3311.18069,0.21057
3313.10916,0.21051
3315.03763,0.20619
3316.96609,0.20051
3318.89456,0.19849
3320.82303,0.20045
3322.75150,0.19990
3324.67997,0.19834
3326.60844,0.20014
3328.53691,0.19968
3330.46537,0.19589
3332.39384,0.19684
3334.32231,0.20437
3336.25078,0.21231
3338.17925,0.21606
3340.10772,0.21636
3342.03619,0.21711
3343.96466,0.21779
3345.89312,0.21405
3347.82159,0.20900
3349.75006,0.20834
3351.67853,0.20896
3353.60700,0.20843
3355.53547,0.20804
3357.46394,0.20624
3359.39240,0.20586
3361.32087,0.20758
3363.24934,0.20844
3365.17781,0.21093
3367.10628,0.21279
3369.03475,0.21267
3370.96322,0.21339
3372.89168,0.21116
3374.82015,0.20813
3376.74862,0.20901
3378.67709,0.20839
3380.60556,0.20456
3382.53403,0.20271
3384.46250,0.20431
3386.39097,0.20615
3388.31943,0.20888
3390.24790,0.21466
3392.17637,0.21603
3394.10484,0.20985
3396.03331,0.20654
3397.96178,0.20642
3399.89025,0.19997
3401.81871,0.19312
3403.74718,0.19539
3405.67565,0.20116
3407.60412,0.20439
3409.53259,0.20608
3411.46106,0.20852
3413.38953,0.21135
3415.31800,0.21055
3417.24646,0.20678
3419.17493,0.20451
3421.10340,0.20302
3423.03187,0.20141
3424.96034,0.20337
3426.88881,0.20735
3428.81728,0.20862
3430.74574,0.20731
3432.67421,0.20280
3434.60268,0.19742
3436.53115,0.19331
3438.45962,0.18580
3440.38809,0.18030
3442.31656,0.18629
3444.24503,0.19756
3446.17349,0.20213
3448.10196,0.20024
3450.03043,0.20020
3451.95890,0.19817
3453.88737,0.19093
3455.81584,0.18915
3457.74431,0.19532
3459.67277,0.19823
3461.60124,0.19329
3463.52971,0.18798
3465.45818,0.18616
3467.38665,0.18382
3469.31512,0.18091
3471.24359,0.18123
3473.17206,0.18595
3475.10052,0.19330
3477.02899,0.19705
3478.95746,0.19536
3480.88593,0.19450
3482.81440,0.19238
3484.74287,0.18531
3486.67134,0.18060
3488.59980,0.18036
3490.52827,0.17895
3492.45674,0.17553
3494.38521,0.17500
3496.31368,0.17986
3498.24215,0.18205
3500.17062,0.17631
3502.09909,0.17286
3504.02755,0.17825
3505.95602,0.18522
3507.88449,0.18713
3509.81296,0.18021
3511.74143,0.17254
3513.66990,0.17272
3515.59837,0.17147
3517.52683,0.16846
3519.45530,0.17280
3521.38377,0.17617
3523.31224,0.17129
3525.24071,0.16955
3527.16918,0.17345
3529.09765,0.17171
3531.02611,0.16657
3532.95458,0.16676
3534.88305,0.17041
3536.81152,0.17121
3538.73999,0.16897
3540.66846,0.17083
3542.59693,0.17726
3544.52540,0.18029
3546.45386,0.17870
3548.38233,0.17984
3550.31080,0.18205
3552.23927,0.17857
3554.16774,0.17179
3556.09621,0.16658
3558.02468,0.16287
3559.95314,0.15865
3561.88161,0.15398
3563.81008,0.15215
3565.73855,0.15329
3567.66702,0.15499
3569.59549,0.15468
3571.52396,0.15440
3573.45243,0.15615
3575.38089,0.15614
3577.30936,0.15394
3579.23783,0.15525
3581.16630,0.15989
3583.09477,0.16205
3585.02324,0.16209
3586.95171,0.16385
3588.88017,0.16095
3590.80864,0.15245
3592.73711,0.14632
3594.66558,0.14428
3596.59405,0.14692
3598.52252,0.15333
3600.45099,0.15625
3602.37946,0.15131
3604.30792,0.14423
3606.23639,0.13961
3608.16486,0.13978
3610.09333,0.14591
3612.02180,0.15073
3613.95027,0.14903
3615.87874,0.14578
3617.80720,0.14528
3619.73567,0.14422
3621.66414,0.14139
3623.59261,0.14127
3625.52108,0.14454
3627.44955,0.14925
3629.37802,0.15047
3631.30649,0.14583
3633.23495,0.14184
3635.16342,0.14167
3637.09189,0.14342
3639.02036,0.14174
3640.94883,0.13538
3642.87730,0.12896
3644.80577,0.12846
3646.73423,0.13488
3648.66270,0.14230
3650.59117,0.14425
3652.51964,0.14312
3654.44811,0.14200
3656.37658,0.14129
3658.30505,0.13855
3660.23352,0.13390
3662.16198,0.13138
3664.09045,0.12990
3666.01892,0.12572
3667.94739,0.12344
3669.87586,0.12880
3671.80433,0.13529
3673.73280,0.13852
3675.66126,0.14060
3677.58973,0.14008
3679.51820,0.13728
3681.44667,0.13265
3683.37514,0.12699
3685.30361,0.12198
3687.23208,0.11867
3689.16055,0.12052
3691.08901,0.12550
3693.01748,0.12585
3694.94595,0.12469
3696.87442,0.12305
3698.80289,0.12204
3700.73136,0.12612
3702.65983,0.13220
3704.58829,0.13351
3706.51676,0.13059
3708.44523,0.12634
3710.37370,0.12583
3712.30217,0.13068
3714.23064,0.13312
3716.15911,0.12968
3718.08757,0.12212
3720.01604,0.11565
3721.94451,0.11459
3723.87298,0.11899
3725.80145,0.12431
3727.72992,0.12538
3729.65839,0.12758
3731.58686,0.13603
3733.51532,0.14202
3735.44379,0.13502
3737.37226,0.12818
3739.30073,0.12938
3741.22920,0.13093
3743.15767,0.12941
3745.08614,0.12753
3747.01460,0.13000
3748.94307,0.13520
3750.87154,0.13465
3752.80001,0.12611
3754.72848,0.12488
3756.65695,0.13214
3758.58542,0.13789
3760.51389,0.13075
3762.44235,0.12027
3764.37082,0.11969
3766.29929,0.12649
3768.22776,0.13098
3770.15623,0.13092
3772.08470,0.12931
3774.01317,0.12944
3775.94163,0.13114
3777.87010,0.13152
3779.79857,0.12984
3781.72704,0.13018
3783.65551,0.13265
3785.58398,0.13205
3787.51245,0.12777
3789.44092,0.12577
3791.36938,0.12777
3793.29785,0.12961
3795.22632,0.13064
3797.15479,0.13297
3799.08326,0.13265
3801.01173,0.12329
3802.94020,0.11220
3804.86866,0.11176
3806.79713,0.11777
3808.72560,0.12348
3810.65407,0.12553
3812.58254,0.12684
3814.51101,0.13036
3816.43948,0.13311
3818.36795,0.12935
3820.29641,0.12710
3822.22488,0.13433
3824.15335,0.13938
3826.08182,0.13520
3828.01029,0.12565
3829.93876,0.11889
3831.86723,0.11656
3833.79569,0.11811
3835.72416,0.12247
3837.65263,0.12628
3839.58110,0.12661
3841.50957,0.12152
3843.43804,0.12015
3845.36651,0.12738
3847.29498,0.13163
3849.22344,0.12810
3851.15191,0.12636
3853.08038,0.13590
3855.00885,0.14020
3856.93732,0.13531
3858.86579,0.13034
3860.79426,0.12571
3862.72272,0.12401
3864.65119,0.12352
3866.57966,0.12032
3868.50813,0.11605
3870.43660,0.11339
3872.36507,0.11596
3874.29354,0.11929
3876.22200,0.11861
3878.15047,0.11819
3880.07894,0.11784
3882.00741,0.11586
3883.93588,0.11535
3885.86435,0.11270
3887.79282,0.11010
3889.72129,0.11239
3891.64975,0.11791
3893.57822,0.12227
3895.50669,0.12190
3897.43516,0.12020
3899.36363,0.12275
3901.29210,0.12620
3903.22057,0.12386
3905.14903,0.12158
3907.07750,0.12126
3909.00597,0.11822
3910.93444,0.11493
3912.86291,0.11574
3914.79138,0.11900
3916.71985,0.12144
3918.64832,0.12181
3920.57678,0.12081
3922.50525,0.11969
3924.43372,0.11828
3926.36219,0.11822
3928.29066,0.12058
3930.21913,0.12159
3932.14760,0.11732
3934.07606,0.10927
3936.00453,0.10345
3937.93300,0.10409
3939.86147,0.10936
3941.78994,0.11459
3943.71841,0.11589
3945.64688,0.11270
3947.57535,0.11098
3949.50381,0.11123
3951.43228,0.10722
3953.36075,0.10318
3955.28922,0.10395
3957.21769,0.10408
3959.14616,0.10228
3961.07463,0.10350
3963.00309,0.10786
3964.93156,0.11308
3966.86003,0.11595
3968.78850,0.11450
3970.71697,0.11271
3972.64544,0.11075
3974.57391,0.10574
3976.50238,0.10139
3978.43084,0.10104
3980.35931,0.10500
3982.28778,0.11156
3984.21625,0.11411
3986.14472,0.10843
3988.07319,0.10046
3990.00166,0.09963
3991.93012,0.10744
3993.85859,0.11564
3995.78706,0.11580
3997.71553,0.11079
3999.64400,0.10772
4001.57247,0.10550
4003.50094,0.10074
4005.42941,0.09507
4007.35787,0.09443
4009.28634,0.09831
4011.21481,0.09829
4013.14328,0.09356
4015.07175,0.09002
4017.00022,0.09166
4018.92869,0.09632
4020.85715,0.09911
4022.78562,0.10116
4024.71409,0.10443
4026.64256,0.10638
4028.57103,0.10468
4030.49950,0.10058
4032.42797,0.09905
4034.35644,0.10419
4036.28490,0.10931
4038.21337,0.10458
4040.14184,0.09635
4042.07031,0.09706
4043.99878,0.10481
4045.92725,0.10969
4047.85572,0.10793
4049.78418,0.10051
4051.71265,0.09196
4053.64112,0.08924
4055.56959,0.09107
4057.49806,0.09326
4059.42653,0.09817
4061.35500,0.10493
4063.28346,0.10702
4065.21193,0.10307
4067.14040,0.09972
4069.06887,0.10293
4070.99734,0.10759
4072.92581,0.10426
4074.85428,0.09572
4076.78275,0.09240
4078.71121,0.09520
4080.63968,0.09541
4082.56815,0.09098
4084.49662,0.09104
4086.42509,0.09660
4088.35356,0.09930
4090.28203,0.09650
4092.21049,0.08888
4094.13896,0.08080
4096.06743,0.07839
4097.99590,0.07948
4099.92437,0.07972
4101.85284,0.08131
4103.78131,0.08764
4105.70978,0.09485
4107.63824,0.09646
4109.56671,0.09576
4111.49518,0.09971
4113.42365,0.10319
4115.35212,0.09799
4117.28059,0.09094
4119.20906,0.09092
4121.13752,0.09314
4123.06599,0.09147
4124.99446,0.08871
4126.92293,0.08908
4128.85140,0.09219
4130.77987,0.09446
4132.70834,0.09216
4134.63681,0.08890
4136.56527,0.09055
4138.49374,0.09229
4140.42221,0.09056
4142.35068,0.08947
4144.27915,0.09084
4146.20762,0.09168
4148.13609,0.08862
4150.06455,0.08506
4151.99302,0.08367
4153.92149,0.08093
4155.84996,0.07994
4157.77843,0.08580
4159.70690,0.09152
4161.63537,0.09215
4163.56384,0.09397
4165.49230,0.09796
4167.42077,0.09625
4169.34924,0.08778
4171.27771,0.08408
4173.20618,0.08936
4175.13465,0.09470
4177.06312,0.09355
4178.99158,0.08553
4180.92005,0.07708
4182.84852,0.07536
4184.77699,0.07890
4186.70546,0.08529
4188.63393,0.09072
4190.56240,0.08762
4192.49087,0.08298
4194.41933,0.08588
4196.34780,0.09055
4198.27627,0.09282
4200.20474,0.08996
4202.13321,0.08272
4204.06168,0.07817
4205.99015,0.07703
4207.91861,0.07597
4209.84708,0.07606
4211.77555,0.07790
4213.70402,0.07695
4215.63249,0.07419
4217.56096,0.07143
4219.48943,0.06597
4221.41789,0.06464
4223.34636,0.07151
4225.27483,0.07578
4227.20330,0.07255
4229.13177,0.06898
4231.06024,0.06945
4232.98871,0.07086
4234.91718,0.07016
4236.84564,0.06658
4238.77411,0.05952
4240.70258,0.05487
4242.63105,0.05865
4244.55952,0.06330
4246.48799,0.05815
4248.41646,0.05223
4250.34492,0.06226
4252.27339,0.07813
4254.20186,0.08267
4256.13033,0.08001
4258.05880,0.07698
4259.98727,0.07272
4261.91574,0.06933
4263.84421,0.06965
4265.77267,0.06899
4267.70114,0.06494
4269.62961,0.06200
4271.55808,0.06142
4273.48655,0.06266
4275.41502,0.06514
4277.34349,0.06603
4279.27195,0.06477
4281.20042,0.06396
4283.12889,0.06720
4285.05736,0.07390
4286.98583,0.07627
4288.91430,0.07402
4290.84277,0.07292
4292.77124,0.07059
4294.69970,0.06764
4296.62817,0.06841
4298.55664,0.06803
4300.48511,0.06086
4302.41358,0.05231
4304.34205,0.04829
4306.27052,0.04692
4308.19898,0.04855
4310.12745,0.05733
4312.05592,0.07040
4313.98439,0.07488
4315.91286,0.06627
4317.84133,0.05606
4319.76980,0.05008
4321.69827,0.04521
4323.62673,0.04424
4325.55520,0.04946
4327.48367,0.05198
4329.41214,0.04808
4331.34061,0.04849
4333.26908,0.05668
4335.19755,0.06244
4337.12601,0.05852
4339.05448,0.05066
4340.98295,0.04957
4342.91142,0.05688
4344.83989,0.06617
4346.76836,0.06666
4348.69683,0.05332
4350.62530,0.03725
4352.55376,0.03284
4354.48223,0.04179
4356.41070,0.05010
4358.33917,0.04998
4360.26764,0.04840
4362.19611,0.04488
4364.12458,0.03687
4366.05304,0.03071
4367.98151,0.03234
4369.90998,0.03962
4371.83845,0.04435
4373.76692,0.04445
4375.69539,0.04457
4377.62386,0.04531
4379.55232,0.04346
4381.48079,0.03826
4383.40926,0.03305
4385.33773,0.03443
4387.26620,0.04005
4389.19467,0.03951
4391.12314,0.03781
4393.05161,0.03996
4394.98007,0.03868
4396.90854,0.03808
4398.83701,0.04167
4400.76548,0.04156
4402.69395,0.04001
4404.62242,0.04096
4406.55089,0.03726
4408.47935,0.03391
4410.40782,0.03870
4412.33629,0.03901
4414.26476,0.03138
4416.19323,0.02807
4418.12170,0.03078
4420.05017,0.03496
4421.97864,0.03886
4423.90710,0.03901
4425.83557,0.03292
4427.76404,0.02554
4429.69251,0.02295
4431.62098,0.02556
4433.54945,0.02773
4435.47792,0.02428
4437.40638,0.02151
4439.33485,0.02541
4441.26332,0.02916
4443.19179,0.02766
4445.12026,0.02544
4447.04873,0.02871
4448.97720,0.03632
4450.90567,0.03797
4452.83413,0.03127
4454.76260,0.02694
4456.69107,0.02708
4458.61954,0.02574
4460.54801,0.02232
4462.47648,0.01870
4464.40495,0.01963
4466.33341,0.02760
4468.26188,0.03194
4470.19035,0.02706
4472.11882,0.02266
4474.04729,0.02389
4475.97576,0.02978
4477.90423,0.03624
4479.83270,0.03713
4481.76116,0.03429
4483.68963,0.03087
4485.61810,0.02967
4487.54657,0.03589
4489.47504,0.04188
4491.40351,0.03694
4493.33198,0.02766
4495.26044,0.02398
4497.18891,0.02313
4499.11738,0.01695
4501.04585,0.00810
4502.97432,0.00733
4504.90279,0.01531
4506.83126,0.02264
4508.75973,0.01902
4510.68819,0.00628
4512.61666,0.00520
4514.54513,0.02085
4516.47360,0.02523
4518.40207,0.01272
4520.33054,0.00637
4522.25901,0.00787
4524.18747,0.01288
4526.11594,0.02506
4528.04441,0.03651
4529.97288,0.04008
4531.90135,0.03644
4533.82982,0.02899
4535.75829,0.02268
4537.68676,0.02088
4539.61522,0.02637
4541.54369,0.03306
4543.47216,0.03090
4545.40063,0.02439
4547.32910,0.02334
4549.25757,0.02768
4551.18604,0.03048
4553.11450,0.02524
4555.04297,0.01760
4556.97144,0.01625
4558.89991,0.01565
4560.82838,0.01195
4562.75685,0.00850
4564.68532,0.00956
4566.61378,0.01822
4568.54225,0.02500
4570.47072,0.02127
4572.39919,0.01373
4574.32766,0.01032
4576.25613,0.00970
4578.18460,0.00813
4580.11307,0.00275
4582.04153,-0.00479
4583.97000,-0.00193
4585.89847,0.01101
4587.82694,0.01288
4589.75541,0.00629
4591.68388,0.01029
4593.61235,0.01431
4595.54081,0.01476
4597.46928,0.02441
4599.39775,0.02917
4601.32622,0.02335
4603.25469,0.02145
4605.18316,0.02328
4607.11163,0.01987
4609.04010,0.01171
4610.96856,0.00901
4612.89703,0.01348
4614.82550,0.01687
4616.75397,0.01720
4618.68244,0.01734
4620.61091,0.01505
4622.53938,0.00870
4624.46784,0.00783
4626.39631,0.01566
4628.32478,0.01798
4630.25325,0.01069
4632.18172,0.00247
4634.11019,-0.00369
4636.03866,0.00025
4637.96713,0.01439
4639.89559,0.01893
4641.82406,0.01191
4643.75253,0.00981
4645.68100,0.01333
4647.60947,0.00982
4649.53794,-0.00136
4651.46641,-0.00460
4653.39487,0.00262
4655.32334,0.00866
4657.25181,0.01243
4659.18028,0.01401
4661.10875,0.01017
4663.03722,0.00456
4664.96569,-0.00277
4666.89416,-0.00964
4668.82262,-0.00864
4670.75109,-0.00701
4672.67956,-0.01017
4674.60803,-0.00711
4676.53650,0.00442
4678.46497,0.01384
4680.39344,0.01576
4682.32190,0.01506
4684.25037,0.01759
4686.17884,0.01989
4688.10731,0.01972
4690.03578,0.01611
4691.96425,0.00080
4693.89272,-0.01186
4695.82119,0.00034
4697.74965,0.02026
4699.67812,0.02782
4701.60659,0.02563
4703.53506,0.01573
4705.46353,0.00748
4707.39200,0.00773
4709.32047,0.00795
4711.24893,0.00774
4713.17740,0.01358
4715.10587,0.02090
4717.03434,0.01937
4718.96281,0.01029
4720.89128,0.00587
4722.81975,0.01079
4724.74821,0.01771
4726.67668,0.01894
4728.60515,0.01605
4730.53362,0.01283
4732.46209,0.01011
4734.39056,0.00997
4736.31903,0.00868
4738.24750,0.00493
4740.17596,0.00231
4742.10443,-0.00567
4744.03290,-0.01641
4745.96137,-0.01733
4747.88984,-0.01479
4749.81831,-0.01865
4751.74678,-0.02085
4753.67524,-0.01097
4755.60371,0.00506
4757.53218,0.01251
4759.46065,0.01254
4761.38912,0.01395
4763.31759,0.01112
4765.24606,0.00462
4767.17453,0.00318
4769.10299,-0.00016
4771.03146,-0.00503
4772.95993,0.00105
4774.88840,0.01207
4776.81687,0.01765
4778.74534,0.01738
4780.67381,0.01206
4782.60227,0.00812
4784.53074,0.00994
4786.45921,0.00975
4788.38768,0.00515
4790.31615,0.00422
4792.24462,0.00768
4794.17309,0.00939
4796.10156,0.00527
4798.03002,-0.00485
4799.95849,-0.01232
4801.88696,-0.00874
4803.81543,-0.00110
4805.74390,-0.00004
4807.67237,-0.00306
4809.60084,-0.00113
4811.52930,0.00558
4813.45777,0.01596
4815.38624,0.03237
4817.31471,0.04038
4819.24318,0.02626
4821.17165,0.00319
4823.10012,-0.00669
4825.02859,-0.00017
4826.95705,0.00726
4828.88552,0.01162
4830.81399,0.02052
4832.74246,0.02976
4834.67093,0.03068
4836.59940,0.02573
4838.52787,0.01393
4840.45633,-0.00370
4842.38480,-0.00784
4844.31327,0.00373
4846.24174,0.01246
4848.17021,0.01677
4850.09868,0.02057
4852.02715,0.01747
4853.95562,0.01075
4855.88408,0.00514
4857.81255,-0.00182
4859.74102,-0.00299
4861.66949,0.00769
4863.59796,0.01776
4865.52643,0.01511
4867.45490,0.01318
4869.38336,0.02167
4871.31183,0.02186
4873.24030,0.00590
4875.16877,-0.00955
4877.09724,-0.00852
4879.02571,0.00456
4880.95418,0.01234
4882.88265,0.01666
4884.81111,0.02673
4886.73958,0.03130
4888.66805,0.01990
4890.59652,0.00306
4892.52499,-0.00437
4894.45346,-0.00147
4896.38193,0.00531
4898.31039,0.01004
4900.23886,0.00940
4902.16733,0.00930
4904.09580,0.01454
4906.02427,0.01522
4907.95274,0.00499
4909.88121,-0.00396
4911.80967,-0.00415
4913.73814,-0.00168
4915.66661,0.00064
4917.59508,-0.00025
4919.52355,-0.00351
4921.45202,-0.00023
4923.38049,0.00342
4925.30896,-0.00727
4927.23742,-0.01985
4929.16589,-0.01319
4931.09436,0.00250
4933.02283,0.00853
4934.95130,0.00523
4936.87977,0.00843
4938.80824,0.02777
4940.73670,0.04064
4942.66517,0.03083
4944.59364,0.01292
4946.52211,-0.00102
4948.45058,-0.00856
4950.37905,-0.01260
4952.30752,-0.01269
4954.23599,0.00077
4956.16445,0.01581
4958.09292,0.00911
4960.02139,-0.00179
4961.94986,0.00585
4963.87833,0.01623
4965.80680,0.01729
4967.73527,0.01025
4969.66373,-0.00243
4971.59220,-0.00875
4973.52067,-0.00037
4975.44914,0.00972
4977.37761,0.00718
4979.30608,0.00636
4981.23455,0.01371
4983.16302,0.01300
4985.09148,0.01241
4987.01995,0.01961
4988.94842,0.02067
4990.87689,0.02265
4992.80536,0.03360
4994.73383,0.03507
4996.66230,0.02786
4998.59076,0.03005
5000.51923,0.03306
5002.44770,0.02695
5004.37617,0.02629
5006.30464,0.03070
5008.23311,0.02304
5010.16158,0.01289
5012.09005,0.01428
5014.01851,0.01511
5015.94698,0.00592
5017.87545,-0.00349
5019.80392,-0.00442
5021.73239,-0.00378
5023.66086,-0.00570
5025.58933,0.00046
5027.51779,0.01183
5029.44626,0.01241
5031.37473,0.00221
5033.30320,-0.00825
5035.23167,-0.00715
5037.16014,0.00378
5039.08861,0.00735
5041.01708,0.00586
5042.94554,0.00954
5044.87401,0.01110
5046.80248,0.01054
5048.73095,0.01803
5050.65942,0.02773
5052.58789,0.02337
5054.51636,0.01336
5056.44482,0.01723
5058.37329,0.02759
5060.30176,0.03061
5062.23023,0.03042
5064.15870,0.03474
5066.08717,0.04185
5068.01564,0.04689
5069.94410,0.04623
5071.87257,0.03394
5073.80104,0.01682
5075.72951,0.01603
5077.65798,0.03352
5079.58645,0.04458
5081.51492,0.03930
5083.44339,0.03106
5085.37185,0.01926
5087.30032,0.00864
5089.22879,0.02184
5091.15726,0.04275
5093.08573,0.03257
5095.01420,0.00261
5096.94267,-0.01094
5098.87113,-0.00011
5100.79960,0.02733
5102.72807,0.05351
5104.65654,0.06103
5106.58501,0.05336
5108.51348,0.03558
5110.44195,0.02497
5112.37042,0.02972
5114.29888,0.02111
5116.22735,0.00204
5118.15582,0.00369
5120.08429,0.01975
5122.01276,0.02751
5123.94123,0.02865
5125.86970,0.02875
5127.79816,0.02352
5129.72663,0.01966
5131.65510,0.02336
5133.58357,0.03014
5135.51204,0.04408
5137.44051,0.06083
5139.36898,0.06001
5141.29745,0.05317
5143.22591,0.06427
5145.15438,0.07315
5147.08285,0.05398
5149.01132,0.02536
5150.93979,0.01812
5152.86826,0.02658
5154.79673,0.03026
5156.72519,0.03593
5158.65366,0.04989
5160.58213,0.05418
5162.51060,0.04276
5164.43907,0.03075
5166.36754,0.02804
5168.29601,0.03335
5170.22448,0.04249
5172.15294,0.04137
5174.08141,0.02668
5176.00988,0.02731
5177.93835,0.05226
5179.86682,0.06734
5181.79529,0.05470
5183.72376,0.02978
5185.65222,0.00959
5187.58069,0.01030
5189.50916,0.02824
5191.43763,0.04041
5193.36610,0.04443
5195.29457,0.04004
5197.22304,0.02641
5199.15151,0.02863
5201.07997,0.04797
5203.00844,0.05803
5204.93691,0.05678
5206.86538,0.06078
5208.79385,0.06017
5210.72232,0.04522
5212.65079,0.04093
5214.57925,0.04757
5216.50772,0.03500
5218.43619,0.01027
5220.36466,0.01143
5222.29313,0.03235
5224.22160,0.03970
5226.15007,0.03078
5228.07854,0.02502
5230.00700,0.02799
5231.93547,0.03565
5233.86394,0.04842
5235.79241,0.06414
5237.72088,0.07666
5239.64935,0.08318
5241.57782,0.08005
5243.50628,0.06378
5245.43475,0.03881
5247.36322,0.01153
5249.29169,-0.00439
5251.22016,0.00839
5253.14863,0.03703
5255.07710,0.05065
5257.00556,0.04639
5258.93403,0.04332
5260.86250,0.03678
5262.79097,0.02259
5264.71944,0.02166
5266.64791,0.04094
5268.57638,0.05385
5270.50485,0.05065
5272.43331,0.05719
5274.36178,0.07584
5276.29025,0.08121
5278.21872,0.06785
5280.14719,0.05064
5282.07566,0.04360
5284.00413,0.05683
5285.93259,0.07787
5287.86106,0.07251
5289.78953,0.04874
5291.71800,0.04059
5293.64647,0.04225
5295.57494,0.04107
5297.50341,0.04813
5299.43188,0.05791
5301.36034,0.04790
5303.28881,0.03354
5305.21728,0.03516
5307.14575,0.04226
5309.07422,0.05758
5311.00269,0.07758
5312.93116,0.09063
5314.85962,0.09775
5316.78809,0.08474
5318.71656,0.05623
5320.64503,0.04725
5322.57350,0.06779
5324.50197,0.09914
5326.43044,0.10985
5328.35891,0.09094
5330.28737,0.06263
5332.21584,0.03399
5334.14431,0.02213
5336.07278,0.03079
5338.00125,0.04085
5339.92972,0.05350
5341.85819,0.06026
5343.78665,0.05542
5345.71512,0.05456
5347.64359,0.04951
5349.57206,0.05213
5351.50053,0.07643
5353.42900,0.08106
5355.35747,0.05165
5357.28594,0.03298
5359.21440,0.04063
5361.14287,0.05356
5363.07134,0.05392
5364.99981,0.05325
5366.92828,0.05838
5368.85675,0.05491
5370.78522,0.03944
5372.71368,0.02636
5374.64215,0.04120
5376.57062,0.08322
5378.49909,0.09710
5380.42756,0.08355
5382.35603,0.07404
5384.28450,0.06838
5386.21297,0.06915
5388.14143,0.06422
5390.06990,0.04904
5391.99837,0.04133
5393.92684,0.04508
5395.85531,0.05400
5397.78378,0.05306
5399.71225,0.04480
5401.64071,0.05732
5403.56918,0.08463
5405.49765,0.08548
5407.42612,0.04920
5409.35459,0.00057
5411.28306,-0.02028
5413.21153,0.00122
5415.13999,0.02236
5417.06846,0.03275
5418.99693,0.05439
5420.92540,0.07468
5422.85387,0.07262
5424.78234,0.06745
5426.71081,0.07790
5428.63928,0.08180
5430.56774,0.06996
5432.49621,0.06600
5434.42468,0.07932
5436.35315,0.08620
5438.28162,0.07078
5440.21009,0.04541
5442.13856,0.02121
5444.06702,0.01295
5445.99549,0.02541
5447.92396,0.04147
5449.85243,0.04712
5451.78090,0.05250
5453.70937,0.06569
5455.63784,0.06421
5457.56631,0.04471
5459.49477,0.03013
5461.42324,0.01744
5463.35171,0.03214
5465.28018,0.07482
5467.20865,0.08322
5469.13712,0.06130
5471.06559,0.05284
5472.99405,0.05139
5474.92252,0.04728
5476.85099,0.04594
5478.77946,0.05731
5480.70793,0.08471
5482.63640,0.10155
5484.56487,0.08846
5486.49334,0.07424
5488.42180,0.07549
5490.35027,0.07492
5492.27874,0.06462
5494.20721,0.04649
5496.13568,0.03241
5498.06415,0.03582
5499.99262,0.05771
5501.92108,0.06945
5503.84955,0.05499
5505.77802,0.04694
5507.70649,0.06558
5509.63496,0.08468
5511.56343,0.08414
5513.49190,0.07359
5515.42037,0.06114
5517.34883,0.05510
5519.27730,0.05578
5521.20577,0.04762
5523.13424,0.04744
5525.06271,0.06201
5526.99118,0.05649
5528.91965,0.03928
5530.84811,0.03650
5532.77658,0.03771
5534.70505,0.04188
5536.63352,0.05146
5538.56199,0.06416
5540.49046,0.07561
5542.41893,0.07168
5544.34740,0.06284
5546.27586,0.06112
5548.20433,0.07220
5550.13280,0.10168
5552.06127,0.11409
5553.98974,0.08406
5555.91821,0.05670
5557.84668,0.07569
5559.77514,0.09985
5561.70361,0.06954
5563.63208,0.02340
5565.56055,0.03559
5567.48902,0.07443
5569.41749,0.08523
5571.34596,0.07410
5573.27443,0.05342
5575.20289,0.05210
5577.13136,0.08296
5579.05983,0.11150
5580.98830,0.11412
5582.91677,0.10670
5584.84524,0.10170
5586.77371,0.08718
5588.70217,0.07184
5590.63064,0.07298
5592.55911,0.07854
5594.48758,0.07905
5596.41605,0.08610
5598.34452,0.09209
5600.27299,0.08311
5602.20145,0.07335
5604.12992,0.06867
5606.05839,0.07129
5607.98686,0.08839
5609.91533,0.09414
5611.84380,0.06358
5613.77227,0.02453
5615.70074,0.00557
5617.62920,0.01170
5619.55767,0.05292
5621.48614,0.09686
5623.41461,0.09054
5625.34308,0.05190
5627.27155,0.04547
5629.20002,0.08437
5631.12848,0.11976
5633.05695,0.12006
5634.98542,0.09616
5636.91389,0.07659
5638.84236,0.06474
5640.77083,0.05174
5642.69930,0.05124
5644.62777,0.05743
5646.55623,0.04817
5648.48470,0.03979
5650.41317,0.05777
5652.34164,0.08779
5654.27011,0.10459
5656.19858,0.10247
5658.12705,0.09279
5660.05551,0.10581
5661.98398,0.13288
5663.91245,0.12888
5665.84092,0.10016
5667.76939,0.07957
5669.69786,0.08396
5671.62633,0.09768
5673.55480,0.09819
5675.48326,0.09603
5677.41173,0.08628
5679.34020,0.06538
5681.26867,0.05824
5683.19714,0.06617
5685.12561,0.07958
5687.05408,0.09148
5688.98254,0.08583
5690.91101,0.06433
5692.83948,0.04911
5694.76795,0.05831
5696.69642,0.08344
5698.62489,0.10291
5700.55336,0.11869
5702.48183,0.13325
5704.41029,0.13066
5706.33876,0.09734
5708.26723,0.05953
5710.19570,0.05803
5712.12417,0.07307
5714.05264,0.07576
5715.98111,0.08271
5717.90957,0.09855
5719.83804,0.10746
5721.76651,0.10250
5723.69498,0.09987
5725.62345,0.10299
5727.55192,0.07488
5729.48039,0.03587
5731.40886,0.04056
5733.33732,0.07585
5735.26579,0.11378
5737.19426,0.11391
5739.12273,0.06562
5741.05120,0.03078
5742.97967,0.03545
5744.90814,0.05569
5746.83660,0.08945
5748.76507,0.12718
5750.69354,0.12455
5752.62201,0.08002
5754.55048,0.03791
5756.47895,0.00934
5758.40742,-0.00647
5760.33588,0.01325
5762.26435,0.06185
5764.19282,0.08682
5766.12129,0.09721
5768.04976,0.12676
5769.97823,0.13244
5771.90670,0.08609
5773.83517,0.05229
5775.76363,0.06934
5777.69210,0.09751
5779.62057,0.11287
5781.54904,0.10866
5783.47751,0.09364
5785.40598,0.09031
5787.33445,0.08194
5789.26291,0.08118
5791.19138,0.11455
5793.11985,0.13709
5795.04832,0.12181
5796.97679,0.10051
5798.90526,0.09868
5800.83373,0.12275
5802.76220,0.14617
5804.69066,0.11797
5806.61913,0.06716
5808.54760,0.06194
5810.47607,0.08249
5812.40454,0.08355
5814.33301,0.07631
5816.26148,0.07462
5818.18994,0.05743
5820.11841,0.04107
5822.04688,0.04759
5823.97535,0.05078
5825.90382,0.05740
5827.83229,0.08454
5829.76076,0.10939
5831.68923,0.10440
5833.61769,0.08031
5835.54616,0.06812
5837.47463,0.06657
5839.40310,0.06340
5841.33157,0.06597
5843.26004,0.07596
5845.18851,0.07195
5847.11697,0.05777
5849.04544,0.07027
5850.97391,0.10881
5852.90238,0.12986
5854.83085,0.11421
5856.75932,0.09465
5858.68779,0.09066
5860.61626,0.07154
5862.54472,0.03677
5864.47319,0.01765
5866.40166,0.02841
5868.33013,0.05913
5870.25860,0.07987
5872.18707,0.08934
5874.11554,0.10366
5876.04400,0.10393
5877.97247,0.09742
5879.90094,0.10126
5881.82941,0.09589
5883.75788,0.10598
5885.68635,0.14185
5887.61482,0.14650
5889.54329,0.10774
5891.47175,0.07611
5893.40022,0.06700
5895.32869,0.06366
5897.25716,0.05167
5899.18563,0.02894
5901.11410,0.02753
5903.04257,0.04875
5904.97103,0.05172
5906.89950,0.06164
5908.82797,0.10386
5910.75644,0.11914
5912.68491,0.09613
5914.61338,0.08267
5916.54185,0.08005
5918.47032,0.08345
5920.39878,0.09120
5922.32725,0.09486
5924.25572,0.11800
5926.18419,0.17575
5928.11266,0.22112
5930.04113,0.19327
5931.96960,0.12478
5933.89806,0.10390
5935.82653,0.12629
5937.75500,0.12413
5939.68347,0.09596
5941.61194,0.08240
5943.54041,0.08526
5945.46888,0.06650
5947.39734,0.03761
5949.32581,0.02476
5951.25428,0.02007
5953.18275,0.04302
5955.11122,0.07696
5957.03969,0.08310
5958.96816,0.09306
5960.89663,0.12194
5962.82509,0.12523
5964.75356,0.08664
5966.68203,0.04066
5968.61050,0.00901
5970.53897,-0.00371
5972.46744,0.03632
5974.39591,0.09616
5976.32437,0.09887
5978.25284,0.06551
5980.18131,0.03713
5982.10978,0.01985
5984.03825,0.02085
5985.96672,0.04683
5987.89519,0.09015
5989.82366,0.11280
5991.75212,0.10565
5993.68059,0.08097
5995.60906,0.02868
5997.53753,-0.00757
5999.46600,0.00235
6001.39447,0.02744
6003.32294,0.05045
6005.25140,0.07003
6007.17987,0.08204
6009.10834,0.07316
6011.03681,0.05346
6012.96528,0.03529
6014.89375,0.01864
6016.82222,0.02783
6018.75069,0.05396
6020.67915,0.06259
6022.60762,0.07055
6024.53609,0.08355
6026.46456,0.07534
6028.39303,0.05436
6030.32150,0.05046
6032.24997,0.06473
6034.17843,0.08148
6036.10690,0.08141
6038.03537,0.07686
6039.96384,0.07967
6041.89231,0.06817
6043.82078,0.05221
6045.74925,0.05061
6047.67772,0.04759
6049.60618,0.03623
6051.53465,0.02951
6053.46312,0.03403
6055.39159,0.04340
6057.32006,0.03635
6059.24853,0.03461
6061.17700,0.07701
6063.10546,0.10736
6065.03393,0.08947
6066.96240,0.09446
6068.89087,0.13617
6070.81934,0.13431
6072.74781,0.04958
6074.67628,-0.03662
6076.60475,-0.03065
6078.53321,0.04401
6080.46168,0.10408
6082.39015,0.09502
6084.31862,0.04148
6086.24709,0.02263
6088.17556,0.05836
6090.10403,0.10282
6092.03249,0.11591
6093.96096,0.08628
6095.88943,0.05006
6097.81790,0.04725
6099.74637,0.06027
6101.67484,0.04112
6103.60331,0.01540
6105.53177,0.02730
6107.46024,0.05512
6109.38871,0.08770
6111.31718,0.11456
6113.24565,0.09106
6115.17412,0.05190
6117.10259,0.05962
6119.03106,0.08336
6120.95952,0.09091
6122.88799,0.09579
6124.81646,0.09253
6126.74493,0.06041
6128.67340,-0.00970
6130.60187,-0.05148
6132.53034,-0.01575
6134.45880,0.06339
6136.38727,0.12575
6138.31574,0.11345
6140.24421,0.06684
6142.17268,0.08120
6144.10115,0.12107
6146.02962,0.09861
6147.95809,0.04640
6149.88655,0.01640
6151.81502,0.01095
6153.74349,0.04754
6155.67196,0.10708
6157.60043,0.11455
6159.52890,0.06446
6161.45737,0.01359
6163.38583,-0.00568
6165.31430,0.00377
6167.24277,0.00240
6169.17124,-0.01437
6171.09971,-0.00792
6173.02818,0.03713
6174.95665,0.09527
6176.88512,0.12223
6178.81358,0.12555
6180.74205,0.12065
6182.67052,0.08495
6184.59899,0.04452
6186.52746,0.02338
6188.45593,-0.00017
6190.38440,-0.00479
6192.31286,0.03691
6194.24133,0.07322
6196.16980,0.07861
6198.09827,0.09423
6200.02674,0.12782
6201.95521,0.15826
6203.88368,0.16100
6205.81215,0.12938
6207.74061,0.10527
6209.66908,0.10737
6211.59755,0.09729
6213.52602,0.06696
6215.45449,0.05631
6217.38296,0.06405
6219.31143,0.05256
6221.23989,0.03186
6223.16836,0.05056
6225.09683,0.10816
6227.02530,0.13335
6228.95377,0.11429
6230.88224,0.10822
6232.81071,0.09112
6234.73918,0.05057
6236.66764,0.04874
6238.59611,0.05485
6240.52458,0.03851
6242.45305,0.05005
6244.38152,0.09358
6246.30999,0.11863
6248.23846,0.10881
6250.16692,0.10019
6252.09539,0.11710
6254.02386,0.13381
6255.95233,0.13779
6257.88080,0.14075
6259.80927,0.12111
6261.73774,0.05353
6263.66621,-0.01012
6265.59467,-0.00994
6267.52314,0.02817
6269.45161,0.05753
6271.38008,0.05032
6273.30855,0.01871
6275.23702,0.02860
6277.16549,0.06913
6279.09395,0.08219
6281.02242,0.08506
6282.95089,0.08631
6284.87936,0.04716
6286.80783,-0.03788
6288.73630,-0.08893
6290.66477,-0.04288
6292.59323,-0.00445
6294.52170,-0.05673
6296.45017,-0.10696
6298.37864,-0.09569
6300.30711,-0.06550
6302.23558,-0.02745
6304.16405,0.02390
6306.09252,0.05724
6308.02098,0.08093
6309.94945,0.09113
6311.87792,0.05735
6313.80639,0.03200
6315.73486,0.05567
6317.66333,0.10382
6319.59180,0.14846
6321.52026,0.15444
6323.44873,0.12417
6325.37720,0.11344
6327.30567,0.12425
6329.23414,0.11879
6331.16261,0.10438
6333.09108,0.07685
6335.01955,0.00281
6336.94801,-0.07058
6338.87648,-0.06141
6340.80495,0.02004
6342.73342,0.10585
6344.66189,0.16709
6346.59036,0.17824
6348.51883,0.12281
6350.44729,0.05609
6352.37576,0.03892
6354.30423,0.05815
6356.23270,0.08342
6358.16117,0.11014
6360.08964,0.16057
6362.01811,0.21185
6363.94658,0.19848
6365.87504,0.12957
6367.80351,0.05382
6369.73198,-0.00559
6371.66045,-0.03497
6373.58892,-0.01909
6375.51739,0.04272
6377.44586,0.11775
6379.37432,0.13623
6381.30279,0.08379
6383.23126,0.05509
6385.15973,0.08066
6387.08820,0.10141
6389.01667,0.11741
6390.94514,0.14409
6392.87361,0.17716
6394.80207,0.18320
6396.73054,0.15786
6398.65901,0.11704
6400.58748,0.06588
6402.51595,0.01628
6404.44442,-0.00272
6406.37289,0.03188
6408.30135,0.06421
6410.22982,0.05001
6412.15829,0.05471
6414.08676,0.09733
6416.01523,0.11019
6417.94370,0.08867
6419.87217,0.05857
6421.80064,0.01748
6423.72910,0.00574
6425.65757,0.06154
6427.58604,0.13830
6429.51451,0.16642
6431.44298,0.12157
6433.37145,0.05732
6435.29992,0.04944
6437.22838,0.07054
6439.15685,0.06945
6441.08532,0.07402
6443.01379,0.10316
6444.94226,0.12635
6446.87073,0.11170
6448.79920,0.08783
6450.72766,0.06894
6452.65613,0.04742
6454.58460,0.06138
6456.51307,0.09506
6458.44154,0.09374
6460.37001,0.07411
6462.29848,0.07002
6464.22695,0.08472
6466.15541,0.09706
6468.08388,0.08416
6470.01235,0.09552
6471.94082,0.16324
6473.86929,0.18638
6475.79776,0.11087
6477.72623,0.03103
6479.65469,0.03492
6481.58316,0.09449
6483.51163,0.15692
6485.44010,0.19012
6487.36857,0.19251
6489.29704,0.16965
6491.22551,0.10946
6493.15398,0.03260
6495.08244,-0.03542
6497.01091,-0.06478
6498.93938,-0.02192
6500.86785,0.05486
6502.79632,0.10749
6504.72479,0.11892
6506.65326,0.10942
6508.58172,0.11689
6510.51019,0.13188
6512.43866,0.11309
6514.36713,0.06220
6516.29560,0.03065
6518.22407,0.04904
6520.15254,0.03974
6522.08101,-0.02706
6524.00947,-0.04359
6525.93794,0.01370
6527.86641,0.05723
6529.79488,0.09617
6531.72335,0.14366
6533.65182,0.16471
6535.58029,0.16229
6537.50875,0.13214
6539.43722,0.03665
6541.36569,-0.08411
6543.29416,-0.10333
6545.22263,-0.01128
6547.15110,0.06326
6549.07957,0.10573
6551.00804,0.15818
6552.93650,0.20728
6554.86497,0.24747
6556.79344,0.25454
6558.72191,0.20251
6560.65038,0.11546
6562.57885,0.00573
6564.50732,-0.10120
6566.43578,-0.09728
6568.36425,-0.00245
6570.29272,0.04819
6572.22119,0.07881
6574.14966,0.11308
6576.07813,0.09833
6578.00660,0.08088
6579.93507,0.07474
6581.86353,0.03178
6583.79200,-0.00615
6585.72047,-0.00354
6587.64894,0.01696
6589.57741,0.03570
6591.50588,0.04200
6593.43435,0.07505
6595.36281,0.12615
6597.29128,0.12911
6599.21975,0.11451
6601.14822,0.09680
6603.07669,0.05866
6605.00516,0.02958
6606.93363,0.03652
6608.86210,0.09017
6610.79056,0.15445
6612.71903,0.19631
6614.64750,0.22340
6616.57597,0.19954
6618.50444,0.08923
6620.43291,-0.01306
6622.36138,-0.02249
6624.28984,0.03644
6626.21831,0.11806
6628.14678,0.18113
6630.07525,0.17696
6632.00372,0.12331
6633.93219,0.04856
6635.86066,-0.04513
6637.78912,-0.06874
6639.71759,0.01488
6641.64606,0.06400
6643.57453,0.01944
6645.50300,-0.01473
6647.43147,-0.00078
6649.35994,0.02446
6651.28841,0.06151
6653.21687,0.07726
6655.14534,0.04894
6657.07381,0.07498
6659.00228,0.15159
6660.93075,0.13157
6662.85922,0.05068
6664.78769,0.00595
6666.71615,-0.00555
6668.64462,-0.03358
6670.57309,-0.09437
6672.50156,-0.10785
6674.43003,-0.04213
6676.35850,0.01754
6678.28697,0.05726
6680.21544,0.10394
6682.14390,0.12433
6684.07237,0.10124
6686.00084,0.04126
6687.92931,-0.05190
6689.85778,-0.05727
6691.78625,0.04543
6693.71472,0.12896
6695.64318,0.18667
6697.57165,0.23822
6699.50012,0.23402
6701.42859,0.14169
6703.35706,0.01055
6705.28553,-0.07061
6707.21400,-0.06105
6709.14247,-0.00755
6711.07093,0.01785
6712.99940,-0.01037
6714.92787,-0.05820
6716.85634,-0.00857
6718.78481,0.13882
6720.71328,0.24433
6722.64175,0.25082
6724.57021,0.15379
6726.49868,0.02031
6728.42715,-0.02464
6730.35562,0.00563
6732.28409,-0.00323
6734.21256,-0.01529
6736.14103,0.02271
6738.06950,0.05213
6739.99796,0.07373
6741.92643,0.05706
6743.85490,-0.02288
6745.78337,-0.02881
6747.71184,0.07278
6749.64031,0.12902
6751.56878,0.08303
6753.49724,-0.00137
6755.42571,-0.05820
6757.35418,-0.01958
6759.28265,0.08509
6761.21112,0.13062
6763.13959,0.12699
6765.06806,0.16203
6766.99653,0.18431
6768.92499,0.11657
6770.85346,0.02100
6772.78193,0.02183
6774.71040,0.07165
6776.63887,0.07575
6778.56734,0.09103
6780.49581,0.09654
6782.42427,0.03936
6784.35274,-0.01022
6786.28121,0.00105
6788.20968,0.02998
6790.13815,0.00318
6792.06662,-0.02733
6793.99509,0.04852
6795.92355,0.16275
6797.85202,0.20844
6799.78049,0.18743
6801.70896,0.13647
6803.63743,0.12300
6805.56590,0.16591
6807.49437,0.16943
6809.42284,0.08742
6811.35130,0.00236
6813.27977,0.03419
6815.20824,0.09925
6817.13671,0.08706
6819.06518,0.08486
6820.99365,0.11166
6822.92212,0.10238
6824.85058,0.11914
6826.77905,0.17421
6828.70752,0.16823
6830.63599,0.09591
6832.56446,0.02042
6834.49293,0.00196
6836.42140,0.07617
6838.34987,0.11961
6840.27833,0.05876
6842.20680,-0.00436
6844.13527,-0.00729
6846.06374,0.04117
6847.99221,0.12620
6849.92068,0.18096
6851.84915,0.18844
6853.77761,0.17496
6855.70608,0.12231
6857.63455,0.09609
6859.56302,0.14135
6861.49149,0.18638
6863.41996,0.15247
6865.34843,0.10516
6867.27690,0.14271
6869.20536,0.18054
6871.13383,0.13176
6873.06230,0.06203
6874.99077,0.01161
6876.91924,-0.06696
6878.84771,-0.11739
6880.77618,-0.08322
6882.70464,-0.06323
6884.63311,-0.06984
6886.56158,-0.03037
6888.49005,0.05347
6890.41852,0.08485
6892.34699,-0.00890
6894.27546,-0.09659
6896.20393,-0.03094
6898.13239,0.10398
6900.06086,0.11675
6901.98933,0.05169
6903.91780,0.04494
6905.84627,0.08211
6907.77474,0.13396
6909.70321,0.20336
6911.63167,0.20616
6913.56014,0.14095
6915.48861,0.09410
6917.41708,0.06159
6919.34555,0.05003
6921.27402,0.10118
6923.20249,0.12167
6925.13096,0.11133
6927.05942,0.16896
6928.98789,0.24054
6930.91636,0.24398
6932.84483,0.19444
6934.77330,0.14946
6936.70177,0.12266
6938.63024,0.03853
6940.55870,-0.07551
6942.48717,-0.08850
6944.41564,-0.04024
6946.34411,0.00949
6948.27258,0.04955
6950.20105,0.10440
6952.12952,0.14704
6954.05799,0.09688
6955.98645,0.02228
6957.91492,0.00078
6959.84339,-0.04929
6961.77186,-0.10173
6963.70033,-0.08178
6965.62880,-0.01310
6967.55727,0.08499
6969.48573,0.19053
6971.41420,0.24612
6973.34267,0.21577
6975.27114,0.14829
6977.19961,0.11493
6979.12808,0.08680
6981.05655,0.05047
6982.98501,0.02377
6984.91348,0.00757
6986.84195,0.00678
6988.77042,0.05665
6990.69889,0.18379
6992.62736,0.27298
6994.55583,0.24164
6996.48430,0.12683
6998.41276,0.02176
7000.34123,0.05243
7002.26970,0.18469
7004.19817,0.30394
7006.12664,0.28336
7008.05511,0.08726
7009.98358,-0.02274
7011.91204,0.02420
7013.84051,0.04237
7015.76898,-0.01496
7017.69745,-0.01157
7019.62592,0.06442
7021.55439,0.11984
7023.48286,0.18083
7025.41133,0.29400
7027.33979,0.32240
7029.26826,0.17078
7031.19673,0.03171
7033.12520,0.01625
7035.05367,0.07411
7036.98214,0.13821
7038.91061,0.17685
7040.83907,0.16190
7042.76754,0.10494
7044.69601,0.10726
7046.62448,0.12550
7048.55295,0.11002
7050.48142,0.10289
7052.40989,0.05502
7054.33836,-0.07088
7056.26682,-0.17712
7058.19529,-0.07114
7060.12376,0.16766
7062.05223,0.23134
7063.98070,0.13623
7065.90917,0.10200
7067.83764,0.07071
7069.76610,0.01813
7071.69457,0.09513
7073.62304,0.16772
7075.55151,0.07014
7077.47998,-0.12141
7079.40845,-0.26188
7081.33692,-0.22396
7083.26539,-0.11273
7085.19385,-0.08305
7087.12232,-0.07206
7089.05079,0.02784
7090.97926,0.16913
7092.90773,0.19675
7094.83620,0.05022
7096.76467,-0.08248
7098.69313,-0.01465
7100.62160,0.10618
7102.55007,0.12167
7104.47854,0.08099
7106.40701,0.05898
7108.33548,0.11375
7110.26395,0.20166
7112.19242,0.21864
7114.12088,0.16512
7116.04935,0.09659
7117.97782,0.03458
7119.90629,0.04193
7121.83476,0.14748
7123.76323,0.23789
7125.69170,0.21119
7127.62016,0.17015
7129.54863,0.18483
7131.47710,0.19009
7133.40557,0.16528
7135.33404,0.10275
7137.26251,-0.01523
7139.19098,-0.13724
7141.11944,-0.15626
7143.04791,-0.10132
7144.97638,0.01604
7146.90485,0.22556
7148.83332,0.36939
7150.76179,0.39241
7152.69026,0.32586
7154.61873,0.20789
7156.54719,0.13739
7158.47566,0.08148
7160.40413,-0.03089
7162.33260,-0.08727
7164.26107,-0.01857
7166.18954,-0.02706
7168.11801,-0.21016
7170.04647,-0.28158
7171.97494,-0.05383
7173.90341,0.20775
7175.83188,0.28646
7177.76035,0.17467
7179.68882,0.01271
7181.61729,-0.05216
7183.54576,-0.00934
7185.47422,0.02154
7187.40269,0.00209
7189.33116,-0.04821
7191.25963,-0.11995
7193.18810,-0.09116
7195.11657,0.07475
7197.04504,0.20504
7198.97350,0.17496
7200.90197,0.02476
7202.83044,-0.14889
7204.75891,-0.11989
7206.68738,0.14453
7208.61585,0.30045
7210.54432,0.27201
7212.47279,0.15591
7214.40125,0.11438
7216.32972,0.16761
7218.25819,0.14859
7220.18666,0.09062
7222.11513,0.10866
7224.04360,0.16323
7225.97207,0.15988
7227.90053,0.08987
7229.82900,0.03271
7231.75747,-0.00677
7233.68594,-0.00124
7235.61441,0.04666
7237.54288,0.08755
7239.47135,0.09881
7241.39982,0.08750
7243.32828,0.04881
7245.25675,0.00918
7247.18522,-0.00069
7249.11369,-0.01035
7251.04216,-0.00351
7252.97063,0.04032
7254.89910,0.02935
7256.82756,0.01396
7258.75603,0.04138
7260.68450,0.01503
7262.61297,-0.02368
7264.54144,0.01058
7266.46991,0.02573
7268.39838,0.02175
7270.32685,-0.00172
7272.25531,-0.07425
7274.18378,-0.10857
7276.11225,-0.04881
7278.04072,0.06849
7279.96919,0.21362
7281.89766,0.28866
7283.82613,0.26921
7285.75459,0.27090
7287.68306,0.29180
7289.61153,0.23859
7291.54000,0.11753
7293.46847,-0.03298
7295.39694,-0.18778
7297.32541,-0.23944
7299.25387,-0.12748
7301.18234,0.04255
7303.11081,0.10608
7305.03928,0.05557
7306.96775,0.02390
7308.89622,0.04722
7310.82469,0.08565
7312.75316,0.08001
7314.68162,-0.03092
7316.61009,-0.15917
7318.53856,-0.11207
7320.46703,0.04876
7322.39550,0.17397
7324.32397,0.14918
7326.25244,0.08867
7328.18090,0.17531
7330.10937,0.22958
7332.03784,0.08158
7333.96631,-0.02898
7335.89478,-0.01564
7337.82325,0.07344
7339.75172,0.20095
7341.68019,0.16474
7343.60865,0.09065
7345.53712,0.14328
7347.46559,0.20391
7349.39406,0.25121
7351.32253,0.35881
7353.25100,0.44535
7355.17947,0.42624
7357.10793,0.38026
7359.03640,0.37711
7360.96487,0.23557
7362.89334,0.10072
7364.82181,0.19192
7366.75028,0.31164
7368.67875,0.29382
7370.60722,0.24984
7372.53568,0.30375
7374.46415,0.35414
7376.39262,0.20704
7378.32109,0.04354
7380.24956,-0.03882
7382.17803,-0.08899
7384.10650,0.00486
7386.03496,0.21080
7387.96343,0.24391
7389.89190,0.16714
7391.82037,0.19537
7393.74884,0.22210
7395.67731,0.10986
7397.60578,0.09328
7399.53425,0.21098
7401.46271,0.25704
7403.39118,0.25739
7405.31965,0.15816
7407.24812,-0.02200
7409.17659,-0.03894
7411.10506,0.05470
7413.03353,0.10682
7414.96199,0.20670
7416.89046,0.37093
7418.81893,0.40845
7420.74740,0.30635
7422.67587,0.20929
7424.60434,0.07652
7426.53281,-0.01466
7428.46128,0.03538
7430.38974,0.08802
7432.31821,0.03592
7434.24668,-0.02092
7436.17515,-0.11073
7438.10362,-0.15136
7440.03209,-0.04949
7441.96056,0.03570
7443.88902,0.00118
7445.81749,-0.06297
7447.74596,-0.10818
7449.67443,-0.15709
7451.60290,-0.14749
7453.53137,-0.03211
7455.45984,0.05789
7457.38831,0.03334
7459.31677,-0.04308
7461.24524,-0.01079
7463.17371,0.14323
7465.10218,0.28183
7467.03065,0.27482
7468.95912,0.20971
7470.88759,0.21090
7472.81605,0.22835
7474.74452,0.13928
7476.67299,-0.01783
7478.60146,-0.07307
7480.52993,0.00316
7482.45840,0.11647
7484.38687,0.25448
7486.31533,0.31198
7488.24380,0.15521
7490.17227,-0.02165
7492.10074,0.00966
7494.02921,0.09751
7495.95768,0.09022
7497.88615,0.03068
