399.19301,0.29022
401.12148,-0.14039
403.04995,-0.16634
404.97842,-0.03030
406.90689,0.03145
408.83536,0.03839
410.76382,0.00285
412.69229,-0.06175
414.62076,-0.13313
416.54923,-0.22979
418.47770,-0.28807
420.40617,-0.14863
422.33464,0.03987
424.26311,0.12860
426.19157,0.11201
428.12004,0.07457
430.04851,0.06101
431.97698,0.08075
433.90545,0.11367
435.83392,0.12260
437.76239,0.12004
439.69085,0.14158
441.61932,0.18916
443.54779,0.18664
445.47626,0.13430
447.40473,0.10905
449.33320,0.08801
451.26167,0.05108
453.19013,0.01427
455.11860,-0.00358
457.04707,0.00905
458.97554,0.06224
460.90401,0.12344
462.83248,0.11192
464.76095,0.04691
466.68942,0.02540
468.61788,0.02688
470.54635,0.04933
472.47482,0.31725
474.40329,0.71411
476.33176,0.52663
478.26023,0.19512
480.18870,0.06366
482.11716,0.07920
484.04563,0.13311
485.97410,0.14847
487.90257,0.11113
489.83104,0.08795
491.75951,0.10576
493.68798,0.12057
495.61645,0.11778
497.54491,0.11596
499.47338,0.12289
501.40185,0.12259
503.33032,0.11191
505.25879,0.10263
507.18726,0.08448
509.11573,0.06268
511.04419,0.07211
512.97266,0.10836
514.90113,0.12958
516.82960,0.11818
518.75807,0.07944
520.68654,0.04484
522.61501,0.04892
524.54348,0.07279
526.47194,0.08282
528.40041,0.08663
530.32888,0.09431
532.25735,0.10985
534.18582,0.11691
536.11429,0.09590
538.04276,0.07998
539.97122,0.09393
541.89969,0.11226
543.82816,0.10838
545.75663,0.09117
547.68510,0.08523
549.61357,0.09661
551.54204,0.10315
553.47051,0.09804
555.39897,0.10629
557.32744,0.12041
559.25591,0.13467
561.18438,0.15610
563.11285,0.15611
565.04132,0.14552
566.96979,0.14652
568.89825,0.12782
570.82672,0.09678
572.75519,0.09670
574.68366,0.12562
576.61213,0.14679
578.54060,0.14804
580.46907,0.13338
582.39754,0.09720
584.32600,0.06761
586.25447,0.07786
588.18294,0.10152
590.11141,0.09946
592.03988,0.07367
593.96835,0.05770
595.89682,0.07510
597.82528,0.10634
599.75375,0.12237
601.68222,0.12599
603.61069,0.12673
605.53916,0.11933
607.46763,0.10859
609.39610,0.10683
611.32456,0.11183
613.25303,0.11462
615.18150,0.11401
617.10997,0.11012
619.03844,0.10385
620.96691,0.10101
622.89538,0.10751
624.82385,0.12282
626.75231,0.13692
628.68078,0.14738
630.60925,0.15755
632.53772,0.15621
634.46619,0.13753
636.39466,0.11613
638.32313,0.10292
640.25159,0.10250
642.18006,0.11183
644.10853,0.12068
646.03700,0.13141
647.96547,0.14665
649.89394,0.14976
651.82241,0.13329
653.75088,0.11471
655.67934,0.10853
657.60781,0.11492
659.53628,0.12629
661.46475,0.13085
663.39322,0.12431
665.32169,0.11528
667.25016,0.11926
669.17862,0.14322
671.10709,0.14997
673.03556,0.14076
674.96403,0.13683
676.89250,0.13993
678.82097,0.13508
680.74944,0.12555
682.67791,0.12544
684.60637,0.13226
686.53484,0.13702
688.46331,0.13482
690.39178,0.12588
692.32025,0.11338
694.24872,0.10612
696.17719,0.11675
698.10565,0.13969
700.03412,0.15379
701.96259,0.15334
703.89106,0.14669
705.81953,0.14348
707.74800,0.14824
709.67647,0.14367
711.60494,0.12801
713.53340,0.13291
715.46187,0.14859
717.39034,0.14454
719.31881,0.13289
721.24728,0.13108
723.17575,0.13386
725.10422,0.13040
727.03268,0.12427
728.96115,0.12478
730.88962,0.12971
732.81809,0.13284
734.74656,0.12996
736.67503,0.12706
738.60350,0.13109
740.53197,0.13529
742.46043,0.13735
744.38890,0.13812
746.31737,0.13459
748.24584,0.13316
750.17431,0.13873
752.10278,0.14294
754.03125,0.13758
755.95971,0.12936
757.88818,0.12828
759.81665,0.13251
761.74512,0.13297
763.67359,0.12622
765.60206,0.12176
767.53053,0.12470
769.45900,0.12852
771.38746,0.13083
773.31593,0.13643
775.24440,0.14653
777.17287,0.15185
779.10134,0.14673
781.02981,0.14098
782.95828,0.14048
784.88674,0.14106
786.81521,0.14020
788.74368,0.13507
790.67215,0.12880
792.60062,0.13097
794.52909,0.14075
796.45756,0.14418
798.38602,0.13711
800.31449,0.13019
802.24296,0.13032
804.17143,0.13287
806.09990,0.13145
808.02837,0.13103
809.95684,0.13219
811.88531,0.13161
813.81377,0.13583
815.74224,0.14081
817.67071,0.14145
819.59918,0.14165
821.52765,0.13900
823.45612,0.13405
825.38459,0.13024
827.31305,0.12661
829.24152,0.12484
831.16999,0.12321
833.09846,0.11968
835.02693,0.12039
836.95540,0.12646
838.88387,0.13418
840.81234,0.14176
842.74080,0.14701
844.66927,0.14831
846.59774,0.14787
848.52621,0.14592
850.45468,0.14018
852.38315,0.13740
854.31162,0.14190
856.24008,0.14911
858.16855,0.15404
860.09702,0.15371
862.02549,0.15430
863.95396,0.15814
865.88243,0.15051
867.81090,0.12682
869.73937,0.11081
871.66783,0.12120
873.59630,0.14255
875.52477,0.15140
877.45324,0.14643
879.38171,0.14087
881.31018,0.14003
883.23865,0.13818
885.16711,0.13649
887.09558,0.14014
889.02405,0.14403
890.95252,0.14604
892.88099,0.14816
894.80946,0.14843
896.73793,0.14868
898.66640,0.15027
900.59486,0.15101
902.52333,0.15137
904.45180,0.14881
906.38027,0.14183
908.30874,0.14055
910.23721,0.14737
912.16568,0.15097
914.09414,0.15081
916.02261,0.15251
917.95108,0.15437
919.87955,0.15250
921.80802,0.14634
923.73649,0.14032
925.66496,0.13578
927.59343,0.13387
929.52189,0.13841
931.45036,0.14495
933.37883,0.14726
935.30730,0.14613
937.23577,0.14416
939.16424,0.14205
941.09271,0.14273
943.02117,0.14662
944.94964,0.14757
946.87811,0.14124
948.80658,0.12955
950.73505,0.12694
952.66352,0.13944
954.59199,0.14838
956.52045,0.14467
958.44892,0.13939
960.37739,0.14037
962.30586,0.14309
964.23433,0.14125
966.16280,0.14006
968.09127,0.14522
970.01974,0.15184
971.94820,0.15410
973.87667,0.15549
975.80514,0.15711
977.73361,0.15395
979.66208,0.14915
981.59055,0.14863
983.51902,0.14955
985.44748,0.14588
987.37595,0.14229
989.30442,0.14691
991.23289,0.15509
993.16136,0.15821
995.08983,0.15465
997.01830,0.15032
998.94677,0.15036
1000.87523,0.15162
1002.80370,0.15267
1004.73217,0.15456
1006.66064,0.15543
1008.58911,0.15810
1010.51758,0.16209
1012.44605,0.16188
1014.37451,0.16295
1016.30298,0.16721
1018.23145,0.16673
1020.15992,0.16105
1022.08839,0.15503
1024.01686,0.15242
1025.94533,0.15352
1027.87380,0.15701
1029.80226,0.15818
1031.73073,0.15418
1033.65920,0.15290
1035.58767,0.15736
1037.51614,0.16153
1039.44461,0.16134
1041.37308,0.15751
1043.30154,0.15587
1045.23001,0.15799
1047.15848,0.15800
1049.08695,0.15326
1051.01542,0.14933
1052.94389,0.15210
1054.87236,0.15771
1056.80083,0.16042
1058.72929,0.16231
1060.65776,0.16395
1062.58623,0.16221
1064.51470,0.16164
1066.44317,0.16810
1068.37164,0.17462
1070.30011,0.17288
1072.22857,0.16725
1074.15704,0.16574
1076.08551,0.16908
1078.01398,0.17325
1079.94245,0.17493
1081.87092,0.17357
1083.79939,0.17056
1085.72786,0.16618
1087.65632,0.16160
1089.58479,0.15917
1091.51326,0.15692
1093.44173,0.15491
1095.37020,0.15623
1097.29867,0.16002
1099.22714,0.16581
1101.15560,0.17344
1103.08407,0.17783
1105.01254,0.17470
1106.94101,0.16920
1108.86948,0.16522
1110.79795,0.16207
1112.72642,0.16212
1114.65489,0.16203
1116.58335,0.15872
1118.51182,0.15722
1120.44029,0.16092
1122.36876,0.16798
1124.29723,0.17186
1126.22570,0.16946
1128.15417,0.16668
1130.08263,0.16552
1132.01110,0.16188
1133.93957,0.15837
1135.86804,0.15920
1137.79651,0.16190
1139.72498,0.16327
1141.65345,0.16337
1143.58191,0.16305
1145.51038,0.16389
1147.43885,0.16710
1149.36732,0.16828
1151.29579,0.16513
1153.22426,0.16425
1155.15273,0.16849
1157.08120,0.17199
1159.00966,0.17220
1160.93813,0.17271
1162.86660,0.17372
1164.79507,0.17342
1166.72354,0.17325
1168.65201,0.17277
1170.58048,0.16978
1172.50894,0.16682
1174.43741,0.16634
1176.36588,0.16692
1178.29435,0.16807
1180.22282,0.16924
1182.15129,0.16721
1184.07976,0.16248
1186.00823,0.16009
1187.93669,0.16042
1189.86516,0.16139
1191.79363,0.16354
1193.72210,0.16725
1195.65057,0.17068
1197.57904,0.17200
1199.50751,0.17187
1201.43597,0.17053
1203.36444,0.16951
1205.29291,0.17063
1207.22138,0.17131
1209.14985,0.17119
1211.07832,0.17233
1213.00679,0.17322
1214.93526,0.17224
1216.86372,0.17094
1218.79219,0.17046
1220.72066,0.17036
1222.64913,0.17119
1224.57760,0.17321
1226.50607,0.17383
1228.43454,0.17190
1230.36300,0.17097
1232.29147,0.17118
1234.21994,0.16905
1236.14841,0.16696
1238.07688,0.16909
1240.00535,0.17326
1241.93382,0.17548
1243.86229,0.17592
1245.79075,0.17703
1247.71922,0.17776
1249.64769,0.17601
1251.57616,0.17364
1253.50463,0.17264
1255.43310,0.17353
1257.36157,0.17615
1259.29003,0.17833
1261.21850,0.17826
1263.14697,0.17674
1265.07544,0.17583
1267.00391,0.17644
1268.93238,0.17863
1270.86085,0.18035
1272.78932,0.18012
1274.71778,0.18006
1276.64625,0.17995
1278.57472,0.17851
1280.50319,0.17903
1282.43166,0.18356
1284.36013,0.18698
1286.28860,0.18599
1288.21706,0.18413
1290.14553,0.18259
1292.07400,0.17961
1294.00247,0.17664
1295.93094,0.17701
1297.85941,0.18028
1299.78788,0.18279
1301.71634,0.18319
1303.64481,0.18231
1305.57328,0.18127
1307.50175,0.18090
1309.43022,0.18090
1311.35869,0.18070
1313.28716,0.18051
1315.21563,0.18134
1317.14409,0.18383
1319.07256,0.18569
1321.00103,0.18396
1322.92950,0.18060
1324.85797,0.17962
1326.78644,0.18131
1328.71491,0.18227
1330.64337,0.18231
1332.57184,0.18320
1334.50031,0.18329
1336.42878,0.18304
1338.35725,0.18360
1340.28572,0.18244
1342.21419,0.18002
1344.14266,0.17767
1346.07112,0.17490
1347.99959,0.17414
1349.92806,0.17507
1351.85653,0.17594
1353.78500,0.17897
1355.71347,0.18226
1357.64194,0.18360
1359.57040,0.18519
1361.49887,0.18699
1363.42734,0.18648
1365.35581,0.18421
1367.28428,0.18260
1369.21275,0.18114
1371.14122,0.18071
1373.06969,0.18363
1374.99815,0.18724
1376.92662,0.18709
1378.85509,0.18571
1380.78356,0.18538
1382.71203,0.18481
1384.64050,0.18630
1386.56897,0.19179
1388.49743,0.19484
1390.42590,0.19393
1392.35437,0.19560
1394.28284,0.19915
1396.21131,0.19978
1398.13978,0.19745
1400.06825,0.19222
1401.99672,0.18787
1403.92518,0.18796
1405.85365,0.18960
1407.78212,0.18982
1409.71059,0.18984
1411.63906,0.18971
1413.56753,0.18977
1415.49600,0.19363
1417.42446,0.20102
1419.35293,0.20286
1421.28140,0.19786
1423.20987,0.19377
1425.13834,0.19046
1427.06681,0.18972
1428.99528,0.19387
1430.92375,0.19804
1432.85221,0.19771
1434.78068,0.19646
1436.70915,0.19698
1438.63762,0.19674
1440.56609,0.19438
1442.49456,0.19131
1444.42303,0.19021
1446.35149,0.19319
1448.27996,0.19780
1450.20843,0.19958
1452.13690,0.20157
1454.06537,0.21051
1455.99384,0.22738
1457.92231,0.22971
1459.85077,0.21057
1461.77924,0.19995
1463.70771,0.20077
1465.63618,0.20277
1467.56465,0.20021
1469.49312,0.20081
1471.42159,0.20847
1473.35006,0.21527
1475.27852,0.21137
1477.20699,0.20514
1479.13546,0.20213
1481.06393,0.20105
1482.99240,0.19967
1484.92087,0.20042
1486.84934,0.20596
1488.77780,0.21260
1490.70627,0.21239
1492.63474,0.20743
1494.56321,0.20584
1496.49168,0.21004
1498.42015,0.21282
1500.34862,0.21355
1502.27709,0.22169
1504.20555,0.23635
1506.13402,0.24539
1508.06249,0.22878
1509.99096,0.21216
1511.91943,0.20529
1513.84790,0.20754
1515.77637,0.21788
1517.70483,0.22578
1519.63330,0.22782
1521.56177,0.22788
1523.49024,0.22398
1525.41871,0.21944
1527.34718,0.21314
1529.27565,0.20733
1531.20412,0.20774
1533.13258,0.21354
1535.06105,0.21711
1536.98952,0.22135
1538.91799,0.23762
1540.84646,0.25620
1542.77493,0.24776
1544.70340,0.22788
1546.63186,0.21087
1548.56033,0.20470
1550.48880,0.20640
1552.41727,0.21095
1554.34574,0.21896
1556.27421,0.22950
1558.20268,0.24248
1560.13115,0.23558
1562.05961,0.21716
1563.98808,0.20690
1565.91655,0.20385
1567.84502,0.20724
1569.77349,0.21019
1571.70196,0.20771
1573.63043,0.21001
1575.55889,0.21645
1577.48736,0.21170
1579.41583,0.20288
1581.34430,0.20033
1583.27277,0.19917
1585.20124,0.19560
1587.12971,0.19290
1589.05818,0.19362
1590.98664,0.19570
1592.91511,0.19673
1594.84358,0.19580
1596.77205,0.19362
1598.70052,0.19380
1600.62899,0.19715
1602.55746,0.19841
1604.48592,0.19593
1606.41439,0.19507
1608.34286,0.19682
1610.27133,0.19797
1612.19980,0.20004
1614.12827,0.20580
1616.05674,0.21184
1617.98521,0.20974
1619.91367,0.20689
1621.84214,0.21073
1623.77061,0.21566
1625.69908,0.21481
1627.62755,0.21185
1629.55602,0.21014
1631.48449,0.21283
1633.41295,0.22265
1635.34142,0.23405
1637.26989,0.22763
1639.19836,0.21428
1641.12683,0.20885
1643.05530,0.21301
1644.98377,0.22490
1646.91223,0.23535
1648.84070,0.23326
1650.76917,0.23398
1652.69764,0.24295
1654.62611,0.23208
1656.55458,0.21492
1658.48305,0.20782
1660.41152,0.20719
1662.33998,0.20931
1664.26845,0.21077
1666.19692,0.21526
1668.12539,0.22574
1670.05386,0.23183
1671.98233,0.22683
1673.91080,0.22199
1675.83926,0.21820
1677.76773,0.21622
1679.69620,0.22029
1681.62467,0.23143
1683.55314,0.24323
1685.48161,0.23445
1687.41008,0.22014
1689.33855,0.21462
1691.26701,0.21334
1693.19548,0.21716
1695.12395,0.22848
1697.05242,0.23605
1698.98089,0.23127
1700.90936,0.22299
1702.83783,0.21922
1704.76629,0.21822
1706.69476,0.21418
1708.62323,0.20800
1710.55170,0.20523
1712.48017,0.20849
1714.40864,0.21892
1716.33711,0.23086
1718.26558,0.22448
1720.19404,0.21056
1722.12251,0.20698
1724.05098,0.20795
1725.97945,0.20700
1727.90792,0.20692
1729.83639,0.21022
1731.76486,0.21555
1733.69332,0.21917
1735.62179,0.21637
1737.55026,0.21409
1739.47873,0.21390
1741.40720,0.21296
1743.33567,0.21275
1745.26414,0.21480
1747.19261,0.21889
1749.12107,0.22279
1751.04954,0.21934
1752.97801,0.21065
1754.90648,0.20634
1756.83495,0.20715
1758.76342,0.20833
1760.69189,0.20771
1762.62035,0.20478
1764.54882,0.20181
1766.47729,0.20308
1768.40576,0.20903
1770.33423,0.21810
1772.26270,0.22455
1774.19117,0.21966
1776.11964,0.21151
1778.04810,0.20791
1779.97657,0.20767
1781.90504,0.20629
1783.83351,0.20367
1785.76198,0.20184
1787.69045,0.20286
1789.61892,0.20957
1791.54738,0.21817
1793.47585,0.21814
1795.40432,0.21256
1797.33279,0.20985
1799.26126,0.21008
1801.18973,0.20778
1803.11820,0.20236
1805.04666,0.19999
1806.97513,0.20109
1808.90360,0.20213
1810.83207,0.20135
1812.76054,0.19940
1814.68901,0.19859
1816.61748,0.19838
1818.54595,0.19754
1820.47441,0.19806
1822.40288,0.20132
1824.33135,0.20513
1826.25982,0.20596
1828.18829,0.20696
1830.11676,0.20978
1832.04523,0.20807
1833.97369,0.20431
1835.90216,0.20329
1837.83063,0.20288
1839.75910,0.20275
1841.68757,0.20619
1843.61604,0.20992
1845.54451,0.20679
1847.47298,0.20136
1849.40144,0.19959
1851.32991,0.20106
1853.25838,0.20254
1855.18685,0.20234
1857.11532,0.20164
1859.04379,0.20099
1860.97226,0.20077
1862.90072,0.20223
1864.82919,0.20533
1866.75766,0.20872
1868.68613,0.20996
1870.61460,0.20821
1872.54307,0.20549
1874.47154,0.20145
1876.40001,0.19683
1878.32847,0.19548
1880.25694,0.19753
1882.18541,0.19919
1884.11388,0.19905
1886.04235,0.19837
1887.97082,0.19970
1889.89929,0.20305
1891.82775,0.20429
1893.75622,0.20382
1895.68469,0.20403
1897.61316,0.20354
1899.54163,0.20188
1901.47010,0.20053
1903.39857,0.19953
1905.32704,0.19932
1907.25550,0.20065
1909.18397,0.20124
1911.11244,0.20053
1913.04091,0.20138
1914.96938,0.20433
1916.89785,0.20720
1918.82632,0.20741
1920.75478,0.20598
1922.68325,0.20426
1924.61172,0.20147
1926.54019,0.19944
1928.46866,0.19919
1930.39713,0.19962
1932.32560,0.20073
1934.25407,0.20221
1936.18253,0.20303
1938.11100,0.20302
1940.03947,0.20338
1941.96794,0.20490
1943.89641,0.20500
1945.82488,0.20322
1947.75335,0.20274
1949.68181,0.20316
1951.61028,0.20231
1953.53875,0.20149
1955.46722,0.20219
1957.39569,0.20196
1959.32416,0.19974
1961.25263,0.19895
1963.18110,0.20097
1965.10956,0.20315
1967.03803,0.20351
1968.96650,0.20237
1970.89497,0.20118
1972.82344,0.20139
1974.75191,0.20253
1976.68038,0.20159
1978.60884,0.19970
1980.53731,0.20118
1982.46578,0.20302
1984.39425,0.20177
1986.32272,0.20125
1988.25119,0.20308
1990.17966,0.20571
1992.10812,0.20827
1994.03659,0.20817
1995.96506,0.20516
1997.89353,0.20227
1999.82200,0.20136
2001.75047,0.20210
2003.67894,0.20306
2005.60741,0.20262
2007.53587,0.20130
2009.46434,0.20159
2011.39281,0.20335
2013.32128,0.20444
2015.24975,0.20499
2017.17822,0.20503
2019.10669,0.20380
2021.03515,0.20298
2022.96362,0.20306
2024.89209,0.20256
2026.82056,0.20229
2028.74903,0.20233
2030.67750,0.20188
2032.60597,0.20227
2034.53444,0.20353
2036.46290,0.20385
2038.39137,0.20277
2040.31984,0.20159
2042.24831,0.20149
2044.17678,0.20275
2046.10525,0.20448
2048.03372,0.20567
2049.96218,0.20642
2051.89065,0.20582
2053.81912,0.20403
2055.74759,0.20312
2057.67606,0.20277
2059.60453,0.20212
2061.53300,0.20213
2063.46147,0.20275
2065.38993,0.20276
2067.31840,0.20254
2069.24687,0.20304
2071.17534,0.20355
2073.10381,0.20318
2075.03228,0.20286
2076.96075,0.20292
2078.88921,0.20244
2080.81768,0.20235
2082.74615,0.20348
2084.67462,0.20437
2086.60309,0.20468
2088.53156,0.20510
2090.46003,0.20524
2092.38850,0.20596
2094.31696,0.20773
2096.24543,0.20771
2098.17390,0.20563
2100.10237,0.20557
2102.03084,0.20747
2103.95931,0.20707
2105.88778,0.20531
2107.81624,0.20568
2109.74471,0.20620
2111.67318,0.20522
2113.60165,0.20505
2115.53012,0.20602
2117.45859,0.20718
2119.38706,0.20857
2121.31553,0.20903
2123.24399,0.20839
2125.17246,0.20844
2127.10093,0.20748
2129.02940,0.20355
2130.95787,0.20103
2132.88634,0.20258
2134.81481,0.20481
2136.74327,0.20522
2138.67174,0.20419
2140.60021,0.20411
2142.52868,0.20628
2144.45715,0.20730
2146.38562,0.20495
2148.31409,0.20304
2150.24255,0.20382
2152.17102,0.20416
2154.09949,0.20240
2156.02796,0.20069
2157.95643,0.20103
2159.88490,0.20322
2161.81337,0.20531
2163.74184,0.20528
2165.67030,0.20446
2167.59877,0.20564
2169.52724,0.20671
2171.45571,0.20488
2173.38418,0.20312
2175.31265,0.20420
2177.24112,0.20628
2179.16958,0.20767
2181.09805,0.20738
2183.02652,0.20547
2184.95499,0.20454
2186.88346,0.20468
2188.81193,0.20457
2190.74040,0.20453
2192.66887,0.20394
2194.59733,0.20297
2196.52580,0.20318
2198.45427,0.20441
2200.38274,0.20515
2202.31121,0.20462
2204.23968,0.20335
2206.16815,0.20300
2208.09661,0.20401
2210.02508,0.20552
2211.95355,0.20704
2213.88202,0.20743
2215.81049,0.20667
2217.73896,0.20561
2219.66743,0.20458
2221.59590,0.20420
2223.52436,0.20407
2225.45283,0.20426
2227.38130,0.20516
2229.30977,0.20504
2231.23824,0.20391
2233.16671,0.20362
2235.09518,0.20410
2237.02364,0.20521
2238.95211,0.20648
2240.88058,0.20613
2242.80905,0.20524
2244.73752,0.20601
2246.66599,0.20656
2248.59446,0.20537
2250.52293,0.20496
2252.45139,0.20579
2254.37986,0.20531
2256.30833,0.20324
2258.23680,0.20234
2260.16527,0.20349
2262.09374,0.20445
2264.02221,0.20446
2265.95067,0.20399
2267.87914,0.20340
2269.80761,0.20392
2271.73608,0.20530
2273.66455,0.20586
2275.59302,0.20493
2277.52149,0.20351
2279.44996,0.20277
2281.37842,0.20253
2283.30689,0.20266
2285.23536,0.20338
2287.16383,0.20440
2289.09230,0.20419
2291.02077,0.20259
2292.94924,0.20114
2294.87770,0.19952
2296.80617,0.19854
2298.73464,0.19948
2300.66311,0.20063
2302.59158,0.20170
2304.52005,0.20341
2306.44852,0.20471
2308.37699,0.20536
2310.30545,0.20633
2312.23392,0.20653
2314.16239,0.20448
2316.09086,0.20165
2318.01933,0.19954
2319.94780,0.19813
2321.87627,0.19927
2323.80473,0.20301
2325.73320,0.20133
2327.66167,0.19477
2329.59014,0.19678
2331.51861,0.20634
2333.44708,0.20960
2335.37555,0.20515
2337.30401,0.19861
2339.23248,0.19510
2341.16095,0.19872
2343.08942,0.20251
2345.01789,0.19919
2346.94636,0.19725
2348.87483,0.20003
2350.80330,0.20448
2352.73176,0.21019
2354.66023,0.21726
2356.58870,0.22545
2358.51717,0.22949
2360.44564,0.21790
2362.37411,0.19981
2364.30258,0.19452
2366.23104,0.20018
2368.15951,0.20940
2370.08798,0.21532
2372.01645,0.21297
2373.94492,0.20765
2375.87339,0.20496
2377.80186,0.20364
2379.73033,0.20190
2381.65879,0.20125
2383.58726,0.20250
2385.51573,0.20394
2387.44420,0.20410
2389.37267,0.20333
2391.30114,0.20290
2393.22961,0.20366
2395.15807,0.20543
2397.08654,0.20713
2399.01501,0.20744
2400.94348,0.20653
2402.87195,0.20642
2404.80042,0.20745
2406.72889,0.20800
2408.65736,0.20784
2410.58582,0.20708
2412.51429,0.20612
2414.44276,0.20621
2416.37123,0.20670
2418.29970,0.20652
2420.22817,0.20621
2422.15664,0.20601
2424.08510,0.20621
2426.01357,0.20637
2427.94204,0.20623
2429.87051,0.20697
2431.79898,0.20793
2433.72745,0.20841
2435.65592,0.20873
2437.58439,0.20739
2439.51285,0.20508
2441.44132,0.20514
2443.36979,0.20688
2445.29826,0.20719
2447.22673,0.20639
2449.15520,0.20614
2451.08367,0.20617
2453.01213,0.20603
2454.94060,0.20614
2456.86907,0.20656
2458.79754,0.20734
2460.72601,0.20797
2462.65448,0.20707
2464.58295,0.20536
2466.51142,0.20492
2468.43988,0.20534
2470.36835,0.20553
2472.29682,0.20630
2474.22529,0.20767
2476.15376,0.20820
2478.08223,0.20786
2480.01070,0.20758
2481.93916,0.20745
2483.86763,0.20724
2485.79610,0.20677
2487.72457,0.20611
2489.65304,0.20567
2491.58151,0.20519
2493.50998,0.20501
2495.43844,0.20615
2497.36691,0.20807
2499.29538,0.20937
2501.22385,0.20898
2503.15232,0.20708
2505.08079,0.20625
2507.00926,0.20794
2508.93773,0.20871
2510.86619,0.20699
2512.79466,0.20586
2514.72313,0.20551
2516.65160,0.20503
2518.58007,0.20559
2520.50854,0.20660
2522.43701,0.20652
2524.36547,0.20538
2526.29394,0.20490
2528.22241,0.20682
2530.15088,0.20870
2532.07935,0.20747
2534.00782,0.20605
2535.93629,0.20670
2537.86476,0.20739
2539.79322,0.20773
2541.72169,0.20851
2543.65016,0.20911
2545.57863,0.20936
2547.50710,0.20953
2549.43557,0.20921
2551.36404,0.20879
2553.29250,0.20917
2555.22097,0.20988
2557.14944,0.20970
2559.07791,0.20957
2561.00638,0.21107
2562.93485,0.21229
2564.86332,0.21122
2566.79179,0.20893
2568.72025,0.20733
2570.64872,0.20715
2572.57719,0.20808
2574.50566,0.20954
2576.43413,0.21070
2578.36260,0.21148
2580.29107,0.21192
2582.21953,0.21138
2584.14800,0.21057
2586.07647,0.21059
2588.00494,0.21079
2589.93341,0.21049
2591.86188,0.20984
2593.79035,0.20993
2595.71882,0.21144
2597.64728,0.21177
2599.57575,0.21012
2601.50422,0.20894
2603.43269,0.20858
2605.36116,0.20853
2607.28963,0.20844
2609.21810,0.20766
2611.14656,0.20759
2613.07503,0.20948
2615.00350,0.21065
2616.93197,0.20967
2618.86044,0.20926
2620.78891,0.21057
2622.71738,0.21252
2624.64585,0.21405
2626.57431,0.21382
2628.50278,0.21214
2630.43125,0.21110
2632.35972,0.21069
2634.28819,0.21063
2636.21666,0.21081
2638.14513,0.20991
2640.07359,0.20893
2642.00206,0.20875
2643.93053,0.20839
2645.85900,0.20863
2647.78747,0.21069
2649.71594,0.21362
2651.64441,0.21551
2653.57288,0.21507
2655.50134,0.21265
2657.42981,0.21110
2659.35828,0.21174
2661.28675,0.21250
2663.21522,0.21175
2665.14369,0.21056
2667.07216,0.21220
2669.00062,0.21597
2670.92909,0.21669
2672.85756,0.21473
2674.78603,0.21382
2676.71450,0.21316
2678.64297,0.21209
2680.57144,0.21219
2682.49990,0.21268
2684.42837,0.21274
2686.35684,0.21466
2688.28531,0.21748
2690.21378,0.21708
2692.14225,0.21497
2694.07072,0.21420
2695.99919,0.21443
2697.92765,0.21584
2699.85612,0.21660
2701.78459,0.21430
2703.71306,0.21227
2705.64153,0.21331
2707.57000,0.21519
2709.49847,0.21667
2711.42693,0.21752
2713.35540,0.21653
2715.28387,0.21625
2717.21234,0.21939
2719.14081,0.22231
2721.06928,0.22168
2722.99775,0.21887
2724.92622,0.21664
2726.85468,0.21667
2728.78315,0.21705
2730.71162,0.21622
2732.64009,0.21612
2734.56856,0.21700
2736.49703,0.21781
2738.42550,0.21848
2740.35396,0.21820
2742.28243,0.21722
2744.21090,0.21772
2746.13937,0.21996
2748.06784,0.22092
2749.99631,0.21978
2751.92478,0.21995
2753.85325,0.22171
2755.78171,0.22167
2757.71018,0.21999
2759.63865,0.21869
2761.56712,0.21856
2763.49559,0.22050
2765.42406,0.22378
2767.35253,0.22536
2769.28099,0.22441
2771.20946,0.22266
2773.13793,0.22102
2775.06640,0.21975
2776.99487,0.21907
2778.92334,0.21923
2780.85181,0.22114
2782.78028,0.22389
2784.70874,0.22432
2786.63721,0.22232
2788.56568,0.22069
2790.49415,0.22013
2792.42262,0.22017
2794.35109,0.22088
2796.27956,0.22201
2798.20802,0.22273
2800.13649,0.22272
2802.06496,0.22283
2803.99343,0.22338
2805.92190,0.22417
2807.85037,0.22431
2809.77884,0.22351
2811.70731,0.22389
2813.63577,0.22522
2815.56424,0.22550
2817.49271,0.22555
2819.42118,0.22627
2821.34965,0.22695
2823.27812,0.22723
2825.20659,0.22766
2827.13505,0.22865
2829.06352,0.22812
2830.99199,0.22535
2832.92046,0.22489
2834.84893,0.22800
2836.77740,0.23005
2838.70587,0.22920
2840.63433,0.22763
2842.56280,0.22643
2844.49127,0.22564
2846.41974,0.22744
2848.34821,0.23077
2850.27668,0.23024
2852.20515,0.22602
2854.13362,0.22400
2856.06208,0.22652
2857.99055,0.22953
2859.91902,0.23023
2861.84749,0.22977
2863.77596,0.22744
2865.70443,0.22389
2867.63290,0.22382
2869.56136,0.22711
2871.48983,0.22821
2873.41830,0.22608
2875.34677,0.22512
2877.27524,0.22633
2879.20371,0.22793
2881.13218,0.22912
2883.06065,0.22809
2884.98911,0.22524
2886.91758,0.22255
2888.84605,0.22172
2890.77452,0.22342
2892.70299,0.22408
2894.63146,0.22263
2896.55993,0.22182
2898.48839,0.22125
2900.41686,0.22066
2902.34533,0.22131
2904.27380,0.22218
2906.20227,0.22304
2908.13074,0.22566
2910.05921,0.22791
2911.98768,0.22621
2913.91614,0.22239
2915.84461,0.22023
2917.77308,0.22030
2919.70155,0.22126
2921.63002,0.22267
2923.55849,0.22386
2925.48696,0.22347
2927.41542,0.22270
2929.34389,0.22281
2931.27236,0.22303
2933.20083,0.22504
2935.12930,0.22882
2937.05777,0.23008
2938.98624,0.22881
2940.91471,0.22778
2942.84317,0.22626
2944.77164,0.22420
2946.70011,0.22403
2948.62858,0.22539
2950.55705,0.22617
2952.48552,0.22682
2954.41399,0.22793
2956.34245,0.22780
2958.27092,0.22667
2960.19939,0.22725
2962.12786,0.23055
2964.05633,0.23339
2965.98480,0.23163
2967.91327,0.22791
2969.84174,0.22740
2971.77020,0.22994
2973.69867,0.23183
2975.62714,0.23062
2977.55561,0.22930
2979.48408,0.23041
2981.41255,0.23146
2983.34102,0.23052
2985.26948,0.22854
2987.19795,0.22819
2989.12642,0.23075
2991.05489,0.23459
2992.98336,0.23695
2994.91183,0.23685
2996.84030,0.23684
2998.76877,0.23684
3000.69723,0.23415
3002.62570,0.23160
3004.55417,0.23206
3006.48264,0.23244
3008.41111,0.23125
3010.33958,0.23072
3012.26805,0.23153
3014.19651,0.23320
3016.12498,0.23571
3018.05345,0.23688
3019.98192,0.23516
3021.91039,0.23362
3023.83886,0.23429
3025.76733,0.23476
3027.69579,0.23373
3029.62426,0.23340
3031.55273,0.23308
3033.48120,0.23095
3035.40967,0.22935
3037.33814,0.22980
3039.26661,0.23178
3041.19508,0.23381
3043.12354,0.23341
3045.05201,0.23163
3046.98048,0.23169
3048.90895,0.23288
3050.83742,0.23222
3052.76589,0.23067
3054.69436,0.23132
3056.62282,0.23381
3058.55129,0.23573
3060.47976,0.23534
3062.40823,0.23278
3064.33670,0.23146
3066.26517,0.23191
3068.19364,0.23101
3070.12211,0.23023
3072.05057,0.23214
3073.97904,0.23550
3075.90751,0.23796
3077.83598,0.23718
3079.76445,0.23455
3081.69292,0.23299
3083.62139,0.23195
3085.54985,0.23203
3087.47832,0.23279
3089.40679,0.23223
3091.33526,0.23123
3093.26373,0.23074
3095.19220,0.23199
3097.12067,0.23436
3099.04914,0.23459
3100.97760,0.23205
3102.90607,0.22945
3104.83454,0.23035
3106.76301,0.23385
3108.69148,0.23645
3110.61995,0.23757
3112.54842,0.23737
3114.47688,0.23581
3116.40535,0.23478
3118.33382,0.23532
3120.26229,0.23563
3122.19076,0.23518
3124.11923,0.23409
3126.04770,0.23280
3127.97617,0.23385
3129.90463,0.23691
3131.83310,0.23754
3133.76157,0.23492
3135.69004,0.23373
3137.61851,0.23524
3139.54698,0.23613
3141.47545,0.23527
3143.40391,0.23317
3145.33238,0.23056
3147.26085,0.22979
3149.18932,0.23092
3151.11779,0.23315
3153.04626,0.23726
3154.97473,0.24022
3156.90320,0.23935
3158.83166,0.23689
3160.76013,0.23469
3162.68860,0.23360
3164.61707,0.23507
3166.54554,0.23732
3168.47401,0.23738
3170.40248,0.23775
3172.33094,0.23969
3174.25941,0.23850
3176.18788,0.23387
3178.11635,0.23132
3180.04482,0.23272
3181.97329,0.23579
3183.90176,0.23944
3185.83022,0.24155
3187.75869,0.23850
3189.68716,0.23410
3191.61563,0.23536
3193.54410,0.23935
3195.47257,0.24070
3197.40104,0.24146
3199.32951,0.24368
3201.25797,0.24434
3203.18644,0.24055
3205.11491,0.23439
3207.04338,0.23169
3208.97185,0.23527
3210.90032,0.24011
3212.82879,0.24184
3214.75725,0.24152
3216.68572,0.23917
3218.61419,0.23493
3220.54266,0.23162
3222.47113,0.23221
3224.39960,0.23411
3226.32807,0.23292
3228.25654,0.23045
3230.18500,0.23056
3232.11347,0.23407
3234.04194,0.23592
3235.97041,0.23205
3237.89888,0.22743
3239.82735,0.22667
3241.75582,0.23048
3243.68428,0.23689
3245.61275,0.24000
3247.54122,0.23838
3249.46969,0.23527
3251.39816,0.23252
3253.32663,0.23109
3255.25510,0.23124
3257.18357,0.23234
3259.11203,0.23350
3261.04050,0.23564
3262.96897,0.23745
3264.89744,0.23495
3266.82591,0.22970
3268.75438,0.22833
3270.68285,0.23350
3272.61131,0.23934
3274.53978,0.23990
3276.46825,0.23570
3278.39672,0.23185
3280.32519,0.23194
3282.25366,0.23322
3284.18213,0.23306
3286.11060,0.23146
3288.03906,0.22953
3289.96753,0.22777
3291.89600,0.22598
3293.82447,0.22735
3295.75294,0.23306
3297.68141,0.23754
3299.60988,0.23550
3301.53834,0.23202
3303.46681,0.23482
3305.39528,0.23945
3307.32375,0.23819
3309.25222,0.23294
3311.18069,0.23023
3313.10916,0.23093
3315.03763,0.23096
3316.96609,0.23067
3318.89456,0.23221
3320.82303,0.23423
3322.75150,0.23501
3324.67997,0.23335
3326.60844,0.23209
3328.53691,0.23419
3330.46537,0.23626
3332.39384,0.23698
3334.32231,0.23762
3336.25078,0.23784
3338.17925,0.23856
3340.10772,0.23993
3342.03619,0.24021
3343.96466,0.23906
3345.89312,0.23856
3347.82159,0.23927
3349.75006,0.24028
3351.67853,0.24048
3353.60700,0.23876
3355.53547,0.23552
3357.46394,0.23178
3359.39240,0.23041
3361.32087,0.23317
3363.24934,0.23763
3365.17781,0.24069
3367.10628,0.24105
3369.03475,0.23973
3370.96322,0.23892
3372.89168,0.23946
3374.82015,0.23896
3376.74862,0.23643
3378.67709,0.23427
3380.60556,0.23355
3382.53403,0.23452
3384.46250,0.23646
3386.39097,0.23704
3388.31943,0.23656
3390.24790,0.23626
3392.17637,0.23495
3394.10484,0.23340
3396.03331,0.23331
3397.96178,0.23455
3399.89025,0.23798
3401.81871,0.24200
3403.74718,0.24256
3405.67565,0.23822
3407.60412,0.23202
3409.53259,0.22906
3411.46106,0.22900
3413.38953,0.22799
3415.31800,0.22799
3417.24646,0.23261
3419.17493,0.23762
3421.10340,0.23776
3423.03187,0.23568
3424.96034,0.23386
3426.88881,0.23143
3428.81728,0.22935
3430.74574,0.22693
3432.67421,0.22341
3434.60268,0.22279
3436.53115,0.22493
3438.45962,0.22520
3440.38809,0.22429
3442.31656,0.22415
3444.24503,0.22473
3446.17349,0.22611
3448.10196,0.22592
3450.03043,0.22263
3451.95890,0.21750
3453.88737,0.21206
3455.81584,0.20928
3457.74431,0.21090
3459.67277,0.21550
3461.60124,0.21845
3463.52971,0.21648
3465.45818,0.21477
3467.38665,0.21702
3469.31512,0.21918
3471.24359,0.21903
3473.17206,0.21787
3475.10052,0.21595
3477.02899,0.21317
3478.95746,0.21147
3480.88593,0.21101
3482.81440,0.20880
3484.74287,0.20586
3486.67134,0.20358
3488.59980,0.20163
3490.52827,0.20152
3492.45674,0.20186
3494.38521,0.20184
3496.31368,0.20283
3498.24215,0.20357
3500.17062,0.20335
3502.09909,0.20255
3504.02755,0.20072
3505.95602,0.19972
3507.88449,0.20121
3509.81296,0.20158
3511.74143,0.19887
3513.66990,0.19702
3515.59837,0.19698
3517.52683,0.19652
3519.45530,0.19557
3521.38377,0.19567
3523.31224,0.19566
3525.24071,0.19370
3527.16918,0.19261
3529.09765,0.19533
3531.02611,0.19784
3532.95458,0.19573
3534.88305,0.19094
3536.81152,0.18729
3538.73999,0.18620
3540.66846,0.18660
3542.59693,0.18825
3544.52540,0.19208
3546.45386,0.19485
3548.38233,0.19343
3550.31080,0.19229
3552.23927,0.19196
3554.16774,0.18809
3556.09621,0.18313
3558.02468,0.18102
3559.95314,0.18151
3561.88161,0.18236
3563.81008,0.18466
3565.73855,0.19139
3567.66702,0.19353
3569.59549,0.18457
3571.52396,0.17629
3573.45243,0.17421
3575.38089,0.17703
3577.30936,0.18040
3579.23783,0.18034
3581.16630,0.17690
3583.09477,0.17446
3585.02324,0.17759
3586.95171,0.18323
3588.88017,0.18095
3590.80864,0.17445
3592.73711,0.17193
3594.66558,0.17258
3596.59405,0.17307
3598.52252,0.17344
3600.45099,0.17199
3602.37946,0.16837
3604.30792,0.16721
3606.23639,0.17079
3608.16486,0.17641
3610.09333,0.17740
3612.02180,0.17378
3613.95027,0.16943
3615.87874,0.16868
3617.80720,0.17342
3619.73567,0.17478
3621.66414,0.16857
3623.59261,0.16448
3625.52108,0.16467
3627.44955,0.16640
3629.37802,0.16607
3631.30649,0.16210
3633.23495,0.15817
3635.16342,0.15610
3637.09189,0.15511
3639.02036,0.15342
3640.94883,0.15180
3642.87730,0.15275
3644.80577,0.15843
3646.73423,0.17040
3648.66270,0.17958
3650.59117,0.16619
3652.51964,0.15217
3654.44811,0.15136
3656.37658,0.15428
3658.30505,0.15178
3660.23352,0.14870
3662.16198,0.14913
3664.09045,0.15163
3666.01892,0.15350
3667.94739,0.15385
3669.87586,0.15593
3671.80433,0.16110
3673.73280,0.16836
3675.66126,0.17244
3677.58973,0.16333
3679.51820,0.15342
3681.44667,0.14933
3683.37514,0.14884
3685.30361,0.14972
3687.23208,0.15201
3689.16055,0.15589
3691.08901,0.15636
3693.01748,0.15288
3694.94595,0.15010
3696.87442,0.14810
3698.80289,0.14653
3700.73136,0.14518
3702.65983,0.14229
3704.58829,0.13939
3706.51676,0.13966
3708.44523,0.14379
3710.37370,0.14936
3712.30217,0.15082
3714.23064,0.14807
3716.15911,0.14598
3718.08757,0.14502
3720.01604,0.14427
3721.94451,0.14520
3723.87298,0.14773
3725.80145,0.14743
3727.72992,0.14362
3729.65839,0.14384
3731.58686,0.15173
3733.51532,0.16152
3735.44379,0.16481
3737.37226,0.16107
3739.30073,0.15698
3741.22920,0.15585
3743.15767,0.15728
3745.08614,0.15904
3747.01460,0.16071
3748.94307,0.16629
3750.87154,0.17031
3752.80001,0.16252
3754.72848,0.15397
3756.65695,0.14981
3758.58542,0.14630
3760.51389,0.14213
3762.44235,0.14135
3764.37082,0.14232
3766.29929,0.14169
3768.22776,0.14193
3770.15623,0.14137
3772.08470,0.13783
3774.01317,0.13755
3775.94163,0.14161
3777.87010,0.14604
3779.79857,0.14706
3781.72704,0.14547
3783.65551,0.14534
3785.58398,0.14564
3787.51245,0.14395
3789.44092,0.14070
3791.36938,0.13739
3793.29785,0.13732
3795.22632,0.14313
3797.15479,0.15093
3799.08326,0.15555
3801.01173,0.15810
3802.94020,0.15446
3804.86866,0.14953
3806.79713,0.14977
3808.72560,0.14929
3810.65407,0.14577
3812.58254,0.14340
3814.51101,0.14361
3816.43948,0.14521
3818.36795,0.14606
3820.29641,0.14833
3822.22488,0.14944
3824.15335,0.14541
3826.08182,0.14218
3828.01029,0.14290
3829.93876,0.14610
3831.86723,0.15058
3833.79569,0.15384
3835.72416,0.15433
3837.65263,0.15388
3839.58110,0.15278
3841.50957,0.14994
3843.43804,0.14697
3845.36651,0.14496
3847.29498,0.14282
3849.22344,0.14355
3851.15191,0.15239
3853.08038,0.16202
3855.00885,0.15155
3856.93732,0.13941
3858.86579,0.13493
3860.79426,0.13658
3862.72272,0.14204
3864.65119,0.14383
3866.57966,0.14415
3868.50813,0.15012
3870.43660,0.15147
3872.36507,0.14190
3874.29354,0.13318
3876.22200,0.13018
3878.15047,0.13437
3880.07894,0.14427
3882.00741,0.14894
3883.93588,0.14485
3885.86435,0.13749
3887.79282,0.13136
3889.72129,0.13141
3891.64975,0.13586
3893.57822,0.13550
3895.50669,0.13299
3897.43516,0.13472
3899.36363,0.13854
3901.29210,0.14038
3903.22057,0.14019
3905.14903,0.13679
3907.07750,0.13194
3909.00597,0.12798
3910.93444,0.12471
3912.86291,0.12448
3914.79138,0.12740
3916.71985,0.12776
3918.64832,0.12295
3920.57678,0.11917
3922.50525,0.11913
3924.43372,0.11965
3926.36219,0.12044
3928.29066,0.12221
3930.21913,0.12379
3932.14760,0.12561
3934.07606,0.12722
3936.00453,0.12691
3937.93300,0.12610
3939.86147,0.12655
3941.78994,0.12649
3943.71841,0.12410
3945.64688,0.12235
3947.57535,0.12348
3949.50381,0.12487
3951.43228,0.12426
3953.36075,0.12241
3955.28922,0.12022
3957.21769,0.11819
3959.14616,0.11689
3961.07463,0.11696
3963.00309,0.11791
3964.93156,0.11832
3966.86003,0.11755
3968.78850,0.11777
3970.71697,0.12012
3972.64544,0.12170
3974.57391,0.12204
3976.50238,0.12202
3978.43084,0.12027
3980.35931,0.11734
3982.28778,0.11505
3984.21625,0.11366
3986.14472,0.11408
3988.07319,0.11699
3990.00166,0.11984
3991.93012,0.11895
3993.85859,0.11536
3995.78706,0.11474
3997.71553,0.11631
3999.64400,0.11431
4001.57247,0.10905
4003.50094,0.10659
4005.42941,0.10990
4007.35787,0.11299
4009.28634,0.11160
4011.21481,0.11046
4013.14328,0.11221
4015.07175,0.11347
4017.00022,0.11299
4018.92869,0.11252
4020.85715,0.11184
4022.78562,0.10995
4024.71409,0.10736
4026.64256,0.10540
4028.57103,0.10491
4030.49950,0.10657
4032.42797,0.11064
4034.35644,0.11505
4036.28490,0.11664
4038.21337,0.11392
4040.14184,0.10940
4042.07031,0.10717
4043.99878,0.10771
4045.92725,0.10765
4047.85572,0.10565
4049.78418,0.10572
4051.71265,0.10905
4053.64112,0.11161
4055.56959,0.11157
4057.49806,0.10904
4059.42653,0.10548
4061.35500,0.10555
4063.28346,0.10960
4065.21193,0.11144
4067.14040,0.10932
4069.06887,0.10870
4070.99734,0.11104
4072.92581,0.11196
4074.85428,0.11075
4076.78275,0.11004
4078.71121,0.10864
4080.63968,0.10530
4082.56815,0.10371
4084.49662,0.10517
4086.42509,0.10610
4088.35356,0.10410
4090.28203,0.10050
4092.21049,0.09802
4094.13896,0.09813
4096.06743,0.10066
4097.99590,0.10188
4099.92437,0.10087
4101.85284,0.10048
4103.78131,0.10009
4105.70978,0.09953
4107.63824,0.09900
4109.56671,0.09824
4111.49518,0.09826
4113.42365,0.09851
4115.35212,0.09763
4117.28059,0.09740
4119.20906,0.10126
4121.13752,0.10487
4123.06599,0.10197
4124.99446,0.09593
4126.92293,0.09272
4128.85140,0.09273
4130.77987,0.09198
4132.70834,0.08922
4134.63681,0.08770
4136.56527,0.08795
4138.49374,0.08729
4140.42221,0.08763
4142.35068,0.09019
4144.27915,0.09129
4146.20762,0.09128
4148.13609,0.09054
4150.06455,0.08795
4151.99302,0.08853
4153.92149,0.09343
4155.84996,0.09464
4157.77843,0.09111
4159.70690,0.08845
4161.63537,0.08705
4163.56384,0.08804
4165.49230,0.09128
4167.42077,0.09153
4169.34924,0.08773
4171.27771,0.08339
4173.20618,0.08290
4175.13465,0.08487
4177.06312,0.08410
4178.99158,0.08208
4180.92005,0.08058
4182.84852,0.08099
4184.77699,0.08400
4186.70546,0.08405
4188.63393,0.08278
4190.56240,0.08605
4192.49087,0.08940
4194.41933,0.08905
4196.34780,0.08684
4198.27627,0.08448
4200.20474,0.08391
4202.13321,0.08400
4204.06168,0.08197
4205.99015,0.08099
4207.91861,0.08417
4209.84708,0.08688
4211.77555,0.08665
4213.70402,0.08571
4215.63249,0.08318
4217.56096,0.07854
4219.48943,0.07494
4221.41789,0.07412
4223.34636,0.07397
4225.27483,0.07345
4227.20330,0.07390
4229.13177,0.07512
4231.06024,0.07667
4232.98871,0.07974
4234.91718,0.08314
4236.84564,0.08498
4238.77411,0.08559
4240.70258,0.08367
4242.63105,0.08085
4244.55952,0.08048
4246.48799,0.08044
4248.41646,0.07857
4250.34492,0.07506
4252.27339,0.07244
4254.20186,0.07390
4256.13033,0.07598
4258.05880,0.07307
4259.98727,0.06884
4261.91574,0.06811
4263.84421,0.06672
4265.77267,0.06455
4267.70114,0.06609
4269.62961,0.06818
4271.55808,0.06782
4273.48655,0.06830
4275.41502,0.06796
4277.34349,0.06210
4279.27195,0.05833
4281.20042,0.06214
4283.12889,0.06395
4285.05736,0.06061
4286.98583,0.05755
4288.91430,0.05561
4290.84277,0.05353
4292.77124,0.05172
4294.69970,0.05304
4296.62817,0.05751
4298.55664,0.05985
4300.48511,0.05716
4302.41358,0.05244
4304.34205,0.05013
4306.27052,0.05145
4308.19898,0.05523
4310.12745,0.05978
4312.05592,0.06442
4313.98439,0.06813
4315.91286,0.06728
4317.84133,0.06185
4319.76980,0.05733
4321.69827,0.05710
4323.62673,0.05945
4325.55520,0.06032
4327.48367,0.05739
4329.41214,0.05282
4331.34061,0.04807
4333.26908,0.04448
4335.19755,0.04674
4337.12601,0.05378
4339.05448,0.06015
4340.98295,0.06194
4342.91142,0.05648
4344.83989,0.04867
4346.76836,0.04594
4348.69683,0.04637
4350.62530,0.04508
4352.55376,0.04368
4354.48223,0.04358
4356.41070,0.04289
4358.33917,0.04246
4360.26764,0.04282
4362.19611,0.04268
4364.12458,0.04298
4366.05304,0.04355
4367.98151,0.04253
4369.90998,0.04176
4371.83845,0.04087
4373.76692,0.03739
4375.69539,0.03528
4377.62386,0.03763
4379.55232,0.04093
4381.48079,0.04204
4383.40926,0.04309
4385.33773,0.04393
4387.26620,0.04128
4389.19467,0.03878
4391.12314,0.03840
4393.05161,0.03566
4394.98007,0.03103
4396.90854,0.02884
4398.83701,0.02980
4400.76548,0.03124
4402.69395,0.03243
4404.62242,0.03516
4406.55089,0.03765
4408.47935,0.03747
4410.40782,0.03540
4412.33629,0.03255
4414.26476,0.02990
4416.19323,0.02761
4418.12170,0.02764
4420.05017,0.02943
4421.97864,0.02789
4423.90710,0.02584
4425.83557,0.02758
4427.76404,0.03159
4429.69251,0.03467
4431.62098,0.03169
4433.54945,0.02547
4435.47792,0.02376
4437.40638,0.02658
4439.33485,0.02979
4441.26332,0.03110
4443.19179,0.03238
4445.12026,0.03252
4447.04873,0.02845
4448.97720,0.02402
4450.90567,0.02374
4452.83413,0.02776
4454.76260,0.03200
4456.69107,0.03322
4458.61954,0.03312
4460.54801,0.03358
4462.47648,0.03416
4464.40495,0.03226
4466.33341,0.02804
4468.26188,0.02636
4470.19035,0.02785
4472.11882,0.02631
4474.04729,0.02138
4475.97576,0.01983
4477.90423,0.02115
4479.83270,0.02290
4481.76116,0.02662
4483.68963,0.02772
4485.61810,0.02313
4487.54657,0.01983
4489.47504,0.02065
4491.40351,0.02030
4493.33198,0.01757
4495.26044,0.01590
4497.18891,0.01446
4499.11738,0.01128
4501.04585,0.01072
4502.97432,0.01383
4504.90279,0.01467
4506.83126,0.01231
4508.75973,0.01193
4510.68819,0.01605
4512.61666,0.01806
4514.54513,0.01417
4516.47360,0.01226
4518.40207,0.01400
4520.33054,0.01407
4522.25901,0.01207
4524.18747,0.00858
4526.11594,0.00484
4528.04441,0.00491
4529.97288,0.00757
4531.90135,0.00636
4533.82982,0.00454
4535.75829,0.00984
4537.68676,0.01625
4539.61522,0.01485
4541.54369,0.00889
4543.47216,0.00664
4545.40063,0.00842
4547.32910,0.00786
4549.25757,0.00831
4551.18604,0.01477
4553.11450,0.01958
4555.04297,0.01917
4556.97144,0.01812
4558.89991,0.01549
4560.82838,0.01193
4562.75685,0.01215
4564.68532,0.01140
4566.61378,0.00574
4568.54225,0.00082
4570.47072,-0.00035
4572.39919,0.00353
4574.32766,0.01018
4576.25613,0.01145
4578.18460,0.00603
4580.11307,0.00017
4582.04153,-0.00167
4583.97000,-0.00067
4585.89847,0.00020
4587.82694,0.00289
4589.75541,0.00808
4591.68388,0.01104
4593.61235,0.01141
4595.54081,0.01012
4597.46928,0.00592
4599.39775,0.00308
4601.32622,0.00472
4603.25469,0.01008
4605.18316,0.01593
4607.11163,0.01263
4609.04010,0.00336
4610.96856,0.00296
4612.89703,0.00951
4614.82550,0.01137
4616.75397,0.00732
4618.68244,0.00446
4620.61091,0.00423
4622.53938,0.00223
4624.46784,0.00159
4626.39631,0.00569
4628.32478,0.00921
4630.25325,0.00686
4632.18172,0.00062
4634.11019,0.00010
4636.03866,0.00789
4637.96713,0.01361
4639.89559,0.01317
4641.82406,0.01227
4643.75253,0.00986
4645.68100,0.00284
4647.60947,-0.00198
4649.53794,0.00074
4651.46641,0.00589
4653.39487,0.00575
4655.32334,0.00159
4657.25181,0.00114
4659.18028,0.00169
4661.10875,-0.00302
4663.03722,-0.00658
4664.96569,-0.00349
4666.89416,0.00298
4668.82262,0.00652
4670.75109,0.00273
4672.67956,-0.00036
4674.60803,0.00415
4676.53650,0.00817
4678.46497,0.00644
4680.39344,0.00453
4682.32190,0.00612
4684.25037,0.00833
4686.17884,0.00979
4688.10731,0.01007
4690.03578,0.00599
4691.96425,-0.00053
4693.89272,-0.00492
4695.82119,-0.00654
4697.74965,-0.00800
4699.67812,-0.00906
4701.60659,-0.00253
4703.53506,0.00982
4705.46353,0.01415
4707.39200,0.00793
4709.32047,0.00027
4711.24893,-0.00179
4713.17740,0.00219
4715.10587,0.00745
4717.03434,0.00868
4718.96281,0.00391
4720.89128,-0.00070
4722.81975,-0.00013
4724.74821,0.00272
4726.67668,0.00429
4728.60515,0.00382
4730.53362,0.00352
4732.46209,0.00152
4734.39056,-0.00284
4736.31903,-0.00451
4738.24750,-0.00328
4740.17596,0.00131
4742.10443,0.00747
4744.03290,0.00714
4745.96137,0.00228
4747.88984,0.00079
4749.81831,0.00227
4751.74678,0.00319
4753.67524,0.00252
4755.60371,0.00125
4757.53218,0.00006
4759.46065,-0.00079
4761.38912,0.00025
4763.31759,-0.00047
4765.24606,-0.00536
4767.17453,-0.00614
4769.10299,0.00013
4771.03146,0.00554
4772.95993,0.00598
4774.88840,0.00200
4776.81687,-0.00225
4778.74534,0.00018
4780.67381,0.00470
4782.60227,0.00342
4784.53074,0.00274
4786.45921,0.00804
4788.38768,0.01199
4790.31615,0.01026
4792.24462,0.00826
4794.17309,0.00743
4796.10156,0.00446
4798.03002,0.00393
4799.95849,0.00864
4801.88696,0.01270
4803.81543,0.01548
4805.74390,0.01672
4807.67237,0.01194
4809.60084,0.00372
4811.52930,-0.00256
4813.45777,-0.00302
4815.38624,0.00120
4817.31471,0.00442
4819.24318,0.00632
4821.17165,0.00846
4823.10012,0.01017
4825.02859,0.00747
4826.95705,-0.00076
4828.88552,-0.00505
4830.81399,0.00084
4832.74246,0.00888
4834.67093,0.00834
4836.59940,0.00207
4838.52787,-0.00088
4840.45633,0.00209
4842.38480,0.01003
4844.31327,0.01462
4846.24174,0.00968
4848.17021,0.00422
4850.09868,0.00560
4852.02715,0.01098
4853.95562,0.01636
4855.88408,0.01786
4857.81255,0.01210
4859.74102,0.00521
4861.66949,0.00472
4863.59796,0.00589
4865.52643,0.00525
4867.45490,0.00557
4869.38336,0.00766
4871.31183,0.00841
4873.24030,0.00594
4875.16877,0.00276
4877.09724,0.00185
4879.02571,0.00424
4880.95418,0.00267
4882.88265,-0.00493
4884.81111,-0.00564
4886.73958,0.00215
4888.66805,0.00897
4890.59652,0.01401
4892.52499,0.01311
4894.45346,0.00184
4896.38193,-0.00488
4898.31039,0.00228
4900.23886,0.00811
4902.16733,0.00715
4904.09580,0.00824
4906.02427,0.00948
4907.95274,0.00754
4909.88121,0.00535
4911.80967,0.00627
4913.73814,0.01062
4915.66661,0.01022
4917.59508,0.00434
4919.52355,0.00358
4921.45202,0.00778
4923.38049,0.00677
4925.30896,0.00242
4927.23742,0.00236
4929.16589,0.00218
4931.09436,-0.00016
4933.02283,-0.00062
4934.95130,-0.00207
4936.87977,-0.00461
4938.80824,-0.00133
4940.73670,0.00846
4942.66517,0.01658
4944.59364,0.01797
4946.52211,0.01229
4948.45058,0.00281
4950.37905,-0.00155
4952.30752,0.00058
4954.23599,0.00152
4956.16445,0.00265
4958.09292,0.00734
4960.02139,0.00676
4961.94986,-0.00159
4963.87833,-0.00438
4965.80680,-0.00099
4967.73527,0.00181
4969.66373,0.00781
4971.59220,0.01583
4973.52067,0.02147
4975.44914,0.02314
4977.37761,0.02213
4979.30608,0.02075
4981.23455,0.01939
4983.16302,0.01817
4985.09148,0.01386
4987.01995,0.01157
4988.94842,0.01988
4990.87689,0.03028
4992.80536,0.02861
4994.73383,0.01588
4996.66230,0.00563
4998.59076,0.00777
5000.51923,0.01765
5002.44770,0.02206
5004.37617,0.01799
5006.30464,0.01284
5008.23311,0.01025
5010.16158,0.01144
5012.09005,0.01512
5014.01851,0.01279
5015.94698,0.00225
5017.87545,-0.00589
5019.80392,-0.00757
5021.73239,-0.00446
5023.66086,0.00153
5025.58933,0.00534
5027.51779,0.00649
5029.44626,0.00317
5031.37473,-0.00406
5033.30320,-0.00284
5035.23167,0.00846
5037.16014,0.01320
5039.08861,0.00371
5041.01708,-0.00624
5042.94554,-0.00290
5044.87401,0.00703
5046.80248,0.01275
5048.73095,0.01535
5050.65942,0.01666
5052.58789,0.01856
5054.51636,0.02377
5056.44482,0.02608
5058.37329,0.02268
5060.30176,0.02373
5062.23023,0.02758
5064.15870,0.02464
5066.08717,0.01902
5068.01564,0.00941
5069.94410,-0.00178
5071.87257,0.00089
5073.80104,0.01070
5075.72951,0.01274
5077.65798,0.01453
5079.58645,0.02299
5081.51492,0.02787
5083.44339,0.02260
5085.37185,0.01755
5087.30032,0.02344
5089.22879,0.03181
5091.15726,0.02692
5093.08573,0.01660
5095.01420,0.02495
5096.94267,0.04480
5098.87113,0.04390
5100.79960,0.02604
5102.72807,0.02083
5104.65654,0.02887
5106.58501,0.03260
5108.51348,0.03185
5110.44195,0.02912
5112.37042,0.01868
5114.29888,0.01046
5116.22735,0.01714
5118.15582,0.03140
5120.08429,0.03933
5122.01276,0.04001
5123.94123,0.04015
5125.86970,0.04197
5127.79816,0.04378
5129.72663,0.03927
5131.65510,0.03120
5133.58357,0.02882
5135.51204,0.03176
5137.44051,0.03653
5139.36898,0.03582
5141.29745,0.02943
5143.22591,0.02864
5145.15438,0.03065
5147.08285,0.02649
5149.01132,0.02222
5150.93979,0.02604
5152.86826,0.03429
5154.79673,0.03677
5156.72519,0.03146
5158.65366,0.02390
5160.58213,0.01430
5162.51060,0.01135
5164.43907,0.02603
5166.36754,0.04386
5168.29601,0.04815
5170.22448,0.03796
5172.15294,0.02399
5174.08141,0.02063
5176.00988,0.02503
5177.93835,0.02726
5179.86682,0.02586
5181.79529,0.02447
5183.72376,0.02875
5185.65222,0.03301
5187.58069,0.03030
5189.50916,0.03141
5191.43763,0.04038
5193.36610,0.04877
5195.29457,0.05085
5197.22304,0.04371
5199.15151,0.03301
5201.07997,0.02858
5203.00844,0.03497
5204.93691,0.04830
5206.86538,0.05118
5208.79385,0.03815
5210.72232,0.02391
5212.65079,0.02049
5214.57925,0.03016
5216.50772,0.03630
5218.43619,0.02783
5220.36466,0.01943
5222.29313,0.02298
5224.22160,0.02966
5226.15007,0.03478
5228.07854,0.04998
5230.00700,0.06676
5231.93547,0.06264
5233.86394,0.04478
5235.79241,0.03131
5237.72088,0.02318
5239.64935,0.02221
5241.57782,0.02912
5243.50628,0.03836
5245.43475,0.04748
5247.36322,0.05004
5249.29169,0.04547
5251.22016,0.05086
5253.14863,0.06336
5255.07710,0.06309
5257.00556,0.05688
5258.93403,0.06202
5260.86250,0.06726
5262.79097,0.05967
5264.71944,0.05695
5266.64791,0.06520
5268.57638,0.06764
5270.50485,0.06541
5272.43331,0.06154
5274.36178,0.05024
5276.29025,0.03748
5278.21872,0.03541
5280.14719,0.04138
5282.07566,0.04405
5284.00413,0.04465
5285.93259,0.04891
5287.86106,0.05608
5289.78953,0.06240
5291.71800,0.05949
5293.64647,0.04779
5295.57494,0.03978
5297.50341,0.04578
5299.43188,0.06364
5301.36034,0.08052
5303.28881,0.08901
5305.21728,0.08484
5307.14575,0.06725
5309.07422,0.05096
5311.00269,0.04818
5312.93116,0.05191
5314.85962,0.05596
5316.78809,0.06283
5318.71656,0.06690
5320.64503,0.06428
5322.57350,0.06113
5324.50197,0.05746
5326.43044,0.05553
5328.35891,0.05919
5330.28737,0.06483
5332.21584,0.06785
5334.14431,0.06517
5336.07278,0.05855
5338.00125,0.05003
5339.92972,0.04645
5341.85819,0.05048
5343.78665,0.05911
5345.71512,0.07264
5347.64359,0.08094
5349.57206,0.07732
5351.50053,0.06635
5353.42900,0.05992
5355.35747,0.06802
5357.28594,0.07888
5359.21440,0.07943
5361.14287,0.07486
5363.07134,0.07723
5364.99981,0.08601
5366.92828,0.09032
5368.85675,0.08294
5370.78522,0.06854
5372.71368,0.05935
5374.64215,0.05719
5376.57062,0.05207
5378.49909,0.04237
5380.42756,0.04156
5382.35603,0.05576
5384.28450,0.07074
5386.21297,0.07128
5388.14143,0.06780
5390.06990,0.07035
5391.99837,0.07674
5393.92684,0.08043
5395.85531,0.07241
5397.78378,0.06277
5399.71225,0.06812
5401.64071,0.07740
5403.56918,0.07069
5405.49765,0.06098
5407.42612,0.06315
5409.35459,0.06702
5411.28306,0.07083
5413.21153,0.07619
5415.13999,0.07494
5417.06846,0.06972
5418.99693,0.07418
5420.92540,0.08704
5422.85387,0.09042
5424.78234,0.08662
5426.71081,0.08294
5428.63928,0.07525
5430.56774,0.06635
5432.49621,0.06157
5434.42468,0.06226
5436.35315,0.05746
5438.28162,0.04778
5440.21009,0.05344
5442.13856,0.07345
5444.06702,0.08538
5445.99549,0.09052
5447.92396,0.09930
5449.85243,0.09311
5451.78090,0.07051
5453.70937,0.06353
5455.63784,0.07638
5457.56631,0.08454
5459.49477,0.08305
5461.42324,0.08304
5463.35171,0.08634
5465.28018,0.08631
5467.20865,0.07921
5469.13712,0.07291
5471.06559,0.06834
5472.99405,0.06445
5474.92252,0.07070
5476.85099,0.08368
5478.77946,0.09256
5480.70793,0.09679
5482.63640,0.09492
5484.56487,0.08695
5486.49334,0.08114
5488.42180,0.08256
5490.35027,0.07904
5492.27874,0.06844
5494.20721,0.06884
5496.13568,0.07635
5498.06415,0.07908
5499.99262,0.08028
5501.92108,0.08063
5503.84955,0.07641
5505.77802,0.06749
5507.70649,0.05346
5509.63496,0.04055
5511.56343,0.04152
5513.49190,0.04722
5515.42037,0.04492
5517.34883,0.05709
5519.27730,0.08042
5521.20577,0.07990
5523.13424,0.06668
5525.06271,0.06753
5526.99118,0.07547
5528.91965,0.08517
5530.84811,0.09978
5532.77658,0.10674
5534.70505,0.09425
5536.63352,0.08182
5538.56199,0.09450
5540.49046,0.10905
5542.41893,0.09647
5544.34740,0.07592
5546.27586,0.06670
5548.20433,0.06551
5550.13280,0.07648
5552.06127,0.09394
5553.98974,0.10072
5555.91821,0.09847
5557.84668,0.09156
5559.77514,0.08355
5561.70361,0.08775
5563.63208,0.10198
5565.56055,0.10909
5567.48902,0.10534
5569.41749,0.10586
5571.34596,0.11158
5573.27443,0.10370
5575.20289,0.08484
5577.13136,0.07626
5579.05983,0.08048
5580.98830,0.08582
5582.91677,0.08887
5584.84524,0.09185
5586.77371,0.08662
5588.70217,0.07961
5590.63064,0.09190
5592.55911,0.10588
5594.48758,0.09881
5596.41605,0.08493
5598.34452,0.07408
5600.27299,0.06581
5602.20145,0.06760
5604.12992,0.08493
5606.05839,0.10283
5607.98686,0.09805
5609.91533,0.07850
5611.84380,0.07053
5613.77227,0.08107
5615.70074,0.09401
5617.62920,0.09848
5619.55767,0.09229
5621.48614,0.08006
5623.41461,0.08104
5625.34308,0.09580
5627.27155,0.10420
5629.20002,0.09774
5631.12848,0.08667
5633.05695,0.08730
5634.98542,0.09695
5636.91389,0.08992
5638.84236,0.06048
5640.77083,0.03928
5642.69930,0.04117
5644.62777,0.05577
5646.55623,0.06889
5648.48470,0.07363
5650.41317,0.08455
5652.34164,0.10562
5654.27011,0.12211
5656.19858,0.12019
5658.12705,0.10087
5660.05551,0.08440
5661.98398,0.08180
5663.91245,0.08323
5665.84092,0.08347
5667.76939,0.09446
5669.69786,0.10991
5671.62633,0.11169
5673.55480,0.10688
5675.48326,0.10141
5677.41173,0.09463
5679.34020,0.09088
5681.26867,0.09302
5683.19714,0.09925
5685.12561,0.09542
5687.05408,0.08112
5688.98254,0.07619
5690.91101,0.08428
5692.83948,0.09537
5694.76795,0.10264
5696.69642,0.09692
5698.62489,0.07289
5700.55336,0.04827
5702.48183,0.05085
5704.41029,0.07030
5706.33876,0.07719
5708.26723,0.07624
5710.19570,0.08490
5712.12417,0.09796
5714.05264,0.10221
5715.98111,0.10142
5717.90957,0.10866
5719.83804,0.12167
5721.76651,0.11629
5723.69498,0.08622
5725.62345,0.05925
5727.55192,0.05407
5729.48039,0.06618
5731.40886,0.08751
5733.33732,0.10510
5735.26579,0.09447
5737.19426,0.06631
5739.12273,0.06744
5741.05120,0.09552
5742.97967,0.11427
5744.90814,0.11589
5746.83660,0.10246
5748.76507,0.07508
5750.69354,0.05707
5752.62201,0.07122
5754.55048,0.10662
5756.47895,0.13333
5758.40742,0.13161
5760.33588,0.11566
5762.26435,0.10741
5764.19282,0.09400
5766.12129,0.06878
5768.04976,0.06355
5769.97823,0.08443
5771.90670,0.10417
5773.83517,0.10924
5775.76363,0.09854
5777.69210,0.07854
5779.62057,0.07435
5781.54904,0.09439
5783.47751,0.10923
5785.40598,0.10235
5787.33445,0.09188
5789.26291,0.08307
5791.19138,0.06129
5793.11985,0.04092
5795.04832,0.04918
5796.97679,0.06912
5798.90526,0.07314
5800.83373,0.07879
5802.76220,0.09623
5804.69066,0.09821
5806.61913,0.07659
5808.54760,0.05628
5810.47607,0.06070
5812.40454,0.08613
5814.33301,0.09653
5816.26148,0.07610
5818.18994,0.05097
5820.11841,0.04282
5822.04688,0.05630
5823.97535,0.09002
5825.90382,0.11197
5827.83229,0.10454
5829.76076,0.09337
5831.68923,0.08720
5833.61769,0.08226
5835.54616,0.08530
5837.47463,0.09389
5839.40310,0.10319
5841.33157,0.10852
5843.26004,0.09859
5845.18851,0.07812
5847.11697,0.07776
5849.04544,0.10586
5850.97391,0.12547
5852.90238,0.11726
5854.83085,0.10427
5856.75932,0.09546
5858.68779,0.08040
5860.61626,0.06977
5862.54472,0.07377
5864.47319,0.07646
5866.40166,0.06430
5868.33013,0.04635
5870.25860,0.03868
5872.18707,0.05007
5874.11554,0.06538
5876.04400,0.06427
5877.97247,0.06337
5879.90094,0.07744
5881.82941,0.09506
5883.75788,0.10857
5885.68635,0.11912
5887.61482,0.11353
5889.54329,0.09402
5891.47175,0.09103
5893.40022,0.09106
5895.32869,0.08595
5897.25716,0.09205
5899.18563,0.08865
5901.11410,0.07292
5903.04257,0.07516
5904.97103,0.08836
5906.89950,0.08104
5908.82797,0.06416
5910.75644,0.07599
5912.68491,0.10356
5914.61338,0.11060
5916.54185,0.10717
5918.47032,0.10583
5920.39878,0.10051
5922.32725,0.09286
5924.25572,0.08676
5926.18419,0.09039
5928.11266,0.09306
5930.04113,0.08160
5931.96960,0.06685
5933.89806,0.06251
5935.82653,0.06388
5937.75500,0.05994
5939.68347,0.06777
5941.61194,0.08061
5943.54041,0.07556
5945.46888,0.07638
5947.39734,0.09052
5949.32581,0.09698
5951.25428,0.10520
5953.18275,0.12387
5955.11122,0.12223
5957.03969,0.09672
5958.96816,0.09232
5960.89663,0.11226
5962.82509,0.12181
5964.75356,0.12754
5966.68203,0.13211
5968.61050,0.12349
5970.53897,0.10639
5972.46744,0.07886
5974.39591,0.04464
5976.32437,0.03153
5978.25284,0.05665
5980.18131,0.09431
5982.10978,0.11725
5984.03825,0.13639
5985.96672,0.15715
5987.89519,0.15611
5989.82366,0.12772
5991.75212,0.09849
5993.68059,0.08456
5995.60906,0.08458
5997.53753,0.08682
5999.46600,0.08104
6001.39447,0.06737
6003.32294,0.04918
6005.25140,0.05306
6007.17987,0.08737
6009.10834,0.11090
6011.03681,0.10529
6012.96528,0.08032
6014.89375,0.05671
6016.82222,0.07428
6018.75069,0.11352
6020.67915,0.10951
6022.60762,0.08674
6024.53609,0.09464
6026.46456,0.11568
6028.39303,0.11782
6030.32150,0.11160
6032.24997,0.11001
6034.17843,0.11195
6036.10690,0.12317
6038.03537,0.12206
6039.96384,0.09931
6041.89231,0.07237
6043.82078,0.04757
6045.74925,0.02904
6047.67772,0.01995
6049.60618,0.02095
6051.53465,0.02755
6053.46312,0.03806
6055.39159,0.05671
6057.32006,0.08078
6059.24853,0.10080
6061.17700,0.10315
6063.10546,0.09693
6065.03393,0.11537
6066.96240,0.14210
6068.89087,0.13080
6070.81934,0.09931
6072.74781,0.10053
6074.67628,0.11922
6076.60475,0.13087
6078.53321,0.15200
6080.46168,0.16697
6082.39015,0.16520
6084.31862,0.16045
6086.24709,0.14730
6088.17556,0.12380
6090.10403,0.09751
6092.03249,0.07045
6093.96096,0.05698
6095.88943,0.07886
6097.81790,0.10340
6099.74637,0.09150
6101.67484,0.07167
6103.60331,0.07462
6105.53177,0.08612
6107.46024,0.08239
6109.38871,0.06644
6111.31718,0.06377
6113.24565,0.08289
6115.17412,0.08928
6117.10259,0.06161
6119.03106,0.04495
6120.95952,0.06143
6122.88799,0.07796
6124.81646,0.08467
6126.74493,0.07896
6128.67340,0.06592
6130.60187,0.06171
6132.53034,0.06306
6134.45880,0.06994
6136.38727,0.08561
6138.31574,0.10669
6140.24421,0.12609
6142.17268,0.11587
6144.10115,0.07610
6146.02962,0.05205
6147.95809,0.05483
6149.88655,0.06155
6151.81502,0.05936
6153.74349,0.05380
6155.67196,0.05397
6157.60043,0.06680
6159.52890,0.08621
6161.45737,0.10702
6163.38583,0.13412
6165.31430,0.13567
6167.24277,0.10153
6169.17124,0.07327
6171.09971,0.06319
6173.02818,0.05822
6174.95665,0.05718
6176.88512,0.06602
6178.81358,0.06483
6180.74205,0.04956
6182.67052,0.06576
6184.59899,0.09705
6186.52746,0.10795
6188.45593,0.10942
6190.38440,0.09341
6192.31286,0.07000
6194.24133,0.06691
6196.16980,0.08290
6198.09827,0.10354
6200.02674,0.10042
6201.95521,0.06312
6203.88368,0.03846
6205.81215,0.05734
6207.74061,0.08180
6209.66908,0.09057
6211.59755,0.08468
6213.52602,0.07437
6215.45449,0.07468
6217.38296,0.07310
6219.31143,0.05584
6221.23989,0.04398
6223.16836,0.05803
6225.09683,0.07380
6227.02530,0.06546
6228.95377,0.06683
6230.88224,0.10285
6232.81071,0.11295
6234.73918,0.07404
6236.66764,0.04720
6238.59611,0.04741
6240.52458,0.06345
6242.45305,0.06918
6244.38152,0.03742
6246.30999,0.01887
6248.23846,0.06152
6250.16692,0.12477
6252.09539,0.16497
6254.02386,0.17843
6255.95233,0.15131
6257.88080,0.09220
6259.80927,0.03850
6261.73774,0.00891
6263.66621,0.00145
6265.59467,0.00862
6267.52314,0.03215
6269.45161,0.05354
6271.38008,0.06487
6273.30855,0.08300
6275.23702,0.08559
6277.16549,0.05866
6279.09395,0.04217
6281.02242,0.04476
6282.95089,0.05671
6284.87936,0.07910
6286.80783,0.10349
6288.73630,0.11387
6290.66477,0.09799
6292.59323,0.06401
6294.52170,0.03254
6296.45017,0.03419
6298.37864,0.07205
6300.30711,0.10031
6302.23558,0.08475
6304.16405,0.06707
6306.09252,0.09275
6308.02098,0.12663
6309.94945,0.14693
6311.87792,0.15381
6313.80639,0.11677
6315.73486,0.04777
6317.66333,-0.01735
6319.59180,-0.05130
6321.52026,-0.03696
6323.44873,0.00546
6325.37720,0.05501
6327.30567,0.10218
6329.23414,0.12373
6331.16261,0.13131
6333.09108,0.12262
6335.01955,0.06966
6336.94801,0.01580
6338.87648,0.00040
6340.80495,0.01292
6342.73342,0.02920
6344.66189,0.02769
6346.59036,0.02415
6348.51883,0.04221
6350.44729,0.06634
6352.37576,0.08620
6354.30423,0.09091
6356.23270,0.07262
6358.16117,0.07017
6360.08964,0.09800
6362.01811,0.13136
6363.94658,0.15822
6365.87504,0.16431
6367.80351,0.16066
6369.73198,0.16771
6371.66045,0.17832
6373.58892,0.14365
6375.51739,0.05048
6377.44586,-0.01287
6379.37432,-0.00342
6381.30279,0.02831
6383.23126,0.04615
6385.15973,0.06606
6387.08820,0.09823
6389.01667,0.13235
6390.94514,0.15433
6392.87361,0.15636
6394.80207,0.13508
6396.73054,0.09763
6398.65901,0.06929
6400.58748,0.06698
6402.51595,0.09105
6404.44442,0.12654
6406.37289,0.15599
6408.30135,0.16017
6410.22982,0.11733
6412.15829,0.06976
6414.08676,0.07418
6416.01523,0.09509
6417.94370,0.10245
6419.87217,0.10248
6421.80064,0.09651
6423.72910,0.10282
6425.65757,0.11099
6427.58604,0.09083
6429.51451,0.06405
6431.44298,0.06895
6433.37145,0.08510
6435.29992,0.07611
6437.22838,0.06135
6439.15685,0.06418
6441.08532,0.08455
6443.01379,0.10190
6444.94226,0.09152
6446.87073,0.09187
6448.79920,0.11218
6450.72766,0.09124
6452.65613,0.03972
6454.58460,0.03152
6456.51307,0.05796
6458.44154,0.05571
6460.37001,0.03364
6462.29848,0.05014
6464.22695,0.08908
6466.15541,0.08904
6468.08388,0.04042
6470.01235,-0.00916
6471.94082,0.01683
6473.86929,0.09426
6475.79776,0.14067
6477.72623,0.15475
6479.65469,0.15340
6481.58316,0.13894
6483.51163,0.10555
6485.44010,0.04573
6487.36857,-0.00481
6489.29704,-0.00641
6491.22551,0.04223
6493.15398,0.08293
6495.08244,0.07573
6497.01091,0.08375
6498.93938,0.10301
6500.86785,0.07243
6502.79632,0.04318
6504.72479,0.05479
6506.65326,0.06432
6508.58172,0.06755
6510.51019,0.06672
6512.43866,0.03325
6514.36713,-0.01356
6516.29560,-0.01430
6518.22407,0.04595
6520.15254,0.11851
6522.08101,0.15455
6524.00947,0.15773
6525.93794,0.15387
6527.86641,0.12983
6529.79488,0.09413
6531.72335,0.09021
6533.65182,0.10055
6535.58029,0.07649
6537.50875,0.03087
6539.43722,0.01199
6541.36569,0.02784
6543.29416,0.03268
6545.22263,0.03194
6547.15110,0.07417
6549.07957,0.13077
6551.00804,0.14964
6552.93650,0.15541
6554.86497,0.16268
6556.79344,0.15494
6558.72191,0.15399
6560.65038,0.15528
6562.57885,0.13118
6564.50732,0.09240
6566.43578,0.07138
6568.36425,0.08920
6570.29272,0.10027
6572.22119,0.05300
6574.14966,0.00144
6576.07813,0.00861
6578.00660,0.03860
6579.93507,0.04418
6581.86353,0.05291
6583.79200,0.06534
6585.72047,0.03089
6587.64894,-0.02303
6589.57741,-0.02084
6591.50588,0.03713
6593.43435,0.08531
6595.36281,0.08261
6597.29128,0.05838
6599.21975,0.03684
6601.14822,0.01120
6603.07669,-0.02157
6605.00516,-0.04488
6606.93363,-0.02332
6608.86210,0.02645
6610.79056,0.04452
6612.71903,0.03304
6614.64750,0.02058
6616.57597,0.01231
6618.50444,-0.01338
6620.43291,-0.04044
6622.36138,0.00468
6624.28984,0.08051
6626.21831,0.08393
6628.14678,0.04188
6630.07525,0.01147
6632.00372,0.01736
6633.93219,0.06760
6635.86066,0.09859
6637.78912,0.08107
6639.71759,0.09986
6641.64606,0.15897
6643.57453,0.19579
6645.50300,0.17605
6647.43147,0.09887
6649.35994,0.05377
6651.28841,0.09317
6653.21687,0.11711
6655.14534,0.07758
6657.07381,0.08444
6659.00228,0.14123
6660.93075,0.13147
6662.85922,0.08327
6664.78769,0.06492
6666.71615,0.08049
6668.64462,0.08781
6670.57309,0.06900
6672.50156,0.06152
6674.43003,0.05359
6676.35850,0.04314
6678.28697,0.05514
6680.21544,0.07649
6682.14390,0.10608
6684.07237,0.12977
6686.00084,0.12289
6687.92931,0.10385
6689.85778,0.09167
6691.78625,0.06814
6693.71472,0.03972
6695.64318,0.05720
6697.57165,0.12394
6699.50012,0.15650
6701.42859,0.13249
6703.35706,0.10399
6705.28553,0.08078
6707.21400,0.05126
6709.14247,0.03704
6711.07093,0.04118
6712.99940,0.04901
6714.92787,0.05123
6716.85634,0.05178
6718.78481,0.06021
6720.71328,0.07005
6722.64175,0.08735
6724.57021,0.09846
6726.49868,0.08908
6728.42715,0.08054
6730.35562,0.07098
6732.28409,0.06163
6734.21256,0.05961
6736.14103,0.04913
6738.06950,0.04645
6739.99796,0.07255
6741.92643,0.08429
6743.85490,0.05789
6745.78337,0.06232
6747.71184,0.11930
6749.64031,0.15857
6751.56878,0.14358
6753.49724,0.10102
6755.42571,0.06668
6757.35418,0.07866
6759.28265,0.13164
6761.21112,0.16511
6763.13959,0.14603
6765.06806,0.09875
6766.99653,0.07417
6768.92499,0.08936
6770.85346,0.08685
6772.78193,0.05036
6774.71040,0.03200
6776.63887,0.03407
6778.56734,0.02062
6780.49581,-0.00122
6782.42427,-0.01139
6784.35274,-0.00847
6786.28121,-0.01931
6788.20968,-0.02701
6790.13815,0.03033
6792.06662,0.10514
6793.99509,0.09750
6795.92355,0.05906
6797.85202,0.06726
6799.78049,0.09258
6801.70896,0.09661
6803.63743,0.09315
6805.56590,0.07184
6807.49437,0.04708
6809.42284,0.07307
6811.35130,0.11050
6813.27977,0.07251
6815.20824,-0.00366
6817.13671,-0.04430
6819.06518,-0.03684
6820.99365,0.01457
6822.92212,0.08450
6824.85058,0.10307
6826.77905,0.06055
6828.70752,-0.02369
6830.63599,-0.07828
6832.56446,-0.03026
6834.49293,0.06265
6836.42140,0.10009
6838.34987,0.09413
6840.27833,0.12077
6842.20680,0.13545
6844.13527,0.09732
6846.06374,0.06426
6847.99221,0.06899
6849.92068,0.06157
6851.84915,0.02688
6853.77761,0.03097
6855.70608,0.05373
6857.63455,0.03139
6859.56302,0.00743
6861.49149,-0.01174
6863.41996,-0.01945
6865.34843,0.01720
6867.27690,0.04767
6869.20536,0.04853
6871.13383,0.05453
6873.06230,0.06302
6874.99077,0.05378
6876.91924,0.04493
6878.84771,0.07536
6880.77618,0.10697
6882.70464,0.08478
6884.63311,0.05404
6886.56158,0.02792
6888.49005,0.02311
6890.41852,0.09045
6892.34699,0.13495
6894.27546,0.08652
6896.20393,0.06203
6898.13239,0.05705
6900.06086,0.01964
6901.98933,0.04009
6903.91780,0.11030
6905.84627,0.13397
6907.77474,0.08131
6909.70321,-0.00740
6911.63167,-0.05761
6913.56014,-0.03315
6915.48861,0.01555
6917.41708,0.02840
6919.34555,0.03685
6921.27402,0.08457
6923.20249,0.09467
6925.13096,0.06382
6927.05942,0.06851
6928.98789,0.11036
6930.91636,0.14516
6932.84483,0.14379
6934.77330,0.13043
6936.70177,0.13723
6938.63024,0.14826
6940.55870,0.16005
6942.48717,0.18598
6944.41564,0.19974
6946.34411,0.15482
6948.27258,0.06211
6950.20105,-0.01176
6952.12952,-0.06541
6954.05799,-0.08898
6955.98645,-0.01714
6957.91492,0.09765
6959.84339,0.14545
6961.77186,0.11481
6963.70033,0.06512
6965.62880,0.02646
6967.55727,0.00594
6969.48573,0.01324
6971.41420,0.04712
6973.34267,0.08646
6975.27114,0.06840
6977.19961,0.03652
6979.12808,0.08853
6981.05655,0.16383
6982.98501,0.14623
6984.91348,0.05328
6986.84195,0.01116
6988.77042,0.02527
6990.69889,0.03361
6992.62736,0.05160
6994.55583,0.09257
6996.48430,0.15198
6998.41276,0.20695
7000.34123,0.22196
7002.26970,0.20081
7004.19817,0.16442
7006.12664,0.11215
7008.05511,0.04385
7009.98358,0.02736
7011.91204,0.07607
7013.84051,0.10809
7015.76898,0.09081
7017.69745,0.04972
7019.62592,0.04088
7021.55439,0.12628
7023.48286,0.18853
7025.41133,0.12355
7027.33979,0.04598
7029.26826,0.01423
7031.19673,0.01363
7033.12520,0.03653
7035.05367,0.05870
7036.98214,0.09100
7038.91061,0.11508
7040.83907,0.10224
7042.76754,0.04410
7044.69601,-0.05493
7046.62448,-0.11502
7048.55295,-0.10951
7050.48142,-0.09855
7052.40989,-0.07944
7054.33836,-0.03202
7056.26682,0.02867
7058.19529,0.06272
7060.12376,0.03498
7062.05223,0.01658
7063.98070,0.09993
7065.90917,0.20129
7067.83764,0.17539
7069.76610,0.10630
7071.69457,0.17541
7073.62304,0.22032
7075.55151,0.13256
7077.47998,0.05520
7079.40845,0.03156
7081.33692,0.00379
7083.26539,-0.02377
7085.19385,-0.00523
7087.12232,0.02244
7089.05079,0.00208
7090.97926,0.00693
7092.90773,0.09266
7094.83620,0.13211
7096.76467,0.04511
7098.69313,-0.04818
7100.62160,-0.06063
7102.55007,-0.03472
7104.47854,-0.00848
7106.40701,-0.02598
7108.33548,-0.02512
7110.26395,0.01759
7112.19242,0.03059
7114.12088,0.00483
7116.04935,-0.02185
7117.97782,-0.00086
7119.90629,0.03360
7121.83476,0.04461
7123.76323,0.07904
7125.69170,0.07453
7127.62016,-0.00637
7129.54863,-0.03504
7131.47710,0.03392
7133.40557,0.13190
7135.33404,0.21236
7137.26251,0.24547
7139.19098,0.17000
7141.11944,0.01786
7143.04791,-0.07867
7144.97638,-0.15391
7146.90485,-0.19763
7148.83332,-0.06510
7150.76179,0.16191
7152.69026,0.26811
7154.61873,0.17306
7156.54719,0.10162
7158.47566,0.13798
7160.40413,0.13617
7162.33260,0.08235
7164.26107,0.05888
7166.18954,0.03674
7168.11801,0.01133
7170.04647,0.05196
7171.97494,0.10633
7173.90341,0.09116
7175.83188,0.05978
7177.76035,0.10041
7179.68882,0.18405
7181.61729,0.24709
7183.54576,0.24379
7185.47422,0.12466
7187.40269,0.00347
7189.33116,-0.00716
7191.25963,0.04266
7193.18810,0.06342
7195.11657,0.06079
7197.04504,0.05229
7198.97350,0.04050
7200.90197,0.07138
7202.83044,0.17183
7204.75891,0.23347
7206.68738,0.16846
7208.61585,0.11698
7210.54432,0.10789
7212.47279,0.08770
7214.40125,0.04449
7216.32972,0.01922
7218.25819,0.09816
7220.18666,0.22123
7222.11513,0.24746
7224.04360,0.16428
7225.97207,0.02472
7227.90053,-0.03134
7229.82900,0.06577
7231.75747,0.18746
7233.68594,0.15383
7235.61441,0.04078
7237.54288,-0.00466
7239.47135,0.04978
7241.39982,0.11241
7243.32828,0.08869
7245.25675,0.02350
7247.18522,0.01649
7249.11369,0.02199
7251.04216,-0.00967
7252.97063,-0.01470
7254.89910,0.05324
7256.82756,0.10720
7258.75603,0.10192
7260.68450,0.05970
7262.61297,0.02793
7264.54144,0.00043
7266.46991,-0.01080
7268.39838,0.01352
7270.32685,0.07031
7272.25531,0.09161
7274.18378,0.06356
7276.11225,0.07961
7278.04072,0.14515
7279.96919,0.21595
7281.89766,0.20999
7283.82613,0.15263
7285.75459,0.05629
7287.68306,-0.06512
7289.61153,-0.12005
7291.54000,-0.10099
7293.46847,-0.06291
7295.39694,0.00988
7297.32541,0.07739
7299.25387,0.06837
7301.18234,0.00612
7303.11081,-0.04183
7305.03928,-0.01026
7306.96775,0.11563
7308.89622,0.18182
7310.82469,0.06995
7312.75316,0.00012
7314.68162,0.11601
7316.61009,0.27603
7318.53856,0.27762
7320.46703,0.24040
7322.39550,0.20791
7324.32397,0.10308
7326.25244,-0.01190
7328.18090,-0.07734
7330.10937,-0.06226
7332.03784,0.02591
7333.96631,0.06747
7335.89478,0.03023
7337.82325,-0.00163
7339.75172,0.00197
7341.68019,0.00154
7343.60865,0.06501
7345.53712,0.20691
7347.46559,0.23637
7349.39406,0.11472
7351.32253,0.01618
7353.25100,-0.02804
7355.17947,-0.07083
7357.10793,-0.12886
7359.03640,-0.16811
7360.96487,-0.12771
7362.89334,-0.00327
7364.82181,0.06246
7366.75028,-0.00639
7368.67875,-0.00709
7370.60722,0.13207
7372.53568,0.29123
7374.46415,0.39748
7376.39262,0.26975
7378.32109,0.05959
7380.24956,-0.01356
7382.17803,0.07730
7384.10650,0.18011
7386.03496,0.12405
7387.96343,0.02792
7389.89190,0.00861
7391.82037,0.01374
7393.74884,0.06090
7395.67731,0.12647
7397.60578,0.12095
7399.53425,0.04286
7401.46271,-0.03485
7403.39118,-0.02263
7405.31965,0.06775
7407.24812,0.12785
7409.17659,0.14251
7411.10506,0.08907
7413.03353,-0.00316
7414.96199,-0.04447
7416.89046,-0.03649
7418.81893,0.03422
7420.74740,0.22557
7422.67587,0.35534
7424.60434,0.31532
7426.53281,0.22467
7428.46128,0.21595
7430.38974,0.26459
7432.31821,0.25271
7434.24668,0.16188
7436.17515,0.02207
7438.10362,-0.07940
7440.03209,-0.05528
7441.96056,0.04594
7443.88902,0.05906
7445.81749,-0.03086
7447.74596,-0.04443
7449.67443,0.06421
7451.60290,0.13034
7453.53137,0.09400
7455.45984,0.06807
7457.38831,0.06593
7459.31677,0.00868
7461.24524,-0.06521
7463.17371,-0.01687
7465.10218,0.05801
7467.03065,0.05398
7468.95912,0.01433
7470.88759,-0.00146
7472.81605,0.05159
7474.74452,0.12663
7476.67299,0.14290
7478.60146,0.08795
7480.52993,0.01899
7482.45840,-0.06927
7484.38687,-0.11930
7486.31533,-0.05841
7488.24380,0.01687
7490.17227,0.06973
7492.10074,0.14912
7494.02921,0.17151
7495.95768,0.12046
7497.88615,0.10078
