399.19301,0.40433
401.12148,0.37173
403.04995,0.33181
404.97842,0.24347
406.90689,0.17266
408.83536,0.14522
410.76382,0.16879
412.69229,0.19894
414.62076,0.18254
416.54923,0.13785
418.47770,0.12071
420.40617,0.16443
422.33464,0.21293
424.26311,0.22102
426.19157,0.15106
428.12004,0.08075
430.04851,0.05751
431.97698,0.03418
433.90545,0.05840
435.83392,0.15019
437.76239,0.21143
439.69085,0.20474
441.61932,0.15312
443.54779,0.09314
445.47626,0.08220
447.40473,0.09654
449.33320,0.07749
451.26167,0.07182
453.19013,0.09291
455.11860,0.07350
457.04707,0.03899
458.97554,0.06959
460.90401,0.11425
462.83248,0.13416
464.76095,0.15345
466.68942,0.12600
468.61788,0.05144
470.54635,0.03564
472.47482,0.08838
474.40329,0.09558
476.33176,0.10455
478.26023,0.14732
480.18870,0.16168
482.11716,0.14836
484.04563,0.14057
485.97410,0.13827
487.90257,0.12695
489.83104,0.10447
491.75951,0.08126
493.68798,0.08041
495.61645,0.09966
497.54491,0.10982
499.47338,0.11358
501.40185,0.12330
503.33032,0.11936
505.25879,0.11161
507.18726,0.12411
509.11573,0.13143
511.04419,0.11250
512.97266,0.10050
514.90113,0.11946
516.82960,0.14020
518.75807,0.14159
520.68654,0.14531
522.61501,0.15479
524.54348,0.14406
526.47194,0.11057
528.40041,0.08773
530.32888,0.08844
532.25735,0.08999
534.18582,0.07704
536.11429,0.07554
538.04276,0.09853
539.97122,0.12026
541.89969,0.12748
543.82816,0.12525
545.75663,0.11220
547.68510,0.08328
549.61357,0.05645
551.54204,0.06217
553.47051,0.08625
555.39897,0.09109
557.32744,0.07963
559.25591,0.07670
561.18438,0.09772
563.11285,0.13148
565.04132,0.14728
566.96979,0.14332
568.89825,0.13257
570.82672,0.12031
572.75519,0.11971
574.68366,0.13308
576.61213,0.13271
578.54060,0.11739
580.46907,0.11048
582.39754,0.10605
584.32600,0.09992
586.25447,0.09665
588.18294,0.09307
590.11141,0.09935
592.03988,0.11643
593.96835,0.12068
595.89682,0.11065
597.82528,0.10570
599.75375,0.10506
601.68222,0.09940
603.61069,0.09321
605.53916,0.09420
607.46763,0.10571
609.39610,0.12195
611.32456,0.13473
613.25303,0.13926
615.18150,0.12976
617.10997,0.11487
619.03844,0.11072
620.96691,0.11378
622.89538,0.11152
624.82385,0.11074
626.75231,0.12084
628.68078,0.12459
630.60925,0.11750
632.53772,0.12049
634.46619,0.12765
636.39466,0.12691
638.32313,0.13323
640.25159,0.14453
642.18006,0.14591
644.10853,0.14428
646.03700,0.13682
647.96547,0.12094
649.89394,0.11325
651.82241,0.11402
653.75088,0.11386
655.67934,0.11145
657.60781,0.11068
659.53628,0.11261
661.46475,0.11432
663.39322,0.12335
665.32169,0.14267
667.25016,0.16720
669.17862,0.18061
671.10709,0.17937
673.03556,0.17912
674.96403,0.17107
676.89250,0.15207
678.82097,0.13490
680.74944,0.12717
682.67791,0.12711
684.60637,0.13152
686.53484,0.13570
688.46331,0.13269
690.39178,0.12744
692.32025,0.13116
694.24872,0.14342
696.17719,0.15202
698.10565,0.14717
700.03412,0.13838
701.96259,0.13960
703.89106,0.14449
705.81953,0.14538
707.74800,0.14381
709.67647,0.12316
711.60494,0.09045
713.53340,0.09074
715.46187,0.11820
717.39034,0.13153
719.31881,0.12952
721.24728,0.12911
723.17575,0.13263
725.10422,0.13284
727.03268,0.12849
728.96115,0.12531
730.88962,0.12547
732.81809,0.12827
734.74656,0.13325
736.67503,0.13827
738.60350,0.13988
740.53197,0.13585
742.46043,0.13063
744.38890,0.13315
746.31737,0.14028
748.24584,0.14437
750.17431,0.14751
752.10278,0.14567
754.03125,0.13760
755.95971,0.13233
757.88818,0.12968
759.81665,0.12853
761.74512,0.13145
763.67359,0.13438
765.60206,0.13605
767.53053,0.13984
769.45900,0.14206
771.38746,0.13899
773.31593,0.13403
775.24440,0.13081
777.17287,0.13176
779.10134,0.13730
781.02981,0.13937
782.95828,0.13215
784.88674,0.13102
786.81521,0.13994
788.74368,0.13854
790.67215,0.13385
792.60062,0.14064
794.52909,0.14575
796.45756,0.14319
798.38602,0.14336
800.31449,0.14525
802.24296,0.14250
804.17143,0.13710
806.09990,0.13161
808.02837,0.12816
809.95684,0.12993
811.88531,0.13132
813.81377,0.12653
815.74224,0.12635
817.67071,0.13602
819.59918,0.14036
821.52765,0.13709
823.45612,0.13631
825.38459,0.13463
827.31305,0.12921
829.24152,0.12527
831.16999,0.12499
833.09846,0.12845
835.02693,0.13375
836.95540,0.13922
838.88387,0.14368
840.81234,0.14611
842.74080,0.14562
844.66927,0.14106
846.59774,0.13767
848.52621,0.13869
850.45468,0.13997
852.38315,0.13934
854.31162,0.13858
856.24008,0.13956
858.16855,0.13761
860.09702,0.13076
862.02549,0.13154
863.95396,0.14020
865.88243,0.14466
867.81090,0.16106
869.73937,0.18286
871.66783,0.16857
873.59630,0.13816
875.52477,0.12931
877.45324,0.13193
879.38171,0.13642
881.31018,0.13974
883.23865,0.13958
885.16711,0.14089
887.09558,0.14197
889.02405,0.14124
890.95252,0.14325
892.88099,0.14579
894.80946,0.14660
896.73793,0.15051
898.66640,0.15513
900.59486,0.15443
902.52333,0.15096
904.45180,0.14912
906.38027,0.14745
908.30874,0.14684
910.23721,0.14874
912.16568,0.14875
914.09414,0.14767
916.02261,0.14726
917.95108,0.14638
919.87955,0.14767
921.80802,0.14958
923.73649,0.14930
925.66496,0.15085
927.59343,0.15644
929.52189,0.16115
931.45036,0.16169
933.37883,0.16127
935.30730,0.15982
937.23577,0.15264
939.16424,0.14379
941.09271,0.14211
943.02117,0.14711
944.94964,0.15304
946.87811,0.15622
948.80658,0.15616
950.73505,0.15489
952.66352,0.15397
954.59199,0.15449
956.52045,0.15589
958.44892,0.15482
960.37739,0.15068
962.30586,0.14896
964.23433,0.15036
966.16280,0.14897
968.09127,0.14542
970.01974,0.14277
971.94820,0.14374
973.87667,0.15063
975.80514,0.15684
977.73361,0.15637
979.66208,0.15237
981.59055,0.14886
983.51902,0.14738
985.44748,0.15130
987.37595,0.15935
989.30442,0.16239
991.23289,0.15709
993.16136,0.15069
995.08983,0.15173
997.01830,0.15773
998.94677,0.15790
1000.87523,0.15160
1002.80370,0.14990
1004.73217,0.15743
1006.66064,0.16281
1008.58911,0.15728
1010.51758,0.15005
1012.44605,0.14997
1014.37451,0.15190
1016.30298,0.15218
1018.23145,0.15554
1020.15992,0.16112
1022.08839,0.16156
1024.01686,0.15700
1025.94533,0.14983
1027.87380,0.14296
1029.80226,0.14361
1031.73073,0.14998
1033.65920,0.15617
1035.58767,0.16008
1037.51614,0.16166
1039.44461,0.16272
1041.37308,0.16242
1043.30154,0.15913
1045.23001,0.15443
1047.15848,0.15181
1049.08695,0.15268
1051.01542,0.15842
1052.94389,0.16591
1054.87236,0.16699
1056.80083,0.16351
1058.72929,0.16427
1060.65776,0.17148
1062.58623,0.17687
1064.51470,0.17433
1066.44317,0.16910
1068.37164,0.16710
1070.30011,0.16874
1072.22857,0.17215
1074.15704,0.17478
1076.08551,0.17458
1078.01398,0.17112
1079.94245,0.16569
1081.87092,0.16291
1083.79939,0.16543
1085.72786,0.16893
1087.65632,0.16703
1089.58479,0.16109
1091.51326,0.15991
1093.44173,0.16338
1095.37020,0.16615
1097.29867,0.16996
1099.22714,0.17532
1101.15560,0.17519
1103.08407,0.16753
1105.01254,0.16365
1106.94101,0.16768
1108.86948,0.17231
1110.79795,0.17456
1112.72642,0.17255
1114.65489,0.16480
1116.58335,0.15638
1118.51182,0.15585
1120.44029,0.16509
1122.36876,0.17483
1124.29723,0.17709
1126.22570,0.17291
1128.15417,0.16737
1130.08263,0.16428
1132.01110,0.16285
1133.93957,0.16045
1135.86804,0.15897
1137.79651,0.16183
1139.72498,0.16596
1141.65345,0.16783
1143.58191,0.16722
1145.51038,0.16381
1147.43885,0.16235
1149.36732,0.16635
1151.29579,0.17081
1153.22426,0.17172
1155.15273,0.17023
1157.08120,0.16915
1159.00966,0.16863
1160.93813,0.16840
1162.86660,0.17098
1164.79507,0.17492
1166.72354,0.17473
1168.65201,0.16948
1170.58048,0.16612
1172.50894,0.16859
1174.43741,0.17067
1176.36588,0.16913
1178.29435,0.16823
1180.22282,0.16840
1182.15129,0.16656
1184.07976,0.16570
1186.00823,0.16935
1187.93669,0.17093
1189.86516,0.16547
1191.79363,0.15900
1193.72210,0.15780
1195.65057,0.16252
1197.57904,0.16842
1199.50751,0.16951
1201.43597,0.16725
1203.36444,0.16743
1205.29291,0.17067
1207.22138,0.17166
1209.14985,0.16903
1211.07832,0.16883
1213.00679,0.17165
1214.93526,0.17154
1216.86372,0.16930
1218.79219,0.16897
1220.72066,0.16896
1222.64913,0.16944
1224.57760,0.17250
1226.50607,0.17452
1228.43454,0.17254
1230.36300,0.16980
1232.29147,0.17039
1234.21994,0.17275
1236.14841,0.17278
1238.07688,0.17234
1240.00535,0.17361
1241.93382,0.17482
1243.86229,0.17516
1245.79075,0.17536
1247.71922,0.17621
1249.64769,0.17706
1251.57616,0.17740
1253.50463,0.17688
1255.43310,0.17587
1257.36157,0.17540
1259.29003,0.17493
1261.21850,0.17429
1263.14697,0.17277
1265.07544,0.17176
1267.00391,0.17372
1268.93238,0.17552
1270.86085,0.17557
1272.78932,0.17626
1274.71778,0.17767
1276.64625,0.17861
1278.57472,0.17909
1280.50319,0.17888
1282.43166,0.17854
1284.36013,0.18026
1286.28860,0.18284
1288.21706,0.18331
1290.14553,0.18298
1292.07400,0.18276
1294.00247,0.18102
1295.93094,0.17908
1297.85941,0.17825
1299.78788,0.17781
1301.71634,0.17799
1303.64481,0.17961
1305.57328,0.18286
1307.50175,0.18477
1309.43022,0.18284
1311.35869,0.18041
1313.28716,0.18037
1315.21563,0.18136
1317.14409,0.18359
1319.07256,0.18648
1321.00103,0.18621
1322.92950,0.18333
1324.85797,0.18095
1326.78644,0.18008
1328.71491,0.18054
1330.64337,0.18132
1332.57184,0.18077
1334.50031,0.17903
1336.42878,0.17943
1338.35725,0.18350
1340.28572,0.18188
1342.21419,0.16668
1344.14266,0.15458
1346.07112,0.16077
1347.99959,0.17464
1349.92806,0.18295
1351.85653,0.18624
1353.78500,0.18693
1355.71347,0.18701
1357.64194,0.18711
1359.57040,0.18775
1361.49887,0.18986
1363.42734,0.18913
1365.35581,0.18437
1367.28428,0.18074
1369.21275,0.18082
1371.14122,0.18489
1373.06969,0.19083
1374.99815,0.19360
1376.92662,0.19146
1378.85509,0.18902
1380.78356,0.18807
1382.71203,0.18763
1384.64050,0.18921
1386.56897,0.19185
1388.49743,0.19094
1390.42590,0.18992
1392.35437,0.19332
1394.28284,0.19873
1396.21131,0.20139
1398.13978,0.19978
1400.06825,0.19563
1401.99672,0.19388
1403.92518,0.19534
1405.85365,0.19398
1407.78212,0.18918
1409.71059,0.18671
1411.63906,0.18772
1413.56753,0.19056
1415.49600,0.19596
1417.42446,0.20290
1419.35293,0.20151
1421.28140,0.19413
1423.20987,0.19161
1425.13834,0.19072
1427.06681,0.19042
1428.99528,0.19234
1430.92375,0.19440
1432.85221,0.19700
1434.78068,0.20179
1436.70915,0.20414
1438.63762,0.20002
1440.56609,0.19495
1442.49456,0.19112
1444.42303,0.19107
1446.35149,0.19635
1448.27996,0.20103
1450.20843,0.20116
1452.13690,0.20355
1454.06537,0.21285
1455.99384,0.22413
1457.92231,0.21946
1459.85077,0.20594
1461.77924,0.20080
1463.70771,0.20073
1465.63618,0.20101
1467.56465,0.20067
1469.49312,0.20476
1471.42159,0.21563
1473.35006,0.22261
1475.27852,0.21477
1477.20699,0.20360
1479.13546,0.19736
1481.06393,0.19552
1482.99240,0.19573
1484.92087,0.19966
1486.84934,0.20768
1488.77780,0.21358
1490.70627,0.21064
1492.63474,0.20581
1494.56321,0.20596
1496.49168,0.20947
1498.42015,0.20721
1500.34862,0.19763
1502.27709,0.19095
1504.20555,0.19385
1506.13402,0.21269
1508.06249,0.22882
1509.99096,0.22015
1511.91943,0.21039
1513.84790,0.20897
1515.77637,0.21777
1517.70483,0.22887
1519.63330,0.23537
1521.56177,0.23902
1523.49024,0.23490
1525.41871,0.22697
1527.34718,0.21714
1529.27565,0.20961
1531.20412,0.21217
1533.13258,0.22015
1535.06105,0.22109
1536.98952,0.22396
1538.91799,0.24034
1540.84646,0.25314
1542.77493,0.23973
1544.70340,0.22195
1546.63186,0.21021
1548.56033,0.20864
1550.48880,0.21184
1552.41727,0.21333
1554.34574,0.21496
1556.27421,0.22103
1558.20268,0.23280
1560.13115,0.22672
1562.05961,0.21427
1563.98808,0.21063
1565.91655,0.20995
1567.84502,0.21142
1569.77349,0.21282
1571.70196,0.20822
1573.63043,0.20615
1575.55889,0.21091
1577.48736,0.21001
1579.41583,0.20105
1581.34430,0.19445
1583.27277,0.19295
1585.20124,0.19415
1587.12971,0.19502
1589.05818,0.19543
1590.98664,0.19631
1592.91511,0.19906
1594.84358,0.20182
1596.77205,0.20077
1598.70052,0.19830
1600.62899,0.19826
1602.55746,0.19943
1604.48592,0.19923
1606.41439,0.19909
1608.34286,0.19982
1610.27133,0.19917
1612.19980,0.19912
1614.12827,0.20375
1616.05674,0.21155
1617.98521,0.21255
1619.91367,0.20953
1621.84214,0.20991
1623.77061,0.21030
1625.69908,0.21034
1627.62755,0.21157
1629.55602,0.20943
1631.48449,0.20773
1633.41295,0.21396
1635.34142,0.22592
1637.26989,0.22508
1639.19836,0.21613
1641.12683,0.21206
1643.05530,0.21393
1644.98377,0.22281
1646.91223,0.23449
1648.84070,0.23329
1650.76917,0.22923
1652.69764,0.23098
1654.62611,0.22579
1656.55458,0.21693
1658.48305,0.21361
1660.41152,0.21621
1662.33998,0.22017
1664.26845,0.21916
1666.19692,0.21978
1668.12539,0.22750
1670.05386,0.23088
1671.98233,0.22296
1673.91080,0.21816
1675.83926,0.21745
1677.76773,0.21637
1679.69620,0.21656
1681.62467,0.22059
1683.55314,0.22869
1685.48161,0.22730
1687.41008,0.21841
1689.33855,0.21331
1691.26701,0.21174
1693.19548,0.21449
1695.12395,0.22342
1697.05242,0.23274
1698.98089,0.23490
1700.90936,0.23034
1702.83783,0.22644
1704.76629,0.22564
1706.69476,0.21999
1708.62323,0.21034
1710.55170,0.20536
1712.48017,0.20826
1714.40864,0.21913
1716.33711,0.23163
1718.26558,0.22693
1720.19404,0.21135
1722.12251,0.20264
1724.05098,0.20112
1725.97945,0.20270
1727.90792,0.20640
1729.83639,0.21210
1731.76486,0.21822
1733.69332,0.22102
1735.62179,0.21442
1737.55026,0.20903
1739.47873,0.20964
1741.40720,0.21151
1743.33567,0.21082
1745.26414,0.21020
1747.19261,0.21326
1749.12107,0.21689
1751.04954,0.21356
1752.97801,0.20701
1754.90648,0.20401
1756.83495,0.20377
1758.76342,0.20463
1760.69189,0.20627
1762.62035,0.20582
1764.54882,0.20373
1766.47729,0.20502
1768.40576,0.20964
1770.33423,0.21426
1772.26270,0.21610
1774.19117,0.21243
1776.11964,0.20753
1778.04810,0.20625
1779.97657,0.20725
1781.90504,0.20532
1783.83351,0.20135
1785.76198,0.19929
1787.69045,0.20058
1789.61892,0.20571
1791.54738,0.21129
1793.47585,0.21057
1795.40432,0.20717
1797.33279,0.20739
1799.26126,0.21059
1801.18973,0.21070
1803.11820,0.20564
1805.04666,0.20188
1806.97513,0.20116
1808.90360,0.20054
1810.83207,0.19950
1812.76054,0.19805
1814.68901,0.19782
1816.61748,0.20153
1818.54595,0.20590
1820.47441,0.20621
1822.40288,0.20521
1824.33135,0.20562
1826.25982,0.20609
1828.18829,0.20800
1830.11676,0.20998
1832.04523,0.20772
1833.97369,0.20533
1835.90216,0.20548
1837.83063,0.20497
1839.75910,0.20371
1841.68757,0.20572
1843.61604,0.21011
1845.54451,0.21019
1847.47298,0.20615
1849.40144,0.20240
1851.32991,0.19999
1853.25838,0.19910
1855.18685,0.19961
1857.11532,0.19996
1859.04379,0.19925
1860.97226,0.19957
1862.90072,0.20188
1864.82919,0.20588
1866.75766,0.21250
1868.68613,0.21700
1870.61460,0.21147
1872.54307,0.20185
1874.47154,0.19570
1876.40001,0.19380
1878.32847,0.19448
1880.25694,0.19620
1882.18541,0.19764
1884.11388,0.19885
1886.04235,0.20051
1887.97082,0.20311
1889.89929,0.20566
1891.82775,0.20628
1893.75622,0.20527
1895.68469,0.20374
1897.61316,0.20256
1899.54163,0.20119
1901.47010,0.19923
1903.39857,0.19872
1905.32704,0.20086
1907.25550,0.20413
1909.18397,0.20584
1911.11244,0.20421
1913.04091,0.20160
1914.96938,0.20131
1916.89785,0.20242
1918.82632,0.20327
1920.75478,0.20457
1922.68325,0.20448
1924.61172,0.20174
1926.54019,0.19953
1928.46866,0.19807
1930.39713,0.19691
1932.32560,0.19853
1934.25407,0.20194
1936.18253,0.20286
1938.11100,0.20102
1940.03947,0.20066
1941.96794,0.20388
1943.89641,0.20659
1945.82488,0.20457
1947.75335,0.20017
1949.68181,0.19816
1951.61028,0.20000
1953.53875,0.20290
1955.46722,0.20339
1957.39569,0.20213
1959.32416,0.20238
1961.25263,0.20349
1963.18110,0.20373
1965.10956,0.20467
1967.03803,0.20589
1968.96650,0.20537
1970.89497,0.20476
1972.82344,0.20535
1974.75191,0.20658
1976.68038,0.20798
1978.60884,0.20731
1980.53731,0.20416
1982.46578,0.20291
1984.39425,0.20462
1986.32272,0.20539
1988.25119,0.20405
1990.17966,0.20241
1992.10812,0.20090
1994.03659,0.19937
1995.96506,0.19918
1997.89353,0.20029
1999.82200,0.20040
2001.75047,0.19935
2003.67894,0.19948
2005.60741,0.20048
2007.53587,0.20001
2009.46434,0.19959
2011.39281,0.20161
2013.32128,0.20402
2015.24975,0.20531
2017.17822,0.20591
2019.10669,0.20465
2021.03515,0.20273
2022.96362,0.20224
2024.89209,0.20217
2026.82056,0.20179
2028.74903,0.20149
2030.67750,0.20192
2032.60597,0.20293
2034.53444,0.20305
2036.46290,0.20294
2038.39137,0.20351
2040.31984,0.20261
2042.24831,0.20058
2044.17678,0.19972
2046.10525,0.19912
2048.03372,0.19827
2049.96218,0.19834
2051.89065,0.19922
2053.81912,0.20014
2055.74759,0.20115
2057.67606,0.20207
2059.60453,0.20144
2061.53300,0.19934
2063.46147,0.19857
2065.38993,0.20022
2067.31840,0.20184
2069.24687,0.20311
2071.17534,0.20500
2073.10381,0.20517
2075.03228,0.20294
2076.96075,0.20149
2078.88921,0.20242
2080.81768,0.20333
2082.74615,0.20240
2084.67462,0.20214
2086.60309,0.20366
2088.53156,0.20415
2090.46003,0.20352
2092.38850,0.20429
2094.31696,0.20578
2096.24543,0.20520
2098.17390,0.20299
2100.10237,0.20206
2102.03084,0.20271
2103.95931,0.20298
2105.88778,0.20261
2107.81624,0.20299
2109.74471,0.20354
2111.67318,0.20267
2113.60165,0.20111
2115.53012,0.20065
2117.45859,0.20179
2119.38706,0.20350
2121.31553,0.20477
2123.24399,0.20624
2125.17246,0.20788
2127.10093,0.20717
2129.02940,0.20446
2130.95787,0.20315
2132.88634,0.20297
2134.81481,0.20217
2136.74327,0.20234
2138.67174,0.20482
2140.60021,0.20695
2142.52868,0.20662
2144.45715,0.20525
2146.38562,0.20407
2148.31409,0.20369
2150.24255,0.20470
2152.17102,0.20591
2154.09949,0.20605
2156.02796,0.20531
2157.95643,0.20348
2159.88490,0.20188
2161.81337,0.20287
2163.74184,0.20470
2165.67030,0.20505
2167.59877,0.20470
2169.52724,0.20429
2171.45571,0.20477
2173.38418,0.20647
2175.31265,0.20761
2177.24112,0.20752
2179.16958,0.20684
2181.09805,0.20629
2183.02652,0.20577
2184.95499,0.20397
2186.88346,0.20228
2188.81193,0.20332
2190.74040,0.20627
2192.66887,0.20844
2194.59733,0.20814
2196.52580,0.20615
2198.45427,0.20517
2200.38274,0.20636
2202.31121,0.20747
2204.23968,0.20686
2206.16815,0.20574
2208.09661,0.20477
2210.02508,0.20349
2211.95355,0.20307
2213.88202,0.20461
2215.81049,0.20604
2217.73896,0.20560
2219.66743,0.20503
2221.59590,0.20494
2223.52436,0.20351
2225.45283,0.20255
2227.38130,0.20399
2229.30977,0.20562
2231.23824,0.20649
2233.16671,0.20725
2235.09518,0.20738
2237.02364,0.20675
2238.95211,0.20601
2240.88058,0.20493
2242.80905,0.20485
2244.73752,0.20697
2246.66599,0.20752
2248.59446,0.20492
2250.52293,0.20307
2252.45139,0.20386
2254.37986,0.20526
2256.30833,0.20556
2258.23680,0.20563
2260.16527,0.20668
2262.09374,0.20759
2264.02221,0.20680
2265.95067,0.20604
2267.87914,0.20669
2269.80761,0.20657
2271.73608,0.20501
2273.66455,0.20424
2275.59302,0.20552
2277.52149,0.20740
2279.44996,0.20740
2281.37842,0.20621
2283.30689,0.20544
2285.23536,0.20392
2287.16383,0.20155
2289.09230,0.20147
2291.02077,0.20534
2292.94924,0.20797
2294.87770,0.20543
2296.80617,0.20356
2298.73464,0.20524
2300.66311,0.20598
2302.59158,0.20451
2304.52005,0.20247
2306.44852,0.20042
2308.37699,0.19925
2310.30545,0.19936
2312.23392,0.19942
2314.16239,0.19959
2316.09086,0.20022
2318.01933,0.19983
2319.94780,0.20003
2321.87627,0.20316
2323.80473,0.20481
2325.73320,0.20031
2327.66167,0.19402
2329.59014,0.19052
2331.51861,0.18784
2333.44708,0.18921
2335.37555,0.19746
2337.30401,0.20263
2339.23248,0.20220
2341.16095,0.20374
2343.08942,0.20505
2345.01789,0.20526
2346.94636,0.20673
2348.87483,0.20734
2350.80330,0.20419
2352.73176,0.19302
2354.66023,0.17984
2356.58870,0.18434
2358.51717,0.20462
2360.44564,0.21652
2362.37411,0.21558
2364.30258,0.21426
2366.23104,0.21421
2368.15951,0.21077
2370.08798,0.20706
2372.01645,0.20590
2373.94492,0.20329
2375.87339,0.20128
2377.80186,0.20372
2379.73033,0.20606
2381.65879,0.20447
2383.58726,0.20204
2385.51573,0.20262
2387.44420,0.20443
2389.37267,0.20398
2391.30114,0.20265
2393.22961,0.20312
2395.15807,0.20543
2397.08654,0.20667
2399.01501,0.20515
2400.94348,0.20459
2402.87195,0.20668
2404.80042,0.20803
2406.72889,0.20773
2408.65736,0.20690
2410.58582,0.20616
2412.51429,0.20667
2414.44276,0.20725
2416.37123,0.20626
2418.29970,0.20526
2420.22817,0.20617
2422.15664,0.20820
2424.08510,0.20868
2426.01357,0.20684
2427.94204,0.20512
2429.87051,0.20516
2431.79898,0.20554
2433.72745,0.20551
2435.65592,0.20572
2437.58439,0.20610
2439.51285,0.20638
2441.44132,0.20618
2443.36979,0.20611
2445.29826,0.20711
2447.22673,0.20856
2449.15520,0.20952
2451.08367,0.20848
2453.01213,0.20591
2454.94060,0.20473
2456.86907,0.20523
2458.79754,0.20607
2460.72601,0.20653
2462.65448,0.20662
2464.58295,0.20679
2466.51142,0.20715
2468.43988,0.20803
2470.36835,0.20797
2472.29682,0.20649
2474.22529,0.20578
2476.15376,0.20569
2478.08223,0.20598
2480.01070,0.20795
2481.93916,0.20947
2483.86763,0.20837
2485.79610,0.20661
2487.72457,0.20550
2489.65304,0.20439
2491.58151,0.20355
2493.50998,0.20441
2495.43844,0.20719
2497.36691,0.20908
2499.29538,0.20829
2501.22385,0.20621
2503.15232,0.20539
2505.08079,0.20703
2507.00926,0.20875
2508.93773,0.20873
2510.86619,0.20860
2512.79466,0.20872
2514.72313,0.20752
2516.65160,0.20584
2518.58007,0.20556
2520.50854,0.20622
2522.43701,0.20726
2524.36547,0.20898
2526.29394,0.21021
2528.22241,0.20970
2530.15088,0.20865
2532.07935,0.20901
2534.00782,0.20956
2535.93629,0.20839
2537.86476,0.20772
2539.79322,0.20843
2541.72169,0.20823
2543.65016,0.20805
2545.57863,0.20809
2547.50710,0.20651
2549.43557,0.20509
2551.36404,0.20574
2553.29250,0.20794
2555.22097,0.21043
2557.14944,0.21099
2559.07791,0.20928
2561.00638,0.20750
2562.93485,0.20762
2564.86332,0.20945
2566.79179,0.21070
2568.72025,0.21052
2570.64872,0.21034
2572.57719,0.21048
2574.50566,0.20997
2576.43413,0.20877
2578.36260,0.20708
2580.29107,0.20604
2582.21953,0.20732
2584.14800,0.20967
2586.07647,0.21130
2588.00494,0.21178
2589.93341,0.21030
2591.86188,0.20831
2593.79035,0.20792
2595.71882,0.20810
2597.64728,0.20763
2599.57575,0.20661
2601.50422,0.20663
2603.43269,0.20914
2605.36116,0.21252
2607.28963,0.21378
2609.21810,0.21328
2611.14656,0.21328
2613.07503,0.21202
2615.00350,0.20942
2616.93197,0.20887
2618.86044,0.20989
2620.78891,0.21073
2622.71738,0.21156
2624.64585,0.21320
2626.57431,0.21435
2628.50278,0.21341
2630.43125,0.21259
2632.35972,0.21254
2634.28819,0.21191
2636.21666,0.21177
2638.14513,0.21190
2640.07359,0.21165
2642.00206,0.21222
2643.93053,0.21253
2645.85900,0.21153
2647.78747,0.21160
2649.71594,0.21332
2651.64441,0.21402
2653.57288,0.21319
2655.50134,0.21274
2657.42981,0.21382
2659.35828,0.21537
2661.28675,0.21526
2663.21522,0.21427
2665.14369,0.21352
2667.07216,0.21285
2669.00062,0.21302
2670.92909,0.21362
2672.85756,0.21433
2674.78603,0.21437
2676.71450,0.21253
2678.64297,0.21192
2680.57144,0.21486
2682.49990,0.21694
2684.42837,0.21511
2686.35684,0.21416
2688.28531,0.21655
2690.21378,0.21780
2692.14225,0.21693
2694.07072,0.21688
2695.99919,0.21728
2697.92765,0.21746
2699.85612,0.21960
2701.78459,0.22248
2703.71306,0.22248
2705.64153,0.22073
2707.57000,0.21961
2709.49847,0.21892
2711.42693,0.21816
2713.35540,0.21761
2715.28387,0.21757
2717.21234,0.21722
2719.14081,0.21630
2721.06928,0.21682
2722.99775,0.21951
2724.92622,0.22131
2726.85468,0.22060
2728.78315,0.21866
2730.71162,0.21764
2732.64009,0.21937
2734.56856,0.22020
2736.49703,0.21799
2738.42550,0.21729
2740.35396,0.21901
2742.28243,0.21981
2744.21090,0.21859
2746.13937,0.21698
2748.06784,0.21651
2749.99631,0.21776
2751.92478,0.21983
2753.85325,0.22121
2755.78171,0.22240
2757.71018,0.22349
2759.63865,0.22262
2761.56712,0.22093
2763.49559,0.22166
2765.42406,0.22249
2767.35253,0.22120
2769.28099,0.22095
2771.20946,0.22284
2773.13793,0.22427
2775.06640,0.22271
2776.99487,0.22071
2778.92334,0.22228
2780.85181,0.22385
2782.78028,0.22151
2784.70874,0.21932
2786.63721,0.22066
2788.56568,0.22295
2790.49415,0.22315
2792.42262,0.22162
2794.35109,0.22201
2796.27956,0.22417
2798.20802,0.22291
2800.13649,0.21901
2802.06496,0.21814
2803.99343,0.22038
2805.92190,0.22263
2807.85037,0.22377
2809.77884,0.22421
2811.70731,0.22494
2813.63577,0.22571
2815.56424,0.22548
2817.49271,0.22452
2819.42118,0.22398
2821.34965,0.22397
2823.27812,0.22403
2825.20659,0.22464
2827.13505,0.22540
2829.06352,0.22460
2830.99199,0.22204
2832.92046,0.22071
2834.84893,0.22300
2836.77740,0.22691
2838.70587,0.22955
2840.63433,0.23015
2842.56280,0.22833
2844.49127,0.22552
2846.41974,0.22487
2848.34821,0.22529
2850.27668,0.22417
2852.20515,0.22378
2854.13362,0.22578
2856.06208,0.22701
2857.99055,0.22606
2859.91902,0.22537
2861.84749,0.22642
2863.77596,0.22787
2865.70443,0.22763
2867.63290,0.22548
2869.56136,0.22175
2871.48983,0.21838
2873.41830,0.21894
2875.34677,0.22339
2877.27524,0.22818
2879.20371,0.22997
2881.13218,0.22840
2883.06065,0.22587
2884.98911,0.22444
2886.91758,0.22405
2888.84605,0.22403
2890.77452,0.22592
2892.70299,0.22880
2894.63146,0.22768
2896.55993,0.22433
2898.48839,0.22439
2900.41686,0.22659
2902.34533,0.22829
2904.27380,0.22906
2906.20227,0.22938
2908.13074,0.22969
2910.05921,0.22758
2911.98768,0.22394
2913.91614,0.22269
2915.84461,0.22327
2917.77308,0.22249
2919.70155,0.22167
2921.63002,0.22442
2923.55849,0.22613
2925.48696,0.22271
2927.41542,0.22088
2929.34389,0.22403
2931.27236,0.22633
2933.20083,0.22534
2935.12930,0.22430
2937.05777,0.22363
2938.98624,0.22284
2940.91471,0.22254
2942.84317,0.22221
2944.77164,0.22228
2946.70011,0.22296
2948.62858,0.22418
2950.55705,0.22644
2952.48552,0.22895
2954.41399,0.22995
2956.34245,0.22859
2958.27092,0.22747
2960.19939,0.22924
2962.12786,0.23131
2964.05633,0.23176
2965.98480,0.23271
2967.91327,0.23382
2969.84174,0.23247
2971.77020,0.22990
2973.69867,0.22941
2975.62714,0.23031
2977.55561,0.23114
2979.48408,0.23176
2981.41255,0.23116
2983.34102,0.23070
2985.26948,0.23103
2987.19795,0.23065
2989.12642,0.23061
2991.05489,0.23173
2992.98336,0.23253
2994.91183,0.23297
2996.84030,0.23324
2998.76877,0.23207
3000.69723,0.23080
3002.62570,0.23066
3004.55417,0.23086
3006.48264,0.23228
3008.41111,0.23408
3010.33958,0.23380
3012.26805,0.23118
3014.19651,0.22893
3016.12498,0.23039
3018.05345,0.23350
3019.98192,0.23504
3021.91039,0.23590
3023.83886,0.23496
3025.76733,0.23242
3027.69579,0.23232
3029.62426,0.23393
3031.55273,0.23521
3033.48120,0.23568
3035.40967,0.23426
3037.33814,0.23272
3039.26661,0.23158
3041.19508,0.22964
3043.12354,0.22873
3045.05201,0.22898
3046.98048,0.22861
3048.90895,0.22819
3050.83742,0.22918
3052.76589,0.23107
3054.69436,0.23259
3056.62282,0.23471
3058.55129,0.23677
3060.47976,0.23546
3062.40823,0.23181
3064.33670,0.22927
3066.26517,0.22812
3068.19364,0.22772
3070.12211,0.22843
3072.05057,0.22992
3073.97904,0.23064
3075.90751,0.23028
3077.83598,0.23061
3079.76445,0.23096
3081.69292,0.22976
3083.62139,0.22925
3085.54985,0.23024
3087.47832,0.22986
3089.40679,0.22864
3091.33526,0.22933
3093.26373,0.23078
3095.19220,0.23128
3097.12067,0.23121
3099.04914,0.23115
3100.97760,0.23140
3102.90607,0.23313
3104.83454,0.23659
3106.76301,0.23828
3108.69148,0.23676
3110.61995,0.23523
3112.54842,0.23543
3114.47688,0.23610
3116.40535,0.23628
3118.33382,0.23553
3120.26229,0.23419
3122.19076,0.23405
3124.11923,0.23476
3126.04770,0.23518
3127.97617,0.23484
3129.90463,0.23355
3131.83310,0.23371
3133.76157,0.23443
3135.69004,0.23367
3137.61851,0.23424
3139.54698,0.23618
3141.47545,0.23677
3143.40391,0.23748
3145.33238,0.23977
3147.26085,0.24040
3149.18932,0.23913
3151.11779,0.23937
3153.04626,0.23895
3154.97473,0.23613
3156.90320,0.23417
3158.83166,0.23365
3160.76013,0.23273
3162.68860,0.23219
3164.61707,0.23413
3166.54554,0.23737
3168.47401,0.23994
3170.40248,0.24164
3172.33094,0.24052
3174.25941,0.23685
3176.18788,0.23597
3178.11635,0.23806
3180.04482,0.23802
3181.97329,0.23782
3183.90176,0.24119
3185.83022,0.24396
3187.75869,0.24108
3189.68716,0.23543
3191.61563,0.23321
3193.54410,0.23542
3195.47257,0.24009
3197.40104,0.24360
3199.32951,0.24202
3201.25797,0.23765
3203.18644,0.23511
3205.11491,0.23585
3207.04338,0.23836
3208.97185,0.23859
3210.90032,0.23608
3212.82879,0.23552
3214.75725,0.23751
3216.68572,0.23904
3218.61419,0.23883
3220.54266,0.23563
3222.47113,0.23063
3224.39960,0.22831
3226.32807,0.23102
3228.25654,0.23525
3230.18500,0.23651
3232.11347,0.23598
3234.04194,0.23617
3235.97041,0.23640
3237.89888,0.23514
3239.82735,0.23287
3241.75582,0.23253
3243.68428,0.23497
3245.61275,0.23709
3247.54122,0.23636
3249.46969,0.23420
3251.39816,0.23207
3253.32663,0.22984
3255.25510,0.23008
3257.18357,0.23317
3259.11203,0.23349
3261.04050,0.22989
3262.96897,0.22613
3264.89744,0.22380
3266.82591,0.22502
3268.75438,0.22968
3270.68285,0.23339
3272.61131,0.23395
3274.53978,0.23290
3276.46825,0.23274
3278.39672,0.23365
3280.32519,0.23338
3282.25366,0.23160
3284.18213,0.23139
3286.11060,0.23474
3288.03906,0.23741
3289.96753,0.23547
3291.89600,0.23305
3293.82447,0.23418
3295.75294,0.23519
3297.68141,0.23182
3299.60988,0.22678
3301.53834,0.22715
3303.46681,0.23257
3305.39528,0.23581
3307.32375,0.23613
3309.25222,0.23679
3311.18069,0.23665
3313.10916,0.23448
3315.03763,0.23346
3316.96609,0.23518
3318.89456,0.23618
3320.82303,0.23421
3322.75150,0.23135
3324.67997,0.23004
3326.60844,0.22929
3328.53691,0.22867
3330.46537,0.22998
3332.39384,0.23232
3334.32231,0.23524
3336.25078,0.24066
3338.17925,0.24524
3340.10772,0.24362
3342.03619,0.23825
3343.96466,0.23479
3345.89312,0.23531
3347.82159,0.23825
3349.75006,0.24079
3351.67853,0.24106
3353.60700,0.23989
3355.53547,0.23943
3357.46394,0.23865
3359.39240,0.23732
3361.32087,0.23719
3363.24934,0.23781
3365.17781,0.23824
3367.10628,0.23869
3369.03475,0.23963
3370.96322,0.24037
3372.89168,0.23981
3374.82015,0.23715
3376.74862,0.23482
3378.67709,0.23627
3380.60556,0.23816
3382.53403,0.23705
3384.46250,0.23594
3386.39097,0.23776
3388.31943,0.24151
3390.24790,0.24391
3392.17637,0.24146
3394.10484,0.23651
3396.03331,0.23498
3397.96178,0.23525
3399.89025,0.23358
3401.81871,0.23108
3403.74718,0.23075
3405.67565,0.23332
3407.60412,0.23459
3409.53259,0.23166
3411.46106,0.22752
3413.38953,0.22606
3415.31800,0.22705
3417.24646,0.22962
3419.17493,0.23350
3421.10340,0.23482
3423.03187,0.23200
3424.96034,0.22752
3426.88881,0.22354
3428.81728,0.22270
3430.74574,0.22446
3432.67421,0.22461
3434.60268,0.22380
3436.53115,0.22605
3438.45962,0.22975
3440.38809,0.23223
3442.31656,0.23321
3444.24503,0.23245
3446.17349,0.23163
3448.10196,0.22967
3450.03043,0.22509
3451.95890,0.22222
3453.88737,0.22282
3455.81584,0.22402
3457.74431,0.22455
3459.67277,0.22464
3461.60124,0.22327
3463.52971,0.21966
3465.45818,0.21492
3467.38665,0.21153
3469.31512,0.21189
3471.24359,0.21476
3473.17206,0.21626
3475.10052,0.21544
3477.02899,0.21326
3478.95746,0.21113
3480.88593,0.21061
3482.81440,0.20988
3484.74287,0.20809
3486.67134,0.20771
3488.59980,0.20849
3490.52827,0.20806
3492.45674,0.20573
3494.38521,0.20270
3496.31368,0.20149
3498.24215,0.20436
3500.17062,0.20892
3502.09909,0.21025
3504.02755,0.20796
3505.95602,0.20456
3507.88449,0.20056
3509.81296,0.19795
3511.74143,0.19884
3513.66990,0.19950
3515.59837,0.19857
3517.52683,0.19943
3519.45530,0.20024
3521.38377,0.19804
3523.31224,0.19629
3525.24071,0.19726
3527.16918,0.19710
3529.09765,0.19299
3531.02611,0.18787
3532.95458,0.18543
3534.88305,0.18539
3536.81152,0.18578
3538.73999,0.18700
3540.66846,0.18997
3542.59693,0.19192
3544.52540,0.19081
3546.45386,0.19017
3548.38233,0.19231
3550.31080,0.19468
3552.23927,0.19486
3554.16774,0.19077
3556.09621,0.18283
3558.02468,0.17597
3559.95314,0.17642
3561.88161,0.18459
3563.81008,0.19469
3565.73855,0.20093
3567.66702,0.19583
3569.59549,0.18323
3571.52396,0.17642
3573.45243,0.17522
3575.38089,0.17546
3577.30936,0.17687
3579.23783,0.17620
3581.16630,0.17201
3583.09477,0.16951
3585.02324,0.17239
3586.95171,0.17689
3588.88017,0.17482
3590.80864,0.17190
3592.73711,0.17225
3594.66558,0.17242
3596.59405,0.17228
3598.52252,0.17241
3600.45099,0.17191
3602.37946,0.17176
3604.30792,0.17461
3606.23639,0.17884
3608.16486,0.17899
3610.09333,0.17689
3612.02180,0.17620
3613.95027,0.17255
3615.87874,0.16747
3617.80720,0.16637
3619.73567,0.16591
3621.66414,0.16141
3623.59261,0.15843
3625.52108,0.16144
3627.44955,0.16843
3629.37802,0.16923
3631.30649,0.16312
3633.23495,0.16105
3635.16342,0.16059
3637.09189,0.15911
3639.02036,0.15876
3640.94883,0.15738
3642.87730,0.15421
3644.80577,0.15616
3646.73423,0.16708
3648.66270,0.17661
3650.59117,0.16722
3652.51964,0.15724
3654.44811,0.15625
3656.37658,0.15557
3658.30505,0.14986
3660.23352,0.14567
3662.16198,0.14609
3664.09045,0.14854
3666.01892,0.15196
3667.94739,0.15858
3669.87586,0.16412
3671.80433,0.16123
3673.73280,0.16036
3675.66126,0.16139
3677.58973,0.15688
3679.51820,0.15395
3681.44667,0.15315
3683.37514,0.15259
3685.30361,0.15398
3687.23208,0.15959
3689.16055,0.16423
3691.08901,0.15607
3693.01748,0.14641
3694.94595,0.14479
3696.87442,0.14605
3698.80289,0.14581
3700.73136,0.14486
3702.65983,0.14460
3704.58829,0.14494
3706.51676,0.14587
3708.44523,0.15168
3710.37370,0.16359
3712.30217,0.16511
3714.23064,0.15457
3716.15911,0.14804
3718.08757,0.14745
3720.01604,0.14979
3721.94451,0.15257
3723.87298,0.15403
3725.80145,0.15300
3727.72992,0.15111
3729.65839,0.15332
3731.58686,0.16010
3733.51532,0.16366
3735.44379,0.15784
3737.37226,0.15114
3739.30073,0.15041
3741.22920,0.15331
3743.15767,0.15623
3745.08614,0.15574
3747.01460,0.15526
3748.94307,0.16042
3750.87154,0.16681
3752.80001,0.16107
3754.72848,0.15184
3756.65695,0.14935
3758.58542,0.15117
3760.51389,0.14988
3762.44235,0.14705
3764.37082,0.14555
3766.29929,0.14539
3768.22776,0.14832
3770.15623,0.14956
3772.08470,0.14507
3774.01317,0.14201
3775.94163,0.14275
3777.87010,0.14440
3779.79857,0.14344
3781.72704,0.14059
3783.65551,0.14171
3785.58398,0.14461
3787.51245,0.14324
3789.44092,0.14001
3791.36938,0.13830
3793.29785,0.14030
3795.22632,0.14717
3797.15479,0.15254
3799.08326,0.15307
3801.01173,0.15381
3802.94020,0.15149
3804.86866,0.14786
3806.79713,0.14596
3808.72560,0.14146
3810.65407,0.13676
3812.58254,0.13549
3814.51101,0.13753
3816.43948,0.14030
3818.36795,0.14240
3820.29641,0.14567
3822.22488,0.14494
3824.15335,0.14066
3826.08182,0.13772
3828.01029,0.13565
3829.93876,0.13501
3831.86723,0.13556
3833.79569,0.13788
3835.72416,0.14707
3837.65263,0.16149
3839.58110,0.16282
3841.50957,0.15039
3843.43804,0.14076
3845.36651,0.13766
3847.29498,0.13780
3849.22344,0.14168
3851.15191,0.15447
3853.08038,0.17022
3855.00885,0.15831
3856.93732,0.14020
3858.86579,0.13264
3860.79426,0.13351
3862.72272,0.13873
3864.65119,0.14000
3866.57966,0.13778
3868.50813,0.14006
3870.43660,0.14555
3872.36507,0.14534
3874.29354,0.14103
3876.22200,0.13785
3878.15047,0.13662
3880.07894,0.13590
3882.00741,0.13329
3883.93588,0.13058
3885.86435,0.12986
3887.79282,0.13001
3889.72129,0.13263
3891.64975,0.13673
3893.57822,0.13473
3895.50669,0.12923
3897.43516,0.12592
3899.36363,0.12487
3901.29210,0.12708
3903.22057,0.13377
3905.14903,0.13715
3907.07750,0.13363
3909.00597,0.12922
3910.93444,0.12667
3912.86291,0.12669
3914.79138,0.12905
3916.71985,0.13019
3918.64832,0.12930
3920.57678,0.13113
3922.50525,0.13295
3924.43372,0.12920
3926.36219,0.12337
3928.29066,0.12228
3930.21913,0.12661
3932.14760,0.12849
3934.07606,0.12356
3936.00453,0.12058
3937.93300,0.12264
3939.86147,0.12550
3941.78994,0.12735
3943.71841,0.12793
3945.64688,0.12714
3947.57535,0.12629
3949.50381,0.12572
3951.43228,0.12411
3953.36075,0.12107
3955.28922,0.11927
3957.21769,0.12103
3959.14616,0.12313
3961.07463,0.12240
3963.00309,0.12061
3964.93156,0.11952
3966.86003,0.11881
3968.78850,0.11831
3970.71697,0.11774
3972.64544,0.11738
3974.57391,0.11845
3976.50238,0.11856
3978.43084,0.11624
3980.35931,0.11670
3982.28778,0.12041
3984.21625,0.12000
3986.14472,0.11541
3988.07319,0.11370
3990.00166,0.11500
3991.93012,0.11356
3993.85859,0.10911
3995.78706,0.10698
3997.71553,0.10850
3999.64400,0.10960
4001.57247,0.10979
4003.50094,0.11158
4005.42941,0.11395
4007.35787,0.11555
4009.28634,0.11654
4011.21481,0.11686
4013.14328,0.11639
4015.07175,0.11580
4017.00022,0.11645
4018.92869,0.11642
4020.85715,0.11285
4022.78562,0.10952
4024.71409,0.11157
4026.64256,0.11478
4028.57103,0.11436
4030.49950,0.11398
4032.42797,0.11408
4034.35644,0.11101
4036.28490,0.10672
4038.21337,0.10549
4040.14184,0.10681
4042.07031,0.10787
4043.99878,0.10791
4045.92725,0.10833
4047.85572,0.10895
4049.78418,0.10741
4051.71265,0.10434
4053.64112,0.10198
4055.56959,0.10095
4057.49806,0.10179
4059.42653,0.10421
4061.35500,0.10576
4063.28346,0.10520
4065.21193,0.10493
4067.14040,0.10526
4069.06887,0.10415
4070.99734,0.10195
4072.92581,0.10054
4074.85428,0.10206
4076.78275,0.10604
4078.71121,0.10795
4080.63968,0.10579
4082.56815,0.10346
4084.49662,0.10555
4086.42509,0.11026
4088.35356,0.11029
4090.28203,0.10538
4092.21049,0.10113
4094.13896,0.09804
4096.06743,0.09479
4097.99590,0.09214
4099.92437,0.09266
4101.85284,0.09614
4103.78131,0.09861
4105.70978,0.09954
4107.63824,0.09978
4109.56671,0.09893
4111.49518,0.09773
4113.42365,0.09585
4115.35212,0.09237
4117.28059,0.08992
4119.20906,0.09266
4121.13752,0.09847
4123.06599,0.10005
4124.99446,0.09516
4126.92293,0.08860
4128.85140,0.08476
4130.77987,0.08359
4132.70834,0.08434
4134.63681,0.08763
4136.56527,0.09123
4138.49374,0.09203
4140.42221,0.09047
4142.35068,0.08889
4144.27915,0.08912
4146.20762,0.09081
4148.13609,0.09319
4150.06455,0.09501
4151.99302,0.09525
4153.92149,0.09510
4155.84996,0.09400
4157.77843,0.09128
4159.70690,0.08798
4161.63537,0.08561
4163.56384,0.08523
4165.49230,0.08727
4167.42077,0.09146
4169.34924,0.09336
4171.27771,0.09234
4173.20618,0.09351
4175.13465,0.09544
4177.06312,0.09469
4178.99158,0.09186
4180.92005,0.08663
4182.84852,0.08149
4184.77699,0.08283
4186.70546,0.08771
4188.63393,0.08829
4190.56240,0.08749
4192.49087,0.08873
4194.41933,0.08858
4196.34780,0.08687
4198.27627,0.08395
4200.20474,0.08053
4202.13321,0.08171
4204.06168,0.08589
4205.99015,0.08682
4207.91861,0.08538
4209.84708,0.08354
4211.77555,0.08298
4213.70402,0.08573
4215.63249,0.08521
4217.56096,0.07938
4219.48943,0.07696
4221.41789,0.07771
4223.34636,0.07754
4225.27483,0.07879
4227.20330,0.08171
4229.13177,0.08371
4231.06024,0.08402
4232.98871,0.08127
4234.91718,0.07543
4236.84564,0.07189
4238.77411,0.07363
4240.70258,0.07821
4242.63105,0.08216
4244.55952,0.08244
4246.48799,0.07925
4248.41646,0.07566
4250.34492,0.07428
4252.27339,0.07614
4254.20186,0.07782
4256.13033,0.07499
4258.05880,0.07281
4259.98727,0.07432
4261.91574,0.07224
4263.84421,0.06859
4265.77267,0.07116
4267.70114,0.07432
4269.62961,0.07226
4271.55808,0.07109
4273.48655,0.07195
4275.41502,0.07021
4277.34349,0.06842
4279.27195,0.07030
4281.20042,0.07333
4283.12889,0.07429
4285.05736,0.07308
4286.98583,0.06931
4288.91430,0.06390
4290.84277,0.06077
4292.77124,0.06060
4294.69970,0.05982
4296.62817,0.05862
4298.55664,0.06118
4300.48511,0.06499
4302.41358,0.06468
4304.34205,0.06339
4306.27052,0.06474
4308.19898,0.06404
4310.12745,0.05922
4312.05592,0.05630
4313.98439,0.05866
4315.91286,0.06220
4317.84133,0.06248
4319.76980,0.06048
4321.69827,0.05794
4323.62673,0.05516
4325.55520,0.05367
4327.48367,0.05303
4329.41214,0.05264
4331.34061,0.05281
4333.26908,0.05224
4335.19755,0.05258
4337.12601,0.05441
4339.05448,0.05461
4340.98295,0.05511
4342.91142,0.05714
4344.83989,0.05680
4346.76836,0.05300
4348.69683,0.04810
4350.62530,0.04665
4352.55376,0.04800
4354.48223,0.04723
4356.41070,0.04640
4358.33917,0.04744
4360.26764,0.04837
4362.19611,0.04921
4364.12458,0.04861
4366.05304,0.04534
4367.98151,0.04314
4369.90998,0.04495
4371.83845,0.04791
4373.76692,0.04875
4375.69539,0.04690
4377.62386,0.04179
4379.55232,0.03532
4381.48079,0.03310
4383.40926,0.03435
4385.33773,0.03359
4387.26620,0.03179
4389.19467,0.03211
4391.12314,0.03344
4393.05161,0.03182
4394.98007,0.02870
4396.90854,0.03014
4398.83701,0.03514
4400.76548,0.03770
4402.69395,0.03669
4404.62242,0.03622
4406.55089,0.03680
4408.47935,0.03587
4410.40782,0.03522
4412.33629,0.03589
4414.26476,0.03652
4416.19323,0.03599
4418.12170,0.03195
4420.05017,0.02842
4421.97864,0.03095
4423.90710,0.03142
4425.83557,0.02461
4427.76404,0.02155
4429.69251,0.02819
4431.62098,0.03602
4433.54945,0.03731
4435.47792,0.03397
4437.40638,0.03022
4439.33485,0.02598
4441.26332,0.02418
4443.19179,0.02841
4445.12026,0.03220
4447.04873,0.03231
4448.97720,0.03265
4450.90567,0.03024
4452.83413,0.02360
4454.76260,0.01938
4456.69107,0.01929
4458.61954,0.01914
4460.54801,0.01959
4462.47648,0.02227
4464.40495,0.02229
4466.33341,0.01747
4468.26188,0.01504
4470.19035,0.01957
4472.11882,0.02340
4474.04729,0.02171
4475.97576,0.02032
4477.90423,0.02188
4479.83270,0.02299
4481.76116,0.02151
4483.68963,0.01635
4485.61810,0.01176
4487.54657,0.01453
4489.47504,0.02086
4491.40351,0.02315
4493.33198,0.02037
4495.26044,0.01655
4497.18891,0.01380
4499.11738,0.01148
4501.04585,0.01065
4502.97432,0.01180
4504.90279,0.01425
4506.83126,0.01462
4508.75973,0.01232
4510.68819,0.01245
4512.61666,0.01417
4514.54513,0.01278
4516.47360,0.01032
4518.40207,0.00997
4520.33054,0.00919
4522.25901,0.00846
4524.18747,0.00920
4526.11594,0.00906
4528.04441,0.00899
4529.97288,0.01010
4531.90135,0.01171
4533.82982,0.01348
4535.75829,0.01416
4537.68676,0.01406
4539.61522,0.01419
4541.54369,0.01272
4543.47216,0.01043
4545.40063,0.01039
4547.32910,0.00958
4549.25757,0.00652
4551.18604,0.00895
4553.11450,0.02130
4555.04297,0.03139
4556.97144,0.02434
4558.89991,0.00709
4560.82838,-0.00414
4562.75685,-0.00480
4564.68532,0.00302
4566.61378,0.00985
4568.54225,0.00732
4570.47072,0.00356
4572.39919,0.00621
4574.32766,0.01071
4576.25613,0.01338
4578.18460,0.01248
4580.11307,0.00869
4582.04153,0.00877
4583.97000,0.01034
4585.89847,0.00522
4587.82694,-0.00017
4589.75541,0.00182
4591.68388,0.00569
4593.61235,0.00753
4595.54081,0.00976
4597.46928,0.01102
4599.39775,0.01296
4601.32622,0.01840
4603.25469,0.01966
4605.18316,0.01665
4607.11163,0.01424
4609.04010,0.00772
4610.96856,0.00088
4612.89703,0.00161
4614.82550,0.00594
4616.75397,0.00649
4618.68244,0.00323
4620.61091,0.00326
4622.53938,0.00989
4624.46784,0.01292
4626.39631,0.00635
4628.32478,0.00292
4630.25325,0.00778
4632.18172,0.01294
4634.11019,0.01346
4636.03866,0.00867
4637.96713,0.00552
4639.89559,0.00980
4641.82406,0.01645
4643.75253,0.02030
4645.68100,0.01910
4647.60947,0.01227
4649.53794,0.00467
4651.46641,-0.00021
4653.39487,-0.00187
4655.32334,0.00079
4657.25181,0.00532
4659.18028,0.00741
4661.10875,0.00642
4663.03722,0.00287
4664.96569,-0.00206
4666.89416,-0.00348
4668.82262,-0.00151
4670.75109,-0.00015
4672.67956,0.00376
4674.60803,0.00907
4676.53650,0.00989
4678.46497,0.00641
4680.39344,-0.00045
4682.32190,-0.00579
4684.25037,-0.00429
4686.17884,-0.00233
4688.10731,-0.00457
4690.03578,-0.00414
4691.96425,0.00167
4693.89272,0.00622
4695.82119,0.00651
4697.74965,0.00876
4699.67812,0.01537
4701.60659,0.01638
4703.53506,0.00809
4705.46353,0.00023
4707.39200,-0.00143
4709.32047,0.00132
4711.24893,0.00378
4713.17740,0.00291
4715.10587,0.00240
4717.03434,0.00525
4718.96281,0.00637
4720.89128,0.00168
4722.81975,-0.00096
4724.74821,0.00571
4726.67668,0.01139
4728.60515,0.00565
4730.53362,-0.00005
4732.46209,0.00582
4734.39056,0.01368
4736.31903,0.01520
4738.24750,0.01410
4740.17596,0.00981
4742.10443,0.00343
4744.03290,0.00199
4745.96137,0.00214
4747.88984,-0.00147
4749.81831,-0.00500
4751.74678,-0.00581
4753.67524,-0.00464
4755.60371,-0.00397
4757.53218,-0.00253
4759.46065,0.00362
4761.38912,0.00779
4763.31759,0.00485
4765.24606,0.00176
4767.17453,0.00170
4769.10299,0.00387
4771.03146,0.00683
4772.95993,0.00689
4774.88840,0.00632
4776.81687,0.00987
4778.74534,0.01521
4780.67381,0.01499
4782.60227,0.00914
4784.53074,0.00610
4786.45921,0.00903
4788.38768,0.01272
4790.31615,0.01276
4792.24462,0.00914
4794.17309,0.00297
4796.10156,-0.00073
4798.03002,0.00070
4799.95849,0.00186
4801.88696,0.00118
4803.81543,0.00070
4805.74390,0.00049
4807.67237,0.00121
4809.60084,0.00083
4811.52930,0.00115
4813.45777,0.00539
4815.38624,0.00710
4817.31471,0.00486
4819.24318,0.01005
4821.17165,0.01546
4823.10012,0.01009
4825.02859,0.00376
4826.95705,0.00262
4828.88552,0.00213
4830.81399,0.00451
4832.74246,0.00752
4834.67093,0.00622
4836.59940,0.00699
4838.52787,0.01100
4840.45633,0.01182
4842.38480,0.00990
4844.31327,0.00444
4846.24174,-0.00560
4848.17021,-0.01042
4850.09868,-0.00280
4852.02715,0.00502
4853.95562,0.00202
4855.88408,0.00029
4857.81255,0.00929
4859.74102,0.01776
4861.66949,0.01437
4863.59796,0.00231
4865.52643,-0.00799
4867.45490,-0.00769
4869.38336,0.00146
4871.31183,0.00900
4873.24030,0.01299
4875.16877,0.01509
4877.09724,0.01350
4879.02571,0.01159
4880.95418,0.00982
4882.88265,0.00626
4884.81111,0.00585
4886.73958,0.01027
4888.66805,0.01232
4890.59652,0.00864
4892.52499,0.00644
4894.45346,0.00729
4896.38193,0.00577
4898.31039,0.00228
4900.23886,0.00145
4902.16733,0.00614
4904.09580,0.01269
4906.02427,0.01222
4907.95274,0.00802
4909.88121,0.01095
4911.80967,0.01372
4913.73814,0.00892
4915.66661,0.00495
4917.59508,0.00316
4919.52355,0.00033
4921.45202,-0.00697
4923.38049,-0.01383
4925.30896,-0.00894
4927.23742,-0.00234
4929.16589,-0.00758
4931.09436,-0.01523
4933.02283,-0.01309
4934.95130,-0.00424
4936.87977,0.00376
4938.80824,0.00938
4940.73670,0.01455
4942.66517,0.01708
4944.59364,0.01706
4946.52211,0.01628
4948.45058,0.01358
4950.37905,0.01145
4952.30752,0.01180
4954.23599,0.00580
4956.16445,-0.00749
4958.09292,-0.01227
4960.02139,-0.00447
4961.94986,0.00570
4963.87833,0.01286
4965.80680,0.01630
4967.73527,0.01335
4969.66373,0.00459
4971.59220,0.00111
4973.52067,0.00626
4975.44914,0.01109
4977.37761,0.01401
4979.30608,0.01788
4981.23455,0.01862
4983.16302,0.01167
4985.09148,0.00274
4987.01995,-0.00145
4988.94842,0.00194
4990.87689,0.01104
4992.80536,0.01493
4994.73383,0.01175
4996.66230,0.01015
4998.59076,0.01316
5000.51923,0.01466
5002.44770,0.00823
5004.37617,0.00311
5006.30464,0.00503
5008.23311,0.00446
5010.16158,0.00365
5012.09005,0.01144
5014.01851,0.02104
5015.94698,0.02108
5017.87545,0.01526
5019.80392,0.01156
5021.73239,0.01072
5023.66086,0.01095
5025.58933,0.01001
5027.51779,0.01018
5029.44626,0.01243
5031.37473,0.01388
5033.30320,0.01500
5035.23167,0.01666
5037.16014,0.01588
5039.08861,0.00731
5041.01708,0.00031
5042.94554,0.00883
5044.87401,0.02082
5046.80248,0.02274
5048.73095,0.02154
5050.65942,0.02136
5052.58789,0.01842
5054.51636,0.01632
5056.44482,0.01987
5058.37329,0.02224
5060.30176,0.01699
5062.23023,0.00919
5064.15870,0.00414
5066.08717,0.00835
5068.01564,0.02416
5069.94410,0.03542
5071.87257,0.03288
5073.80104,0.02884
5075.72951,0.02816
5077.65798,0.02643
5079.58645,0.02690
5081.51492,0.02783
5083.44339,0.02561
5085.37185,0.02590
5087.30032,0.02747
5089.22879,0.02262
5091.15726,0.01493
5093.08573,0.01453
5095.01420,0.01947
5096.94267,0.02135
5098.87113,0.02407
5100.79960,0.02913
5102.72807,0.02678
5104.65654,0.02449
5106.58501,0.03418
5108.51348,0.04069
5110.44195,0.03320
5112.37042,0.02911
5114.29888,0.03632
5116.22735,0.04172
5118.15582,0.03956
5120.08429,0.03201
5122.01276,0.02146
5123.94123,0.01436
5125.86970,0.01403
5127.79816,0.01428
5129.72663,0.01462
5131.65510,0.02344
5133.58357,0.03652
5135.51204,0.04245
5137.44051,0.03972
5139.36898,0.03197
5141.29745,0.02729
5143.22591,0.03190
5145.15438,0.03727
5147.08285,0.03579
5149.01132,0.03438
5150.93979,0.03662
5152.86826,0.03846
5154.79673,0.04085
5156.72519,0.04732
5158.65366,0.05295
5160.58213,0.05390
5162.51060,0.05679
5164.43907,0.06231
5166.36754,0.06127
5168.29601,0.05097
5170.22448,0.04078
5172.15294,0.04110
5174.08141,0.04751
5176.00988,0.05054
5177.93835,0.04747
5179.86682,0.03929
5181.79529,0.03013
5183.72376,0.02607
5185.65222,0.02990
5187.58069,0.03367
5189.50916,0.03137
5191.43763,0.02884
5193.36610,0.02830
5195.29457,0.02787
5197.22304,0.03017
5199.15151,0.03682
5201.07997,0.04504
5203.00844,0.05085
5204.93691,0.05021
5206.86538,0.04652
5208.79385,0.04806
5210.72232,0.04806
5212.65079,0.03866
5214.57925,0.02467
5216.50772,0.01557
5218.43619,0.01813
5220.36466,0.03246
5222.29313,0.04570
5224.22160,0.04166
5226.15007,0.03134
5228.07854,0.03349
5230.00700,0.03502
5231.93547,0.03043
5233.86394,0.03576
5235.79241,0.05362
5237.72088,0.06599
5239.64935,0.06512
5241.57782,0.06004
5243.50628,0.05786
5245.43475,0.05958
5247.36322,0.05697
5249.29169,0.04897
5251.22016,0.04617
5253.14863,0.04923
5255.07710,0.05261
5257.00556,0.05809
5258.93403,0.06560
5260.86250,0.06260
5262.79097,0.05445
5264.71944,0.05689
5266.64791,0.06215
5268.57638,0.06243
5270.50485,0.05645
5272.43331,0.04823
5274.36178,0.04518
5276.29025,0.05014
5278.21872,0.05708
5280.14719,0.05457
5282.07566,0.04733
5284.00413,0.04292
5285.93259,0.04138
5287.86106,0.04878
5289.78953,0.06014
5291.71800,0.05940
5293.64647,0.05160
5295.57494,0.04909
5297.50341,0.04769
5299.43188,0.04053
5301.36034,0.03239
5303.28881,0.03421
5305.21728,0.04620
5307.14575,0.05630
5309.07422,0.05107
5311.00269,0.03382
5312.93116,0.02345
5314.85962,0.03040
5316.78809,0.04489
5318.71656,0.05048
5320.64503,0.04724
5322.57350,0.04359
5324.50197,0.04594
5326.43044,0.05708
5328.35891,0.06380
5330.28737,0.05578
5332.21584,0.04490
5334.14431,0.04136
5336.07278,0.04266
5338.00125,0.05161
5339.92972,0.06248
5341.85819,0.06592
5343.78665,0.07050
5345.71512,0.06345
5347.64359,0.04005
5349.57206,0.03309
5351.50053,0.04758
5353.42900,0.05667
5355.35747,0.05311
5357.28594,0.05217
5359.21440,0.05327
5361.14287,0.04722
5363.07134,0.03661
5364.99981,0.03654
5366.92828,0.05022
5368.85675,0.06451
5370.78522,0.07332
5372.71368,0.07784
5374.64215,0.08218
5376.57062,0.08264
5378.49909,0.06506
5380.42756,0.04880
5382.35603,0.05997
5384.28450,0.08297
5386.21297,0.08798
5388.14143,0.07915
5390.06990,0.06870
5391.99837,0.06460
5393.92684,0.07661
5395.85531,0.08758
5397.78378,0.07620
5399.71225,0.05710
5401.64071,0.04804
5403.56918,0.04961
5405.49765,0.06229
5407.42612,0.07543
5409.35459,0.07054
5411.28306,0.05912
5413.21153,0.05729
5415.13999,0.05004
5417.06846,0.03966
5418.99693,0.04351
5420.92540,0.05129
5422.85387,0.04961
5424.78234,0.05532
5426.71081,0.07656
5428.63928,0.08786
5430.56774,0.08224
5432.49621,0.08295
5434.42468,0.08800
5436.35315,0.08699
5438.28162,0.08235
5440.21009,0.07078
5442.13856,0.05775
5444.06702,0.05281
5445.99549,0.04943
5447.92396,0.05384
5449.85243,0.06993
5451.78090,0.07291
5453.70937,0.06401
5455.63784,0.07080
5457.56631,0.08598
5459.49477,0.07744
5461.42324,0.05474
5463.35171,0.04376
5465.28018,0.05230
5467.20865,0.07720
5469.13712,0.09722
5471.06559,0.09324
5472.99405,0.07752
5474.92252,0.07149
5476.85099,0.07813
5478.77946,0.08163
5480.70793,0.07720
5482.63640,0.07065
5484.56487,0.06930
5486.49334,0.06707
5488.42180,0.05794
5490.35027,0.05432
5492.27874,0.06166
5494.20721,0.07372
5496.13568,0.07729
5498.06415,0.06726
5499.99262,0.06202
5501.92108,0.06733
5503.84955,0.06905
5505.77802,0.07656
5507.70649,0.09514
5509.63496,0.10029
5511.56343,0.08688
5513.49190,0.07147
5515.42037,0.06420
5517.34883,0.06987
5519.27730,0.08399
5521.20577,0.09539
5523.13424,0.09929
5525.06271,0.09145
5526.99118,0.07910
5528.91965,0.07716
5530.84811,0.08197
5532.77658,0.08473
5534.70505,0.08358
5536.63352,0.07931
5538.56199,0.07506
5540.49046,0.07182
5542.41893,0.07420
5544.34740,0.08146
5546.27586,0.08647
5548.20433,0.08966
5550.13280,0.08851
5552.06127,0.08243
5553.98974,0.08287
5555.91821,0.09865
5557.84668,0.11607
5559.77514,0.10665
5561.70361,0.08448
5563.63208,0.08397
5565.56055,0.09108
5567.48902,0.08894
5569.41749,0.08935
5571.34596,0.09319
5573.27443,0.09045
5575.20289,0.08710
5577.13136,0.09255
5579.05983,0.09882
5580.98830,0.10072
5582.91677,0.09804
5584.84524,0.09477
5586.77371,0.09273
5588.70217,0.08507
5590.63064,0.07635
5592.55911,0.08324
5594.48758,0.10896
5596.41605,0.12088
5598.34452,0.09374
5600.27299,0.05804
5602.20145,0.05635
5604.12992,0.08947
5606.05839,0.12622
5607.98686,0.14247
5609.91533,0.13688
5611.84380,0.11871
5613.77227,0.09145
5615.70074,0.06972
5617.62920,0.07785
5619.55767,0.09905
5621.48614,0.10201
5623.41461,0.09852
5625.34308,0.09847
5627.27155,0.08898
5629.20002,0.08079
5631.12848,0.08283
5633.05695,0.08681
5634.98542,0.09294
5636.91389,0.08925
5638.84236,0.07188
5640.77083,0.06505
5642.69930,0.07306
5644.62777,0.08178
5646.55623,0.09534
5648.48470,0.11303
5650.41317,0.11328
5652.34164,0.10169
5654.27011,0.09661
5656.19858,0.08982
5658.12705,0.07829
5660.05551,0.06936
5661.98398,0.05914
5663.91245,0.04881
5665.84092,0.04745
5667.76939,0.05140
5669.69786,0.05533
5671.62633,0.05535
5673.55480,0.04932
5675.48326,0.05480
5677.41173,0.08219
5679.34020,0.10841
5681.26867,0.11146
5683.19714,0.09430
5685.12561,0.07815
5687.05408,0.07962
5688.98254,0.09297
5690.91101,0.09792
5692.83948,0.08780
5694.76795,0.07954
5696.69642,0.08167
5698.62489,0.07670
5700.55336,0.06296
5702.48183,0.06509
5704.41029,0.08169
5706.33876,0.08841
5708.26723,0.08709
5710.19570,0.08893
5712.12417,0.09184
5714.05264,0.09853
5715.98111,0.10982
5717.90957,0.12257
5719.83804,0.12660
5721.76651,0.11058
5723.69498,0.08996
5725.62345,0.08513
5727.55192,0.09375
5729.48039,0.09383
5731.40886,0.07971
5733.33732,0.07894
5735.26579,0.10083
5737.19426,0.11435
5739.12273,0.10327
5741.05120,0.08996
5742.97967,0.08887
5744.90814,0.08939
5746.83660,0.08458
5748.76507,0.08410
5750.69354,0.09321
5752.62201,0.09273
5754.55048,0.07315
5756.47895,0.05941
5758.40742,0.07194
5760.33588,0.09330
5762.26435,0.09942
5764.19282,0.09832
5766.12129,0.10105
5768.04976,0.10616
5769.97823,0.10295
5771.90670,0.08726
5773.83517,0.08433
5775.76363,0.09475
5777.69210,0.09259
5779.62057,0.07969
5781.54904,0.06704
5783.47751,0.05829
5785.40598,0.06763
5787.33445,0.08717
5789.26291,0.08539
5791.19138,0.06492
5793.11985,0.05235
5795.04832,0.06258
5796.97679,0.08172
5798.90526,0.08257
5800.83373,0.07084
5802.76220,0.06824
5804.69066,0.07621
5806.61913,0.08688
5808.54760,0.09497
5810.47607,0.09447
5812.40454,0.09031
5814.33301,0.08882
5816.26148,0.08372
5818.18994,0.07832
5820.11841,0.08156
5822.04688,0.08787
5823.97535,0.10179
5825.90382,0.12114
5827.83229,0.11838
5829.76076,0.09473
5831.68923,0.07811
5833.61769,0.08037
5835.54616,0.09022
5837.47463,0.08507
5839.40310,0.06341
5841.33157,0.04796
5843.26004,0.05443
5845.18851,0.06641
5847.11697,0.07545
5849.04544,0.08795
5850.97391,0.09117
5852.90238,0.09102
5854.83085,0.10012
5856.75932,0.10321
5858.68779,0.09796
5860.61626,0.10925
5862.54472,0.13634
5864.47319,0.13739
5866.40166,0.09849
5868.33013,0.07606
5870.25860,0.09918
5872.18707,0.12808
5874.11554,0.14715
5876.04400,0.16094
5877.97247,0.16428
5879.90094,0.15075
5881.82941,0.11184
5883.75788,0.07403
5885.68635,0.06912
5887.61482,0.09716
5889.54329,0.13119
5891.47175,0.13091
5893.40022,0.10755
5895.32869,0.09428
5897.25716,0.08632
5899.18563,0.09024
5901.11410,0.11404
5903.04257,0.12472
5904.97103,0.11869
5906.89950,0.12378
5908.82797,0.12603
5910.75644,0.10770
5912.68491,0.07781
5914.61338,0.05143
5916.54185,0.04873
5918.47032,0.06857
5920.39878,0.09412
5922.32725,0.11221
5924.25572,0.11547
5926.18419,0.10629
5928.11266,0.09582
5930.04113,0.10160
5931.96960,0.11322
5933.89806,0.10926
5935.82653,0.10220
5937.75500,0.10794
5939.68347,0.11478
5941.61194,0.10957
5943.54041,0.10101
5945.46888,0.08941
5947.39734,0.07318
5949.32581,0.07789
5951.25428,0.10397
5953.18275,0.11836
5955.11122,0.11948
5957.03969,0.12144
5958.96816,0.12326
5960.89663,0.12320
5962.82509,0.11451
5964.75356,0.09687
5966.68203,0.09396
5968.61050,0.10914
5970.53897,0.10023
5972.46744,0.06680
5974.39591,0.06238
5976.32437,0.08897
5978.25284,0.11007
5980.18131,0.11493
5982.10978,0.11839
5984.03825,0.12192
5985.96672,0.10721
5987.89519,0.09437
5989.82366,0.10386
5991.75212,0.10209
5993.68059,0.08663
5995.60906,0.08702
5997.53753,0.07588
5999.46600,0.05893
6001.39447,0.08165
6003.32294,0.12188
6005.25140,0.14112
6007.17987,0.13532
6009.10834,0.11853
6011.03681,0.11411
6012.96528,0.12473
6014.89375,0.13120
6016.82222,0.12063
6018.75069,0.10266
6020.67915,0.09814
6022.60762,0.10401
6024.53609,0.10561
6026.46456,0.10440
6028.39303,0.09787
6030.32150,0.09186
6032.24997,0.08906
6034.17843,0.07679
6036.10690,0.07208
6038.03537,0.07814
6039.96384,0.08683
6041.89231,0.10351
6043.82078,0.10820
6045.74925,0.09230
6047.67772,0.07400
6049.60618,0.07188
6051.53465,0.09087
6053.46312,0.10843
6055.39159,0.09983
6057.32006,0.08341
6059.24853,0.08745
6061.17700,0.09934
6063.10546,0.09806
6065.03393,0.07791
6066.96240,0.06192
6068.89087,0.07286
6070.81934,0.09167
6072.74781,0.08925
6074.67628,0.06841
6076.60475,0.05236
6078.53321,0.04690
6080.46168,0.03876
6082.39015,0.03331
6084.31862,0.04698
6086.24709,0.06771
6088.17556,0.07397
6090.10403,0.07373
6092.03249,0.08460
6093.96096,0.09595
6095.88943,0.08443
6097.81790,0.06685
6099.74637,0.06799
6101.67484,0.07742
6103.60331,0.08786
6105.53177,0.10571
6107.46024,0.11535
6109.38871,0.10340
6111.31718,0.09333
6113.24565,0.09367
6115.17412,0.08902
6117.10259,0.07276
6119.03106,0.05709
6120.95952,0.07238
6122.88799,0.10231
6124.81646,0.10732
6126.74493,0.08894
6128.67340,0.07671
6130.60187,0.09776
6132.53034,0.12903
6134.45880,0.13284
6136.38727,0.12306
6138.31574,0.11829
6140.24421,0.11515
6142.17268,0.11094
6144.10115,0.10683
6146.02962,0.10267
6147.95809,0.08805
6149.88655,0.06355
6151.81502,0.05408
6153.74349,0.06845
6155.67196,0.08173
6157.60043,0.08695
6159.52890,0.10208
6161.45737,0.11111
6163.38583,0.08821
6165.31430,0.06325
6167.24277,0.05862
6169.17124,0.06806
6171.09971,0.09477
6173.02818,0.11578
6174.95665,0.11403
6176.88512,0.10485
6178.81358,0.08947
6180.74205,0.07145
6182.67052,0.06360
6184.59899,0.06220
6186.52746,0.07097
6188.45593,0.11024
6190.38440,0.16241
6192.31286,0.17223
6194.24133,0.13071
6196.16980,0.07887
6198.09827,0.04391
6200.02674,0.03832
6201.95521,0.06105
6203.88368,0.08306
6205.81215,0.08175
6207.74061,0.06613
6209.66908,0.04915
6211.59755,0.04540
6213.52602,0.04969
6215.45449,0.05170
6217.38296,0.07645
6219.31143,0.10469
6221.23989,0.09299
6223.16836,0.07085
6225.09683,0.07993
6227.02530,0.10814
6228.95377,0.13259
6230.88224,0.15847
6232.81071,0.17464
6234.73918,0.15256
6236.66764,0.12360
6238.59611,0.11902
6240.52458,0.11504
6242.45305,0.08921
6244.38152,0.06693
6246.30999,0.06050
6248.23846,0.05224
6250.16692,0.06296
6252.09539,0.09969
6254.02386,0.11780
6255.95233,0.11085
6257.88080,0.10052
6259.80927,0.08515
6261.73774,0.07712
6263.66621,0.09878
6265.59467,0.12389
6267.52314,0.11282
6269.45161,0.08266
6271.38008,0.07578
6273.30855,0.09818
6275.23702,0.12588
6277.16549,0.15252
6279.09395,0.15866
6281.02242,0.13880
6282.95089,0.13502
6284.87936,0.14220
6286.80783,0.13501
6288.73630,0.11432
6290.66477,0.07251
6292.59323,0.03456
6294.52170,0.02534
6296.45017,0.03996
6298.37864,0.05798
6300.30711,0.04207
6302.23558,0.00751
6304.16405,0.01984
6306.09252,0.06975
6308.02098,0.09161
6309.94945,0.09093
6311.87792,0.10603
6313.80639,0.11302
6315.73486,0.09768
6317.66333,0.07342
6319.59180,0.06343
6321.52026,0.07169
6323.44873,0.07432
6325.37720,0.08189
6327.30567,0.11371
6329.23414,0.14969
6331.16261,0.14586
6333.09108,0.10845
6335.01955,0.07988
6336.94801,0.06923
6338.87648,0.05671
6340.80495,0.02097
6342.73342,0.01607
6344.66189,0.09000
6346.59036,0.15501
6348.51883,0.14595
6350.44729,0.11911
6352.37576,0.11741
6354.30423,0.12652
6356.23270,0.11755
6358.16117,0.08189
6360.08964,0.03641
6362.01811,0.00359
6363.94658,-0.01375
6365.87504,-0.01867
6367.80351,-0.01292
6369.73198,0.01595
6371.66045,0.08981
6373.58892,0.16409
6375.51739,0.17853
6377.44586,0.13717
6379.37432,0.08518
6381.30279,0.07299
6383.23126,0.09922
6385.15973,0.11898
6387.08820,0.11024
6389.01667,0.09990
6390.94514,0.11196
6392.87361,0.11801
6394.80207,0.09443
6396.73054,0.07052
6398.65901,0.06878
6400.58748,0.07005
6402.51595,0.05888
6404.44442,0.05807
6406.37289,0.05838
6408.30135,0.04786
6410.22982,0.05963
6412.15829,0.09657
6414.08676,0.12777
6416.01523,0.12977
6417.94370,0.10259
6419.87217,0.08162
6421.80064,0.07823
6423.72910,0.07449
6425.65757,0.05088
6427.58604,0.00167
6429.51451,-0.03698
6431.44298,-0.04576
6433.37145,-0.02536
6435.29992,0.03265
6437.22838,0.08904
6439.15685,0.09616
6441.08532,0.06672
6443.01379,0.02906
6444.94226,0.03466
6446.87073,0.09773
6448.79920,0.15760
6450.72766,0.18094
6452.65613,0.18152
6454.58460,0.15890
6456.51307,0.12992
6458.44154,0.11166
6460.37001,0.08316
6462.29848,0.05295
6464.22695,0.03844
6466.15541,0.04364
6468.08388,0.08990
6470.01235,0.14482
6471.94082,0.13328
6473.86929,0.07541
6475.79776,0.04318
6477.72623,0.05122
6479.65469,0.07664
6481.58316,0.10675
6483.51163,0.11981
6485.44010,0.11529
6487.36857,0.10771
6489.29704,0.08964
6491.22551,0.06511
6493.15398,0.04966
6495.08244,0.05443
6497.01091,0.08437
6498.93938,0.11385
6500.86785,0.13183
6502.79632,0.14317
6504.72479,0.14059
6506.65326,0.13962
6508.58172,0.13133
6510.51019,0.08281
6512.43866,0.01388
6514.36713,-0.01779
6516.29560,0.00945
6518.22407,0.04177
6520.15254,0.03962
6522.08101,0.04399
6524.00947,0.06572
6525.93794,0.07364
6527.86641,0.07101
6529.79488,0.06505
6531.72335,0.05696
6533.65182,0.06063
6535.58029,0.07584
6537.50875,0.07944
6539.43722,0.05414
6541.36569,0.01407
6543.29416,0.00222
6545.22263,0.02491
6547.15110,0.03524
6549.07957,0.01885
6551.00804,0.00226
6552.93650,0.02342
6554.86497,0.04742
6556.79344,0.01124
6558.72191,-0.02203
6560.65038,0.01266
6562.57885,0.06085
6564.50732,0.09357
6566.43578,0.11798
6568.36425,0.11148
6570.29272,0.08176
6572.22119,0.04930
6574.14966,0.03247
6576.07813,0.04466
6578.00660,0.06737
6579.93507,0.08613
6581.86353,0.07785
6583.79200,0.04927
6585.72047,0.04519
6587.64894,0.04957
6589.57741,0.04748
6591.50588,0.06094
6593.43435,0.07471
6595.36281,0.06109
6597.29128,0.06328
6599.21975,0.08771
6601.14822,0.08786
6603.07669,0.07396
6605.00516,0.06705
6606.93363,0.06689
6608.86210,0.07718
6610.79056,0.08116
6612.71903,0.06763
6614.64750,0.07724
6616.57597,0.12796
6618.50444,0.15483
6620.43291,0.11192
6622.36138,0.01994
6624.28984,-0.02458
6626.21831,0.03329
6628.14678,0.09059
6630.07525,0.09036
6632.00372,0.11039
6633.93219,0.12998
6635.86066,0.09452
6637.78912,0.04747
6639.71759,0.03740
6641.64606,0.06562
6643.57453,0.10346
6645.50300,0.10931
6647.43147,0.06482
6649.35994,0.03084
6651.28841,0.08999
6653.21687,0.19703
6655.14534,0.22894
6657.07381,0.16521
6659.00228,0.11092
6660.93075,0.10730
6662.85922,0.09971
6664.78769,0.05861
6666.71615,0.01398
6668.64462,-0.01135
6670.57309,-0.03412
6672.50156,-0.04197
6674.43003,-0.00503
6676.35850,0.05571
6678.28697,0.09012
6680.21544,0.07283
6682.14390,0.01849
6684.07237,-0.03002
6686.00084,-0.01734
6687.92931,0.03409
6689.85778,0.03409
6691.78625,-0.01933
6693.71472,-0.06163
6695.64318,-0.05855
6697.57165,-0.01030
6699.50012,0.04306
6701.42859,0.07021
6703.35706,0.05714
6705.28553,0.00858
6707.21400,-0.03031
6709.14247,-0.01604
6711.07093,0.02584
6712.99940,0.06399
6714.92787,0.09763
6716.85634,0.11163
6718.78481,0.10669
6720.71328,0.09676
6722.64175,0.05441
6724.57021,-0.00582
6726.49868,-0.00240
6728.42715,0.05656
6730.35562,0.08766
6732.28409,0.09097
6734.21256,0.10313
6736.14103,0.09951
6738.06950,0.08614
6739.99796,0.11264
6741.92643,0.17109
6743.85490,0.17418
6745.78337,0.12099
6747.71184,0.09236
6749.64031,0.10107
6751.56878,0.11744
6753.49724,0.14886
6755.42571,0.15185
6757.35418,0.11067
6759.28265,0.09360
6761.21112,0.09070
6763.13959,0.06259
6765.06806,0.07035
6766.99653,0.13653
6768.92499,0.18147
6770.85346,0.13759
6772.78193,0.06563
6774.71040,0.03474
6776.63887,0.01637
6778.56734,0.01596
6780.49581,0.06563
6782.42427,0.12472
6784.35274,0.12380
6786.28121,0.04831
6788.20968,-0.02826
6790.13815,-0.03683
6792.06662,-0.01104
6793.99509,0.01680
6795.92355,0.07323
6797.85202,0.08348
6799.78049,0.02331
6801.70896,0.00719
6803.63743,0.04103
6805.56590,0.02717
6807.49437,-0.01570
6809.42284,-0.02810
6811.35130,0.01986
6813.27977,0.08857
6815.20824,0.08550
6817.13671,0.05206
6819.06518,0.07712
6820.99365,0.10968
6822.92212,0.10325
6824.85058,0.07271
6826.77905,0.03222
6828.70752,0.00504
6830.63599,0.02334
6832.56446,0.08621
6834.49293,0.16316
6836.42140,0.18987
6838.34987,0.11868
6840.27833,0.04461
6842.20680,0.04622
6844.13527,0.06576
6846.06374,0.06560
6847.99221,0.08124
6849.92068,0.10510
6851.84915,0.09525
6853.77761,0.05715
6855.70608,0.03406
6857.63455,0.07078
6859.56302,0.12632
6861.49149,0.14875
6863.41996,0.14252
6865.34843,0.15190
6867.27690,0.16118
6869.20536,0.11865
6871.13383,0.08132
6873.06230,0.09851
6874.99077,0.10021
6876.91924,0.05465
6878.84771,0.02082
6880.77618,0.03719
6882.70464,0.07103
6884.63311,0.08628
6886.56158,0.05847
6888.49005,0.03377
6890.41852,0.05068
6892.34699,0.04798
6894.27546,0.01119
6896.20393,-0.01603
6898.13239,0.01973
6900.06086,0.09100
6901.98933,0.10941
6903.91780,0.09653
6905.84627,0.10276
6907.77474,0.12109
6909.70321,0.12817
6911.63167,0.11493
6913.56014,0.09579
6915.48861,0.06789
6917.41708,0.04447
6919.34555,0.04688
6921.27402,0.01284
6923.20249,-0.06368
6925.13096,-0.08209
6927.05942,-0.02335
6928.98789,0.05937
6930.91636,0.11027
6932.84483,0.10530
6934.77330,0.08245
6936.70177,0.06403
6938.63024,0.05738
6940.55870,0.07976
6942.48717,0.12792
6944.41564,0.15295
6946.34411,0.09547
6948.27258,-0.00534
6950.20105,-0.05113
6952.12952,-0.01095
6954.05799,0.05833
6955.98645,0.07228
6957.91492,0.02969
6959.84339,-0.02950
6961.77186,-0.01513
6963.70033,0.09552
6965.62880,0.15499
6967.55727,0.09511
6969.48573,0.03663
6971.41420,0.08601
6973.34267,0.14110
6975.27114,0.08557
6977.19961,0.01357
6979.12808,0.00189
6981.05655,0.03620
6982.98501,0.08439
6984.91348,0.10483
6986.84195,0.10351
6988.77042,0.09554
6990.69889,0.10472
6992.62736,0.11081
6994.55583,0.07045
6996.48430,0.03887
6998.41276,0.07478
7000.34123,0.11183
7002.26970,0.10854
7004.19817,0.08115
7006.12664,0.04603
7008.05511,0.04705
7009.98358,0.07215
7011.91204,0.06965
7013.84051,0.05010
7015.76898,0.05739
7017.69745,0.11447
7019.62592,0.16662
7021.55439,0.11086
7023.48286,-0.01654
7025.41133,-0.05536
7027.33979,0.00601
7029.26826,0.01635
7031.19673,-0.04671
7033.12520,-0.05575
7035.05367,-0.00142
7036.98214,0.00993
7038.91061,-0.02973
7040.83907,-0.02855
7042.76754,0.04279
7044.69601,0.04428
7046.62448,-0.04751
7048.55295,-0.03663
7050.48142,0.04519
7052.40989,0.01198
7054.33836,-0.07307
7056.26682,-0.05815
7058.19529,0.04734
7060.12376,0.18323
7062.05223,0.28813
7063.98070,0.25603
7065.90917,0.12278
7067.83764,0.00991
7069.76610,-0.07576
7071.69457,-0.10294
7073.62304,-0.05375
7075.55151,0.02434
7077.47998,0.13841
7079.40845,0.24513
7081.33692,0.21710
7083.26539,0.12878
7085.19385,0.13313
7087.12232,0.15784
7089.05079,0.11016
7090.97926,0.06315
7092.90773,0.08095
7094.83620,0.08703
7096.76467,0.03383
7098.69313,0.02017
7100.62160,0.09183
7102.55007,0.15975
7104.47854,0.17427
7106.40701,0.14624
7108.33548,0.10788
7110.26395,0.07246
7112.19242,0.05357
7114.12088,0.07303
7116.04935,0.15055
7117.97782,0.25489
7119.90629,0.28310
7121.83476,0.23823
7123.76323,0.17711
7125.69170,0.13454
7127.62016,0.13944
7129.54863,0.14287
7131.47710,0.09647
7133.40557,0.08966
7135.33404,0.13741
7137.26251,0.10133
7139.19098,-0.03787
7141.11944,-0.14993
7143.04791,-0.14280
7144.97638,-0.03388
7146.90485,0.08199
7148.83332,0.12697
7150.76179,0.11654
7152.69026,0.10719
7154.61873,0.09367
7156.54719,0.04612
7158.47566,-0.00674
7160.40413,-0.06207
7162.33260,-0.10558
7164.26107,-0.12345
7166.18954,-0.10949
7168.11801,-0.02393
7170.04647,0.07655
7171.97494,0.08784
7173.90341,0.07930
7175.83188,0.09107
7177.76035,0.03702
7179.68882,-0.04075
7181.61729,-0.03435
7183.54576,0.04504
7185.47422,0.09989
7187.40269,0.09783
7189.33116,0.06216
7191.25963,0.01884
7193.18810,0.01117
7195.11657,0.06839
7197.04504,0.12934
7198.97350,0.09855
7200.90197,0.01887
7202.83044,0.01308
7204.75891,0.10679
7206.68738,0.12534
7208.61585,0.05299
7210.54432,0.03136
7212.47279,0.08530
7214.40125,0.16672
7216.32972,0.27723
7218.25819,0.33769
7220.18666,0.25069
7222.11513,0.16460
7224.04360,0.13755
7225.97207,0.11856
7227.90053,0.10320
7229.82900,0.13257
7231.75747,0.17584
7233.68594,0.17247
7235.61441,0.14662
7237.54288,0.09314
7239.47135,0.00858
7241.39982,-0.08436
7243.32828,-0.12742
7245.25675,-0.03750
7247.18522,0.06792
7249.11369,0.08391
7251.04216,0.07594
7252.97063,0.12150
7254.89910,0.09844
7256.82756,0.02908
7258.75603,0.07039
7260.68450,0.14679
7262.61297,0.04817
7264.54144,-0.06453
7266.46991,-0.02849
7268.39838,0.03270
7270.32685,0.02205
7272.25531,-0.05024
7274.18378,-0.07250
7276.11225,0.01272
7278.04072,0.12936
7279.96919,0.12731
7281.89766,0.00451
7283.82613,-0.05500
7285.75459,-0.06163
7287.68306,-0.09398
7289.61153,-0.06842
7291.54000,0.10373
7293.46847,0.22537
7295.39694,0.17240
7297.32541,0.09221
7299.25387,0.05024
7301.18234,0.01632
7303.11081,0.06187
7305.03928,0.18837
7306.96775,0.26351
7308.89622,0.23434
7310.82469,0.19279
7312.75316,0.21656
7314.68162,0.26077
7316.61009,0.25738
7318.53856,0.17557
7320.46703,0.06281
7322.39550,0.00676
7324.32397,0.04597
7326.25244,0.04999
7328.18090,-0.01121
7330.10937,-0.00085
7332.03784,0.05741
7333.96631,0.09711
7335.89478,0.13292
7337.82325,0.14153
7339.75172,0.07204
7341.68019,-0.03409
7343.60865,-0.04182
7345.53712,0.04931
7347.46559,0.15704
7349.39406,0.23723
7351.32253,0.26611
7353.25100,0.19970
7355.17947,0.08821
7357.10793,-0.02099
7359.03640,-0.10303
7360.96487,-0.12852
7362.89334,-0.02817
7364.82181,0.11969
7366.75028,0.12171
7368.67875,0.08492
7370.60722,0.16077
7372.53568,0.24916
7374.46415,0.21596
7376.39262,0.03494
7378.32109,-0.11400
7380.24956,-0.19497
7382.17803,-0.20312
7384.10650,-0.18685
7386.03496,-0.16997
7387.96343,-0.10443
7389.89190,-0.02842
7391.82037,0.07477
7393.74884,0.17820
7395.67731,0.18754
7397.60578,0.14830
7399.53425,0.07960
7401.46271,0.00671
7403.39118,0.03669
7405.31965,0.10556
7407.24812,0.07649
7409.17659,0.02906
7411.10506,0.01066
7413.03353,0.02611
7414.96199,0.07822
7416.89046,0.11370
7418.81893,0.05746
7420.74740,-0.01995
7422.67587,0.03053
7424.60434,0.10843
7426.53281,0.09976
7428.46128,0.07220
7430.38974,0.09452
7432.31821,0.09293
7434.24668,0.06331
7436.17515,0.09176
7438.10362,0.12840
7440.03209,0.08960
7441.96056,0.08154
7443.88902,0.15975
7445.81749,0.21200
7447.74596,0.17828
7449.67443,0.03302
7451.60290,-0.14803
7453.53137,-0.12870
7455.45984,0.03261
7457.38831,0.10422
7459.31677,-0.00797
7461.24524,-0.13093
7463.17371,-0.11307
7465.10218,-0.06506
7467.03065,-0.01223
7468.95912,0.03094
7470.88759,0.05726
7472.81605,0.13065
7474.74452,0.23074
7476.67299,0.25789
7478.60146,0.17655
7480.52993,0.08784
7482.45840,0.04539
7484.38687,0.04211
7486.31533,0.06409
7488.24380,0.05058
7490.17227,0.03734
7492.10074,0.06457
7494.02921,0.05629
7495.95768,0.01792
7497.88615,0.00955
