399.19301,0.86225
401.12148,0.52077
403.04995,0.10829
404.97842,-0.04076
406.90689,-0.03874
408.83536,0.01450
410.76382,0.09083
412.69229,0.12371
414.62076,0.10251
416.54923,0.10736
418.47770,0.18819
420.40617,0.23490
422.33464,0.19329
424.26311,0.11238
426.19157,0.05692
428.12004,0.09792
430.04851,0.15104
431.97698,0.09836
433.90545,0.03300
435.83392,0.04941
437.76239,0.09315
439.69085,0.10280
441.61932,0.08519
443.54779,0.07395
445.47626,0.08113
447.40473,0.09535
449.33320,0.09269
451.26167,0.06019
453.19013,0.00650
455.11860,-0.01074
457.04707,0.04563
458.97554,0.09311
460.90401,0.07976
462.83248,0.07027
464.76095,0.08351
466.68942,0.07985
468.61788,0.06041
470.54635,0.06982
472.47482,0.12183
474.40329,0.16520
476.33176,0.17744
478.26023,0.16861
480.18870,0.13528
482.11716,0.10161
484.04563,0.08630
485.97410,0.09923
487.90257,0.11712
489.83104,0.09892
491.75951,0.07203
493.68798,0.06057
495.61645,0.05317
497.54491,0.06727
499.47338,0.09180
501.40185,0.10543
503.33032,0.12302
505.25879,0.12311
507.18726,0.09467
509.11573,0.08369
511.04419,0.08743
512.97266,0.07672
514.90113,0.06879
516.82960,0.08880
518.75807,0.11009
520.68654,0.10989
522.61501,0.10657
524.54348,0.09376
526.47194,0.07234
528.40041,0.08916
530.32888,0.13990
532.25735,0.16110
534.18582,0.14964
536.11429,0.14953
538.04276,0.14979
539.97122,0.13653
541.89969,0.12237
543.82816,0.11050
545.75663,0.09914
547.68510,0.09759
549.61357,0.11063
551.54204,0.10239
553.47051,0.06532
555.39897,0.05339
557.32744,0.08216
559.25591,0.10749
561.18438,0.10472
563.11285,0.09091
565.04132,0.09142
566.96979,0.10728
568.89825,0.12187
570.82672,0.11854
572.75519,0.09868
574.68366,0.08702
576.61213,0.08987
578.54060,0.08991
580.46907,0.08474
582.39754,0.08749
584.32600,0.09869
586.25447,0.10750
588.18294,0.11387
590.11141,0.12627
592.03988,0.14850
593.96835,0.16638
595.89682,0.16999
597.82528,0.16644
599.75375,0.16302
601.68222,0.15726
603.61069,0.13923
605.53916,0.11619
607.46763,0.10748
609.39610,0.11855
611.32456,0.12583
613.25303,0.10691
615.18150,0.08937
617.10997,0.09861
619.03844,0.11293
620.96691,0.11628
622.89538,0.10921
624.82385,0.09858
626.75231,0.09816
628.68078,0.10832
630.60925,0.12843
632.53772,0.15092
634.46619,0.15151
636.39466,0.14136
638.32313,0.14099
640.25159,0.14070
642.18006,0.13550
644.10853,0.13107
646.03700,0.12709
647.96547,0.12383
649.89394,0.12416
651.82241,0.12674
653.75088,0.12458
655.67934,0.11996
657.60781,0.12390
659.53628,0.12945
661.46475,0.12694
663.39322,0.12110
665.32169,0.11630
667.25016,0.12447
669.17862,0.14494
671.10709,0.14738
673.03556,0.14631
674.96403,0.14607
676.89250,0.13790
678.82097,0.12305
680.74944,0.10905
682.67791,0.10295
684.60637,0.10657
686.53484,0.11604
688.46331,0.12479
690.39178,0.12697
692.32025,0.12268
694.24872,0.12095
696.17719,0.12600
698.10565,0.12934
700.03412,0.12866
701.96259,0.13103
703.89106,0.13073
705.81953,0.12313
707.74800,0.12433
709.67647,0.13361
711.60494,0.13733
713.53340,0.14084
715.46187,0.13987
717.39034,0.12901
719.31881,0.12406
721.24728,0.13079
723.17575,0.13874
725.10422,0.13960
727.03268,0.13557
728.96115,0.13526
730.88962,0.13654
732.81809,0.13348
734.74656,0.13276
736.67503,0.13825
738.60350,0.14036
740.53197,0.13683
742.46043,0.13569
744.38890,0.14022
746.31737,0.14512
748.24584,0.14294
750.17431,0.13728
752.10278,0.13357
754.03125,0.13273
755.95971,0.13647
757.88818,0.14070
759.81665,0.14457
761.74512,0.14839
763.67359,0.14607
765.60206,0.14044
767.53053,0.13986
769.45900,0.14383
771.38746,0.14389
773.31593,0.13553
775.24440,0.13045
777.17287,0.13764
779.10134,0.14474
781.02981,0.14393
782.95828,0.14198
784.88674,0.13951
786.81521,0.13204
788.74368,0.12683
790.67215,0.13273
792.60062,0.14065
794.52909,0.13646
796.45756,0.12408
798.38602,0.11978
800.31449,0.12733
802.24296,0.13714
804.17143,0.14168
806.09990,0.13898
808.02837,0.13588
809.95684,0.13903
811.88531,0.14069
813.81377,0.13447
815.74224,0.12614
817.67071,0.12107
819.59918,0.12155
821.52765,0.13014
823.45612,0.13930
825.38459,0.13967
827.31305,0.13637
829.24152,0.13520
831.16999,0.13678
833.09846,0.14204
835.02693,0.14797
836.95540,0.14857
838.88387,0.14341
840.81234,0.13706
842.74080,0.13505
844.66927,0.14149
846.59774,0.14790
848.52621,0.14448
850.45468,0.13761
852.38315,0.13616
854.31162,0.13521
856.24008,0.13106
858.16855,0.13177
860.09702,0.13822
862.02549,0.14149
863.95396,0.14126
865.88243,0.13625
867.81090,0.10663
869.73937,0.07512
871.66783,0.09518
873.59630,0.13477
875.52477,0.14462
877.45324,0.14428
879.38171,0.14683
881.31018,0.14295
883.23865,0.13822
885.16711,0.13927
887.09558,0.14127
889.02405,0.14278
890.95252,0.14636
892.88099,0.14846
894.80946,0.14804
896.73793,0.14971
898.66640,0.15096
900.59486,0.14940
902.52333,0.15023
904.45180,0.15361
906.38027,0.15948
908.30874,0.16614
910.23721,0.16451
912.16568,0.15482
914.09414,0.14498
916.02261,0.13879
917.95108,0.13978
919.87955,0.14692
921.80802,0.15224
923.73649,0.15180
925.66496,0.14669
927.59343,0.13960
929.52189,0.13497
931.45036,0.13681
933.37883,0.14293
935.30730,0.14684
937.23577,0.14786
939.16424,0.14800
941.09271,0.14885
943.02117,0.15011
944.94964,0.14717
946.87811,0.14218
948.80658,0.14399
950.73505,0.15064
952.66352,0.15177
954.59199,0.14946
956.52045,0.15192
958.44892,0.15439
960.37739,0.15204
962.30586,0.14802
964.23433,0.14606
966.16280,0.14728
968.09127,0.14948
970.01974,0.15116
971.94820,0.15060
973.87667,0.14702
975.80514,0.14360
977.73361,0.14104
979.66208,0.14000
981.59055,0.14502
983.51902,0.15085
985.44748,0.14733
987.37595,0.14242
989.30442,0.14630
991.23289,0.15188
993.16136,0.15342
995.08983,0.15311
997.01830,0.15132
998.94677,0.14890
1000.87523,0.14935
1002.80370,0.15155
1004.73217,0.15061
1006.66064,0.14877
1008.58911,0.15076
1010.51758,0.15239
1012.44605,0.14981
1014.37451,0.14990
1016.30298,0.15410
1018.23145,0.15571
1020.15992,0.15804
1022.08839,0.16466
1024.01686,0.16651
1025.94533,0.15738
1027.87380,0.14807
1029.80226,0.14834
1031.73073,0.14958
1033.65920,0.14791
1035.58767,0.14995
1037.51614,0.15417
1039.44461,0.15548
1041.37308,0.15146
1043.30154,0.14547
1045.23001,0.14631
1047.15848,0.15346
1049.08695,0.15869
1051.01542,0.16175
1052.94389,0.16550
1054.87236,0.16825
1056.80083,0.17052
1058.72929,0.17387
1060.65776,0.17246
1062.58623,0.16413
1064.51470,0.15888
1066.44317,0.15797
1068.37164,0.15567
1070.30011,0.15471
1072.22857,0.15726
1074.15704,0.16314
1076.08551,0.16959
1078.01398,0.17120
1079.94245,0.16868
1081.87092,0.16696
1083.79939,0.16589
1085.72786,0.16515
1087.65632,0.16692
1089.58479,0.16899
1091.51326,0.16992
1093.44173,0.17096
1095.37020,0.17145
1097.29867,0.17154
1099.22714,0.17755
1101.15560,0.18671
1103.08407,0.18449
1105.01254,0.17655
1106.94101,0.17547
1108.86948,0.17737
1110.79795,0.18033
1112.72642,0.18426
1114.65489,0.18402
1116.58335,0.18325
1118.51182,0.18478
1120.44029,0.18129
1122.36876,0.17401
1124.29723,0.16677
1126.22570,0.16106
1128.15417,0.16129
1130.08263,0.16170
1132.01110,0.15654
1133.93957,0.15069
1135.86804,0.14771
1137.79651,0.14746
1139.72498,0.14886
1141.65345,0.15129
1143.58191,0.15456
1145.51038,0.15763
1147.43885,0.16207
1149.36732,0.16873
1151.29579,0.17276
1153.22426,0.17214
1155.15273,0.17067
1157.08120,0.17096
1159.00966,0.17293
1160.93813,0.17455
1162.86660,0.17215
1164.79507,0.16715
1166.72354,0.16529
1168.65201,0.16676
1170.58048,0.16816
1172.50894,0.16884
1174.43741,0.17011
1176.36588,0.17011
1178.29435,0.16692
1180.22282,0.16476
1182.15129,0.16555
1184.07976,0.16689
1186.00823,0.16852
1187.93669,0.16951
1189.86516,0.16946
1191.79363,0.16985
1193.72210,0.16994
1195.65057,0.17021
1197.57904,0.17155
1199.50751,0.17172
1201.43597,0.17069
1203.36444,0.17119
1205.29291,0.17393
1207.22138,0.17584
1209.14985,0.17500
1211.07832,0.17365
1213.00679,0.17274
1214.93526,0.17141
1216.86372,0.16948
1218.79219,0.16798
1220.72066,0.16730
1222.64913,0.16772
1224.57760,0.17150
1226.50607,0.17459
1228.43454,0.17118
1230.36300,0.16722
1232.29147,0.16810
1234.21994,0.16912
1236.14841,0.16732
1238.07688,0.16594
1240.00535,0.16685
1241.93382,0.16865
1243.86229,0.16988
1245.79075,0.17102
1247.71922,0.17379
1249.64769,0.17570
1251.57616,0.17375
1253.50463,0.17095
1255.43310,0.17083
1257.36157,0.17430
1259.29003,0.18007
1261.21850,0.18334
1263.14697,0.18058
1265.07544,0.17666
1267.00391,0.17765
1268.93238,0.18153
1270.86085,0.18398
1272.78932,0.18254
1274.71778,0.17878
1276.64625,0.17730
1278.57472,0.17719
1280.50319,0.17590
1282.43166,0.17683
1284.36013,0.18138
1286.28860,0.18525
1288.21706,0.18586
1290.14553,0.18559
1292.07400,0.18649
1294.00247,0.18496
1295.93094,0.18049
1297.85941,0.17886
1299.78788,0.18065
1301.71634,0.18298
1303.64481,0.18423
1305.57328,0.18292
1307.50175,0.18080
1309.43022,0.18015
1311.35869,0.18138
1313.28716,0.18495
1315.21563,0.18844
1317.14409,0.18785
1319.07256,0.18355
1321.00103,0.17964
1322.92950,0.17793
1324.85797,0.17730
1326.78644,0.17742
1328.71491,0.17846
1330.64337,0.17899
1332.57184,0.17782
1334.50031,0.17746
1336.42878,0.18063
1338.35725,0.18520
1340.28572,0.18630
1342.21419,0.18538
1344.14266,0.18561
1346.07112,0.18386
1347.99959,0.18010
1349.92806,0.17823
1351.85653,0.17890
1353.78500,0.18008
1355.71347,0.18009
1357.64194,0.18158
1359.57040,0.18693
1361.49887,0.19220
1363.42734,0.19078
1365.35581,0.18530
1367.28428,0.18197
1369.21275,0.18088
1371.14122,0.18343
1373.06969,0.18956
1374.99815,0.19188
1376.92662,0.18896
1378.85509,0.18754
1380.78356,0.18835
1382.71203,0.18933
1384.64050,0.19087
1386.56897,0.19408
1388.49743,0.19573
1390.42590,0.19386
1392.35437,0.19435
1394.28284,0.19923
1396.21131,0.20156
1398.13978,0.19701
1400.06825,0.18944
1401.99672,0.18500
1403.92518,0.18575
1405.85365,0.19024
1407.78212,0.19430
1409.71059,0.19390
1411.63906,0.19024
1413.56753,0.18883
1415.49600,0.19146
1417.42446,0.19556
1419.35293,0.19579
1421.28140,0.19288
1423.20987,0.19161
1425.13834,0.19017
1427.06681,0.18974
1428.99528,0.19228
1430.92375,0.19501
1432.85221,0.19782
1434.78068,0.20298
1436.70915,0.20478
1438.63762,0.19819
1440.56609,0.19204
1442.49456,0.18900
1444.42303,0.18928
1446.35149,0.19304
1448.27996,0.19591
1450.20843,0.19663
1452.13690,0.19976
1454.06537,0.20707
1455.99384,0.21862
1457.92231,0.22176
1459.85077,0.21113
1461.77924,0.20608
1463.70771,0.20719
1465.63618,0.20610
1467.56465,0.20229
1469.49312,0.20451
1471.42159,0.21524
1473.35006,0.22268
1475.27852,0.21563
1477.20699,0.20548
1479.13546,0.19951
1481.06393,0.19657
1482.99240,0.19549
1484.92087,0.19985
1486.84934,0.21012
1488.77780,0.21991
1490.70627,0.21922
1492.63474,0.21312
1494.56321,0.21164
1496.49168,0.21330
1498.42015,0.21047
1500.34862,0.20423
1502.27709,0.20309
1504.20555,0.21335
1506.13402,0.23779
1508.06249,0.24321
1509.99096,0.22427
1511.91943,0.21224
1513.84790,0.21052
1515.77637,0.21786
1517.70483,0.22819
1519.63330,0.23657
1521.56177,0.23788
1523.49024,0.22862
1525.41871,0.22185
1527.34718,0.21622
1529.27565,0.21101
1531.20412,0.21321
1533.13258,0.21914
1535.06105,0.21829
1536.98952,0.21997
1538.91799,0.23643
1540.84646,0.25257
1542.77493,0.23991
1544.70340,0.22020
1546.63186,0.20704
1548.56033,0.20447
1550.48880,0.20694
1552.41727,0.20881
1554.34574,0.21323
1556.27421,0.22558
1558.20268,0.24187
1560.13115,0.22551
1562.05961,0.20611
1563.98808,0.20216
1565.91655,0.20392
1567.84502,0.20744
1569.77349,0.20984
1571.70196,0.20739
1573.63043,0.20719
1575.55889,0.21090
1577.48736,0.20925
1579.41583,0.20425
1581.34430,0.20046
1583.27277,0.19704
1585.20124,0.19553
1587.12971,0.19575
1589.05818,0.19622
1590.98664,0.19611
1592.91511,0.19541
1594.84358,0.19544
1596.77205,0.19562
1598.70052,0.19565
1600.62899,0.19623
1602.55746,0.19620
1604.48592,0.19623
1606.41439,0.19773
1608.34286,0.19870
1610.27133,0.19828
1612.19980,0.19965
1614.12827,0.20591
1616.05674,0.21536
1617.98521,0.21654
1619.91367,0.21205
1621.84214,0.21137
1623.77061,0.21255
1625.69908,0.21271
1627.62755,0.21207
1629.55602,0.20950
1631.48449,0.20835
1633.41295,0.21442
1635.34142,0.22826
1637.26989,0.23075
1639.19836,0.22136
1641.12683,0.21499
1643.05530,0.21578
1644.98377,0.22497
1646.91223,0.23434
1648.84070,0.23029
1650.76917,0.22937
1652.69764,0.24224
1654.62611,0.23959
1656.55458,0.22292
1658.48305,0.21507
1660.41152,0.21599
1662.33998,0.21889
1664.26845,0.21615
1666.19692,0.21533
1668.12539,0.22316
1670.05386,0.22946
1671.98233,0.22494
1673.91080,0.21987
1675.83926,0.21514
1677.76773,0.21209
1679.69620,0.21425
1681.62467,0.22241
1683.55314,0.23621
1685.48161,0.23699
1687.41008,0.22484
1689.33855,0.21434
1691.26701,0.20730
1693.19548,0.20753
1695.12395,0.21761
1697.05242,0.23011
1698.98089,0.23445
1700.90936,0.23082
1702.83783,0.22568
1704.76629,0.22315
1706.69476,0.21787
1708.62323,0.21100
1710.55170,0.20822
1712.48017,0.20985
1714.40864,0.21691
1716.33711,0.22611
1718.26558,0.22037
1720.19404,0.20765
1722.12251,0.20259
1724.05098,0.20213
1725.97945,0.20274
1727.90792,0.20424
1729.83639,0.20704
1731.76486,0.21265
1733.69332,0.21755
1735.62179,0.21380
1737.55026,0.21103
1739.47873,0.21227
1741.40720,0.21235
1743.33567,0.21177
1745.26414,0.21357
1747.19261,0.21608
1749.12107,0.21659
1751.04954,0.21281
1752.97801,0.20654
1754.90648,0.20349
1756.83495,0.20441
1758.76342,0.20649
1760.69189,0.20851
1762.62035,0.20688
1764.54882,0.20235
1766.47729,0.20224
1768.40576,0.20875
1770.33423,0.21821
1772.26270,0.22050
1774.19117,0.21107
1776.11964,0.20357
1778.04810,0.20327
1779.97657,0.20575
1781.90504,0.20571
1783.83351,0.20442
1785.76198,0.20395
1787.69045,0.20463
1789.61892,0.20851
1791.54738,0.21413
1793.47585,0.21462
1795.40432,0.21075
1797.33279,0.20823
1799.26126,0.20798
1801.18973,0.20689
1803.11820,0.20277
1805.04666,0.19881
1806.97513,0.19819
1808.90360,0.20006
1810.83207,0.20172
1812.76054,0.20143
1814.68901,0.20106
1816.61748,0.20046
1818.54595,0.19428
1820.47441,0.18934
1822.40288,0.19631
1824.33135,0.20450
1826.25982,0.20469
1828.18829,0.20672
1830.11676,0.20931
1832.04523,0.20576
1833.97369,0.20228
1835.90216,0.20135
1837.83063,0.20057
1839.75910,0.20067
1841.68757,0.20373
1843.61604,0.20829
1845.54451,0.20842
1847.47298,0.20438
1849.40144,0.20139
1851.32991,0.19990
1853.25838,0.19910
1855.18685,0.19934
1857.11532,0.19976
1859.04379,0.19930
1860.97226,0.19942
1862.90072,0.20092
1864.82919,0.20312
1866.75766,0.20758
1868.68613,0.21211
1870.61460,0.20984
1872.54307,0.20354
1874.47154,0.19943
1876.40001,0.19892
1878.32847,0.19953
1880.25694,0.19977
1882.18541,0.19949
1884.11388,0.19881
1886.04235,0.19945
1887.97082,0.20264
1889.89929,0.20490
1891.82775,0.20343
1893.75622,0.20201
1895.68469,0.20168
1897.61316,0.20157
1899.54163,0.20294
1901.47010,0.20369
1903.39857,0.20184
1905.32704,0.20107
1907.25550,0.20305
1909.18397,0.20352
1911.11244,0.20114
1913.04091,0.19962
1914.96938,0.20145
1916.89785,0.20557
1918.82632,0.20792
1920.75478,0.20842
1922.68325,0.20825
1924.61172,0.20497
1926.54019,0.20051
1928.46866,0.19824
1930.39713,0.19878
1932.32560,0.20088
1934.25407,0.20135
1936.18253,0.19921
1938.11100,0.19747
1940.03947,0.19969
1941.96794,0.20385
1943.89641,0.20350
1945.82488,0.20038
1947.75335,0.20048
1949.68181,0.20257
1951.61028,0.20295
1953.53875,0.20232
1955.46722,0.20250
1957.39569,0.20361
1959.32416,0.20438
1961.25263,0.20345
1963.18110,0.20262
1965.10956,0.20397
1967.03803,0.20562
1968.96650,0.20548
1970.89497,0.20427
1972.82344,0.20320
1974.75191,0.20421
1976.68038,0.20672
1978.60884,0.20629
1980.53731,0.20336
1982.46578,0.20156
1984.39425,0.20094
1986.32272,0.20105
1988.25119,0.20246
1990.17966,0.20496
1992.10812,0.20559
1994.03659,0.20285
1995.96506,0.20077
1997.89353,0.20135
1999.82200,0.20243
2001.75047,0.20167
2003.67894,0.19950
2005.60741,0.19889
2007.53587,0.20037
2009.46434,0.20175
2011.39281,0.20230
2013.32128,0.20289
2015.24975,0.20338
2017.17822,0.20177
2019.10669,0.19903
2021.03515,0.19966
2022.96362,0.20229
2024.89209,0.20226
2026.82056,0.20045
2028.74903,0.19927
2030.67750,0.19939
2032.60597,0.20107
2034.53444,0.20322
2036.46290,0.20444
2038.39137,0.20378
2040.31984,0.20194
2042.24831,0.20137
2044.17678,0.20206
2046.10525,0.20192
2048.03372,0.20071
2049.96218,0.19988
2051.89065,0.20020
2053.81912,0.20116
2055.74759,0.20204
2057.67606,0.20285
2059.60453,0.20441
2061.53300,0.20652
2063.46147,0.20758
2065.38993,0.20718
2067.31840,0.20607
2069.24687,0.20423
2071.17534,0.20208
2073.10381,0.20136
2075.03228,0.20209
2076.96075,0.20236
2078.88921,0.20210
2080.81768,0.20267
2082.74615,0.20381
2084.67462,0.20433
2086.60309,0.20406
2088.53156,0.20431
2090.46003,0.20542
2092.38850,0.20571
2094.31696,0.20543
2096.24543,0.20561
2098.17390,0.20478
2100.10237,0.20367
2102.03084,0.20465
2103.95931,0.20627
2105.88778,0.20634
2107.81624,0.20549
2109.74471,0.20505
2111.67318,0.20416
2113.60165,0.20261
2115.53012,0.20253
2117.45859,0.20356
2119.38706,0.20415
2121.31553,0.20369
2123.24399,0.20204
2125.17246,0.20109
2127.10093,0.20187
2129.02940,0.20337
2130.95787,0.20543
2132.88634,0.20717
2134.81481,0.20717
2136.74327,0.20667
2138.67174,0.20620
2140.60021,0.20435
2142.52868,0.20266
2144.45715,0.20356
2146.38562,0.20526
2148.31409,0.20542
2150.24255,0.20528
2152.17102,0.20564
2154.09949,0.20544
2156.02796,0.20432
2157.95643,0.20309
2159.88490,0.20314
2161.81337,0.20485
2163.74184,0.20689
2165.67030,0.20782
2167.59877,0.20772
2169.52724,0.20699
2171.45571,0.20574
2173.38418,0.20515
2175.31265,0.20602
2177.24112,0.20746
2179.16958,0.20811
2181.09805,0.20693
2183.02652,0.20561
2184.95499,0.20618
2186.88346,0.20636
2188.81193,0.20550
2190.74040,0.20507
2192.66887,0.20468
2194.59733,0.20472
2196.52580,0.20606
2198.45427,0.20769
2200.38274,0.20719
2202.31121,0.20524
2204.23968,0.20506
2206.16815,0.20618
2208.09661,0.20632
2210.02508,0.20510
2211.95355,0.20355
2213.88202,0.20297
2215.81049,0.20332
2217.73896,0.20354
2219.66743,0.20385
2221.59590,0.20481
2223.52436,0.20505
2225.45283,0.20398
2227.38130,0.20423
2229.30977,0.20650
2231.23824,0.20789
2233.16671,0.20693
2235.09518,0.20482
2237.02364,0.20375
2238.95211,0.20403
2240.88058,0.20441
2242.80905,0.20459
2244.73752,0.20374
2246.66599,0.20203
2248.59446,0.20130
2250.52293,0.20167
2252.45139,0.20221
2254.37986,0.20242
2256.30833,0.20243
2258.23680,0.20290
2260.16527,0.20373
2262.09374,0.20453
2264.02221,0.20500
2265.95067,0.20522
2267.87914,0.20565
2269.80761,0.20596
2271.73608,0.20626
2273.66455,0.20693
2275.59302,0.20691
2277.52149,0.20596
2279.44996,0.20547
2281.37842,0.20597
2283.30689,0.20650
2285.23536,0.20662
2287.16383,0.20568
2289.09230,0.20238
2291.02077,0.19971
2292.94924,0.20227
2294.87770,0.20793
2296.80617,0.21067
2298.73464,0.20876
2300.66311,0.20554
2302.59158,0.20275
2304.52005,0.19938
2306.44852,0.19718
2308.37699,0.19825
2310.30545,0.20003
2312.23392,0.20063
2314.16239,0.20148
2316.09086,0.20085
2318.01933,0.19856
2319.94780,0.20013
2321.87627,0.20511
2323.80473,0.20614
2325.73320,0.20214
2327.66167,0.19966
2329.59014,0.20165
2331.51861,0.20252
2333.44708,0.19919
2335.37555,0.19545
2337.30401,0.19783
2339.23248,0.20696
2341.16095,0.21009
2343.08942,0.20467
2345.01789,0.20288
2346.94636,0.20428
2348.87483,0.20316
2350.80330,0.19989
2352.73176,0.19708
2354.66023,0.19674
2356.58870,0.19465
2358.51717,0.18925
2360.44564,0.18650
2362.37411,0.18777
2364.30258,0.19627
2366.23104,0.20862
2368.15951,0.20890
2370.08798,0.20022
2372.01645,0.19654
2373.94492,0.19564
2375.87339,0.19532
2377.80186,0.19930
2379.73033,0.20450
2381.65879,0.20701
2383.58726,0.20764
2385.51573,0.20725
2387.44420,0.20661
2389.37267,0.20611
2391.30114,0.20511
2393.22961,0.20455
2395.15807,0.20477
2397.08654,0.20458
2399.01501,0.20525
2400.94348,0.20739
2402.87195,0.20853
2404.80042,0.20757
2406.72889,0.20589
2408.65736,0.20558
2410.58582,0.20685
2412.51429,0.20712
2414.44276,0.20617
2416.37123,0.20599
2418.29970,0.20565
2420.22817,0.20499
2422.15664,0.20561
2424.08510,0.20633
2426.01357,0.20642
2427.94204,0.20675
2429.87051,0.20777
2431.79898,0.20940
2433.72745,0.20967
2435.65592,0.20786
2437.58439,0.20637
2439.51285,0.20547
2441.44132,0.20469
2443.36979,0.20516
2445.29826,0.20645
2447.22673,0.20752
2449.15520,0.20798
2451.08367,0.20715
2453.01213,0.20488
2454.94060,0.20341
2456.86907,0.20496
2458.79754,0.20729
2460.72601,0.20764
2462.65448,0.20678
2464.58295,0.20625
2466.51142,0.20630
2468.43988,0.20680
2470.36835,0.20820
2472.29682,0.20953
2474.22529,0.20865
2476.15376,0.20637
2478.08223,0.20527
2480.01070,0.20568
2481.93916,0.20706
2483.86763,0.20827
2485.79610,0.20776
2487.72457,0.20638
2489.65304,0.20590
2491.58151,0.20642
2493.50998,0.20785
2495.43844,0.21011
2497.36691,0.21139
2499.29538,0.21037
2501.22385,0.20844
2503.15232,0.20699
2505.08079,0.20648
2507.00926,0.20638
2508.93773,0.20592
2510.86619,0.20600
2512.79466,0.20711
2514.72313,0.20836
2516.65160,0.20902
2518.58007,0.20871
2520.50854,0.20798
2522.43701,0.20794
2524.36547,0.20845
2526.29394,0.20857
2528.22241,0.20905
2530.15088,0.21042
2532.07935,0.21083
2534.00782,0.20922
2535.93629,0.20652
2537.86476,0.20524
2539.79322,0.20679
2541.72169,0.20829
2543.65016,0.20812
2545.57863,0.20805
2547.50710,0.20860
2549.43557,0.20902
2551.36404,0.20868
2553.29250,0.20761
2555.22097,0.20756
2557.14944,0.20878
2559.07791,0.20901
2561.00638,0.20874
2562.93485,0.20937
2564.86332,0.20955
2566.79179,0.20837
2568.72025,0.20658
2570.64872,0.20522
2572.57719,0.20577
2574.50566,0.20806
2576.43413,0.20974
2578.36260,0.21067
2580.29107,0.21129
2582.21953,0.21038
2584.14800,0.20969
2586.07647,0.21171
2588.00494,0.21475
2589.93341,0.21569
2591.86188,0.21407
2593.79035,0.21229
2595.71882,0.21196
2597.64728,0.21160
2599.57575,0.21032
2601.50422,0.20959
2603.43269,0.21003
2605.36116,0.21094
2607.28963,0.21174
2609.21810,0.21169
2611.14656,0.21030
2613.07503,0.20860
2615.00350,0.20846
2616.93197,0.21006
2618.86044,0.21205
2620.78891,0.21310
2622.71738,0.21262
2624.64585,0.21217
2626.57431,0.21354
2628.50278,0.21480
2630.43125,0.21406
2632.35972,0.21252
2634.28819,0.21137
2636.21666,0.21211
2638.14513,0.21416
2640.07359,0.21379
2642.00206,0.21167
2643.93053,0.21136
2645.85900,0.21231
2647.78747,0.21249
2649.71594,0.21154
2651.64441,0.21006
2653.57288,0.20911
2655.50134,0.20942
2657.42981,0.21114
2659.35828,0.21431
2661.28675,0.21764
2663.21522,0.21754
2665.14369,0.21432
2667.07216,0.21332
2669.00062,0.21525
2670.92909,0.21561
2672.85756,0.21348
2674.78603,0.21251
2676.71450,0.21397
2678.64297,0.21521
2680.57144,0.21549
2682.49990,0.21642
2684.42837,0.21702
2686.35684,0.21580
2688.28531,0.21480
2690.21378,0.21448
2692.14225,0.21300
2694.07072,0.21295
2695.99919,0.21595
2697.92765,0.21755
2699.85612,0.21669
2701.78459,0.21698
2703.71306,0.21879
2705.64153,0.21968
2707.57000,0.21859
2709.49847,0.21684
2711.42693,0.21586
2713.35540,0.21620
2715.28387,0.21744
2717.21234,0.21832
2719.14081,0.21857
2721.06928,0.21838
2722.99775,0.21851
2724.92622,0.21887
2726.85468,0.21779
2728.78315,0.21690
2730.71162,0.21868
2732.64009,0.22096
2734.56856,0.22093
2736.49703,0.21933
2738.42550,0.21816
2740.35396,0.21823
2742.28243,0.21917
2744.21090,0.21933
2746.13937,0.21836
2748.06784,0.21851
2749.99631,0.22015
2751.92478,0.22048
2753.85325,0.21921
2755.78171,0.21913
2757.71018,0.21960
2759.63865,0.21901
2761.56712,0.21889
2763.49559,0.22000
2765.42406,0.22136
2767.35253,0.22155
2769.28099,0.22049
2771.20946,0.21981
2773.13793,0.21981
2775.06640,0.21958
2776.99487,0.22005
2778.92334,0.22175
2780.85181,0.22269
2782.78028,0.22319
2784.70874,0.22471
2786.63721,0.22649
2788.56568,0.22754
2790.49415,0.22695
2792.42262,0.22574
2794.35109,0.22517
2796.27956,0.22391
2798.20802,0.22131
2800.13649,0.21921
2802.06496,0.21966
2803.99343,0.22147
2805.92190,0.22167
2807.85037,0.22055
2809.77884,0.22087
2811.70731,0.22238
2813.63577,0.22277
2815.56424,0.22296
2817.49271,0.22540
2819.42118,0.22837
2821.34965,0.22767
2823.27812,0.22560
2825.20659,0.22729
2827.13505,0.22900
2829.06352,0.22593
2830.99199,0.22183
2832.92046,0.22143
2834.84893,0.22446
2836.77740,0.22685
2838.70587,0.22617
2840.63433,0.22472
2842.56280,0.22483
2844.49127,0.22613
2846.41974,0.22703
2848.34821,0.22649
2850.27668,0.22530
2852.20515,0.22434
2854.13362,0.22230
2856.06208,0.21985
2857.99055,0.22012
2859.91902,0.22294
2861.84749,0.22640
2863.77596,0.22866
2865.70443,0.22843
2867.63290,0.22678
2869.56136,0.22480
2871.48983,0.22338
2873.41830,0.22370
2875.34677,0.22565
2877.27524,0.22747
2879.20371,0.22895
2881.13218,0.23018
2883.06065,0.22903
2884.98911,0.22614
2886.91758,0.22536
2888.84605,0.22678
2890.77452,0.22657
2892.70299,0.22485
2894.63146,0.22458
2896.55993,0.22525
2898.48839,0.22531
2900.41686,0.22518
2902.34533,0.22487
2904.27380,0.22332
2906.20227,0.22161
2908.13074,0.22146
2910.05921,0.22308
2911.98768,0.22506
2913.91614,0.22519
2915.84461,0.22399
2917.77308,0.22400
2919.70155,0.22570
2921.63002,0.22683
2923.55849,0.22527
2925.48696,0.22186
2927.41542,0.21999
2929.34389,0.22137
2931.27236,0.22385
2933.20083,0.22444
2935.12930,0.22302
2937.05777,0.22294
2938.98624,0.22599
2940.91471,0.22833
2942.84317,0.22756
2944.77164,0.22757
2946.70011,0.22793
2948.62858,0.22525
2950.55705,0.22367
2952.48552,0.22650
2954.41399,0.23038
2956.34245,0.23070
2958.27092,0.22691
2960.19939,0.22363
2962.12786,0.22316
2964.05633,0.22309
2965.98480,0.22329
2967.91327,0.22594
2969.84174,0.22919
2971.77020,0.23022
2973.69867,0.23024
2975.62714,0.23049
2977.55561,0.22976
2979.48408,0.22875
2981.41255,0.23064
2983.34102,0.23361
2985.26948,0.23250
2987.19795,0.23086
2989.12642,0.23377
2991.05489,0.23704
2992.98336,0.23677
2994.91183,0.23347
2996.84030,0.23021
2998.76877,0.23018
3000.69723,0.23127
3002.62570,0.23060
3004.55417,0.22938
3006.48264,0.22981
3008.41111,0.23057
3010.33958,0.22998
3012.26805,0.22964
3014.19651,0.23050
3016.12498,0.23167
3018.05345,0.23191
3019.98192,0.23080
3021.91039,0.23080
3023.83886,0.23328
3025.76733,0.23496
3027.69579,0.23489
3029.62426,0.23481
3031.55273,0.23368
3033.48120,0.23138
3035.40967,0.23071
3037.33814,0.23354
3039.26661,0.23678
3041.19508,0.23606
3043.12354,0.23365
3045.05201,0.23342
3046.98048,0.23306
3048.90895,0.23072
3050.83742,0.22982
3052.76589,0.23177
3054.69436,0.23437
3056.62282,0.23601
3058.55129,0.23595
3060.47976,0.23335
3062.40823,0.23004
3064.33670,0.23060
3066.26517,0.23424
3068.19364,0.23589
3070.12211,0.23486
3072.05057,0.23402
3073.97904,0.23516
3075.90751,0.23572
3077.83598,0.23413
3079.76445,0.23467
3081.69292,0.23612
3083.62139,0.23406
3085.54985,0.23298
3087.47832,0.23407
3089.40679,0.23168
3091.33526,0.22813
3093.26373,0.22850
3095.19220,0.23052
3097.12067,0.23089
3099.04914,0.23220
3100.97760,0.23522
3102.90607,0.23503
3104.83454,0.23334
3106.76301,0.23392
3108.69148,0.23409
3110.61995,0.23338
3112.54842,0.23286
3114.47688,0.23262
3116.40535,0.23400
3118.33382,0.23637
3120.26229,0.23722
3122.19076,0.23648
3124.11923,0.23579
3126.04770,0.23496
3127.97617,0.23455
3129.90463,0.23493
3131.83310,0.23424
3133.76157,0.23310
3135.69004,0.23358
3137.61851,0.23508
3139.54698,0.23591
3141.47545,0.23535
3143.40391,0.23494
3145.33238,0.23710
3147.26085,0.23989
3149.18932,0.23874
3151.11779,0.23457
3153.04626,0.23274
3154.97473,0.23383
3156.90320,0.23409
3158.83166,0.23347
3160.76013,0.23352
3162.68860,0.23411
3164.61707,0.23512
3166.54554,0.23554
3168.47401,0.23648
3170.40248,0.23843
3172.33094,0.23763
3174.25941,0.23579
3176.18788,0.23717
3178.11635,0.23882
3180.04482,0.23923
3181.97329,0.23982
3183.90176,0.23900
3185.83022,0.23700
3187.75869,0.23566
3189.68716,0.23503
3191.61563,0.23430
3193.54410,0.23437
3195.47257,0.23664
3197.40104,0.23729
3199.32951,0.23319
3201.25797,0.23026
3203.18644,0.23281
3205.11491,0.23544
3207.04338,0.23457
3208.97185,0.23326
3210.90032,0.23352
3212.82879,0.23634
3214.75725,0.24053
3216.68572,0.24119
3218.61419,0.23836
3220.54266,0.23652
3222.47113,0.23655
3224.39960,0.23582
3226.32807,0.23218
3228.25654,0.22756
3230.18500,0.22713
3232.11347,0.23112
3234.04194,0.23445
3235.97041,0.23535
3237.89888,0.23453
3239.82735,0.23333
3241.75582,0.23402
3243.68428,0.23622
3245.61275,0.23671
3247.54122,0.23475
3249.46969,0.23311
3251.39816,0.23134
3253.32663,0.22906
3255.25510,0.23094
3257.18357,0.23630
3259.11203,0.23766
3261.04050,0.23428
3262.96897,0.23227
3264.89744,0.23244
3266.82591,0.23120
3268.75438,0.22843
3270.68285,0.22731
3272.61131,0.22997
3274.53978,0.23526
3276.46825,0.23954
3278.39672,0.23923
3280.32519,0.23624
3282.25366,0.23448
3284.18213,0.23410
3286.11060,0.23429
3288.03906,0.23281
3289.96753,0.22914
3291.89600,0.22726
3293.82447,0.22747
3295.75294,0.22738
3297.68141,0.22705
3299.60988,0.22629
3301.53834,0.22702
3303.46681,0.22911
3305.39528,0.22898
3307.32375,0.23003
3309.25222,0.23353
3311.18069,0.23287
3313.10916,0.22777
3315.03763,0.22359
3316.96609,0.22394
3318.89456,0.22831
3320.82303,0.23154
3322.75150,0.23065
3324.67997,0.22846
3326.60844,0.22682
3328.53691,0.22765
3330.46537,0.23597
3332.39384,0.24596
3334.32231,0.24615
3336.25078,0.24014
3338.17925,0.23666
3340.10772,0.23690
3342.03619,0.23807
3343.96466,0.23756
3345.89312,0.23474
3347.82159,0.23190
3349.75006,0.23189
3351.67853,0.23171
3353.60700,0.23032
3355.53547,0.23261
3357.46394,0.23656
3359.39240,0.23816
3361.32087,0.23769
3363.24934,0.23520
3365.17781,0.23373
3367.10628,0.23495
3369.03475,0.23593
3370.96322,0.23615
3372.89168,0.23687
3374.82015,0.23895
3376.74862,0.24097
3378.67709,0.24005
3380.60556,0.23578
3382.53403,0.23313
3384.46250,0.23697
3386.39097,0.24162
3388.31943,0.24134
3390.24790,0.24018
3392.17637,0.24045
3394.10484,0.23940
3396.03331,0.23644
3397.96178,0.23334
3399.89025,0.23154
3401.81871,0.23077
3403.74718,0.22827
3405.67565,0.22528
3407.60412,0.22653
3409.53259,0.23069
3411.46106,0.23100
3413.38953,0.22643
3415.31800,0.22531
3417.24646,0.23113
3419.17493,0.23637
3421.10340,0.23504
3423.03187,0.23027
3424.96034,0.22670
3426.88881,0.22447
3428.81728,0.22484
3430.74574,0.22853
3432.67421,0.22965
3434.60268,0.22422
3436.53115,0.21958
3438.45962,0.22192
3440.38809,0.22573
3442.31656,0.22643
3444.24503,0.22741
3446.17349,0.23066
3448.10196,0.23116
3450.03043,0.22482
3451.95890,0.21737
3453.88737,0.21532
3455.81584,0.21659
3457.74431,0.21711
3459.67277,0.21692
3461.60124,0.21656
3463.52971,0.21699
3465.45818,0.21826
3467.38665,0.21780
3469.31512,0.21702
3471.24359,0.21786
3473.17206,0.21781
3475.10052,0.21715
3477.02899,0.21622
3478.95746,0.21393
3480.88593,0.21165
3482.81440,0.21034
3484.74287,0.21042
3486.67134,0.21076
3488.59980,0.21083
3490.52827,0.21188
3492.45674,0.21151
3494.38521,0.20752
3496.31368,0.20441
3498.24215,0.20608
3500.17062,0.20990
3502.09909,0.21504
3504.02755,0.21945
3505.95602,0.21761
3507.88449,0.20966
3509.81296,0.19969
3511.74143,0.19330
3513.66990,0.19190
3515.59837,0.19282
3517.52683,0.19431
3519.45530,0.19626
3521.38377,0.19882
3523.31224,0.19924
3525.24071,0.19632
3527.16918,0.19486
3529.09765,0.19671
3531.02611,0.19612
3532.95458,0.19380
3534.88305,0.19395
3536.81152,0.19171
3538.73999,0.18642
3540.66846,0.18638
3542.59693,0.19196
3544.52540,0.19614
3546.45386,0.19564
3548.38233,0.19227
3550.31080,0.18916
3552.23927,0.18935
3554.16774,0.19176
3556.09621,0.19066
3558.02468,0.18623
3559.95314,0.18572
3561.88161,0.19009
3563.81008,0.19523
3565.73855,0.19984
3567.66702,0.19770
3569.59549,0.18896
3571.52396,0.18223
3573.45243,0.17745
3575.38089,0.17305
3577.30936,0.17158
3579.23783,0.17364
3581.16630,0.17575
3583.09477,0.17695
3585.02324,0.17950
3586.95171,0.18428
3588.88017,0.18417
3590.80864,0.17827
3592.73711,0.17572
3594.66558,0.17873
3596.59405,0.18110
3598.52252,0.18005
3600.45099,0.17894
3602.37946,0.17761
3604.30792,0.17415
3606.23639,0.17133
3608.16486,0.17194
3610.09333,0.17321
3612.02180,0.17319
3613.95027,0.17197
3615.87874,0.16985
3617.80720,0.16986
3619.73567,0.17060
3621.66414,0.16696
3623.59261,0.16179
3625.52108,0.15913
3627.44955,0.16020
3629.37802,0.16169
3631.30649,0.15909
3633.23495,0.15540
3635.16342,0.15324
3637.09189,0.15490
3639.02036,0.15827
3640.94883,0.15891
3642.87730,0.15801
3644.80577,0.16015
3646.73423,0.16582
3648.66270,0.16702
3650.59117,0.15692
3652.51964,0.14828
3654.44811,0.14611
3656.37658,0.15038
3658.30505,0.15570
3660.23352,0.15559
3662.16198,0.15192
3664.09045,0.14867
3666.01892,0.14867
3667.94739,0.15418
3669.87586,0.16226
3671.80433,0.16555
3673.73280,0.16899
3675.66126,0.17026
3677.58973,0.16226
3679.51820,0.15420
3681.44667,0.14889
3683.37514,0.14583
3685.30361,0.14545
3687.23208,0.14797
3689.16055,0.15301
3691.08901,0.15578
3693.01748,0.15284
3694.94595,0.14926
3696.87442,0.14738
3698.80289,0.14591
3700.73136,0.14404
3702.65983,0.14217
3704.58829,0.14264
3706.51676,0.14616
3708.44523,0.15427
3710.37370,0.16620
3712.30217,0.16617
3714.23064,0.15278
3716.15911,0.14414
3718.08757,0.14389
3720.01604,0.14589
3721.94451,0.14655
3723.87298,0.14947
3725.80145,0.15216
3727.72992,0.14994
3729.65839,0.14972
3731.58686,0.15587
3733.51532,0.16006
3735.44379,0.15590
3737.37226,0.15231
3739.30073,0.15316
3741.22920,0.15742
3743.15767,0.16458
3745.08614,0.16891
3747.01460,0.16616
3748.94307,0.16233
3750.87154,0.15873
3752.80001,0.15555
3754.72848,0.15600
3756.65695,0.15728
3758.58542,0.15309
3760.51389,0.14600
3762.44235,0.14334
3764.37082,0.14387
3766.29929,0.14499
3768.22776,0.14626
3770.15623,0.14712
3772.08470,0.14453
3774.01317,0.14006
3775.94163,0.13896
3777.87010,0.14369
3779.79857,0.14793
3781.72704,0.14862
3783.65551,0.15028
3785.58398,0.14778
3787.51245,0.13975
3789.44092,0.13285
3791.36938,0.12937
3793.29785,0.13110
3795.22632,0.13846
3797.15479,0.14619
3799.08326,0.15080
3801.01173,0.15574
3802.94020,0.15705
3804.86866,0.15455
3806.79713,0.15284
3808.72560,0.15082
3810.65407,0.14760
3812.58254,0.14254
3814.51101,0.13748
3816.43948,0.13523
3818.36795,0.13589
3820.29641,0.13882
3822.22488,0.13850
3824.15335,0.13646
3826.08182,0.13733
3828.01029,0.13707
3829.93876,0.13604
3831.86723,0.13739
3833.79569,0.13872
3835.72416,0.13927
3837.65263,0.14449
3839.58110,0.15266
3841.50957,0.15116
3843.43804,0.14110
3845.36651,0.13283
3847.29498,0.13137
3849.22344,0.13513
3851.15191,0.14230
3853.08038,0.14837
3855.00885,0.14592
3856.93732,0.14290
3858.86579,0.14001
3860.79426,0.13658
3862.72272,0.13589
3864.65119,0.13712
3866.57966,0.13767
3868.50813,0.13886
3870.43660,0.13945
3872.36507,0.13921
3874.29354,0.13937
3876.22200,0.13883
3878.15047,0.13884
3880.07894,0.13776
3882.00741,0.13299
3883.93588,0.12902
3885.86435,0.12849
3887.79282,0.12939
3889.72129,0.13059
3891.64975,0.13224
3893.57822,0.13011
3895.50669,0.12677
3897.43516,0.12951
3899.36363,0.13732
3901.29210,0.14279
3903.22057,0.14455
3905.14903,0.14197
3907.07750,0.13599
3909.00597,0.13210
3910.93444,0.12936
3912.86291,0.12670
3914.79138,0.12831
3916.71985,0.13065
3918.64832,0.12749
3920.57678,0.12479
3922.50525,0.12554
3924.43372,0.12527
3926.36219,0.12278
3928.29066,0.12303
3930.21913,0.12758
3932.14760,0.12896
3934.07606,0.12354
3936.00453,0.11844
3937.93300,0.11671
3939.86147,0.11709
3941.78994,0.12005
3943.71841,0.12213
3945.64688,0.12055
3947.57535,0.11882
3949.50381,0.11744
3951.43228,0.11762
3953.36075,0.11997
3955.28922,0.12087
3957.21769,0.11830
3959.14616,0.11403
3961.07463,0.11346
3963.00309,0.11706
3964.93156,0.11981
3966.86003,0.11960
3968.78850,0.11716
3970.71697,0.11579
3972.64544,0.11748
3974.57391,0.11922
3976.50238,0.11772
3978.43084,0.11374
3980.35931,0.10961
3982.28778,0.10820
3984.21625,0.11172
3986.14472,0.11606
3988.07319,0.11738
3990.00166,0.11780
3991.93012,0.11729
3993.85859,0.11487
3995.78706,0.11309
3997.71553,0.11336
3999.64400,0.11426
4001.57247,0.11409
4003.50094,0.11270
4005.42941,0.11145
4007.35787,0.11396
4009.28634,0.12019
4011.21481,0.12257
4013.14328,0.12040
4015.07175,0.11977
4017.00022,0.12029
4018.92869,0.11892
4020.85715,0.11648
4022.78562,0.11435
4024.71409,0.11281
4026.64256,0.11190
4028.57103,0.11159
4030.49950,0.11180
4032.42797,0.11079
4034.35644,0.10757
4036.28490,0.10510
4038.21337,0.10452
4040.14184,0.10469
4042.07031,0.10607
4043.99878,0.10807
4045.92725,0.10904
4047.85572,0.10812
4049.78418,0.10614
4051.71265,0.10657
4053.64112,0.10937
4055.56959,0.10927
4057.49806,0.10512
4059.42653,0.10213
4061.35500,0.10272
4063.28346,0.10458
4065.21193,0.10588
4067.14040,0.10474
4069.06887,0.10234
4070.99734,0.10254
4072.92581,0.10535
4074.85428,0.10829
4076.78275,0.10730
4078.71121,0.10075
4080.63968,0.09540
4082.56815,0.09634
4084.49662,0.09825
4086.42509,0.09898
4088.35356,0.10125
4090.28203,0.10171
4092.21049,0.10075
4094.13896,0.10317
4096.06743,0.10632
4097.99590,0.10494
4099.92437,0.10118
4101.85284,0.10102
4103.78131,0.10212
4105.70978,0.09940
4107.63824,0.09576
4109.56671,0.09384
4111.49518,0.09291
4113.42365,0.09430
4115.35212,0.09896
4117.28059,0.10283
4119.20906,0.10172
4121.13752,0.09906
4123.06599,0.09768
4124.99446,0.09422
4126.92293,0.09159
4128.85140,0.09447
4130.77987,0.09697
4132.70834,0.09540
4134.63681,0.09377
4136.56527,0.09413
4138.49374,0.09735
4140.42221,0.10196
4142.35068,0.10263
4144.27915,0.09970
4146.20762,0.09634
4148.13609,0.09162
4150.06455,0.08757
4151.99302,0.08753
4153.92149,0.08867
4155.84996,0.08665
4157.77843,0.08357
4159.70690,0.08456
4161.63537,0.08844
4163.56384,0.09215
4165.49230,0.09451
4167.42077,0.09253
4169.34924,0.08687
4171.27771,0.08321
4173.20618,0.08451
4175.13465,0.08763
4177.06312,0.08827
4178.99158,0.08657
4180.92005,0.08315
4182.84852,0.07988
4184.77699,0.08071
4186.70546,0.08259
4188.63393,0.08241
4190.56240,0.08387
4192.49087,0.08568
4194.41933,0.08439
4196.34780,0.08208
4198.27627,0.08057
4200.20474,0.08070
4202.13321,0.08249
4204.06168,0.08397
4205.99015,0.08273
4207.91861,0.07920
4209.84708,0.07789
4211.77555,0.07994
4213.70402,0.08059
4215.63249,0.07840
4217.56096,0.07840
4219.48943,0.08094
4221.41789,0.08135
4223.34636,0.08049
4225.27483,0.08002
4227.20330,0.07975
4229.13177,0.07993
4231.06024,0.07926
4232.98871,0.07785
4234.91718,0.07748
4236.84564,0.07815
4238.77411,0.07938
4240.70258,0.08045
4242.63105,0.07756
4244.55952,0.07122
4246.48799,0.06847
4248.41646,0.07063
4250.34492,0.07203
4252.27339,0.07106
4254.20186,0.07122
4256.13033,0.07219
4258.05880,0.07144
4259.98727,0.07014
4261.91574,0.06958
4263.84421,0.06911
4265.77267,0.06874
4267.70114,0.06800
4269.62961,0.06683
4271.55808,0.06652
4273.48655,0.06496
4275.41502,0.06213
4277.34349,0.06167
4279.27195,0.06204
4281.20042,0.06312
4283.12889,0.06649
4285.05736,0.06757
4286.98583,0.06644
4288.91430,0.06611
4290.84277,0.06324
4292.77124,0.06136
4294.69970,0.06476
4296.62817,0.06693
4298.55664,0.06525
4300.48511,0.06447
4302.41358,0.06709
4304.34205,0.07016
4306.27052,0.06985
4308.19898,0.06580
4310.12745,0.06111
4312.05592,0.05811
4313.98439,0.05463
4315.91286,0.05045
4317.84133,0.04890
4319.76980,0.05097
4321.69827,0.05312
4323.62673,0.05191
4325.55520,0.04903
4327.48367,0.04637
4329.41214,0.04449
4331.34061,0.04546
4333.26908,0.04779
4335.19755,0.04654
4337.12601,0.04394
4339.05448,0.04575
4340.98295,0.04784
4342.91142,0.04653
4344.83989,0.04789
4346.76836,0.05380
4348.69683,0.05803
4350.62530,0.05528
4352.55376,0.04860
4354.48223,0.04555
4356.41070,0.04574
4358.33917,0.04485
4360.26764,0.04375
4362.19611,0.04412
4364.12458,0.04484
4366.05304,0.04480
4367.98151,0.04297
4369.90998,0.03923
4371.83845,0.03713
4373.76692,0.03797
4375.69539,0.03852
4377.62386,0.03803
4379.55232,0.03979
4381.48079,0.04279
4383.40926,0.04034
4385.33773,0.03445
4387.26620,0.03226
4389.19467,0.03227
4391.12314,0.03426
4393.05161,0.04026
4394.98007,0.04429
4396.90854,0.04330
4398.83701,0.04252
4400.76548,0.04285
4402.69395,0.04199
4404.62242,0.04141
4406.55089,0.03925
4408.47935,0.03460
4410.40782,0.03219
4412.33629,0.03206
4414.26476,0.03369
4416.19323,0.03627
4418.12170,0.03522
4420.05017,0.03249
4421.97864,0.03141
4423.90710,0.03236
4425.83557,0.03481
4427.76404,0.03342
4429.69251,0.02809
4431.62098,0.02536
4433.54945,0.02550
4435.47792,0.02648
4437.40638,0.02632
4439.33485,0.02408
4441.26332,0.02437
4443.19179,0.02655
4445.12026,0.02624
4447.04873,0.02488
4448.97720,0.02346
4450.90567,0.02245
4452.83413,0.02488
4454.76260,0.03063
4456.69107,0.03391
4458.61954,0.03289
4460.54801,0.03161
4462.47648,0.02920
4464.40495,0.02755
4466.33341,0.02835
4468.26188,0.02398
4470.19035,0.01705
4472.11882,0.01502
4474.04729,0.01522
4475.97576,0.01865
4477.90423,0.02438
4479.83270,0.02387
4481.76116,0.02053
4483.68963,0.02324
4485.61810,0.02675
4487.54657,0.02512
4489.47504,0.02226
4491.40351,0.01846
4493.33198,0.01311
4495.26044,0.01306
4497.18891,0.01845
4499.11738,0.01877
4501.04585,0.01245
4502.97432,0.00931
4504.90279,0.01101
4506.83126,0.00992
4508.75973,0.00796
4510.68819,0.00972
4512.61666,0.01056
4514.54513,0.01063
4516.47360,0.01137
4518.40207,0.01105
4520.33054,0.01052
4522.25901,0.00636
4524.18747,0.00064
4526.11594,0.00017
4528.04441,0.00114
4529.97288,0.00335
4531.90135,0.01126
4533.82982,0.01913
4535.75829,0.02130
4537.68676,0.01852
4539.61522,0.01476
4541.54369,0.01432
4543.47216,0.01402
4545.40063,0.01036
4547.32910,0.00875
4549.25757,0.01135
4551.18604,0.01207
4553.11450,0.01092
4555.04297,0.01178
4556.97144,0.01163
4558.89991,0.00832
4560.82838,0.00765
4562.75685,0.01276
4564.68532,0.01430
4566.61378,0.00787
4568.54225,0.00091
4570.47072,-0.00296
4572.39919,-0.00186
4574.32766,0.00299
4576.25613,0.00749
4578.18460,0.01070
4580.11307,0.00764
4582.04153,0.00214
4583.97000,0.00794
4585.89847,0.01856
4587.82694,0.01962
4589.75541,0.01450
4591.68388,0.01076
4593.61235,0.00853
4595.54081,0.00598
4597.46928,0.00388
4599.39775,0.00362
4601.32622,0.00472
4603.25469,0.00714
4605.18316,0.01052
4607.11163,0.01077
4609.04010,0.00783
4610.96856,0.00819
4612.89703,0.01113
4614.82550,0.01011
4616.75397,0.00763
4618.68244,0.01057
4620.61091,0.01446
4622.53938,0.01157
4624.46784,0.00507
4626.39631,0.00349
4628.32478,0.00733
4630.25325,0.00915
4632.18172,0.00989
4634.11019,0.01132
4636.03866,0.00880
4637.96713,0.00839
4639.89559,0.01291
4641.82406,0.01307
4643.75253,0.01204
4645.68100,0.01602
4647.60947,0.01679
4649.53794,0.01094
4651.46641,0.00458
4653.39487,0.00107
4655.32334,-0.00176
4657.25181,-0.00592
4659.18028,-0.00574
4661.10875,-0.00068
4663.03722,-0.00071
4664.96569,-0.00679
4666.89416,-0.00900
4668.82262,-0.00394
4670.75109,0.00394
4672.67956,0.00980
4674.60803,0.00863
4676.53650,0.00021
4678.46497,-0.00694
4680.39344,-0.00431
4682.32190,0.00415
4684.25037,0.00851
4686.17884,0.00782
4688.10731,0.00778
4690.03578,0.01167
4691.96425,0.01400
4693.89272,0.00919
4695.82119,0.00441
4697.74965,0.00607
4699.67812,0.00810
4701.60659,0.00695
4703.53506,0.00611
4705.46353,0.00631
4707.39200,0.00539
4709.32047,0.00476
4711.24893,0.00684
4713.17740,0.00625
4715.10587,0.00168
4717.03434,-0.00017
4718.96281,0.00191
4720.89128,0.00758
4722.81975,0.01369
4724.74821,0.01287
4726.67668,0.00391
4728.60515,-0.00553
4730.53362,-0.00792
4732.46209,-0.00786
4734.39056,-0.00828
4736.31903,-0.00202
4738.24750,0.00597
4740.17596,0.00776
4742.10443,0.00726
4744.03290,0.00537
4745.96137,0.00156
4747.88984,-0.00210
4749.81831,-0.00298
4751.74678,0.00063
4753.67524,0.00421
4755.60371,0.00559
4757.53218,0.00528
4759.46065,0.00619
4761.38912,0.01274
4763.31759,0.01829
4765.24606,0.01858
4767.17453,0.01383
4769.10299,0.00155
4771.03146,-0.00732
4772.95993,-0.00253
4774.88840,0.00909
4776.81687,0.01837
4778.74534,0.01971
4780.67381,0.01513
4782.60227,0.00993
4784.53074,0.00117
4786.45921,-0.00734
4788.38768,-0.00480
4790.31615,0.00408
4792.24462,0.00810
4794.17309,0.00589
4796.10156,0.00173
4798.03002,-0.00231
4799.95849,-0.00449
4801.88696,0.00021
4803.81543,0.00977
4805.74390,0.01446
4807.67237,0.01258
4809.60084,0.00962
4811.52930,0.00865
4813.45777,0.01027
4815.38624,0.00847
4817.31471,-0.00421
4819.24318,-0.01596
4821.17165,-0.01407
4823.10012,-0.00541
4825.02859,0.00568
4826.95705,0.01596
4828.88552,0.01639
4830.81399,0.01051
4832.74246,0.00601
4834.67093,0.00107
4836.59940,-0.00180
4838.52787,0.00330
4840.45633,0.00882
4842.38480,0.00697
4844.31327,0.00153
4846.24174,-0.00355
4848.17021,-0.00603
4850.09868,-0.00081
4852.02715,0.01168
4853.95562,0.01999
4855.88408,0.02071
4857.81255,0.02076
4859.74102,0.01894
4861.66949,0.01391
4863.59796,0.01117
4865.52643,0.01020
4867.45490,0.01039
4869.38336,0.01277
4871.31183,0.01104
4873.24030,0.00351
4875.16877,-0.00328
4877.09724,-0.00243
4879.02571,0.00613
4880.95418,0.01033
4882.88265,0.00663
4884.81111,0.00271
4886.73958,-0.00147
4888.66805,-0.00288
4890.59652,0.00034
4892.52499,0.00250
4894.45346,0.01020
4896.38193,0.02291
4898.31039,0.02197
4900.23886,0.00922
4902.16733,0.00162
4904.09580,-0.00072
4906.02427,-0.00251
4907.95274,-0.00186
4909.88121,0.00083
4911.80967,0.00488
4913.73814,0.01065
4915.66661,0.01247
4917.59508,0.00361
4919.52355,-0.00778
4921.45202,-0.00573
4923.38049,0.00501
4925.30896,0.01185
4927.23742,0.01585
4929.16589,0.01400
4931.09436,0.00525
4933.02283,0.00064
4934.95130,0.00343
4936.87977,0.00960
4938.80824,0.01224
4940.73670,0.00937
4942.66517,0.00964
4944.59364,0.01288
4946.52211,0.01095
4948.45058,0.00545
4950.37905,0.00883
4952.30752,0.01850
4954.23599,0.01494
4956.16445,0.00175
4958.09292,-0.00460
4960.02139,-0.00512
4961.94986,-0.00360
4963.87833,0.00025
4965.80680,0.00212
4967.73527,0.00384
4969.66373,0.01313
4971.59220,0.02578
4973.52067,0.02798
4975.44914,0.01754
4977.37761,0.00761
4979.30608,0.00569
4981.23455,0.01130
4983.16302,0.02056
4985.09148,0.02446
4987.01995,0.01911
4988.94842,0.00913
4990.87689,0.00392
4992.80536,0.00541
4994.73383,0.00674
4996.66230,0.00733
4998.59076,0.00698
5000.51923,0.00531
5002.44770,0.00776
5004.37617,0.01217
5006.30464,0.01322
5008.23311,0.01199
5010.16158,0.00964
5012.09005,0.01255
5014.01851,0.02012
5015.94698,0.02193
5017.87545,0.02178
5019.80392,0.02303
5021.73239,0.02103
5023.66086,0.02216
5025.58933,0.02797
5027.51779,0.03086
5029.44626,0.03202
5031.37473,0.03153
5033.30320,0.02752
5035.23167,0.02010
5037.16014,0.00909
5039.08861,0.00302
5041.01708,0.00764
5042.94554,0.02063
5044.87401,0.03470
5046.80248,0.03664
5048.73095,0.02887
5050.65942,0.01976
5052.58789,0.01363
5054.51636,0.01513
5056.44482,0.01459
5058.37329,0.01130
5060.30176,0.01774
5062.23023,0.02809
5064.15870,0.03190
5066.08717,0.02938
5068.01564,0.02453
5069.94410,0.02155
5071.87257,0.01831
5073.80104,0.01511
5075.72951,0.01890
5077.65798,0.02525
5079.58645,0.02732
5081.51492,0.03172
5083.44339,0.03920
5085.37185,0.03984
5087.30032,0.03265
5089.22879,0.02492
5091.15726,0.02049
5093.08573,0.01994
5095.01420,0.01885
5096.94267,0.01285
5098.87113,0.00844
5100.79960,0.01588
5102.72807,0.03049
5104.65654,0.03597
5106.58501,0.03256
5108.51348,0.03370
5110.44195,0.03754
5112.37042,0.03853
5114.29888,0.04412
5116.22735,0.05089
5118.15582,0.04636
5120.08429,0.03496
5122.01276,0.02556
5123.94123,0.01848
5125.86970,0.01345
5127.79816,0.01273
5129.72663,0.01878
5131.65510,0.02856
5133.58357,0.03360
5135.51204,0.03069
5137.44051,0.02972
5139.36898,0.03517
5141.29745,0.03523
5143.22591,0.03346
5145.15438,0.04009
5147.08285,0.03737
5149.01132,0.02337
5150.93979,0.01916
5152.86826,0.02598
5154.79673,0.04036
5156.72519,0.05233
5158.65366,0.05065
5160.58213,0.04765
5162.51060,0.04507
5164.43907,0.03705
5166.36754,0.03559
5168.29601,0.04594
5170.22448,0.05998
5172.15294,0.06657
5174.08141,0.06100
5176.00988,0.05300
5177.93835,0.04908
5179.86682,0.04382
5181.79529,0.03483
5183.72376,0.02883
5185.65222,0.03336
5187.58069,0.04474
5189.50916,0.05273
5191.43763,0.05243
5193.36610,0.04800
5195.29457,0.04482
5197.22304,0.04041
5199.15151,0.03616
5201.07997,0.03813
5203.00844,0.04218
5204.93691,0.03792
5206.86538,0.02704
5208.79385,0.02538
5210.72232,0.02920
5212.65079,0.02656
5214.57925,0.02385
5216.50772,0.02902
5218.43619,0.03651
5220.36466,0.03322
5222.29313,0.02079
5224.22160,0.01815
5226.15007,0.02985
5228.07854,0.03891
5230.00700,0.03835
5231.93547,0.03417
5233.86394,0.03130
5235.79241,0.03428
5237.72088,0.04486
5239.64935,0.05202
5241.57782,0.04938
5243.50628,0.04680
5245.43475,0.04297
5247.36322,0.02847
5249.29169,0.01666
5251.22016,0.02127
5253.14863,0.03364
5255.07710,0.04481
5257.00556,0.05052
5258.93403,0.05111
5260.86250,0.04977
5262.79097,0.04733
5264.71944,0.04408
5266.64791,0.04382
5268.57638,0.05145
5270.50485,0.05955
5272.43331,0.05765
5274.36178,0.05521
5276.29025,0.05828
5278.21872,0.05734
5280.14719,0.05416
5282.07566,0.05956
5284.00413,0.07129
5285.93259,0.07816
5287.86106,0.07532
5289.78953,0.06973
5291.71800,0.06636
5293.64647,0.05530
5295.57494,0.04084
5297.50341,0.03700
5299.43188,0.03597
5301.36034,0.03366
5303.28881,0.04190
5305.21728,0.06347
5307.14575,0.07931
5309.07422,0.06204
5311.00269,0.03294
5312.93116,0.02785
5314.85962,0.03767
5316.78809,0.04779
5318.71656,0.06092
5320.64503,0.07289
5322.57350,0.07247
5324.50197,0.05872
5326.43044,0.04653
5328.35891,0.04830
5330.28737,0.05638
5332.21584,0.06000
5334.14431,0.06414
5336.07278,0.07389
5338.00125,0.07921
5339.92972,0.07054
5341.85819,0.05882
5343.78665,0.06289
5345.71512,0.07761
5347.64359,0.07715
5349.57206,0.06771
5351.50053,0.06599
5353.42900,0.06760
5355.35747,0.06575
5357.28594,0.06905
5359.21440,0.07624
5361.14287,0.07466
5363.07134,0.06448
5364.99981,0.06221
5366.92828,0.07093
5368.85675,0.07555
5370.78522,0.07550
5372.71368,0.08296
5374.64215,0.09282
5376.57062,0.09128
5378.49909,0.08796
5380.42756,0.09292
5382.35603,0.09804
5384.28450,0.09144
5386.21297,0.07448
5388.14143,0.06373
5390.06990,0.06416
5391.99837,0.06786
5393.92684,0.06117
5395.85531,0.04898
5397.78378,0.05544
5399.71225,0.07428
5401.64071,0.07894
5403.56918,0.07085
5405.49765,0.07191
5407.42612,0.08293
5409.35459,0.09325
5411.28306,0.10031
5413.21153,0.09898
5415.13999,0.08107
5417.06846,0.05952
5418.99693,0.05065
5420.92540,0.04915
5422.85387,0.04505
5424.78234,0.04461
5426.71081,0.05293
5428.63928,0.05932
5430.56774,0.06215
5432.49621,0.06770
5434.42468,0.06533
5436.35315,0.05884
5438.28162,0.06988
5440.21009,0.09006
5442.13856,0.09611
5444.06702,0.09293
5445.99549,0.08773
5447.92396,0.07738
5449.85243,0.07011
5451.78090,0.06831
5453.70937,0.06633
5455.63784,0.06380
5457.56631,0.06258
5459.49477,0.06495
5461.42324,0.07734
5463.35171,0.08814
5465.28018,0.08399
5467.20865,0.07781
5469.13712,0.07588
5471.06559,0.07689
5472.99405,0.08260
5474.92252,0.08664
5476.85099,0.08174
5478.77946,0.07443
5480.70793,0.07346
5482.63640,0.07582
5484.56487,0.07267
5486.49334,0.06046
5488.42180,0.05245
5490.35027,0.06354
5492.27874,0.08054
5494.20721,0.09039
5496.13568,0.09668
5498.06415,0.09228
5499.99262,0.08516
5501.92108,0.08942
5503.84955,0.08395
5505.77802,0.06676
5507.70649,0.06390
5509.63496,0.07595
5511.56343,0.08512
5513.49190,0.07859
5515.42037,0.06586
5517.34883,0.06246
5519.27730,0.06285
5521.20577,0.06515
5523.13424,0.06590
5525.06271,0.05614
5526.99118,0.04817
5528.91965,0.05248
5530.84811,0.06416
5532.77658,0.07631
5534.70505,0.08333
5536.63352,0.08518
5538.56199,0.08128
5540.49046,0.07660
5542.41893,0.08656
5544.34740,0.10613
5546.27586,0.10993
5548.20433,0.09354
5550.13280,0.07530
5552.06127,0.06922
5553.98974,0.07400
5555.91821,0.07555
5557.84668,0.06938
5559.77514,0.06580
5561.70361,0.07137
5563.63208,0.07573
5565.56055,0.07244
5567.48902,0.08209
5569.41749,0.09886
5571.34596,0.09159
5573.27443,0.06752
5575.20289,0.05664
5577.13136,0.06843
5579.05983,0.08366
5580.98830,0.08173
5582.91677,0.06669
5584.84524,0.05299
5586.77371,0.05619
5588.70217,0.07869
5590.63064,0.09636
5592.55911,0.09504
5594.48758,0.08709
5596.41605,0.09173
5598.34452,0.10400
5600.27299,0.10001
5602.20145,0.08277
5604.12992,0.06776
5606.05839,0.05955
5607.98686,0.06653
5609.91533,0.08389
5611.84380,0.09068
5613.77227,0.08487
5615.70074,0.08338
5617.62920,0.09040
5619.55767,0.09243
5621.48614,0.08913
5623.41461,0.09468
5625.34308,0.10476
5627.27155,0.10900
5629.20002,0.10599
5631.12848,0.09702
5633.05695,0.08690
5634.98542,0.08275
5636.91389,0.09184
5638.84236,0.09877
5640.77083,0.08637
5642.69930,0.07162
5644.62777,0.06031
5646.55623,0.04940
5648.48470,0.06008
5650.41317,0.08184
5652.34164,0.08013
5654.27011,0.06708
5656.19858,0.07453
5658.12705,0.09431
5660.05551,0.09512
5661.98398,0.08191
5663.91245,0.07691
5665.84092,0.07953
5667.76939,0.09108
5669.69786,0.10252
5671.62633,0.09430
5673.55480,0.07617
5675.48326,0.07122
5677.41173,0.08363
5679.34020,0.09992
5681.26867,0.10587
5683.19714,0.09954
5685.12561,0.09652
5687.05408,0.10249
5688.98254,0.09912
5690.91101,0.08011
5692.83948,0.06107
5694.76795,0.05700
5696.69642,0.06633
5698.62489,0.07528
5700.55336,0.08203
5702.48183,0.08949
5704.41029,0.09329
5706.33876,0.08948
5708.26723,0.08993
5710.19570,0.11133
5712.12417,0.13136
5714.05264,0.12277
5715.98111,0.10182
5717.90957,0.09091
5719.83804,0.09098
5721.76651,0.08865
5723.69498,0.09098
5725.62345,0.09822
5727.55192,0.08449
5729.48039,0.06803
5731.40886,0.06743
5733.33732,0.06123
5735.26579,0.05606
5737.19426,0.06775
5739.12273,0.08780
5741.05120,0.10119
5742.97967,0.09323
5744.90814,0.06922
5746.83660,0.05369
5748.76507,0.06168
5750.69354,0.08193
5752.62201,0.09896
5754.55048,0.11143
5756.47895,0.11570
5758.40742,0.11268
5760.33588,0.11258
5762.26435,0.11792
5764.19282,0.11497
5766.12129,0.09462
5768.04976,0.08043
5769.97823,0.08911
5771.90670,0.09928
5773.83517,0.09093
5775.76363,0.06540
5777.69210,0.03983
5779.62057,0.04023
5781.54904,0.05628
5783.47751,0.05244
5785.40598,0.03933
5787.33445,0.05511
5789.26291,0.08661
5791.19138,0.09525
5793.11985,0.08541
5795.04832,0.08026
5796.97679,0.08074
5798.90526,0.08162
5800.83373,0.08907
5802.76220,0.10165
5804.69066,0.11416
5806.61913,0.12740
5808.54760,0.12116
5810.47607,0.08395
5812.40454,0.05052
5814.33301,0.05129
5816.26148,0.06798
5818.18994,0.07856
5820.11841,0.08918
5822.04688,0.09845
5823.97535,0.09668
5825.90382,0.08948
5827.83229,0.08737
5829.76076,0.10526
5831.68923,0.13552
5833.61769,0.13914
5835.54616,0.10079
5837.47463,0.06500
5839.40310,0.06838
5841.33157,0.08690
5843.26004,0.09086
5845.18851,0.08023
5847.11697,0.06479
5849.04544,0.05712
5850.97391,0.06483
5852.90238,0.07987
5854.83085,0.08339
5856.75932,0.07222
5858.68779,0.07069
5860.61626,0.09708
5862.54472,0.12854
5864.47319,0.12275
5866.40166,0.08564
5868.33013,0.06257
5870.25860,0.06562
5872.18707,0.07536
5874.11554,0.08699
5876.04400,0.10189
5877.97247,0.10309
5879.90094,0.07752
5881.82941,0.05090
5883.75788,0.06120
5885.68635,0.09314
5887.61482,0.11048
5889.54329,0.11676
5891.47175,0.12481
5893.40022,0.11670
5895.32869,0.08475
5897.25716,0.08024
5899.18563,0.11897
5901.11410,0.12677
5903.04257,0.08690
5904.97103,0.07238
5906.89950,0.08891
5908.82797,0.08125
5910.75644,0.05296
5912.68491,0.03602
5914.61338,0.03743
5916.54185,0.05289
5918.47032,0.05924
5920.39878,0.05238
5922.32725,0.05927
5924.25572,0.08581
5926.18419,0.11266
5928.11266,0.12430
5930.04113,0.12754
5931.96960,0.13311
5933.89806,0.12513
5935.82653,0.10072
5937.75500,0.09094
5939.68347,0.08935
5941.61194,0.07455
5943.54041,0.05451
5945.46888,0.03604
5947.39734,0.03154
5949.32581,0.04925
5951.25428,0.06082
5953.18275,0.05503
5955.11122,0.06083
5957.03969,0.07877
5958.96816,0.09107
5960.89663,0.11087
5962.82509,0.13595
5964.75356,0.13909
5966.68203,0.11942
5968.61050,0.09555
5970.53897,0.07741
5972.46744,0.07372
5974.39591,0.09780
5976.32437,0.13046
5978.25284,0.13907
5980.18131,0.12867
5982.10978,0.12186
5984.03825,0.12560
5985.96672,0.12987
5987.89519,0.12367
5989.82366,0.11477
5991.75212,0.11381
5993.68059,0.10949
5995.60906,0.09947
5997.53753,0.09461
5999.46600,0.08624
6001.39447,0.07067
6003.32294,0.05638
6005.25140,0.04607
6007.17987,0.04345
6009.10834,0.06013
6011.03681,0.09156
6012.96528,0.12146
6014.89375,0.14156
6016.82222,0.13417
6018.75069,0.09910
6020.67915,0.07617
6022.60762,0.07287
6024.53609,0.06172
6026.46456,0.06314
6028.39303,0.09872
6030.32150,0.12210
6032.24997,0.12124
6034.17843,0.12675
6036.10690,0.13149
6038.03537,0.12065
6039.96384,0.10609
6041.89231,0.10735
6043.82078,0.12823
6045.74925,0.15133
6047.67772,0.14856
6049.60618,0.11698
6051.53465,0.08925
6053.46312,0.08274
6055.39159,0.09530
6057.32006,0.11347
6059.24853,0.12791
6061.17700,0.13659
6063.10546,0.13050
6065.03393,0.12898
6066.96240,0.14057
6068.89087,0.12901
6070.81934,0.09484
6072.74781,0.07272
6074.67628,0.07054
6076.60475,0.07530
6078.53321,0.07316
6080.46168,0.06481
6082.39015,0.05849
6084.31862,0.06473
6086.24709,0.07743
6088.17556,0.06576
6090.10403,0.04195
6092.03249,0.05365
6093.96096,0.08544
6095.88943,0.08420
6097.81790,0.06932
6099.74637,0.06139
6101.67484,0.03948
6103.60331,0.03940
6105.53177,0.07783
6107.46024,0.08818
6109.38871,0.05522
6111.31718,0.04196
6113.24565,0.06568
6115.17412,0.08994
6117.10259,0.09460
6119.03106,0.10187
6120.95952,0.11645
6122.88799,0.10615
6124.81646,0.07345
6126.74493,0.05329
6128.67340,0.06162
6130.60187,0.07362
6132.53034,0.07507
6134.45880,0.07372
6136.38727,0.07764
6138.31574,0.10457
6140.24421,0.14145
6142.17268,0.14621
6144.10115,0.11963
6146.02962,0.08809
6147.95809,0.06952
6149.88655,0.07648
6151.81502,0.09482
6153.74349,0.09984
6155.67196,0.08579
6157.60043,0.05612
6159.52890,0.03119
6161.45737,0.03951
6163.38583,0.07432
6165.31430,0.10147
6167.24277,0.11535
6169.17124,0.12981
6171.09971,0.14115
6173.02818,0.13989
6174.95665,0.11799
6176.88512,0.08733
6178.81358,0.07361
6180.74205,0.06965
6182.67052,0.06548
6184.59899,0.06317
6186.52746,0.05538
6188.45593,0.03718
6190.38440,0.00838
6192.31286,-0.00577
6194.24133,0.02699
6196.16980,0.07870
6198.09827,0.10858
6200.02674,0.13121
6201.95521,0.14837
6203.88368,0.13497
6205.81215,0.11699
6207.74061,0.12506
6209.66908,0.12583
6211.59755,0.09913
6213.52602,0.07893
6215.45449,0.07033
6217.38296,0.05411
6219.31143,0.03655
6221.23989,0.04233
6223.16836,0.07459
6225.09683,0.09409
6227.02530,0.08640
6228.95377,0.07956
6230.88224,0.07593
6232.81071,0.07282
6234.73918,0.07424
6236.66764,0.06133
6238.59611,0.03037
6240.52458,0.00070
6242.45305,-0.01114
6244.38152,0.00219
6246.30999,0.03793
6248.23846,0.08811
6250.16692,0.11800
6252.09539,0.10517
6254.02386,0.08732
6255.95233,0.07096
6257.88080,0.04384
6259.80927,0.02409
6261.73774,0.00131
6263.66621,-0.03062
6265.59467,-0.03279
6267.52314,0.00468
6269.45161,0.05308
6271.38008,0.09242
6273.30855,0.11522
6275.23702,0.13255
6277.16549,0.14700
6279.09395,0.14212
6281.02242,0.11050
6282.95089,0.07281
6284.87936,0.06901
6286.80783,0.09020
6288.73630,0.10217
6290.66477,0.11604
6292.59323,0.12915
6294.52170,0.09886
6296.45017,0.04228
6298.37864,0.01025
6300.30711,0.00560
6302.23558,0.01558
6304.16405,0.04601
6306.09252,0.08419
6308.02098,0.08498
6309.94945,0.05797
6311.87792,0.04945
6313.80639,0.03199
6315.73486,-0.00223
6317.66333,-0.00884
6319.59180,0.01401
6321.52026,0.06113
6323.44873,0.12085
6325.37720,0.14137
6327.30567,0.09794
6329.23414,0.04584
6331.16261,0.05803
6333.09108,0.10929
6335.01955,0.14199
6336.94801,0.12788
6338.87648,0.07306
6340.80495,0.03900
6342.73342,0.05315
6344.66189,0.09413
6346.59036,0.13580
6348.51883,0.13652
6350.44729,0.10736
6352.37576,0.09721
6354.30423,0.09256
6356.23270,0.06985
6358.16117,0.04777
6360.08964,0.05148
6362.01811,0.08407
6363.94658,0.12179
6365.87504,0.12765
6367.80351,0.07929
6369.73198,0.01703
6371.66045,-0.00866
6373.58892,-0.00164
6375.51739,0.03887
6377.44586,0.07989
6379.37432,0.06340
6381.30279,0.04034
6383.23126,0.06657
6385.15973,0.07910
6387.08820,0.06929
6389.01667,0.08879
6390.94514,0.11020
6392.87361,0.08338
6394.80207,0.04429
6396.73054,0.04609
6398.65901,0.05998
6400.58748,0.06368
6402.51595,0.08739
6404.44442,0.13031
6406.37289,0.12944
6408.30135,0.08702
6410.22982,0.06643
6412.15829,0.06424
6414.08676,0.08967
6416.01523,0.14593
6417.94370,0.16018
6419.87217,0.12388
6421.80064,0.10706
6423.72910,0.09676
6425.65757,0.07013
6427.58604,0.06812
6429.51451,0.09359
6431.44298,0.08759
6433.37145,0.03886
6435.29992,0.00579
6437.22838,0.02205
6439.15685,0.06560
6441.08532,0.10628
6443.01379,0.11970
6444.94226,0.12085
6446.87073,0.16019
6448.79920,0.18840
6450.72766,0.14405
6452.65613,0.07929
6454.58460,0.05548
6456.51307,0.06725
6458.44154,0.07313
6460.37001,0.05566
6462.29848,0.04794
6464.22695,0.07707
6466.15541,0.10580
6468.08388,0.08204
6470.01235,0.04658
6471.94082,0.06006
6473.86929,0.08800
6475.79776,0.09072
6477.72623,0.08096
6479.65469,0.08401
6481.58316,0.09233
6483.51163,0.09223
6485.44010,0.06874
6487.36857,0.01217
6489.29704,-0.03044
6491.22551,-0.00542
6493.15398,0.07924
6495.08244,0.16185
6497.01091,0.18598
6498.93938,0.14043
6500.86785,0.06053
6502.79632,0.02525
6504.72479,0.04486
6506.65326,0.04647
6508.58172,0.01238
6510.51019,-0.00247
6512.43866,0.03446
6514.36713,0.07154
6516.29560,0.06278
6518.22407,0.04060
6520.15254,0.03184
6522.08101,0.02459
6524.00947,0.02833
6525.93794,0.06071
6527.86641,0.10061
6529.79488,0.10858
6531.72335,0.07456
6533.65182,0.03392
6535.58029,0.02418
6537.50875,0.02623
6539.43722,0.01494
6541.36569,0.03041
6543.29416,0.06702
6545.22263,0.06058
6547.15110,0.02649
6549.07957,0.00662
6551.00804,0.01549
6552.93650,0.04057
6554.86497,0.06680
6556.79344,0.10262
6558.72191,0.12153
6560.65038,0.08971
6562.57885,0.05779
6564.50732,0.05670
6566.43578,0.05195
6568.36425,0.05184
6570.29272,0.06652
6572.22119,0.07952
6574.14966,0.10594
6576.07813,0.14048
6578.00660,0.13438
6579.93507,0.08968
6581.86353,0.06073
6583.79200,0.06816
6585.72047,0.07894
6587.64894,0.08987
6589.57741,0.13559
6591.50588,0.16796
6593.43435,0.12272
6595.36281,0.05686
6597.29128,0.04059
6599.21975,0.04559
6601.14822,0.04063
6603.07669,0.04298
6605.00516,0.08046
6606.93363,0.13500
6608.86210,0.12836
6610.79056,0.07739
6612.71903,0.07362
6614.64750,0.10480
6616.57597,0.14216
6618.50444,0.15918
6620.43291,0.12806
6622.36138,0.07237
6624.28984,0.03390
6626.21831,0.04265
6628.14678,0.07201
6630.07525,0.07430
6632.00372,0.05457
6633.93219,0.04621
6635.86066,0.06241
6637.78912,0.07683
6639.71759,0.06500
6641.64606,0.02650
6643.57453,-0.01927
6645.50300,-0.00772
6647.43147,0.06323
6649.35994,0.10822
6651.28841,0.09957
6653.21687,0.05728
6655.14534,0.03019
6657.07381,0.06327
6659.00228,0.14732
6660.93075,0.21265
6662.85922,0.17179
6664.78769,0.06618
6666.71615,0.03069
6668.64462,0.09885
6670.57309,0.14713
6672.50156,0.12147
6674.43003,0.11189
6676.35850,0.13366
6678.28697,0.13625
6680.21544,0.11890
6682.14390,0.09998
6684.07237,0.07829
6686.00084,0.06163
6687.92931,0.05968
6689.85778,0.05395
6691.78625,0.03131
6693.71472,0.00811
6695.64318,0.00913
6697.57165,0.03638
6699.50012,0.05623
6701.42859,0.05457
6703.35706,0.03806
6705.28553,0.03426
6707.21400,0.06863
6709.14247,0.07659
6711.07093,0.03378
6712.99940,0.01769
6714.92787,0.04027
6716.85634,0.05266
6718.78481,0.02500
6720.71328,-0.03814
6722.64175,-0.07380
6724.57021,-0.02417
6726.49868,0.06477
6728.42715,0.11943
6730.35562,0.10803
6732.28409,0.04338
6734.21256,-0.00455
6736.14103,0.01121
6738.06950,0.04431
6739.99796,0.05605
6741.92643,0.05950
6743.85490,0.05133
6745.78337,0.01775
6747.71184,0.00048
6749.64031,0.04129
6751.56878,0.08716
6753.49724,0.09261
6755.42571,0.09746
6757.35418,0.13203
6759.28265,0.14647
6761.21112,0.07898
6763.13959,-0.00561
6765.06806,-0.02556
6766.99653,0.00711
6768.92499,0.06193
6770.85346,0.13655
6772.78193,0.20962
6774.71040,0.24138
6776.63887,0.21689
6778.56734,0.17707
6780.49581,0.16402
6782.42427,0.15511
6784.35274,0.10226
6786.28121,0.01937
6788.20968,-0.03075
6790.13815,-0.01428
6792.06662,0.02844
6793.99509,0.06905
6795.92355,0.11900
6797.85202,0.12416
6799.78049,0.08393
6801.70896,0.06533
6803.63743,0.06638
6805.56590,0.07371
6807.49437,0.09369
6809.42284,0.07996
6811.35130,0.04076
6813.27977,0.03789
6815.20824,0.04533
6817.13671,0.03938
6819.06518,0.04440
6820.99365,0.03832
6822.92212,0.00969
6824.85058,0.01449
6826.77905,0.05203
6828.70752,0.09985
6830.63599,0.15585
6832.56446,0.18020
6834.49293,0.15487
6836.42140,0.09509
6838.34987,0.04715
6840.27833,0.02646
6842.20680,-0.00135
6844.13527,-0.01109
6846.06374,0.06421
6847.99221,0.17389
6849.92068,0.17109
6851.84915,0.09772
6853.77761,0.06479
6855.70608,0.06841
6857.63455,0.09110
6859.56302,0.10978
6861.49149,0.08613
6863.41996,0.04465
6865.34843,0.03310
6867.27690,0.02419
6869.20536,0.00568
6871.13383,-0.01617
6873.06230,-0.06475
6874.99077,-0.07270
6876.91924,0.01922
6878.84771,0.10953
6880.77618,0.09800
6882.70464,0.04590
6884.63311,-0.00344
6886.56158,-0.04180
6888.49005,-0.04149
6890.41852,-0.03918
6892.34699,-0.06635
6894.27546,-0.08464
6896.20393,-0.08586
6898.13239,-0.07095
6900.06086,-0.02539
6901.98933,0.03971
6903.91780,0.11149
6905.84627,0.14102
6907.77474,0.10688
6909.70321,0.06230
6911.63167,0.02464
6913.56014,-0.01153
6915.48861,-0.03418
6917.41708,-0.03272
6919.34555,-0.00043
6921.27402,0.04980
6923.20249,0.13487
6925.13096,0.21960
6927.05942,0.21117
6928.98789,0.14352
6930.91636,0.11545
6932.84483,0.10641
6934.77330,0.08567
6936.70177,0.04961
6938.63024,0.01926
6940.55870,0.05242
6942.48717,0.09198
6944.41564,0.09608
6946.34411,0.11819
6948.27258,0.14604
6950.20105,0.11912
6952.12952,0.05799
6954.05799,0.05157
6955.98645,0.08552
6957.91492,0.06375
6959.84339,0.04161
6961.77186,0.07291
6963.70033,0.07879
6965.62880,0.03649
6967.55727,0.03478
6969.48573,0.08699
6971.41420,0.06948
6973.34267,0.00325
6975.27114,0.01265
6977.19961,0.03796
6979.12808,0.02701
6981.05655,0.03001
6982.98501,0.05000
6984.91348,0.06739
6986.84195,0.09628
6988.77042,0.11267
6990.69889,0.09851
6992.62736,0.07859
6994.55583,0.03470
6996.48430,-0.02277
6998.41276,-0.02691
7000.34123,-0.04066
7002.26970,-0.14757
7004.19817,-0.24831
7006.12664,-0.22744
7008.05511,-0.10005
7009.98358,0.02267
7011.91204,0.12324
7013.84051,0.18361
7015.76898,0.15011
7017.69745,0.10307
7019.62592,0.11362
7021.55439,0.15311
7023.48286,0.17164
7025.41133,0.13754
7027.33979,0.08229
7029.26826,0.05978
7031.19673,0.07766
7033.12520,0.07017
7035.05367,0.03417
7036.98214,0.05435
7038.91061,0.08618
7040.83907,0.08601
7042.76754,0.06657
7044.69601,-0.00960
7046.62448,-0.08638
7048.55295,-0.05227
7050.48142,-0.00056
7052.40989,-0.01737
7054.33836,0.00587
7056.26682,0.11348
7058.19529,0.18067
7060.12376,0.16555
7062.05223,0.13530
7063.98070,0.10947
7065.90917,0.06925
7067.83764,0.04103
7069.76610,0.09824
7071.69457,0.19080
7073.62304,0.16771
7075.55151,0.07332
7077.47998,0.01633
7079.40845,-0.01796
7081.33692,-0.05301
7083.26539,-0.01540
7085.19385,0.04452
7087.12232,0.06875
7089.05079,0.08884
7090.97926,0.03927
7092.90773,-0.09177
7094.83620,-0.14532
7096.76467,-0.08086
7098.69313,0.03765
7100.62160,0.16260
7102.55007,0.24269
7104.47854,0.23582
7106.40701,0.14080
7108.33548,0.05110
7110.26395,0.02387
7112.19242,0.04044
7114.12088,0.06455
7116.04935,0.06632
7117.97782,0.04217
7119.90629,0.00641
7121.83476,-0.01596
7123.76323,-0.03706
7125.69170,-0.07388
7127.62016,-0.06173
7129.54863,0.02320
7131.47710,0.10719
7133.40557,0.13913
7135.33404,0.15122
7137.26251,0.15764
7139.19098,0.09667
7141.11944,-0.01281
7143.04791,-0.06681
7144.97638,-0.06857
7146.90485,-0.00254
7148.83332,0.06319
7150.76179,0.00513
7152.69026,-0.07532
7154.61873,-0.05179
7156.54719,-0.04420
7158.47566,-0.06661
7160.40413,0.00623
7162.33260,0.10434
7164.26107,0.09160
7166.18954,0.01664
7168.11801,-0.00990
7170.04647,0.02508
7171.97494,0.04845
7173.90341,0.02766
7175.83188,-0.01893
7177.76035,-0.08174
7179.68882,-0.09747
7181.61729,-0.03192
7183.54576,0.00616
7185.47422,-0.04999
7187.40269,-0.07877
7189.33116,-0.04216
7191.25963,0.01356
7193.18810,0.09040
7195.11657,0.18408
7197.04504,0.23338
7198.97350,0.14782
7200.90197,0.02229
7202.83044,-0.01408
7204.75891,-0.00419
7206.68738,-0.01963
7208.61585,0.00652
7210.54432,0.06903
7212.47279,0.07776
7214.40125,0.02391
7216.32972,-0.01882
7218.25819,-0.03013
7220.18666,-0.00366
7222.11513,0.08687
7224.04360,0.14913
7225.97207,0.10341
7227.90053,0.01375
7229.82900,-0.01362
7231.75747,-0.00130
7233.68594,-0.03258
7235.61441,-0.05572
7237.54288,0.00245
7239.47135,0.09481
7241.39982,0.16261
7243.32828,0.18052
7245.25675,0.13944
7247.18522,0.11278
7249.11369,0.10581
7251.04216,0.06036
7252.97063,0.01667
7254.89910,0.03076
7256.82756,0.02797
7258.75603,0.02574
7260.68450,0.04951
7262.61297,0.06227
7264.54144,0.05164
7266.46991,0.05578
7268.39838,0.05693
7270.32685,0.06652
7272.25531,0.10715
7274.18378,0.06252
7276.11225,-0.03042
7278.04072,-0.07342
7279.96919,-0.08713
7281.89766,-0.12993
7283.82613,-0.14186
7285.75459,-0.06090
7287.68306,0.02063
7289.61153,0.03584
7291.54000,0.06377
7293.46847,0.11641
7295.39694,0.11696
7297.32541,0.08687
7299.25387,0.08264
7301.18234,0.09181
7303.11081,0.05864
7305.03928,0.02335
7306.96775,0.06896
7308.89622,0.08633
7310.82469,0.01835
7312.75316,-0.01958
7314.68162,-0.06697
7316.61009,-0.11571
7318.53856,-0.05218
7320.46703,0.04788
7322.39550,0.06233
7324.32397,0.03374
7326.25244,0.06038
7328.18090,0.07210
7330.10937,-0.00696
7332.03784,-0.04758
7333.96631,-0.01473
7335.89478,0.01471
7337.82325,0.03100
7339.75172,0.04611
7341.68019,0.06567
7343.60865,0.15184
7345.53712,0.26410
7347.46559,0.21213
7349.39406,0.04954
7351.32253,0.00184
7353.25100,0.02925
7355.17947,0.09222
7357.10793,0.22730
7359.03640,0.28289
7360.96487,0.21328
7362.89334,0.18347
7364.82181,0.13767
7366.75028,0.04526
7368.67875,0.03195
7370.60722,0.08458
7372.53568,0.07948
7374.46415,-0.00798
7376.39262,-0.06134
7378.32109,-0.00450
7380.24956,0.10806
7382.17803,0.18907
7384.10650,0.16052
7386.03496,0.09526
7387.96343,0.06396
7389.89190,0.03321
7391.82037,-0.01679
7393.74884,-0.07603
7395.67731,-0.08852
7397.60578,0.00237
7399.53425,0.08075
7401.46271,0.02811
7403.39118,-0.09218
7405.31965,-0.13663
7407.24812,-0.08606
7409.17659,0.02432
7411.10506,0.14095
7413.03353,0.19694
7414.96199,0.20147
7416.89046,0.16192
7418.81893,0.05439
7420.74740,-0.02922
7422.67587,-0.00866
7424.60434,0.02250
7426.53281,0.04963
7428.46128,0.11377
7430.38974,0.12318
7432.31821,0.05008
7434.24668,0.04514
7436.17515,0.14258
7438.10362,0.20066
7440.03209,0.14632
7441.96056,0.10547
7443.88902,0.06050
7445.81749,-0.03612
7447.74596,-0.06340
7449.67443,0.02602
7451.60290,0.10051
7453.53137,0.09004
7455.45984,0.11999
7457.38831,0.21304
7459.31677,0.26535
7461.24524,0.18501
7463.17371,0.08109
7465.10218,0.10096
7467.03065,0.23037
7468.95912,0.32832
7470.88759,0.33800
7472.81605,0.24741
7474.74452,0.14210
7476.67299,0.14429
7478.60146,0.20915
7480.52993,0.16071
7482.45840,0.03020
7484.38687,-0.07991
7486.31533,-0.17696
7488.24380,-0.20878
7490.17227,-0.17092
7492.10074,-0.09637
7494.02921,-0.03493
7495.95768,-0.01887
7497.88615,0.02743
