399.19301,1.78315
401.12148,0.18533
403.04995,0.07016
404.97842,0.02924
406.90689,0.10639
408.83536,0.16770
410.76382,0.05741
412.69229,-0.10771
414.62076,-0.11785
416.54923,-0.03136
418.47770,0.05645
420.40617,0.08219
422.33464,0.01789
424.26311,-0.06474
426.19157,-0.06280
428.12004,-0.01883
430.04851,0.01799
431.97698,0.08743
433.90545,0.14361
435.83392,0.15606
437.76239,0.16806
439.69085,0.17841
441.61932,0.17087
443.54779,0.15000
445.47626,0.10912
447.40473,0.05912
449.33320,0.06295
451.26167,0.10226
453.19013,0.10078
455.11860,0.07158
457.04707,0.06472
458.97554,0.09878
460.90401,0.12956
462.83248,0.10676
464.76095,0.05196
466.68942,0.04431
468.61788,0.08312
470.54635,0.19188
472.47482,0.67563
474.40329,1.24492
476.33176,0.83351
478.26023,0.28924
480.18870,0.11472
482.11716,0.13084
484.04563,0.13682
485.97410,0.12317
487.90257,0.13806
489.83104,0.15085
491.75951,0.13133
493.68798,0.10112
495.61645,0.06504
497.54491,0.04243
499.47338,0.06260
501.40185,0.09081
503.33032,0.09328
505.25879,0.09200
507.18726,0.09759
509.11573,0.11351
511.04419,0.13041
512.97266,0.12588
514.90113,0.11460
516.82960,0.11259
518.75807,0.09781
520.68654,0.06499
522.61501,0.04576
524.54348,0.06318
526.47194,0.09897
528.40041,0.12162
530.32888,0.11863
532.25735,0.09724
534.18582,0.09007
536.11429,0.09612
538.04276,0.07968
539.97122,0.05882
541.89969,0.07047
543.82816,0.09359
545.75663,0.08657
547.68510,0.04751
549.61357,0.02181
551.54204,0.08464
553.47051,0.17574
555.39897,0.16925
557.32744,0.11736
559.25591,0.10827
561.18438,0.12144
563.11285,0.14685
565.04132,0.18007
566.96979,0.19253
568.89825,0.18200
570.82672,0.16467
572.75519,0.13852
574.68366,0.11189
576.61213,0.10440
578.54060,0.10580
580.46907,0.09804
582.39754,0.08962
584.32600,0.10118
586.25447,0.12660
588.18294,0.13483
590.11141,0.12643
592.03988,0.12489
593.96835,0.13140
595.89682,0.14058
597.82528,0.14989
599.75375,0.15675
601.68222,0.14793
603.61069,0.12279
605.53916,0.10509
607.46763,0.10475
609.39610,0.12042
611.32456,0.13165
613.25303,0.12274
615.18150,0.11088
617.10997,0.11086
619.03844,0.11703
620.96691,0.11624
622.89538,0.10854
624.82385,0.10348
626.75231,0.11084
628.68078,0.13200
630.60925,0.15424
632.53772,0.16477
634.46619,0.15376
636.39466,0.13490
638.32313,0.13146
640.25159,0.13656
642.18006,0.14144
644.10853,0.15950
646.03700,0.17729
647.96547,0.16465
649.89394,0.13746
651.82241,0.12430
653.75088,0.11711
655.67934,0.11142
657.60781,0.11339
659.53628,0.11592
661.46475,0.11342
663.39322,0.11242
665.32169,0.11574
667.25016,0.12122
669.17862,0.12473
671.10709,0.12055
673.03556,0.11222
674.96403,0.11001
676.89250,0.11661
678.82097,0.11583
680.74944,0.10446
682.67791,0.09627
684.60637,0.10020
686.53484,0.11440
688.46331,0.12940
690.39178,0.13962
692.32025,0.14117
694.24872,0.13916
696.17719,0.14383
698.10565,0.14709
700.03412,0.14233
701.96259,0.14062
703.89106,0.14561
705.81953,0.15209
707.74800,0.15879
709.67647,0.16612
711.60494,0.16884
713.53340,0.15646
715.46187,0.13794
717.39034,0.13175
719.31881,0.13563
721.24728,0.13610
723.17575,0.12814
725.10422,0.12403
727.03268,0.13008
728.96115,0.13418
730.88962,0.13412
732.81809,0.13399
734.74656,0.13129
736.67503,0.13555
738.60350,0.14633
740.53197,0.14877
742.46043,0.14476
744.38890,0.14176
746.31737,0.14329
748.24584,0.14557
750.17431,0.14296
752.10278,0.13812
754.03125,0.13539
755.95971,0.13440
757.88818,0.13221
759.81665,0.13272
761.74512,0.13691
763.67359,0.14202
765.60206,0.14207
767.53053,0.13213
769.45900,0.12522
771.38746,0.13201
773.31593,0.14435
775.24440,0.14837
777.17287,0.14183
779.10134,0.13547
781.02981,0.13509
782.95828,0.13916
784.88674,0.14605
786.81521,0.15153
788.74368,0.15595
790.67215,0.16279
792.60062,0.15859
794.52909,0.14104
796.45756,0.13234
798.38602,0.13457
800.31449,0.14193
802.24296,0.15327
804.17143,0.15481
806.09990,0.14486
808.02837,0.13556
809.95684,0.13157
811.88531,0.13518
813.81377,0.14519
815.74224,0.14884
817.67071,0.14019
819.59918,0.13268
821.52765,0.13382
823.45612,0.13849
825.38459,0.14398
827.31305,0.14814
829.24152,0.14415
831.16999,0.12922
833.09846,0.11832
835.02693,0.12518
836.95540,0.13812
838.88387,0.14000
840.81234,0.13537
842.74080,0.14012
844.66927,0.15411
846.59774,0.16411
848.52621,0.16043
850.45468,0.14944
852.38315,0.14591
854.31162,0.14637
856.24008,0.14363
858.16855,0.14439
860.09702,0.15123
862.02549,0.15504
863.95396,0.15024
865.88243,0.14317
867.81090,0.14123
869.73937,0.14291
871.66783,0.14417
873.59630,0.14443
875.52477,0.14264
877.45324,0.13949
879.38171,0.13827
881.31018,0.14082
883.23865,0.14647
885.16711,0.14848
887.09558,0.14033
889.02405,0.13046
890.95252,0.13263
892.88099,0.14509
894.80946,0.15447
896.73793,0.15207
898.66640,0.14857
900.59486,0.15669
902.52333,0.16565
904.45180,0.16449
906.38027,0.15727
908.30874,0.15135
910.23721,0.15007
912.16568,0.14978
914.09414,0.14841
916.02261,0.14691
917.95108,0.14584
919.87955,0.14636
921.80802,0.14950
923.73649,0.15134
925.66496,0.14829
927.59343,0.14752
929.52189,0.15169
931.45036,0.15252
933.37883,0.15072
935.30730,0.15350
937.23577,0.15792
939.16424,0.15784
941.09271,0.15339
943.02117,0.14951
944.94964,0.14923
946.87811,0.14497
948.80658,0.13586
950.73505,0.13355
952.66352,0.13744
954.59199,0.14219
956.52045,0.15151
958.44892,0.16179
960.37739,0.16293
962.30586,0.15442
964.23433,0.14509
966.16280,0.14204
968.09127,0.14292
970.01974,0.14595
971.94820,0.15055
973.87667,0.15281
975.80514,0.15312
977.73361,0.15127
979.66208,0.14590
981.59055,0.14238
983.51902,0.14595
985.44748,0.15150
987.37595,0.15288
989.30442,0.15202
991.23289,0.15002
993.16136,0.14791
995.08983,0.15036
997.01830,0.15698
998.94677,0.16337
1000.87523,0.16628
1002.80370,0.16201
1004.73217,0.15508
1006.66064,0.15407
1008.58911,0.15551
1010.51758,0.15586
1012.44605,0.15717
1014.37451,0.15733
1016.30298,0.15348
1018.23145,0.15047
1020.15992,0.15228
1022.08839,0.15120
1024.01686,0.14763
1025.94533,0.15175
1027.87380,0.16100
1029.80226,0.16572
1031.73073,0.16267
1033.65920,0.15779
1035.58767,0.15516
1037.51614,0.15199
1039.44461,0.15306
1041.37308,0.16131
1043.30154,0.16836
1045.23001,0.17276
1047.15848,0.17291
1049.08695,0.16546
1051.01542,0.15977
1052.94389,0.16025
1054.87236,0.15811
1056.80083,0.15213
1058.72929,0.15252
1060.65776,0.16235
1062.58623,0.17211
1064.51470,0.17169
1066.44317,0.16370
1068.37164,0.15971
1070.30011,0.16066
1072.22857,0.16021
1074.15704,0.15869
1076.08551,0.15694
1078.01398,0.15483
1079.94245,0.15986
1081.87092,0.17114
1083.79939,0.17623
1085.72786,0.17435
1087.65632,0.17334
1089.58479,0.17420
1091.51326,0.17363
1093.44173,0.17341
1095.37020,0.17537
1097.29867,0.17630
1099.22714,0.17553
1101.15560,0.17278
1103.08407,0.16763
1105.01254,0.16595
1106.94101,0.17117
1108.86948,0.17629
1110.79795,0.17505
1112.72642,0.17045
1114.65489,0.16782
1116.58335,0.16572
1118.51182,0.16145
1120.44029,0.15950
1122.36876,0.16115
1124.29723,0.16178
1126.22570,0.16124
1128.15417,0.16149
1130.08263,0.16173
1132.01110,0.16317
1133.93957,0.16727
1135.86804,0.17126
1137.79651,0.17163
1139.72498,0.16914
1141.65345,0.17007
1143.58191,0.17296
1145.51038,0.17084
1147.43885,0.16850
1149.36732,0.17067
1151.29579,0.17322
1153.22426,0.17366
1155.15273,0.17295
1157.08120,0.17221
1159.00966,0.17267
1160.93813,0.17520
1162.86660,0.17853
1164.79507,0.18101
1166.72354,0.18049
1168.65201,0.17642
1170.58048,0.17329
1172.50894,0.17195
1174.43741,0.16861
1176.36588,0.16627
1178.29435,0.16943
1180.22282,0.17295
1182.15129,0.17084
1184.07976,0.16374
1186.00823,0.15566
1187.93669,0.15404
1189.86516,0.16131
1191.79363,0.16851
1193.72210,0.16967
1195.65057,0.16886
1197.57904,0.16972
1199.50751,0.17099
1201.43597,0.17104
1203.36444,0.17054
1205.29291,0.16989
1207.22138,0.16889
1209.14985,0.16931
1211.07832,0.16990
1213.00679,0.16796
1214.93526,0.16673
1216.86372,0.16840
1218.79219,0.16992
1220.72066,0.16975
1222.64913,0.17009
1224.57760,0.17278
1226.50607,0.17397
1228.43454,0.17143
1230.36300,0.17193
1232.29147,0.17549
1234.21994,0.17317
1236.14841,0.16746
1238.07688,0.16803
1240.00535,0.17253
1241.93382,0.17249
1243.86229,0.17016
1245.79075,0.16995
1247.71922,0.16915
1249.64769,0.16768
1251.57616,0.16666
1253.50463,0.16681
1255.43310,0.17009
1257.36157,0.17247
1259.29003,0.16961
1261.21850,0.16647
1263.14697,0.16811
1265.07544,0.16995
1267.00391,0.16687
1268.93238,0.16335
1270.86085,0.16625
1272.78932,0.17252
1274.71778,0.17305
1276.64625,0.16938
1278.57472,0.16918
1280.50319,0.16980
1282.43166,0.16786
1284.36013,0.16793
1286.28860,0.17004
1288.21706,0.17294
1290.14553,0.17722
1292.07400,0.17792
1294.00247,0.17370
1295.93094,0.16817
1297.85941,0.16182
1299.78788,0.15216
1301.71634,0.13521
1303.64481,0.11733
1305.57328,0.11922
1307.50175,0.14474
1309.43022,0.16802
1311.35869,0.17587
1313.28716,0.17727
1315.21563,0.17712
1317.14409,0.17767
1319.07256,0.17784
1321.00103,0.17659
1322.92950,0.17676
1324.85797,0.17292
1326.78644,0.16526
1328.71491,0.16327
1330.64337,0.16259
1332.57184,0.16171
1334.50031,0.16594
1336.42878,0.16802
1338.35725,0.16569
1340.28572,0.16157
1342.21419,0.16112
1344.14266,0.16754
1346.07112,0.17124
1347.99959,0.17149
1349.92806,0.17153
1351.85653,0.17062
1353.78500,0.17117
1355.71347,0.17093
1357.64194,0.16940
1359.57040,0.17127
1361.49887,0.17702
1363.42734,0.17862
1365.35581,0.17579
1367.28428,0.17749
1369.21275,0.18135
1371.14122,0.18211
1373.06969,0.18368
1374.99815,0.18750
1376.92662,0.18815
1378.85509,0.18745
1380.78356,0.18889
1382.71203,0.19040
1384.64050,0.19128
1386.56897,0.19273
1388.49743,0.19271
1390.42590,0.19127
1392.35437,0.19169
1394.28284,0.19393
1396.21131,0.19663
1398.13978,0.19777
1400.06825,0.19471
1401.99672,0.19068
1403.92518,0.18903
1405.85365,0.18768
1407.78212,0.18486
1409.71059,0.18321
1411.63906,0.18529
1413.56753,0.18948
1415.49600,0.19423
1417.42446,0.19931
1419.35293,0.19863
1421.28140,0.19449
1423.20987,0.19479
1425.13834,0.19471
1427.06681,0.19293
1428.99528,0.19193
1430.92375,0.18988
1432.85221,0.18959
1434.78068,0.19463
1436.70915,0.19906
1438.63762,0.19515
1440.56609,0.19093
1442.49456,0.19059
1444.42303,0.19263
1446.35149,0.19707
1448.27996,0.20109
1450.20843,0.20223
1452.13690,0.20492
1454.06537,0.21188
1455.99384,0.22221
1457.92231,0.22299
1459.85077,0.21177
1461.77924,0.20616
1463.70771,0.20447
1465.63618,0.19846
1467.56465,0.19264
1469.49312,0.19606
1471.42159,0.20704
1473.35006,0.21350
1475.27852,0.21121
1477.20699,0.20809
1479.13546,0.20267
1481.06393,0.19601
1482.99240,0.19162
1484.92087,0.19250
1486.84934,0.20122
1488.77780,0.21278
1490.70627,0.21368
1492.63474,0.20857
1494.56321,0.20850
1496.49168,0.21177
1498.42015,0.20979
1500.34862,0.20585
1502.27709,0.20891
1504.20555,0.22102
1506.13402,0.23978
1508.06249,0.24102
1509.99096,0.22549
1511.91943,0.21377
1513.84790,0.21056
1515.77637,0.21447
1517.70483,0.21870
1519.63330,0.22533
1521.56177,0.23322
1523.49024,0.22811
1525.41871,0.21833
1527.34718,0.21089
1529.27565,0.20667
1531.20412,0.20930
1533.13258,0.21494
1535.06105,0.21469
1536.98952,0.21785
1538.91799,0.23616
1540.84646,0.25448
1542.77493,0.24221
1544.70340,0.22265
1546.63186,0.21043
1548.56033,0.20693
1550.48880,0.20588
1552.41727,0.20665
1554.34574,0.21438
1556.27421,0.22717
1558.20268,0.23510
1560.13115,0.22050
1562.05961,0.20952
1563.98808,0.20630
1565.91655,0.20474
1567.84502,0.20672
1569.77349,0.20938
1571.70196,0.20726
1573.63043,0.20797
1575.55889,0.21374
1577.48736,0.21306
1579.41583,0.20564
1581.34430,0.20032
1583.27277,0.19784
1585.20124,0.19695
1587.12971,0.19638
1589.05818,0.19540
1590.98664,0.19550
1592.91511,0.19716
1594.84358,0.19723
1596.77205,0.19436
1598.70052,0.19372
1600.62899,0.19798
1602.55746,0.20240
1604.48592,0.20444
1606.41439,0.20513
1608.34286,0.20273
1610.27133,0.19787
1612.19980,0.19656
1614.12827,0.20280
1616.05674,0.21349
1617.98521,0.21380
1619.91367,0.20770
1621.84214,0.20845
1623.77061,0.21228
1625.69908,0.21163
1627.62755,0.20863
1629.55602,0.20649
1631.48449,0.20948
1633.41295,0.22054
1635.34142,0.23562
1637.26989,0.23383
1639.19836,0.22190
1641.12683,0.21405
1643.05530,0.21266
1644.98377,0.22081
1646.91223,0.23206
1648.84070,0.23123
1650.76917,0.23281
1652.69764,0.24359
1654.62611,0.23433
1656.55458,0.21698
1658.48305,0.21011
1660.41152,0.21281
1662.33998,0.21886
1664.26845,0.21777
1666.19692,0.21684
1668.12539,0.22376
1670.05386,0.22716
1671.98233,0.22090
1673.91080,0.21817
1675.83926,0.21770
1677.76773,0.21671
1679.69620,0.21973
1681.62467,0.22839
1683.55314,0.23900
1685.48161,0.23463
1687.41008,0.22330
1689.33855,0.21582
1691.26701,0.21021
1693.19548,0.21071
1695.12395,0.22100
1697.05242,0.23319
1698.98089,0.23659
1700.90936,0.23193
1702.83783,0.22594
1704.76629,0.22205
1706.69476,0.21582
1708.62323,0.20866
1710.55170,0.20641
1712.48017,0.21055
1714.40864,0.22057
1716.33711,0.23096
1718.26558,0.22497
1720.19404,0.21107
1722.12251,0.20381
1724.05098,0.20054
1725.97945,0.20002
1727.90792,0.20472
1729.83639,0.21312
1731.76486,0.22011
1733.69332,0.22039
1735.62179,0.21355
1737.55026,0.21064
1739.47873,0.21060
1741.40720,0.20896
1743.33567,0.20815
1745.26414,0.20991
1747.19261,0.21327
1749.12107,0.21680
1751.04954,0.21500
1752.97801,0.20870
1754.90648,0.20552
1756.83495,0.20581
1758.76342,0.20664
1760.69189,0.20950
1762.62035,0.21191
1764.54882,0.20970
1766.47729,0.20791
1768.40576,0.21050
1770.33423,0.21810
1772.26270,0.22336
1774.19117,0.21747
1776.11964,0.20950
1778.04810,0.20552
1779.97657,0.20520
1781.90504,0.20539
1783.83351,0.20407
1785.76198,0.20165
1787.69045,0.20121
1789.61892,0.20631
1791.54738,0.21317
1793.47585,0.21425
1795.40432,0.21169
1797.33279,0.20929
1799.26126,0.20737
1801.18973,0.20496
1803.11820,0.20196
1805.04666,0.20104
1806.97513,0.20220
1808.90360,0.20348
1810.83207,0.20348
1812.76054,0.20132
1814.68901,0.19939
1816.61748,0.19807
1818.54595,0.19591
1820.47441,0.19576
1822.40288,0.20046
1824.33135,0.20572
1826.25982,0.20596
1828.18829,0.20621
1830.11676,0.20793
1832.04523,0.20479
1833.97369,0.19932
1835.90216,0.19653
1837.83063,0.19707
1839.75910,0.19939
1841.68757,0.20468
1843.61604,0.21170
1845.54451,0.21158
1847.47298,0.20524
1849.40144,0.20029
1851.32991,0.19852
1853.25838,0.19839
1855.18685,0.19804
1857.11532,0.19841
1859.04379,0.20080
1860.97226,0.20224
1862.90072,0.20110
1864.82919,0.20154
1866.75766,0.20652
1868.68613,0.21108
1870.61460,0.20825
1872.54307,0.20319
1874.47154,0.20113
1876.40001,0.20054
1878.32847,0.19859
1880.25694,0.19679
1882.18541,0.19794
1884.11388,0.19988
1886.04235,0.20132
1887.97082,0.20519
1889.89929,0.20880
1891.82775,0.20832
1893.75622,0.20722
1895.68469,0.20594
1897.61316,0.20367
1899.54163,0.20286
1901.47010,0.20309
1903.39857,0.20294
1905.32704,0.20379
1907.25550,0.20553
1909.18397,0.20550
1911.11244,0.20375
1913.04091,0.20270
1914.96938,0.20354
1916.89785,0.20563
1918.82632,0.20683
1920.75478,0.20704
1922.68325,0.20657
1924.61172,0.20486
1926.54019,0.20347
1928.46866,0.20227
1930.39713,0.20012
1932.32560,0.19856
1934.25407,0.19862
1936.18253,0.19852
1938.11100,0.19826
1940.03947,0.20048
1941.96794,0.20444
1943.89641,0.20641
1945.82488,0.20527
1947.75335,0.20261
1949.68181,0.20091
1951.61028,0.20064
1953.53875,0.20047
1955.46722,0.20060
1957.39569,0.20143
1959.32416,0.20170
1961.25263,0.20141
1963.18110,0.20271
1965.10956,0.20509
1967.03803,0.20560
1968.96650,0.20429
1970.89497,0.20295
1972.82344,0.20167
1974.75191,0.20043
1976.68038,0.19992
1978.60884,0.20013
1980.53731,0.19986
1982.46578,0.19833
1984.39425,0.19772
1986.32272,0.19950
1988.25119,0.20108
1990.17966,0.20163
1992.10812,0.20245
1994.03659,0.20238
1995.96506,0.20096
1997.89353,0.19968
1999.82200,0.19960
2001.75047,0.20098
2003.67894,0.20245
2005.60741,0.20213
2007.53587,0.20087
2009.46434,0.20082
2011.39281,0.20141
2013.32128,0.20205
2015.24975,0.20423
2017.17822,0.20551
2019.10669,0.20328
2021.03515,0.20175
2022.96362,0.20326
2024.89209,0.20502
2026.82056,0.20520
2028.74903,0.20460
2030.67750,0.20383
2032.60597,0.20217
2034.53444,0.20043
2036.46290,0.20055
2038.39137,0.20192
2040.31984,0.20202
2042.24831,0.20108
2044.17678,0.20048
2046.10525,0.20036
2048.03372,0.20148
2049.96218,0.20306
2051.89065,0.20395
2053.81912,0.20505
2055.74759,0.20539
2057.67606,0.20342
2059.60453,0.20146
2061.53300,0.20227
2063.46147,0.20464
2065.38993,0.20573
2067.31840,0.20511
2069.24687,0.20381
2071.17534,0.20237
2073.10381,0.20199
2075.03228,0.20350
2076.96075,0.20488
2078.88921,0.20367
2080.81768,0.20229
2082.74615,0.20366
2084.67462,0.20442
2086.60309,0.20199
2088.53156,0.19982
2090.46003,0.20042
2092.38850,0.20199
2094.31696,0.20279
2096.24543,0.20376
2098.17390,0.20514
2100.10237,0.20551
2102.03084,0.20444
2103.95931,0.20250
2105.88778,0.20115
2107.81624,0.20165
2109.74471,0.20292
2111.67318,0.20398
2113.60165,0.20520
2115.53012,0.20599
2117.45859,0.20611
2119.38706,0.20579
2121.31553,0.20458
2123.24399,0.20356
2125.17246,0.20370
2127.10093,0.20457
2129.02940,0.20569
2130.95787,0.20600
2132.88634,0.20470
2134.81481,0.20325
2136.74327,0.20359
2138.67174,0.20452
2140.60021,0.20455
2142.52868,0.20432
2144.45715,0.20412
2146.38562,0.20437
2148.31409,0.20474
2150.24255,0.20376
2152.17102,0.20227
2154.09949,0.20236
2156.02796,0.20313
2157.95643,0.20292
2159.88490,0.20263
2161.81337,0.20407
2163.74184,0.20675
2165.67030,0.20776
2167.59877,0.20668
2169.52724,0.20573
2171.45571,0.20608
2173.38418,0.20688
2175.31265,0.20587
2177.24112,0.20365
2179.16958,0.20296
2181.09805,0.20310
2183.02652,0.20245
2184.95499,0.20246
2186.88346,0.20378
2188.81193,0.20468
2190.74040,0.20466
2192.66887,0.20498
2194.59733,0.20568
2196.52580,0.20573
2198.45427,0.20520
2200.38274,0.20435
2202.31121,0.20351
2204.23968,0.20329
2206.16815,0.20382
2208.09661,0.20489
2210.02508,0.20535
2211.95355,0.20459
2213.88202,0.20331
2215.81049,0.20270
2217.73896,0.20368
2219.66743,0.20501
2221.59590,0.20545
2223.52436,0.20492
2225.45283,0.20373
2227.38130,0.20346
2229.30977,0.20448
2231.23824,0.20495
2233.16671,0.20498
2235.09518,0.20628
2237.02364,0.20796
2238.95211,0.20819
2240.88058,0.20740
2242.80905,0.20694
2244.73752,0.20680
2246.66599,0.20692
2248.59446,0.20829
2250.52293,0.20993
2252.45139,0.21013
2254.37986,0.20920
2256.30833,0.20726
2258.23680,0.20465
2260.16527,0.20317
2262.09374,0.20354
2264.02221,0.20489
2265.95067,0.20680
2267.87914,0.20773
2269.80761,0.20632
2271.73608,0.20473
2273.66455,0.20425
2275.59302,0.20354
2277.52149,0.20202
2279.44996,0.20076
2281.37842,0.20158
2283.30689,0.20443
2285.23536,0.20668
2287.16383,0.20707
2289.09230,0.20662
2291.02077,0.20634
2292.94924,0.20699
2294.87770,0.20755
2296.80617,0.20668
2298.73464,0.20514
2300.66311,0.20292
2302.59158,0.20079
2304.52005,0.20140
2306.44852,0.20448
2308.37699,0.20727
2310.30545,0.20765
2312.23392,0.20506
2314.16239,0.20171
2316.09086,0.20063
2318.01933,0.20348
2319.94780,0.20824
2321.87627,0.20935
2323.80473,0.20790
2325.73320,0.20795
2327.66167,0.20716
2329.59014,0.20591
2331.51861,0.20629
2333.44708,0.20879
2335.37555,0.21370
2337.30401,0.21378
2339.23248,0.20552
2341.16095,0.20042
2343.08942,0.20255
2345.01789,0.20215
2346.94636,0.20160
2348.87483,0.20688
2350.80330,0.21406
2352.73176,0.21307
2354.66023,0.19983
2356.58870,0.19541
2358.51717,0.20319
2360.44564,0.20082
2362.37411,0.20288
2364.30258,0.21286
2366.23104,0.21145
2368.15951,0.20807
2370.08798,0.20938
2372.01645,0.20916
2373.94492,0.20707
2375.87339,0.20421
2377.80186,0.20236
2379.73033,0.20327
2381.65879,0.20462
2383.58726,0.20487
2385.51573,0.20534
2387.44420,0.20536
2389.37267,0.20432
2391.30114,0.20466
2393.22961,0.20620
2395.15807,0.20602
2397.08654,0.20448
2399.01501,0.20332
2400.94348,0.20357
2402.87195,0.20569
2404.80042,0.20707
2406.72889,0.20597
2408.65736,0.20521
2410.58582,0.20649
2412.51429,0.20721
2414.44276,0.20671
2416.37123,0.20755
2418.29970,0.20855
2420.22817,0.20673
2422.15664,0.20413
2424.08510,0.20471
2426.01357,0.20730
2427.94204,0.20908
2429.87051,0.21026
2431.79898,0.21030
2433.72745,0.20901
2435.65592,0.20786
2437.58439,0.20720
2439.51285,0.20694
2441.44132,0.20653
2443.36979,0.20589
2445.29826,0.20678
2447.22673,0.20833
2449.15520,0.20818
2451.08367,0.20765
2453.01213,0.20761
2454.94060,0.20787
2456.86907,0.20834
2458.79754,0.20788
2460.72601,0.20764
2462.65448,0.20798
2464.58295,0.20707
2466.51142,0.20530
2468.43988,0.20448
2470.36835,0.20543
2472.29682,0.20678
2474.22529,0.20735
2476.15376,0.20734
2478.08223,0.20627
2480.01070,0.20500
2481.93916,0.20581
2483.86763,0.20768
2485.79610,0.20863
2487.72457,0.20940
2489.65304,0.21008
2491.58151,0.20976
2493.50998,0.20869
2495.43844,0.20822
2497.36691,0.20822
2499.29538,0.20653
2501.22385,0.20474
2503.15232,0.20526
2505.08079,0.20638
2507.00926,0.20678
2508.93773,0.20657
2510.86619,0.20658
2512.79466,0.20830
2514.72313,0.21125
2516.65160,0.21287
2518.58007,0.21202
2520.50854,0.21040
2522.43701,0.20980
2524.36547,0.20941
2526.29394,0.20816
2528.22241,0.20754
2530.15088,0.20822
2532.07935,0.20937
2534.00782,0.21043
2535.93629,0.21005
2537.86476,0.20898
2539.79322,0.20909
2541.72169,0.20940
2543.65016,0.20975
2545.57863,0.21084
2547.50710,0.21082
2549.43557,0.21003
2551.36404,0.21063
2553.29250,0.21195
2555.22097,0.21282
2557.14944,0.21243
2559.07791,0.21136
2561.00638,0.21192
2562.93485,0.21341
2564.86332,0.21302
2566.79179,0.21212
2568.72025,0.21263
2570.64872,0.21219
2572.57719,0.20984
2574.50566,0.20772
2576.43413,0.20665
2578.36260,0.20685
2580.29107,0.20939
2582.21953,0.21249
2584.14800,0.21264
2586.07647,0.21050
2588.00494,0.20885
2589.93341,0.20853
2591.86188,0.20950
2593.79035,0.21060
2595.71882,0.21000
2597.64728,0.20935
2599.57575,0.20998
2601.50422,0.21029
2603.43269,0.21071
2605.36116,0.21168
2607.28963,0.21097
2609.21810,0.20927
2611.14656,0.20990
2613.07503,0.21180
2615.00350,0.21256
2616.93197,0.21221
2618.86044,0.21093
2620.78891,0.20944
2622.71738,0.20980
2624.64585,0.21215
2626.57431,0.21290
2628.50278,0.21221
2630.43125,0.21299
2632.35972,0.21372
2634.28819,0.21391
2636.21666,0.21489
2638.14513,0.21474
2640.07359,0.21336
2642.00206,0.21415
2643.93053,0.21607
2645.85900,0.21612
2647.78747,0.21540
2649.71594,0.21485
2651.64441,0.21339
2653.57288,0.21187
2655.50134,0.21213
2657.42981,0.21346
2659.35828,0.21510
2661.28675,0.21684
2663.21522,0.21697
2665.14369,0.21492
2667.07216,0.21364
2669.00062,0.21432
2670.92909,0.21409
2672.85756,0.21355
2674.78603,0.21391
2676.71450,0.21321
2678.64297,0.21171
2680.57144,0.21204
2682.49990,0.21458
2684.42837,0.21632
2686.35684,0.21585
2688.28531,0.21472
2690.21378,0.21422
2692.14225,0.21467
2694.07072,0.21572
2695.99919,0.21620
2697.92765,0.21452
2699.85612,0.21161
2701.78459,0.21071
2703.71306,0.21254
2705.64153,0.21515
2707.57000,0.21656
2709.49847,0.21667
2711.42693,0.21819
2713.35540,0.22099
2715.28387,0.22138
2717.21234,0.21949
2719.14081,0.21798
2721.06928,0.21675
2722.99775,0.21543
2724.92622,0.21650
2726.85468,0.21971
2728.78315,0.22147
2730.71162,0.21997
2732.64009,0.21632
2734.56856,0.21455
2736.49703,0.21628
2738.42550,0.21784
2740.35396,0.21726
2742.28243,0.21745
2744.21090,0.21911
2746.13937,0.21989
2748.06784,0.21959
2749.99631,0.21955
2751.92478,0.22038
2753.85325,0.22016
2755.78171,0.21968
2757.71018,0.22161
2759.63865,0.22336
2761.56712,0.22330
2763.49559,0.22322
2765.42406,0.22260
2767.35253,0.22072
2769.28099,0.21998
2771.20946,0.22110
2773.13793,0.22217
2775.06640,0.22261
2776.99487,0.22180
2778.92334,0.22024
2780.85181,0.22015
2782.78028,0.22161
2784.70874,0.22224
2786.63721,0.22066
2788.56568,0.21885
2790.49415,0.21939
2792.42262,0.22175
2794.35109,0.22414
2796.27956,0.22587
2798.20802,0.22625
2800.13649,0.22530
2802.06496,0.22462
2803.99343,0.22522
2805.92190,0.22528
2807.85037,0.22287
2809.77884,0.22137
2811.70731,0.22344
2813.63577,0.22567
2815.56424,0.22597
2817.49271,0.22463
2819.42118,0.22194
2821.34965,0.21946
2823.27812,0.21940
2825.20659,0.22301
2827.13505,0.22722
2829.06352,0.22762
2830.99199,0.22464
2832.92046,0.22135
2834.84893,0.22019
2836.77740,0.22165
2838.70587,0.22446
2840.63433,0.22634
2842.56280,0.22606
2844.49127,0.22499
2846.41974,0.22342
2848.34821,0.22101
2850.27668,0.22058
2852.20515,0.22348
2854.13362,0.22507
2856.06208,0.22284
2857.99055,0.22165
2859.91902,0.22336
2861.84749,0.22394
2863.77596,0.22322
2865.70443,0.22436
2867.63290,0.22668
2869.56136,0.22735
2871.48983,0.22569
2873.41830,0.22362
2875.34677,0.22354
2877.27524,0.22592
2879.20371,0.22903
2881.13218,0.22964
2883.06065,0.22638
2884.98911,0.22224
2886.91758,0.22156
2888.84605,0.22521
2890.77452,0.22870
2892.70299,0.22730
2894.63146,0.22283
2896.55993,0.22175
2898.48839,0.22477
2900.41686,0.22573
2902.34533,0.22126
2904.27380,0.21480
2906.20227,0.21322
2908.13074,0.21917
2910.05921,0.22584
2911.98768,0.22509
2913.91614,0.21678
2915.84461,0.20862
2917.77308,0.20937
2919.70155,0.21674
2921.63002,0.22148
2923.55849,0.21872
2925.48696,0.20783
2927.41542,0.20160
2929.34389,0.21111
2931.27236,0.22304
2933.20083,0.22426
2935.12930,0.21481
2937.05777,0.20458
2938.98624,0.20814
2940.91471,0.21952
2942.84317,0.22429
2944.77164,0.21894
2946.70011,0.20698
2948.62858,0.20517
2950.55705,0.21716
2952.48552,0.22425
2954.41399,0.21863
2956.34245,0.20318
2958.27092,0.19247
2960.19939,0.20083
2962.12786,0.21545
2964.05633,0.22121
2965.98480,0.21595
2967.91327,0.20580
2969.84174,0.20662
2971.77020,0.21761
2973.69867,0.22475
2975.62714,0.22129
2977.55561,0.20938
2979.48408,0.20662
2981.41255,0.21829
2983.34102,0.22875
2985.26948,0.23096
2987.19795,0.22440
2989.12642,0.21809
2991.05489,0.22366
2992.98336,0.23158
2994.91183,0.23207
2996.84030,0.22863
2998.76877,0.22636
3000.69723,0.22935
3002.62570,0.23279
3004.55417,0.22972
3006.48264,0.22304
3008.41111,0.21537
3010.33958,0.20078
3012.26805,0.17144
3014.19651,0.12894
3016.12498,0.09869
3018.05345,0.11723
3019.98192,0.17332
3021.91039,0.21663
3023.83886,0.23224
3025.76733,0.23437
3027.69579,0.23169
3029.62426,0.23040
3031.55273,0.23191
3033.48120,0.23299
3035.40967,0.23158
3037.33814,0.22664
3039.26661,0.22412
3041.19508,0.22776
3043.12354,0.23062
3045.05201,0.22782
3046.98048,0.22095
3048.90895,0.21747
3050.83742,0.22154
3052.76589,0.22603
3054.69436,0.22112
3056.62282,0.20923
3058.55129,0.20861
3060.47976,0.22167
3062.40823,0.23043
3064.33670,0.22437
3066.26517,0.21091
3068.19364,0.21017
3070.12211,0.22345
3072.05057,0.23223
3073.97904,0.22504
3075.90751,0.20925
3077.83598,0.20794
3079.76445,0.22210
3081.69292,0.22864
3083.62139,0.21704
3085.54985,0.20250
3087.47832,0.20755
3089.40679,0.22530
3091.33526,0.23143
3093.26373,0.21949
3095.19220,0.20878
3097.12067,0.21541
3099.04914,0.22484
3100.97760,0.22020
3102.90607,0.20553
3104.83454,0.20246
3106.76301,0.21843
3108.69148,0.23233
3110.61995,0.22873
3112.54842,0.21614
3114.47688,0.21348
3116.40535,0.22094
3118.33382,0.22584
3120.26229,0.22483
3122.19076,0.22217
3124.11923,0.22375
3126.04770,0.22769
3127.97617,0.22820
3129.90463,0.22333
3131.83310,0.22049
3133.76157,0.22678
3135.69004,0.23307
3137.61851,0.23064
3139.54698,0.22762
3141.47545,0.23242
3143.40391,0.23901
3145.33238,0.24012
3147.26085,0.23540
3149.18932,0.23195
3151.11779,0.23354
3153.04626,0.23371
3154.97473,0.23250
3156.90320,0.23238
3158.83166,0.23134
3160.76013,0.23121
3162.68860,0.23420
3164.61707,0.23637
3166.54554,0.23513
3168.47401,0.23375
3170.40248,0.23390
3172.33094,0.23564
3174.25941,0.23736
3176.18788,0.23544
3178.11635,0.23219
3180.04482,0.23290
3181.97329,0.23595
3183.90176,0.23817
3185.83022,0.23925
3187.75869,0.23961
3189.68716,0.23887
3191.61563,0.23514
3193.54410,0.23367
3195.47257,0.23889
3197.40104,0.24359
3199.32951,0.24265
3201.25797,0.23966
3203.18644,0.23820
3205.11491,0.23591
3207.04338,0.23255
3208.97185,0.23203
3210.90032,0.23351
3212.82879,0.23534
3214.75725,0.23716
3216.68572,0.23660
3218.61419,0.23376
3220.54266,0.23224
3222.47113,0.23228
3224.39960,0.23137
3226.32807,0.23014
3228.25654,0.23024
3230.18500,0.23098
3232.11347,0.23082
3234.04194,0.23083
3235.97041,0.23153
3237.89888,0.23189
3239.82735,0.23440
3241.75582,0.23930
3243.68428,0.24223
3245.61275,0.24085
3247.54122,0.23823
3249.46969,0.23812
3251.39816,0.23875
3253.32663,0.23803
3255.25510,0.23622
3257.18357,0.23398
3259.11203,0.23410
3261.04050,0.23615
3262.96897,0.23475
3264.89744,0.23050
3266.82591,0.22941
3268.75438,0.23063
3270.68285,0.22917
3272.61131,0.22593
3274.53978,0.22607
3276.46825,0.23080
3278.39672,0.23367
3280.32519,0.23084
3282.25366,0.22842
3284.18213,0.23149
3286.11060,0.23645
3288.03906,0.23622
3289.96753,0.22963
3291.89600,0.22403
3293.82447,0.22459
3295.75294,0.22832
3297.68141,0.23035
3299.60988,0.22911
3301.53834,0.22818
3303.46681,0.23064
3305.39528,0.23256
3307.32375,0.23166
3309.25222,0.23135
3311.18069,0.23046
3313.10916,0.22802
3315.03763,0.22926
3316.96609,0.23422
3318.89456,0.23810
3320.82303,0.23953
3322.75150,0.23829
3324.67997,0.23555
3326.60844,0.23526
3328.53691,0.23901
3330.46537,0.24307
3332.39384,0.24196
3334.32231,0.23598
3336.25078,0.23167
3338.17925,0.23382
3340.10772,0.23952
3342.03619,0.24137
3343.96466,0.23702
3345.89312,0.23154
3347.82159,0.23086
3349.75006,0.23408
3351.67853,0.23719
3353.60700,0.24063
3355.53547,0.24462
3357.46394,0.24556
3359.39240,0.24260
3361.32087,0.24020
3363.24934,0.23954
3365.17781,0.23787
3367.10628,0.23606
3369.03475,0.23487
3370.96322,0.23314
3372.89168,0.23193
3374.82015,0.23176
3376.74862,0.23089
3378.67709,0.22964
3380.60556,0.23038
3382.53403,0.23332
3384.46250,0.23671
3386.39097,0.23992
3388.31943,0.24205
3390.24790,0.24131
3392.17637,0.23813
3394.10484,0.23565
3396.03331,0.23551
3397.96178,0.23442
3399.89025,0.23143
3401.81871,0.23105
3403.74718,0.23339
3405.67565,0.23566
3407.60412,0.23792
3409.53259,0.23870
3411.46106,0.23585
3413.38953,0.23175
3415.31800,0.22962
3417.24646,0.23134
3419.17493,0.23517
3421.10340,0.23473
3423.03187,0.23011
3424.96034,0.22586
3426.88881,0.22385
3428.81728,0.22446
3430.74574,0.22623
3432.67421,0.22908
3434.60268,0.23085
3436.53115,0.22951
3438.45962,0.22711
3440.38809,0.22460
3442.31656,0.22472
3444.24503,0.22972
3446.17349,0.23556
3448.10196,0.23582
3450.03043,0.23083
3451.95890,0.22528
3453.88737,0.22070
3455.81584,0.21894
3457.74431,0.21890
3459.67277,0.21673
3461.60124,0.21342
3463.52971,0.21408
3465.45818,0.21889
3467.38665,0.22178
3469.31512,0.22139
3471.24359,0.22021
3473.17206,0.21785
3475.10052,0.21284
3477.02899,0.20674
3478.95746,0.20467
3480.88593,0.20731
3482.81440,0.20884
3484.74287,0.20757
3486.67134,0.20683
3488.59980,0.20691
3490.52827,0.20520
3492.45674,0.20180
3494.38521,0.19998
3496.31368,0.19860
3498.24215,0.19651
3500.17062,0.19755
3502.09909,0.20075
3504.02755,0.20210
3505.95602,0.20091
3507.88449,0.20042
3509.81296,0.20367
3511.74143,0.20671
3513.66990,0.20494
3515.59837,0.20069
3517.52683,0.19781
3519.45530,0.19596
3521.38377,0.19546
3523.31224,0.19968
3525.24071,0.20624
3527.16918,0.20701
3529.09765,0.20085
3531.02611,0.19510
3532.95458,0.19243
3534.88305,0.19158
3536.81152,0.19270
3538.73999,0.19358
3540.66846,0.19110
3542.59693,0.18894
3544.52540,0.19331
3546.45386,0.19752
3548.38233,0.19446
3550.31080,0.19140
3552.23927,0.18929
3554.16774,0.18536
3556.09621,0.18327
3558.02468,0.18362
3559.95314,0.18399
3561.88161,0.18390
3563.81008,0.18645
3565.73855,0.19394
3567.66702,0.19524
3569.59549,0.18407
3571.52396,0.17497
3573.45243,0.17235
3575.38089,0.17226
3577.30936,0.17153
3579.23783,0.16869
3581.16630,0.16602
3583.09477,0.16802
3585.02324,0.17548
3586.95171,0.18395
3588.88017,0.18457
3590.80864,0.18069
3592.73711,0.17872
3594.66558,0.17663
3596.59405,0.17445
3598.52252,0.17402
3600.45099,0.17297
3602.37946,0.16968
3604.30792,0.16641
3606.23639,0.16564
3608.16486,0.16698
3610.09333,0.16926
3612.02180,0.17251
3613.95027,0.17457
3615.87874,0.17461
3617.80720,0.17563
3619.73567,0.17325
3621.66414,0.16417
3623.59261,0.15896
3625.52108,0.16028
3627.44955,0.16486
3629.37802,0.17099
3631.30649,0.17210
3633.23495,0.16778
3635.16342,0.16109
3637.09189,0.15676
3639.02036,0.15676
3640.94883,0.15742
3642.87730,0.15756
3644.80577,0.16061
3646.73423,0.16959
3648.66270,0.18042
3650.59117,0.17777
3652.51964,0.16921
3654.44811,0.16613
3656.37658,0.16413
3658.30505,0.15751
3660.23352,0.15023
3662.16198,0.14526
3664.09045,0.14346
3666.01892,0.14609
3667.94739,0.15323
3669.87586,0.15903
3671.80433,0.15683
3673.73280,0.15586
3675.66126,0.15817
3677.58973,0.15580
3679.51820,0.15092
3681.44667,0.14707
3683.37514,0.14557
3685.30361,0.14831
3687.23208,0.15563
3689.16055,0.16213
3691.08901,0.15980
3693.01748,0.15354
3694.94595,0.14977
3696.87442,0.14970
3698.80289,0.15243
3700.73136,0.15358
3702.65983,0.14807
3704.58829,0.14282
3706.51676,0.14542
3708.44523,0.15315
3710.37370,0.15853
3712.30217,0.15535
3714.23064,0.14909
3716.15911,0.14667
3718.08757,0.14717
3720.01604,0.14646
3721.94451,0.14547
3723.87298,0.14666
3725.80145,0.14598
3727.72992,0.14346
3729.65839,0.14458
3731.58686,0.15147
3733.51532,0.16155
3735.44379,0.16552
3737.37226,0.15851
3739.30073,0.15121
3741.22920,0.15044
3743.15767,0.15746
3745.08614,0.16588
3747.01460,0.16388
3748.94307,0.16030
3750.87154,0.16062
3752.80001,0.15638
3754.72848,0.15082
3756.65695,0.14991
3758.58542,0.14935
3760.51389,0.14479
3762.44235,0.14271
3764.37082,0.14518
3766.29929,0.14641
3768.22776,0.14516
3770.15623,0.14390
3772.08470,0.14100
3774.01317,0.13796
3775.94163,0.13755
3777.87010,0.14053
3779.79857,0.14370
3781.72704,0.14271
3783.65551,0.14218
3785.58398,0.14414
3787.51245,0.14350
3789.44092,0.14142
3791.36938,0.14176
3793.29785,0.14463
3795.22632,0.14946
3797.15479,0.15238
3799.08326,0.15433
3801.01173,0.15960
3802.94020,0.15665
3804.86866,0.14717
3806.79713,0.14057
3808.72560,0.13717
3810.65407,0.13664
3812.58254,0.13858
3814.51101,0.14227
3816.43948,0.14551
3818.36795,0.14922
3820.29641,0.15307
3822.22488,0.14932
3824.15335,0.14511
3826.08182,0.14713
3828.01029,0.15063
3829.93876,0.15152
3831.86723,0.14958
3833.79569,0.14732
3835.72416,0.14951
3837.65263,0.15492
3839.58110,0.15544
3841.50957,0.15064
3843.43804,0.14432
3845.36651,0.13828
3847.29498,0.13643
3849.22344,0.14075
3851.15191,0.14787
3853.08038,0.15066
3855.00885,0.14300
3856.93732,0.13484
3858.86579,0.13209
3860.79426,0.13456
3862.72272,0.13798
3864.65119,0.13901
3866.57966,0.14249
3868.50813,0.14927
3870.43660,0.14903
3872.36507,0.14064
3874.29354,0.13534
3876.22200,0.13225
3878.15047,0.13126
3880.07894,0.13524
3882.00741,0.13944
3883.93588,0.14010
3885.86435,0.13802
3887.79282,0.13573
3889.72129,0.13709
3891.64975,0.14056
3893.57822,0.14067
3895.50669,0.13839
3897.43516,0.13818
3899.36363,0.13788
3901.29210,0.13504
3903.22057,0.13201
3905.14903,0.12710
3907.07750,0.12412
3909.00597,0.12541
3910.93444,0.12766
3912.86291,0.12943
3914.79138,0.13020
3916.71985,0.12888
3918.64832,0.12513
3920.57678,0.12198
3922.50525,0.12381
3924.43372,0.12799
3926.36219,0.12916
3928.29066,0.12720
3930.21913,0.12378
3932.14760,0.12211
3934.07606,0.12168
3936.00453,0.12062
3937.93300,0.12233
3939.86147,0.12717
3941.78994,0.13001
3943.71841,0.12852
3945.64688,0.12774
3947.57535,0.12952
3949.50381,0.12895
3951.43228,0.12507
3953.36075,0.12292
3955.28922,0.12244
3957.21769,0.12044
3959.14616,0.11829
3961.07463,0.11786
3963.00309,0.11828
3964.93156,0.11771
3966.86003,0.11639
3968.78850,0.11726
3970.71697,0.11988
3972.64544,0.11991
3974.57391,0.11739
3976.50238,0.11686
3978.43084,0.11795
3980.35931,0.11624
3982.28778,0.11153
3984.21625,0.10783
3986.14472,0.10682
3988.07319,0.10714
3990.00166,0.10846
3991.93012,0.10942
3993.85859,0.10892
3995.78706,0.10897
3997.71553,0.11026
3999.64400,0.11342
4001.57247,0.11973
4003.50094,0.12380
4005.42941,0.11965
4007.35787,0.11327
4009.28634,0.11118
4011.21481,0.11005
4013.14328,0.10916
4015.07175,0.11019
4017.00022,0.11133
4018.92869,0.11150
4020.85715,0.11080
4022.78562,0.10985
4024.71409,0.10967
4026.64256,0.11089
4028.57103,0.11295
4030.49950,0.11391
4032.42797,0.11240
4034.35644,0.11010
4036.28490,0.10811
4038.21337,0.10638
4040.14184,0.10736
4042.07031,0.11106
4043.99878,0.11493
4045.92725,0.11648
4047.85572,0.11381
4049.78418,0.10885
4051.71265,0.10622
4053.64112,0.10610
4055.56959,0.10620
4057.49806,0.10874
4059.42653,0.11200
4061.35500,0.11044
4063.28346,0.10588
4065.21193,0.10207
4067.14040,0.09951
4069.06887,0.09899
4070.99734,0.10135
4072.92581,0.10514
4074.85428,0.10596
4076.78275,0.10258
4078.71121,0.10074
4080.63968,0.10305
4082.56815,0.10679
4084.49662,0.11031
4086.42509,0.11134
4088.35356,0.10880
4090.28203,0.10623
4092.21049,0.10566
4094.13896,0.10500
4096.06743,0.10488
4097.99590,0.10623
4099.92437,0.10682
4101.85284,0.10529
4103.78131,0.10171
4105.70978,0.09593
4107.63824,0.09134
4109.56671,0.09398
4111.49518,0.09989
4113.42365,0.10154
4115.35212,0.10043
4117.28059,0.10051
4119.20906,0.10200
4121.13752,0.10268
4123.06599,0.10166
4124.99446,0.09913
4126.92293,0.09732
4128.85140,0.09831
4130.77987,0.10099
4132.70834,0.10328
4134.63681,0.09983
4136.56527,0.09205
4138.49374,0.08881
4140.42221,0.08959
4142.35068,0.09102
4144.27915,0.09309
4146.20762,0.09243
4148.13609,0.08898
4150.06455,0.08598
4151.99302,0.08543
4153.92149,0.08882
4155.84996,0.09169
4157.77843,0.09149
4159.70690,0.09211
4161.63537,0.09244
4163.56384,0.08964
4165.49230,0.08592
4167.42077,0.08361
4169.34924,0.08191
4171.27771,0.08230
4173.20618,0.08818
4175.13465,0.09577
4177.06312,0.09792
4178.99158,0.09453
4180.92005,0.08997
4182.84852,0.08629
4184.77699,0.08333
4186.70546,0.08119
4188.63393,0.08308
4190.56240,0.08947
4192.49087,0.09257
4194.41933,0.08967
4196.34780,0.08761
4198.27627,0.08927
4200.20474,0.08977
4202.13321,0.08604
4204.06168,0.08170
4205.99015,0.08208
4207.91861,0.08706
4209.84708,0.08963
4211.77555,0.08671
4213.70402,0.08291
4215.63249,0.08071
4217.56096,0.07879
4219.48943,0.07791
4221.41789,0.07812
4223.34636,0.07548
4225.27483,0.07112
4227.20330,0.07010
4229.13177,0.07225
4231.06024,0.07533
4232.98871,0.07748
4234.91718,0.07668
4236.84564,0.07185
4238.77411,0.06716
4240.70258,0.06789
4242.63105,0.07198
4244.55952,0.07430
4246.48799,0.07318
4248.41646,0.07083
4250.34492,0.06841
4252.27339,0.06432
4254.20186,0.06079
4256.13033,0.06409
4258.05880,0.07361
4259.98727,0.08076
4261.91574,0.08166
4263.84421,0.07812
4265.77267,0.07302
4267.70114,0.07048
4269.62961,0.07001
4271.55808,0.06881
4273.48655,0.06583
4275.41502,0.05946
4277.34349,0.05519
4279.27195,0.05935
4281.20042,0.06460
4283.12889,0.06438
4285.05736,0.06268
4286.98583,0.06212
4288.91430,0.06078
4290.84277,0.05835
4292.77124,0.05956
4294.69970,0.06644
4296.62817,0.07253
4298.55664,0.07364
4300.48511,0.07204
4302.41358,0.06850
4304.34205,0.06174
4306.27052,0.05562
4308.19898,0.05660
4310.12745,0.06053
4312.05592,0.06078
4313.98439,0.05942
4315.91286,0.05669
4317.84133,0.05355
4319.76980,0.05397
4321.69827,0.05566
4323.62673,0.05500
4325.55520,0.05396
4327.48367,0.05465
4329.41214,0.05469
4331.34061,0.05100
4333.26908,0.04616
4335.19755,0.04580
4337.12601,0.04710
4339.05448,0.04548
4340.98295,0.04503
4342.91142,0.04792
4344.83989,0.05185
4346.76836,0.05529
4348.69683,0.05831
4350.62530,0.05924
4352.55376,0.05460
4354.48223,0.04650
4356.41070,0.03900
4358.33917,0.03624
4360.26764,0.04160
4362.19611,0.04808
4364.12458,0.04824
4366.05304,0.04700
4367.98151,0.04810
4369.90998,0.04764
4371.83845,0.04543
4373.76692,0.04515
4375.69539,0.04862
4377.62386,0.05196
4379.55232,0.04797
4381.48079,0.04019
4383.40926,0.03879
4385.33773,0.04269
4387.26620,0.04411
4389.19467,0.04182
4391.12314,0.04027
4393.05161,0.04080
4394.98007,0.04189
4396.90854,0.04444
4398.83701,0.04619
4400.76548,0.04190
4402.69395,0.03455
4404.62242,0.03137
4406.55089,0.03150
4408.47935,0.02998
4410.40782,0.02824
4412.33629,0.03095
4414.26476,0.03429
4416.19323,0.03329
4418.12170,0.03389
4420.05017,0.03893
4421.97864,0.04079
4423.90710,0.03786
4425.83557,0.03538
4427.76404,0.03294
4429.69251,0.02924
4431.62098,0.02806
4433.54945,0.03043
4435.47792,0.03211
4437.40638,0.03180
4439.33485,0.03345
4441.26332,0.03727
4443.19179,0.03860
4445.12026,0.03490
4447.04873,0.02878
4448.97720,0.02490
4450.90567,0.02321
4452.83413,0.02135
4454.76260,0.02032
4456.69107,0.02205
4458.61954,0.02620
4460.54801,0.03074
4462.47648,0.03178
4464.40495,0.02616
4466.33341,0.02158
4468.26188,0.02667
4470.19035,0.03466
4472.11882,0.03673
4474.04729,0.03197
4475.97576,0.02476
4477.90423,0.02317
4479.83270,0.02514
4481.76116,0.02144
4483.68963,0.01583
4485.61810,0.01560
4487.54657,0.01552
4489.47504,0.01266
4491.40351,0.01274
4493.33198,0.01547
4495.26044,0.01526
4497.18891,0.01417
4499.11738,0.01674
4501.04585,0.01872
4502.97432,0.01798
4504.90279,0.01702
4506.83126,0.01429
4508.75973,0.01119
4510.68819,0.01098
4512.61666,0.01427
4514.54513,0.01872
4516.47360,0.01722
4518.40207,0.01076
4520.33054,0.00767
4522.25901,0.00829
4524.18747,0.01135
4526.11594,0.01490
4528.04441,0.01381
4529.97288,0.01118
4531.90135,0.01187
4533.82982,0.01186
4535.75829,0.00712
4537.68676,0.00425
4539.61522,0.01142
4541.54369,0.02119
4543.47216,0.02111
4545.40063,0.01398
4547.32910,0.01071
4549.25757,0.01095
4551.18604,0.00856
4553.11450,0.00584
4555.04297,0.00628
4556.97144,0.00714
4558.89991,0.00466
4560.82838,0.00167
4562.75685,0.00185
4564.68532,0.00544
4566.61378,0.01310
4568.54225,0.01880
4570.47072,0.01593
4572.39919,0.01009
4574.32766,0.00770
4576.25613,0.00811
4578.18460,0.00868
4580.11307,0.00737
4582.04153,0.00530
4583.97000,0.00468
4585.89847,0.00685
4587.82694,0.01142
4589.75541,0.01242
4591.68388,0.00686
4593.61235,0.00270
4595.54081,0.00639
4597.46928,0.01058
4599.39775,0.00984
4601.32622,0.01101
4603.25469,0.01437
4605.18316,0.01343
4607.11163,0.00756
4609.04010,0.00189
4610.96856,0.00161
4612.89703,0.00636
4614.82550,0.01096
4616.75397,0.01128
4618.68244,0.00989
4620.61091,0.00995
4622.53938,0.01116
4624.46784,0.01150
4626.39631,0.01046
4628.32478,0.01181
4630.25325,0.01493
4632.18172,0.01675
4634.11019,0.01601
4636.03866,0.01200
4637.96713,0.00625
4639.89559,0.00133
4641.82406,0.00016
4643.75253,0.00162
4645.68100,0.00216
4647.60947,0.00369
4649.53794,0.00976
4651.46641,0.01701
4653.39487,0.01917
4655.32334,0.01358
4657.25181,0.00056
4659.18028,-0.01057
4661.10875,-0.00806
4663.03722,0.00305
4664.96569,0.01277
4666.89416,0.01706
4668.82262,0.01407
4670.75109,0.00924
4672.67956,0.00425
4674.60803,-0.00052
4676.53650,0.00127
4678.46497,0.00460
4680.39344,0.00394
4682.32190,0.00325
4684.25037,0.00138
4686.17884,0.00021
4688.10731,0.00490
4690.03578,0.00803
4691.96425,0.00247
4693.89272,-0.00465
4695.82119,-0.00221
4697.74965,0.00636
4699.67812,0.01054
4701.60659,0.01138
4703.53506,0.01027
4705.46353,0.00833
4707.39200,0.00739
4709.32047,0.00442
4711.24893,0.00140
4713.17740,0.00101
4715.10587,0.00109
4717.03434,-0.00002
4718.96281,0.00012
4720.89128,0.00340
4722.81975,0.00600
4724.74821,0.00432
4726.67668,0.00245
4728.60515,0.00360
4730.53362,0.00285
4732.46209,0.00058
4734.39056,-0.00136
4736.31903,-0.00436
4738.24750,-0.00380
4740.17596,-0.00113
4742.10443,-0.00574
4744.03290,-0.01363
4745.96137,-0.01634
4747.88984,-0.01548
4749.81831,-0.00829
4751.74678,0.00397
4753.67524,0.00993
4755.60371,0.00863
4757.53218,0.00639
4759.46065,0.00611
4761.38912,0.00561
4763.31759,0.00094
4765.24606,-0.00479
4767.17453,-0.00714
4769.10299,-0.00470
4771.03146,0.00101
4772.95993,0.00282
4774.88840,0.00160
4776.81687,0.00558
4778.74534,0.01233
4780.67381,0.01361
4782.60227,0.01262
4784.53074,0.01673
4786.45921,0.02112
4788.38768,0.02041
4790.31615,0.01660
4792.24462,0.01292
4794.17309,0.00955
4796.10156,0.00584
4798.03002,0.00829
4799.95849,0.01473
4801.88696,0.01708
4803.81543,0.01725
4805.74390,0.01205
4807.67237,0.00137
4809.60084,-0.00352
4811.52930,-0.00394
4813.45777,-0.00681
4815.38624,-0.00738
4817.31471,-0.00258
4819.24318,0.00251
4821.17165,0.00637
4823.10012,0.01168
4825.02859,0.01480
4826.95705,0.00934
4828.88552,-0.00032
4830.81399,-0.00644
4832.74246,-0.00400
4834.67093,0.00773
4836.59940,0.01694
4838.52787,0.01454
4840.45633,0.00727
4842.38480,0.00559
4844.31327,0.00983
4846.24174,0.01226
4848.17021,0.01042
4850.09868,0.00491
4852.02715,-0.00446
4853.95562,-0.01000
4855.88408,-0.00272
4857.81255,0.01374
4859.74102,0.02329
4861.66949,0.01855
4863.59796,0.01078
4865.52643,0.00629
4867.45490,0.00202
4869.38336,-0.00275
4871.31183,-0.00886
4873.24030,-0.01148
4875.16877,-0.00371
4877.09724,0.00553
4879.02571,0.00315
4880.95418,-0.00829
4882.88265,-0.01356
4884.81111,-0.00661
4886.73958,0.00381
4888.66805,0.01331
4890.59652,0.01760
4892.52499,0.01317
4894.45346,0.00757
4896.38193,0.00580
4898.31039,0.00614
4900.23886,0.00917
4902.16733,0.01588
4904.09580,0.01491
4906.02427,0.00433
4907.95274,-0.00001
4909.88121,0.00069
4911.80967,-0.00250
4913.73814,-0.00565
4915.66661,-0.00278
4917.59508,0.00384
4919.52355,0.01094
4921.45202,0.01601
4923.38049,0.01276
4925.30896,0.00350
4927.23742,-0.00147
4929.16589,0.00093
4931.09436,0.00593
4933.02283,0.00447
4934.95130,-0.00492
4936.87977,-0.01018
4938.80824,-0.00614
4940.73670,0.00220
4942.66517,0.00732
4944.59364,0.00194
4946.52211,-0.00713
4948.45058,-0.00772
4950.37905,-0.00057
4952.30752,0.00652
4954.23599,0.01027
4956.16445,0.01367
4958.09292,0.01748
4960.02139,0.01795
4961.94986,0.01818
4963.87833,0.02501
4965.80680,0.03240
4967.73527,0.03132
4969.66373,0.02413
4971.59220,0.01773
4973.52067,0.01416
4975.44914,0.01215
4977.37761,0.01043
4979.30608,0.00870
4981.23455,0.00965
4983.16302,0.01272
4985.09148,0.01487
4987.01995,0.01460
4988.94842,0.01060
4990.87689,0.00373
4992.80536,0.00047
4994.73383,0.00580
4996.66230,0.01450
4998.59076,0.01981
5000.51923,0.01548
5002.44770,0.00260
5004.37617,-0.00621
5006.30464,-0.00628
5008.23311,-0.00455
5010.16158,-0.00579
5012.09005,-0.00162
5014.01851,0.01284
5015.94698,0.02798
5017.87545,0.03608
5019.80392,0.02934
5021.73239,0.01430
5023.66086,0.01042
5025.58933,0.01229
5027.51779,0.00727
5029.44626,0.00435
5031.37473,0.01147
5033.30320,0.01947
5035.23167,0.02116
5037.16014,0.02131
5039.08861,0.01938
5041.01708,0.01354
5042.94554,0.00681
5044.87401,-0.00215
5046.80248,-0.01108
5048.73095,-0.01556
5050.65942,-0.01430
5052.58789,-0.00283
5054.51636,0.01465
5056.44482,0.02501
5058.37329,0.02859
5060.30176,0.02798
5062.23023,0.01757
5064.15870,0.00744
5066.08717,0.01139
5068.01564,0.02418
5069.94410,0.03328
5071.87257,0.03521
5073.80104,0.03615
5075.72951,0.03746
5077.65798,0.03477
5079.58645,0.03025
5081.51492,0.03378
5083.44339,0.04407
5085.37185,0.04421
5087.30032,0.03353
5089.22879,0.02363
5091.15726,0.01159
5093.08573,0.00628
5095.01420,0.02183
5096.94267,0.03417
5098.87113,0.02181
5100.79960,0.01203
5102.72807,0.02572
5104.65654,0.03733
5106.58501,0.02605
5108.51348,0.01007
5110.44195,0.01042
5112.37042,0.02135
5114.29888,0.02296
5116.22735,0.01516
5118.15582,0.01205
5120.08429,0.01503
5122.01276,0.02087
5123.94123,0.02365
5125.86970,0.01849
5127.79816,0.01099
5129.72663,0.00990
5131.65510,0.01971
5133.58357,0.03519
5135.51204,0.04269
5137.44051,0.03505
5139.36898,0.02283
5141.29745,0.01607
5143.22591,0.00908
5145.15438,0.00149
5147.08285,0.00300
5149.01132,0.01100
5150.93979,0.01655
5152.86826,0.02086
5154.79673,0.02622
5156.72519,0.03157
5158.65366,0.03063
5160.58213,0.01849
5162.51060,0.01119
5164.43907,0.02180
5166.36754,0.03675
5168.29601,0.04299
5170.22448,0.03941
5172.15294,0.03485
5174.08141,0.03439
5176.00988,0.03322
5177.93835,0.03505
5179.86682,0.03423
5181.79529,0.02077
5183.72376,0.01180
5185.65222,0.01838
5187.58069,0.02785
5189.50916,0.03420
5191.43763,0.03939
5193.36610,0.04530
5195.29457,0.04274
5197.22304,0.02918
5199.15151,0.02989
5201.07997,0.04451
5203.00844,0.04746
5204.93691,0.04067
5206.86538,0.04422
5208.79385,0.05789
5210.72232,0.06244
5212.65079,0.05334
5214.57925,0.03826
5216.50772,0.03410
5218.43619,0.04680
5220.36466,0.05269
5222.29313,0.04381
5224.22160,0.04117
5226.15007,0.05076
5228.07854,0.05311
5230.00700,0.04641
5231.93547,0.04177
5233.86394,0.03562
5235.79241,0.03327
5237.72088,0.04010
5239.64935,0.04077
5241.57782,0.03940
5243.50628,0.05188
5245.43475,0.06297
5247.36322,0.05946
5249.29169,0.04991
5251.22016,0.04418
5253.14863,0.04681
5255.07710,0.04938
5257.00556,0.04535
5258.93403,0.04296
5260.86250,0.04890
5262.79097,0.05253
5264.71944,0.03876
5266.64791,0.02325
5268.57638,0.02526
5270.50485,0.03449
5272.43331,0.03877
5274.36178,0.04304
5276.29025,0.04284
5278.21872,0.03303
5280.14719,0.03171
5282.07566,0.04029
5284.00413,0.04273
5285.93259,0.04351
5287.86106,0.04256
5289.78953,0.03513
5291.71800,0.03445
5293.64647,0.04561
5295.57494,0.06314
5297.50341,0.08133
5299.43188,0.08818
5301.36034,0.07829
5303.28881,0.05616
5305.21728,0.04024
5307.14575,0.05248
5309.07422,0.06967
5311.00269,0.06404
5312.93116,0.05923
5314.85962,0.06386
5316.78809,0.06281
5318.71656,0.05571
5320.64503,0.04766
5322.57350,0.04080
5324.50197,0.03776
5326.43044,0.04296
5328.35891,0.05439
5330.28737,0.06714
5332.21584,0.08119
5334.14431,0.09013
5336.07278,0.09228
5338.00125,0.08374
5339.92972,0.05515
5341.85819,0.02648
5343.78665,0.02005
5345.71512,0.03327
5347.64359,0.04188
5349.57206,0.04229
5351.50053,0.05866
5353.42900,0.08648
5355.35747,0.08620
5357.28594,0.07287
5359.21440,0.07946
5361.14287,0.09484
5363.07134,0.09074
5364.99981,0.06204
5366.92828,0.03594
5368.85675,0.03483
5370.78522,0.05536
5372.71368,0.07929
5374.64215,0.08575
5376.57062,0.07368
5378.49909,0.06242
5380.42756,0.05244
5382.35603,0.04024
5384.28450,0.04103
5386.21297,0.05881
5388.14143,0.06731
5390.06990,0.05618
5391.99837,0.03763
5393.92684,0.03758
5395.85531,0.07029
5397.78378,0.09844
5399.71225,0.08690
5401.64071,0.05894
5403.56918,0.05694
5405.49765,0.06819
5407.42612,0.07476
5409.35459,0.08834
5411.28306,0.09327
5413.21153,0.07828
5415.13999,0.06385
5417.06846,0.06436
5418.99693,0.07553
5420.92540,0.08107
5422.85387,0.07655
5424.78234,0.06939
5426.71081,0.06133
5428.63928,0.05189
5430.56774,0.05321
5432.49621,0.06813
5434.42468,0.07323
5436.35315,0.05853
5438.28162,0.04681
5440.21009,0.05193
5442.13856,0.06155
5444.06702,0.06351
5445.99549,0.06553
5447.92396,0.07051
5449.85243,0.07018
5451.78090,0.06712
5453.70937,0.07118
5455.63784,0.07575
5457.56631,0.06838
5459.49477,0.06373
5461.42324,0.07882
5463.35171,0.09417
5465.28018,0.09096
5467.20865,0.08609
5469.13712,0.09105
5471.06559,0.09104
5472.99405,0.08316
5474.92252,0.08577
5476.85099,0.10077
5478.77946,0.10843
5480.70793,0.10517
5482.63640,0.09687
5484.56487,0.08321
5486.49334,0.05775
5488.42180,0.04046
5490.35027,0.06127
5492.27874,0.08898
5494.20721,0.08607
5496.13568,0.08402
5498.06415,0.10743
5499.99262,0.12752
5501.92108,0.11499
5503.84955,0.08447
5505.77802,0.05440
5507.70649,0.04035
5509.63496,0.05330
5511.56343,0.07770
5513.49190,0.08794
5515.42037,0.07972
5517.34883,0.08119
5519.27730,0.09150
5521.20577,0.08272
5523.13424,0.06647
5525.06271,0.06490
5526.99118,0.06251
5528.91965,0.05094
5530.84811,0.05536
5532.77658,0.07533
5534.70505,0.08584
5536.63352,0.08211
5538.56199,0.07833
5540.49046,0.08500
5542.41893,0.08873
5544.34740,0.07767
5546.27586,0.06419
5548.20433,0.05916
5550.13280,0.06138
5552.06127,0.06896
5553.98974,0.07374
5555.91821,0.07039
5557.84668,0.07460
5559.77514,0.09200
5561.70361,0.10189
5563.63208,0.09568
5565.56055,0.08594
5567.48902,0.07806
5569.41749,0.07794
5571.34596,0.09389
5573.27443,0.10597
5575.20289,0.09276
5577.13136,0.07949
5579.05983,0.07905
5580.98830,0.07117
5582.91677,0.06614
5584.84524,0.06351
5586.77371,0.04801
5588.70217,0.05267
5590.63064,0.07962
5592.55911,0.09448
5594.48758,0.10247
5596.41605,0.10197
5598.34452,0.08541
5600.27299,0.07453
5602.20145,0.07775
5604.12992,0.08236
5606.05839,0.08451
5607.98686,0.08618
5609.91533,0.08654
5611.84380,0.09067
5613.77227,0.09989
5615.70074,0.10360
5617.62920,0.10368
5619.55767,0.10517
5621.48614,0.11476
5623.41461,0.13121
5625.34308,0.13061
5627.27155,0.12047
5629.20002,0.12690
5631.12848,0.13939
5633.05695,0.14072
5634.98542,0.12876
5636.91389,0.10787
5638.84236,0.08286
5640.77083,0.06406
5642.69930,0.06440
5644.62777,0.08560
5646.55623,0.10706
5648.48470,0.10825
5650.41317,0.09976
5652.34164,0.08766
5654.27011,0.06512
5656.19858,0.04424
5658.12705,0.03746
5660.05551,0.04692
5661.98398,0.05885
5663.91245,0.05042
5665.84092,0.03812
5667.76939,0.04297
5669.69786,0.05412
5671.62633,0.06944
5673.55480,0.08857
5675.48326,0.09286
5677.41173,0.08039
5679.34020,0.07116
5681.26867,0.06309
5683.19714,0.04818
5685.12561,0.04073
5687.05408,0.04877
5688.98254,0.05485
5690.91101,0.04551
5692.83948,0.03779
5694.76795,0.05111
5696.69642,0.07783
5698.62489,0.08978
5700.55336,0.07747
5702.48183,0.06411
5704.41029,0.07012
5706.33876,0.09062
5708.26723,0.10744
5710.19570,0.11387
5712.12417,0.11437
5714.05264,0.11470
5715.98111,0.12008
5717.90957,0.12378
5719.83804,0.11827
5721.76651,0.10021
5723.69498,0.07206
5725.62345,0.06074
5727.55192,0.07217
5729.48039,0.07272
5731.40886,0.06573
5733.33732,0.07949
5735.26579,0.10645
5737.19426,0.12580
5739.12273,0.13470
5741.05120,0.12622
5742.97967,0.09915
5744.90814,0.07970
5746.83660,0.08251
5748.76507,0.08893
5750.69354,0.08566
5752.62201,0.08200
5754.55048,0.08602
5756.47895,0.09522
5758.40742,0.09790
5760.33588,0.08639
5762.26435,0.07395
5764.19282,0.08190
5766.12129,0.10100
5768.04976,0.10181
5769.97823,0.08462
5771.90670,0.07353
5773.83517,0.07988
5775.76363,0.09512
5777.69210,0.10715
5779.62057,0.10386
5781.54904,0.08735
5783.47751,0.07826
5785.40598,0.07950
5787.33445,0.08038
5789.26291,0.09304
5791.19138,0.12239
5793.11985,0.13154
5795.04832,0.09992
5796.97679,0.06364
5798.90526,0.06403
5800.83373,0.09525
5802.76220,0.12150
5804.69066,0.12219
5806.61913,0.10827
5808.54760,0.10536
5810.47607,0.11303
5812.40454,0.10707
5814.33301,0.08937
5816.26148,0.06734
5818.18994,0.04104
5820.11841,0.04175
5822.04688,0.09223
5823.97535,0.13799
5825.90382,0.12763
5827.83229,0.09983
5829.76076,0.09382
5831.68923,0.08411
5833.61769,0.05772
5835.54616,0.04621
5837.47463,0.06530
5839.40310,0.09315
5841.33157,0.11482
5843.26004,0.12300
5845.18851,0.10184
5847.11697,0.07112
5849.04544,0.07054
5850.97391,0.08679
5852.90238,0.08600
5854.83085,0.08060
5856.75932,0.09279
5858.68779,0.11289
5860.61626,0.11344
5862.54472,0.09490
5864.47319,0.08140
5866.40166,0.07500
5868.33013,0.07829
5870.25860,0.10191
5872.18707,0.11509
5874.11554,0.10067
5876.04400,0.09576
5877.97247,0.11611
5879.90094,0.13662
5881.82941,0.14047
5883.75788,0.12909
5885.68635,0.10856
5887.61482,0.08792
5889.54329,0.06766
5891.47175,0.04827
5893.40022,0.05089
5895.32869,0.07087
5897.25716,0.08085
5899.18563,0.06935
5901.11410,0.05945
5903.04257,0.08706
5904.97103,0.12696
5906.89950,0.12992
5908.82797,0.10157
5910.75644,0.09328
5912.68491,0.10545
5914.61338,0.10391
5916.54185,0.10399
5918.47032,0.11234
5920.39878,0.11169
5922.32725,0.08540
5924.25572,0.04283
5926.18419,0.03469
5928.11266,0.06468
5930.04113,0.08156
5931.96960,0.08594
5933.89806,0.10971
5935.82653,0.11956
5937.75500,0.08305
5939.68347,0.05436
5941.61194,0.07403
5943.54041,0.09778
5945.46888,0.10074
5947.39734,0.10458
5949.32581,0.10393
5951.25428,0.10368
5953.18275,0.11856
5955.11122,0.12347
5957.03969,0.10224
5958.96816,0.09185
5960.89663,0.09578
5962.82509,0.06866
5964.75356,0.04675
5966.68203,0.08005
5968.61050,0.12559
5970.53897,0.13128
5972.46744,0.10934
5974.39591,0.08247
5976.32437,0.06317
5978.25284,0.06544
5980.18131,0.08671
5982.10978,0.10763
5984.03825,0.11315
5985.96672,0.11346
5987.89519,0.12226
5989.82366,0.12390
5991.75212,0.11665
5993.68059,0.11706
5995.60906,0.11708
5997.53753,0.11376
5999.46600,0.10825
6001.39447,0.10216
6003.32294,0.10237
6005.25140,0.08501
6007.17987,0.05752
6009.10834,0.05559
6011.03681,0.07077
6012.96528,0.07605
6014.89375,0.06725
6016.82222,0.07432
6018.75069,0.09334
6020.67915,0.08514
6022.60762,0.06137
6024.53609,0.04913
6026.46456,0.05199
6028.39303,0.06171
6030.32150,0.07414
6032.24997,0.10239
6034.17843,0.12290
6036.10690,0.09135
6038.03537,0.06828
6039.96384,0.10546
6041.89231,0.13018
6043.82078,0.10670
6045.74925,0.09240
6047.67772,0.10673
6049.60618,0.10972
6051.53465,0.09844
6053.46312,0.11143
6055.39159,0.13916
6057.32006,0.14689
6059.24853,0.14374
6061.17700,0.11835
6063.10546,0.05581
6065.03393,0.01600
6066.96240,0.03251
6068.89087,0.07228
6070.81934,0.07997
6072.74781,0.04322
6074.67628,0.02512
6076.60475,0.05392
6078.53321,0.08698
6080.46168,0.10177
6082.39015,0.10838
6084.31862,0.10843
6086.24709,0.10216
6088.17556,0.09564
6090.10403,0.08699
6092.03249,0.08802
6093.96096,0.09324
6095.88943,0.08224
6097.81790,0.08803
6099.74637,0.11911
6101.67484,0.12070
6103.60331,0.10089
6105.53177,0.11212
6107.46024,0.14564
6109.38871,0.15701
6111.31718,0.13128
6113.24565,0.09695
6115.17412,0.08450
6117.10259,0.09068
6119.03106,0.09174
6120.95952,0.07104
6122.88799,0.03514
6124.81646,0.00940
6126.74493,0.02513
6128.67340,0.07354
6130.60187,0.09571
6132.53034,0.08645
6134.45880,0.08961
6136.38727,0.09339
6138.31574,0.07343
6140.24421,0.04803
6142.17268,0.03136
6144.10115,0.03787
6146.02962,0.07482
6147.95809,0.10689
6149.88655,0.09515
6151.81502,0.05182
6153.74349,0.03162
6155.67196,0.04430
6157.60043,0.08079
6159.52890,0.12033
6161.45737,0.11126
6163.38583,0.07911
6165.31430,0.07354
6167.24277,0.08352
6169.17124,0.10103
6171.09971,0.10647
6173.02818,0.07643
6174.95665,0.05303
6176.88512,0.08398
6178.81358,0.14486
6180.74205,0.18501
6182.67052,0.17798
6184.59899,0.13465
6186.52746,0.09952
6188.45593,0.10697
6190.38440,0.13266
6192.31286,0.13568
6194.24133,0.12478
6196.16980,0.12091
6198.09827,0.11165
6200.02674,0.09261
6201.95521,0.08599
6203.88368,0.09413
6205.81215,0.10478
6207.74061,0.12004
6209.66908,0.12579
6211.59755,0.10627
6213.52602,0.07814
6215.45449,0.05331
6217.38296,0.04423
6219.31143,0.04599
6221.23989,0.03265
6223.16836,0.02702
6225.09683,0.05935
6227.02530,0.10008
6228.95377,0.13097
6230.88224,0.13530
6232.81071,0.10287
6234.73918,0.07343
6236.66764,0.06358
6238.59611,0.06966
6240.52458,0.08609
6242.45305,0.09966
6244.38152,0.09181
6246.30999,0.07262
6248.23846,0.07829
6250.16692,0.07747
6252.09539,0.05479
6254.02386,0.05548
6255.95233,0.07178
6257.88080,0.08673
6259.80927,0.10647
6261.73774,0.13163
6263.66621,0.14138
6265.59467,0.11799
6267.52314,0.09881
6269.45161,0.09878
6271.38008,0.08398
6273.30855,0.05305
6275.23702,0.04352
6277.16549,0.07374
6279.09395,0.10856
6281.02242,0.13347
6282.95089,0.14962
6284.87936,0.12364
6286.80783,0.08160
6288.73630,0.07213
6290.66477,0.07657
6292.59323,0.08097
6294.52170,0.10733
6296.45017,0.15363
6298.37864,0.18070
6300.30711,0.16475
6302.23558,0.12146
6304.16405,0.10382
6306.09252,0.14316
6308.02098,0.18237
6309.94945,0.17305
6311.87792,0.13538
6313.80639,0.09165
6315.73486,0.08334
6317.66333,0.10895
6319.59180,0.11604
6321.52026,0.11692
6323.44873,0.11475
6325.37720,0.10230
6327.30567,0.13311
6329.23414,0.17118
6331.16261,0.13309
6333.09108,0.07986
6335.01955,0.07377
6336.94801,0.07112
6338.87648,0.03518
6340.80495,-0.00102
6342.73342,0.02346
6344.66189,0.09321
6346.59036,0.12990
6348.51883,0.13014
6350.44729,0.13775
6352.37576,0.13005
6354.30423,0.09844
6356.23270,0.07552
6358.16117,0.06428
6360.08964,0.05260
6362.01811,0.05476
6363.94658,0.08055
6365.87504,0.09893
6367.80351,0.09027
6369.73198,0.09220
6371.66045,0.10788
6373.58892,0.08428
6375.51739,0.03844
6377.44586,0.02814
6379.37432,0.05250
6381.30279,0.09391
6383.23126,0.12952
6385.15973,0.12827
6387.08820,0.11350
6389.01667,0.12017
6390.94514,0.14481
6392.87361,0.15702
6394.80207,0.12820
6396.73054,0.06802
6398.65901,0.01276
6400.58748,-0.01513
6402.51595,-0.02650
6404.44442,-0.02686
6406.37289,-0.01108
6408.30135,0.02750
6410.22982,0.08987
6412.15829,0.13818
6414.08676,0.17299
6416.01523,0.21033
6417.94370,0.19252
6419.87217,0.10632
6421.80064,0.03714
6423.72910,0.02074
6425.65757,0.03393
6427.58604,0.04703
6429.51451,0.05879
6431.44298,0.08361
6433.37145,0.10047
6435.29992,0.08683
6437.22838,0.07049
6439.15685,0.05476
6441.08532,0.02232
6443.01379,0.00080
6444.94226,0.00949
6446.87073,0.03119
6448.79920,0.05286
6450.72766,0.08193
6452.65613,0.11394
6454.58460,0.12322
6456.51307,0.11727
6458.44154,0.10951
6460.37001,0.09546
6462.29848,0.08078
6464.22695,0.06005
6466.15541,0.02256
6468.08388,-0.00971
6470.01235,-0.00271
6471.94082,0.02541
6473.86929,0.01954
6475.79776,0.01078
6477.72623,0.06442
6479.65469,0.10830
6481.58316,0.07062
6483.51163,0.01973
6485.44010,0.01258
6487.36857,0.04226
6489.29704,0.07980
6491.22551,0.08614
6493.15398,0.06366
6495.08244,0.03789
6497.01091,0.01701
6498.93938,0.01842
6500.86785,0.05579
6502.79632,0.09839
6504.72479,0.11647
6506.65326,0.13315
6508.58172,0.15058
6510.51019,0.14562
6512.43866,0.13316
6514.36713,0.11322
6516.29560,0.07705
6518.22407,0.04897
6520.15254,0.04022
6522.08101,0.06270
6524.00947,0.10132
6525.93794,0.10014
6527.86641,0.08165
6529.79488,0.08933
6531.72335,0.08277
6533.65182,0.05897
6535.58029,0.07658
6537.50875,0.11160
6539.43722,0.10619
6541.36569,0.07149
6543.29416,0.02904
6545.22263,0.00401
6547.15110,0.02870
6549.07957,0.08499
6551.00804,0.10293
6552.93650,0.03396
6554.86497,-0.05338
6556.79344,-0.06426
6558.72191,-0.04010
6560.65038,-0.04579
6562.57885,-0.06887
6564.50732,-0.08030
6566.43578,-0.03999
6568.36425,0.03663
6570.29272,0.09414
6572.22119,0.11318
6574.14966,0.10139
6576.07813,0.08071
6578.00660,0.05018
6579.93507,-0.00625
6581.86353,-0.04212
6583.79200,-0.01252
6585.72047,0.01055
6587.64894,-0.00687
6589.57741,-0.01362
6591.50588,0.02275
6593.43435,0.08690
6595.36281,0.11863
6597.29128,0.12347
6599.21975,0.12785
6601.14822,0.10658
6603.07669,0.07957
6605.00516,0.07266
6606.93363,0.03533
6608.86210,-0.02240
6610.79056,-0.00078
6612.71903,0.06426
6614.64750,0.07870
6616.57597,0.07550
6618.50444,0.08017
6620.43291,0.09092
6622.36138,0.09674
6624.28984,0.04639
6626.21831,-0.02695
6628.14678,-0.01852
6630.07525,0.05164
6632.00372,0.07364
6633.93219,0.04851
6635.86066,0.02140
6637.78912,0.02162
6639.71759,0.03993
6641.64606,0.03693
6643.57453,0.00942
6645.50300,0.00467
6647.43147,0.01749
6649.35994,0.01048
6651.28841,0.03013
6653.21687,0.08997
6655.14534,0.12838
6657.07381,0.12352
6659.00228,0.09312
6660.93075,0.05892
6662.85922,0.05460
6664.78769,0.09044
6666.71615,0.13069
6668.64462,0.11092
6670.57309,0.04202
6672.50156,0.00340
6674.43003,0.02660
6676.35850,0.09338
6678.28697,0.15085
6680.21544,0.15129
6682.14390,0.10810
6684.07237,0.08115
6686.00084,0.10534
6687.92931,0.11613
6689.85778,0.06658
6691.78625,0.02127
6693.71472,0.01767
6695.64318,0.04192
6697.57165,0.05282
6699.50012,0.01232
6701.42859,-0.03575
6703.35706,-0.06269
6705.28553,-0.09843
6707.21400,-0.11165
6709.14247,-0.07210
6711.07093,0.00815
6712.99940,0.11598
6714.92787,0.18987
6716.85634,0.16593
6718.78481,0.08596
6720.71328,0.02885
6722.64175,0.00119
6724.57021,0.00432
6726.49868,0.04028
6728.42715,0.04141
6730.35562,0.00063
6732.28409,0.01702
6734.21256,0.06136
6736.14103,0.02605
6738.06950,-0.03912
6739.99796,-0.04717
6741.92643,0.00184
6743.85490,0.06074
6745.78337,0.08237
6747.71184,0.04702
6749.64031,0.02431
6751.56878,0.07196
6753.49724,0.08165
6755.42571,-0.01238
6757.35418,-0.10074
6759.28265,-0.09836
6761.21112,-0.03016
6763.13959,0.00262
6765.06806,-0.01403
6766.99653,0.00535
6768.92499,0.05173
6770.85346,0.04781
6772.78193,0.02850
6774.71040,0.06054
6776.63887,0.12178
6778.56734,0.12398
6780.49581,0.07417
6782.42427,0.06260
6784.35274,0.08953
6786.28121,0.08106
6788.20968,0.04777
6790.13815,0.04591
6792.06662,0.05964
6793.99509,0.05450
6795.92355,0.06682
6797.85202,0.10008
6799.78049,0.08605
6801.70896,0.03401
6803.63743,0.02292
6805.56590,0.03008
6807.49437,0.01313
6809.42284,-0.03216
6811.35130,-0.08549
6813.27977,-0.11110
6815.20824,-0.11434
6817.13671,-0.08935
6819.06518,-0.05992
6820.99365,-0.03432
6822.92212,0.06346
6824.85058,0.19357
6826.77905,0.22688
6828.70752,0.17318
6830.63599,0.10191
6832.56446,0.05304
6834.49293,0.02074
6836.42140,-0.01066
6838.34987,-0.00867
6840.27833,0.02288
6842.20680,0.00323
6844.13527,-0.04704
6846.06374,-0.01995
6847.99221,0.03889
6849.92068,0.02062
6851.84915,-0.00133
6853.77761,0.01455
6855.70608,0.04642
6857.63455,0.11168
6859.56302,0.18628
6861.49149,0.19866
6863.41996,0.13876
6865.34843,0.09769
6867.27690,0.09357
6869.20536,0.06717
6871.13383,0.03111
6873.06230,0.02827
6874.99077,0.06385
6876.91924,0.10910
6878.84771,0.09818
6880.77618,0.04553
6882.70464,0.02787
6884.63311,0.03799
6886.56158,0.07742
6888.49005,0.11008
6890.41852,0.09874
6892.34699,0.06523
6894.27546,0.02936
6896.20393,0.00558
6898.13239,-0.01458
6900.06086,-0.00719
6901.98933,0.05621
6903.91780,0.11455
6905.84627,0.10879
6907.77474,0.07113
6909.70321,0.03416
6911.63167,0.03107
6913.56014,0.10764
6915.48861,0.20141
6917.41708,0.21165
6919.34555,0.15750
6921.27402,0.12156
6923.20249,0.12140
6925.13096,0.13864
6927.05942,0.13642
6928.98789,0.11181
6930.91636,0.08494
6932.84483,0.04988
6934.77330,0.03622
6936.70177,0.04531
6938.63024,0.06724
6940.55870,0.09123
6942.48717,0.07099
6944.41564,0.03695
6946.34411,0.01710
6948.27258,-0.00266
6950.20105,0.00336
6952.12952,0.04218
6954.05799,0.08466
6955.98645,0.09458
6957.91492,0.03512
6959.84339,-0.01877
6961.77186,0.01173
6963.70033,0.05798
6965.62880,0.09404
6967.55727,0.17052
6969.48573,0.23499
6971.41420,0.19797
6973.34267,0.11288
6975.27114,0.04312
6977.19961,0.00193
6979.12808,0.02650
6981.05655,0.04887
6982.98501,0.01335
6984.91348,0.05254
6986.84195,0.18415
6988.77042,0.23119
6990.69889,0.17176
6992.62736,0.11870
6994.55583,0.08490
6996.48430,0.03370
6998.41276,0.02425
7000.34123,0.04109
7002.26970,-0.03527
7004.19817,-0.09697
7006.12664,-0.01463
7008.05511,0.09225
7009.98358,0.07829
7011.91204,0.04146
7013.84051,0.07949
7015.76898,0.10833
7017.69745,0.10297
7019.62592,0.11417
7021.55439,0.11473
7023.48286,0.07200
7025.41133,0.01784
7027.33979,-0.02701
7029.26826,-0.06157
7031.19673,-0.04205
7033.12520,0.02166
7035.05367,0.09334
7036.98214,0.13763
7038.91061,0.13007
7040.83907,0.10666
7042.76754,0.09529
7044.69601,0.05915
7046.62448,0.04882
7048.55295,0.10254
7050.48142,0.12083
7052.40989,0.08583
7054.33836,0.09208
7056.26682,0.16289
7058.19529,0.20100
7060.12376,0.16027
7062.05223,0.06372
7063.98070,-0.04570
7065.90917,-0.10210
7067.83764,-0.11242
7069.76610,-0.09732
7071.69457,-0.07675
7073.62304,-0.05456
7075.55151,-0.03673
7077.47998,-0.02582
7079.40845,-0.02926
7081.33692,-0.07220
7083.26539,-0.06742
7085.19385,0.01613
7087.12232,0.07094
7089.05079,0.02188
7090.97926,-0.03737
7092.90773,-0.01780
7094.83620,0.00905
7096.76467,0.01333
7098.69313,0.08099
7100.62160,0.14548
7102.55007,0.06982
7104.47854,-0.08660
7106.40701,-0.16416
7108.33548,-0.11862
7110.26395,-0.02422
7112.19242,0.05622
7114.12088,0.11768
7116.04935,0.16824
7117.97782,0.12710
7119.90629,0.05883
7121.83476,0.09244
7123.76323,0.10917
7125.69170,0.07910
7127.62016,0.13053
7129.54863,0.23550
7131.47710,0.23585
7133.40557,0.10352
7135.33404,0.00845
7137.26251,0.01643
7139.19098,0.02475
7141.11944,0.03523
7143.04791,0.04106
7144.97638,0.01409
7146.90485,0.03591
7148.83332,0.08107
7150.76179,0.08578
7152.69026,0.06768
7154.61873,0.04116
7156.54719,0.00820
7158.47566,0.02964
7160.40413,0.08735
7162.33260,0.07374
7164.26107,-0.00198
7166.18954,-0.05546
7168.11801,-0.07397
7170.04647,-0.07919
7171.97494,-0.05374
7173.90341,0.01652
7175.83188,0.10398
7177.76035,0.11983
7179.68882,0.06016
7181.61729,0.06693
7183.54576,0.19899
7185.47422,0.27598
7187.40269,0.22188
7189.33116,0.16742
7191.25963,0.19474
7193.18810,0.19824
7195.11657,0.11231
7197.04504,0.02590
7198.97350,-0.00706
7200.90197,-0.03872
7202.83044,-0.06578
7204.75891,-0.00053
7206.68738,0.09874
7208.61585,0.14064
7210.54432,0.14108
7212.47279,0.13092
7214.40125,0.14459
7216.32972,0.08222
7218.25819,-0.10206
7220.18666,-0.15188
7222.11513,-0.07712
7224.04360,-0.02979
7225.97207,-0.02364
7227.90053,-0.00290
7229.82900,-0.02430
7231.75747,-0.09486
7233.68594,-0.10151
7235.61441,-0.08668
7237.54288,-0.04788
7239.47135,0.02341
7241.39982,0.03989
7243.32828,0.01246
7245.25675,0.02204
7247.18522,0.04810
7249.11369,0.03623
7251.04216,0.02200
7252.97063,0.11920
7254.89910,0.25444
7256.82756,0.32848
7258.75603,0.38654
7260.68450,0.39152
7262.61297,0.29360
7264.54144,0.20230
7266.46991,0.17910
7268.39838,0.17042
7270.32685,0.18606
7272.25531,0.12783
7274.18378,-0.09577
7276.11225,-0.18918
7278.04072,-0.05265
7279.96919,0.09217
7281.89766,0.06020
7283.82613,0.02392
7285.75459,0.03477
7287.68306,0.02823
7289.61153,-0.00356
7291.54000,-0.02168
7293.46847,0.01989
7295.39694,0.05940
7297.32541,0.02350
7299.25387,-0.01229
7301.18234,-0.00357
7303.11081,0.02275
7305.03928,0.08263
7306.96775,0.08142
7308.89622,-0.04692
7310.82469,-0.04418
7312.75316,0.09610
7314.68162,0.18941
7316.61009,0.23201
7318.53856,0.25370
7320.46703,0.15166
7322.39550,-0.05536
7324.32397,-0.14272
7326.25244,-0.07419
7328.18090,0.02585
7330.10937,0.13152
7332.03784,0.20134
7333.96631,0.17917
7335.89478,0.16060
7337.82325,0.20798
7339.75172,0.18147
7341.68019,0.00494
7343.60865,-0.14735
7345.53712,-0.21748
7347.46559,-0.17615
7349.39406,-0.09970
7351.32253,-0.06646
7353.25100,-0.05768
7355.17947,0.00654
7357.10793,0.17084
7359.03640,0.31063
7360.96487,0.28209
7362.89334,0.10710
7364.82181,-0.04609
7366.75028,-0.02156
7368.67875,0.04167
7370.60722,-0.03516
7372.53568,-0.15662
7374.46415,-0.15822
7376.39262,-0.01589
7378.32109,0.08874
7380.24956,0.11348
7382.17803,0.04465
7384.10650,-0.08252
7386.03496,-0.17818
7387.96343,-0.16764
7389.89190,-0.04477
7391.82037,0.11996
7393.74884,0.21596
7395.67731,0.21493
7397.60578,0.18251
7399.53425,0.11487
7401.46271,0.02805
7403.39118,-0.00149
7405.31965,0.06891
7407.24812,0.12869
7409.17659,0.11827
7411.10506,0.04451
7413.03353,-0.10955
7414.96199,-0.21333
7416.89046,-0.09787
7418.81893,0.12098
7420.74740,0.10172
7422.67587,0.02630
7424.60434,0.07097
7426.53281,0.11034
7428.46128,0.10226
7430.38974,0.07483
7432.31821,0.03502
7434.24668,-0.00929
7436.17515,-0.02420
7438.10362,0.02698
7440.03209,0.02652
7441.96056,-0.05639
7443.88902,-0.03726
7445.81749,0.02747
7447.74596,-0.01865
7449.67443,-0.11074
7451.60290,-0.12730
7453.53137,-0.05588
7455.45984,0.02388
7457.38831,0.07801
7459.31677,0.09581
7461.24524,0.07030
7463.17371,0.03570
7465.10218,-0.03402
7467.03065,-0.07534
7468.95912,-0.00026
7470.88759,0.10899
7472.81605,0.14877
7474.74452,0.13788
7476.67299,0.08674
7478.60146,0.00698
7480.52993,-0.03528
7482.45840,-0.02406
7484.38687,0.05159
7486.31533,0.13700
7488.24380,0.21726
7490.17227,0.31157
7492.10074,0.29849
7494.02921,0.23561
7495.95768,0.23499
7497.88615,0.23366
