399.19301,0.05569
401.12148,0.00175
403.04995,0.20267
404.97842,0.26763
406.90689,0.13729
408.83536,0.03334
410.76382,-0.04005
412.69229,-0.05333
414.62076,0.00874
416.54923,0.05139
418.47770,0.07565
420.40617,0.05014
422.33464,-0.02004
424.26311,-0.03860
426.19157,-0.01026
428.12004,0.00476
430.04851,0.01660
431.97698,0.03924
433.90545,0.03754
435.83392,0.03983
437.76239,0.06338
439.69085,0.07389
441.61932,0.05151
443.54779,0.00612
445.47626,0.00389
447.40473,0.05582
449.33320,0.10204
451.26167,0.14576
453.19013,0.18631
455.11860,0.19796
457.04707,0.18900
458.97554,0.17162
460.90401,0.18198
462.83248,0.20631
464.76095,0.17583
466.68942,0.12385
468.61788,0.10559
470.54635,0.10960
472.47482,0.15360
474.40329,0.19659
476.33176,0.14127
478.26023,0.10092
480.18870,0.12111
482.11716,0.15645
484.04563,0.15931
485.97410,0.13980
487.90257,0.13391
489.83104,0.12697
491.75951,0.08996
493.68798,0.07690
495.61645,0.12187
497.54491,0.17068
499.47338,0.19248
501.40185,0.19024
503.33032,0.15288
505.25879,0.11389
507.18726,0.10492
509.11573,0.10185
511.04419,0.09992
512.97266,0.09364
514.90113,0.06902
516.82960,0.06463
518.75807,0.10339
520.68654,0.14975
522.61501,0.16536
524.54348,0.14113
526.47194,0.11423
528.40041,0.11267
530.32888,0.12342
532.25735,0.12736
534.18582,0.11948
536.11429,0.10372
538.04276,0.09505
539.97122,0.09796
541.89969,0.09704
543.82816,0.09184
545.75663,0.08842
547.68510,0.09248
549.61357,0.08958
551.54204,0.05216
553.47051,0.02579
555.39897,0.06056
557.32744,0.10527
559.25591,0.11763
561.18438,0.12268
563.11285,0.11635
565.04132,0.09601
566.96979,0.09497
568.89825,0.11006
570.82672,0.11373
572.75519,0.11459
574.68366,0.11486
576.61213,0.10276
578.54060,0.09904
580.46907,0.11665
582.39754,0.13671
584.32600,0.13561
586.25447,0.11225
588.18294,0.08876
590.11141,0.08303
592.03988,0.10020
593.96835,0.12323
595.89682,0.13469
597.82528,0.14403
599.75375,0.15396
601.68222,0.15006
603.61069,0.13347
605.53916,0.11423
607.46763,0.09504
609.39610,0.08969
611.32456,0.09429
613.25303,0.09013
615.18150,0.08775
617.10997,0.09810
619.03844,0.10917
620.96691,0.10940
622.89538,0.09907
624.82385,0.09142
626.75231,0.09661
628.68078,0.10916
630.60925,0.12668
632.53772,0.13540
634.46619,0.11553
636.39466,0.10261
638.32313,0.11818
640.25159,0.13248
642.18006,0.13997
644.10853,0.14501
646.03700,0.13881
647.96547,0.13178
649.89394,0.12912
651.82241,0.12142
653.75088,0.11670
655.67934,0.11639
657.60781,0.11437
659.53628,0.11804
661.46475,0.12475
663.39322,0.12860
665.32169,0.12855
667.25016,0.11930
669.17862,0.10633
671.10709,0.10568
673.03556,0.11156
674.96403,0.12049
676.89250,0.12733
678.82097,0.13028
680.74944,0.13395
682.67791,0.13317
684.60637,0.12610
686.53484,0.12284
688.46331,0.12216
690.39178,0.12196
692.32025,0.12759
694.24872,0.13417
696.17719,0.13545
698.10565,0.13091
700.03412,0.12521
701.96259,0.12846
703.89106,0.13733
705.81953,0.13984
707.74800,0.14046
709.67647,0.15007
711.60494,0.16101
713.53340,0.15567
715.46187,0.14124
717.39034,0.13957
719.31881,0.14878
721.24728,0.15287
723.17575,0.15052
725.10422,0.14557
727.03268,0.13734
728.96115,0.13234
730.88962,0.13134
732.81809,0.12869
734.74656,0.13083
736.67503,0.14151
738.60350,0.14764
740.53197,0.14431
742.46043,0.14373
744.38890,0.14976
746.31737,0.15563
748.24584,0.15361
750.17431,0.14598
752.10278,0.14620
754.03125,0.15404
755.95971,0.15787
757.88818,0.15342
759.81665,0.14308
761.74512,0.13366
763.67359,0.12984
765.60206,0.12606
767.53053,0.12350
769.45900,0.12929
771.38746,0.13298
773.31593,0.13022
775.24440,0.12989
777.17287,0.12793
779.10134,0.12605
781.02981,0.13066
782.95828,0.13419
784.88674,0.13742
786.81521,0.14304
788.74368,0.14313
790.67215,0.14076
792.60062,0.14232
794.52909,0.14612
796.45756,0.14647
798.38602,0.13866
800.31449,0.12990
802.24296,0.12681
804.17143,0.12548
806.09990,0.12829
808.02837,0.13920
809.95684,0.14885
811.88531,0.14642
813.81377,0.13651
815.74224,0.13291
817.67071,0.13886
819.59918,0.14351
821.52765,0.14113
823.45612,0.13854
825.38459,0.13853
827.31305,0.13879
829.24152,0.14023
831.16999,0.13829
833.09846,0.13068
835.02693,0.13054
836.95540,0.14184
838.88387,0.15084
840.81234,0.15032
842.74080,0.14387
844.66927,0.14300
846.59774,0.15179
848.52621,0.15785
850.45468,0.15439
852.38315,0.14781
854.31162,0.14579
856.24008,0.14637
858.16855,0.14309
860.09702,0.14087
862.02549,0.14332
863.95396,0.14574
865.88243,0.14792
867.81090,0.14445
869.73937,0.13672
871.66783,0.13871
873.59630,0.14625
875.52477,0.14846
877.45324,0.14761
879.38171,0.14780
881.31018,0.14590
883.23865,0.13899
885.16711,0.13502
887.09558,0.13812
889.02405,0.14082
890.95252,0.14158
892.88099,0.14257
894.80946,0.13985
896.73793,0.13533
898.66640,0.13614
900.59486,0.14122
902.52333,0.14739
904.45180,0.15270
906.38027,0.15180
908.30874,0.14458
910.23721,0.14222
912.16568,0.14809
914.09414,0.15077
916.02261,0.14604
917.95108,0.13952
919.87955,0.13661
921.80802,0.14060
923.73649,0.14694
925.66496,0.14998
927.59343,0.15081
929.52189,0.14874
931.45036,0.14615
933.37883,0.14913
935.30730,0.15365
937.23577,0.15396
939.16424,0.15046
941.09271,0.14531
943.02117,0.14156
944.94964,0.13902
946.87811,0.13757
948.80658,0.13957
950.73505,0.14225
952.66352,0.14355
954.59199,0.14570
956.52045,0.14745
958.44892,0.14875
960.37739,0.15079
962.30586,0.15217
964.23433,0.15386
966.16280,0.15172
968.09127,0.14238
970.01974,0.13574
971.94820,0.13807
973.87667,0.14461
975.80514,0.14941
977.73361,0.14808
979.66208,0.14338
981.59055,0.14359
983.51902,0.14915
985.44748,0.15231
987.37595,0.15144
989.30442,0.15337
991.23289,0.15764
993.16136,0.15593
995.08983,0.15066
997.01830,0.15075
998.94677,0.15347
1000.87523,0.15339
1002.80370,0.15189
1004.73217,0.15068
1006.66064,0.15326
1008.58911,0.15978
1010.51758,0.16247
1012.44605,0.16037
1014.37451,0.15891
1016.30298,0.15893
1018.23145,0.15997
1020.15992,0.15918
1022.08839,0.15591
1024.01686,0.15898
1025.94533,0.17033
1027.87380,0.17632
1029.80226,0.17056
1031.73073,0.16555
1033.65920,0.16761
1035.58767,0.17031
1037.51614,0.16983
1039.44461,0.16570
1041.37308,0.16205
1043.30154,0.16115
1045.23001,0.15867
1047.15848,0.15485
1049.08695,0.15511
1051.01542,0.16200
1052.94389,0.16934
1054.87236,0.16970
1056.80083,0.16616
1058.72929,0.16562
1060.65776,0.16939
1062.58623,0.17215
1064.51470,0.17037
1066.44317,0.16763
1068.37164,0.16528
1070.30011,0.15968
1072.22857,0.15416
1074.15704,0.15746
1076.08551,0.16444
1078.01398,0.16376
1079.94245,0.16033
1081.87092,0.16005
1083.79939,0.15937
1085.72786,0.15890
1087.65632,0.15869
1089.58479,0.15784
1091.51326,0.15828
1093.44173,0.16017
1095.37020,0.16489
1097.29867,0.16990
1099.22714,0.17097
1101.15560,0.17240
1103.08407,0.17478
1105.01254,0.17650
1106.94101,0.18053
1108.86948,0.17975
1110.79795,0.17034
1112.72642,0.16333
1114.65489,0.16259
1116.58335,0.16481
1118.51182,0.16675
1120.44029,0.16599
1122.36876,0.16698
1124.29723,0.17062
1126.22570,0.17131
1128.15417,0.16927
1130.08263,0.16625
1132.01110,0.16170
1133.93957,0.15814
1135.86804,0.15800
1137.79651,0.16041
1139.72498,0.16451
1141.65345,0.16859
1143.58191,0.16837
1145.51038,0.16659
1147.43885,0.16864
1149.36732,0.16999
1151.29579,0.16800
1153.22426,0.16715
1155.15273,0.16985
1157.08120,0.17397
1159.00966,0.17616
1160.93813,0.17600
1162.86660,0.17404
1164.79507,0.17106
1166.72354,0.16908
1168.65201,0.16864
1170.58048,0.16809
1172.50894,0.16687
1174.43741,0.16680
1176.36588,0.16800
1178.29435,0.16837
1180.22282,0.16800
1182.15129,0.16899
1184.07976,0.17056
1186.00823,0.16864
1187.93669,0.16375
1189.86516,0.16197
1191.79363,0.16473
1193.72210,0.16719
1195.65057,0.16600
1197.57904,0.16343
1199.50751,0.16435
1201.43597,0.16906
1203.36444,0.17210
1205.29291,0.17146
1207.22138,0.17067
1209.14985,0.17146
1211.07832,0.17323
1213.00679,0.17342
1214.93526,0.17015
1216.86372,0.16735
1218.79219,0.16790
1220.72066,0.17088
1222.64913,0.17406
1224.57760,0.17346
1226.50607,0.16866
1228.43454,0.16401
1230.36300,0.16500
1232.29147,0.17245
1234.21994,0.17828
1236.14841,0.17816
1238.07688,0.17673
1240.00535,0.17645
1241.93382,0.17483
1243.86229,0.17113
1245.79075,0.17003
1247.71922,0.17370
1249.64769,0.17669
1251.57616,0.17436
1253.50463,0.17002
1255.43310,0.16826
1257.36157,0.16715
1259.29003,0.16515
1261.21850,0.16526
1263.14697,0.16894
1265.07544,0.17389
1267.00391,0.17588
1268.93238,0.17506
1270.86085,0.17541
1272.78932,0.17631
1274.71778,0.17743
1276.64625,0.18036
1278.57472,0.18244
1280.50319,0.18092
1282.43166,0.17779
1284.36013,0.17664
1286.28860,0.17863
1288.21706,0.18108
1290.14553,0.18098
1292.07400,0.18037
1294.00247,0.18183
1295.93094,0.18339
1297.85941,0.18316
1299.78788,0.18093
1301.71634,0.17676
1303.64481,0.17167
1305.57328,0.16994
1307.50175,0.17447
1309.43022,0.18125
1311.35869,0.18489
1313.28716,0.18447
1315.21563,0.18412
1317.14409,0.18492
1319.07256,0.18253
1321.00103,0.17918
1322.92950,0.17960
1324.85797,0.18062
1326.78644,0.18079
1328.71491,0.18224
1330.64337,0.18271
1332.57184,0.18081
1334.50031,0.17894
1336.42878,0.18003
1338.35725,0.18505
1340.28572,0.18167
1342.21419,0.15959
1344.14266,0.14424
1346.07112,0.15616
1347.99959,0.17437
1349.92806,0.17982
1351.85653,0.18014
1353.78500,0.18088
1355.71347,0.18268
1357.64194,0.18577
1359.57040,0.18877
1361.49887,0.19013
1363.42734,0.18852
1365.35581,0.18575
1367.28428,0.18401
1369.21275,0.18314
1371.14122,0.18477
1373.06969,0.18942
1374.99815,0.19155
1376.92662,0.18905
1378.85509,0.18658
1380.78356,0.18658
1382.71203,0.18832
1384.64050,0.19079
1386.56897,0.19310
1388.49743,0.19227
1390.42590,0.19049
1392.35437,0.19175
1394.28284,0.19477
1396.21131,0.19733
1398.13978,0.19808
1400.06825,0.19538
1401.99672,0.19316
1403.92518,0.19365
1405.85365,0.19250
1407.78212,0.18890
1409.71059,0.18717
1411.63906,0.18904
1413.56753,0.19199
1415.49600,0.19489
1417.42446,0.19993
1419.35293,0.20252
1421.28140,0.19868
1423.20987,0.19574
1425.13834,0.19335
1427.06681,0.19067
1428.99528,0.19097
1430.92375,0.19168
1432.85221,0.19115
1434.78068,0.19314
1436.70915,0.19666
1438.63762,0.19693
1440.56609,0.19374
1442.49456,0.18904
1444.42303,0.18724
1446.35149,0.19174
1448.27996,0.19809
1450.20843,0.19985
1452.13690,0.20045
1454.06537,0.20524
1455.99384,0.21641
1457.92231,0.22096
1459.85077,0.20995
1461.77924,0.20559
1463.70771,0.20981
1465.63618,0.20960
1467.56465,0.20454
1469.49312,0.20628
1471.42159,0.21482
1473.35006,0.21974
1475.27852,0.21253
1477.20699,0.20350
1479.13546,0.20007
1481.06393,0.19861
1482.99240,0.19658
1484.92087,0.19944
1486.84934,0.20810
1488.77780,0.21415
1490.70627,0.20909
1492.63474,0.20175
1494.56321,0.20240
1496.49168,0.21003
1498.42015,0.21277
1500.34862,0.20708
1502.27709,0.20302
1504.20555,0.20878
1506.13402,0.22858
1508.06249,0.23298
1509.99096,0.21657
1511.91943,0.20732
1513.84790,0.20768
1515.77637,0.21517
1517.70483,0.22127
1519.63330,0.22316
1521.56177,0.22470
1523.49024,0.22109
1525.41871,0.21595
1527.34718,0.21161
1529.27565,0.20841
1531.20412,0.21050
1533.13258,0.21553
1535.06105,0.21636
1536.98952,0.22069
1538.91799,0.23851
1540.84646,0.25340
1542.77493,0.24010
1544.70340,0.22234
1546.63186,0.20979
1548.56033,0.20602
1550.48880,0.20753
1552.41727,0.21045
1554.34574,0.21783
1556.27421,0.22982
1558.20268,0.24135
1560.13115,0.23085
1562.05961,0.21622
1563.98808,0.21075
1565.91655,0.20936
1567.84502,0.21023
1569.77349,0.21116
1571.70196,0.20924
1573.63043,0.20897
1575.55889,0.21204
1577.48736,0.21080
1579.41583,0.20327
1581.34430,0.19754
1583.27277,0.19698
1585.20124,0.19741
1587.12971,0.19602
1589.05818,0.19471
1590.98664,0.19352
1592.91511,0.19339
1594.84358,0.19381
1596.77205,0.19249
1598.70052,0.19190
1600.62899,0.19364
1602.55746,0.19562
1604.48592,0.19636
1606.41439,0.19642
1608.34286,0.19724
1610.27133,0.19951
1612.19980,0.20364
1614.12827,0.21063
1616.05674,0.21878
1617.98521,0.21832
1619.91367,0.21380
1621.84214,0.21477
1623.77061,0.21572
1625.69908,0.21252
1627.62755,0.21036
1629.55602,0.20790
1631.48449,0.20650
1633.41295,0.21215
1635.34142,0.22520
1637.26989,0.22754
1639.19836,0.21866
1641.12683,0.21264
1643.05530,0.21477
1644.98377,0.22677
1646.91223,0.23768
1648.84070,0.23348
1650.76917,0.23354
1652.69764,0.24384
1654.62611,0.23202
1656.55458,0.21336
1658.48305,0.20885
1660.41152,0.21350
1662.33998,0.21796
1664.26845,0.21645
1666.19692,0.21554
1668.12539,0.21997
1670.05386,0.22256
1671.98233,0.21850
1673.91080,0.21644
1675.83926,0.21588
1677.76773,0.21538
1679.69620,0.21779
1681.62467,0.22487
1683.55314,0.23520
1685.48161,0.23392
1687.41008,0.22480
1689.33855,0.21726
1691.26701,0.21147
1693.19548,0.21150
1695.12395,0.21998
1697.05242,0.23278
1698.98089,0.23933
1700.90936,0.23371
1702.83783,0.22592
1704.76629,0.22292
1706.69476,0.21804
1708.62323,0.21050
1710.55170,0.20562
1712.48017,0.20604
1714.40864,0.21267
1716.33711,0.21947
1718.26558,0.21397
1720.19404,0.20556
1722.12251,0.20284
1724.05098,0.20245
1725.97945,0.20201
1727.90792,0.20306
1729.83639,0.20694
1731.76486,0.21162
1733.69332,0.21304
1735.62179,0.21032
1737.55026,0.21006
1739.47873,0.21166
1741.40720,0.21130
1743.33567,0.21101
1745.26414,0.21467
1747.19261,0.22008
1749.12107,0.22073
1751.04954,0.21342
1752.97801,0.20579
1754.90648,0.20335
1756.83495,0.20478
1758.76342,0.20789
1760.69189,0.21013
1762.62035,0.20732
1764.54882,0.20222
1766.47729,0.20160
1768.40576,0.20744
1770.33423,0.21817
1772.26270,0.22381
1774.19117,0.21654
1776.11964,0.20873
1778.04810,0.20685
1779.97657,0.20817
1781.90504,0.20702
1783.83351,0.20369
1785.76198,0.20202
1787.69045,0.20281
1789.61892,0.20785
1791.54738,0.21573
1793.47585,0.21654
1795.40432,0.21218
1797.33279,0.21109
1799.26126,0.21242
1801.18973,0.21145
1803.11820,0.20592
1805.04666,0.20061
1806.97513,0.20002
1808.90360,0.20135
1810.83207,0.20098
1812.76054,0.20056
1814.68901,0.20085
1816.61748,0.19966
1818.54595,0.19727
1820.47441,0.19770
1822.40288,0.20209
1824.33135,0.20608
1826.25982,0.20692
1828.18829,0.20813
1830.11676,0.20894
1832.04523,0.20565
1833.97369,0.20287
1835.90216,0.20330
1837.83063,0.20376
1839.75910,0.20334
1841.68757,0.20457
1843.61604,0.20710
1845.54451,0.20777
1847.47298,0.20542
1849.40144,0.20208
1851.32991,0.20072
1853.25838,0.20136
1855.18685,0.20116
1857.11532,0.19898
1859.04379,0.19667
1860.97226,0.19738
1862.90072,0.20049
1864.82919,0.20388
1866.75766,0.20900
1868.68613,0.21245
1870.61460,0.20779
1872.54307,0.20184
1874.47154,0.20060
1876.40001,0.20222
1878.32847,0.20308
1880.25694,0.20218
1882.18541,0.20093
1884.11388,0.20046
1886.04235,0.20162
1887.97082,0.20526
1889.89929,0.20760
1891.82775,0.20518
1893.75622,0.20199
1895.68469,0.19987
1897.61316,0.19812
1899.54163,0.19809
1901.47010,0.19974
1903.39857,0.20153
1905.32704,0.20311
1907.25550,0.20390
1909.18397,0.20394
1911.11244,0.20424
1913.04091,0.20399
1914.96938,0.20385
1916.89785,0.20453
1918.82632,0.20355
1920.75478,0.20335
1922.68325,0.20593
1924.61172,0.20537
1926.54019,0.20182
1928.46866,0.20029
1930.39713,0.19930
1932.32560,0.19732
1934.25407,0.19737
1936.18253,0.20012
1938.11100,0.20219
1940.03947,0.20252
1941.96794,0.20290
1943.89641,0.20259
1945.82488,0.20018
1947.75335,0.19761
1949.68181,0.19728
1951.61028,0.19929
1953.53875,0.20211
1955.46722,0.20387
1957.39569,0.20432
1959.32416,0.20456
1961.25263,0.20452
1963.18110,0.20410
1965.10956,0.20416
1967.03803,0.20411
1968.96650,0.20352
1970.89497,0.20421
1972.82344,0.20523
1974.75191,0.20409
1976.68038,0.20244
1978.60884,0.20211
1980.53731,0.20233
1982.46578,0.20189
1984.39425,0.20092
1986.32272,0.20077
1988.25119,0.20208
1990.17966,0.20371
1992.10812,0.20391
1994.03659,0.20264
1995.96506,0.20126
1997.89353,0.20109
1999.82200,0.20153
2001.75047,0.20193
2003.67894,0.20362
2005.60741,0.20533
2007.53587,0.20567
2009.46434,0.20555
2011.39281,0.20433
2013.32128,0.20276
2015.24975,0.20374
2017.17822,0.20597
2019.10669,0.20518
2021.03515,0.20238
2022.96362,0.20034
2024.89209,0.19889
2026.82056,0.19867
2028.74903,0.20047
2030.67750,0.20302
2032.60597,0.20415
2034.53444,0.20385
2036.46290,0.20429
2038.39137,0.20506
2040.31984,0.20481
2042.24831,0.20494
2044.17678,0.20570
2046.10525,0.20537
2048.03372,0.20475
2049.96218,0.20430
2051.89065,0.20227
2053.81912,0.20092
2055.74759,0.20220
2057.67606,0.20312
2059.60453,0.20299
2061.53300,0.20319
2063.46147,0.20318
2065.38993,0.20253
2067.31840,0.20189
2069.24687,0.20187
2071.17534,0.20232
2073.10381,0.20273
2075.03228,0.20328
2076.96075,0.20438
2078.88921,0.20542
2080.81768,0.20532
2082.74615,0.20467
2084.67462,0.20485
2086.60309,0.20535
2088.53156,0.20542
2090.46003,0.20494
2092.38850,0.20392
2094.31696,0.20389
2096.24543,0.20532
2098.17390,0.20531
2100.10237,0.20377
2102.03084,0.20369
2103.95931,0.20397
2105.88778,0.20425
2107.81624,0.20592
2109.74471,0.20643
2111.67318,0.20503
2113.60165,0.20332
2115.53012,0.20178
2117.45859,0.20208
2119.38706,0.20369
2121.31553,0.20352
2123.24399,0.20269
2125.17246,0.20349
2127.10093,0.20407
2129.02940,0.20392
2130.95787,0.20430
2132.88634,0.20408
2134.81481,0.20324
2136.74327,0.20323
2138.67174,0.20382
2140.60021,0.20437
2142.52868,0.20461
2144.45715,0.20447
2146.38562,0.20431
2148.31409,0.20474
2150.24255,0.20568
2152.17102,0.20561
2154.09949,0.20433
2156.02796,0.20368
2157.95643,0.20346
2159.88490,0.20273
2161.81337,0.20316
2163.74184,0.20448
2165.67030,0.20393
2167.59877,0.20262
2169.52724,0.20271
2171.45571,0.20359
2173.38418,0.20471
2175.31265,0.20513
2177.24112,0.20471
2179.16958,0.20544
2181.09805,0.20592
2183.02652,0.20385
2184.95499,0.20177
2186.88346,0.20213
2188.81193,0.20415
2190.74040,0.20602
2192.66887,0.20651
2194.59733,0.20552
2196.52580,0.20478
2198.45427,0.20478
2200.38274,0.20325
2202.31121,0.20138
2204.23968,0.20232
2206.16815,0.20383
2208.09661,0.20242
2210.02508,0.20027
2211.95355,0.20020
2213.88202,0.20095
2215.81049,0.20217
2217.73896,0.20428
2219.66743,0.20496
2221.59590,0.20420
2223.52436,0.20469
2225.45283,0.20552
2227.38130,0.20499
2229.30977,0.20418
2231.23824,0.20400
2233.16671,0.20433
2235.09518,0.20355
2237.02364,0.20178
2238.95211,0.20125
2240.88058,0.20156
2242.80905,0.20259
2244.73752,0.20488
2246.66599,0.20568
2248.59446,0.20400
2250.52293,0.20337
2252.45139,0.20496
2254.37986,0.20626
2256.30833,0.20570
2258.23680,0.20322
2260.16527,0.20165
2262.09374,0.20380
2264.02221,0.20646
2265.95067,0.20628
2267.87914,0.20525
2269.80761,0.20602
2271.73608,0.20775
2273.66455,0.20795
2275.59302,0.20738
2277.52149,0.20804
2279.44996,0.20817
2281.37842,0.20693
2283.30689,0.20677
2285.23536,0.20694
2287.16383,0.20522
2289.09230,0.20397
2291.02077,0.20607
2292.94924,0.20892
2294.87770,0.20806
2296.80617,0.20421
2298.73464,0.20132
2300.66311,0.20052
2302.59158,0.20056
2304.52005,0.20108
2306.44852,0.20192
2308.37699,0.20254
2310.30545,0.20457
2312.23392,0.20734
2314.16239,0.20662
2316.09086,0.20373
2318.01933,0.20126
2319.94780,0.19909
2321.87627,0.20022
2323.80473,0.20296
2325.73320,0.20234
2327.66167,0.20319
2329.59014,0.20781
2331.51861,0.20886
2333.44708,0.20386
2335.37555,0.19956
2337.30401,0.20035
2339.23248,0.20104
2341.16095,0.19960
2343.08942,0.20222
2345.01789,0.20671
2346.94636,0.20856
2348.87483,0.21023
2350.80330,0.21158
2352.73176,0.20857
2354.66023,0.20142
2356.58870,0.20150
2358.51717,0.20862
2360.44564,0.20741
2362.37411,0.20733
2364.30258,0.22102
2366.23104,0.22411
2368.15951,0.20761
2370.08798,0.19865
2372.01645,0.20322
2373.94492,0.20627
2375.87339,0.20472
2377.80186,0.20473
2379.73033,0.20635
2381.65879,0.20632
2383.58726,0.20524
2385.51573,0.20424
2387.44420,0.20352
2389.37267,0.20370
2391.30114,0.20503
2393.22961,0.20741
2395.15807,0.20906
2397.08654,0.20808
2399.01501,0.20580
2400.94348,0.20505
2402.87195,0.20696
2404.80042,0.20935
2406.72889,0.20907
2408.65736,0.20650
2410.58582,0.20431
2412.51429,0.20350
2414.44276,0.20377
2416.37123,0.20497
2418.29970,0.20688
2420.22817,0.20783
2422.15664,0.20712
2424.08510,0.20703
2426.01357,0.20821
2427.94204,0.20980
2429.87051,0.21059
2431.79898,0.20843
2433.72745,0.20513
2435.65592,0.20380
2437.58439,0.20394
2439.51285,0.20471
2441.44132,0.20556
2443.36979,0.20593
2445.29826,0.20652
2447.22673,0.20793
2449.15520,0.20952
2451.08367,0.21003
2453.01213,0.20865
2454.94060,0.20646
2456.86907,0.20551
2458.79754,0.20577
2460.72601,0.20626
2462.65448,0.20690
2464.58295,0.20702
2466.51142,0.20645
2468.43988,0.20627
2470.36835,0.20630
2472.29682,0.20676
2474.22529,0.20876
2476.15376,0.21045
2478.08223,0.21020
2480.01070,0.20963
2481.93916,0.20921
2483.86763,0.20841
2485.79610,0.20825
2487.72457,0.20847
2489.65304,0.20809
2491.58151,0.20809
2493.50998,0.20828
2495.43844,0.20750
2497.36691,0.20707
2499.29538,0.20810
2501.22385,0.20814
2503.15232,0.20637
2505.08079,0.20614
2507.00926,0.20800
2508.93773,0.20913
2510.86619,0.20918
2512.79466,0.20958
2514.72313,0.20966
2516.65160,0.20878
2518.58007,0.20808
2520.50854,0.20803
2522.43701,0.20873
2524.36547,0.20975
2526.29394,0.20956
2528.22241,0.20831
2530.15088,0.20778
2532.07935,0.20800
2534.00782,0.20871
2535.93629,0.20947
2537.86476,0.20844
2539.79322,0.20629
2541.72169,0.20610
2543.65016,0.20920
2545.57863,0.21248
2547.50710,0.21226
2549.43557,0.21049
2551.36404,0.20938
2553.29250,0.20808
2555.22097,0.20738
2557.14944,0.20720
2559.07791,0.20584
2561.00638,0.20529
2562.93485,0.20789
2564.86332,0.21081
2566.79179,0.21153
2568.72025,0.21168
2570.64872,0.21142
2572.57719,0.21004
2574.50566,0.20857
2576.43413,0.20827
2578.36260,0.21025
2580.29107,0.21218
2582.21953,0.21158
2584.14800,0.21012
2586.07647,0.20889
2588.00494,0.20856
2589.93341,0.20921
2591.86188,0.20966
2593.79035,0.21120
2595.71882,0.21277
2597.64728,0.21205
2599.57575,0.21167
2601.50422,0.21192
2603.43269,0.21085
2605.36116,0.20949
2607.28963,0.20828
2609.21810,0.20775
2611.14656,0.20863
2613.07503,0.21014
2615.00350,0.21157
2616.93197,0.21157
2618.86044,0.21019
2620.78891,0.21002
2622.71738,0.21131
2624.64585,0.21262
2626.57431,0.21366
2628.50278,0.21397
2630.43125,0.21366
2632.35972,0.21382
2634.28819,0.21519
2636.21666,0.21639
2638.14513,0.21704
2640.07359,0.21825
2642.00206,0.21796
2643.93053,0.21568
2645.85900,0.21456
2647.78747,0.21423
2649.71594,0.21259
2651.64441,0.21095
2653.57288,0.21052
2655.50134,0.21094
2657.42981,0.21235
2659.35828,0.21376
2661.28675,0.21356
2663.21522,0.21242
2665.14369,0.21261
2667.07216,0.21332
2669.00062,0.21205
2670.92909,0.21025
2672.85756,0.21025
2674.78603,0.21154
2676.71450,0.21275
2678.64297,0.21330
2680.57144,0.21468
2682.49990,0.21667
2684.42837,0.21586
2686.35684,0.21444
2688.28531,0.21641
2690.21378,0.21854
2692.14225,0.21816
2694.07072,0.21734
2695.99919,0.21675
2697.92765,0.21547
2699.85612,0.21539
2701.78459,0.21685
2703.71306,0.21614
2705.64153,0.21421
2707.57000,0.21474
2709.49847,0.21634
2711.42693,0.21662
2713.35540,0.21694
2715.28387,0.21747
2717.21234,0.21654
2719.14081,0.21557
2721.06928,0.21595
2722.99775,0.21669
2724.92622,0.21719
2726.85468,0.21778
2728.78315,0.21894
2730.71162,0.22061
2732.64009,0.22158
2734.56856,0.22045
2736.49703,0.21786
2738.42550,0.21593
2740.35396,0.21667
2742.28243,0.22009
2744.21090,0.22262
2746.13937,0.22166
2748.06784,0.21971
2749.99631,0.21983
2751.92478,0.22128
2753.85325,0.22132
2755.78171,0.21955
2757.71018,0.21899
2759.63865,0.22043
2761.56712,0.22182
2763.49559,0.22230
2765.42406,0.22149
2767.35253,0.22156
2769.28099,0.22490
2771.20946,0.22760
2773.13793,0.22600
2775.06640,0.22382
2776.99487,0.22514
2778.92334,0.22737
2780.85181,0.22565
2782.78028,0.22125
2784.70874,0.21975
2786.63721,0.22110
2788.56568,0.22256
2790.49415,0.22553
2792.42262,0.22841
2794.35109,0.22721
2796.27956,0.22393
2798.20802,0.22172
2800.13649,0.22121
2802.06496,0.22173
2803.99343,0.22122
2805.92190,0.22056
2807.85037,0.22190
2809.77884,0.22360
2811.70731,0.22486
2813.63577,0.22623
2815.56424,0.22667
2817.49271,0.22637
2819.42118,0.22597
2821.34965,0.22387
2823.27812,0.22200
2825.20659,0.22422
2827.13505,0.22789
2829.06352,0.22975
2830.99199,0.22985
2832.92046,0.22798
2834.84893,0.22567
2836.77740,0.22411
2838.70587,0.22322
2840.63433,0.22392
2842.56280,0.22461
2844.49127,0.22415
2846.41974,0.22473
2848.34821,0.22574
2850.27668,0.22650
2852.20515,0.22690
2854.13362,0.22501
2856.06208,0.22368
2857.99055,0.22515
2859.91902,0.22611
2861.84749,0.22650
2863.77596,0.22784
2865.70443,0.22826
2867.63290,0.22743
2869.56136,0.22737
2871.48983,0.22871
2873.41830,0.22962
2875.34677,0.22818
2877.27524,0.22671
2879.20371,0.22800
2881.13218,0.22856
2883.06065,0.22623
2884.98911,0.22481
2886.91758,0.22602
2888.84605,0.22894
2890.77452,0.23123
2892.70299,0.22990
2894.63146,0.22667
2896.55993,0.22499
2898.48839,0.22468
2900.41686,0.22433
2902.34533,0.22464
2904.27380,0.22665
2906.20227,0.22834
2908.13074,0.22725
2910.05921,0.22427
2911.98768,0.22301
2913.91614,0.22416
2915.84461,0.22462
2917.77308,0.22444
2919.70155,0.22402
2921.63002,0.22320
2923.55849,0.22382
2925.48696,0.22451
2927.41542,0.22404
2929.34389,0.22305
2931.27236,0.22271
2933.20083,0.22456
2935.12930,0.22459
2937.05777,0.22105
2938.98624,0.21879
2940.91471,0.21869
2942.84317,0.21929
2944.77164,0.21960
2946.70011,0.21792
2948.62858,0.21678
2950.55705,0.21965
2952.48552,0.22387
2954.41399,0.22459
2956.34245,0.22167
2958.27092,0.22019
2960.19939,0.22229
2962.12786,0.22496
2964.05633,0.22772
2965.98480,0.23092
2967.91327,0.23230
2969.84174,0.23188
2971.77020,0.23167
2973.69867,0.23136
2975.62714,0.22934
2977.55561,0.22646
2979.48408,0.22549
2981.41255,0.22700
2983.34102,0.22944
2985.26948,0.23066
2987.19795,0.23027
2989.12642,0.23035
2991.05489,0.23052
2992.98336,0.22997
2994.91183,0.23113
2996.84030,0.23373
2998.76877,0.23390
3000.69723,0.23230
3002.62570,0.23287
3004.55417,0.23544
3006.48264,0.23654
3008.41111,0.23524
3010.33958,0.23222
3012.26805,0.22489
3014.19651,0.21475
3016.12498,0.20919
3018.05345,0.21218
3019.98192,0.22092
3021.91039,0.22772
3023.83886,0.22966
3025.76733,0.22955
3027.69579,0.22918
3029.62426,0.23051
3031.55273,0.23353
3033.48120,0.23513
3035.40967,0.23467
3037.33814,0.23423
3039.26661,0.23450
3041.19508,0.23424
3043.12354,0.23259
3045.05201,0.23047
3046.98048,0.22958
3048.90895,0.23053
3050.83742,0.23076
3052.76589,0.22987
3054.69436,0.23132
3056.62282,0.23307
3058.55129,0.23277
3060.47976,0.23249
3062.40823,0.23223
3064.33670,0.23170
3066.26517,0.23097
3068.19364,0.23140
3070.12211,0.23430
3072.05057,0.23641
3073.97904,0.23414
3075.90751,0.23100
3077.83598,0.23309
3079.76445,0.23613
3081.69292,0.23269
3083.62139,0.22519
3085.54985,0.22091
3087.47832,0.22296
3089.40679,0.22768
3091.33526,0.23136
3093.26373,0.23323
3095.19220,0.23311
3097.12067,0.23200
3099.04914,0.23036
3100.97760,0.22711
3102.90607,0.22301
3104.83454,0.22320
3106.76301,0.22896
3108.69148,0.23342
3110.61995,0.23181
3112.54842,0.22831
3114.47688,0.22986
3116.40535,0.23583
3118.33382,0.24050
3120.26229,0.23969
3122.19076,0.23416
3124.11923,0.23182
3126.04770,0.23511
3127.97617,0.23618
3129.90463,0.23315
3131.83310,0.23196
3133.76157,0.23318
3135.69004,0.23351
3137.61851,0.23305
3139.54698,0.23357
3141.47545,0.23487
3143.40391,0.23439
3145.33238,0.23257
3147.26085,0.23176
3149.18932,0.23244
3151.11779,0.23456
3153.04626,0.23566
3154.97473,0.23561
3156.90320,0.23669
3158.83166,0.23623
3160.76013,0.23385
3162.68860,0.23344
3164.61707,0.23539
3166.54554,0.23783
3168.47401,0.23942
3170.40248,0.23987
3172.33094,0.23978
3174.25941,0.24007
3176.18788,0.24025
3178.11635,0.23998
3180.04482,0.23994
3181.97329,0.23817
3183.90176,0.23581
3185.83022,0.23563
3187.75869,0.23582
3189.68716,0.23717
3191.61563,0.24090
3193.54410,0.24298
3195.47257,0.24098
3197.40104,0.23923
3199.32951,0.24162
3201.25797,0.24413
3203.18644,0.24284
3205.11491,0.24045
3207.04338,0.23813
3208.97185,0.23399
3210.90032,0.23144
3212.82879,0.23389
3214.75725,0.23722
3216.68572,0.23746
3218.61419,0.23576
3220.54266,0.23341
3222.47113,0.23115
3224.39960,0.22983
3226.32807,0.23001
3228.25654,0.23256
3230.18500,0.23523
3232.11347,0.23637
3234.04194,0.23789
3235.97041,0.23923
3237.89888,0.23976
3239.82735,0.24009
3241.75582,0.23876
3243.68428,0.23576
3245.61275,0.23328
3247.54122,0.23199
3249.46969,0.23221
3251.39816,0.23453
3253.32663,0.23633
3255.25510,0.23456
3257.18357,0.23259
3259.11203,0.23305
3261.04050,0.23206
3262.96897,0.22908
3264.89744,0.22738
3266.82591,0.22902
3268.75438,0.23375
3270.68285,0.23503
3272.61131,0.23128
3274.53978,0.23066
3276.46825,0.23308
3278.39672,0.23200
3280.32519,0.22780
3282.25366,0.22521
3284.18213,0.22705
3286.11060,0.22959
3288.03906,0.23013
3289.96753,0.23288
3291.89600,0.23667
3293.82447,0.23714
3295.75294,0.23642
3297.68141,0.23556
3299.60988,0.23351
3301.53834,0.23226
3303.46681,0.23276
3305.39528,0.23217
3307.32375,0.22921
3309.25222,0.22815
3311.18069,0.22972
3313.10916,0.22859
3315.03763,0.22625
3316.96609,0.22804
3318.89456,0.23285
3320.82303,0.23454
3322.75150,0.23085
3324.67997,0.22756
3326.60844,0.22980
3328.53691,0.23519
3330.46537,0.23758
3332.39384,0.23604
3334.32231,0.23573
3336.25078,0.23762
3338.17925,0.23763
3340.10772,0.23575
3342.03619,0.23459
3343.96466,0.23301
3345.89312,0.22986
3347.82159,0.22843
3349.75006,0.23108
3351.67853,0.23418
3353.60700,0.23452
3355.53547,0.23241
3357.46394,0.23072
3359.39240,0.23330
3361.32087,0.23674
3363.24934,0.23472
3365.17781,0.22845
3367.10628,0.22398
3369.03475,0.22543
3370.96322,0.23106
3372.89168,0.23557
3374.82015,0.23635
3376.74862,0.23476
3378.67709,0.23325
3380.60556,0.23460
3382.53403,0.23619
3384.46250,0.23402
3386.39097,0.23334
3388.31943,0.23643
3390.24790,0.23762
3392.17637,0.23486
3394.10484,0.23119
3396.03331,0.23115
3397.96178,0.23460
3399.89025,0.23566
3401.81871,0.23264
3403.74718,0.23177
3405.67565,0.23427
3407.60412,0.23390
3409.53259,0.22867
3411.46106,0.22177
3413.38953,0.21892
3415.31800,0.22266
3417.24646,0.22766
3419.17493,0.22990
3421.10340,0.23164
3423.03187,0.23350
3424.96034,0.23224
3426.88881,0.22966
3428.81728,0.22916
3430.74574,0.22781
3432.67421,0.22510
3434.60268,0.22406
3436.53115,0.22385
3438.45962,0.22419
3440.38809,0.22533
3442.31656,0.22600
3444.24503,0.22635
3446.17349,0.22542
3448.10196,0.22204
3450.03043,0.21926
3451.95890,0.22036
3453.88737,0.22219
3455.81584,0.22104
3457.74431,0.21995
3459.67277,0.22052
3461.60124,0.21925
3463.52971,0.21461
3465.45818,0.21043
3467.38665,0.21026
3469.31512,0.21450
3471.24359,0.21994
3473.17206,0.22140
3475.10052,0.21964
3477.02899,0.21739
3478.95746,0.21657
3480.88593,0.21735
3482.81440,0.21432
3484.74287,0.20939
3486.67134,0.20849
3488.59980,0.20986
3490.52827,0.21112
3492.45674,0.21031
3494.38521,0.20698
3496.31368,0.20537
3498.24215,0.20453
3500.17062,0.20160
3502.09909,0.20113
3504.02755,0.20408
3505.95602,0.20567
3507.88449,0.20588
3509.81296,0.20519
3511.74143,0.20214
3513.66990,0.19792
3515.59837,0.19579
3517.52683,0.19616
3519.45530,0.19756
3521.38377,0.20040
3523.31224,0.20341
3525.24071,0.20403
3527.16918,0.20226
3529.09765,0.19844
3531.02611,0.19362
3532.95458,0.19005
3534.88305,0.18994
3536.81152,0.19136
3538.73999,0.19005
3540.66846,0.18795
3542.59693,0.18703
3544.52540,0.18731
3546.45386,0.18997
3548.38233,0.19127
3550.31080,0.18978
3552.23927,0.18787
3554.16774,0.18405
3556.09621,0.17906
3558.02468,0.17663
3559.95314,0.17820
3561.88161,0.18324
3563.81008,0.19032
3565.73855,0.19737
3567.66702,0.19781
3569.59549,0.18964
3571.52396,0.18158
3573.45243,0.17676
3575.38089,0.17451
3577.30936,0.17451
3579.23783,0.17563
3581.16630,0.17620
3583.09477,0.17772
3585.02324,0.18245
3586.95171,0.18626
3588.88017,0.18179
3590.80864,0.17553
3592.73711,0.17532
3594.66558,0.17853
3596.59405,0.17665
3598.52252,0.17084
3600.45099,0.16844
3602.37946,0.16906
3604.30792,0.16977
3606.23639,0.17222
3608.16486,0.17571
3610.09333,0.17629
3612.02180,0.17485
3613.95027,0.17196
3615.87874,0.16918
3617.80720,0.17038
3619.73567,0.17325
3621.66414,0.17182
3623.59261,0.16832
3625.52108,0.16665
3627.44955,0.16883
3629.37802,0.17131
3631.30649,0.16886
3633.23495,0.16540
3635.16342,0.15970
3637.09189,0.15293
3639.02036,0.15085
3640.94883,0.15327
3642.87730,0.15664
3644.80577,0.16213
3646.73423,0.17215
3648.66270,0.18085
3650.59117,0.17248
3652.51964,0.15826
3654.44811,0.15182
3656.37658,0.15117
3658.30505,0.14875
3660.23352,0.14452
3662.16198,0.14289
3664.09045,0.14490
3666.01892,0.15111
3667.94739,0.16089
3669.87586,0.16595
3671.80433,0.16127
3673.73280,0.16060
3675.66126,0.16415
3677.58973,0.15878
3679.51820,0.15078
3681.44667,0.14825
3683.37514,0.14962
3685.30361,0.15080
3687.23208,0.15112
3689.16055,0.14929
3691.08901,0.14604
3693.01748,0.14574
3694.94595,0.14531
3696.87442,0.14317
3698.80289,0.14370
3700.73136,0.14642
3702.65983,0.14444
3704.58829,0.14157
3706.51676,0.14385
3708.44523,0.15031
3710.37370,0.15742
3712.30217,0.15589
3714.23064,0.14998
3716.15911,0.14862
3718.08757,0.14926
3720.01604,0.14908
3721.94451,0.14801
3723.87298,0.14751
3725.80145,0.14893
3727.72992,0.15019
3729.65839,0.15073
3731.58686,0.15392
3733.51532,0.15971
3735.44379,0.16076
3737.37226,0.15422
3739.30073,0.14827
3741.22920,0.14867
3743.15767,0.15587
3745.08614,0.16271
3747.01460,0.16289
3748.94307,0.16417
3750.87154,0.16682
3752.80001,0.16360
3754.72848,0.15858
3756.65695,0.15478
3758.58542,0.14962
3760.51389,0.14358
3762.44235,0.14142
3764.37082,0.14099
3766.29929,0.13919
3768.22776,0.13935
3770.15623,0.14025
3772.08470,0.13699
3774.01317,0.13449
3775.94163,0.13616
3777.87010,0.13880
3779.79857,0.13910
3781.72704,0.13812
3783.65551,0.13840
3785.58398,0.13954
3787.51245,0.13959
3789.44092,0.13873
3791.36938,0.13877
3793.29785,0.13971
3795.22632,0.14071
3797.15479,0.14323
3799.08326,0.14804
3801.01173,0.15084
3802.94020,0.14584
3804.86866,0.14181
3806.79713,0.14240
3808.72560,0.14009
3810.65407,0.13582
3812.58254,0.13565
3814.51101,0.14194
3816.43948,0.15141
3818.36795,0.15713
3820.29641,0.15940
3822.22488,0.15351
3824.15335,0.14383
3826.08182,0.13712
3828.01029,0.13488
3829.93876,0.13820
3831.86723,0.14410
3833.79569,0.14945
3835.72416,0.15393
3837.65263,0.15528
3839.58110,0.15131
3841.50957,0.14785
3843.43804,0.14535
3845.36651,0.14205
3847.29498,0.14078
3849.22344,0.14400
3851.15191,0.15400
3853.08038,0.16496
3855.00885,0.15522
3856.93732,0.14284
3858.86579,0.13892
3860.79426,0.14034
3862.72272,0.14450
3864.65119,0.14461
3866.57966,0.13891
3868.50813,0.13528
3870.43660,0.13589
3872.36507,0.13677
3874.29354,0.13508
3876.22200,0.13156
3878.15047,0.12967
3880.07894,0.13210
3882.00741,0.13858
3883.93588,0.14416
3885.86435,0.14284
3887.79282,0.13562
3889.72129,0.13027
3891.64975,0.12910
3893.57822,0.13253
3895.50669,0.13655
3897.43516,0.13715
3899.36363,0.13609
3901.29210,0.13875
3903.22057,0.14165
3905.14903,0.13760
3907.07750,0.13087
3909.00597,0.12663
3910.93444,0.12512
3912.86291,0.12554
3914.79138,0.12631
3916.71985,0.12656
3918.64832,0.12589
3920.57678,0.12426
3922.50525,0.12168
3924.43372,0.11896
3926.36219,0.11969
3928.29066,0.12384
3930.21913,0.12754
3932.14760,0.12862
3934.07606,0.12504
3936.00453,0.11872
3937.93300,0.11624
3939.86147,0.11850
3941.78994,0.12007
3943.71841,0.11891
3945.64688,0.11933
3947.57535,0.12256
3949.50381,0.12440
3951.43228,0.12340
3953.36075,0.12098
3955.28922,0.11940
3957.21769,0.12045
3959.14616,0.12173
3961.07463,0.12232
3963.00309,0.12286
3964.93156,0.12291
3966.86003,0.12242
3968.78850,0.12083
3970.71697,0.11887
3972.64544,0.11897
3974.57391,0.12070
3976.50238,0.12128
3978.43084,0.12065
3980.35931,0.11993
3982.28778,0.12032
3984.21625,0.12201
3986.14472,0.12239
3988.07319,0.12169
3990.00166,0.12145
3991.93012,0.11817
3993.85859,0.11154
3995.78706,0.10932
3997.71553,0.11358
3999.64400,0.11789
4001.57247,0.11952
4003.50094,0.12195
4005.42941,0.12412
4007.35787,0.11929
4009.28634,0.11041
4011.21481,0.10605
4013.14328,0.10518
4015.07175,0.10508
4017.00022,0.10695
4018.92869,0.10865
4020.85715,0.10980
4022.78562,0.11336
4024.71409,0.11484
4026.64256,0.11326
4028.57103,0.11511
4030.49950,0.11869
4032.42797,0.11977
4034.35644,0.11762
4036.28490,0.11328
4038.21337,0.11018
4040.14184,0.10894
4042.07031,0.10834
4043.99878,0.10934
4045.92725,0.11155
4047.85572,0.11234
4049.78418,0.11074
4051.71265,0.10863
4053.64112,0.10852
4055.56959,0.10946
4057.49806,0.10843
4059.42653,0.10585
4061.35500,0.10385
4063.28346,0.10303
4065.21193,0.10271
4067.14040,0.10084
4069.06887,0.09810
4070.99734,0.09860
4072.92581,0.10082
4074.85428,0.10049
4076.78275,0.09838
4078.71121,0.09656
4080.63968,0.09724
4082.56815,0.10098
4084.49662,0.10385
4086.42509,0.10139
4088.35356,0.09339
4090.28203,0.08739
4092.21049,0.08982
4094.13896,0.09543
4096.06743,0.09805
4097.99590,0.09860
4099.92437,0.09633
4101.85284,0.09222
4103.78131,0.09243
4105.70978,0.09543
4107.63824,0.09675
4109.56671,0.09864
4111.49518,0.10147
4113.42365,0.10311
4115.35212,0.10257
4117.28059,0.10126
4119.20906,0.10255
4121.13752,0.10321
4123.06599,0.09757
4124.99446,0.09053
4126.92293,0.09031
4128.85140,0.09393
4130.77987,0.09358
4132.70834,0.09135
4134.63681,0.09057
4136.56527,0.08829
4138.49374,0.08624
4140.42221,0.08697
4142.35068,0.08822
4144.27915,0.09040
4146.20762,0.09387
4148.13609,0.09628
4150.06455,0.09710
4151.99302,0.09775
4153.92149,0.09835
4155.84996,0.09721
4157.77843,0.09450
4159.70690,0.09003
4161.63537,0.08425
4163.56384,0.08331
4165.49230,0.08741
4167.42077,0.08888
4169.34924,0.08794
4171.27771,0.08881
4173.20618,0.09032
4175.13465,0.09011
4177.06312,0.08852
4178.99158,0.08910
4180.92005,0.09075
4182.84852,0.08903
4184.77699,0.08578
4186.70546,0.08468
4188.63393,0.08621
4190.56240,0.08709
4192.49087,0.08397
4194.41933,0.08004
4196.34780,0.08134
4198.27627,0.08763
4200.20474,0.09070
4202.13321,0.08696
4204.06168,0.08339
4205.99015,0.08324
4207.91861,0.08121
4209.84708,0.07712
4211.77555,0.07652
4213.70402,0.07779
4215.63249,0.07628
4217.56096,0.07445
4219.48943,0.07641
4221.41789,0.07982
4223.34636,0.07974
4225.27483,0.07721
4227.20330,0.07643
4229.13177,0.07689
4231.06024,0.07710
4232.98871,0.07573
4234.91718,0.07243
4236.84564,0.07119
4238.77411,0.07210
4240.70258,0.07173
4242.63105,0.07108
4244.55952,0.07266
4246.48799,0.07586
4248.41646,0.07629
4250.34492,0.07143
4252.27339,0.06527
4254.20186,0.06381
4256.13033,0.06745
4258.05880,0.06995
4259.98727,0.06848
4261.91574,0.06701
4263.84421,0.06752
4265.77267,0.06950
4267.70114,0.07085
4269.62961,0.06663
4271.55808,0.06067
4273.48655,0.06208
4275.41502,0.06653
4277.34349,0.06524
4279.27195,0.06042
4281.20042,0.05735
4283.12889,0.05766
4285.05736,0.06172
4286.98583,0.06720
4288.91430,0.06918
4290.84277,0.06668
4292.77124,0.06277
4294.69970,0.05896
4296.62817,0.05594
4298.55664,0.05650
4300.48511,0.05937
4302.41358,0.05811
4304.34205,0.05492
4306.27052,0.05597
4308.19898,0.05841
4310.12745,0.05976
4312.05592,0.05882
4313.98439,0.05395
4315.91286,0.05072
4317.84133,0.05120
4319.76980,0.05115
4321.69827,0.05156
4323.62673,0.05177
4325.55520,0.04995
4327.48367,0.05104
4329.41214,0.05432
4331.34061,0.05584
4333.26908,0.05752
4335.19755,0.05728
4337.12601,0.05419
4339.05448,0.05287
4340.98295,0.05247
4342.91142,0.05153
4344.83989,0.05054
4346.76836,0.04746
4348.69683,0.04630
4350.62530,0.05213
4352.55376,0.05771
4354.48223,0.05511
4356.41070,0.04734
4358.33917,0.04018
4360.26764,0.03592
4362.19611,0.03517
4364.12458,0.03842
4366.05304,0.04345
4367.98151,0.04534
4369.90998,0.04450
4371.83845,0.04556
4373.76692,0.04809
4375.69539,0.04847
4377.62386,0.04744
4379.55232,0.04661
4381.48079,0.04409
4383.40926,0.03961
4385.33773,0.03530
4387.26620,0.03256
4389.19467,0.03382
4391.12314,0.04033
4393.05161,0.04494
4394.98007,0.04213
4396.90854,0.04036
4398.83701,0.04627
4400.76548,0.05124
4402.69395,0.04665
4404.62242,0.03788
4406.55089,0.03388
4408.47935,0.03652
4410.40782,0.04327
4412.33629,0.04714
4414.26476,0.04289
4416.19323,0.03542
4418.12170,0.03057
4420.05017,0.02925
4421.97864,0.03182
4423.90710,0.03517
4425.83557,0.03688
4427.76404,0.03734
4429.69251,0.03512
4431.62098,0.03164
4433.54945,0.02770
4435.47792,0.02381
4437.40638,0.02518
4439.33485,0.02860
4441.26332,0.02732
4443.19179,0.02654
4445.12026,0.03088
4447.04873,0.03535
4448.97720,0.03564
4450.90567,0.03255
4452.83413,0.02785
4454.76260,0.02518
4456.69107,0.02647
4458.61954,0.02543
4460.54801,0.01892
4462.47648,0.01431
4464.40495,0.01610
4466.33341,0.01979
4468.26188,0.02070
4470.19035,0.01888
4472.11882,0.01800
4474.04729,0.02147
4475.97576,0.02583
4477.90423,0.02641
4479.83270,0.02589
4481.76116,0.02786
4483.68963,0.02842
4485.61810,0.02414
4487.54657,0.02091
4489.47504,0.02139
4491.40351,0.02026
4493.33198,0.01771
4495.26044,0.01947
4497.18891,0.02451
4499.11738,0.02667
4501.04585,0.02428
4502.97432,0.02397
4504.90279,0.02987
4506.83126,0.03243
4508.75973,0.02512
4510.68819,0.01367
4512.61666,0.00695
4514.54513,0.01148
4516.47360,0.01955
4518.40207,0.01984
4520.33054,0.01539
4522.25901,0.01147
4524.18747,0.00786
4526.11594,0.00498
4528.04441,0.00289
4529.97288,0.00316
4531.90135,0.00675
4533.82982,0.00969
4535.75829,0.01168
4537.68676,0.01308
4539.61522,0.01050
4541.54369,0.00661
4543.47216,0.00533
4545.40063,0.00682
4547.32910,0.01211
4549.25757,0.01652
4551.18604,0.01691
4553.11450,0.01728
4555.04297,0.01616
4556.97144,0.01440
4558.89991,0.01388
4560.82838,0.01046
4562.75685,0.00664
4564.68532,0.00707
4566.61378,0.00997
4568.54225,0.01136
4570.47072,0.01022
4572.39919,0.00830
4574.32766,0.00525
4576.25613,0.00202
4578.18460,0.00351
4580.11307,0.00642
4582.04153,0.00457
4583.97000,0.00500
4585.89847,0.00927
4587.82694,0.01060
4589.75541,0.01110
4591.68388,0.01294
4593.61235,0.01382
4595.54081,0.01291
4597.46928,0.01186
4599.39775,0.01154
4601.32622,0.00905
4603.25469,0.00418
4605.18316,0.00158
4607.11163,0.00154
4609.04010,0.00392
4610.96856,0.01002
4612.89703,0.01327
4614.82550,0.01025
4616.75397,0.00717
4618.68244,0.00760
4620.61091,0.00780
4622.53938,0.00598
4624.46784,0.00447
4626.39631,0.00298
4628.32478,0.00279
4630.25325,0.00401
4632.18172,0.00501
4634.11019,0.00656
4636.03866,0.00655
4637.96713,0.00534
4639.89559,0.00570
4641.82406,0.00518
4643.75253,0.00416
4645.68100,0.00789
4647.60947,0.01180
4649.53794,0.00825
4651.46641,0.00436
4653.39487,0.00493
4655.32334,0.00432
4657.25181,0.00609
4659.18028,0.01197
4661.10875,0.01238
4663.03722,0.00620
4664.96569,0.00050
4666.89416,-0.00000
4668.82262,0.00341
4670.75109,0.00541
4672.67956,0.00458
4674.60803,0.00145
4676.53650,-0.00473
4678.46497,-0.01113
4680.39344,-0.00976
4682.32190,0.00004
4684.25037,0.00881
4686.17884,0.00931
4688.10731,0.00290
4690.03578,-0.00212
4691.96425,-0.00066
4693.89272,0.00304
4695.82119,0.00428
4697.74965,0.00421
4699.67812,0.00284
4701.60659,0.00199
4703.53506,0.00389
4705.46353,0.00636
4707.39200,0.01144
4709.32047,0.01436
4711.24893,0.00696
4713.17740,-0.00399
4715.10587,-0.00818
4717.03434,-0.00686
4718.96281,-0.00535
4720.89128,-0.00188
4722.81975,0.00270
4724.74821,0.00615
4726.67668,0.00936
4728.60515,0.00834
4730.53362,0.00174
4732.46209,-0.00144
4734.39056,0.00055
4736.31903,0.00070
4738.24750,0.00176
4740.17596,0.00530
4742.10443,0.00432
4744.03290,-0.00072
4745.96137,-0.00323
4747.88984,0.00019
4749.81831,0.00596
4751.74678,0.00886
4753.67524,0.01269
4755.60371,0.01536
4757.53218,0.00932
4759.46065,0.00085
4761.38912,-0.00237
4763.31759,-0.00233
4765.24606,-0.00288
4767.17453,-0.00377
4769.10299,-0.00166
4771.03146,0.00382
4772.95993,0.00983
4774.88840,0.01414
4776.81687,0.01484
4778.74534,0.00844
4780.67381,-0.00012
4782.60227,-0.00086
4784.53074,0.00371
4786.45921,0.00356
4788.38768,-0.00051
4790.31615,0.00266
4792.24462,0.01286
4794.17309,0.02018
4796.10156,0.02254
4798.03002,0.01982
4799.95849,0.00976
4801.88696,-0.00224
4803.81543,-0.00607
4805.74390,-0.00268
4807.67237,0.00132
4809.60084,0.00265
4811.52930,0.00183
4813.45777,0.00633
4815.38624,0.01134
4817.31471,0.00785
4819.24318,0.00397
4821.17165,0.00461
4823.10012,0.00662
4825.02859,0.00842
4826.95705,0.00680
4828.88552,0.00132
4830.81399,-0.00169
4832.74246,-0.00002
4834.67093,0.00191
4836.59940,0.00126
4838.52787,-0.00228
4840.45633,-0.00501
4842.38480,-0.00210
4844.31327,0.00562
4846.24174,0.01295
4848.17021,0.01241
4850.09868,0.00268
4852.02715,-0.00299
4853.95562,0.00352
4855.88408,0.01278
4857.81255,0.01603
4859.74102,0.01096
4861.66949,0.00354
4863.59796,0.00333
4865.52643,0.00327
4867.45490,0.00035
4869.38336,0.00607
4871.31183,0.01464
4873.24030,0.01269
4875.16877,0.00311
4877.09724,-0.00425
4879.02571,-0.00597
4880.95418,-0.00593
4882.88265,-0.00399
4884.81111,0.00133
4886.73958,0.00487
4888.66805,0.00461
4890.59652,0.00528
4892.52499,0.00835
4894.45346,0.01138
4896.38193,0.01305
4898.31039,0.01324
4900.23886,0.01301
4902.16733,0.01375
4904.09580,0.01682
4906.02427,0.02170
4907.95274,0.02343
4909.88121,0.01742
4911.80967,0.00682
4913.73814,0.00017
4915.66661,-0.00016
4917.59508,0.00089
4919.52355,-0.00111
4921.45202,-0.00019
4923.38049,0.00367
4925.30896,-0.00560
4927.23742,-0.01893
4929.16589,-0.01605
4931.09436,-0.00413
4933.02283,0.00934
4934.95130,0.02077
4936.87977,0.02102
4938.80824,0.01158
4940.73670,0.00167
4942.66517,-0.00363
4944.59364,-0.00222
4946.52211,0.00407
4948.45058,0.00766
4950.37905,0.00761
4952.30752,0.01004
4954.23599,0.01256
4956.16445,0.01093
4958.09292,0.00931
4960.02139,0.01011
4961.94986,0.01102
4963.87833,0.01080
4965.80680,0.00881
4967.73527,0.00602
4969.66373,0.00326
4971.59220,0.00034
4973.52067,0.00074
4975.44914,0.00537
4977.37761,0.01129
4979.30608,0.01685
4981.23455,0.02140
4983.16302,0.02532
4985.09148,0.02452
4987.01995,0.01632
4988.94842,0.00815
4990.87689,0.00558
4992.80536,0.00981
4994.73383,0.01780
4996.66230,0.01581
4998.59076,0.00452
5000.51923,0.00474
5002.44770,0.01604
5004.37617,0.02225
5006.30464,0.02435
5008.23311,0.02294
5010.16158,0.01461
5012.09005,0.00897
5014.01851,0.00925
5015.94698,0.01096
5017.87545,0.01611
5019.80392,0.02020
5021.73239,0.01726
5023.66086,0.01416
5025.58933,0.01245
5027.51779,0.00400
5029.44626,-0.00848
5031.37473,-0.01179
5033.30320,0.00078
5035.23167,0.01851
5037.16014,0.02825
5039.08861,0.03007
5041.01708,0.02742
5042.94554,0.02547
5044.87401,0.02979
5046.80248,0.03298
5048.73095,0.02838
5050.65942,0.02035
5052.58789,0.01257
5054.51636,0.01109
5056.44482,0.01529
5058.37329,0.02011
5060.30176,0.03063
5062.23023,0.04196
5064.15870,0.04202
5066.08717,0.03447
5068.01564,0.02742
5069.94410,0.02241
5071.87257,0.01935
5073.80104,0.02000
5075.72951,0.02349
5077.65798,0.02536
5079.58645,0.02594
5081.51492,0.02585
5083.44339,0.02583
5085.37185,0.02632
5087.30032,0.02232
5089.22879,0.02300
5091.15726,0.03218
5093.08573,0.03088
5095.01420,0.01833
5096.94267,0.00875
5098.87113,0.01229
5100.79960,0.02686
5102.72807,0.03450
5104.65654,0.03251
5106.58501,0.03149
5108.51348,0.03616
5110.44195,0.04562
5112.37042,0.04861
5114.29888,0.04212
5116.22735,0.03785
5118.15582,0.03676
5120.08429,0.03597
5122.01276,0.03836
5123.94123,0.04042
5125.86970,0.03701
5127.79816,0.03111
5129.72663,0.03149
5131.65510,0.03807
5133.58357,0.03629
5135.51204,0.02402
5137.44051,0.02005
5139.36898,0.02844
5141.29745,0.03308
5143.22591,0.02630
5145.15438,0.01347
5147.08285,0.00540
5149.01132,0.00483
5150.93979,0.00348
5152.86826,0.00769
5154.79673,0.02709
5156.72519,0.04754
5158.65366,0.05693
5160.58213,0.05820
5162.51060,0.04971
5164.43907,0.03845
5166.36754,0.03845
5168.29601,0.04593
5170.22448,0.05202
5172.15294,0.05494
5174.08141,0.04916
5176.00988,0.03504
5177.93835,0.02986
5179.86682,0.04593
5181.79529,0.06695
5183.72376,0.06785
5185.65222,0.05814
5187.58069,0.05886
5189.50916,0.06294
5191.43763,0.06297
5193.36610,0.05450
5195.29457,0.03780
5197.22304,0.02915
5199.15151,0.03102
5201.07997,0.03388
5203.00844,0.03695
5204.93691,0.03896
5206.86538,0.04001
5208.79385,0.03892
5210.72232,0.03360
5212.65079,0.02988
5214.57925,0.03087
5216.50772,0.03218
5218.43619,0.03122
5220.36466,0.03134
5222.29313,0.03348
5224.22160,0.03823
5226.15007,0.04401
5228.07854,0.04350
5230.00700,0.03967
5231.93547,0.03475
5233.86394,0.02930
5235.79241,0.02863
5237.72088,0.03359
5239.64935,0.04351
5241.57782,0.05038
5243.50628,0.05238
5245.43475,0.05902
5247.36322,0.06457
5249.29169,0.05954
5251.22016,0.04872
5253.14863,0.03663
5255.07710,0.02700
5257.00556,0.03302
5258.93403,0.05296
5260.86250,0.06329
5262.79097,0.05657
5264.71944,0.05143
5266.64791,0.05361
5268.57638,0.04997
5270.50485,0.04094
5272.43331,0.04216
5274.36178,0.05488
5276.29025,0.06496
5278.21872,0.06553
5280.14719,0.05635
5282.07566,0.04590
5284.00413,0.05346
5285.93259,0.07351
5287.86106,0.07632
5289.78953,0.06315
5291.71800,0.06217
5293.64647,0.07176
5295.57494,0.06975
5297.50341,0.05604
5299.43188,0.04753
5301.36034,0.05167
5303.28881,0.05249
5305.21728,0.04544
5307.14575,0.04940
5309.07422,0.06277
5311.00269,0.06532
5312.93116,0.05561
5314.85962,0.04749
5316.78809,0.04672
5318.71656,0.05102
5320.64503,0.05730
5322.57350,0.05773
5324.50197,0.05779
5326.43044,0.06197
5328.35891,0.05924
5330.28737,0.05416
5332.21584,0.05434
5334.14431,0.06015
5336.07278,0.07180
5338.00125,0.07966
5339.92972,0.08349
5341.85819,0.09241
5343.78665,0.09369
5345.71512,0.08484
5347.64359,0.08277
5349.57206,0.08101
5351.50053,0.07267
5353.42900,0.05610
5355.35747,0.04110
5357.28594,0.04426
5359.21440,0.05517
5361.14287,0.06345
5363.07134,0.07040
5364.99981,0.06987
5366.92828,0.06086
5368.85675,0.05411
5370.78522,0.05579
5372.71368,0.06225
5374.64215,0.06176
5376.57062,0.04968
5378.49909,0.03531
5380.42756,0.02724
5382.35603,0.03351
5384.28450,0.05009
5386.21297,0.06491
5388.14143,0.07529
5390.06990,0.08045
5391.99837,0.08767
5393.92684,0.09787
5395.85531,0.09915
5397.78378,0.09238
5399.71225,0.07866
5401.64071,0.06019
5403.56918,0.04977
5405.49765,0.04935
5407.42612,0.05082
5409.35459,0.05996
5411.28306,0.07808
5413.21153,0.08109
5415.13999,0.06643
5417.06846,0.06212
5418.99693,0.07023
5420.92540,0.07251
5422.85387,0.06397
5424.78234,0.05490
5426.71081,0.05015
5428.63928,0.04719
5430.56774,0.04263
5432.49621,0.03686
5434.42468,0.03785
5436.35315,0.05152
5438.28162,0.06895
5440.21009,0.07952
5442.13856,0.07541
5444.06702,0.06354
5445.99549,0.05684
5447.92396,0.05018
5449.85243,0.04719
5451.78090,0.05787
5453.70937,0.07311
5455.63784,0.08529
5457.56631,0.08406
5459.49477,0.06813
5461.42324,0.05848
5463.35171,0.06341
5465.28018,0.07165
5467.20865,0.07102
5469.13712,0.05932
5471.06559,0.05294
5472.99405,0.06329
5474.92252,0.07557
5476.85099,0.07687
5478.77946,0.08091
5480.70793,0.09127
5482.63640,0.09633
5484.56487,0.09411
5486.49334,0.08549
5488.42180,0.07043
5490.35027,0.06210
5492.27874,0.06969
5494.20721,0.07872
5496.13568,0.08221
5498.06415,0.08536
5499.99262,0.08393
5501.92108,0.08380
5503.84955,0.09057
5505.77802,0.08969
5507.70649,0.08061
5509.63496,0.08094
5511.56343,0.08763
5513.49190,0.08242
5515.42037,0.06655
5517.34883,0.06734
5519.27730,0.09339
5521.20577,0.10975
5523.13424,0.09790
5525.06271,0.08326
5526.99118,0.07603
5528.91965,0.06712
5530.84811,0.06143
5532.77658,0.05989
5534.70505,0.05944
5536.63352,0.06544
5538.56199,0.07706
5540.49046,0.08497
5542.41893,0.08478
5544.34740,0.07691
5546.27586,0.06459
5548.20433,0.05351
5550.13280,0.04330
5552.06127,0.04246
5553.98974,0.06582
5555.91821,0.09466
5557.84668,0.09825
5559.77514,0.08718
5561.70361,0.08727
5563.63208,0.09342
5565.56055,0.08575
5567.48902,0.06849
5569.41749,0.06331
5571.34596,0.07411
5573.27443,0.08545
5575.20289,0.08294
5577.13136,0.06489
5579.05983,0.05227
5580.98830,0.06592
5582.91677,0.08703
5584.84524,0.10060
5586.77371,0.10356
5588.70217,0.08504
5590.63064,0.07263
5592.55911,0.08045
5594.48758,0.07865
5596.41605,0.07078
5598.34452,0.07876
5600.27299,0.09275
5602.20145,0.09849
5604.12992,0.09548
5606.05839,0.08613
5607.98686,0.07832
5609.91533,0.07543
5611.84380,0.07999
5613.77227,0.09756
5615.70074,0.10987
5617.62920,0.10219
5619.55767,0.08872
5621.48614,0.08082
5623.41461,0.08124
5625.34308,0.08491
5627.27155,0.08500
5629.20002,0.08343
5631.12848,0.07419
5633.05695,0.06278
5634.98542,0.06398
5636.91389,0.06616
5638.84236,0.05758
5640.77083,0.05057
5642.69930,0.05381
5644.62777,0.06522
5646.55623,0.08359
5648.48470,0.10808
5650.41317,0.13050
5652.34164,0.13177
5654.27011,0.11536
5656.19858,0.11092
5658.12705,0.11202
5660.05551,0.09604
5661.98398,0.07856
5663.91245,0.07164
5665.84092,0.06665
5667.76939,0.06425
5669.69786,0.07384
5671.62633,0.10626
5673.55480,0.13505
5675.48326,0.11822
5677.41173,0.08537
5679.34020,0.08023
5681.26867,0.08086
5683.19714,0.07426
5685.12561,0.07640
5687.05408,0.08835
5688.98254,0.09769
5690.91101,0.09469
5692.83948,0.08192
5694.76795,0.07246
5696.69642,0.06777
5698.62489,0.06578
5700.55336,0.08708
5702.48183,0.11656
5704.41029,0.11383
5706.33876,0.09874
5708.26723,0.10064
5710.19570,0.10903
5712.12417,0.11078
5714.05264,0.10990
5715.98111,0.11643
5717.90957,0.12249
5719.83804,0.11048
5721.76651,0.09013
5723.69498,0.09056
5725.62345,0.10867
5727.55192,0.11303
5729.48039,0.09357
5731.40886,0.07092
5733.33732,0.06692
5735.26579,0.07596
5737.19426,0.07986
5739.12273,0.08768
5741.05120,0.09792
5742.97967,0.09387
5744.90814,0.08484
5746.83660,0.07981
5748.76507,0.07252
5750.69354,0.06297
5752.62201,0.06294
5754.55048,0.08142
5756.47895,0.09879
5758.40742,0.09809
5760.33588,0.09318
5762.26435,0.08835
5764.19282,0.08453
5766.12129,0.08406
5768.04976,0.08639
5769.97823,0.10524
5771.90670,0.12575
5773.83517,0.12138
5775.76363,0.10835
5777.69210,0.10828
5779.62057,0.10436
5781.54904,0.08805
5783.47751,0.09819
5785.40598,0.14179
5787.33445,0.17423
5789.26291,0.16776
5791.19138,0.12591
5793.11985,0.08542
5795.04832,0.08349
5796.97679,0.09020
5798.90526,0.07878
5800.83373,0.08042
5802.76220,0.09055
5804.69066,0.08366
5806.61913,0.07396
5808.54760,0.07452
5810.47607,0.08157
5812.40454,0.08697
5814.33301,0.07812
5816.26148,0.06322
5818.18994,0.06721
5820.11841,0.09619
5822.04688,0.12608
5823.97535,0.12065
5825.90382,0.09812
5827.83229,0.09445
5829.76076,0.09513
5831.68923,0.09457
5833.61769,0.10109
5835.54616,0.11029
5837.47463,0.11923
5839.40310,0.11644
5841.33157,0.10271
5843.26004,0.09364
5845.18851,0.08982
5847.11697,0.08389
5849.04544,0.07078
5850.97391,0.05132
5852.90238,0.03690
5854.83085,0.03438
5856.75932,0.04508
5858.68779,0.05981
5860.61626,0.06449
5862.54472,0.06999
5864.47319,0.09214
5866.40166,0.10993
5868.33013,0.10153
5870.25860,0.09101
5872.18707,0.08403
5874.11554,0.06122
5876.04400,0.06015
5877.97247,0.10619
5879.90094,0.14129
5881.82941,0.13604
5883.75788,0.11343
5885.68635,0.08506
5887.61482,0.06738
5889.54329,0.07825
5891.47175,0.09782
5893.40022,0.09507
5895.32869,0.07409
5897.25716,0.06101
5899.18563,0.06164
5901.11410,0.06294
5903.04257,0.07142
5904.97103,0.09330
5906.89950,0.10638
5908.82797,0.10431
5910.75644,0.09998
5912.68491,0.09516
5914.61338,0.08612
5916.54185,0.07971
5918.47032,0.09148
5920.39878,0.10885
5922.32725,0.11111
5924.25572,0.10142
5926.18419,0.08492
5928.11266,0.07477
5930.04113,0.09104
5931.96960,0.12746
5933.89806,0.15582
5935.82653,0.16655
5937.75500,0.16708
5939.68347,0.15517
5941.61194,0.12577
5943.54041,0.08922
5945.46888,0.06586
5947.39734,0.06054
5949.32581,0.06329
5951.25428,0.05655
5953.18275,0.04222
5955.11122,0.04749
5957.03969,0.07621
5958.96816,0.09693
5960.89663,0.08942
5962.82509,0.08580
5964.75356,0.10439
5966.68203,0.11666
5968.61050,0.11034
5970.53897,0.09329
5972.46744,0.06653
5974.39591,0.04680
5976.32437,0.04099
5978.25284,0.03740
5980.18131,0.03964
5982.10978,0.05311
5984.03825,0.07599
5985.96672,0.10942
5987.89519,0.13460
5989.82366,0.13144
5991.75212,0.12504
5993.68059,0.12707
5995.60906,0.12299
5997.53753,0.12374
5999.46600,0.12213
6001.39447,0.10486
6003.32294,0.08204
6005.25140,0.05269
6007.17987,0.02808
6009.10834,0.03481
6011.03681,0.06840
6012.96528,0.10136
6014.89375,0.11368
6016.82222,0.11254
6018.75069,0.11702
6020.67915,0.12088
6022.60762,0.11136
6024.53609,0.10421
6026.46456,0.11614
6028.39303,0.12123
6030.32150,0.09427
6032.24997,0.07516
6034.17843,0.09864
6036.10690,0.12203
6038.03537,0.10617
6039.96384,0.08409
6041.89231,0.07615
6043.82078,0.07506
6045.74925,0.07049
6047.67772,0.05887
6049.60618,0.06447
6051.53465,0.09918
6053.46312,0.14312
6055.39159,0.15756
6057.32006,0.13148
6059.24853,0.10792
6061.17700,0.09683
6063.10546,0.08495
6065.03393,0.07796
6066.96240,0.09034
6068.89087,0.11676
6070.81934,0.12057
6072.74781,0.09627
6074.67628,0.08353
6076.60475,0.10247
6078.53321,0.10990
6080.46168,0.06351
6082.39015,0.01115
6084.31862,0.01538
6086.24709,0.05131
6088.17556,0.06172
6090.10403,0.05766
6092.03249,0.07661
6093.96096,0.10611
6095.88943,0.10282
6097.81790,0.07171
6099.74637,0.06431
6101.67484,0.08823
6103.60331,0.10109
6105.53177,0.08507
6107.46024,0.07028
6109.38871,0.09165
6111.31718,0.11098
6113.24565,0.09094
6115.17412,0.07662
6117.10259,0.08773
6119.03106,0.07912
6120.95952,0.05012
6122.88799,0.05839
6124.81646,0.09748
6126.74493,0.11977
6128.67340,0.12683
6130.60187,0.12869
6132.53034,0.10843
6134.45880,0.08730
6136.38727,0.09760
6138.31574,0.11790
6140.24421,0.10490
6142.17268,0.06697
6144.10115,0.05875
6146.02962,0.06717
6147.95809,0.05808
6149.88655,0.06838
6151.81502,0.09178
6153.74349,0.07940
6155.67196,0.06005
6157.60043,0.05484
6159.52890,0.04585
6161.45737,0.06484
6163.38583,0.12206
6165.31430,0.14385
6167.24277,0.12186
6169.17124,0.11452
6171.09971,0.12933
6173.02818,0.12744
6174.95665,0.09948
6176.88512,0.09296
6178.81358,0.11305
6180.74205,0.11313
6182.67052,0.09754
6184.59899,0.08287
6186.52746,0.06815
6188.45593,0.06176
6190.38440,0.05362
6192.31286,0.04911
6194.24133,0.06630
6196.16980,0.08890
6198.09827,0.09985
6200.02674,0.10310
6201.95521,0.10776
6203.88368,0.09647
6205.81215,0.05680
6207.74061,0.03341
6209.66908,0.04137
6211.59755,0.04126
6213.52602,0.04019
6215.45449,0.05436
6217.38296,0.06727
6219.31143,0.08742
6221.23989,0.10852
6223.16836,0.10112
6225.09683,0.08154
6227.02530,0.06907
6228.95377,0.04812
6230.88224,0.03055
6232.81071,0.02781
6234.73918,0.02645
6236.66764,0.04705
6238.59611,0.09959
6240.52458,0.12146
6242.45305,0.07462
6244.38152,0.04894
6246.30999,0.09860
6248.23846,0.14141
6250.16692,0.12110
6252.09539,0.08018
6254.02386,0.07780
6255.95233,0.09397
6257.88080,0.08013
6259.80927,0.05999
6261.73774,0.07530
6263.66621,0.10460
6265.59467,0.11008
6267.52314,0.08980
6269.45161,0.06064
6271.38008,0.04960
6273.30855,0.07388
6275.23702,0.12391
6277.16549,0.16054
6279.09395,0.13615
6281.02242,0.06216
6282.95089,0.00301
6284.87936,0.01586
6286.80783,0.08221
6288.73630,0.13393
6290.66477,0.15305
6292.59323,0.14775
6294.52170,0.10633
6296.45017,0.05834
6298.37864,0.04237
6300.30711,0.05870
6302.23558,0.10230
6304.16405,0.14955
6306.09252,0.15380
6308.02098,0.10098
6309.94945,0.05312
6311.87792,0.05208
6313.80639,0.06250
6315.73486,0.06720
6317.66333,0.07100
6319.59180,0.07273
6321.52026,0.07472
6323.44873,0.07098
6325.37720,0.07789
6327.30567,0.10445
6329.23414,0.11744
6331.16261,0.10796
6333.09108,0.08279
6335.01955,0.04943
6336.94801,0.05381
6338.87648,0.08891
6340.80495,0.08838
6342.73342,0.05937
6344.66189,0.03979
6346.59036,0.03036
6348.51883,0.04679
6350.44729,0.08325
6352.37576,0.09554
6354.30423,0.08606
6356.23270,0.09029
6358.16117,0.10509
6360.08964,0.09240
6362.01811,0.05802
6363.94658,0.04919
6365.87504,0.08600
6367.80351,0.13657
6369.73198,0.14115
6371.66045,0.11178
6373.58892,0.12290
6375.51739,0.14024
6377.44586,0.10188
6379.37432,0.05874
6381.30279,0.03196
6383.23126,0.00938
6385.15973,0.02401
6387.08820,0.05398
6389.01667,0.06143
6390.94514,0.06910
6392.87361,0.07924
6394.80207,0.05573
6396.73054,0.02401
6398.65901,0.01157
6400.58748,0.00969
6402.51595,0.00346
6404.44442,-0.00159
6406.37289,0.02204
6408.30135,0.05256
6410.22982,0.06372
6412.15829,0.06263
6414.08676,0.05514
6416.01523,0.04835
6417.94370,0.02068
6419.87217,0.00368
6421.80064,0.05737
6423.72910,0.13343
6425.65757,0.16365
6427.58604,0.15821
6429.51451,0.14047
6431.44298,0.10085
6433.37145,0.06344
6435.29992,0.05198
6437.22838,0.04996
6439.15685,0.06450
6441.08532,0.09562
6443.01379,0.09677
6444.94226,0.05344
6446.87073,0.02257
6448.79920,0.04538
6450.72766,0.10111
6452.65613,0.13860
6454.58460,0.14758
6456.51307,0.13694
6458.44154,0.09767
6460.37001,0.05890
6462.29848,0.06445
6464.22695,0.08231
6466.15541,0.08979
6468.08388,0.11892
6470.01235,0.15048
6471.94082,0.15835
6473.86929,0.14373
6475.79776,0.08261
6477.72623,0.02515
6479.65469,0.05308
6481.58316,0.12294
6483.51163,0.14691
6485.44010,0.10836
6487.36857,0.04311
6489.29704,-0.00268
6491.22551,-0.01380
6493.15398,-0.00673
6495.08244,0.01775
6497.01091,0.06025
6498.93938,0.09280
6500.86785,0.09401
6502.79632,0.06743
6504.72479,0.04088
6506.65326,0.03656
6508.58172,0.04511
6510.51019,0.06095
6512.43866,0.07961
6514.36713,0.07346
6516.29560,0.04827
6518.22407,0.03432
6520.15254,0.02968
6522.08101,0.03021
6524.00947,0.05192
6525.93794,0.09739
6527.86641,0.13388
6529.79488,0.14271
6531.72335,0.15664
6533.65182,0.18587
6535.58029,0.18086
6537.50875,0.12945
6539.43722,0.09015
6541.36569,0.07556
6543.29416,0.04385
6545.22263,0.01413
6547.15110,0.01255
6549.07957,0.03216
6551.00804,0.05383
6552.93650,0.04877
6554.86497,0.02940
6556.79344,0.01399
6558.72191,0.02339
6560.65038,0.08166
6562.57885,0.13349
6564.50732,0.12358
6566.43578,0.08661
6568.36425,0.05202
6570.29272,0.02181
6572.22119,0.00846
6574.14966,0.02470
6576.07813,0.06720
6578.00660,0.09583
6579.93507,0.10284
6581.86353,0.12307
6583.79200,0.14879
6585.72047,0.14706
6587.64894,0.11384
6589.57741,0.06682
6591.50588,0.04065
6593.43435,0.06554
6595.36281,0.08031
6597.29128,0.03845
6599.21975,0.00305
6601.14822,0.00769
6603.07669,0.03580
6605.00516,0.05254
6606.93363,0.05475
6608.86210,0.08181
6610.79056,0.11323
6612.71903,0.10460
6614.64750,0.08986
6616.57597,0.09072
6618.50444,0.09724
6620.43291,0.12620
6622.36138,0.14812
6624.28984,0.12646
6626.21831,0.09604
6628.14678,0.07787
6630.07525,0.04827
6632.00372,0.00577
6633.93219,-0.01097
6635.86066,0.02016
6637.78912,0.07558
6639.71759,0.11812
6641.64606,0.11737
6643.57453,0.06874
6645.50300,0.03294
6647.43147,0.04366
6649.35994,0.05328
6651.28841,0.05277
6653.21687,0.04934
6655.14534,0.02892
6657.07381,0.02179
6659.00228,0.04955
6660.93075,0.07868
6662.85922,0.09610
6664.78769,0.10064
6666.71615,0.08869
6668.64462,0.08879
6670.57309,0.11886
6672.50156,0.12007
6674.43003,0.05306
6676.35850,-0.03892
6678.28697,-0.07632
6680.21544,0.00357
6682.14390,0.11858
6684.07237,0.15958
6686.00084,0.16816
6687.92931,0.17247
6689.85778,0.12114
6691.78625,0.06421
6693.71472,0.06600
6695.64318,0.09251
6697.57165,0.08922
6699.50012,0.08969
6701.42859,0.11439
6703.35706,0.10867
6705.28553,0.06732
6707.21400,0.01932
6709.14247,-0.00464
6711.07093,0.03713
6712.99940,0.11685
6714.92787,0.15529
6716.85634,0.14263
6718.78481,0.12324
6720.71328,0.10683
6722.64175,0.09750
6724.57021,0.08573
6726.49868,0.07606
6728.42715,0.07247
6730.35562,0.04708
6732.28409,0.01918
6734.21256,0.03325
6736.14103,0.06282
6738.06950,0.05779
6739.99796,0.03602
6741.92643,0.03256
6743.85490,0.05384
6745.78337,0.09269
6747.71184,0.13562
6749.64031,0.15744
6751.56878,0.14325
6753.49724,0.10290
6755.42571,0.05612
6757.35418,0.03899
6759.28265,0.05649
6761.21112,0.06493
6763.13959,0.03515
6765.06806,-0.00927
6766.99653,-0.00990
6768.92499,0.03001
6770.85346,0.05909
6772.78193,0.06325
6774.71040,0.03142
6776.63887,-0.02228
6778.56734,-0.03133
6780.49581,0.00586
6782.42427,0.04252
6784.35274,0.06516
6786.28121,0.07316
6788.20968,0.07733
6790.13815,0.10212
6792.06662,0.12675
6793.99509,0.10763
6795.92355,0.08076
6797.85202,0.09138
6799.78049,0.10227
6801.70896,0.08724
6803.63743,0.05563
6805.56590,0.02208
6807.49437,0.02420
6809.42284,0.06662
6811.35130,0.10317
6813.27977,0.08380
6815.20824,0.02139
6817.13671,-0.03439
6819.06518,-0.04285
6820.99365,-0.00548
6822.92212,0.05217
6824.85058,0.08683
6826.77905,0.10398
6828.70752,0.10401
6830.63599,0.03753
6832.56446,-0.04617
6834.49293,-0.07508
6836.42140,-0.05220
6838.34987,0.00628
6840.27833,0.05307
6842.20680,0.05237
6844.13527,0.05816
6846.06374,0.11624
6847.99221,0.17192
6849.92068,0.15202
6851.84915,0.09800
6853.77761,0.05801
6855.70608,0.05616
6857.63455,0.12084
6859.56302,0.17908
6861.49149,0.16094
6863.41996,0.13481
6865.34843,0.16018
6867.27690,0.17586
6869.20536,0.15777
6871.13383,0.11733
6873.06230,0.07344
6874.99077,0.07210
6876.91924,0.06348
6878.84771,0.00258
6880.77618,-0.05636
6882.70464,-0.04733
6884.63311,-0.00850
6886.56158,-0.00231
6888.49005,0.00287
6890.41852,0.03025
6892.34699,0.06037
6894.27546,0.06671
6896.20393,0.02461
6898.13239,0.01294
6900.06086,0.07106
6901.98933,0.12365
6903.91780,0.15453
6905.84627,0.15988
6907.77474,0.11899
6909.70321,0.05332
6911.63167,0.01780
6913.56014,0.04115
6915.48861,0.07624
6917.41708,0.08605
6919.34555,0.09431
6921.27402,0.10208
6923.20249,0.08707
6925.13096,0.07424
6927.05942,0.09254
6928.98789,0.10487
6930.91636,0.06744
6932.84483,0.04080
6934.77330,0.05310
6936.70177,0.05942
6938.63024,0.07776
6940.55870,0.13655
6942.48717,0.17679
6944.41564,0.15656
6946.34411,0.12753
6948.27258,0.12251
6950.20105,0.09212
6952.12952,0.03188
6954.05799,-0.01597
6955.98645,-0.05126
6957.91492,-0.05378
6959.84339,0.00573
6961.77186,0.06992
6963.70033,0.08410
6965.62880,0.07410
6967.55727,0.04913
6969.48573,0.02105
6971.41420,0.05828
6973.34267,0.14433
6975.27114,0.14074
6977.19961,0.05876
6979.12808,0.02230
6981.05655,0.05000
6982.98501,0.10410
6984.91348,0.12122
6986.84195,0.09236
6988.77042,0.09320
6990.69889,0.13806
6992.62736,0.16097
6994.55583,0.15304
6996.48430,0.17088
6998.41276,0.22026
7000.34123,0.25676
7002.26970,0.27993
7004.19817,0.24770
7006.12664,0.12709
7008.05511,0.02864
7009.98358,0.03839
7011.91204,0.07216
7013.84051,0.05376
7015.76898,0.05331
7017.69745,0.11572
7019.62592,0.12908
7021.55439,0.06024
7023.48286,0.01605
7025.41133,0.04456
7027.33979,0.10030
7029.26826,0.14329
7031.19673,0.14556
7033.12520,0.10701
7035.05367,0.07966
7036.98214,0.10398
7038.91061,0.13781
7040.83907,0.14469
7042.76754,0.14345
7044.69601,0.17921
7046.62448,0.21542
7048.55295,0.18258
7050.48142,0.09596
7052.40989,-0.00445
7054.33836,-0.08367
7056.26682,-0.08694
7058.19529,-0.04498
7060.12376,-0.05024
7062.05223,-0.05372
7063.98070,0.01437
7065.90917,0.10157
7067.83764,0.13577
7069.76610,0.09985
7071.69457,0.04648
7073.62304,0.02345
7075.55151,0.00818
7077.47998,0.00012
7079.40845,0.01351
7081.33692,0.02736
7083.26539,0.03159
7085.19385,0.05698
7087.12232,0.10970
7089.05079,0.16596
7090.97926,0.16266
7092.90773,0.06341
7094.83620,0.00148
7096.76467,0.09959
7098.69313,0.22572
7100.62160,0.21983
7102.55007,0.15366
7104.47854,0.09959
7106.40701,0.06289
7108.33548,0.03849
7110.26395,0.03541
7112.19242,0.05218
7114.12088,0.01949
7116.04935,-0.07528
7117.97782,-0.10095
7119.90629,-0.07348
7121.83476,-0.09075
7123.76323,-0.05202
7125.69170,0.02572
7127.62016,0.03163
7129.54863,0.00590
7131.47710,0.01508
7133.40557,0.04317
7135.33404,0.02644
7137.26251,-0.04019
7139.19098,-0.02802
7141.11944,0.11444
7143.04791,0.20763
7144.97638,0.13684
7146.90485,0.08422
7148.83332,0.16166
7150.76179,0.18093
7152.69026,0.07732
7154.61873,0.01195
7156.54719,0.03085
7158.47566,0.02686
7160.40413,-0.03161
7162.33260,-0.07402
7164.26107,-0.04608
7166.18954,-0.04199
7168.11801,-0.09703
7170.04647,-0.05559
7171.97494,0.05863
7173.90341,0.06084
7175.83188,-0.00284
7177.76035,-0.00105
7179.68882,0.04092
7181.61729,0.10876
7183.54576,0.21716
7185.47422,0.25050
7187.40269,0.18126
7189.33116,0.08199
7191.25963,0.00290
7193.18810,-0.05122
7195.11657,-0.06375
7197.04504,-0.02344
7198.97350,0.01577
7200.90197,0.03161
7202.83044,0.03461
7204.75891,0.02077
7206.68738,0.02922
7208.61585,0.08051
7210.54432,0.12591
7212.47279,0.14901
7214.40125,0.19598
7216.32972,0.28146
7218.25819,0.32414
7220.18666,0.30059
7222.11513,0.27870
7224.04360,0.20578
7225.97207,0.05961
7227.90053,-0.05310
7229.82900,-0.12422
7231.75747,-0.12044
7233.68594,0.00548
7235.61441,0.10145
7237.54288,0.05564
7239.47135,-0.07268
7241.39982,-0.13719
7243.32828,-0.09656
7245.25675,-0.07603
7247.18522,-0.08709
7249.11369,-0.02414
7251.04216,0.11998
7252.97063,0.19357
7254.89910,0.12432
7256.82756,0.09301
7258.75603,0.12156
7260.68450,0.14307
7262.61297,0.14059
7264.54144,0.11371
7266.46991,0.06322
7268.39838,0.06055
7270.32685,0.09370
7272.25531,0.04562
7274.18378,-0.00147
7276.11225,0.04492
7278.04072,0.06911
7279.96919,0.00800
7281.89766,-0.02424
7283.82613,-0.00296
7285.75459,0.00883
7287.68306,0.05463
7289.61153,0.09886
7291.54000,0.05216
7293.46847,0.01957
7295.39694,0.06643
7297.32541,0.07913
7299.25387,0.02690
7301.18234,-0.02987
7303.11081,-0.05539
7305.03928,-0.02912
7306.96775,0.04842
7308.89622,0.07384
7310.82469,-0.02873
7312.75316,-0.11373
7314.68162,-0.15301
7316.61009,-0.15500
7318.53856,-0.05596
7320.46703,0.03416
7322.39550,0.00582
7324.32397,-0.07395
7326.25244,-0.10791
7328.18090,-0.03816
7330.10937,0.17801
7332.03784,0.32135
7333.96631,0.25007
7335.89478,0.14946
7337.82325,0.18582
7339.75172,0.23826
7341.68019,0.07462
7343.60865,-0.04296
7345.53712,-0.01844
7347.46559,0.00860
7349.39406,-0.04284
7351.32253,-0.11047
7353.25100,-0.14646
7355.17947,-0.20790
7357.10793,-0.26749
7359.03640,-0.15467
7360.96487,0.07032
7362.89334,0.18669
7364.82181,0.22268
7366.75028,0.24598
7368.67875,0.18601
7370.60722,0.08242
7372.53568,0.07776
7374.46415,0.20219
7376.39262,0.26331
7378.32109,0.15806
7380.24956,0.04773
7382.17803,0.04958
7384.10650,0.13314
7386.03496,0.12252
7387.96343,0.06170
7389.89190,0.05958
7391.82037,0.02039
7393.74884,-0.03392
7395.67731,-0.02401
7397.60578,0.04338
7399.53425,0.15122
7401.46271,0.22338
7403.39118,0.18042
7405.31965,0.05924
7407.24812,-0.01149
7409.17659,0.02166
7411.10506,0.10255
7413.03353,0.09729
7414.96199,0.01311
7416.89046,-0.02145
7418.81893,0.10077
7420.74740,0.23751
7422.67587,0.15129
7424.60434,-0.03107
7426.53281,-0.10139
7428.46128,-0.03682
7430.38974,0.05200
7432.31821,0.08974
7434.24668,0.09105
7436.17515,0.01552
7438.10362,-0.11672
7440.03209,-0.15741
7441.96056,-0.05778
7443.88902,0.00674
7445.81749,-0.00943
7447.74596,-0.02738
7449.67443,-0.05599
7451.60290,-0.08286
7453.53137,-0.06001
7455.45984,-0.01920
7457.38831,0.06458
7459.31677,0.13101
7461.24524,0.01566
7463.17371,-0.03554
7465.10218,0.06386
7467.03065,0.04473
7468.95912,-0.06565
7470.88759,-0.09912
7472.81605,0.00208
7474.74452,0.13271
7476.67299,0.21606
7478.60146,0.20563
7480.52993,0.09582
7482.45840,-0.00551
7484.38687,-0.02526
7486.31533,0.00442
7488.24380,0.07726
7490.17227,0.14618
7492.10074,0.12541
7494.02921,0.09767
7495.95768,0.14852
7497.88615,0.18830
