399.19301,-0.40245
401.12148,0.50629
403.04995,0.64444
404.97842,0.58625
406.90689,0.45789
408.83536,0.25175
410.76382,0.07745
412.69229,0.03208
414.62076,-0.01149
416.54923,-0.12803
418.47770,-0.19586
420.40617,-0.07665
422.33464,0.08336
424.26311,0.22227
426.19157,0.29140
428.12004,0.27190
430.04851,0.24674
431.97698,0.25335
433.90545,0.21372
435.83392,0.13346
437.76239,0.05453
439.69085,-0.00070
441.61932,0.02307
443.54779,0.10661
445.47626,0.16523
447.40473,0.18985
449.33320,0.20296
451.26167,0.23250
453.19013,0.25200
455.11860,0.19295
457.04707,0.07898
458.97554,-0.01842
460.90401,-0.06246
462.83248,-0.01710
464.76095,0.09270
466.68942,0.16771
468.61788,0.17489
470.54635,0.18894
472.47482,0.29049
474.40329,0.34481
476.33176,0.20930
478.26023,0.11470
480.18870,0.08807
482.11716,0.04434
484.04563,0.01336
485.97410,0.05169
487.90257,0.11578
489.83104,0.16608
491.75951,0.18965
493.68798,0.16728
495.61645,0.10531
497.54491,0.08032
499.47338,0.10054
501.40185,0.07870
503.33032,-0.00769
505.25879,-0.06804
507.18726,-0.04066
509.11573,0.03118
511.04419,0.09566
512.97266,0.13949
514.90113,0.17758
516.82960,0.22796
518.75807,0.22842
520.68654,0.15539
522.61501,0.07648
524.54348,0.03365
526.47194,0.03926
528.40041,0.06451
530.32888,0.06414
532.25735,0.07093
534.18582,0.13131
536.11429,0.20472
538.04276,0.22505
539.97122,0.20733
541.89969,0.18810
543.82816,0.14849
545.75663,0.08437
547.68510,0.03877
549.61357,0.01779
551.54204,-0.03131
553.47051,-0.05894
555.39897,0.02445
557.32744,0.11898
559.25591,0.12367
561.18438,0.11185
563.11285,0.13305
565.04132,0.14475
566.96979,0.10870
568.89825,0.05546
570.82672,0.04186
572.75519,0.07324
574.68366,0.11673
576.61213,0.14314
578.54060,0.16280
580.46907,0.18345
582.39754,0.17989
584.32600,0.15652
586.25447,0.12044
588.18294,0.07186
590.11141,0.05544
592.03988,0.07451
593.96835,0.08236
595.89682,0.09386
597.82528,0.12656
599.75375,0.15255
601.68222,0.15756
603.61069,0.15391
605.53916,0.15360
607.46763,0.14655
609.39610,0.11798
611.32456,0.08474
613.25303,0.07559
615.18150,0.08346
617.10997,0.08321
619.03844,0.08156
620.96691,0.09250
622.89538,0.11290
624.82385,0.14362
626.75231,0.17311
628.68078,0.18027
630.60925,0.16534
632.53772,0.14369
634.46619,0.12435
636.39466,0.10543
638.32313,0.08737
640.25159,0.08178
642.18006,0.10413
644.10853,0.13729
646.03700,0.15374
647.96547,0.16246
649.89394,0.16643
651.82241,0.15111
653.75088,0.13051
655.67934,0.12730
657.60781,0.12567
659.53628,0.10337
661.46475,0.08144
663.39322,0.08011
665.32169,0.09009
667.25016,0.11741
669.17862,0.17020
671.10709,0.19116
673.03556,0.19016
674.96403,0.18312
676.89250,0.15391
678.82097,0.10657
680.74944,0.07409
682.67791,0.07146
684.60637,0.08296
686.53484,0.09686
688.46331,0.11065
690.39178,0.12259
692.32025,0.13738
694.24872,0.14506
696.17719,0.13004
698.10565,0.10498
700.03412,0.09497
701.96259,0.10283
703.89106,0.11859
705.81953,0.13603
707.74800,0.14576
709.67647,0.14414
711.60494,0.13634
713.53340,0.13008
715.46187,0.13489
717.39034,0.14560
719.31881,0.14820
721.24728,0.14049
723.17575,0.13421
725.10422,0.13170
727.03268,0.12694
728.96115,0.12694
730.88962,0.13034
732.81809,0.12578
734.74656,0.12076
736.67503,0.12747
738.60350,0.14088
740.53197,0.14852
742.46043,0.14578
744.38890,0.13954
746.31737,0.13685
748.24584,0.13663
750.17431,0.13198
752.10278,0.11917
754.03125,0.11005
755.95971,0.11425
757.88818,0.12644
759.81665,0.13939
761.74512,0.14599
763.67359,0.14329
765.60206,0.13517
767.53053,0.12891
769.45900,0.12570
771.38746,0.11948
773.31593,0.11333
775.24440,0.11392
777.17287,0.11681
779.10134,0.11662
781.02981,0.11796
782.95828,0.12798
784.88674,0.14446
786.81521,0.15117
788.74368,0.14011
790.67215,0.12222
792.60062,0.11062
794.52909,0.11998
796.45756,0.13919
798.38602,0.14091
800.31449,0.13573
802.24296,0.14043
804.17143,0.14660
806.09990,0.15368
808.02837,0.16281
809.95684,0.16319
811.88531,0.15191
813.81377,0.13550
815.74224,0.12177
817.67071,0.11725
819.59918,0.12407
821.52765,0.13556
823.45612,0.14417
825.38459,0.14851
827.31305,0.14970
829.24152,0.15077
831.16999,0.15070
833.09846,0.14789
835.02693,0.14364
836.95540,0.13798
838.88387,0.12979
840.81234,0.12190
842.74080,0.12064
844.66927,0.12284
846.59774,0.12203
848.52621,0.11914
850.45468,0.12390
852.38315,0.14011
854.31162,0.15137
856.24008,0.14879
858.16855,0.14487
860.09702,0.14999
862.02549,0.15498
863.95396,0.14527
865.88243,0.13943
867.81090,0.18189
869.73937,0.23573
871.66783,0.21683
873.59630,0.16723
875.52477,0.15680
877.45324,0.15850
879.38171,0.14548
881.31018,0.12759
883.23865,0.12071
885.16711,0.12971
887.09558,0.13936
889.02405,0.14400
890.95252,0.15294
892.88099,0.15634
894.80946,0.14496
896.73793,0.13555
898.66640,0.13834
900.59486,0.14335
902.52333,0.14184
904.45180,0.13897
906.38027,0.14031
908.30874,0.14350
910.23721,0.14438
912.16568,0.14018
914.09414,0.13540
916.02261,0.13801
917.95108,0.14873
919.87955,0.15598
921.80802,0.14965
923.73649,0.13878
925.66496,0.13425
927.59343,0.13449
929.52189,0.13771
931.45036,0.14233
933.37883,0.14535
935.30730,0.14852
937.23577,0.15698
939.16424,0.16626
941.09271,0.16466
943.02117,0.15440
944.94964,0.14392
946.87811,0.13443
948.80658,0.12710
950.73505,0.12716
952.66352,0.13290
954.59199,0.13610
956.52045,0.14105
958.44892,0.15034
960.37739,0.15619
962.30586,0.15721
964.23433,0.15045
966.16280,0.13661
968.09127,0.13042
970.01974,0.13661
971.94820,0.14653
973.87667,0.15296
975.80514,0.15160
977.73361,0.14838
979.66208,0.15097
981.59055,0.15735
983.51902,0.16251
985.44748,0.16380
987.37595,0.16138
989.30442,0.15477
991.23289,0.14355
993.16136,0.13620
995.08983,0.14195
997.01830,0.15070
998.94677,0.15447
1000.87523,0.16007
1002.80370,0.16474
1004.73217,0.16299
1006.66064,0.15824
1008.58911,0.15205
1010.51758,0.14485
1012.44605,0.14357
1014.37451,0.14912
1016.30298,0.15439
1018.23145,0.15881
1020.15992,0.16044
1022.08839,0.15686
1024.01686,0.15867
1025.94533,0.17212
1027.87380,0.18604
1029.80226,0.18533
1031.73073,0.16595
1033.65920,0.14454
1035.58767,0.13709
1037.51614,0.13797
1039.44461,0.13722
1041.37308,0.13888
1043.30154,0.15194
1045.23001,0.16902
1047.15848,0.17448
1049.08695,0.16665
1051.01542,0.15516
1052.94389,0.14692
1054.87236,0.14683
1056.80083,0.15659
1058.72929,0.16024
1060.65776,0.15095
1062.58623,0.14936
1064.51470,0.16376
1066.44317,0.17983
1068.37164,0.18913
1070.30011,0.19258
1072.22857,0.18659
1074.15704,0.17270
1076.08551,0.16691
1078.01398,0.17611
1079.94245,0.18484
1081.87092,0.17910
1083.79939,0.16665
1085.72786,0.16211
1087.65632,0.16501
1089.58479,0.16939
1091.51326,0.17379
1093.44173,0.17608
1095.37020,0.17621
1097.29867,0.17293
1099.22714,0.16684
1101.15560,0.16321
1103.08407,0.16008
1105.01254,0.15638
1106.94101,0.15604
1108.86948,0.15798
1110.79795,0.16029
1112.72642,0.16137
1114.65489,0.16350
1116.58335,0.17131
1118.51182,0.17716
1120.44029,0.17355
1122.36876,0.16639
1124.29723,0.15959
1126.22570,0.15341
1128.15417,0.15205
1130.08263,0.15218
1132.01110,0.14925
1133.93957,0.15240
1135.86804,0.16457
1137.79651,0.17257
1139.72498,0.17318
1141.65345,0.17511
1143.58191,0.17725
1145.51038,0.17605
1147.43885,0.17503
1149.36732,0.17433
1151.29579,0.17175
1153.22426,0.16847
1155.15273,0.16668
1157.08120,0.16777
1159.00966,0.17233
1160.93813,0.17759
1162.86660,0.18006
1164.79507,0.18024
1166.72354,0.17794
1168.65201,0.17214
1170.58048,0.16502
1172.50894,0.16122
1174.43741,0.16326
1176.36588,0.16705
1178.29435,0.16950
1180.22282,0.17420
1182.15129,0.18041
1184.07976,0.18170
1186.00823,0.17624
1187.93669,0.16768
1189.86516,0.16265
1191.79363,0.16295
1193.72210,0.16423
1195.65057,0.16421
1197.57904,0.16223
1199.50751,0.15941
1201.43597,0.15926
1203.36444,0.16438
1205.29291,0.17218
1207.22138,0.17762
1209.14985,0.17883
1211.07832,0.17631
1213.00679,0.17420
1214.93526,0.17550
1216.86372,0.17629
1218.79219,0.17209
1220.72066,0.16786
1222.64913,0.16900
1224.57760,0.17029
1226.50607,0.17163
1228.43454,0.17826
1230.36300,0.18469
1232.29147,0.18226
1234.21994,0.17380
1236.14841,0.16907
1238.07688,0.16992
1240.00535,0.17152
1241.93382,0.17167
1243.86229,0.17318
1245.79075,0.17750
1247.71922,0.18135
1249.64769,0.18054
1251.57616,0.17600
1253.50463,0.17545
1255.43310,0.17916
1257.36157,0.17933
1259.29003,0.17532
1261.21850,0.17239
1263.14697,0.17407
1265.07544,0.17891
1267.00391,0.18205
1268.93238,0.18373
1270.86085,0.18617
1272.78932,0.18482
1274.71778,0.17833
1276.64625,0.17259
1278.57472,0.17139
1280.50319,0.17296
1282.43166,0.17326
1284.36013,0.17297
1286.28860,0.17407
1288.21706,0.17760
1290.14553,0.18238
1292.07400,0.18243
1294.00247,0.18097
1295.93094,0.18397
1297.85941,0.18584
1299.78788,0.18212
1301.71634,0.17327
1303.64481,0.16299
1305.57328,0.16075
1307.50175,0.16976
1309.43022,0.18079
1311.35869,0.18725
1313.28716,0.19055
1315.21563,0.19202
1317.14409,0.19337
1319.07256,0.19387
1321.00103,0.19074
1322.92950,0.18709
1324.85797,0.18392
1326.78644,0.17708
1328.71491,0.16921
1330.64337,0.16743
1332.57184,0.17223
1334.50031,0.17925
1336.42878,0.18626
1338.35725,0.18842
1340.28572,0.17838
1342.21419,0.16719
1344.14266,0.16721
1346.07112,0.17370
1347.99959,0.18044
1349.92806,0.18242
1351.85653,0.18021
1353.78500,0.18241
1355.71347,0.18790
1357.64194,0.18869
1359.57040,0.18823
1361.49887,0.19351
1363.42734,0.19815
1365.35581,0.19538
1367.28428,0.19050
1369.21275,0.18696
1371.14122,0.18531
1373.06969,0.18435
1374.99815,0.18411
1376.92662,0.18489
1378.85509,0.18548
1380.78356,0.18762
1382.71203,0.19059
1384.64050,0.19234
1386.56897,0.19409
1388.49743,0.19343
1390.42590,0.18941
1392.35437,0.18589
1394.28284,0.18501
1396.21131,0.18911
1398.13978,0.19445
1400.06825,0.19590
1401.99672,0.19578
1403.92518,0.19628
1405.85365,0.19515
1407.78212,0.19168
1409.71059,0.18997
1411.63906,0.19070
1413.56753,0.19161
1415.49600,0.19425
1417.42446,0.20013
1419.35293,0.20340
1421.28140,0.19970
1423.20987,0.19629
1425.13834,0.19474
1427.06681,0.19456
1428.99528,0.19747
1430.92375,0.20035
1432.85221,0.20217
1434.78068,0.20577
1436.70915,0.20420
1438.63762,0.19497
1440.56609,0.19037
1442.49456,0.19123
1444.42303,0.19389
1446.35149,0.19776
1448.27996,0.20108
1450.20843,0.20179
1452.13690,0.20467
1454.06537,0.21681
1455.99384,0.23784
1457.92231,0.23461
1459.85077,0.20606
1461.77924,0.19408
1463.70771,0.19845
1465.63618,0.20428
1467.56465,0.20289
1469.49312,0.20515
1471.42159,0.21536
1473.35006,0.21985
1475.27852,0.20942
1477.20699,0.19912
1479.13546,0.19596
1481.06393,0.19713
1482.99240,0.19586
1484.92087,0.19265
1486.84934,0.19524
1488.77780,0.20467
1490.70627,0.20789
1492.63474,0.20528
1494.56321,0.20892
1496.49168,0.21657
1498.42015,0.21391
1500.34862,0.20340
1502.27709,0.19724
1504.20555,0.19886
1506.13402,0.20780
1508.06249,0.21128
1509.99096,0.20594
1511.91943,0.20528
1513.84790,0.21484
1515.77637,0.23044
1517.70483,0.23634
1519.63330,0.23151
1521.56177,0.22683
1523.49024,0.21989
1525.41871,0.21128
1527.34718,0.20516
1529.27565,0.20375
1531.20412,0.20601
1533.13258,0.21090
1535.06105,0.21646
1536.98952,0.22510
1538.91799,0.24541
1540.84646,0.26327
1542.77493,0.25059
1544.70340,0.22948
1546.63186,0.21105
1548.56033,0.20193
1550.48880,0.20329
1552.41727,0.21146
1554.34574,0.22148
1556.27421,0.23363
1558.20268,0.25359
1560.13115,0.24734
1562.05961,0.22431
1563.98808,0.21155
1565.91655,0.20684
1567.84502,0.20766
1569.77349,0.20593
1571.70196,0.20184
1573.63043,0.20610
1575.55889,0.21535
1577.48736,0.21427
1579.41583,0.20642
1581.34430,0.20076
1583.27277,0.19900
1585.20124,0.19991
1587.12971,0.19823
1589.05818,0.19467
1590.98664,0.19458
1592.91511,0.19730
1594.84358,0.19749
1596.77205,0.19420
1598.70052,0.19137
1600.62899,0.19276
1602.55746,0.19819
1604.48592,0.20228
1606.41439,0.20221
1608.34286,0.19873
1610.27133,0.19400
1612.19980,0.19255
1614.12827,0.19778
1616.05674,0.20913
1617.98521,0.21322
1619.91367,0.20947
1621.84214,0.21013
1623.77061,0.21187
1625.69908,0.21026
1627.62755,0.20889
1629.55602,0.20562
1631.48449,0.20354
1633.41295,0.21181
1635.34142,0.23025
1637.26989,0.23033
1639.19836,0.21665
1641.12683,0.21120
1643.05530,0.21470
1644.98377,0.22463
1646.91223,0.23701
1648.84070,0.24078
1650.76917,0.24584
1652.69764,0.25644
1654.62611,0.23850
1656.55458,0.21717
1658.48305,0.21314
1660.41152,0.21878
1662.33998,0.22120
1664.26845,0.21398
1666.19692,0.21067
1668.12539,0.21977
1670.05386,0.23423
1671.98233,0.23687
1673.91080,0.22981
1675.83926,0.21880
1677.76773,0.21155
1679.69620,0.21201
1681.62467,0.22119
1683.55314,0.23524
1685.48161,0.23296
1687.41008,0.22407
1689.33855,0.22069
1691.26701,0.21827
1693.19548,0.21966
1695.12395,0.22936
1697.05242,0.24000
1698.98089,0.24022
1700.90936,0.23052
1702.83783,0.22253
1704.76629,0.22140
1706.69476,0.22055
1708.62323,0.21507
1710.55170,0.20966
1712.48017,0.20959
1714.40864,0.21891
1716.33711,0.23709
1718.26558,0.23772
1720.19404,0.21846
1722.12251,0.20447
1724.05098,0.19752
1725.97945,0.19569
1727.90792,0.19937
1729.83639,0.20672
1731.76486,0.21378
1733.69332,0.21638
1735.62179,0.21198
1737.55026,0.21139
1739.47873,0.21711
1741.40720,0.21958
1743.33567,0.21724
1745.26414,0.21778
1747.19261,0.22011
1749.12107,0.21973
1751.04954,0.21559
1752.97801,0.21136
1754.90648,0.21047
1756.83495,0.21091
1758.76342,0.21018
1760.69189,0.21021
1762.62035,0.20843
1764.54882,0.20416
1766.47729,0.20462
1768.40576,0.21095
1770.33423,0.21863
1772.26270,0.22201
1774.19117,0.21679
1776.11964,0.21085
1778.04810,0.20890
1779.97657,0.20922
1781.90504,0.20992
1783.83351,0.21051
1785.76198,0.20899
1787.69045,0.20624
1789.61892,0.20759
1791.54738,0.21250
1793.47585,0.21060
1795.40432,0.20344
1797.33279,0.20185
1799.26126,0.20359
1801.18973,0.20176
1803.11820,0.20054
1805.04666,0.20194
1806.97513,0.20156
1808.90360,0.20114
1810.83207,0.20320
1812.76054,0.20447
1814.68901,0.20384
1816.61748,0.20105
1818.54595,0.19647
1820.47441,0.19592
1822.40288,0.20245
1824.33135,0.20954
1826.25982,0.21194
1828.18829,0.21464
1830.11676,0.21559
1832.04523,0.20946
1833.97369,0.20392
1835.90216,0.20316
1837.83063,0.20319
1839.75910,0.20173
1841.68757,0.20332
1843.61604,0.20874
1845.54451,0.20989
1847.47298,0.20628
1849.40144,0.20361
1851.32991,0.20243
1853.25838,0.20074
1855.18685,0.19782
1857.11532,0.19572
1859.04379,0.19590
1860.97226,0.19842
1862.90072,0.20298
1864.82919,0.20809
1866.75766,0.21212
1868.68613,0.21150
1870.61460,0.20558
1872.54307,0.20049
1874.47154,0.19756
1876.40001,0.19660
1878.32847,0.19776
1880.25694,0.19884
1882.18541,0.19933
1884.11388,0.19959
1886.04235,0.19868
1887.97082,0.19885
1889.89929,0.20223
1891.82775,0.20515
1893.75622,0.20468
1895.68469,0.20122
1897.61316,0.19739
1899.54163,0.19570
1901.47010,0.19593
1903.39857,0.19753
1905.32704,0.19884
1907.25550,0.19921
1909.18397,0.20087
1911.11244,0.20279
1913.04091,0.20248
1914.96938,0.20270
1916.89785,0.20646
1918.82632,0.20900
1920.75478,0.20632
1922.68325,0.20312
1924.61172,0.20194
1926.54019,0.20115
1928.46866,0.20020
1930.39713,0.19976
1932.32560,0.20043
1934.25407,0.20154
1936.18253,0.20264
1938.11100,0.20559
1940.03947,0.21001
1941.96794,0.21070
1943.89641,0.20498
1945.82488,0.19856
1947.75335,0.19632
1949.68181,0.19773
1951.61028,0.20098
1953.53875,0.20494
1955.46722,0.20801
1957.39569,0.20861
1959.32416,0.20574
1961.25263,0.20079
1963.18110,0.19884
1965.10956,0.20184
1967.03803,0.20440
1968.96650,0.20286
1970.89497,0.20133
1972.82344,0.20262
1974.75191,0.20371
1976.68038,0.20318
1978.60884,0.20322
1980.53731,0.20410
1982.46578,0.20544
1984.39425,0.20706
1986.32272,0.20805
1988.25119,0.20869
1990.17966,0.20804
1992.10812,0.20457
1994.03659,0.20066
1995.96506,0.19859
1997.89353,0.19834
1999.82200,0.19974
2001.75047,0.20121
2003.67894,0.20279
2005.60741,0.20525
2007.53587,0.20553
2009.46434,0.20302
2011.39281,0.20092
2013.32128,0.20089
2015.24975,0.20241
2017.17822,0.20373
2019.10669,0.20435
2021.03515,0.20502
2022.96362,0.20486
2024.89209,0.20304
2026.82056,0.20146
2028.74903,0.20216
2030.67750,0.20447
2032.60597,0.20511
2034.53444,0.20176
2036.46290,0.19820
2038.39137,0.19885
2040.31984,0.20106
2042.24831,0.20157
2044.17678,0.20144
2046.10525,0.20142
2048.03372,0.20201
2049.96218,0.20366
2051.89065,0.20374
2053.81912,0.20274
2055.74759,0.20313
2057.67606,0.20212
2059.60453,0.19930
2061.53300,0.19906
2063.46147,0.20160
2065.38993,0.20366
2067.31840,0.20418
2069.24687,0.20500
2071.17534,0.20684
2073.10381,0.20684
2075.03228,0.20384
2076.96075,0.20079
2078.88921,0.19932
2080.81768,0.19855
2082.74615,0.19835
2084.67462,0.20008
2086.60309,0.20344
2088.53156,0.20549
2090.46003,0.20495
2092.38850,0.20385
2094.31696,0.20404
2096.24543,0.20529
2098.17390,0.20632
2100.10237,0.20671
2102.03084,0.20711
2103.95931,0.20680
2105.88778,0.20495
2107.81624,0.20344
2109.74471,0.20488
2111.67318,0.20849
2113.60165,0.21091
2115.53012,0.21103
2117.45859,0.20963
2119.38706,0.20711
2121.31553,0.20465
2123.24399,0.20351
2125.17246,0.20392
2127.10093,0.20484
2129.02940,0.20431
2130.95787,0.20287
2132.88634,0.20267
2134.81481,0.20405
2136.74327,0.20631
2138.67174,0.20682
2140.60021,0.20440
2142.52868,0.20246
2144.45715,0.20293
2146.38562,0.20332
2148.31409,0.20120
2150.24255,0.19893
2152.17102,0.19915
2154.09949,0.20128
2156.02796,0.20479
2157.95643,0.20747
2159.88490,0.20784
2161.81337,0.20820
2163.74184,0.20902
2165.67030,0.20844
2167.59877,0.20638
2169.52724,0.20381
2171.45571,0.20213
2173.38418,0.20275
2175.31265,0.20488
2177.24112,0.20763
2179.16958,0.21081
2181.09805,0.21233
2183.02652,0.21169
2184.95499,0.21025
2186.88346,0.20780
2188.81193,0.20560
2190.74040,0.20577
2192.66887,0.20691
2194.59733,0.20648
2196.52580,0.20491
2198.45427,0.20385
2200.38274,0.20286
2202.31121,0.20189
2204.23968,0.20336
2206.16815,0.20672
2208.09661,0.20685
2210.02508,0.20367
2211.95355,0.20246
2213.88202,0.20379
2215.81049,0.20484
2217.73896,0.20492
2219.66743,0.20530
2221.59590,0.20611
2223.52436,0.20567
2225.45283,0.20453
2227.38130,0.20430
2229.30977,0.20470
2231.23824,0.20537
2233.16671,0.20600
2235.09518,0.20508
2237.02364,0.20285
2238.95211,0.20354
2240.88058,0.20731
2242.80905,0.20921
2244.73752,0.20829
2246.66599,0.20647
2248.59446,0.20489
2250.52293,0.20387
2252.45139,0.20319
2254.37986,0.20344
2256.30833,0.20534
2258.23680,0.20744
2260.16527,0.20628
2262.09374,0.20204
2264.02221,0.19945
2265.95067,0.20119
2267.87914,0.20511
2269.80761,0.20780
2271.73608,0.20955
2273.66455,0.21073
2275.59302,0.20884
2277.52149,0.20450
2279.44996,0.20172
2281.37842,0.20240
2283.30689,0.20369
2285.23536,0.20368
2287.16383,0.20518
2289.09230,0.20888
2291.02077,0.21242
2292.94924,0.21411
2294.87770,0.21268
2296.80617,0.20740
2298.73464,0.19950
2300.66311,0.19316
2302.59158,0.19194
2304.52005,0.19554
2306.44852,0.19971
2308.37699,0.20291
2310.30545,0.20620
2312.23392,0.20592
2314.16239,0.20393
2316.09086,0.20418
2318.01933,0.20379
2319.94780,0.20382
2321.87627,0.20107
2323.80473,0.19186
2325.73320,0.18836
2327.66167,0.19166
2329.59014,0.19250
2331.51861,0.19794
2333.44708,0.21331
2335.37555,0.22467
2337.30401,0.21958
2339.23248,0.20340
2341.16095,0.19226
2343.08942,0.19377
2345.01789,0.19578
2346.94636,0.19376
2348.87483,0.19528
2350.80330,0.19968
2352.73176,0.20650
2354.66023,0.21232
2356.58870,0.20702
2358.51717,0.20000
2360.44564,0.20347
2362.37411,0.20268
2364.30258,0.19637
2366.23104,0.20597
2368.15951,0.21531
2370.08798,0.20534
2372.01645,0.19283
2373.94492,0.19053
2375.87339,0.19608
2377.80186,0.20141
2379.73033,0.20441
2381.65879,0.20810
2383.58726,0.21142
2385.51573,0.21075
2387.44420,0.20668
2389.37267,0.20453
2391.30114,0.20518
2393.22961,0.20517
2395.15807,0.20428
2397.08654,0.20328
2399.01501,0.20210
2400.94348,0.20217
2402.87195,0.20459
2404.80042,0.20687
2406.72889,0.20710
2408.65736,0.20707
2410.58582,0.20779
2412.51429,0.20831
2414.44276,0.20774
2416.37123,0.20649
2418.29970,0.20444
2420.22817,0.20167
2422.15664,0.20151
2424.08510,0.20572
2426.01357,0.21084
2427.94204,0.21051
2429.87051,0.20450
2431.79898,0.20044
2433.72745,0.20036
2435.65592,0.20006
2437.58439,0.19953
2439.51285,0.20190
2441.44132,0.20541
2443.36979,0.20629
2445.29826,0.20652
2447.22673,0.20763
2449.15520,0.20766
2451.08367,0.20742
2453.01213,0.20867
2454.94060,0.20993
2456.86907,0.20863
2458.79754,0.20578
2460.72601,0.20395
2462.65448,0.20343
2464.58295,0.20439
2466.51142,0.20755
2468.43988,0.21129
2470.36835,0.21361
2472.29682,0.21400
2474.22529,0.21095
2476.15376,0.20623
2478.08223,0.20448
2480.01070,0.20486
2481.93916,0.20461
2483.86763,0.20438
2485.79610,0.20405
2487.72457,0.20372
2489.65304,0.20586
2491.58151,0.20857
2493.50998,0.20974
2495.43844,0.21203
2497.36691,0.21311
2499.29538,0.20973
2501.22385,0.20607
2503.15232,0.20563
2505.08079,0.20783
2507.00926,0.21086
2508.93773,0.21260
2510.86619,0.21255
2512.79466,0.21173
2514.72313,0.21085
2516.65160,0.20956
2518.58007,0.20906
2520.50854,0.21081
2522.43701,0.21263
2524.36547,0.21281
2526.29394,0.21185
2528.22241,0.21073
2530.15088,0.20964
2532.07935,0.20824
2534.00782,0.20874
2535.93629,0.21113
2537.86476,0.21093
2539.79322,0.20761
2541.72169,0.20575
2543.65016,0.20740
2545.57863,0.21073
2547.50710,0.21167
2549.43557,0.20799
2551.36404,0.20384
2553.29250,0.20350
2555.22097,0.20717
2557.14944,0.21233
2559.07791,0.21517
2561.00638,0.21477
2562.93485,0.21310
2564.86332,0.21191
2566.79179,0.21094
2568.72025,0.20948
2570.64872,0.20968
2572.57719,0.21233
2574.50566,0.21419
2576.43413,0.21354
2578.36260,0.21182
2580.29107,0.21075
2582.21953,0.20963
2584.14800,0.20713
2586.07647,0.20562
2588.00494,0.20716
2589.93341,0.20856
2591.86188,0.20672
2593.79035,0.20489
2595.71882,0.20736
2597.64728,0.21182
2599.57575,0.21443
2601.50422,0.21557
2603.43269,0.21642
2605.36116,0.21651
2607.28963,0.21616
2609.21810,0.21629
2611.14656,0.21448
2613.07503,0.21020
2615.00350,0.20922
2616.93197,0.21311
2618.86044,0.21704
2620.78891,0.21844
2622.71738,0.21768
2624.64585,0.21669
2626.57431,0.21634
2628.50278,0.21585
2630.43125,0.21598
2632.35972,0.21595
2634.28819,0.21527
2636.21666,0.21584
2638.14513,0.21543
2640.07359,0.21245
2642.00206,0.21095
2643.93053,0.21298
2645.85900,0.21529
2647.78747,0.21458
2649.71594,0.21281
2651.64441,0.21269
2653.57288,0.21103
2655.50134,0.20696
2657.42981,0.20569
2659.35828,0.20783
2661.28675,0.20975
2663.21522,0.21162
2665.14369,0.21495
2667.07216,0.21721
2669.00062,0.21681
2670.92909,0.21642
2672.85756,0.21617
2674.78603,0.21586
2676.71450,0.21618
2678.64297,0.21426
2680.57144,0.21085
2682.49990,0.20998
2684.42837,0.21053
2686.35684,0.20962
2688.28531,0.20904
2690.21378,0.21127
2692.14225,0.21451
2694.07072,0.21853
2695.99919,0.22278
2697.92765,0.22303
2699.85612,0.22001
2701.78459,0.21712
2703.71306,0.21532
2705.64153,0.21562
2707.57000,0.21604
2709.49847,0.21421
2711.42693,0.21301
2713.35540,0.21406
2715.28387,0.21477
2717.21234,0.21478
2719.14081,0.21644
2721.06928,0.21855
2722.99775,0.21819
2724.92622,0.21635
2726.85468,0.21490
2728.78315,0.21413
2730.71162,0.21347
2732.64009,0.21395
2734.56856,0.21680
2736.49703,0.21865
2738.42550,0.21754
2740.35396,0.21546
2742.28243,0.21515
2744.21090,0.21648
2746.13937,0.21596
2748.06784,0.21572
2749.99631,0.21917
2751.92478,0.22268
2753.85325,0.22380
2755.78171,0.22552
2757.71018,0.22844
2759.63865,0.22861
2761.56712,0.22559
2763.49559,0.22372
2765.42406,0.22518
2767.35253,0.22717
2769.28099,0.22602
2771.20946,0.22193
2773.13793,0.21814
2775.06640,0.21799
2776.99487,0.22322
2778.92334,0.23089
2780.85181,0.23508
2782.78028,0.23393
2784.70874,0.22918
2786.63721,0.22228
2788.56568,0.21654
2790.49415,0.21610
2792.42262,0.21999
2794.35109,0.22351
2796.27956,0.22487
2798.20802,0.22395
2800.13649,0.22195
2802.06496,0.22214
2803.99343,0.22439
2805.92190,0.22536
2807.85037,0.22480
2809.77884,0.22524
2811.70731,0.22696
2813.63577,0.22736
2815.56424,0.22485
2817.49271,0.22262
2819.42118,0.22474
2821.34965,0.22901
2823.27812,0.23220
2825.20659,0.23334
2827.13505,0.23112
2829.06352,0.22741
2830.99199,0.22476
2832.92046,0.22319
2834.84893,0.22267
2836.77740,0.22202
2838.70587,0.22115
2840.63433,0.22251
2842.56280,0.22483
2844.49127,0.22469
2846.41974,0.22495
2848.34821,0.22898
2850.27668,0.23199
2852.20515,0.23008
2854.13362,0.22820
2856.06208,0.22969
2857.99055,0.22925
2859.91902,0.22554
2861.84749,0.22436
2863.77596,0.22493
2865.70443,0.22471
2867.63290,0.22664
2869.56136,0.22902
2871.48983,0.22809
2873.41830,0.22671
2875.34677,0.22781
2877.27524,0.22922
2879.20371,0.22884
2881.13218,0.22753
2883.06065,0.22644
2884.98911,0.22627
2886.91758,0.22759
2888.84605,0.22852
2890.77452,0.22764
2892.70299,0.22583
2894.63146,0.22324
2896.55993,0.22259
2898.48839,0.22470
2900.41686,0.22580
2902.34533,0.22578
2904.27380,0.22508
2906.20227,0.22337
2908.13074,0.22286
2910.05921,0.22462
2911.98768,0.22874
2913.91614,0.23095
2915.84461,0.22587
2917.77308,0.21933
2919.70155,0.21596
2921.63002,0.21414
2923.55849,0.21940
2925.48696,0.22827
2927.41542,0.22912
2929.34389,0.22552
2931.27236,0.22564
2933.20083,0.22700
2935.12930,0.22487
2937.05777,0.22270
2938.98624,0.22348
2940.91471,0.22341
2942.84317,0.22147
2944.77164,0.21954
2946.70011,0.21850
2948.62858,0.22083
2950.55705,0.22484
2952.48552,0.22618
2954.41399,0.22569
2956.34245,0.22376
2958.27092,0.22390
2960.19939,0.22828
2962.12786,0.23129
2964.05633,0.23205
2965.98480,0.23072
2967.91327,0.22871
2969.84174,0.23031
2971.77020,0.23233
2973.69867,0.23178
2975.62714,0.23071
2977.55561,0.23006
2979.48408,0.23053
2981.41255,0.23301
2983.34102,0.23680
2985.26948,0.23990
2987.19795,0.23778
2989.12642,0.23115
2991.05489,0.22804
2992.98336,0.22847
2994.91183,0.22780
2996.84030,0.22766
2998.76877,0.23056
3000.69723,0.23529
3002.62570,0.23873
3004.55417,0.23930
3006.48264,0.23717
3008.41111,0.23292
3010.33958,0.22503
3012.26805,0.21049
3014.19651,0.19160
3016.12498,0.18148
3018.05345,0.19371
3019.98192,0.21705
3021.91039,0.23096
3023.83886,0.23671
3025.76733,0.23861
3027.69579,0.23528
3029.62426,0.23157
3031.55273,0.23142
3033.48120,0.23426
3035.40967,0.23537
3037.33814,0.23202
3039.26661,0.23092
3041.19508,0.23378
3043.12354,0.23464
3045.05201,0.23278
3046.98048,0.23045
3048.90895,0.22864
3050.83742,0.22571
3052.76589,0.22220
3054.69436,0.21960
3056.62282,0.21620
3058.55129,0.21685
3060.47976,0.22420
3062.40823,0.23068
3064.33670,0.23061
3066.26517,0.22667
3068.19364,0.22740
3070.12211,0.23462
3072.05057,0.24064
3073.97904,0.23937
3075.90751,0.23468
3077.83598,0.23191
3079.76445,0.22966
3081.69292,0.22867
3083.62139,0.22639
3085.54985,0.22086
3087.47832,0.22133
3089.40679,0.22882
3091.33526,0.23148
3093.26373,0.22587
3095.19220,0.22251
3097.12067,0.22711
3099.04914,0.23161
3100.97760,0.22822
3102.90607,0.22103
3104.83454,0.22115
3106.76301,0.22699
3108.69148,0.22844
3110.61995,0.22727
3112.54842,0.22709
3114.47688,0.22458
3116.40535,0.22202
3118.33382,0.22347
3120.26229,0.22522
3122.19076,0.22826
3124.11923,0.23723
3126.04770,0.24324
3127.97617,0.23941
3129.90463,0.23458
3131.83310,0.23358
3133.76157,0.23412
3135.69004,0.23637
3137.61851,0.23884
3139.54698,0.23956
3141.47545,0.23893
3143.40391,0.23690
3145.33238,0.23246
3147.26085,0.22780
3149.18932,0.22692
3151.11779,0.23074
3153.04626,0.23659
3154.97473,0.23890
3156.90320,0.23786
3158.83166,0.23883
3160.76013,0.24045
3162.68860,0.24028
3164.61707,0.24155
3166.54554,0.24389
3168.47401,0.24190
3170.40248,0.23781
3172.33094,0.23666
3174.25941,0.23688
3176.18788,0.23641
3178.11635,0.23781
3180.04482,0.24237
3181.97329,0.24442
3183.90176,0.24407
3185.83022,0.24305
3187.75869,0.23552
3189.68716,0.22663
3191.61563,0.22905
3193.54410,0.24136
3195.47257,0.24842
3197.40104,0.24427
3199.32951,0.24184
3201.25797,0.24696
3203.18644,0.25063
3205.11491,0.24988
3207.04338,0.24790
3208.97185,0.24467
3210.90032,0.24161
3212.82879,0.23912
3214.75725,0.23480
3216.68572,0.23032
3218.61419,0.22707
3220.54266,0.22566
3222.47113,0.22825
3224.39960,0.23420
3226.32807,0.24006
3228.25654,0.24135
3230.18500,0.23924
3232.11347,0.23814
3234.04194,0.23617
3235.97041,0.23285
3237.89888,0.23257
3239.82735,0.23469
3241.75582,0.23487
3243.68428,0.23433
3245.61275,0.23630
3247.54122,0.23774
3249.46969,0.23712
3251.39816,0.23802
3253.32663,0.24093
3255.25510,0.24203
3257.18357,0.23877
3259.11203,0.23454
3261.04050,0.23147
3262.96897,0.22842
3264.89744,0.22872
3266.82591,0.23230
3268.75438,0.23612
3270.68285,0.23944
3272.61131,0.23885
3274.53978,0.23641
3276.46825,0.23401
3278.39672,0.22743
3280.32519,0.22085
3282.25366,0.22055
3284.18213,0.22522
3286.11060,0.23133
3288.03906,0.23549
3289.96753,0.23658
3291.89600,0.23657
3293.82447,0.23592
3295.75294,0.23232
3297.68141,0.22640
3299.60988,0.22362
3301.53834,0.22597
3303.46681,0.22861
3305.39528,0.22922
3307.32375,0.23049
3309.25222,0.23178
3311.18069,0.23155
3313.10916,0.23420
3315.03763,0.23834
3316.96609,0.23568
3318.89456,0.23120
3320.82303,0.23385
3322.75150,0.23629
3324.67997,0.23194
3326.60844,0.22862
3328.53691,0.22989
3330.46537,0.23103
3332.39384,0.23302
3334.32231,0.23698
3336.25078,0.23802
3338.17925,0.23545
3340.10772,0.23574
3342.03619,0.23812
3343.96466,0.23627
3345.89312,0.23395
3347.82159,0.23622
3349.75006,0.23893
3351.67853,0.23846
3353.60700,0.23803
3355.53547,0.23889
3357.46394,0.23739
3359.39240,0.23298
3361.32087,0.23094
3363.24934,0.23499
3365.17781,0.23947
3367.10628,0.24187
3369.03475,0.24609
3370.96322,0.24865
3372.89168,0.24537
3374.82015,0.23985
3376.74862,0.23868
3378.67709,0.24329
3380.60556,0.24536
3382.53403,0.24069
3384.46250,0.23938
3386.39097,0.24326
3388.31943,0.23948
3390.24790,0.22907
3392.17637,0.22521
3394.10484,0.22870
3396.03331,0.23245
3397.96178,0.23589
3399.89025,0.23790
3401.81871,0.23609
3403.74718,0.23489
3405.67565,0.23841
3407.60412,0.24002
3409.53259,0.22984
3411.46106,0.21729
3413.38953,0.21765
3415.31800,0.22309
3417.24646,0.22392
3419.17493,0.22497
3421.10340,0.22698
3423.03187,0.22868
3424.96034,0.23150
3426.88881,0.23172
3428.81728,0.23023
3430.74574,0.23112
3432.67421,0.23107
3434.60268,0.22853
3436.53115,0.22715
3438.45962,0.22714
3440.38809,0.22545
3442.31656,0.22313
3444.24503,0.22373
3446.17349,0.22610
3448.10196,0.22708
3450.03043,0.22638
3451.95890,0.22309
3453.88737,0.21700
3455.81584,0.21342
3457.74431,0.21453
3459.67277,0.21541
3461.60124,0.21522
3463.52971,0.21738
3465.45818,0.21947
3467.38665,0.21888
3469.31512,0.21892
3471.24359,0.21936
3473.17206,0.21887
3475.10052,0.21978
3477.02899,0.21987
3478.95746,0.21575
3480.88593,0.21045
3482.81440,0.20999
3484.74287,0.21361
3486.67134,0.21528
3488.59980,0.21336
3490.52827,0.21054
3492.45674,0.20838
3494.38521,0.20623
3496.31368,0.20412
3498.24215,0.20209
3500.17062,0.19925
3502.09909,0.19749
3504.02755,0.20063
3505.95602,0.20619
3507.88449,0.20742
3509.81296,0.20362
3511.74143,0.19939
3513.66990,0.19748
3515.59837,0.19817
3517.52683,0.19916
3519.45530,0.19867
3521.38377,0.20006
3523.31224,0.20174
3525.24071,0.19969
3527.16918,0.19714
3529.09765,0.19286
3531.02611,0.18757
3532.95458,0.18812
3534.88305,0.19346
3536.81152,0.19768
3538.73999,0.19766
3540.66846,0.19412
3542.59693,0.19178
3544.52540,0.19424
3546.45386,0.19421
3548.38233,0.18763
3550.31080,0.18263
3552.23927,0.18077
3554.16774,0.17812
3556.09621,0.17600
3558.02468,0.17841
3559.95314,0.18415
3561.88161,0.18847
3563.81008,0.19219
3565.73855,0.19809
3567.66702,0.19668
3569.59549,0.18468
3571.52396,0.17596
3573.45243,0.17287
3575.38089,0.17166
3577.30936,0.17186
3579.23783,0.17458
3581.16630,0.17516
3583.09477,0.17294
3585.02324,0.17645
3586.95171,0.18371
3588.88017,0.18286
3590.80864,0.17689
3592.73711,0.17182
3594.66558,0.16991
3596.59405,0.17006
3598.52252,0.16669
3600.45099,0.16174
3602.37946,0.16064
3604.30792,0.16231
3606.23639,0.16743
3608.16486,0.17545
3610.09333,0.17723
3612.02180,0.17325
3613.95027,0.17292
3615.87874,0.17698
3617.80720,0.17812
3619.73567,0.17070
3621.66414,0.15938
3623.59261,0.15428
3625.52108,0.15757
3627.44955,0.16791
3629.37802,0.17756
3631.30649,0.17298
3633.23495,0.16247
3635.16342,0.15700
3637.09189,0.15866
3639.02036,0.15820
3640.94883,0.15345
3642.87730,0.15248
3644.80577,0.15848
3646.73423,0.17003
3648.66270,0.17710
3650.59117,0.16857
3652.51964,0.16309
3654.44811,0.16423
3656.37658,0.16277
3658.30505,0.15576
3660.23352,0.15104
3662.16198,0.15071
3664.09045,0.14987
3666.01892,0.14860
3667.94739,0.15490
3669.87586,0.16392
3671.80433,0.16231
3673.73280,0.16462
3675.66126,0.17040
3677.58973,0.16290
3679.51820,0.15333
3681.44667,0.14633
3683.37514,0.14078
3685.30361,0.14114
3687.23208,0.15241
3689.16055,0.16653
3691.08901,0.16194
3693.01748,0.15047
3694.94595,0.14710
3696.87442,0.14984
3698.80289,0.15501
3700.73136,0.15825
3702.65983,0.15385
3704.58829,0.14772
3706.51676,0.14926
3708.44523,0.15772
3710.37370,0.16835
3712.30217,0.17107
3714.23064,0.16107
3716.15911,0.14865
3718.08757,0.14203
3720.01604,0.14483
3721.94451,0.14855
3723.87298,0.14445
3725.80145,0.13886
3727.72992,0.13840
3729.65839,0.14254
3731.58686,0.15204
3733.51532,0.16618
3735.44379,0.17466
3737.37226,0.17231
3739.30073,0.16799
3741.22920,0.16814
3743.15767,0.17006
3745.08614,0.16312
3747.01460,0.15787
3748.94307,0.16402
3750.87154,0.16682
3752.80001,0.15519
3754.72848,0.14712
3756.65695,0.14921
3758.58542,0.15323
3760.51389,0.15040
3762.44235,0.14779
3764.37082,0.14945
3766.29929,0.14856
3768.22776,0.14266
3770.15623,0.13555
3772.08470,0.13061
3774.01317,0.13064
3775.94163,0.13609
3777.87010,0.14329
3779.79857,0.14541
3781.72704,0.14313
3783.65551,0.14115
3785.58398,0.13800
3787.51245,0.13600
3789.44092,0.13836
3791.36938,0.14004
3793.29785,0.13715
3795.22632,0.13486
3797.15479,0.14157
3799.08326,0.15294
3801.01173,0.15612
3802.94020,0.14967
3804.86866,0.14477
3806.79713,0.14097
3808.72560,0.13656
3810.65407,0.13483
3812.58254,0.13856
3814.51101,0.14810
3816.43948,0.15505
3818.36795,0.15294
3820.29641,0.14750
3822.22488,0.13970
3824.15335,0.13859
3826.08182,0.14515
3828.01029,0.14980
3829.93876,0.14920
3831.86723,0.14711
3833.79569,0.14356
3835.72416,0.13675
3837.65263,0.12920
3839.58110,0.13192
3841.50957,0.14372
3843.43804,0.14749
3845.36651,0.14077
3847.29498,0.13594
3849.22344,0.13913
3851.15191,0.15103
3853.08038,0.16214
3855.00885,0.14609
3856.93732,0.12775
3858.86579,0.12293
3860.79426,0.12531
3862.72272,0.12905
3864.65119,0.13533
3866.57966,0.14259
3868.50813,0.14754
3870.43660,0.14502
3872.36507,0.13612
3874.29354,0.13217
3876.22200,0.13227
3878.15047,0.13104
3880.07894,0.12992
3882.00741,0.13329
3883.93588,0.13616
3885.86435,0.13305
3887.79282,0.12935
3889.72129,0.12803
3891.64975,0.12700
3893.57822,0.12715
3895.50669,0.13012
3897.43516,0.13493
3899.36363,0.13619
3901.29210,0.13533
3903.22057,0.14179
3905.14903,0.14450
3907.07750,0.13558
3909.00597,0.12667
3910.93444,0.12524
3912.86291,0.13029
3914.79138,0.13469
3916.71985,0.13391
3918.64832,0.12870
3920.57678,0.12153
3922.50525,0.11473
3924.43372,0.11144
3926.36219,0.11599
3928.29066,0.12508
3930.21913,0.13172
3932.14760,0.13484
3934.07606,0.13651
3936.00453,0.13497
3937.93300,0.12939
3939.86147,0.12565
3941.78994,0.12513
3943.71841,0.12038
3945.64688,0.11447
3947.57535,0.11794
3949.50381,0.12864
3951.43228,0.13218
3953.36075,0.12519
3955.28922,0.12081
3957.21769,0.12413
3959.14616,0.12496
3961.07463,0.12195
3963.00309,0.12175
3964.93156,0.12253
3966.86003,0.12256
3968.78850,0.12296
3970.71697,0.12026
3972.64544,0.11672
3974.57391,0.11712
3976.50238,0.11504
3978.43084,0.10891
3980.35931,0.10836
3982.28778,0.11467
3984.21625,0.11803
3986.14472,0.11487
3988.07319,0.11050
3990.00166,0.10764
3991.93012,0.10613
3993.85859,0.10578
3995.78706,0.10635
3997.71553,0.10765
3999.64400,0.10935
4001.57247,0.11181
4003.50094,0.11415
4005.42941,0.11608
4007.35787,0.11706
4009.28634,0.11312
4011.21481,0.10793
4013.14328,0.11089
4015.07175,0.11980
4017.00022,0.12618
4018.92869,0.12527
4020.85715,0.11692
4022.78562,0.10843
4024.71409,0.10583
4026.64256,0.10773
4028.57103,0.10950
4030.49950,0.10656
4032.42797,0.10076
4034.35644,0.09816
4036.28490,0.09933
4038.21337,0.10258
4040.14184,0.10830
4042.07031,0.11214
4043.99878,0.10815
4045.92725,0.10168
4047.85572,0.10152
4049.78418,0.10571
4051.71265,0.10838
4053.64112,0.10785
4055.56959,0.10773
4057.49806,0.11013
4059.42653,0.10883
4061.35500,0.10277
4063.28346,0.10015
4065.21193,0.10220
4067.14040,0.10489
4069.06887,0.10593
4070.99734,0.10317
4072.92581,0.09900
4074.85428,0.09950
4076.78275,0.10548
4078.71121,0.10885
4080.63968,0.10353
4082.56815,0.09793
4084.49662,0.09757
4086.42509,0.09705
4088.35356,0.09836
4090.28203,0.10296
4092.21049,0.10493
4094.13896,0.10446
4096.06743,0.10490
4097.99590,0.10568
4099.92437,0.10630
4101.85284,0.10870
4103.78131,0.11258
4105.70978,0.11301
4107.63824,0.10697
4109.56671,0.10145
4111.49518,0.10615
4113.42365,0.11701
4115.35212,0.11994
4117.28059,0.11221
4119.20906,0.10325
4121.13752,0.09684
4123.06599,0.09298
4124.99446,0.09214
4126.92293,0.09179
4128.85140,0.09017
4130.77987,0.08655
4132.70834,0.08428
4134.63681,0.08576
4136.56527,0.08810
4138.49374,0.09250
4140.42221,0.09697
4142.35068,0.09451
4144.27915,0.08735
4146.20762,0.08297
4148.13609,0.08165
4150.06455,0.08177
4151.99302,0.08470
4153.92149,0.08704
4155.84996,0.08650
4157.77843,0.08758
4159.70690,0.09159
4161.63537,0.09352
4163.56384,0.09039
4165.49230,0.08573
4167.42077,0.08139
4169.34924,0.07694
4171.27771,0.07543
4173.20618,0.07891
4175.13465,0.08618
4177.06312,0.09087
4178.99158,0.08836
4180.92005,0.08358
4182.84852,0.08206
4184.77699,0.08431
4186.70546,0.08432
4188.63393,0.08269
4190.56240,0.08669
4192.49087,0.08999
4194.41933,0.08540
4196.34780,0.07863
4198.27627,0.07917
4200.20474,0.08537
4202.13321,0.08744
4204.06168,0.08781
4205.99015,0.09001
4207.91861,0.08673
4209.84708,0.07615
4211.77555,0.06747
4213.70402,0.06709
4215.63249,0.07171
4217.56096,0.07457
4219.48943,0.07597
4221.41789,0.07976
4223.34636,0.08145
4225.27483,0.07818
4227.20330,0.07718
4229.13177,0.08256
4231.06024,0.08789
4232.98871,0.08615
4234.91718,0.07967
4236.84564,0.07565
4238.77411,0.07419
4240.70258,0.06907
4242.63105,0.06436
4244.55952,0.06675
4246.48799,0.06976
4248.41646,0.06859
4250.34492,0.06700
4252.27339,0.06851
4254.20186,0.07036
4256.13033,0.06539
4258.05880,0.05883
4259.98727,0.06247
4261.91574,0.07095
4263.84421,0.07236
4265.77267,0.06702
4267.70114,0.06145
4269.62961,0.05956
4271.55808,0.06384
4273.48655,0.07222
4275.41502,0.07471
4277.34349,0.06961
4279.27195,0.06612
4281.20042,0.06527
4283.12889,0.06271
4285.05736,0.06176
4286.98583,0.06464
4288.91430,0.06508
4290.84277,0.06243
4292.77124,0.06241
4294.69970,0.06389
4296.62817,0.06167
4298.55664,0.05648
4300.48511,0.05217
4302.41358,0.04955
4304.34205,0.05065
4306.27052,0.05380
4308.19898,0.05483
4310.12745,0.05826
4312.05592,0.06371
4313.98439,0.06422
4315.91286,0.06153
4317.84133,0.05901
4319.76980,0.05593
4321.69827,0.05248
4323.62673,0.04995
4325.55520,0.05013
4327.48367,0.05587
4329.41214,0.06557
4331.34061,0.07046
4333.26908,0.06648
4335.19755,0.05841
4337.12601,0.05133
4339.05448,0.04882
4340.98295,0.04996
4342.91142,0.04996
4344.83989,0.04850
4346.76836,0.04600
4348.69683,0.04171
4350.62530,0.04293
4352.55376,0.05192
4354.48223,0.05701
4356.41070,0.05644
4358.33917,0.05818
4360.26764,0.05711
4362.19611,0.04635
4364.12458,0.03494
4366.05304,0.03104
4367.98151,0.03160
4369.90998,0.03482
4371.83845,0.03723
4373.76692,0.03849
4375.69539,0.04402
4377.62386,0.04906
4379.55232,0.04950
4381.48079,0.05165
4383.40926,0.05497
4385.33773,0.05212
4387.26620,0.04448
4389.19467,0.04163
4391.12314,0.04602
4393.05161,0.04902
4394.98007,0.04395
4396.90854,0.03463
4398.83701,0.03091
4400.76548,0.03360
4402.69395,0.03588
4404.62242,0.03593
4406.55089,0.03270
4408.47935,0.03023
4410.40782,0.03620
4412.33629,0.04277
4414.26476,0.03899
4416.19323,0.03007
4418.12170,0.02601
4420.05017,0.02927
4421.97864,0.03447
4423.90710,0.03647
4425.83557,0.03748
4427.76404,0.03980
4429.69251,0.04010
4431.62098,0.03617
4433.54945,0.03336
4435.47792,0.03397
4437.40638,0.03258
4439.33485,0.03075
4441.26332,0.03262
4443.19179,0.03611
4445.12026,0.03659
4447.04873,0.03164
4448.97720,0.02389
4450.90567,0.01708
4452.83413,0.01630
4454.76260,0.02219
4456.69107,0.02773
4458.61954,0.02667
4460.54801,0.01970
4462.47648,0.01540
4464.40495,0.01929
4466.33341,0.02798
4468.26188,0.03352
4470.19035,0.03221
4472.11882,0.02948
4474.04729,0.02804
4475.97576,0.02425
4477.90423,0.01927
4479.83270,0.01633
4481.76116,0.01456
4483.68963,0.01371
4485.61810,0.01296
4487.54657,0.01222
4489.47504,0.01608
4491.40351,0.02390
4493.33198,0.03025
4495.26044,0.03534
4497.18891,0.03665
4499.11738,0.02865
4501.04585,0.01867
4502.97432,0.01794
4504.90279,0.02305
4506.83126,0.02373
4508.75973,0.01908
4510.68819,0.01293
4512.61666,0.00734
4514.54513,0.00599
4516.47360,0.00992
4518.40207,0.01775
4520.33054,0.02498
4522.25901,0.02441
4524.18747,0.01685
4526.11594,0.01105
4528.04441,0.01340
4529.97288,0.01927
4531.90135,0.02318
4533.82982,0.02592
4535.75829,0.02277
4537.68676,0.01410
4539.61522,0.00954
4541.54369,0.00845
4543.47216,0.00483
4545.40063,0.00225
4547.32910,0.00548
4549.25757,0.00862
4551.18604,0.00414
4553.11450,-0.00415
4555.04297,-0.00660
4556.97144,0.00093
4558.89991,0.01501
4560.82838,0.02773
4562.75685,0.02941
4564.68532,0.01775
4566.61378,0.00707
4568.54225,0.00983
4570.47072,0.01883
4572.39919,0.01980
4574.32766,0.01068
4576.25613,0.00431
4578.18460,0.00551
4580.11307,0.00735
4582.04153,0.01067
4583.97000,0.01419
4585.89847,0.01271
4587.82694,0.00967
4589.75541,0.00623
4591.68388,0.00112
4593.61235,-0.00183
4595.54081,0.00290
4597.46928,0.01172
4599.39775,0.01133
4601.32622,0.00549
4603.25469,0.00410
4605.18316,0.00178
4607.11163,0.00002
4609.04010,0.00388
4610.96856,0.00909
4612.89703,0.01041
4614.82550,0.00867
4616.75397,0.01019
4618.68244,0.01330
4620.61091,0.01452
4622.53938,0.01935
4624.46784,0.02404
4626.39631,0.02182
4628.32478,0.01602
4630.25325,0.00467
4632.18172,-0.01115
4634.11019,-0.02094
4636.03866,-0.02018
4637.96713,-0.01093
4639.89559,-0.00008
4641.82406,0.00504
4643.75253,0.00110
4645.68100,-0.00764
4647.60947,-0.00890
4649.53794,0.00080
4651.46641,0.01312
4653.39487,0.02113
4655.32334,0.01899
4657.25181,0.01156
4659.18028,0.00858
4661.10875,0.00234
4663.03722,-0.00271
4664.96569,0.00718
4666.89416,0.01652
4668.82262,0.01346
4670.75109,0.00911
4672.67956,0.00859
4674.60803,0.00291
4676.53650,-0.00989
4678.46497,-0.01125
4680.39344,0.00138
4682.32190,0.00784
4684.25037,0.00840
4686.17884,0.01429
4688.10731,0.01868
4690.03578,0.01207
4691.96425,0.00341
4693.89272,0.00235
4695.82119,0.00315
4697.74965,0.00411
4699.67812,0.00478
4701.60659,-0.00168
4703.53506,-0.00755
4705.46353,-0.00221
4707.39200,0.00366
4709.32047,0.00371
4711.24893,0.00928
4713.17740,0.02287
4715.10587,0.03166
4717.03434,0.02545
4718.96281,0.01259
4720.89128,0.00481
4722.81975,0.00004
4724.74821,-0.00226
4726.67668,0.00416
4728.60515,0.01805
4730.53362,0.02298
4732.46209,0.01461
4734.39056,0.01082
4736.31903,0.01313
4738.24750,0.01209
4740.17596,0.00788
4742.10443,0.00417
4744.03290,0.00747
4745.96137,0.01164
4747.88984,0.00364
4749.81831,-0.00516
4751.74678,0.00022
4753.67524,0.01119
4755.60371,0.01798
4757.53218,0.01389
4759.46065,0.00156
4761.38912,-0.00316
4763.31759,-0.00216
4765.24606,-0.00449
4767.17453,-0.00568
4769.10299,-0.00471
4771.03146,-0.00202
4772.95993,0.00440
4774.88840,0.00868
4776.81687,0.00693
4778.74534,0.00677
4780.67381,0.01196
4782.60227,0.01674
4784.53074,0.01987
4786.45921,0.02347
4788.38768,0.01985
4790.31615,0.01030
4792.24462,0.00474
4794.17309,0.00121
4796.10156,-0.00558
4798.03002,-0.00758
4799.95849,0.00107
4801.88696,0.01277
4803.81543,0.02080
4805.74390,0.01920
4807.67237,0.00465
4809.60084,-0.01106
4811.52930,-0.01306
4813.45777,-0.00539
4815.38624,-0.00278
4817.31471,-0.00568
4819.24318,-0.00529
4821.17165,-0.00337
4823.10012,-0.00051
4825.02859,0.00577
4826.95705,0.00877
4828.88552,0.00743
4830.81399,0.00799
4832.74246,0.00833
4834.67093,0.00074
4836.59940,-0.00917
4838.52787,-0.00979
4840.45633,-0.00529
4842.38480,0.00158
4844.31327,0.01377
4846.24174,0.02003
4848.17021,0.01000
4850.09868,-0.00511
4852.02715,-0.00540
4853.95562,0.00341
4855.88408,0.00934
4857.81255,0.01397
4859.74102,0.00928
4861.66949,-0.00561
4863.59796,-0.01450
4865.52643,-0.01455
4867.45490,-0.01092
4869.38336,-0.00598
4871.31183,0.00196
4873.24030,0.01199
4875.16877,0.01487
4877.09724,0.01260
4879.02571,0.01359
4880.95418,0.01709
4882.88265,0.01589
4884.81111,0.00874
4886.73958,0.00710
4888.66805,0.01368
4890.59652,0.01639
4892.52499,0.00564
4894.45346,-0.00554
4896.38193,-0.00343
4898.31039,-0.00595
4900.23886,-0.01733
4902.16733,-0.01637
4904.09580,-0.00832
4906.02427,-0.01033
4907.95274,-0.01184
4909.88121,-0.00101
4911.80967,0.01271
4913.73814,0.01848
4915.66661,0.01439
4917.59508,0.00448
4919.52355,-0.00062
4921.45202,0.01021
4923.38049,0.02722
4925.30896,0.03013
4927.23742,0.02341
4929.16589,0.01730
4931.09436,0.01055
4933.02283,0.00793
4934.95130,0.00695
4936.87977,-0.00125
4938.80824,-0.00693
4940.73670,-0.00243
4942.66517,0.00025
4944.59364,-0.00249
4946.52211,-0.00154
4948.45058,0.00499
4950.37905,0.01442
4952.30752,0.02123
4954.23599,0.01674
4956.16445,0.00252
4958.09292,-0.00867
4960.02139,-0.00420
4961.94986,0.00584
4963.87833,0.00000
4965.80680,-0.01168
4967.73527,-0.01168
4969.66373,-0.00926
4971.59220,-0.01217
4973.52067,-0.01008
4975.44914,0.00341
4977.37761,0.01851
4979.30608,0.02229
4981.23455,0.01550
4983.16302,0.01126
4985.09148,0.01364
4987.01995,0.01314
4988.94842,0.00455
4990.87689,-0.00034
4992.80536,0.01060
4994.73383,0.02356
4996.66230,0.02303
4998.59076,0.02139
5000.51923,0.02496
5002.44770,0.02130
5004.37617,0.01078
5006.30464,0.00376
5008.23311,-0.00023
5010.16158,-0.00362
5012.09005,-0.00277
5014.01851,0.00140
5015.94698,0.00472
5017.87545,0.00111
5019.80392,-0.00536
5021.73239,0.00690
5023.66086,0.03318
5025.58933,0.04654
5027.51779,0.04380
5029.44626,0.03634
5031.37473,0.02542
5033.30320,0.00652
5035.23167,-0.01142
5037.16014,-0.00833
5039.08861,0.01209
5041.01708,0.02070
5042.94554,0.01302
5044.87401,0.00619
5046.80248,0.01412
5048.73095,0.03690
5050.65942,0.04807
5052.58789,0.03801
5054.51636,0.02542
5056.44482,0.02190
5058.37329,0.02424
5060.30176,0.02268
5062.23023,0.01465
5064.15870,0.00787
5066.08717,0.01618
5068.01564,0.03257
5069.94410,0.03191
5071.87257,0.01368
5073.80104,-0.00475
5075.72951,-0.00456
5077.65798,0.01751
5079.58645,0.03061
5081.51492,0.02489
5083.44339,0.03171
5085.37185,0.04654
5087.30032,0.04074
5089.22879,0.02877
5091.15726,0.03268
5093.08573,0.04265
5095.01420,0.04393
5096.94267,0.03418
5098.87113,0.02613
5100.79960,0.02130
5102.72807,0.00673
5104.65654,-0.00329
5106.58501,-0.00109
5108.51348,-0.00798
5110.44195,-0.01486
5112.37042,0.00290
5114.29888,0.03044
5116.22735,0.04026
5118.15582,0.02921
5120.08429,0.01829
5122.01276,0.02688
5123.94123,0.04202
5125.86970,0.05063
5127.79816,0.05630
5129.72663,0.04915
5131.65510,0.03488
5133.58357,0.04033
5135.51204,0.05581
5137.44051,0.04875
5139.36898,0.02381
5141.29745,0.00951
5143.22591,0.00844
5145.15438,0.00619
5147.08285,0.00104
5149.01132,-0.00125
5150.93979,0.00027
5152.86826,0.00639
5154.79673,0.02590
5156.72519,0.05119
5158.65366,0.05167
5160.58213,0.03829
5162.51060,0.04876
5164.43907,0.06745
5166.36754,0.05960
5168.29601,0.03772
5170.22448,0.02295
5172.15294,0.02234
5174.08141,0.03677
5176.00988,0.05774
5177.93835,0.07102
5179.86682,0.06359
5181.79529,0.05145
5183.72376,0.05784
5185.65222,0.06783
5187.58069,0.06267
5189.50916,0.05050
5191.43763,0.04729
5193.36610,0.05064
5195.29457,0.05187
5197.22304,0.05724
5199.15151,0.05951
5201.07997,0.05216
5203.00844,0.05160
5204.93691,0.05643
5206.86538,0.04296
5208.79385,0.02770
5210.72232,0.03142
5212.65079,0.03221
5214.57925,0.03349
5216.50772,0.04729
5218.43619,0.05870
5220.36466,0.06807
5222.29313,0.08927
5224.22160,0.10082
5226.15007,0.07374
5228.07854,0.04418
5230.00700,0.04183
5231.93547,0.03783
5233.86394,0.02265
5235.79241,0.01823
5237.72088,0.02657
5239.64935,0.03460
5241.57782,0.04014
5243.50628,0.03607
5245.43475,0.01691
5247.36322,0.00183
5249.29169,0.01490
5251.22016,0.03664
5253.14863,0.02545
5255.07710,0.00122
5257.00556,0.01124
5258.93403,0.04101
5260.86250,0.05602
5262.79097,0.06277
5264.71944,0.07474
5266.64791,0.08150
5268.57638,0.07762
5270.50485,0.06489
5272.43331,0.05602
5274.36178,0.05770
5276.29025,0.05802
5278.21872,0.05335
5280.14719,0.05888
5282.07566,0.08259
5284.00413,0.09708
5285.93259,0.08213
5287.86106,0.07108
5289.78953,0.07790
5291.71800,0.06938
5293.64647,0.04969
5295.57494,0.04245
5297.50341,0.04662
5299.43188,0.06198
5301.36034,0.07897
5303.28881,0.08007
5305.21728,0.06838
5307.14575,0.05905
5309.07422,0.06421
5311.00269,0.07361
5312.93116,0.06383
5314.85962,0.04569
5316.78809,0.03487
5318.71656,0.02252
5320.64503,0.02443
5322.57350,0.04919
5324.50197,0.07251
5326.43044,0.08536
5328.35891,0.08580
5330.28737,0.06640
5332.21584,0.04652
5334.14431,0.04324
5336.07278,0.03422
5338.00125,0.02192
5339.92972,0.03415
5341.85819,0.05030
5343.78665,0.05085
5345.71512,0.04445
5347.64359,0.03816
5349.57206,0.03669
5351.50053,0.05225
5353.42900,0.07961
5355.35747,0.08715
5357.28594,0.08010
5359.21440,0.08372
5361.14287,0.08804
5363.07134,0.07950
5364.99981,0.06664
5366.92828,0.06030
5368.85675,0.06677
5370.78522,0.09142
5372.71368,0.12964
5374.64215,0.15665
5376.57062,0.14950
5378.49909,0.12194
5380.42756,0.09514
5382.35603,0.07821
5384.28450,0.08088
5386.21297,0.08780
5388.14143,0.07758
5390.06990,0.06936
5391.99837,0.07714
5393.92684,0.09227
5395.85531,0.10585
5397.78378,0.11762
5399.71225,0.12726
5401.64071,0.12189
5403.56918,0.09547
5405.49765,0.07346
5407.42612,0.06240
5409.35459,0.04228
5411.28306,0.03017
5413.21153,0.04308
5415.13999,0.05006
5417.06846,0.04266
5418.99693,0.03868
5420.92540,0.03168
5422.85387,0.01846
5424.78234,0.01968
5426.71081,0.03128
5428.63928,0.03444
5430.56774,0.03747
5432.49621,0.05399
5434.42468,0.06404
5436.35315,0.04669
5438.28162,0.03440
5440.21009,0.05191
5442.13856,0.08942
5444.06702,0.12080
5445.99549,0.11487
5447.92396,0.07781
5449.85243,0.06204
5451.78090,0.07592
5453.70937,0.06982
5455.63784,0.04320
5457.56631,0.05264
5459.49477,0.08748
5461.42324,0.09910
5463.35171,0.09331
5465.28018,0.08821
5467.20865,0.08817
5469.13712,0.08150
5471.06559,0.06974
5472.99405,0.08079
5474.92252,0.10661
5476.85099,0.12243
5478.77946,0.12950
5480.70793,0.12003
5482.63640,0.10017
5484.56487,0.09139
5486.49334,0.08828
5488.42180,0.08164
5490.35027,0.07265
5492.27874,0.05958
5494.20721,0.05127
5496.13568,0.05554
5498.06415,0.05973
5499.99262,0.06136
5501.92108,0.07156
5503.84955,0.07346
5505.77802,0.05670
5507.70649,0.04928
5509.63496,0.05184
5511.56343,0.04438
5513.49190,0.03915
5515.42037,0.04249
5517.34883,0.04215
5519.27730,0.03933
5521.20577,0.04362
5523.13424,0.05793
5525.06271,0.07358
5526.99118,0.08611
5528.91965,0.09392
5530.84811,0.08172
5532.77658,0.05658
5534.70505,0.05275
5536.63352,0.07362
5538.56199,0.08068
5540.49046,0.06941
5542.41893,0.07042
5544.34740,0.07738
5546.27586,0.07975
5548.20433,0.07985
5550.13280,0.06584
5552.06127,0.04814
5553.98974,0.05505
5555.91821,0.07195
5557.84668,0.05937
5559.77514,0.03296
5561.70361,0.03608
5563.63208,0.07128
5565.56055,0.10022
5567.48902,0.09775
5569.41749,0.08580
5571.34596,0.08857
5573.27443,0.10104
5575.20289,0.10941
5577.13136,0.10822
5579.05983,0.09607
5580.98830,0.08036
5582.91677,0.07924
5584.84524,0.08989
5586.77371,0.08706
5588.70217,0.06312
5590.63064,0.04379
5592.55911,0.05185
5594.48758,0.07511
5596.41605,0.09672
5598.34452,0.11521
5600.27299,0.10935
5602.20145,0.07013
5604.12992,0.03008
5606.05839,0.02828
5607.98686,0.07349
5609.91533,0.11517
5611.84380,0.11552
5613.77227,0.10435
5615.70074,0.10994
5617.62920,0.11442
5619.55767,0.10850
5621.48614,0.10728
5623.41461,0.10712
5625.34308,0.10378
5627.27155,0.10423
5629.20002,0.11357
5631.12848,0.12471
5633.05695,0.13354
5634.98542,0.13935
5636.91389,0.12181
5638.84236,0.09151
5640.77083,0.07829
5642.69930,0.08109
5644.62777,0.09424
5646.55623,0.11180
5648.48470,0.12627
5650.41317,0.13731
5652.34164,0.13708
5654.27011,0.11934
5656.19858,0.09282
5658.12705,0.07338
5660.05551,0.07215
5661.98398,0.07663
5663.91245,0.07365
5665.84092,0.07899
5667.76939,0.09563
5669.69786,0.09921
5671.62633,0.09548
5673.55480,0.10357
5675.48326,0.08803
5677.41173,0.04374
5679.34020,0.03080
5681.26867,0.04381
5683.19714,0.04107
5685.12561,0.03121
5687.05408,0.03738
5688.98254,0.06402
5690.91101,0.09265
5692.83948,0.09622
5694.76795,0.08079
5696.69642,0.07132
5698.62489,0.06703
5700.55336,0.05076
5702.48183,0.02663
5704.41029,0.03702
5706.33876,0.08904
5708.26723,0.12502
5710.19570,0.13123
5712.12417,0.14044
5714.05264,0.15099
5715.98111,0.14698
5717.90957,0.12750
5719.83804,0.09988
5721.76651,0.08125
5723.69498,0.09009
5725.62345,0.11630
5727.55192,0.13351
5729.48039,0.13749
5731.40886,0.14178
5733.33732,0.15536
5735.26579,0.16314
5737.19426,0.14736
5739.12273,0.12148
5741.05120,0.10206
5742.97967,0.09378
5744.90814,0.08981
5746.83660,0.08391
5748.76507,0.08216
5750.69354,0.08312
5752.62201,0.07814
5754.55048,0.08071
5756.47895,0.09728
5758.40742,0.09556
5760.33588,0.05991
5762.26435,0.03148
5764.19282,0.03794
5766.12129,0.04723
5768.04976,0.03544
5769.97823,0.01721
5771.90670,0.02401
5773.83517,0.06872
5775.76363,0.12279
5777.69210,0.14475
5779.62057,0.13696
5781.54904,0.13648
5783.47751,0.12944
5785.40598,0.09026
5787.33445,0.05108
5789.26291,0.03607
5791.19138,0.03430
5793.11985,0.05179
5795.04832,0.09040
5796.97679,0.11598
5798.90526,0.10393
5800.83373,0.08786
5802.76220,0.10306
5804.69066,0.11420
5806.61913,0.09361
5808.54760,0.08273
5810.47607,0.10328
5812.40454,0.12411
5814.33301,0.11401
5816.26148,0.08971
5818.18994,0.09527
5820.11841,0.11882
5822.04688,0.10525
5823.97535,0.08622
5825.90382,0.09170
5827.83229,0.08637
5829.76076,0.06915
5831.68923,0.05503
5833.61769,0.05172
5835.54616,0.04342
5837.47463,0.01764
5839.40310,0.01731
5841.33157,0.05876
5843.26004,0.10159
5845.18851,0.10912
5847.11697,0.09706
5849.04544,0.10298
5850.97391,0.10486
5852.90238,0.08060
5854.83085,0.05597
5856.75932,0.04806
5858.68779,0.06926
5860.61626,0.08987
5862.54472,0.06396
5864.47319,0.05010
5866.40166,0.09779
5868.33013,0.13831
5870.25860,0.13073
5872.18707,0.09927
5874.11554,0.06976
5876.04400,0.06998
5877.97247,0.08414
5879.90094,0.08671
5881.82941,0.09940
5883.75788,0.11238
5885.68635,0.10141
5887.61482,0.08235
5889.54329,0.06777
5891.47175,0.05348
5893.40022,0.06101
5895.32869,0.09310
5897.25716,0.11023
5899.18563,0.11843
5901.11410,0.13873
5903.04257,0.16393
5904.97103,0.18664
5906.89950,0.17425
5908.82797,0.12763
5910.75644,0.10472
5912.68491,0.11143
5914.61338,0.11610
5916.54185,0.09813
5918.47032,0.05808
5920.39878,0.05033
5922.32725,0.07792
5924.25572,0.06896
5926.18419,0.04661
5928.11266,0.06078
5930.04113,0.06057
5931.96960,0.02631
5933.89806,0.01257
5935.82653,0.03432
5937.75500,0.04446
5939.68347,0.03884
5941.61194,0.04993
5943.54041,0.06667
5945.46888,0.09059
5947.39734,0.14313
5949.32581,0.17607
5951.25428,0.15834
5953.18275,0.14837
5955.11122,0.16613
5957.03969,0.18607
5958.96816,0.17574
5960.89663,0.11194
5962.82509,0.04957
5964.75356,0.03735
5966.68203,0.05515
5968.61050,0.07571
5970.53897,0.09281
5972.46744,0.10379
5974.39591,0.10011
5976.32437,0.08759
5978.25284,0.08678
5980.18131,0.10205
5982.10978,0.11422
5984.03825,0.10698
5985.96672,0.07834
5987.89519,0.03862
5989.82366,0.02752
5991.75212,0.06845
5993.68059,0.11789
5995.60906,0.14405
5997.53753,0.15528
5999.46600,0.14768
6001.39447,0.13534
6003.32294,0.12211
6005.25140,0.08775
6007.17987,0.05533
6009.10834,0.05356
6011.03681,0.07437
6012.96528,0.09055
6014.89375,0.09416
6016.82222,0.10596
6018.75069,0.12178
6020.67915,0.12636
6022.60762,0.13603
6024.53609,0.13869
6026.46456,0.11622
6028.39303,0.09348
6030.32150,0.07588
6032.24997,0.05412
6034.17843,0.04920
6036.10690,0.06465
6038.03537,0.08665
6039.96384,0.10614
6041.89231,0.10063
6043.82078,0.07737
6045.74925,0.06315
6047.67772,0.04195
6049.60618,0.02016
6051.53465,0.02346
6053.46312,0.03327
6055.39159,0.05520
6057.32006,0.09737
6059.24853,0.11027
6061.17700,0.08990
6063.10546,0.09281
6065.03393,0.11906
6066.96240,0.12595
6068.89087,0.10658
6070.81934,0.07476
6072.74781,0.04881
6074.67628,0.05741
6076.60475,0.08453
6078.53321,0.07584
6080.46168,0.04696
6082.39015,0.05144
6084.31862,0.08530
6086.24709,0.10009
6088.17556,0.08952
6090.10403,0.09444
6092.03249,0.10273
6093.96096,0.09988
6095.88943,0.11821
6097.81790,0.14574
6099.74637,0.15541
6101.67484,0.15389
6103.60331,0.11694
6105.53177,0.04532
6107.46024,0.02066
6109.38871,0.06580
6111.31718,0.08434
6113.24565,0.05544
6115.17412,0.05305
6117.10259,0.06691
6119.03106,0.04205
6120.95952,0.01225
6122.88799,0.01850
6124.81646,0.03289
6126.74493,0.04404
6128.67340,0.06840
6130.60187,0.07487
6132.53034,0.05452
6134.45880,0.05534
6136.38727,0.06626
6138.31574,0.05087
6140.24421,0.04092
6142.17268,0.04959
6144.10115,0.03631
6146.02962,0.01496
6147.95809,0.02328
6149.88655,0.05372
6151.81502,0.06937
6153.74349,0.06952
6155.67196,0.07343
6157.60043,0.06013
6159.52890,0.02353
6161.45737,0.00574
6163.38583,0.04265
6165.31430,0.09277
6167.24277,0.10327
6169.17124,0.09661
6171.09971,0.10993
6173.02818,0.13377
6174.95665,0.12604
6176.88512,0.08749
6178.81358,0.06539
6180.74205,0.08364
6182.67052,0.09114
6184.59899,0.06144
6186.52746,0.06468
6188.45593,0.12373
6190.38440,0.16653
6192.31286,0.14973
6194.24133,0.09417
6196.16980,0.05673
6198.09827,0.07510
6200.02674,0.11986
6201.95521,0.14196
6203.88368,0.14599
6205.81215,0.14281
6207.74061,0.12386
6209.66908,0.10612
6211.59755,0.12518
6213.52602,0.16172
6215.45449,0.17217
6217.38296,0.16189
6219.31143,0.13461
6221.23989,0.10229
6223.16836,0.09507
6225.09683,0.10176
6227.02530,0.10237
6228.95377,0.11089
6230.88224,0.12780
6232.81071,0.10143
6234.73918,0.04996
6236.66764,0.04858
6238.59611,0.08554
6240.52458,0.12742
6242.45305,0.14666
6244.38152,0.11156
6246.30999,0.06299
6248.23846,0.07311
6250.16692,0.12944
6252.09539,0.13947
6254.02386,0.06847
6255.95233,-0.02158
6257.88080,-0.05507
6259.80927,-0.00080
6261.73774,0.07971
6263.66621,0.10170
6265.59467,0.07125
6267.52314,0.03167
6269.45161,0.00796
6271.38008,0.01351
6273.30855,0.02940
6275.23702,0.04841
6277.16549,0.07727
6279.09395,0.11789
6281.02242,0.18269
6282.95089,0.23277
6284.87936,0.20708
6286.80783,0.14820
6288.73630,0.12850
6290.66477,0.13678
6292.59323,0.12484
6294.52170,0.08457
6296.45017,0.04146
6298.37864,0.03381
6300.30711,0.08947
6302.23558,0.19081
6304.16405,0.26631
6306.09252,0.26163
6308.02098,0.19779
6309.94945,0.14578
6311.87792,0.11764
6313.80639,0.09436
6315.73486,0.09613
6317.66333,0.11881
6319.59180,0.12744
6321.52026,0.11839
6323.44873,0.10131
6325.37720,0.07597
6327.30567,0.05098
6329.23414,0.03007
6331.16261,0.03924
6333.09108,0.09839
6335.01955,0.13095
6336.94801,0.09957
6338.87648,0.07912
6340.80495,0.08037
6342.73342,0.05895
6344.66189,0.06319
6346.59036,0.11288
6348.51883,0.10170
6350.44729,0.03535
6352.37576,0.04458
6354.30423,0.12359
6356.23270,0.17199
6358.16117,0.15839
6360.08964,0.13169
6362.01811,0.12644
6363.94658,0.12294
6365.87504,0.10366
6367.80351,0.09014
6369.73198,0.10837
6371.66045,0.13744
6373.58892,0.14569
6375.51739,0.12446
6377.44586,0.07887
6379.37432,0.04902
6381.30279,0.05570
6383.23126,0.04538
6385.15973,0.00708
6387.08820,0.00597
6389.01667,0.03226
6390.94514,0.04341
6392.87361,0.04689
6394.80207,0.07093
6396.73054,0.13264
6398.65901,0.22269
6400.58748,0.27573
6402.51595,0.24004
6404.44442,0.14118
6406.37289,0.04331
6408.30135,0.00416
6410.22982,0.01377
6412.15829,0.06381
6414.08676,0.14268
6416.01523,0.16313
6417.94370,0.08648
6419.87217,0.02837
6421.80064,0.05935
6423.72910,0.09218
6425.65757,0.05504
6427.58604,-0.00097
6429.51451,0.00158
6431.44298,0.05793
6433.37145,0.11641
6435.29992,0.13677
6437.22838,0.12218
6439.15685,0.11048
6441.08532,0.10604
6443.01379,0.10802
6444.94226,0.12361
6446.87073,0.12356
6448.79920,0.10990
6450.72766,0.10144
6452.65613,0.05945
6454.58460,-0.02922
6456.51307,-0.09838
6458.44154,-0.09695
6460.37001,-0.04986
6462.29848,0.01603
6464.22695,0.06444
6466.15541,0.07986
6468.08388,0.10163
6470.01235,0.12145
6471.94082,0.12309
6473.86929,0.14560
6475.79776,0.16339
6477.72623,0.14245
6479.65469,0.14342
6481.58316,0.18193
6483.51163,0.18714
6485.44010,0.13705
6487.36857,0.07537
6489.29704,0.05718
6491.22551,0.07915
6493.15398,0.09658
6495.08244,0.10972
6497.01091,0.12738
6498.93938,0.13039
6500.86785,0.10633
6502.79632,0.07417
6504.72479,0.04749
6506.65326,0.03720
6508.58172,0.05808
6510.51019,0.08363
6512.43866,0.08703
6514.36713,0.08803
6516.29560,0.10215
6518.22407,0.09831
6520.15254,0.06848
6522.08101,0.04164
6524.00947,0.03853
6525.93794,0.06777
6527.86641,0.07616
6529.79488,0.02351
6531.72335,-0.01248
6533.65182,0.01507
6535.58029,0.03892
6537.50875,0.02791
6539.43722,0.01002
6541.36569,0.02209
6543.29416,0.07742
6545.22263,0.12736
6547.15110,0.12895
6549.07957,0.08398
6551.00804,0.04784
6552.93650,0.06419
6554.86497,0.07548
6556.79344,0.05484
6558.72191,0.03914
6560.65038,0.03855
6562.57885,0.04120
6564.50732,0.06869
6566.43578,0.12451
6568.36425,0.12366
6570.29272,0.04798
6572.22119,0.02791
6574.14966,0.08489
6576.07813,0.08338
6578.00660,0.02345
6579.93507,0.01582
6581.86353,0.06484
6583.79200,0.10605
6585.72047,0.11509
6587.64894,0.10309
6589.57741,0.06750
6591.50588,0.03195
6593.43435,0.05527
6595.36281,0.14204
6597.29128,0.22808
6599.21975,0.27880
6601.14822,0.29132
6603.07669,0.27698
6605.00516,0.22495
6606.93363,0.12690
6608.86210,0.06092
6610.79056,0.07400
6612.71903,0.06991
6614.64750,-0.00024
6616.57597,-0.03929
6618.50444,0.02074
6620.43291,0.11120
6622.36138,0.15311
6624.28984,0.15740
6626.21831,0.13897
6628.14678,0.04054
6630.07525,-0.10481
6632.00372,-0.13929
6633.93219,-0.06823
6635.86066,-0.02495
6637.78912,-0.00516
6639.71759,0.05791
6641.64606,0.08865
6643.57453,0.04756
6645.50300,0.01345
6647.43147,-0.02213
6649.35994,-0.08658
6651.28841,-0.07611
6653.21687,0.03217
6655.14534,0.15679
6657.07381,0.25501
6659.00228,0.29543
6660.93075,0.26251
6662.85922,0.21157
6664.78769,0.17068
6666.71615,0.10176
6668.64462,0.06978
6670.57309,0.13204
6672.50156,0.13583
6674.43003,0.04489
6676.35850,0.03976
6678.28697,0.12479
6680.21544,0.17524
6682.14390,0.17687
6684.07237,0.15107
6686.00084,0.07546
6687.92931,0.00216
6689.85778,0.01411
6691.78625,0.07257
6693.71472,0.11773
6695.64318,0.08688
6697.57165,-0.00617
6699.50012,-0.02249
6701.42859,0.02259
6703.35706,0.06023
6705.28553,0.08549
6707.21400,0.08255
6709.14247,0.11710
6711.07093,0.19997
6712.99940,0.24240
6714.92787,0.21684
6716.85634,0.13429
6718.78481,0.03794
6720.71328,0.00584
6722.64175,0.02130
6724.57021,0.00448
6726.49868,-0.01815
6728.42715,0.02581
6730.35562,0.09989
6732.28409,0.12476
6734.21256,0.10955
6736.14103,0.07310
6738.06950,0.04164
6739.99796,0.01681
6741.92643,0.00391
6743.85490,0.06166
6745.78337,0.14532
6747.71184,0.14775
6749.64031,0.10317
6751.56878,0.10984
6753.49724,0.10856
6755.42571,0.09533
6757.35418,0.15936
6759.28265,0.25955
6761.21112,0.27214
6763.13959,0.16546
6765.06806,0.03576
6766.99653,-0.03127
6768.92499,-0.04707
6770.85346,-0.03394
6772.78193,0.01635
6774.71040,0.06587
6776.63887,0.10713
6778.56734,0.14635
6780.49581,0.09776
6782.42427,-0.02196
6784.35274,-0.07642
6786.28121,-0.06688
6788.20968,-0.04650
6790.13815,0.01357
6792.06662,0.09421
6793.99509,0.15505
6795.92355,0.20211
6797.85202,0.20101
6799.78049,0.13228
6801.70896,0.02308
6803.63743,-0.05364
6805.56590,-0.05563
6807.49437,-0.00757
6809.42284,0.05447
6811.35130,0.09953
6813.27977,0.13299
6815.20824,0.18799
6817.13671,0.21470
6819.06518,0.15571
6820.99365,0.09972
6822.92212,0.11578
6824.85058,0.11391
6826.77905,0.03952
6828.70752,-0.03232
6830.63599,-0.01121
6832.56446,0.08013
6834.49293,0.19196
6836.42140,0.24305
6838.34987,0.15687
6840.27833,0.06282
6842.20680,0.04014
6844.13527,0.03510
6846.06374,0.04732
6847.99221,0.06734
6849.92068,0.06229
6851.84915,0.09722
6853.77761,0.16267
6855.70608,0.15898
6857.63455,0.10826
6859.56302,0.07689
6861.49149,0.01463
6863.41996,-0.06389
6865.34843,-0.06162
6867.27690,-0.00032
6869.20536,0.01830
6871.13383,-0.00467
6873.06230,-0.01712
6874.99077,-0.01507
6876.91924,-0.01760
6878.84771,-0.02136
6880.77618,0.00643
6882.70464,0.07165
6884.63311,0.13911
6886.56158,0.14625
6888.49005,0.06450
6890.41852,0.01070
6892.34699,0.03510
6894.27546,0.03961
6896.20393,0.04395
6898.13239,0.08189
6900.06086,0.04602
6901.98933,-0.05213
6903.91780,-0.09057
6905.84627,-0.10101
6907.77474,-0.15115
6909.70321,-0.12149
6911.63167,0.03722
6913.56014,0.21257
6915.48861,0.23514
6917.41708,0.10390
6919.34555,0.07541
6921.27402,0.22744
6923.20249,0.30779
6925.13096,0.21088
6927.05942,0.02995
6928.98789,-0.04544
6930.91636,0.06316
6932.84483,0.17217
6934.77330,0.12960
6936.70177,0.02844
6938.63024,-0.01595
6940.55870,0.01819
6942.48717,0.01365
6944.41564,-0.02264
6946.34411,0.02495
6948.27258,0.09436
6950.20105,0.10178
6952.12952,0.09648
6954.05799,0.11612
6955.98645,0.11547
6957.91492,0.02703
6959.84339,-0.05016
6961.77186,-0.01202
6963.70033,0.02545
6965.62880,-0.01369
6967.55727,0.00304
6969.48573,0.10574
6971.41420,0.12644
6973.34267,0.02836
6975.27114,-0.11769
6977.19961,-0.17306
6979.12808,-0.04702
6981.05655,0.15157
6982.98501,0.24901
6984.91348,0.13805
6986.84195,-0.07983
6988.77042,-0.19644
6990.69889,-0.15891
6992.62736,-0.06624
6994.55583,0.03582
6996.48430,0.10559
6998.41276,0.10582
7000.34123,0.09914
7002.26970,0.08505
7004.19817,0.03649
7006.12664,-0.01226
7008.05511,-0.03298
7009.98358,-0.00795
7011.91204,0.05200
7013.84051,0.06141
7015.76898,0.03371
7017.69745,0.03946
7019.62592,0.01825
7021.55439,-0.01638
7023.48286,-0.01556
7025.41133,-0.03972
7027.33979,-0.07365
7029.26826,0.01782
7031.19673,0.21314
7033.12520,0.33958
7035.05367,0.29901
7036.98214,0.18754
7038.91061,0.17898
7040.83907,0.24466
7042.76754,0.21361
7044.69601,0.08964
7046.62448,-0.00973
7048.55295,-0.07601
7050.48142,-0.05103
7052.40989,0.04889
7054.33836,0.04779
7056.26682,-0.08423
7058.19529,-0.13604
7060.12376,-0.11183
7062.05223,-0.10989
7063.98070,-0.06912
7065.90917,-0.01219
7067.83764,0.06057
7069.76610,0.13253
7071.69457,0.10758
7073.62304,0.08344
7075.55151,0.12906
7077.47998,0.16680
7079.40845,0.16637
7081.33692,0.16070
7083.26539,0.16365
7085.19385,0.16883
7087.12232,0.18412
7089.05079,0.19221
7090.97926,0.20018
7092.90773,0.17918
7094.83620,0.09341
7096.76467,0.02467
7098.69313,-0.00185
7100.62160,-0.03709
7102.55007,-0.01960
7104.47854,0.05692
7106.40701,0.06070
7108.33548,0.04717
7110.26395,0.12870
7112.19242,0.17105
7114.12088,0.10698
7116.04935,0.06274
7117.97782,0.05614
7119.90629,0.03262
7121.83476,0.09184
7123.76323,0.26374
7125.69170,0.36807
7127.62016,0.23277
7129.54863,0.04864
7131.47710,0.07559
7133.40557,0.17328
7135.33404,0.11789
7137.26251,0.07694
7139.19098,0.24073
7141.11944,0.32993
7143.04791,0.17033
7144.97638,0.02411
7146.90485,-0.00587
7148.83332,-0.00056
7150.76179,0.04525
7152.69026,0.06792
7154.61873,0.02879
7156.54719,0.04050
7158.47566,0.07345
7160.40413,0.07367
7162.33260,0.01454
7164.26107,-0.14684
7166.18954,-0.20554
7168.11801,0.01434
7170.04647,0.25103
7171.97494,0.29165
7173.90341,0.25302
7175.83188,0.13984
7177.76035,-0.01140
7179.68882,-0.03785
7181.61729,0.04403
7183.54576,0.19550
7185.47422,0.34906
7187.40269,0.36899
7189.33116,0.17062
7191.25963,-0.10351
7193.18810,-0.14714
7195.11657,-0.02256
7197.04504,0.06807
7198.97350,0.10842
7200.90197,0.14244
7202.83044,0.14117
7204.75891,0.08900
7206.68738,0.06341
7208.61585,0.05233
7210.54432,0.02161
7212.47279,0.01491
7214.40125,0.06738
7216.32972,0.11588
7218.25819,0.08434
7220.18666,0.07553
7222.11513,0.10859
7224.04360,0.08768
7225.97207,0.05062
7227.90053,0.16604
7229.82900,0.35609
7231.75747,0.33140
7233.68594,0.09410
7235.61441,-0.09551
7237.54288,-0.08772
7239.47135,0.06591
7241.39982,0.13178
7243.32828,0.05759
7245.25675,-0.01765
7247.18522,-0.12030
7249.11369,-0.23681
7251.04216,-0.21823
7252.97063,-0.06662
7254.89910,-0.02396
7256.82756,-0.12162
7258.75603,-0.22846
7260.68450,-0.24951
7262.61297,-0.26277
7264.54144,-0.28287
7266.46991,-0.21642
7268.39838,-0.15826
7270.32685,-0.10760
7272.25531,0.01845
7274.18378,0.11607
7276.11225,0.11272
7278.04072,0.13578
7279.96919,0.27940
7281.89766,0.33833
7283.82613,0.19882
7285.75459,0.01292
7287.68306,-0.05204
7289.61153,0.03177
7291.54000,0.13482
7293.46847,0.12139
7295.39694,-0.07162
7297.32541,-0.21729
7299.25387,-0.10949
7301.18234,0.07501
7303.11081,0.16774
7305.03928,0.16268
7306.96775,0.08701
7308.89622,0.02286
7310.82469,0.02807
7312.75316,0.09540
7314.68162,0.22405
7316.61009,0.33259
7318.53856,0.18196
7320.46703,-0.02162
7322.39550,-0.08394
7324.32397,-0.02339
7326.25244,0.05727
7328.18090,0.08330
7330.10937,0.10585
7332.03784,0.21391
7333.96631,0.26985
7335.89478,0.23551
7337.82325,0.23217
7339.75172,0.19284
7341.68019,0.01381
7343.60865,-0.05038
7345.53712,-0.02649
7347.46559,-0.01222
7349.39406,-0.03259
7351.32253,-0.03861
7353.25100,-0.06163
7355.17947,-0.19175
7357.10793,-0.25322
7359.03640,-0.09327
7360.96487,0.01896
7362.89334,0.03903
7364.82181,0.10093
7366.75028,0.15946
7368.67875,0.07814
7370.60722,-0.01407
7372.53568,0.09373
7374.46415,0.23156
7376.39262,0.14251
7378.32109,0.09641
7380.24956,0.15327
7382.17803,0.19392
7384.10650,0.26204
7386.03496,0.33992
7387.96343,0.36313
7389.89190,0.30154
7391.82037,0.16721
7393.74884,0.17175
7395.67731,0.39524
7397.60578,0.47615
7399.53425,0.27068
7401.46271,0.00115
7403.39118,-0.14507
7405.31965,-0.11279
7407.24812,-0.01397
7409.17659,0.09389
7411.10506,0.12636
7413.03353,-0.01049
7414.96199,-0.17619
7416.89046,-0.16594
7418.81893,0.06027
7420.74740,0.29403
7422.67587,0.33878
7424.60434,0.22052
7426.53281,0.05025
7428.46128,-0.15415
7430.38974,-0.30068
7432.31821,-0.11825
7434.24668,0.20096
7436.17515,0.24306
7438.10362,0.11956
7440.03209,0.14907
7441.96056,0.23920
7443.88902,0.27901
7445.81749,0.33491
7447.74596,0.44956
7449.67443,0.53632
7451.60290,0.44048
7453.53137,0.26624
7455.45984,0.21207
7457.38831,0.21490
7459.31677,0.14431
7461.24524,0.06593
7463.17371,0.11505
7465.10218,0.19092
7467.03065,0.18029
7468.95912,0.07278
7470.88759,-0.08708
7472.81605,-0.19209
7474.74452,-0.25182
7476.67299,-0.31419
7478.60146,-0.26054
7480.52993,-0.08903
7482.45840,-0.03568
7484.38687,-0.10601
7486.31533,-0.12914
7488.24380,-0.05128
7490.17227,0.10415
7492.10074,0.18481
7494.02921,0.09492
7495.95768,0.04985
7497.88615,0.22819
