399.19301,0.52006
401.12148,0.72880
403.04995,0.47261
404.97842,0.25609
406.90689,0.30813
408.83536,0.38379
410.76382,0.37179
412.69229,0.26148
414.62076,0.12941
416.54923,0.09680
418.47770,0.11123
420.40617,0.03869
422.33464,-0.01238
424.26311,0.02674
426.19157,0.08552
428.12004,0.06781
430.04851,-0.01279
431.97698,-0.06186
433.90545,-0.00432
435.83392,0.08137
437.76239,0.14604
439.69085,0.21715
441.61932,0.18317
443.54779,0.03333
445.47626,0.00396
447.40473,0.05512
449.33320,0.07523
451.26167,0.08395
453.19013,0.05744
455.11860,0.02163
457.04707,0.03224
458.97554,0.03348
460.90401,0.01682
462.83248,0.04501
464.76095,0.11057
466.68942,0.14589
468.61788,0.14894
470.54635,0.17105
472.47482,0.11910
474.40329,-0.04562
476.33176,-0.00378
478.26023,0.08240
480.18870,0.08543
482.11716,0.07975
484.04563,0.09187
485.97410,0.10958
487.90257,0.15187
489.83104,0.21737
491.75951,0.24318
493.68798,0.19233
495.61645,0.11576
497.54491,0.07246
499.47338,0.08895
501.40185,0.13254
503.33032,0.12806
505.25879,0.06739
507.18726,0.03126
509.11573,0.04465
511.04419,0.04221
512.97266,0.03640
514.90113,0.06739
516.82960,0.08606
518.75807,0.05901
520.68654,0.03664
522.61501,0.04257
524.54348,0.08602
526.47194,0.14700
528.40041,0.16781
530.32888,0.15181
532.25735,0.13277
534.18582,0.11961
536.11429,0.11642
538.04276,0.10817
539.97122,0.07592
541.89969,0.06925
543.82816,0.10527
545.75663,0.11973
547.68510,0.11021
549.61357,0.11864
551.54204,0.13918
553.47051,0.14459
555.39897,0.13862
557.32744,0.13568
559.25591,0.13319
561.18438,0.13506
563.11285,0.14760
565.04132,0.15102
566.96979,0.15169
568.89825,0.17597
570.82672,0.19511
572.75519,0.18291
574.68366,0.14926
576.61213,0.10991
578.54060,0.08322
580.46907,0.08616
582.39754,0.11604
584.32600,0.15126
586.25447,0.18242
588.18294,0.19020
590.11141,0.16242
592.03988,0.13225
593.96835,0.10883
595.89682,0.07188
597.82528,0.05435
599.75375,0.08350
601.68222,0.12215
603.61069,0.13290
605.53916,0.11702
607.46763,0.09178
609.39610,0.09771
611.32456,0.14910
613.25303,0.19075
615.18150,0.19062
617.10997,0.16959
619.03844,0.14503
620.96691,0.12653
622.89538,0.12009
624.82385,0.12865
626.75231,0.13605
628.68078,0.12254
630.60925,0.10861
632.53772,0.11902
634.46619,0.13069
636.39466,0.11936
638.32313,0.11001
640.25159,0.11909
642.18006,0.12073
644.10853,0.11455
646.03700,0.13053
647.96547,0.15830
649.89394,0.15895
651.82241,0.13904
653.75088,0.12768
655.67934,0.12347
657.60781,0.11952
659.53628,0.11315
661.46475,0.10504
663.39322,0.10619
665.32169,0.12096
667.25016,0.14484
669.17862,0.15896
671.10709,0.15670
673.03556,0.15100
674.96403,0.14412
676.89250,0.14681
678.82097,0.15636
680.74944,0.15817
682.67791,0.15430
684.60637,0.15155
686.53484,0.14348
688.46331,0.12706
690.39178,0.11593
692.32025,0.11703
694.24872,0.11974
696.17719,0.11529
698.10565,0.11252
700.03412,0.12533
701.96259,0.14526
703.89106,0.14957
705.81953,0.13737
707.74800,0.12597
709.67647,0.11266
711.60494,0.09960
713.53340,0.11232
715.46187,0.14151
717.39034,0.16016
719.31881,0.16613
721.24728,0.15880
723.17575,0.13912
725.10422,0.11818
727.03268,0.11218
728.96115,0.12039
730.88962,0.13042
732.81809,0.14558
734.74656,0.15301
736.67503,0.13956
738.60350,0.13296
740.53197,0.14050
742.46043,0.13740
744.38890,0.12762
746.31737,0.12875
748.24584,0.14121
750.17431,0.15553
752.10278,0.15743
754.03125,0.14140
755.95971,0.12185
757.88818,0.11606
759.81665,0.12375
761.74512,0.13494
763.67359,0.14494
765.60206,0.14851
767.53053,0.14282
769.45900,0.13511
771.38746,0.13084
773.31593,0.13642
775.24440,0.15440
777.17287,0.16890
779.10134,0.16672
781.02981,0.15746
782.95828,0.15005
784.88674,0.13818
786.81521,0.12694
788.74368,0.12757
790.67215,0.13078
792.60062,0.13023
794.52909,0.13486
796.45756,0.13941
798.38602,0.13461
800.31449,0.13561
802.24296,0.14575
804.17143,0.14755
806.09990,0.14343
808.02837,0.13764
809.95684,0.12728
811.88531,0.12701
813.81377,0.14198
815.74224,0.15227
817.67071,0.14688
819.59918,0.13841
821.52765,0.13771
823.45612,0.13543
825.38459,0.13193
827.31305,0.13485
829.24152,0.13648
831.16999,0.14045
833.09846,0.15108
835.02693,0.15239
836.95540,0.13707
838.88387,0.12306
840.81234,0.13129
842.74080,0.14993
844.66927,0.15290
846.59774,0.14922
848.52621,0.14989
850.45468,0.14676
852.38315,0.14693
854.31162,0.15883
856.24008,0.17304
858.16855,0.17822
860.09702,0.16896
862.02549,0.15057
863.95396,0.13966
865.88243,0.14908
867.81090,0.17988
869.73937,0.20359
871.66783,0.18688
873.59630,0.15201
875.52477,0.13301
877.45324,0.12598
879.38171,0.12107
881.31018,0.11998
883.23865,0.12260
885.16711,0.12788
887.09558,0.13795
889.02405,0.14715
890.95252,0.15103
892.88099,0.15316
894.80946,0.15358
896.73793,0.15002
898.66640,0.14658
900.59486,0.14801
902.52333,0.14581
904.45180,0.13687
906.38027,0.13310
908.30874,0.13768
910.23721,0.14546
912.16568,0.15095
914.09414,0.15004
916.02261,0.14318
917.95108,0.13522
919.87955,0.13350
921.80802,0.13895
923.73649,0.14369
925.66496,0.14204
927.59343,0.13869
929.52189,0.13682
931.45036,0.13544
933.37883,0.14121
935.30730,0.14849
937.23577,0.14702
939.16424,0.14987
941.09271,0.16276
943.02117,0.17132
944.94964,0.17075
946.87811,0.16515
948.80658,0.15813
950.73505,0.15397
952.66352,0.15148
954.59199,0.14929
956.52045,0.14887
958.44892,0.14852
960.37739,0.14847
962.30586,0.14812
964.23433,0.14661
966.16280,0.14577
968.09127,0.14301
970.01974,0.13966
971.94820,0.14107
973.87667,0.14524
975.80514,0.14971
977.73361,0.15260
979.66208,0.15037
981.59055,0.14443
983.51902,0.14007
985.44748,0.14174
987.37595,0.14568
989.30442,0.14594
991.23289,0.14588
993.16136,0.14569
995.08983,0.14519
997.01830,0.15106
998.94677,0.15928
1000.87523,0.15943
1002.80370,0.15166
1004.73217,0.14535
1006.66064,0.14704
1008.58911,0.15345
1010.51758,0.15963
1012.44605,0.16603
1014.37451,0.17163
1016.30298,0.16913
1018.23145,0.15900
1020.15992,0.15281
1022.08839,0.15467
1024.01686,0.16285
1025.94533,0.17532
1027.87380,0.18065
1029.80226,0.17021
1031.73073,0.15251
1033.65920,0.14164
1035.58767,0.14279
1037.51614,0.15081
1039.44461,0.15729
1041.37308,0.15785
1043.30154,0.15566
1045.23001,0.15716
1047.15848,0.16379
1049.08695,0.16735
1051.01542,0.16433
1052.94389,0.16262
1054.87236,0.16474
1056.80083,0.16592
1058.72929,0.16154
1060.65776,0.15643
1062.58623,0.16131
1064.51470,0.17433
1066.44317,0.18183
1068.37164,0.17810
1070.30011,0.17257
1072.22857,0.17227
1074.15704,0.17343
1076.08551,0.17262
1078.01398,0.17268
1079.94245,0.17244
1081.87092,0.16785
1083.79939,0.16736
1085.72786,0.17421
1087.65632,0.17365
1089.58479,0.16435
1091.51326,0.16230
1093.44173,0.16827
1095.37020,0.16878
1097.29867,0.16131
1099.22714,0.15507
1101.15560,0.15582
1103.08407,0.16179
1105.01254,0.16649
1106.94101,0.16748
1108.86948,0.16812
1110.79795,0.16994
1112.72642,0.17753
1114.65489,0.18705
1116.58335,0.18186
1118.51182,0.16398
1120.44029,0.15150
1122.36876,0.15118
1124.29723,0.16296
1126.22570,0.17854
1128.15417,0.17673
1130.08263,0.15859
1132.01110,0.14640
1133.93957,0.14663
1135.86804,0.15497
1137.79651,0.16810
1139.72498,0.17844
1141.65345,0.17922
1143.58191,0.17308
1145.51038,0.16730
1147.43885,0.16673
1149.36732,0.16839
1151.29579,0.16881
1153.22426,0.16916
1155.15273,0.16859
1157.08120,0.16964
1159.00966,0.17279
1160.93813,0.17535
1162.86660,0.17707
1164.79507,0.17560
1166.72354,0.17320
1168.65201,0.17235
1170.58048,0.17039
1172.50894,0.16781
1174.43741,0.16461
1176.36588,0.16081
1178.29435,0.16124
1180.22282,0.16749
1182.15129,0.17291
1184.07976,0.16970
1186.00823,0.16301
1187.93669,0.16280
1189.86516,0.16479
1191.79363,0.16357
1193.72210,0.16289
1195.65057,0.16643
1197.57904,0.17297
1199.50751,0.17691
1201.43597,0.17451
1203.36444,0.16872
1205.29291,0.16424
1207.22138,0.16272
1209.14985,0.16493
1211.07832,0.16777
1213.00679,0.16758
1214.93526,0.16913
1216.86372,0.17573
1218.79219,0.18242
1220.72066,0.18228
1222.64913,0.17516
1224.57760,0.16966
1226.50607,0.16939
1228.43454,0.17102
1230.36300,0.17350
1232.29147,0.17469
1234.21994,0.17194
1236.14841,0.16924
1238.07688,0.17129
1240.00535,0.17411
1241.93382,0.17290
1243.86229,0.17129
1245.79075,0.17158
1247.71922,0.17202
1249.64769,0.17396
1251.57616,0.17707
1253.50463,0.17819
1255.43310,0.17578
1257.36157,0.17210
1259.29003,0.17047
1261.21850,0.17013
1263.14697,0.17051
1265.07544,0.17204
1267.00391,0.17249
1268.93238,0.17106
1270.86085,0.17084
1272.78932,0.17269
1274.71778,0.17348
1276.64625,0.17319
1278.57472,0.17363
1280.50319,0.17392
1282.43166,0.17404
1284.36013,0.17624
1286.28860,0.18038
1288.21706,0.18338
1290.14553,0.18451
1292.07400,0.18472
1294.00247,0.18226
1295.93094,0.17575
1297.85941,0.16992
1299.78788,0.16882
1301.71634,0.16658
1303.64481,0.15888
1305.57328,0.15516
1307.50175,0.16292
1309.43022,0.17345
1311.35869,0.17772
1313.28716,0.17892
1315.21563,0.18191
1317.14409,0.18435
1319.07256,0.18330
1321.00103,0.18113
1322.92950,0.18114
1324.85797,0.18286
1326.78644,0.18355
1328.71491,0.18261
1330.64337,0.18051
1332.57184,0.17791
1334.50031,0.17603
1336.42878,0.17714
1338.35725,0.18225
1340.28572,0.18566
1342.21419,0.18925
1344.14266,0.19432
1346.07112,0.19054
1347.99959,0.18084
1349.92806,0.17559
1351.85653,0.17427
1353.78500,0.17590
1355.71347,0.17973
1357.64194,0.18157
1359.57040,0.18091
1361.49887,0.18059
1363.42734,0.17954
1365.35581,0.17840
1367.28428,0.18086
1369.21275,0.18413
1371.14122,0.18397
1373.06969,0.18103
1374.99815,0.17914
1376.92662,0.18175
1378.85509,0.18501
1380.78356,0.18565
1382.71203,0.18794
1384.64050,0.19282
1386.56897,0.19395
1388.49743,0.18957
1390.42590,0.18732
1392.35437,0.18992
1394.28284,0.19412
1396.21131,0.19819
1398.13978,0.19997
1400.06825,0.19566
1401.99672,0.19207
1403.92518,0.19435
1405.85365,0.19440
1407.78212,0.18967
1409.71059,0.18767
1411.63906,0.18898
1413.56753,0.19228
1415.49600,0.20045
1417.42446,0.21206
1419.35293,0.21427
1421.28140,0.20709
1423.20987,0.20191
1425.13834,0.19481
1427.06681,0.18763
1428.99528,0.18857
1430.92375,0.19643
1432.85221,0.20237
1434.78068,0.20497
1436.70915,0.20309
1438.63762,0.19574
1440.56609,0.18908
1442.49456,0.18525
1444.42303,0.18632
1446.35149,0.19175
1448.27996,0.19550
1450.20843,0.19491
1452.13690,0.19544
1454.06537,0.20257
1455.99384,0.21809
1457.92231,0.22304
1459.85077,0.20883
1461.77924,0.20107
1463.70771,0.20079
1465.63618,0.20122
1467.56465,0.20184
1469.49312,0.20941
1471.42159,0.22580
1473.35006,0.23375
1475.27852,0.22026
1477.20699,0.20472
1479.13546,0.19764
1481.06393,0.19705
1482.99240,0.19906
1484.92087,0.20387
1486.84934,0.20936
1488.77780,0.20945
1490.70627,0.20354
1492.63474,0.19993
1494.56321,0.20245
1496.49168,0.21011
1498.42015,0.21412
1500.34862,0.21013
1502.27709,0.20783
1504.20555,0.21456
1506.13402,0.23226
1508.06249,0.23803
1509.99096,0.22428
1511.91943,0.21319
1513.84790,0.21360
1515.77637,0.22493
1517.70483,0.23363
1519.63330,0.23846
1521.56177,0.24160
1523.49024,0.23302
1525.41871,0.22406
1527.34718,0.21548
1529.27565,0.20628
1531.20412,0.20534
1533.13258,0.21212
1535.06105,0.21663
1536.98952,0.22214
1538.91799,0.23774
1540.84646,0.25097
1542.77493,0.24026
1544.70340,0.22157
1546.63186,0.20814
1548.56033,0.20728
1550.48880,0.21277
1552.41727,0.21753
1554.34574,0.22531
1556.27421,0.23668
1558.20268,0.24159
1560.13115,0.22349
1562.05961,0.21161
1563.98808,0.20893
1565.91655,0.20825
1567.84502,0.21042
1569.77349,0.21360
1571.70196,0.21180
1573.63043,0.21114
1575.55889,0.21241
1577.48736,0.20692
1579.41583,0.19923
1581.34430,0.19412
1583.27277,0.19157
1585.20124,0.19197
1587.12971,0.19385
1589.05818,0.19556
1590.98664,0.19573
1592.91511,0.19603
1594.84358,0.19929
1596.77205,0.20176
1598.70052,0.20118
1600.62899,0.20131
1602.55746,0.20096
1604.48592,0.19882
1606.41439,0.19725
1608.34286,0.19469
1610.27133,0.19287
1612.19980,0.19542
1614.12827,0.20026
1616.05674,0.20559
1617.98521,0.20822
1619.91367,0.20915
1621.84214,0.21185
1623.77061,0.21131
1625.69908,0.20587
1627.62755,0.20162
1629.55602,0.19902
1631.48449,0.19918
1633.41295,0.20654
1635.34142,0.22077
1637.26989,0.22142
1639.19836,0.21121
1641.12683,0.20504
1643.05530,0.20709
1644.98377,0.22143
1646.91223,0.23976
1648.84070,0.24350
1650.76917,0.24830
1652.69764,0.25622
1654.62611,0.23603
1656.55458,0.21532
1658.48305,0.20713
1660.41152,0.20786
1662.33998,0.21495
1664.26845,0.21717
1666.19692,0.21592
1668.12539,0.21899
1670.05386,0.22098
1671.98233,0.22061
1673.91080,0.22198
1675.83926,0.21771
1677.76773,0.21088
1679.69620,0.21134
1681.62467,0.22098
1683.55314,0.23531
1685.48161,0.23354
1687.41008,0.22369
1689.33855,0.21869
1691.26701,0.21535
1693.19548,0.21702
1695.12395,0.22577
1697.05242,0.23203
1698.98089,0.23069
1700.90936,0.22458
1702.83783,0.22060
1704.76629,0.22079
1706.69476,0.21675
1708.62323,0.20987
1710.55170,0.20805
1712.48017,0.21262
1714.40864,0.22199
1716.33711,0.23010
1718.26558,0.22504
1720.19404,0.21261
1722.12251,0.20479
1724.05098,0.20196
1725.97945,0.20177
1727.90792,0.20431
1729.83639,0.20855
1731.76486,0.21373
1733.69332,0.21920
1735.62179,0.21554
1737.55026,0.20790
1739.47873,0.20242
1741.40720,0.20023
1743.33567,0.20332
1745.26414,0.20889
1747.19261,0.21340
1749.12107,0.21611
1751.04954,0.21285
1752.97801,0.20573
1754.90648,0.20315
1756.83495,0.20482
1758.76342,0.20708
1760.69189,0.21000
1762.62035,0.20972
1764.54882,0.20533
1766.47729,0.20576
1768.40576,0.21383
1770.33423,0.22368
1772.26270,0.22568
1774.19117,0.21714
1776.11964,0.20976
1778.04810,0.20756
1779.97657,0.20715
1781.90504,0.20536
1783.83351,0.20312
1785.76198,0.20146
1787.69045,0.20217
1789.61892,0.20655
1791.54738,0.21065
1793.47585,0.21042
1795.40432,0.21004
1797.33279,0.21117
1799.26126,0.21092
1801.18973,0.20806
1803.11820,0.20420
1805.04666,0.20107
1806.97513,0.20009
1808.90360,0.20294
1810.83207,0.20750
1812.76054,0.20772
1814.68901,0.20578
1816.61748,0.20883
1818.54595,0.21513
1820.47441,0.21566
1822.40288,0.21038
1824.33135,0.20680
1826.25982,0.20830
1828.18829,0.21244
1830.11676,0.21256
1832.04523,0.20716
1833.97369,0.20426
1835.90216,0.20373
1837.83063,0.20105
1839.75910,0.19873
1841.68757,0.20235
1843.61604,0.21008
1845.54451,0.21215
1847.47298,0.20893
1849.40144,0.20553
1851.32991,0.20150
1853.25838,0.19772
1855.18685,0.19677
1857.11532,0.19967
1859.04379,0.20248
1860.97226,0.20069
1862.90072,0.19684
1864.82919,0.19668
1866.75766,0.20315
1868.68613,0.21119
1870.61460,0.21002
1872.54307,0.20317
1874.47154,0.19931
1876.40001,0.19976
1878.32847,0.20080
1880.25694,0.20095
1882.18541,0.20255
1884.11388,0.20348
1886.04235,0.20028
1887.97082,0.19838
1889.89929,0.20122
1891.82775,0.20324
1893.75622,0.20463
1895.68469,0.20836
1897.61316,0.20984
1899.54163,0.20680
1901.47010,0.20445
1903.39857,0.20400
1905.32704,0.20192
1907.25550,0.19998
1909.18397,0.20164
1911.11244,0.20376
1913.04091,0.20206
1914.96938,0.19951
1916.89785,0.19964
1918.82632,0.20032
1920.75478,0.20087
1922.68325,0.20192
1924.61172,0.20265
1926.54019,0.20398
1928.46866,0.20397
1930.39713,0.20170
1932.32560,0.20131
1934.25407,0.20287
1936.18253,0.20246
1938.11100,0.20054
1940.03947,0.20071
1941.96794,0.20366
1943.89641,0.20536
1945.82488,0.20313
1947.75335,0.19987
1949.68181,0.19828
1951.61028,0.19972
1953.53875,0.20300
1955.46722,0.20332
1957.39569,0.19969
1959.32416,0.19633
1961.25263,0.19602
1963.18110,0.19993
1965.10956,0.20739
1967.03803,0.21143
1968.96650,0.20883
1970.89497,0.20678
1972.82344,0.20779
1974.75191,0.21004
1976.68038,0.21205
1978.60884,0.21044
1980.53731,0.20593
1982.46578,0.20277
1984.39425,0.20310
1986.32272,0.20625
1988.25119,0.20938
1990.17966,0.20970
1992.10812,0.20660
1994.03659,0.20269
1995.96506,0.20093
1997.89353,0.20181
1999.82200,0.20432
2001.75047,0.20587
2003.67894,0.20552
2005.60741,0.20507
2007.53587,0.20495
2009.46434,0.20450
2011.39281,0.20470
2013.32128,0.20552
2015.24975,0.20446
2017.17822,0.20145
2019.10669,0.19947
2021.03515,0.19985
2022.96362,0.20147
2024.89209,0.20175
2026.82056,0.19976
2028.74903,0.19830
2030.67750,0.19931
2032.60597,0.20066
2034.53444,0.20074
2036.46290,0.20216
2038.39137,0.20525
2040.31984,0.20651
2042.24831,0.20583
2044.17678,0.20412
2046.10525,0.20080
2048.03372,0.19830
2049.96218,0.19823
2051.89065,0.20026
2053.81912,0.20457
2055.74759,0.20859
2057.67606,0.20918
2059.60453,0.20695
2061.53300,0.20508
2063.46147,0.20540
2065.38993,0.20694
2067.31840,0.20733
2069.24687,0.20522
2071.17534,0.20332
2073.10381,0.20386
2075.03228,0.20427
2076.96075,0.20359
2078.88921,0.20365
2080.81768,0.20376
2082.74615,0.20257
2084.67462,0.20184
2086.60309,0.20412
2088.53156,0.20783
2090.46003,0.20829
2092.38850,0.20589
2094.31696,0.20525
2096.24543,0.20514
2098.17390,0.20361
2100.10237,0.20301
2102.03084,0.20367
2103.95931,0.20611
2105.88778,0.21028
2107.81624,0.21285
2109.74471,0.21127
2111.67318,0.20582
2113.60165,0.20124
2115.53012,0.20081
2117.45859,0.20119
2119.38706,0.20079
2121.31553,0.20137
2123.24399,0.20194
2125.17246,0.20167
2127.10093,0.20144
2129.02940,0.20146
2130.95787,0.20280
2132.88634,0.20366
2134.81481,0.20026
2136.74327,0.19686
2138.67174,0.19901
2140.60021,0.20348
2142.52868,0.20555
2144.45715,0.20506
2146.38562,0.20443
2148.31409,0.20455
2150.24255,0.20409
2152.17102,0.20305
2154.09949,0.20268
2156.02796,0.20309
2157.95643,0.20377
2159.88490,0.20449
2161.81337,0.20548
2163.74184,0.20637
2165.67030,0.20657
2167.59877,0.20699
2169.52724,0.20823
2171.45571,0.21017
2173.38418,0.21185
2175.31265,0.21183
2177.24112,0.21151
2179.16958,0.21137
2181.09805,0.20952
2183.02652,0.20667
2184.95499,0.20484
2186.88346,0.20511
2188.81193,0.20675
2190.74040,0.20732
2192.66887,0.20686
2194.59733,0.20697
2196.52580,0.20590
2198.45427,0.20344
2200.38274,0.20327
2202.31121,0.20478
2204.23968,0.20451
2206.16815,0.20336
2208.09661,0.20447
2210.02508,0.20697
2211.95355,0.20757
2213.88202,0.20665
2215.81049,0.20550
2217.73896,0.20436
2219.66743,0.20449
2221.59590,0.20473
2223.52436,0.20363
2225.45283,0.20365
2227.38130,0.20527
2229.30977,0.20645
2231.23824,0.20676
2233.16671,0.20502
2235.09518,0.20132
2237.02364,0.20065
2238.95211,0.20427
2240.88058,0.20628
2242.80905,0.20491
2244.73752,0.20362
2246.66599,0.20373
2248.59446,0.20361
2250.52293,0.20341
2252.45139,0.20541
2254.37986,0.20733
2256.30833,0.20595
2258.23680,0.20317
2260.16527,0.20250
2262.09374,0.20518
2264.02221,0.20828
2265.95067,0.20893
2267.87914,0.20825
2269.80761,0.20753
2271.73608,0.20718
2273.66455,0.20784
2275.59302,0.20881
2277.52149,0.20832
2279.44996,0.20580
2281.37842,0.20309
2283.30689,0.20268
2285.23536,0.20456
2287.16383,0.20631
2289.09230,0.20783
2291.02077,0.20864
2292.94924,0.20766
2294.87770,0.20965
2296.80617,0.21339
2298.73464,0.21186
2300.66311,0.20717
2302.59158,0.20369
2304.52005,0.20302
2306.44852,0.20462
2308.37699,0.20535
2310.30545,0.20489
2312.23392,0.20410
2314.16239,0.20354
2316.09086,0.20471
2318.01933,0.20852
2319.94780,0.21431
2321.87627,0.21446
2323.80473,0.20651
2325.73320,0.20471
2327.66167,0.20937
2329.59014,0.20653
2331.51861,0.20309
2333.44708,0.21332
2335.37555,0.22248
2337.30401,0.21287
2339.23248,0.19592
2341.16095,0.18835
2343.08942,0.19471
2345.01789,0.20706
2346.94636,0.21154
2348.87483,0.21242
2350.80330,0.21602
2352.73176,0.21818
2354.66023,0.21324
2356.58870,0.20817
2358.51717,0.20455
2360.44564,0.19325
2362.37411,0.18560
2364.30258,0.19616
2366.23104,0.21011
2368.15951,0.21218
2370.08798,0.20391
2372.01645,0.19672
2373.94492,0.20119
2375.87339,0.21046
2377.80186,0.21291
2379.73033,0.21000
2381.65879,0.20802
2383.58726,0.20614
2385.51573,0.20295
2387.44420,0.20181
2389.37267,0.20278
2391.30114,0.20388
2393.22961,0.20671
2395.15807,0.21031
2397.08654,0.21145
2399.01501,0.20960
2400.94348,0.20534
2402.87195,0.20165
2404.80042,0.20090
2406.72889,0.20199
2408.65736,0.20573
2410.58582,0.21096
2412.51429,0.21154
2414.44276,0.20730
2416.37123,0.20532
2418.29970,0.20602
2420.22817,0.20439
2422.15664,0.20194
2424.08510,0.20102
2426.01357,0.20072
2427.94204,0.20202
2429.87051,0.20287
2431.79898,0.20087
2433.72745,0.19994
2435.65592,0.20198
2437.58439,0.20481
2439.51285,0.20744
2441.44132,0.20915
2443.36979,0.20893
2445.29826,0.20779
2447.22673,0.20732
2449.15520,0.20655
2451.08367,0.20490
2453.01213,0.20354
2454.94060,0.20449
2456.86907,0.20772
2458.79754,0.20977
2460.72601,0.21037
2462.65448,0.21186
2464.58295,0.21295
2466.51142,0.21193
2468.43988,0.21087
2470.36835,0.21092
2472.29682,0.21118
2474.22529,0.21141
2476.15376,0.21079
2478.08223,0.20959
2480.01070,0.20808
2481.93916,0.20605
2483.86763,0.20508
2485.79610,0.20639
2487.72457,0.20854
2489.65304,0.20807
2491.58151,0.20526
2493.50998,0.20492
2495.43844,0.20749
2497.36691,0.20877
2499.29538,0.20935
2501.22385,0.21144
2503.15232,0.21211
2505.08079,0.21034
2507.00926,0.20839
2508.93773,0.20633
2510.86619,0.20473
2512.79466,0.20593
2514.72313,0.20884
2516.65160,0.20974
2518.58007,0.20776
2520.50854,0.20574
2522.43701,0.20655
2524.36547,0.20900
2526.29394,0.20958
2528.22241,0.20853
2530.15088,0.20781
2532.07935,0.20557
2534.00782,0.20174
2535.93629,0.20058
2537.86476,0.20376
2539.79322,0.20878
2541.72169,0.21100
2543.65016,0.20917
2545.57863,0.20739
2547.50710,0.20664
2549.43557,0.20521
2551.36404,0.20560
2553.29250,0.20831
2555.22097,0.21078
2557.14944,0.21223
2559.07791,0.21213
2561.00638,0.21138
2562.93485,0.21005
2564.86332,0.20753
2566.79179,0.20628
2568.72025,0.20746
2570.64872,0.21043
2572.57719,0.21346
2574.50566,0.21385
2576.43413,0.21215
2578.36260,0.21055
2580.29107,0.20987
2582.21953,0.21078
2584.14800,0.21145
2586.07647,0.21017
2588.00494,0.21022
2589.93341,0.21280
2591.86188,0.21504
2593.79035,0.21583
2595.71882,0.21579
2597.64728,0.21589
2599.57575,0.21598
2601.50422,0.21452
2603.43269,0.21212
2605.36116,0.20993
2607.28963,0.20805
2609.21810,0.20828
2611.14656,0.20943
2613.07503,0.20821
2615.00350,0.20708
2616.93197,0.20953
2618.86044,0.21272
2620.78891,0.21329
2622.71738,0.21331
2624.64585,0.21334
2626.57431,0.21239
2628.50278,0.21219
2630.43125,0.21233
2632.35972,0.21210
2634.28819,0.21322
2636.21666,0.21448
2638.14513,0.21504
2640.07359,0.21667
2642.00206,0.21690
2643.93053,0.21372
2645.85900,0.21079
2647.78747,0.21013
2649.71594,0.21235
2651.64441,0.21689
2653.57288,0.21762
2655.50134,0.21268
2657.42981,0.20897
2659.35828,0.20838
2661.28675,0.20705
2663.21522,0.20570
2665.14369,0.20718
2667.07216,0.21007
2669.00062,0.21133
2670.92909,0.21066
2672.85756,0.20961
2674.78603,0.20950
2676.71450,0.21023
2678.64297,0.20998
2680.57144,0.20936
2682.49990,0.21077
2684.42837,0.21381
2686.35684,0.21568
2688.28531,0.21496
2690.21378,0.21457
2692.14225,0.21525
2694.07072,0.21496
2695.99919,0.21455
2697.92765,0.21454
2699.85612,0.21505
2701.78459,0.21570
2703.71306,0.21547
2705.64153,0.21577
2707.57000,0.21833
2709.49847,0.22167
2711.42693,0.22142
2713.35540,0.21797
2715.28387,0.21713
2717.21234,0.21814
2719.14081,0.21671
2721.06928,0.21558
2722.99775,0.21769
2724.92622,0.22084
2726.85468,0.22247
2728.78315,0.22160
2730.71162,0.21896
2732.64009,0.21655
2734.56856,0.21558
2736.49703,0.21584
2738.42550,0.21719
2740.35396,0.21790
2742.28243,0.21704
2744.21090,0.21774
2746.13937,0.22104
2748.06784,0.22334
2749.99631,0.22125
2751.92478,0.21655
2753.85325,0.21416
2755.78171,0.21500
2757.71018,0.21672
2759.63865,0.21844
2761.56712,0.22020
2763.49559,0.22249
2765.42406,0.22462
2767.35253,0.22369
2769.28099,0.22352
2771.20946,0.22778
2773.13793,0.23038
2775.06640,0.22896
2776.99487,0.22679
2778.92334,0.22576
2780.85181,0.22638
2782.78028,0.22554
2784.70874,0.22109
2786.63721,0.21765
2788.56568,0.21959
2790.49415,0.22357
2792.42262,0.22444
2794.35109,0.22399
2796.27956,0.22648
2798.20802,0.22932
2800.13649,0.22865
2802.06496,0.22654
2803.99343,0.22556
2805.92190,0.22455
2807.85037,0.22343
2809.77884,0.22479
2811.70731,0.22648
2813.63577,0.22498
2815.56424,0.22273
2817.49271,0.22384
2819.42118,0.22870
2821.34965,0.23134
2823.27812,0.22718
2825.20659,0.22228
2827.13505,0.22335
2829.06352,0.22820
2830.99199,0.23166
2832.92046,0.23067
2834.84893,0.22553
2836.77740,0.22048
2838.70587,0.22082
2840.63433,0.22567
2842.56280,0.22797
2844.49127,0.22639
2846.41974,0.22609
2848.34821,0.22870
2850.27668,0.23119
2852.20515,0.23174
2854.13362,0.23148
2856.06208,0.23046
2857.99055,0.22732
2859.91902,0.22557
2861.84749,0.22937
2863.77596,0.23256
2865.70443,0.23100
2867.63290,0.23058
2869.56136,0.23320
2871.48983,0.23415
2873.41830,0.23086
2875.34677,0.22672
2877.27524,0.22518
2879.20371,0.22573
2881.13218,0.22660
2883.06065,0.22757
2884.98911,0.22825
2886.91758,0.22720
2888.84605,0.22648
2890.77452,0.22706
2892.70299,0.22627
2894.63146,0.22347
2896.55993,0.22076
2898.48839,0.22084
2900.41686,0.22225
2902.34533,0.22172
2904.27380,0.22111
2906.20227,0.22273
2908.13074,0.22489
2910.05921,0.22726
2911.98768,0.22895
2913.91614,0.22682
2915.84461,0.22348
2917.77308,0.22408
2919.70155,0.22639
2921.63002,0.22587
2923.55849,0.22164
2925.48696,0.21583
2927.41542,0.21398
2929.34389,0.21781
2931.27236,0.22170
2933.20083,0.22228
2935.12930,0.21975
2937.05777,0.21792
2938.98624,0.22348
2940.91471,0.23206
2942.84317,0.23331
2944.77164,0.22724
2946.70011,0.21993
2948.62858,0.21769
2950.55705,0.22298
2952.48552,0.22952
2954.41399,0.22675
2956.34245,0.21431
2958.27092,0.20849
2960.19939,0.21733
2962.12786,0.22793
2964.05633,0.23019
2965.98480,0.22695
2967.91327,0.22189
2969.84174,0.21856
2971.77020,0.22058
2973.69867,0.22647
2975.62714,0.23067
2977.55561,0.22856
2979.48408,0.22487
2981.41255,0.22596
2983.34102,0.22865
2985.26948,0.22839
2987.19795,0.22490
2989.12642,0.22410
2991.05489,0.23009
2992.98336,0.23339
2994.91183,0.22966
2996.84030,0.22738
2998.76877,0.23021
3000.69723,0.23583
3002.62570,0.23946
3004.55417,0.23795
3006.48264,0.23215
3008.41111,0.22516
3010.33958,0.21852
3012.26805,0.20642
3014.19651,0.18436
3016.12498,0.16490
3018.05345,0.17120
3019.98192,0.19806
3021.91039,0.21669
3023.83886,0.22244
3025.76733,0.22460
3027.69579,0.22403
3029.62426,0.22432
3031.55273,0.22961
3033.48120,0.23506
3035.40967,0.23558
3037.33814,0.23230
3039.26661,0.22947
3041.19508,0.22895
3043.12354,0.22834
3045.05201,0.22727
3046.98048,0.22596
3048.90895,0.22516
3050.83742,0.22535
3052.76589,0.22608
3054.69436,0.22660
3056.62282,0.22469
3058.55129,0.22560
3060.47976,0.22925
3062.40823,0.22795
3064.33670,0.22482
3066.26517,0.22387
3068.19364,0.22667
3070.12211,0.23307
3072.05057,0.23670
3073.97904,0.23295
3075.90751,0.22562
3077.83598,0.22447
3079.76445,0.23071
3081.69292,0.23365
3083.62139,0.22485
3085.54985,0.21383
3087.47832,0.21734
3089.40679,0.22911
3091.33526,0.23195
3093.26373,0.22384
3095.19220,0.21663
3097.12067,0.21900
3099.04914,0.22440
3100.97760,0.22439
3102.90607,0.22087
3104.83454,0.22169
3106.76301,0.22656
3108.69148,0.22836
3110.61995,0.22402
3112.54842,0.21780
3114.47688,0.21820
3116.40535,0.22340
3118.33382,0.22773
3120.26229,0.22985
3122.19076,0.23069
3124.11923,0.23509
3126.04770,0.24068
3127.97617,0.24139
3129.90463,0.23722
3131.83310,0.23191
3133.76157,0.23107
3135.69004,0.23742
3137.61851,0.24330
3139.54698,0.24153
3141.47545,0.23721
3143.40391,0.23418
3145.33238,0.23332
3147.26085,0.23660
3149.18932,0.24103
3151.11779,0.24259
3153.04626,0.23980
3154.97473,0.23518
3156.90320,0.23314
3158.83166,0.23362
3160.76013,0.23549
3162.68860,0.23953
3164.61707,0.24384
3166.54554,0.24497
3168.47401,0.24286
3170.40248,0.24163
3172.33094,0.24453
3174.25941,0.25004
3176.18788,0.25224
3178.11635,0.24700
3180.04482,0.24272
3181.97329,0.24450
3183.90176,0.24486
3185.83022,0.24386
3187.75869,0.24423
3189.68716,0.24223
3191.61563,0.23782
3193.54410,0.23572
3195.47257,0.23684
3197.40104,0.23816
3199.32951,0.24052
3201.25797,0.24357
3203.18644,0.24279
3205.11491,0.23818
3207.04338,0.23423
3208.97185,0.23331
3210.90032,0.23530
3212.82879,0.24021
3214.75725,0.24452
3216.68572,0.24428
3218.61419,0.24195
3220.54266,0.23990
3222.47113,0.23814
3224.39960,0.23761
3226.32807,0.23856
3228.25654,0.23923
3230.18500,0.23816
3232.11347,0.23833
3234.04194,0.24291
3235.97041,0.24806
3237.89888,0.24853
3239.82735,0.24369
3241.75582,0.23930
3243.68428,0.24171
3245.61275,0.24502
3247.54122,0.24373
3249.46969,0.24123
3251.39816,0.23647
3253.32663,0.23055
3255.25510,0.22892
3257.18357,0.23093
3259.11203,0.23476
3261.04050,0.24130
3262.96897,0.24534
3264.89744,0.24132
3266.82591,0.23689
3268.75438,0.23867
3270.68285,0.23981
3272.61131,0.23698
3274.53978,0.23615
3276.46825,0.23785
3278.39672,0.23837
3280.32519,0.23954
3282.25366,0.24215
3284.18213,0.24110
3286.11060,0.23596
3288.03906,0.23303
3289.96753,0.23253
3291.89600,0.22990
3293.82447,0.22828
3295.75294,0.23206
3297.68141,0.23442
3299.60988,0.23190
3301.53834,0.23138
3303.46681,0.23251
3305.39528,0.23228
3307.32375,0.23330
3309.25222,0.23544
3311.18069,0.23389
3313.10916,0.22903
3315.03763,0.22931
3316.96609,0.23385
3318.89456,0.23264
3320.82303,0.22702
3322.75150,0.22430
3324.67997,0.22505
3326.60844,0.22875
3328.53691,0.23579
3330.46537,0.24382
3332.39384,0.24782
3334.32231,0.24779
3336.25078,0.24756
3338.17925,0.24474
3340.10772,0.24011
3342.03619,0.23957
3343.96466,0.24139
3345.89312,0.23948
3347.82159,0.23561
3349.75006,0.23523
3351.67853,0.23631
3353.60700,0.23769
3355.53547,0.23911
3357.46394,0.23767
3359.39240,0.23549
3361.32087,0.23339
3363.24934,0.23094
3365.17781,0.23139
3367.10628,0.23494
3369.03475,0.23830
3370.96322,0.24062
3372.89168,0.24265
3374.82015,0.24190
3376.74862,0.23635
3378.67709,0.23119
3380.60556,0.22989
3382.53403,0.22985
3384.46250,0.23293
3386.39097,0.23906
3388.31943,0.24188
3390.24790,0.24008
3392.17637,0.23830
3394.10484,0.23794
3396.03331,0.23425
3397.96178,0.22952
3399.89025,0.22816
3401.81871,0.22681
3403.74718,0.22746
3405.67565,0.22903
3407.60412,0.22693
3409.53259,0.22796
3411.46106,0.23156
3413.38953,0.23102
3415.31800,0.23224
3417.24646,0.23549
3419.17493,0.23264
3421.10340,0.22710
3423.03187,0.22359
3424.96034,0.22139
3426.88881,0.22404
3428.81728,0.23011
3430.74574,0.23431
3432.67421,0.23692
3434.60268,0.23546
3436.53115,0.22866
3438.45962,0.22205
3440.38809,0.21796
3442.31656,0.21688
3444.24503,0.22055
3446.17349,0.22358
3448.10196,0.21981
3450.03043,0.21680
3451.95890,0.22253
3453.88737,0.23129
3455.81584,0.23524
3457.74431,0.23350
3459.67277,0.22699
3461.60124,0.21735
3463.52971,0.21072
3465.45818,0.21033
3467.38665,0.20895
3469.31512,0.20437
3471.24359,0.20466
3473.17206,0.20964
3475.10052,0.21055
3477.02899,0.20662
3478.95746,0.20780
3480.88593,0.21470
3482.81440,0.21439
3484.74287,0.20564
3486.67134,0.20021
3488.59980,0.20263
3490.52827,0.20633
3492.45674,0.20628
3494.38521,0.20534
3496.31368,0.20550
3498.24215,0.20316
3500.17062,0.19962
3502.09909,0.20089
3504.02755,0.20331
3505.95602,0.20071
3507.88449,0.19796
3509.81296,0.19920
3511.74143,0.20061
3513.66990,0.19857
3515.59837,0.19471
3517.52683,0.19352
3519.45530,0.19537
3521.38377,0.19490
3523.31224,0.19180
3525.24071,0.19118
3527.16918,0.19130
3529.09765,0.18691
3531.02611,0.18254
3532.95458,0.18406
3534.88305,0.18932
3536.81152,0.19481
3538.73999,0.19849
3540.66846,0.19978
3542.59693,0.19737
3544.52540,0.19048
3546.45386,0.18326
3548.38233,0.18249
3550.31080,0.18639
3552.23927,0.18517
3554.16774,0.18009
3556.09621,0.17938
3558.02468,0.18095
3559.95314,0.18324
3561.88161,0.18679
3563.81008,0.18961
3565.73855,0.19261
3567.66702,0.19570
3569.59549,0.19202
3571.52396,0.18206
3573.45243,0.17464
3575.38089,0.17475
3577.30936,0.17612
3579.23783,0.17548
3581.16630,0.17550
3583.09477,0.17526
3585.02324,0.17697
3586.95171,0.18083
3588.88017,0.17609
3590.80864,0.16946
3592.73711,0.17092
3594.66558,0.17437
3596.59405,0.17542
3598.52252,0.17579
3600.45099,0.17209
3602.37946,0.16591
3604.30792,0.16633
3606.23639,0.17363
3608.16486,0.17607
3610.09333,0.17111
3612.02180,0.17161
3613.95027,0.17673
3615.87874,0.17787
3617.80720,0.17573
3619.73567,0.17486
3621.66414,0.17490
3623.59261,0.17266
3625.52108,0.17038
3627.44955,0.17163
3629.37802,0.17007
3631.30649,0.16113
3633.23495,0.15551
3635.16342,0.15681
3637.09189,0.16141
3639.02036,0.16288
3640.94883,0.15824
3642.87730,0.15192
3644.80577,0.15202
3646.73423,0.16144
3648.66270,0.17375
3650.59117,0.17089
3652.51964,0.15928
3654.44811,0.15277
3656.37658,0.15199
3658.30505,0.15212
3660.23352,0.14958
3662.16198,0.14766
3664.09045,0.14976
3666.01892,0.15316
3667.94739,0.15560
3669.87586,0.15920
3671.80433,0.16410
3673.73280,0.16671
3675.66126,0.16280
3677.58973,0.15694
3679.51820,0.15379
3681.44667,0.15161
3683.37514,0.15368
3685.30361,0.15866
3687.23208,0.16358
3689.16055,0.16412
3691.08901,0.15338
3693.01748,0.14458
3694.94595,0.14404
3696.87442,0.14623
3698.80289,0.14819
3700.73136,0.14972
3702.65983,0.14947
3704.58829,0.14612
3706.51676,0.14207
3708.44523,0.14276
3710.37370,0.15280
3712.30217,0.16345
3714.23064,0.16240
3716.15911,0.15687
3718.08757,0.15450
3720.01604,0.15924
3721.94451,0.16904
3723.87298,0.17061
3725.80145,0.15692
3727.72992,0.14552
3729.65839,0.14616
3731.58686,0.15036
3733.51532,0.15414
3735.44379,0.15590
3737.37226,0.15241
3739.30073,0.15068
3741.22920,0.15402
3743.15767,0.15894
3745.08614,0.16009
3747.01460,0.15954
3748.94307,0.16690
3750.87154,0.17682
3752.80001,0.16714
3754.72848,0.15226
3756.65695,0.14573
3758.58542,0.14301
3760.51389,0.13803
3762.44235,0.13481
3764.37082,0.13774
3766.29929,0.14310
3768.22776,0.14783
3770.15623,0.15281
3772.08470,0.15029
3774.01317,0.14084
3775.94163,0.13590
3777.87010,0.13806
3779.79857,0.14177
3781.72704,0.14558
3783.65551,0.14824
3785.58398,0.14465
3787.51245,0.13670
3789.44092,0.13376
3791.36938,0.13835
3793.29785,0.14666
3795.22632,0.15496
3797.15479,0.15721
3799.08326,0.15675
3801.01173,0.16131
3802.94020,0.15965
3804.86866,0.15252
3806.79713,0.14870
3808.72560,0.14284
3810.65407,0.13595
3812.58254,0.13537
3814.51101,0.14133
3816.43948,0.14782
3818.36795,0.15078
3820.29641,0.14853
3822.22488,0.14457
3824.15335,0.14605
3826.08182,0.14406
3828.01029,0.13918
3829.93876,0.14079
3831.86723,0.14461
3833.79569,0.14563
3835.72416,0.14938
3837.65263,0.15543
3839.58110,0.15009
3841.50957,0.13426
3843.43804,0.12395
3845.36651,0.12550
3847.29498,0.13349
3849.22344,0.14210
3851.15191,0.14947
3853.08038,0.15473
3855.00885,0.14987
3856.93732,0.13968
3858.86579,0.13683
3860.79426,0.14310
3862.72272,0.14787
3864.65119,0.14392
3866.57966,0.14078
3868.50813,0.14044
3870.43660,0.13491
3872.36507,0.12746
3874.29354,0.12835
3876.22200,0.13429
3878.15047,0.13727
3880.07894,0.13568
3882.00741,0.13198
3883.93588,0.12888
3885.86435,0.12401
3887.79282,0.12077
3889.72129,0.12678
3891.64975,0.13666
3893.57822,0.13636
3895.50669,0.13382
3897.43516,0.13691
3899.36363,0.13899
3901.29210,0.13541
3903.22057,0.13198
3905.14903,0.13140
3907.07750,0.12779
3909.00597,0.12144
3910.93444,0.11943
3912.86291,0.12584
3914.79138,0.13654
3916.71985,0.14107
3918.64832,0.13538
3920.57678,0.13068
3922.50525,0.13390
3924.43372,0.13764
3926.36219,0.13342
3928.29066,0.12477
3930.21913,0.11765
3932.14760,0.11585
3934.07606,0.11899
3936.00453,0.12239
3937.93300,0.12402
3939.86147,0.12398
3941.78994,0.12426
3943.71841,0.12447
3945.64688,0.12179
3947.57535,0.11827
3949.50381,0.11599
3951.43228,0.11456
3953.36075,0.11611
3955.28922,0.11976
3957.21769,0.12182
3959.14616,0.12252
3961.07463,0.12215
3963.00309,0.12361
3964.93156,0.12812
3966.86003,0.12831
3968.78850,0.12327
3970.71697,0.12197
3972.64544,0.12554
3974.57391,0.12417
3976.50238,0.11683
3978.43084,0.11066
3980.35931,0.10654
3982.28778,0.10604
3984.21625,0.10975
3986.14472,0.11260
3988.07319,0.11245
3990.00166,0.11184
3991.93012,0.11200
3993.85859,0.11117
3995.78706,0.11268
3997.71553,0.11616
3999.64400,0.11241
4001.57247,0.10636
4003.50094,0.11008
4005.42941,0.11907
4007.35787,0.12151
4009.28634,0.11538
4011.21481,0.11112
4013.14328,0.11386
4015.07175,0.11673
4017.00022,0.11780
4018.92869,0.11871
4020.85715,0.11650
4022.78562,0.11171
4024.71409,0.10717
4026.64256,0.10452
4028.57103,0.10648
4030.49950,0.10947
4032.42797,0.10719
4034.35644,0.10481
4036.28490,0.10956
4038.21337,0.11502
4040.14184,0.11532
4042.07031,0.11397
4043.99878,0.11145
4045.92725,0.11072
4047.85572,0.11513
4049.78418,0.11701
4051.71265,0.11272
4053.64112,0.10931
4055.56959,0.11032
4057.49806,0.10983
4059.42653,0.10179
4061.35500,0.09391
4063.28346,0.09701
4065.21193,0.10374
4067.14040,0.10436
4069.06887,0.10084
4070.99734,0.09756
4072.92581,0.09897
4074.85428,0.10458
4076.78275,0.10915
4078.71121,0.11149
4080.63968,0.11210
4082.56815,0.10791
4084.49662,0.09850
4086.42509,0.09196
4088.35356,0.09363
4090.28203,0.09861
4092.21049,0.10129
4094.13896,0.10120
4096.06743,0.10003
4097.99590,0.09878
4099.92437,0.09709
4101.85284,0.09621
4103.78131,0.09740
4105.70978,0.09721
4107.63824,0.09374
4109.56671,0.08866
4111.49518,0.08497
4113.42365,0.08797
4115.35212,0.09368
4117.28059,0.09208
4119.20906,0.08927
4121.13752,0.09292
4123.06599,0.09452
4124.99446,0.08933
4126.92293,0.08573
4128.85140,0.08989
4130.77987,0.09346
4132.70834,0.09059
4134.63681,0.08906
4136.56527,0.09084
4138.49374,0.09324
4140.42221,0.09662
4142.35068,0.09880
4144.27915,0.09972
4146.20762,0.10103
4148.13609,0.10078
4150.06455,0.09953
4151.99302,0.09896
4153.92149,0.09604
4155.84996,0.09090
4157.77843,0.08777
4159.70690,0.08517
4161.63537,0.08063
4163.56384,0.07940
4165.49230,0.08549
4167.42077,0.09337
4169.34924,0.09689
4171.27771,0.09601
4173.20618,0.09254
4175.13465,0.08946
4177.06312,0.08863
4178.99158,0.08887
4180.92005,0.08927
4182.84852,0.08633
4184.77699,0.08004
4186.70546,0.07828
4188.63393,0.08418
4190.56240,0.09023
4192.49087,0.08761
4194.41933,0.07945
4196.34780,0.07470
4198.27627,0.07484
4200.20474,0.07755
4202.13321,0.08160
4204.06168,0.08275
4205.99015,0.07872
4207.91861,0.07629
4209.84708,0.07791
4211.77555,0.07871
4213.70402,0.07719
4215.63249,0.07230
4217.56096,0.06689
4219.48943,0.06828
4221.41789,0.07643
4223.34636,0.08428
4225.27483,0.08625
4227.20330,0.08187
4229.13177,0.07568
4231.06024,0.07323
4232.98871,0.07223
4234.91718,0.06738
4236.84564,0.06297
4238.77411,0.06571
4240.70258,0.07370
4242.63105,0.07906
4244.55952,0.07907
4246.48799,0.07873
4248.41646,0.08009
4250.34492,0.07966
4252.27339,0.07836
4254.20186,0.08027
4256.13033,0.08097
4258.05880,0.07805
4259.98727,0.07721
4261.91574,0.07651
4263.84421,0.07366
4265.77267,0.07252
4267.70114,0.07286
4269.62961,0.07365
4271.55808,0.07451
4273.48655,0.07280
4275.41502,0.06972
4277.34349,0.06732
4279.27195,0.06444
4281.20042,0.06437
4283.12889,0.07139
4285.05736,0.07762
4286.98583,0.07342
4288.91430,0.06353
4290.84277,0.05773
4292.77124,0.06152
4294.69970,0.06896
4296.62817,0.06890
4298.55664,0.06399
4300.48511,0.05979
4302.41358,0.05642
4304.34205,0.05464
4306.27052,0.05267
4308.19898,0.04859
4310.12745,0.04514
4312.05592,0.04769
4313.98439,0.05439
4315.91286,0.05462
4317.84133,0.04815
4319.76980,0.04788
4321.69827,0.05387
4323.62673,0.05602
4325.55520,0.05396
4327.48367,0.04990
4329.41214,0.04689
4331.34061,0.04949
4333.26908,0.05420
4335.19755,0.05483
4337.12601,0.05172
4339.05448,0.04897
4340.98295,0.05090
4342.91142,0.05730
4344.83989,0.06179
4346.76836,0.06480
4348.69683,0.07160
4350.62530,0.07215
4352.55376,0.05839
4354.48223,0.04422
4356.41070,0.03764
4358.33917,0.03408
4360.26764,0.03522
4362.19611,0.04135
4364.12458,0.04614
4366.05304,0.04795
4367.98151,0.05032
4369.90998,0.05015
4371.83845,0.04653
4373.76692,0.04840
4375.69539,0.05478
4377.62386,0.05005
4379.55232,0.03321
4381.48079,0.02583
4383.40926,0.03366
4385.33773,0.04005
4387.26620,0.03928
4389.19467,0.03996
4391.12314,0.04410
4393.05161,0.04404
4394.98007,0.03705
4396.90854,0.02671
4398.83701,0.02148
4400.76548,0.02587
4402.69395,0.02993
4404.62242,0.02798
4406.55089,0.02696
4408.47935,0.03027
4410.40782,0.03361
4412.33629,0.03668
4414.26476,0.03982
4416.19323,0.03822
4418.12170,0.03513
4420.05017,0.03607
4421.97864,0.04044
4423.90710,0.04499
4425.83557,0.04516
4427.76404,0.04180
4429.69251,0.03990
4431.62098,0.04037
4433.54945,0.03919
4435.47792,0.03747
4437.40638,0.03863
4439.33485,0.04101
4441.26332,0.04544
4443.19179,0.04789
4445.12026,0.04224
4447.04873,0.03551
4448.97720,0.03433
4450.90567,0.03515
4452.83413,0.03549
4454.76260,0.03663
4456.69107,0.03599
4458.61954,0.03026
4460.54801,0.02391
4462.47648,0.02302
4464.40495,0.02856
4466.33341,0.03671
4468.26188,0.03797
4470.19035,0.03012
4472.11882,0.02252
4474.04729,0.02213
4475.97576,0.02783
4477.90423,0.02792
4479.83270,0.01739
4481.76116,0.00883
4483.68963,0.00678
4485.61810,0.00654
4487.54657,0.01112
4489.47504,0.01848
4491.40351,0.02147
4493.33198,0.02084
4495.26044,0.01827
4497.18891,0.01312
4499.11738,0.01104
4501.04585,0.01718
4502.97432,0.02069
4504.90279,0.01402
4506.83126,0.00734
4508.75973,0.00465
4510.68819,0.00548
4512.61666,0.01517
4514.54513,0.02504
4516.47360,0.01919
4518.40207,0.00574
4520.33054,0.00408
4522.25901,0.01521
4524.18747,0.02437
4526.11594,0.02247
4528.04441,0.01478
4529.97288,0.00949
4531.90135,0.00856
4533.82982,0.00694
4535.75829,0.00380
4537.68676,0.00306
4539.61522,0.00069
4541.54369,-0.00184
4543.47216,0.00435
4545.40063,0.01254
4547.32910,0.00815
4549.25757,-0.00498
4551.18604,-0.00998
4553.11450,-0.00161
4555.04297,0.00725
4556.97144,0.00397
4558.89991,-0.00550
4560.82838,-0.00753
4562.75685,0.00053
4564.68532,0.01187
4566.61378,0.01885
4568.54225,0.01846
4570.47072,0.01387
4572.39919,0.00824
4574.32766,0.00149
4576.25613,-0.00082
4578.18460,0.00738
4580.11307,0.01922
4582.04153,0.02269
4583.97000,0.01431
4585.89847,0.00526
4587.82694,0.00940
4589.75541,0.01686
4591.68388,0.01340
4593.61235,0.00651
4595.54081,0.00254
4597.46928,0.00068
4599.39775,0.00262
4601.32622,0.00759
4603.25469,0.01061
4605.18316,0.00910
4607.11163,0.00767
4609.04010,0.01069
4610.96856,0.01856
4612.89703,0.02472
4614.82550,0.02317
4616.75397,0.01926
4618.68244,0.01357
4620.61091,0.00319
4622.53938,-0.00044
4624.46784,0.00222
4626.39631,0.00003
4628.32478,0.00130
4630.25325,0.00816
4632.18172,0.01400
4634.11019,0.01934
4636.03866,0.01778
4637.96713,0.00786
4639.89559,-0.00156
4641.82406,-0.00710
4643.75253,-0.00867
4645.68100,-0.00840
4647.60947,-0.01108
4649.53794,-0.00980
4651.46641,0.00245
4653.39487,0.01551
4655.32334,0.01772
4657.25181,0.00976
4659.18028,0.00074
4661.10875,-0.00476
4663.03722,-0.00632
4664.96569,-0.00264
4666.89416,0.00431
4668.82262,0.01230
4670.75109,0.01779
4672.67956,0.01186
4674.60803,-0.00175
4676.53650,-0.00767
4678.46497,-0.00520
4680.39344,0.00046
4682.32190,0.00530
4684.25037,0.00995
4686.17884,0.01867
4688.10731,0.02339
4690.03578,0.01572
4691.96425,-0.00115
4693.89272,-0.01321
4695.82119,-0.01211
4697.74965,-0.00478
4699.67812,0.00302
4701.60659,0.00714
4703.53506,0.00380
4705.46353,-0.00133
4707.39200,-0.00178
4709.32047,-0.00204
4711.24893,-0.00410
4713.17740,-0.00455
4715.10587,-0.00115
4717.03434,0.00676
4718.96281,0.01256
4720.89128,0.01217
4722.81975,0.01148
4724.74821,0.01183
4726.67668,0.00727
4728.60515,0.00266
4730.53362,0.00685
4732.46209,0.01167
4734.39056,0.01065
4736.31903,0.00889
4738.24750,0.00496
4740.17596,-0.00179
4742.10443,-0.00429
4744.03290,0.00190
4745.96137,0.01282
4747.88984,0.01768
4749.81831,0.01506
4751.74678,0.01219
4753.67524,0.00943
4755.60371,0.00461
4757.53218,0.00038
4759.46065,-0.00115
4761.38912,-0.00186
4763.31759,0.00592
4765.24606,0.02106
4767.17453,0.02598
4769.10299,0.01690
4771.03146,-0.00188
4772.95993,-0.01831
4774.88840,-0.02107
4776.81687,-0.01860
4778.74534,-0.01409
4780.67381,-0.00575
4782.60227,-0.00364
4784.53074,-0.00974
4786.45921,-0.01765
4788.38768,-0.02008
4790.31615,-0.00992
4792.24462,0.00187
4794.17309,0.00438
4796.10156,0.00608
4798.03002,0.00667
4799.95849,0.00450
4801.88696,0.00845
4803.81543,0.01566
4805.74390,0.01797
4807.67237,0.01282
4809.60084,0.00159
4811.52930,-0.00164
4813.45777,0.00575
4815.38624,0.00925
4817.31471,0.01080
4819.24318,0.01458
4821.17165,0.01572
4823.10012,0.01447
4825.02859,0.01098
4826.95705,0.00757
4828.88552,0.00382
4830.81399,0.00179
4832.74246,0.00858
4834.67093,0.01446
4836.59940,0.01328
4838.52787,0.01455
4840.45633,0.01738
4842.38480,0.01916
4844.31327,0.01921
4846.24174,0.01452
4848.17021,0.01339
4850.09868,0.02018
4852.02715,0.02097
4853.95562,0.01281
4855.88408,0.00863
4857.81255,0.00289
4859.74102,-0.01602
4861.66949,-0.02640
4863.59796,-0.01315
4865.52643,-0.00172
4867.45490,-0.00332
4869.38336,-0.00036
4871.31183,0.00874
4873.24030,0.01090
4875.16877,0.00922
4877.09724,0.01168
4879.02571,0.01242
4880.95418,0.00550
4882.88265,0.00137
4884.81111,0.00419
4886.73958,0.00299
4888.66805,-0.00606
4890.59652,-0.00881
4892.52499,0.00324
4894.45346,0.02098
4896.38193,0.03615
4898.31039,0.03892
4900.23886,0.01944
4902.16733,-0.00691
4904.09580,-0.01402
4906.02427,-0.00000
4907.95274,0.02120
4909.88121,0.03472
4911.80967,0.02710
4913.73814,0.01048
4915.66661,0.00483
4917.59508,0.01150
4919.52355,0.02254
4921.45202,0.02635
4923.38049,0.02160
4925.30896,0.01747
4927.23742,0.01285
4929.16589,-0.00067
4931.09436,-0.01027
4933.02283,-0.00200
4934.95130,0.00757
4936.87977,0.00820
4938.80824,0.00431
4940.73670,0.00058
4942.66517,-0.00325
4944.59364,-0.01061
4946.52211,-0.00767
4948.45058,0.01207
4950.37905,0.02532
4952.30752,0.01998
4954.23599,0.01616
4956.16445,0.01856
4958.09292,0.00939
4960.02139,-0.00551
4961.94986,-0.00887
4963.87833,-0.00347
4965.80680,0.00090
4967.73527,0.00688
4969.66373,0.01529
4971.59220,0.02115
4973.52067,0.02119
4975.44914,0.00950
4977.37761,-0.00335
4979.30608,0.00147
4981.23455,0.01836
4983.16302,0.02486
4985.09148,0.01308
4987.01995,0.00530
4988.94842,0.01614
4990.87689,0.02479
4992.80536,0.02076
4994.73383,0.01525
4996.66230,0.01292
4998.59076,0.01376
5000.51923,0.00891
5002.44770,-0.00170
5004.37617,-0.00227
5006.30464,0.00344
5008.23311,0.00488
5010.16158,0.00530
5012.09005,0.00199
5014.01851,-0.00588
5015.94698,-0.00738
5017.87545,-0.00092
5019.80392,0.00985
5021.73239,0.01711
5023.66086,0.01297
5025.58933,0.01618
5027.51779,0.03337
5029.44626,0.03448
5031.37473,0.01595
5033.30320,0.00540
5035.23167,0.00732
5037.16014,0.00683
5039.08861,0.00437
5041.01708,0.01165
5042.94554,0.01853
5044.87401,0.01077
5046.80248,0.00131
5048.73095,0.00418
5050.65942,0.01626
5052.58789,0.02440
5054.51636,0.02385
5056.44482,0.02783
5058.37329,0.03966
5060.30176,0.04462
5062.23023,0.03919
5064.15870,0.03405
5066.08717,0.02867
5068.01564,0.02221
5069.94410,0.02449
5071.87257,0.03027
5073.80104,0.02152
5075.72951,0.00311
5077.65798,-0.00385
5079.58645,0.00643
5081.51492,0.02291
5083.44339,0.02736
5085.37185,0.01677
5087.30032,0.00324
5089.22879,-0.00413
5091.15726,0.00271
5093.08573,0.01953
5095.01420,0.03058
5096.94267,0.02900
5098.87113,0.02478
5100.79960,0.03070
5102.72807,0.04052
5104.65654,0.04473
5106.58501,0.04303
5108.51348,0.02823
5110.44195,0.01014
5112.37042,0.01458
5114.29888,0.02734
5116.22735,0.02604
5118.15582,0.02078
5120.08429,0.01147
5122.01276,-0.00327
5123.94123,-0.00184
5125.86970,0.01411
5127.79816,0.02561
5129.72663,0.03665
5131.65510,0.04445
5133.58357,0.05271
5135.51204,0.07218
5137.44051,0.07080
5139.36898,0.03282
5141.29745,0.00191
5143.22591,0.00867
5145.15438,0.02938
5147.08285,0.03806
5149.01132,0.03959
5150.93979,0.04046
5152.86826,0.04418
5154.79673,0.04699
5156.72519,0.04306
5158.65366,0.04565
5160.58213,0.05857
5162.51060,0.05873
5164.43907,0.03695
5166.36754,0.02826
5168.29601,0.05039
5170.22448,0.06534
5172.15294,0.05239
5174.08141,0.03550
5176.00988,0.02306
5177.93835,0.00896
5179.86682,0.00445
5181.79529,0.01868
5183.72376,0.03261
5185.65222,0.03546
5187.58069,0.04443
5189.50916,0.05728
5191.43763,0.05525
5193.36610,0.04055
5195.29457,0.02423
5197.22304,0.00782
5199.15151,0.00234
5201.07997,0.01908
5203.00844,0.04105
5204.93691,0.05123
5206.86538,0.05697
5208.79385,0.06144
5210.72232,0.05371
5212.65079,0.04450
5214.57925,0.05497
5216.50772,0.07964
5218.43619,0.09609
5220.36466,0.08412
5222.29313,0.04924
5224.22160,0.02942
5226.15007,0.03918
5228.07854,0.05406
5230.00700,0.05799
5231.93547,0.03944
5233.86394,0.01304
5235.79241,0.01357
5237.72088,0.03041
5239.64935,0.04080
5241.57782,0.04840
5243.50628,0.04697
5245.43475,0.03724
5247.36322,0.03537
5249.29169,0.03271
5251.22016,0.03336
5253.14863,0.04498
5255.07710,0.04346
5257.00556,0.02542
5258.93403,0.01539
5260.86250,0.02280
5262.79097,0.03758
5264.71944,0.04294
5266.64791,0.04307
5268.57638,0.05388
5270.50485,0.06140
5272.43331,0.05473
5274.36178,0.05732
5276.29025,0.06871
5278.21872,0.06674
5280.14719,0.05835
5282.07566,0.05332
5284.00413,0.04323
5285.93259,0.03477
5287.86106,0.04875
5289.78953,0.07625
5291.71800,0.08203
5293.64647,0.06493
5295.57494,0.04372
5297.50341,0.02778
5299.43188,0.02861
5301.36034,0.03485
5303.28881,0.03915
5305.21728,0.05704
5307.14575,0.07319
5309.07422,0.06474
5311.00269,0.04829
5312.93116,0.03993
5314.85962,0.04123
5316.78809,0.05102
5318.71656,0.06492
5320.64503,0.07425
5322.57350,0.06257
5324.50197,0.04631
5326.43044,0.06096
5328.35891,0.08546
5330.28737,0.08629
5332.21584,0.07309
5334.14431,0.06206
5336.07278,0.05715
5338.00125,0.06367
5339.92972,0.07976
5341.85819,0.09097
5343.78665,0.10668
5345.71512,0.11575
5347.64359,0.08409
5349.57206,0.04757
5351.50053,0.04814
5353.42900,0.05919
5355.35747,0.05215
5357.28594,0.04775
5359.21440,0.05500
5361.14287,0.07052
5363.07134,0.09357
5364.99981,0.10767
5366.92828,0.10008
5368.85675,0.08906
5370.78522,0.08742
5372.71368,0.09276
5374.64215,0.09895
5376.57062,0.08641
5378.49909,0.06431
5380.42756,0.05512
5382.35603,0.05235
5384.28450,0.05577
5386.21297,0.06056
5388.14143,0.05285
5390.06990,0.03886
5391.99837,0.03090
5393.92684,0.03448
5395.85531,0.03842
5397.78378,0.04367
5399.71225,0.06705
5401.64071,0.09793
5403.56918,0.10097
5405.49765,0.07099
5407.42612,0.05245
5409.35459,0.06364
5411.28306,0.07320
5413.21153,0.06374
5415.13999,0.05068
5417.06846,0.04855
5418.99693,0.05643
5420.92540,0.05751
5422.85387,0.04781
5424.78234,0.06349
5426.71081,0.10160
5428.63928,0.10238
5430.56774,0.07545
5432.49621,0.06859
5434.42468,0.06223
5436.35315,0.04417
5438.28162,0.04273
5440.21009,0.06686
5442.13856,0.09630
5444.06702,0.10572
5445.99549,0.10132
5447.92396,0.09764
5449.85243,0.07953
5451.78090,0.04701
5453.70937,0.02181
5455.63784,0.01898
5457.56631,0.04582
5459.49477,0.08241
5461.42324,0.10796
5463.35171,0.10805
5465.28018,0.07691
5467.20865,0.05978
5469.13712,0.08807
5471.06559,0.12148
5472.99405,0.13673
5474.92252,0.12632
5476.85099,0.08157
5478.77946,0.04163
5480.70793,0.03654
5482.63640,0.06441
5484.56487,0.09225
5486.49334,0.08849
5488.42180,0.06709
5490.35027,0.05792
5492.27874,0.06323
5494.20721,0.06258
5496.13568,0.05553
5498.06415,0.06301
5499.99262,0.07830
5501.92108,0.07678
5503.84955,0.07044
5505.77802,0.07671
5507.70649,0.08873
5509.63496,0.09550
5511.56343,0.09533
5513.49190,0.09000
5515.42037,0.07975
5517.34883,0.07592
5519.27730,0.08009
5521.20577,0.07290
5523.13424,0.05773
5525.06271,0.05814
5526.99118,0.06063
5528.91965,0.03526
5530.84811,0.01559
5532.77658,0.04211
5534.70505,0.07387
5536.63352,0.07303
5538.56199,0.06572
5540.49046,0.06842
5542.41893,0.06470
5544.34740,0.05757
5546.27586,0.06185
5548.20433,0.06979
5550.13280,0.06798
5552.06127,0.05545
5553.98974,0.04017
5555.91821,0.03679
5557.84668,0.04852
5559.77514,0.06092
5561.70361,0.06468
5563.63208,0.06228
5565.56055,0.05979
5567.48902,0.05729
5569.41749,0.04756
5571.34596,0.03731
5573.27443,0.04766
5575.20289,0.07299
5577.13136,0.09357
5579.05983,0.11106
5580.98830,0.11401
5582.91677,0.09351
5584.84524,0.08188
5586.77371,0.09029
5588.70217,0.08870
5590.63064,0.06604
5592.55911,0.04613
5594.48758,0.03852
5596.41605,0.03008
5598.34452,0.03152
5600.27299,0.06061
5602.20145,0.09180
5604.12992,0.09368
5606.05839,0.08091
5607.98686,0.08807
5609.91533,0.10185
5611.84380,0.09537
5613.77227,0.08632
5615.70074,0.08230
5617.62920,0.06914
5619.55767,0.04438
5621.48614,0.02843
5623.41461,0.04608
5625.34308,0.07836
5627.27155,0.10183
5629.20002,0.11752
5631.12848,0.11004
5633.05695,0.08122
5634.98542,0.06331
5636.91389,0.07403
5638.84236,0.08682
5640.77083,0.07742
5642.69930,0.07427
5644.62777,0.08844
5646.55623,0.09283
5648.48470,0.08496
5650.41317,0.07898
5652.34164,0.07084
5654.27011,0.05387
5656.19858,0.04505
5658.12705,0.05787
5660.05551,0.08322
5661.98398,0.09526
5663.91245,0.06652
5665.84092,0.03245
5667.76939,0.04775
5669.69786,0.08403
5671.62633,0.09319
5673.55480,0.08362
5675.48326,0.06484
5677.41173,0.04359
5679.34020,0.04256
5681.26867,0.04942
5683.19714,0.05923
5685.12561,0.08927
5687.05408,0.10923
5688.98254,0.10378
5690.91101,0.11144
5692.83948,0.12221
5694.76795,0.11447
5696.69642,0.11837
5698.62489,0.13207
5700.55336,0.12658
5702.48183,0.12728
5704.41029,0.15353
5706.33876,0.16475
5708.26723,0.13254
5710.19570,0.08643
5712.12417,0.06644
5714.05264,0.07070
5715.98111,0.06805
5717.90957,0.05811
5719.83804,0.06537
5721.76651,0.08015
5723.69498,0.07995
5725.62345,0.07459
5727.55192,0.07237
5729.48039,0.06871
5731.40886,0.06721
5733.33732,0.06440
5735.26579,0.06289
5737.19426,0.06423
5739.12273,0.05805
5741.05120,0.05398
5742.97967,0.05844
5744.90814,0.06965
5746.83660,0.07775
5748.76507,0.07577
5750.69354,0.07989
5752.62201,0.08352
5754.55048,0.07961
5756.47895,0.07893
5758.40742,0.08051
5760.33588,0.09167
5762.26435,0.11318
5764.19282,0.12658
5766.12129,0.12238
5768.04976,0.09513
5769.97823,0.05372
5771.90670,0.04479
5773.83517,0.07280
5775.76363,0.09632
5777.69210,0.10471
5779.62057,0.09393
5781.54904,0.08095
5783.47751,0.09675
5785.40598,0.11859
5787.33445,0.10513
5789.26291,0.08890
5791.19138,0.11621
5793.11985,0.14890
5795.04832,0.13840
5796.97679,0.10497
5798.90526,0.09479
5800.83373,0.10430
5802.76220,0.11414
5804.69066,0.12941
5806.61913,0.14319
5808.54760,0.13986
5810.47607,0.12529
5812.40454,0.11567
5814.33301,0.10550
5816.26148,0.08922
5818.18994,0.08727
5820.11841,0.09231
5822.04688,0.07438
5823.97535,0.06899
5825.90382,0.12109
5827.83229,0.17772
5829.76076,0.16793
5831.68923,0.11890
5833.61769,0.08762
5835.54616,0.08375
5837.47463,0.08675
5839.40310,0.09002
5841.33157,0.10487
5843.26004,0.10757
5845.18851,0.09153
5847.11697,0.09015
5849.04544,0.08986
5850.97391,0.07442
5852.90238,0.06753
5854.83085,0.08239
5856.75932,0.09714
5858.68779,0.08036
5860.61626,0.05428
5862.54472,0.04916
5864.47319,0.04761
5866.40166,0.03923
5868.33013,0.04011
5870.25860,0.03456
5872.18707,0.02423
5874.11554,0.05608
5876.04400,0.11039
5877.97247,0.13669
5879.90094,0.13521
5881.82941,0.11496
5883.75788,0.10282
5885.68635,0.11721
5887.61482,0.14097
5889.54329,0.14661
5891.47175,0.13357
5893.40022,0.11605
5895.32869,0.08450
5897.25716,0.05568
5899.18563,0.07231
5901.11410,0.12725
5903.04257,0.16393
5904.97103,0.15569
5906.89950,0.12224
5908.82797,0.07495
5910.75644,0.05655
5912.68491,0.08347
5914.61338,0.09736
5916.54185,0.09182
5918.47032,0.09817
5920.39878,0.09480
5922.32725,0.06538
5924.25572,0.06887
5926.18419,0.12600
5928.11266,0.15146
5930.04113,0.12230
5931.96960,0.09016
5933.89806,0.07190
5935.82653,0.05793
5937.75500,0.04974
5939.68347,0.05790
5941.61194,0.05787
5943.54041,0.03808
5945.46888,0.04095
5947.39734,0.07984
5949.32581,0.11634
5951.25428,0.11156
5953.18275,0.08315
5955.11122,0.08613
5957.03969,0.12076
5958.96816,0.12434
5960.89663,0.09820
5962.82509,0.10808
5964.75356,0.13930
5966.68203,0.13568
5968.61050,0.09300
5970.53897,0.05547
5972.46744,0.04598
5974.39591,0.04504
5976.32437,0.05505
5978.25284,0.08254
5980.18131,0.08490
5982.10978,0.07275
5984.03825,0.10025
5985.96672,0.12583
5987.89519,0.12073
5989.82366,0.12881
5991.75212,0.14743
5993.68059,0.15278
5995.60906,0.14140
5997.53753,0.12637
5999.46600,0.10988
6001.39447,0.08957
6003.32294,0.07872
6005.25140,0.08068
6007.17987,0.08350
6009.10834,0.07681
6011.03681,0.07990
6012.96528,0.11467
6014.89375,0.14433
6016.82222,0.14861
6018.75069,0.16259
6020.67915,0.15310
6022.60762,0.09975
6024.53609,0.05818
6026.46456,0.02675
6028.39303,0.01120
6030.32150,0.04352
6032.24997,0.08607
6034.17843,0.08246
6036.10690,0.05204
6038.03537,0.05804
6039.96384,0.07875
6041.89231,0.08478
6043.82078,0.10116
6045.74925,0.11047
6047.67772,0.08475
6049.60618,0.06745
6051.53465,0.10119
6053.46312,0.14756
6055.39159,0.15696
6057.32006,0.13212
6059.24853,0.10787
6061.17700,0.10965
6063.10546,0.13139
6065.03393,0.13014
6066.96240,0.10844
6068.89087,0.10150
6070.81934,0.10088
6072.74781,0.10330
6074.67628,0.11883
6076.60475,0.11812
6078.53321,0.09421
6080.46168,0.08392
6082.39015,0.09494
6084.31862,0.10766
6086.24709,0.11821
6088.17556,0.14471
6090.10403,0.16778
6092.03249,0.14183
6093.96096,0.10151
6095.88943,0.12185
6097.81790,0.17515
6099.74637,0.15933
6101.67484,0.07815
6103.60331,0.03512
6105.53177,0.05841
6107.46024,0.11586
6109.38871,0.15697
6111.31718,0.14428
6113.24565,0.12397
6115.17412,0.12043
6117.10259,0.11174
6119.03106,0.11050
6120.95952,0.10282
6122.88799,0.08826
6124.81646,0.10409
6126.74493,0.13166
6128.67340,0.14771
6130.60187,0.15890
6132.53034,0.18130
6134.45880,0.21987
6136.38727,0.22750
6138.31574,0.17141
6140.24421,0.08644
6142.17268,0.03498
6144.10115,0.04732
6146.02962,0.07196
6147.95809,0.05952
6149.88655,0.05925
6151.81502,0.11776
6153.74349,0.16604
6155.67196,0.14620
6157.60043,0.11255
6159.52890,0.11037
6161.45737,0.10473
6163.38583,0.07962
6165.31430,0.06563
6167.24277,0.07892
6169.17124,0.12358
6171.09971,0.17225
6173.02818,0.17410
6174.95665,0.11951
6176.88512,0.04745
6178.81358,0.00581
6180.74205,0.02322
6182.67052,0.08639
6184.59899,0.13688
6186.52746,0.14055
6188.45593,0.09809
6190.38440,0.05631
6192.31286,0.07289
6194.24133,0.11163
6196.16980,0.10232
6198.09827,0.08200
6200.02674,0.11390
6201.95521,0.14246
6203.88368,0.12713
6205.81215,0.11374
6207.74061,0.11240
6209.66908,0.13399
6211.59755,0.18201
6213.52602,0.19329
6215.45449,0.14511
6217.38296,0.08946
6219.31143,0.07518
6221.23989,0.08403
6223.16836,0.09207
6225.09683,0.09016
6227.02530,0.07527
6228.95377,0.08368
6230.88224,0.11918
6232.81071,0.10178
6234.73918,0.03497
6236.66764,0.01647
6238.59611,0.02603
6240.52458,0.00944
6242.45305,0.02826
6244.38152,0.10676
6246.30999,0.14065
6248.23846,0.09992
6250.16692,0.06765
6252.09539,0.04929
6254.02386,0.01736
6255.95233,0.03833
6257.88080,0.09356
6259.80927,0.08059
6261.73774,0.04557
6263.66621,0.08568
6265.59467,0.17018
6267.52314,0.20599
6269.45161,0.17941
6271.38008,0.13192
6273.30855,0.09357
6275.23702,0.09013
6277.16549,0.11407
6279.09395,0.12652
6281.02242,0.12015
6282.95089,0.12120
6284.87936,0.12522
6286.80783,0.10903
6288.73630,0.09186
6290.66477,0.10452
6292.59323,0.13073
6294.52170,0.12639
6296.45017,0.11818
6298.37864,0.14242
6300.30711,0.15469
6302.23558,0.12220
6304.16405,0.07016
6306.09252,0.02734
6308.02098,0.01979
6309.94945,0.04909
6311.87792,0.05686
6313.80639,0.04274
6315.73486,0.06493
6317.66333,0.06756
6319.59180,0.02660
6321.52026,0.04994
6323.44873,0.13868
6325.37720,0.18630
6327.30567,0.17532
6329.23414,0.13420
6331.16261,0.10101
6333.09108,0.12128
6335.01955,0.16705
6336.94801,0.16529
6338.87648,0.09007
6340.80495,0.02257
6342.73342,0.05286
6344.66189,0.13833
6346.59036,0.15805
6348.51883,0.07575
6350.44729,0.03070
6352.37576,0.07407
6354.30423,0.05960
6356.23270,-0.01806
6358.16117,-0.04887
6360.08964,0.00688
6362.01811,0.10235
6363.94658,0.13050
6365.87504,0.04300
6367.80351,-0.01634
6369.73198,0.03717
6371.66045,0.08792
6373.58892,0.10474
6375.51739,0.12587
6377.44586,0.08995
6379.37432,0.02662
6381.30279,0.04607
6383.23126,0.10179
6385.15973,0.07691
6387.08820,0.01150
6389.01667,-0.03235
6390.94514,-0.04495
6392.87361,-0.04195
6394.80207,-0.04556
6396.73054,-0.03234
6398.65901,0.02067
6400.58748,0.07170
6402.51595,0.08007
6404.44442,0.07785
6406.37289,0.07972
6408.30135,0.09089
6410.22982,0.11816
6412.15829,0.10615
6414.08676,0.08260
6416.01523,0.09802
6417.94370,0.09813
6419.87217,0.05624
6421.80064,0.02095
6423.72910,0.02080
6425.65757,0.03539
6427.58604,0.05966
6429.51451,0.09304
6431.44298,0.10943
6433.37145,0.12808
6435.29992,0.13807
6437.22838,0.10941
6439.15685,0.06787
6441.08532,0.07249
6443.01379,0.13257
6444.94226,0.15408
6446.87073,0.11687
6448.79920,0.09195
6450.72766,0.06829
6452.65613,0.00629
6454.58460,-0.07128
6456.51307,-0.10072
6458.44154,-0.05628
6460.37001,-0.01488
6462.29848,-0.01012
6464.22695,0.03630
6466.15541,0.13938
6468.08388,0.18735
6470.01235,0.12478
6471.94082,0.07817
6473.86929,0.12029
6475.79776,0.15703
6477.72623,0.16033
6479.65469,0.14759
6481.58316,0.08820
6483.51163,0.02610
6485.44010,-0.00160
6487.36857,-0.00597
6489.29704,0.03206
6491.22551,0.06811
6493.15398,0.05089
6495.08244,0.02945
6497.01091,0.01020
6498.93938,-0.02985
6500.86785,-0.07331
6502.79632,-0.07859
6504.72479,-0.05080
6506.65326,-0.01409
6508.58172,0.06133
6510.51019,0.13427
6512.43866,0.11632
6514.36713,0.04949
6516.29560,0.02038
6518.22407,0.03951
6520.15254,0.04699
6522.08101,0.02861
6524.00947,0.02353
6525.93794,0.02146
6527.86641,0.01156
6529.79488,0.04859
6531.72335,0.12193
6533.65182,0.12259
6535.58029,0.03630
6537.50875,-0.02028
6539.43722,0.00559
6541.36569,0.06770
6543.29416,0.10840
6545.22263,0.07305
6547.15110,0.00105
6549.07957,-0.01748
6551.00804,0.02820
6552.93650,0.05993
6554.86497,0.04117
6556.79344,0.03797
6558.72191,0.07399
6560.65038,0.08753
6562.57885,0.09341
6564.50732,0.10089
6566.43578,0.06941
6568.36425,0.05568
6570.29272,0.07669
6572.22119,0.06204
6574.14966,0.01029
6576.07813,-0.02708
6578.00660,-0.01700
6579.93507,0.03608
6581.86353,0.11207
6583.79200,0.17901
6585.72047,0.18166
6587.64894,0.11542
6589.57741,0.04713
6591.50588,0.04266
6593.43435,0.09056
6595.36281,0.12408
6597.29128,0.15088
6599.21975,0.21115
6601.14822,0.25624
6603.07669,0.22646
6605.00516,0.15411
6606.93363,0.08603
6608.86210,0.03245
6610.79056,-0.00534
6612.71903,0.00517
6614.64750,0.06216
6616.57597,0.12042
6618.50444,0.13339
6620.43291,0.08399
6622.36138,0.04330
6624.28984,0.05995
6626.21831,0.02714
6628.14678,-0.10149
6630.07525,-0.16347
6632.00372,-0.06563
6633.93219,0.06167
6635.86066,0.07260
6637.78912,-0.00431
6639.71759,-0.03251
6641.64606,-0.00528
6643.57453,0.04374
6645.50300,0.05292
6647.43147,-0.02393
6649.35994,-0.05379
6651.28841,0.00585
6653.21687,0.01528
6655.14534,-0.03712
6657.07381,-0.02826
6659.00228,0.03894
6660.93075,0.09722
6662.85922,0.14985
6664.78769,0.16945
6666.71615,0.15209
6668.64462,0.14695
6670.57309,0.13783
6672.50156,0.06697
6674.43003,-0.02630
6676.35850,-0.01702
6678.28697,0.09362
6680.21544,0.12076
6682.14390,0.04506
6684.07237,0.02771
6686.00084,0.08308
6687.92931,0.10189
6689.85778,0.03489
6691.78625,-0.02916
6693.71472,-0.02063
6695.64318,0.02902
6697.57165,0.10202
6699.50012,0.18207
6701.42859,0.18345
6703.35706,0.11820
6705.28553,0.09073
6707.21400,0.10863
6709.14247,0.14543
6711.07093,0.16081
6712.99940,0.14627
6714.92787,0.12699
6716.85634,0.08392
6718.78481,0.02958
6720.71328,0.01320
6722.64175,0.02171
6724.57021,0.00344
6726.49868,-0.02163
6728.42715,-0.01193
6730.35562,-0.03217
6732.28409,-0.08482
6734.21256,-0.04926
6736.14103,0.03344
6738.06950,0.07579
6739.99796,0.12876
6741.92643,0.20309
6743.85490,0.22815
6745.78337,0.19129
6747.71184,0.13916
6749.64031,0.09514
6751.56878,0.06095
6753.49724,0.08076
6755.42571,0.09508
6757.35418,0.02788
6759.28265,0.02144
6761.21112,0.11366
6763.13959,0.14651
6765.06806,0.15804
6766.99653,0.13419
6768.92499,0.02815
6770.85346,-0.01771
6772.78193,0.07032
6774.71040,0.18988
6776.63887,0.23754
6778.56734,0.20697
6780.49581,0.12253
6782.42427,0.02895
6784.35274,-0.01786
6786.28121,-0.00761
6788.20968,0.05605
6790.13815,0.12339
6792.06662,0.13279
6793.99509,0.10473
6795.92355,0.06869
6797.85202,0.01134
6799.78049,-0.06404
6801.70896,-0.10048
6803.63743,-0.02388
6805.56590,0.09802
6807.49437,0.13632
6809.42284,0.12866
6811.35130,0.09418
6813.27977,0.01940
6815.20824,0.02769
6817.13671,0.13229
6819.06518,0.15343
6820.99365,0.06135
6822.92212,-0.01615
6824.85058,-0.01945
6826.77905,-0.00546
6828.70752,0.01604
6830.63599,0.07248
6832.56446,0.12950
6834.49293,0.11273
6836.42140,0.05388
6838.34987,0.04512
6840.27833,0.06934
6842.20680,0.07305
6844.13527,0.04607
6846.06374,0.01860
6847.99221,0.02359
6849.92068,0.06956
6851.84915,0.15384
6853.77761,0.24182
6855.70608,0.23727
6857.63455,0.13269
6859.56302,0.05094
6861.49149,0.04489
6863.41996,0.03048
6865.34843,-0.05519
6867.27690,-0.07965
6869.20536,0.02363
6871.13383,0.12136
6873.06230,0.12715
6874.99077,0.09462
6876.91924,0.06874
6878.84771,0.03136
6880.77618,-0.00770
6882.70464,-0.01434
6884.63311,0.04226
6886.56158,0.13695
6888.49005,0.18346
6890.41852,0.16780
6892.34699,0.12305
6894.27546,0.07321
6896.20393,0.04298
6898.13239,0.00930
6900.06086,-0.01958
6901.98933,0.00674
6903.91780,0.02019
6905.84627,-0.00405
6907.77474,0.04393
6909.70321,0.10699
6911.63167,0.08277
6913.56014,0.02224
6915.48861,0.03662
6917.41708,0.13265
6919.34555,0.19038
6921.27402,0.15212
6923.20249,0.13333
6925.13096,0.16074
6927.05942,0.14070
6928.98789,0.00048
6930.91636,-0.15484
6932.84483,-0.15416
6934.77330,-0.07320
6936.70177,-0.03157
6938.63024,-0.06201
6940.55870,-0.14468
6942.48717,-0.15724
6944.41564,-0.08445
6946.34411,0.05208
6948.27258,0.16709
6950.20105,0.12661
6952.12952,0.00354
6954.05799,-0.04247
6955.98645,0.04610
6957.91492,0.14686
6959.84339,0.15112
6961.77186,0.11284
6963.70033,0.09686
6965.62880,0.08396
6967.55727,0.08091
6969.48573,0.17939
6971.41420,0.34829
6973.34267,0.38488
6975.27114,0.24756
6977.19961,0.09789
6979.12808,0.03522
6981.05655,0.01710
6982.98501,-0.05510
6984.91348,-0.15646
6986.84195,-0.17841
6988.77042,-0.07406
6990.69889,0.09693
6992.62736,0.21458
6994.55583,0.24169
6996.48430,0.17111
6998.41276,0.01707
7000.34123,-0.08805
7002.26970,-0.07416
7004.19817,-0.02478
7006.12664,0.02051
7008.05511,0.08975
7009.98358,0.14161
7011.91204,0.14636
7013.84051,0.16908
7015.76898,0.18445
7017.69745,0.09670
7019.62592,-0.02767
7021.55439,-0.06434
7023.48286,-0.02114
7025.41133,0.02727
7027.33979,0.06107
7029.26826,0.07746
7031.19673,0.08071
7033.12520,0.09392
7035.05367,0.05434
7036.98214,-0.03772
7038.91061,-0.07220
7040.83907,-0.07313
7042.76754,-0.12936
7044.69601,-0.12765
7046.62448,0.01836
7048.55295,0.04476
7050.48142,-0.04802
7052.40989,0.00361
7054.33836,0.14868
7056.26682,0.20724
7058.19529,0.18964
7060.12376,0.19671
7062.05223,0.28084
7063.98070,0.39630
7065.90917,0.36809
7067.83764,0.15783
7069.76610,-0.01705
7071.69457,-0.02241
7073.62304,-0.05282
7075.55151,-0.14218
7077.47998,-0.13956
7079.40845,-0.00892
7081.33692,0.10632
7083.26539,0.07458
7085.19385,0.05197
7087.12232,0.13594
7089.05079,0.15031
7090.97926,0.10722
7092.90773,0.16709
7094.83620,0.17671
7096.76467,0.06595
7098.69313,0.04933
7100.62160,0.17405
7102.55007,0.21195
7104.47854,0.08931
7106.40701,-0.04897
7108.33548,-0.11000
7110.26395,-0.14593
7112.19242,-0.15105
7114.12088,-0.11116
7116.04935,-0.04724
7117.97782,0.07147
7119.90629,0.17675
7121.83476,0.13560
7123.76323,-0.01932
7125.69170,-0.14062
7127.62016,-0.10830
7129.54863,-0.05532
7131.47710,-0.12139
7133.40557,-0.13510
7135.33404,-0.00304
7137.26251,0.10859
7139.19098,0.08012
7141.11944,-0.06462
7143.04791,-0.18194
7144.97638,-0.13281
7146.90485,0.09010
7148.83332,0.26174
7150.76179,0.27411
7152.69026,0.21914
7154.61873,0.13670
7156.54719,0.08861
7158.47566,0.13953
7160.40413,0.17917
7162.33260,0.09503
7164.26107,-0.04217
7166.18954,-0.02792
7168.11801,0.15624
7170.04647,0.23299
7171.97494,0.13114
7173.90341,0.05114
7175.83188,-0.03175
7177.76035,-0.14814
7179.68882,-0.19628
7181.61729,-0.24977
7183.54576,-0.31140
7185.47422,-0.22108
7187.40269,-0.05973
7189.33116,0.06669
7191.25963,0.10090
7193.18810,0.04579
7195.11657,0.01087
7197.04504,0.04423
7198.97350,0.14114
7200.90197,0.27704
7202.83044,0.36622
7204.75891,0.30152
7206.68738,0.15610
7208.61585,0.02316
7210.54432,-0.07156
7212.47279,-0.06670
7214.40125,-0.02295
7216.32972,0.07260
7218.25819,0.32563
7220.18666,0.43130
7222.11513,0.28463
7224.04360,0.17066
7225.97207,0.17458
7227.90053,0.13762
7229.82900,0.04519
7231.75747,-0.02878
7233.68594,-0.01313
7235.61441,0.10753
7237.54288,0.18375
7239.47135,0.08883
7241.39982,-0.07234
7243.32828,-0.18566
7245.25675,-0.24868
7247.18522,-0.25054
7249.11369,-0.10956
7251.04216,0.15791
7252.97063,0.29674
7254.89910,0.17587
7256.82756,0.15206
7258.75603,0.34856
7260.68450,0.47301
7262.61297,0.20764
7264.54144,-0.07613
7266.46991,-0.10824
7268.39838,-0.09351
7270.32685,-0.15187
7272.25531,-0.17795
7274.18378,-0.09075
7276.11225,-0.02145
7278.04072,0.03236
7279.96919,0.01518
7281.89766,-0.11831
7283.82613,-0.14705
7285.75459,-0.01728
7287.68306,0.17784
7289.61153,0.25205
7291.54000,0.10506
7293.46847,-0.01745
7295.39694,-0.02471
7297.32541,0.00188
7299.25387,0.08117
7301.18234,0.17030
7303.11081,0.13232
7305.03928,-0.00253
7306.96775,-0.01271
7308.89622,0.02474
7310.82469,-0.01288
7312.75316,0.06701
7314.68162,0.17834
7316.61009,0.13065
7318.53856,-0.00518
7320.46703,-0.04195
7322.39550,0.03447
7324.32397,0.08860
7326.25244,0.03822
7328.18090,0.01024
7330.10937,0.01937
7332.03784,-0.06373
7333.96631,-0.11144
7335.89478,-0.06576
7337.82325,-0.01366
7339.75172,0.01731
7341.68019,0.07482
7343.60865,0.17014
7345.53712,0.20639
7347.46559,0.10677
7349.39406,-0.03516
7351.32253,-0.09420
7353.25100,-0.09020
7355.17947,-0.07138
7357.10793,-0.02217
7359.03640,0.07294
7360.96487,0.17823
7362.89334,0.21922
7364.82181,0.22562
7366.75028,0.22366
7368.67875,0.19533
7370.60722,0.16055
7372.53568,0.11952
7374.46415,0.16554
7376.39262,0.23209
7378.32109,0.05725
7380.24956,-0.16472
7382.17803,-0.25337
7384.10650,-0.26280
7386.03496,-0.26333
7387.96343,-0.24233
7389.89190,-0.14005
7391.82037,0.03577
7393.74884,0.16281
7395.67731,0.16593
7397.60578,0.18358
7399.53425,0.26837
7401.46271,0.35044
7403.39118,0.38344
7405.31965,0.23228
7407.24812,-0.01235
7409.17659,-0.08103
7411.10506,-0.02353
7413.03353,-0.10678
7414.96199,-0.28178
7416.89046,-0.25559
7418.81893,0.03596
7420.74740,0.23579
7422.67587,0.21150
7424.60434,0.13737
7426.53281,0.14799
7428.46128,0.20670
7430.38974,0.20153
7432.31821,0.11485
7434.24668,-0.03482
7436.17515,-0.13606
7438.10362,-0.09273
7440.03209,0.02119
7441.96056,0.07360
7443.88902,0.07220
7445.81749,0.11412
7447.74596,0.11514
7449.67443,0.08982
7451.60290,0.22916
7453.53137,0.36853
7455.45984,0.32549
7457.38831,0.18241
7459.31677,0.02647
7461.24524,0.07064
7463.17371,0.17033
7465.10218,0.08437
7467.03065,0.09579
7468.95912,0.25998
7470.88759,0.24481
7472.81605,0.05520
7474.74452,-0.02483
7476.67299,0.00961
7478.60146,0.02489
7480.52993,-0.05938
7482.45840,-0.11120
7484.38687,-0.07215
7486.31533,-0.09140
7488.24380,-0.11517
7490.17227,-0.02842
7492.10074,-0.01468
7494.02921,-0.09008
7495.95768,-0.07961
7497.88615,-0.04280
