399.19301,-0.01057
401.12148,0.44560
403.04995,0.70221
404.97842,0.38837
406.90689,0.05892
408.83536,-0.05507
410.76382,-0.04874
412.69229,-0.03199
414.62076,-0.00103
416.54923,0.02256
418.47770,0.08819
420.40617,0.13698
422.33464,0.09243
424.26311,0.06800
426.19157,0.05533
428.12004,-0.01976
430.04851,-0.16330
431.97698,-0.21601
433.90545,-0.06399
435.83392,0.12124
437.76239,0.21341
439.69085,0.16690
441.61932,-0.00637
443.54779,-0.07952
445.47626,0.05949
447.40473,0.18689
449.33320,0.18341
451.26167,0.15758
453.19013,0.17160
455.11860,0.20437
457.04707,0.21820
458.97554,0.13102
460.90401,0.03058
462.83248,0.02529
464.76095,0.07172
466.68942,0.12709
468.61788,0.17297
470.54635,0.21515
472.47482,0.30655
474.40329,0.37218
476.33176,0.25524
478.26023,0.12490
480.18870,0.09812
482.11716,0.14538
484.04563,0.16353
485.97410,0.15630
487.90257,0.16368
489.83104,0.13872
491.75951,0.10876
493.68798,0.12232
495.61645,0.11889
497.54491,0.08537
499.47338,0.08280
501.40185,0.11118
503.33032,0.12650
505.25879,0.09958
507.18726,0.05279
509.11573,0.05835
511.04419,0.11179
512.97266,0.13477
514.90113,0.12206
516.82960,0.11800
518.75807,0.08982
520.68654,0.02320
522.61501,-0.01121
524.54348,0.00778
526.47194,0.02236
528.40041,0.03323
530.32888,0.06796
532.25735,0.09820
534.18582,0.12557
536.11429,0.15987
538.04276,0.16555
539.97122,0.14106
541.89969,0.10615
543.82816,0.07381
545.75663,0.07122
547.68510,0.08364
549.61357,0.08497
551.54204,0.12931
553.47051,0.21895
555.39897,0.25590
557.32744,0.21194
559.25591,0.16280
561.18438,0.15384
563.11285,0.15004
565.04132,0.13461
566.96979,0.14051
568.89825,0.16324
570.82672,0.16711
572.75519,0.14251
574.68366,0.10393
576.61213,0.07112
578.54060,0.06152
580.46907,0.08569
582.39754,0.12769
584.32600,0.16022
586.25447,0.17437
588.18294,0.16688
590.11141,0.14796
592.03988,0.15072
593.96835,0.16354
595.89682,0.12990
597.82528,0.08249
599.75375,0.08579
601.68222,0.10946
603.61069,0.11575
605.53916,0.12018
607.46763,0.12227
609.39610,0.11125
611.32456,0.10445
613.25303,0.11269
615.18150,0.11900
617.10997,0.11804
619.03844,0.11198
620.96691,0.09869
622.89538,0.07939
624.82385,0.05956
626.75231,0.06153
628.68078,0.08659
630.60925,0.10157
632.53772,0.10699
634.46619,0.12392
636.39466,0.13437
638.32313,0.12237
640.25159,0.11159
642.18006,0.12625
644.10853,0.15023
646.03700,0.15815
647.96547,0.14859
649.89394,0.12370
651.82241,0.09843
653.75088,0.09857
655.67934,0.11157
657.60781,0.11318
659.53628,0.11524
661.46475,0.12634
663.39322,0.13250
665.32169,0.12894
667.25016,0.11870
669.17862,0.10636
671.10709,0.10235
673.03556,0.11167
674.96403,0.13609
676.89250,0.16350
678.82097,0.17169
680.74944,0.15138
682.67791,0.12757
684.60637,0.12790
686.53484,0.14944
688.46331,0.16313
690.39178,0.15583
692.32025,0.14266
694.24872,0.13095
696.17719,0.13101
698.10565,0.14137
700.03412,0.14240
701.96259,0.13194
703.89106,0.11280
705.81953,0.10108
707.74800,0.11506
709.67647,0.13754
711.60494,0.15069
713.53340,0.15641
715.46187,0.15582
717.39034,0.15227
719.31881,0.15096
721.24728,0.15090
723.17575,0.14829
725.10422,0.14136
727.03268,0.13287
728.96115,0.12561
730.88962,0.12022
732.81809,0.11892
734.74656,0.12500
736.67503,0.13740
738.60350,0.14781
740.53197,0.15028
742.46043,0.14396
744.38890,0.12970
746.31737,0.11525
748.24584,0.10955
750.17431,0.11202
752.10278,0.11844
754.03125,0.12835
755.95971,0.13919
757.88818,0.14667
759.81665,0.14659
761.74512,0.13868
763.67359,0.13146
765.60206,0.12968
767.53053,0.13059
769.45900,0.13051
771.38746,0.12660
773.31593,0.11964
775.24440,0.11739
777.17287,0.12515
779.10134,0.13367
781.02981,0.13891
782.95828,0.14447
784.88674,0.14617
786.81521,0.14497
788.74368,0.14484
790.67215,0.14746
792.60062,0.15209
794.52909,0.14728
796.45756,0.13752
798.38602,0.13799
800.31449,0.13614
802.24296,0.12840
804.17143,0.13338
806.09990,0.13787
808.02837,0.12479
809.95684,0.11811
811.88531,0.12767
813.81377,0.12862
815.74224,0.11791
817.67071,0.11577
819.59918,0.12583
821.52765,0.13300
823.45612,0.13218
825.38459,0.13774
827.31305,0.14836
829.24152,0.14645
831.16999,0.13515
833.09846,0.12796
835.02693,0.13041
836.95540,0.14232
838.88387,0.15460
840.81234,0.15620
842.74080,0.14735
844.66927,0.13537
846.59774,0.13412
848.52621,0.14596
850.45468,0.15423
852.38315,0.15559
854.31162,0.15546
856.24008,0.15175
858.16855,0.14474
860.09702,0.13901
862.02549,0.13992
863.95396,0.14832
865.88243,0.15091
867.81090,0.16449
869.73937,0.21888
871.66783,0.24228
873.59630,0.18783
875.52477,0.13926
877.45324,0.13374
879.38171,0.13770
881.31018,0.13712
883.23865,0.13614
885.16711,0.13888
887.09558,0.14165
889.02405,0.14539
890.95252,0.14739
892.88099,0.14107
894.80946,0.13605
896.73793,0.14340
898.66640,0.15378
900.59486,0.15426
902.52333,0.14711
904.45180,0.14323
906.38027,0.14329
908.30874,0.13843
910.23721,0.13351
912.16568,0.13960
914.09414,0.14923
916.02261,0.14683
917.95108,0.13730
919.87955,0.13654
921.80802,0.14331
923.73649,0.14868
925.66496,0.14986
927.59343,0.14384
929.52189,0.13464
931.45036,0.13840
933.37883,0.15447
935.30730,0.16133
937.23577,0.15493
939.16424,0.14869
941.09271,0.14784
943.02117,0.14882
944.94964,0.14584
946.87811,0.13991
948.80658,0.13918
950.73505,0.14440
952.66352,0.14921
954.59199,0.15155
956.52045,0.15628
958.44892,0.16222
960.37739,0.16089
962.30586,0.15360
964.23433,0.15036
966.16280,0.15031
968.09127,0.14542
970.01974,0.14205
971.94820,0.14580
973.87667,0.14937
975.80514,0.15307
977.73361,0.16183
979.66208,0.17091
981.59055,0.17116
983.51902,0.16366
985.44748,0.15698
987.37595,0.15049
989.30442,0.14162
991.23289,0.13728
993.16136,0.14387
995.08983,0.15529
997.01830,0.15779
998.94677,0.15474
1000.87523,0.15772
1002.80370,0.16162
1004.73217,0.16266
1006.66064,0.16358
1008.58911,0.16201
1010.51758,0.15965
1012.44605,0.15926
1014.37451,0.15566
1016.30298,0.15177
1018.23145,0.15374
1020.15992,0.15366
1022.08839,0.15054
1024.01686,0.15101
1025.94533,0.15614
1027.87380,0.16135
1029.80226,0.15923
1031.73073,0.15601
1033.65920,0.15709
1035.58767,0.15541
1037.51614,0.15068
1039.44461,0.14864
1041.37308,0.15432
1043.30154,0.16851
1045.23001,0.17769
1047.15848,0.17323
1049.08695,0.16963
1051.01542,0.17221
1052.94389,0.16977
1054.87236,0.16645
1056.80083,0.17072
1058.72929,0.17230
1060.65776,0.16850
1062.58623,0.16987
1064.51470,0.17142
1066.44317,0.16848
1068.37164,0.16771
1070.30011,0.17053
1072.22857,0.17174
1074.15704,0.16707
1076.08551,0.16336
1078.01398,0.16222
1079.94245,0.15835
1081.87092,0.16156
1083.79939,0.17272
1085.72786,0.17444
1087.65632,0.16444
1089.58479,0.15448
1091.51326,0.14938
1093.44173,0.14743
1095.37020,0.14919
1097.29867,0.15460
1099.22714,0.16260
1101.15560,0.17518
1103.08407,0.18338
1105.01254,0.17874
1106.94101,0.17447
1108.86948,0.18172
1110.79795,0.19366
1112.72642,0.20042
1114.65489,0.19735
1116.58335,0.18646
1118.51182,0.17589
1120.44029,0.17029
1122.36876,0.16656
1124.29723,0.15917
1126.22570,0.15417
1128.15417,0.16093
1130.08263,0.16734
1132.01110,0.16576
1133.93957,0.16587
1135.86804,0.16759
1137.79651,0.16828
1139.72498,0.17145
1141.65345,0.17326
1143.58191,0.16882
1145.51038,0.16531
1147.43885,0.16771
1149.36732,0.16950
1151.29579,0.17279
1153.22426,0.18253
1155.15273,0.18825
1157.08120,0.18284
1159.00966,0.17367
1160.93813,0.16712
1162.86660,0.16429
1164.79507,0.16531
1166.72354,0.16648
1168.65201,0.16698
1170.58048,0.17090
1172.50894,0.17422
1174.43741,0.17466
1176.36588,0.17497
1178.29435,0.17185
1180.22282,0.16708
1182.15129,0.16682
1184.07976,0.17085
1186.00823,0.17475
1187.93669,0.17429
1189.86516,0.17076
1191.79363,0.16857
1193.72210,0.16945
1195.65057,0.17337
1197.57904,0.17802
1199.50751,0.17768
1201.43597,0.17021
1203.36444,0.16203
1205.29291,0.15983
1207.22138,0.16395
1209.14985,0.17049
1211.07832,0.17343
1213.00679,0.17151
1214.93526,0.16908
1216.86372,0.16740
1218.79219,0.16830
1220.72066,0.17308
1222.64913,0.17665
1224.57760,0.17516
1226.50607,0.17163
1228.43454,0.16927
1230.36300,0.16619
1232.29147,0.16229
1234.21994,0.16015
1236.14841,0.16003
1238.07688,0.16193
1240.00535,0.16612
1241.93382,0.17115
1243.86229,0.17284
1245.79075,0.16941
1247.71922,0.16737
1249.64769,0.17086
1251.57616,0.17546
1253.50463,0.17821
1255.43310,0.17747
1257.36157,0.17276
1259.29003,0.16813
1261.21850,0.16560
1263.14697,0.16496
1265.07544,0.16774
1267.00391,0.17112
1268.93238,0.17057
1270.86085,0.17041
1272.78932,0.17329
1274.71778,0.17451
1276.64625,0.17535
1278.57472,0.17826
1280.50319,0.17684
1282.43166,0.17295
1284.36013,0.17611
1286.28860,0.17978
1288.21706,0.17804
1290.14553,0.17811
1292.07400,0.17923
1294.00247,0.17659
1295.93094,0.17436
1297.85941,0.17477
1299.78788,0.17159
1301.71634,0.16322
1303.64481,0.15661
1305.57328,0.15905
1307.50175,0.16953
1309.43022,0.17720
1311.35869,0.17748
1313.28716,0.17630
1315.21563,0.17785
1317.14409,0.18180
1319.07256,0.18382
1321.00103,0.18069
1322.92950,0.17621
1324.85797,0.17090
1326.78644,0.16654
1328.71491,0.16990
1330.64337,0.17608
1332.57184,0.17796
1334.50031,0.17869
1336.42878,0.18127
1338.35725,0.18401
1340.28572,0.18074
1342.21419,0.17842
1344.14266,0.19042
1346.07112,0.20096
1347.99959,0.19206
1349.92806,0.17957
1351.85653,0.17582
1353.78500,0.17566
1355.71347,0.17947
1357.64194,0.18504
1359.57040,0.18827
1361.49887,0.18938
1363.42734,0.18597
1365.35581,0.18049
1367.28428,0.17952
1369.21275,0.18289
1371.14122,0.18784
1373.06969,0.19216
1374.99815,0.19191
1376.92662,0.18866
1378.85509,0.18715
1380.78356,0.18717
1382.71203,0.18830
1384.64050,0.19117
1386.56897,0.19358
1388.49743,0.19162
1390.42590,0.18830
1392.35437,0.18898
1394.28284,0.19404
1396.21131,0.19783
1398.13978,0.19450
1400.06825,0.18858
1401.99672,0.18814
1403.92518,0.19069
1405.85365,0.18873
1407.78212,0.18463
1409.71059,0.18524
1411.63906,0.18733
1413.56753,0.18746
1415.49600,0.19088
1417.42446,0.19928
1419.35293,0.20286
1421.28140,0.19877
1423.20987,0.19538
1425.13834,0.19344
1427.06681,0.19447
1428.99528,0.19639
1430.92375,0.19218
1432.85221,0.18554
1434.78068,0.18364
1436.70915,0.18791
1438.63762,0.19264
1440.56609,0.19160
1442.49456,0.18786
1444.42303,0.18784
1446.35149,0.19306
1448.27996,0.19982
1450.20843,0.20418
1452.13690,0.20501
1454.06537,0.20831
1455.99384,0.21902
1457.92231,0.21842
1459.85077,0.20409
1461.77924,0.19767
1463.70771,0.19825
1465.63618,0.20008
1467.56465,0.19951
1469.49312,0.20314
1471.42159,0.21316
1473.35006,0.21661
1475.27852,0.20882
1477.20699,0.20439
1479.13546,0.20607
1481.06393,0.20713
1482.99240,0.20262
1484.92087,0.19729
1486.84934,0.19740
1488.77780,0.20328
1490.70627,0.20529
1492.63474,0.20296
1494.56321,0.20552
1496.49168,0.21269
1498.42015,0.21480
1500.34862,0.20957
1502.27709,0.20629
1504.20555,0.21313
1506.13402,0.23315
1508.06249,0.23461
1509.99096,0.21630
1511.91943,0.20890
1513.84790,0.21257
1515.77637,0.22068
1517.70483,0.22473
1519.63330,0.22604
1521.56177,0.23003
1523.49024,0.23063
1525.41871,0.22897
1527.34718,0.22416
1529.27565,0.21650
1531.20412,0.21567
1533.13258,0.21942
1535.06105,0.21672
1536.98952,0.21648
1538.91799,0.22854
1540.84646,0.24229
1542.77493,0.23492
1544.70340,0.21916
1546.63186,0.20766
1548.56033,0.20468
1550.48880,0.20582
1552.41727,0.20903
1554.34574,0.21940
1556.27421,0.23914
1558.20268,0.25915
1560.13115,0.23936
1562.05961,0.21622
1563.98808,0.21011
1565.91655,0.21200
1567.84502,0.21851
1569.77349,0.22096
1571.70196,0.21365
1573.63043,0.21100
1575.55889,0.21468
1577.48736,0.21274
1579.41583,0.20600
1581.34430,0.20039
1583.27277,0.19683
1585.20124,0.19524
1587.12971,0.19596
1589.05818,0.19966
1590.98664,0.20295
1592.91511,0.20248
1594.84358,0.20063
1596.77205,0.19892
1598.70052,0.19607
1600.62899,0.19339
1602.55746,0.19281
1604.48592,0.19513
1606.41439,0.19725
1608.34286,0.19633
1610.27133,0.19564
1612.19980,0.19721
1614.12827,0.20119
1616.05674,0.20773
1617.98521,0.20955
1619.91367,0.20624
1621.84214,0.20549
1623.77061,0.20836
1625.69908,0.21174
1627.62755,0.21464
1629.55602,0.21478
1631.48449,0.21190
1633.41295,0.21182
1635.34142,0.22071
1637.26989,0.22504
1639.19836,0.21735
1641.12683,0.21206
1643.05530,0.21420
1644.98377,0.22545
1646.91223,0.24211
1648.84070,0.24747
1650.76917,0.25183
1652.69764,0.26394
1654.62611,0.25040
1656.55458,0.22833
1658.48305,0.22036
1660.41152,0.22527
1662.33998,0.23446
1664.26845,0.22898
1666.19692,0.21668
1668.12539,0.21566
1670.05386,0.22345
1671.98233,0.22416
1673.91080,0.22143
1675.83926,0.22114
1677.76773,0.22417
1679.69620,0.23061
1681.62467,0.23912
1683.55314,0.24493
1685.48161,0.23592
1687.41008,0.22380
1689.33855,0.21731
1691.26701,0.21197
1693.19548,0.20959
1695.12395,0.21796
1697.05242,0.23280
1698.98089,0.23662
1700.90936,0.22890
1702.83783,0.22253
1704.76629,0.22172
1706.69476,0.21977
1708.62323,0.21386
1710.55170,0.21034
1712.48017,0.21373
1714.40864,0.22289
1716.33711,0.23017
1718.26558,0.22181
1720.19404,0.20690
1722.12251,0.20032
1724.05098,0.19963
1725.97945,0.19895
1727.90792,0.20145
1729.83639,0.20944
1731.76486,0.21682
1733.69332,0.21924
1735.62179,0.21466
1737.55026,0.21101
1739.47873,0.21116
1741.40720,0.21068
1743.33567,0.20996
1745.26414,0.21180
1747.19261,0.21646
1749.12107,0.22296
1751.04954,0.22074
1752.97801,0.20790
1754.90648,0.19789
1756.83495,0.19564
1758.76342,0.19850
1760.69189,0.20278
1762.62035,0.20456
1764.54882,0.20360
1766.47729,0.20514
1768.40576,0.20907
1770.33423,0.21327
1772.26270,0.21582
1774.19117,0.21206
1776.11964,0.20661
1778.04810,0.20515
1779.97657,0.20871
1781.90504,0.21307
1783.83351,0.21260
1785.76198,0.20593
1787.69045,0.19990
1789.61892,0.20177
1791.54738,0.20823
1793.47585,0.21027
1795.40432,0.20848
1797.33279,0.20849
1799.26126,0.21188
1801.18973,0.21380
1803.11820,0.21052
1805.04666,0.20769
1806.97513,0.20719
1808.90360,0.20722
1810.83207,0.20838
1812.76054,0.20822
1814.68901,0.20604
1816.61748,0.20524
1818.54595,0.20596
1820.47441,0.20557
1822.40288,0.20422
1824.33135,0.20446
1826.25982,0.20694
1828.18829,0.21103
1830.11676,0.21354
1832.04523,0.21178
1833.97369,0.20867
1835.90216,0.20558
1837.83063,0.20314
1839.75910,0.20109
1841.68757,0.20008
1843.61604,0.20225
1845.54451,0.20435
1847.47298,0.20183
1849.40144,0.19810
1851.32991,0.19756
1853.25838,0.20007
1855.18685,0.20346
1857.11532,0.20515
1859.04379,0.20365
1860.97226,0.20218
1862.90072,0.20288
1864.82919,0.20483
1866.75766,0.20858
1868.68613,0.21125
1870.61460,0.20704
1872.54307,0.20038
1874.47154,0.19769
1876.40001,0.19987
1878.32847,0.20407
1880.25694,0.20662
1882.18541,0.20590
1884.11388,0.20460
1886.04235,0.20539
1887.97082,0.20685
1889.89929,0.20688
1891.82775,0.20585
1893.75622,0.20490
1895.68469,0.20368
1897.61316,0.20262
1899.54163,0.20261
1901.47010,0.20292
1903.39857,0.20203
1905.32704,0.19963
1907.25550,0.19868
1909.18397,0.20018
1911.11244,0.20076
1913.04091,0.20177
1914.96938,0.20577
1916.89785,0.20882
1918.82632,0.20648
1920.75478,0.20214
1922.68325,0.19992
1924.61172,0.19931
1926.54019,0.20032
1928.46866,0.20222
1930.39713,0.20271
1932.32560,0.20129
1934.25407,0.19947
1936.18253,0.19917
1938.11100,0.19968
1940.03947,0.20076
1941.96794,0.20348
1943.89641,0.20466
1945.82488,0.20301
1947.75335,0.20237
1949.68181,0.20302
1951.61028,0.20253
1953.53875,0.20112
1955.46722,0.20044
1957.39569,0.20089
1959.32416,0.20112
1961.25263,0.20085
1963.18110,0.20176
1965.10956,0.20337
1967.03803,0.20401
1968.96650,0.20361
1970.89497,0.20304
1972.82344,0.20344
1974.75191,0.20473
1976.68038,0.20421
1978.60884,0.20139
1980.53731,0.20034
1982.46578,0.20166
1984.39425,0.20313
1986.32272,0.20547
1988.25119,0.20680
1990.17966,0.20464
1992.10812,0.20270
1994.03659,0.20341
1995.96506,0.20356
1997.89353,0.20279
1999.82200,0.20296
2001.75047,0.20376
2003.67894,0.20559
2005.60741,0.20742
2007.53587,0.20734
2009.46434,0.20686
2011.39281,0.20653
2013.32128,0.20585
2015.24975,0.20637
2017.17822,0.20699
2019.10669,0.20439
2021.03515,0.20131
2022.96362,0.20227
2024.89209,0.20432
2026.82056,0.20341
2028.74903,0.20229
2030.67750,0.20249
2032.60597,0.20214
2034.53444,0.20287
2036.46290,0.20439
2038.39137,0.20444
2040.31984,0.20502
2042.24831,0.20601
2044.17678,0.20459
2046.10525,0.20235
2048.03372,0.20245
2049.96218,0.20398
2051.89065,0.20384
2053.81912,0.20171
2055.74759,0.20029
2057.67606,0.20118
2059.60453,0.20364
2061.53300,0.20591
2063.46147,0.20624
2065.38993,0.20540
2067.31840,0.20531
2069.24687,0.20611
2071.17534,0.20620
2073.10381,0.20477
2075.03228,0.20342
2076.96075,0.20270
2078.88921,0.20176
2080.81768,0.20080
2082.74615,0.19996
2084.67462,0.19987
2086.60309,0.20082
2088.53156,0.20112
2090.46003,0.20058
2092.38850,0.19999
2094.31696,0.19859
2096.24543,0.19747
2098.17390,0.19883
2100.10237,0.20147
2102.03084,0.20407
2103.95931,0.20734
2105.88778,0.20914
2107.81624,0.20705
2109.74471,0.20357
2111.67318,0.20257
2113.60165,0.20387
2115.53012,0.20447
2117.45859,0.20483
2119.38706,0.20583
2121.31553,0.20536
2123.24399,0.20288
2125.17246,0.19980
2127.10093,0.19901
2129.02940,0.20256
2130.95787,0.20694
2132.88634,0.20830
2134.81481,0.20790
2136.74327,0.20758
2138.67174,0.20699
2140.60021,0.20526
2142.52868,0.20299
2144.45715,0.20211
2146.38562,0.20341
2148.31409,0.20539
2150.24255,0.20646
2152.17102,0.20752
2154.09949,0.20810
2156.02796,0.20662
2157.95643,0.20551
2159.88490,0.20634
2161.81337,0.20629
2163.74184,0.20654
2165.67030,0.20947
2167.59877,0.21030
2169.52724,0.20801
2171.45571,0.20625
2173.38418,0.20487
2175.31265,0.20395
2177.24112,0.20451
2179.16958,0.20481
2181.09805,0.20352
2183.02652,0.20370
2184.95499,0.20605
2186.88346,0.20804
2188.81193,0.20930
2190.74040,0.20886
2192.66887,0.20652
2194.59733,0.20410
2196.52580,0.20287
2198.45427,0.20268
2200.38274,0.20297
2202.31121,0.20403
2204.23968,0.20506
2206.16815,0.20455
2208.09661,0.20313
2210.02508,0.20366
2211.95355,0.20688
2213.88202,0.21026
2215.81049,0.21148
2217.73896,0.20900
2219.66743,0.20507
2221.59590,0.20570
2223.52436,0.20984
2225.45283,0.21186
2227.38130,0.21098
2229.30977,0.20747
2231.23824,0.20356
2233.16671,0.20285
2235.09518,0.20482
2237.02364,0.20780
2238.95211,0.20913
2240.88058,0.20724
2242.80905,0.20585
2244.73752,0.20729
2246.66599,0.20883
2248.59446,0.20812
2250.52293,0.20560
2252.45139,0.20420
2254.37986,0.20631
2256.30833,0.20889
2258.23680,0.20951
2260.16527,0.21051
2262.09374,0.21029
2264.02221,0.20656
2265.95067,0.20292
2267.87914,0.20223
2269.80761,0.20306
2271.73608,0.20382
2273.66455,0.20535
2275.59302,0.20724
2277.52149,0.20769
2279.44996,0.20710
2281.37842,0.20628
2283.30689,0.20507
2285.23536,0.20314
2287.16383,0.20151
2289.09230,0.20214
2291.02077,0.20400
2292.94924,0.20524
2294.87770,0.20656
2296.80617,0.20725
2298.73464,0.20471
2300.66311,0.19936
2302.59158,0.19600
2304.52005,0.19774
2306.44852,0.19960
2308.37699,0.19671
2310.30545,0.19527
2312.23392,0.20228
2314.16239,0.21070
2316.09086,0.21216
2318.01933,0.21124
2319.94780,0.21327
2321.87627,0.21469
2323.80473,0.20895
2325.73320,0.19853
2327.66167,0.19277
2329.59014,0.19510
2331.51861,0.20380
2333.44708,0.21139
2335.37555,0.21123
2337.30401,0.20486
2339.23248,0.19882
2341.16095,0.20381
2343.08942,0.21536
2345.01789,0.21721
2346.94636,0.21332
2348.87483,0.21079
2350.80330,0.20855
2352.73176,0.20769
2354.66023,0.20670
2356.58870,0.19848
2358.51717,0.19327
2360.44564,0.20156
2362.37411,0.19887
2364.30258,0.18388
2366.23104,0.18877
2368.15951,0.20397
2370.08798,0.20631
2372.01645,0.20305
2373.94492,0.20541
2375.87339,0.21019
2377.80186,0.20926
2379.73033,0.20515
2381.65879,0.20477
2383.58726,0.20671
2385.51573,0.20569
2387.44420,0.20269
2389.37267,0.20271
2391.30114,0.20437
2393.22961,0.20365
2395.15807,0.20163
2397.08654,0.19993
2399.01501,0.19951
2400.94348,0.20268
2402.87195,0.20796
2404.80042,0.21031
2406.72889,0.20919
2408.65736,0.20761
2410.58582,0.20613
2412.51429,0.20452
2414.44276,0.20377
2416.37123,0.20376
2418.29970,0.20355
2420.22817,0.20464
2422.15664,0.20751
2424.08510,0.20877
2426.01357,0.20654
2427.94204,0.20393
2429.87051,0.20456
2431.79898,0.20735
2433.72745,0.20925
2435.65592,0.20918
2437.58439,0.20653
2439.51285,0.20326
2441.44132,0.20349
2443.36979,0.20567
2445.29826,0.20655
2447.22673,0.20677
2449.15520,0.20656
2451.08367,0.20588
2453.01213,0.20517
2454.94060,0.20358
2456.86907,0.20129
2458.79754,0.20112
2460.72601,0.20421
2462.65448,0.20750
2464.58295,0.20740
2466.51142,0.20477
2468.43988,0.20325
2470.36835,0.20304
2472.29682,0.20345
2474.22529,0.20533
2476.15376,0.20664
2478.08223,0.20606
2480.01070,0.20636
2481.93916,0.20699
2483.86763,0.20541
2485.79610,0.20383
2487.72457,0.20461
2489.65304,0.20669
2491.58151,0.20734
2493.50998,0.20595
2495.43844,0.20546
2497.36691,0.20783
2499.29538,0.21028
2501.22385,0.20942
2503.15232,0.20732
2505.08079,0.20678
2507.00926,0.20820
2508.93773,0.21067
2510.86619,0.21140
2512.79466,0.20939
2514.72313,0.20584
2516.65160,0.20383
2518.58007,0.20587
2520.50854,0.20805
2522.43701,0.20728
2524.36547,0.20634
2526.29394,0.20569
2528.22241,0.20478
2530.15088,0.20616
2532.07935,0.21008
2534.00782,0.21143
2535.93629,0.20864
2537.86476,0.20819
2539.79322,0.21165
2541.72169,0.21233
2543.65016,0.20932
2545.57863,0.20906
2547.50710,0.21214
2549.43557,0.21318
2551.36404,0.21140
2553.29250,0.20951
2555.22097,0.20902
2557.14944,0.20952
2559.07791,0.21050
2561.00638,0.21166
2562.93485,0.21239
2564.86332,0.21350
2566.79179,0.21490
2568.72025,0.21534
2570.64872,0.21578
2572.57719,0.21563
2574.50566,0.21336
2576.43413,0.21199
2578.36260,0.21208
2580.29107,0.20941
2582.21953,0.20585
2584.14800,0.20645
2586.07647,0.21008
2588.00494,0.21243
2589.93341,0.21271
2591.86188,0.21318
2593.79035,0.21318
2595.71882,0.21090
2597.64728,0.20776
2599.57575,0.20588
2601.50422,0.20607
2603.43269,0.20809
2605.36116,0.21046
2607.28963,0.21218
2609.21810,0.21370
2611.14656,0.21448
2613.07503,0.21403
2615.00350,0.21427
2616.93197,0.21546
2618.86044,0.21545
2620.78891,0.21321
2622.71738,0.20965
2624.64585,0.20768
2626.57431,0.20970
2628.50278,0.21323
2630.43125,0.21489
2632.35972,0.21495
2634.28819,0.21354
2636.21666,0.21125
2638.14513,0.21008
2640.07359,0.21089
2642.00206,0.21298
2643.93053,0.21452
2645.85900,0.21357
2647.78747,0.21105
2649.71594,0.21125
2651.64441,0.21425
2653.57288,0.21541
2655.50134,0.21434
2657.42981,0.21264
2659.35828,0.21024
2661.28675,0.20943
2663.21522,0.21120
2665.14369,0.21323
2667.07216,0.21608
2669.00062,0.21805
2670.92909,0.21508
2672.85756,0.21052
2674.78603,0.20951
2676.71450,0.21173
2678.64297,0.21557
2680.57144,0.21936
2682.49990,0.22136
2684.42837,0.22179
2686.35684,0.22098
2688.28531,0.21912
2690.21378,0.21638
2692.14225,0.21363
2694.07072,0.21328
2695.99919,0.21439
2697.92765,0.21466
2699.85612,0.21496
2701.78459,0.21656
2703.71306,0.21829
2705.64153,0.21802
2707.57000,0.21768
2709.49847,0.22105
2711.42693,0.22415
2713.35540,0.22019
2715.28387,0.21301
2717.21234,0.21087
2719.14081,0.21350
2721.06928,0.21691
2722.99775,0.22009
2724.92622,0.22218
2726.85468,0.22321
2728.78315,0.22471
2730.71162,0.22595
2732.64009,0.22648
2734.56856,0.22586
2736.49703,0.22233
2738.42550,0.21911
2740.35396,0.21891
2742.28243,0.21879
2744.21090,0.21819
2746.13937,0.21803
2748.06784,0.21881
2749.99631,0.22208
2751.92478,0.22433
2753.85325,0.22197
2755.78171,0.21859
2757.71018,0.21596
2759.63865,0.21345
2761.56712,0.21396
2763.49559,0.21813
2765.42406,0.22130
2767.35253,0.22108
2769.28099,0.22018
2771.20946,0.22035
2773.13793,0.22004
2775.06640,0.21754
2776.99487,0.21445
2778.92334,0.21425
2780.85181,0.21698
2782.78028,0.21930
2784.70874,0.21888
2786.63721,0.21798
2788.56568,0.21872
2790.49415,0.21886
2792.42262,0.21986
2794.35109,0.22269
2796.27956,0.22160
2798.20802,0.21696
2800.13649,0.21501
2802.06496,0.21701
2803.99343,0.22135
2805.92190,0.22589
2807.85037,0.22843
2809.77884,0.22935
2811.70731,0.22860
2813.63577,0.22567
2815.56424,0.22467
2817.49271,0.22669
2819.42118,0.22650
2821.34965,0.22490
2823.27812,0.22457
2825.20659,0.22285
2827.13505,0.22004
2829.06352,0.21909
2830.99199,0.22068
2832.92046,0.22251
2834.84893,0.22189
2836.77740,0.22201
2838.70587,0.22566
2840.63433,0.22856
2842.56280,0.22870
2844.49127,0.22813
2846.41974,0.22589
2848.34821,0.22210
2850.27668,0.22091
2852.20515,0.22299
2854.13362,0.22578
2856.06208,0.22655
2857.99055,0.22409
2859.91902,0.22136
2861.84749,0.22000
2863.77596,0.21875
2865.70443,0.21798
2867.63290,0.21983
2869.56136,0.22243
2871.48983,0.22182
2873.41830,0.21991
2875.34677,0.21925
2877.27524,0.22095
2879.20371,0.22481
2881.13218,0.22766
2883.06065,0.22878
2884.98911,0.23000
2886.91758,0.23106
2888.84605,0.22931
2890.77452,0.22494
2892.70299,0.22089
2894.63146,0.21877
2896.55993,0.21876
2898.48839,0.21846
2900.41686,0.21669
2902.34533,0.21655
2904.27380,0.21915
2906.20227,0.22238
2908.13074,0.22300
2910.05921,0.21791
2911.98768,0.21372
2913.91614,0.21879
2915.84461,0.22570
2917.77308,0.22460
2919.70155,0.21945
2921.63002,0.21784
2923.55849,0.21866
2925.48696,0.21650
2927.41542,0.21333
2929.34389,0.21515
2931.27236,0.22254
2933.20083,0.23056
2935.12930,0.23139
2937.05777,0.22595
2938.98624,0.22381
2940.91471,0.22495
2942.84317,0.22488
2944.77164,0.22227
2946.70011,0.21856
2948.62858,0.22090
2950.55705,0.22713
2952.48552,0.22836
2954.41399,0.22508
2956.34245,0.21838
2958.27092,0.21117
2960.19939,0.21205
2962.12786,0.22055
2964.05633,0.22807
2965.98480,0.22801
2967.91327,0.22028
2969.84174,0.21398
2971.77020,0.21515
2973.69867,0.22022
2975.62714,0.22348
2977.55561,0.22220
2979.48408,0.22155
2981.41255,0.22535
2983.34102,0.22821
2985.26948,0.22812
2987.19795,0.22841
2989.12642,0.23079
2991.05489,0.23334
2992.98336,0.23343
2994.91183,0.23330
2996.84030,0.23184
2998.76877,0.22844
3000.69723,0.22917
3002.62570,0.23226
3004.55417,0.23498
3006.48264,0.23793
3008.41111,0.23707
3010.33958,0.23030
3012.26805,0.21571
3014.19651,0.19088
3016.12498,0.17003
3018.05345,0.17830
3019.98192,0.20841
3021.91039,0.22899
3023.83886,0.23300
3025.76733,0.22870
3027.69579,0.22395
3029.62426,0.22759
3031.55273,0.23742
3033.48120,0.24211
3035.40967,0.23851
3037.33814,0.23393
3039.26661,0.23354
3041.19508,0.23514
3043.12354,0.23490
3045.05201,0.23199
3046.98048,0.22798
3048.90895,0.22685
3050.83742,0.22894
3052.76589,0.23005
3054.69436,0.23002
3056.62282,0.22837
3058.55129,0.22625
3060.47976,0.22655
3062.40823,0.22579
3064.33670,0.22077
3066.26517,0.21648
3068.19364,0.22026
3070.12211,0.22565
3072.05057,0.22318
3073.97904,0.21635
3075.90751,0.21366
3077.83598,0.22053
3079.76445,0.22877
3081.69292,0.22682
3083.62139,0.21794
3085.54985,0.21572
3087.47832,0.22594
3089.40679,0.23587
3091.33526,0.23220
3093.26373,0.21682
3095.19220,0.20734
3097.12067,0.21538
3099.04914,0.22736
3100.97760,0.22831
3102.90607,0.22187
3104.83454,0.21961
3106.76301,0.22501
3108.69148,0.23239
3110.61995,0.23325
3112.54842,0.22958
3114.47688,0.23105
3116.40535,0.23281
3118.33382,0.22833
3120.26229,0.22214
3122.19076,0.21925
3124.11923,0.22226
3126.04770,0.22842
3127.97617,0.23266
3129.90463,0.23426
3131.83310,0.23613
3133.76157,0.23812
3135.69004,0.23800
3137.61851,0.23781
3139.54698,0.23869
3141.47545,0.23921
3143.40391,0.23850
3145.33238,0.23612
3147.26085,0.23373
3149.18932,0.23396
3151.11779,0.23700
3153.04626,0.24003
3154.97473,0.24158
3156.90320,0.24101
3158.83166,0.23748
3160.76013,0.23383
3162.68860,0.23250
3164.61707,0.23364
3166.54554,0.23831
3168.47401,0.24628
3170.40248,0.25054
3172.33094,0.24434
3174.25941,0.23749
3176.18788,0.23931
3178.11635,0.23948
3180.04482,0.23414
3181.97329,0.23357
3183.90176,0.23566
3185.83022,0.23269
3187.75869,0.22937
3189.68716,0.23099
3191.61563,0.23549
3193.54410,0.24031
3195.47257,0.24269
3197.40104,0.24204
3199.32951,0.24312
3201.25797,0.24379
3203.18644,0.23950
3205.11491,0.23650
3207.04338,0.23799
3208.97185,0.24139
3210.90032,0.24500
3212.82879,0.24242
3214.75725,0.23311
3216.68572,0.22742
3218.61419,0.22848
3220.54266,0.22969
3222.47113,0.22858
3224.39960,0.22989
3226.32807,0.23408
3228.25654,0.23631
3230.18500,0.23585
3232.11347,0.23399
3234.04194,0.23419
3235.97041,0.23581
3237.89888,0.23277
3239.82735,0.23072
3241.75582,0.23354
3243.68428,0.23227
3245.61275,0.22817
3247.54122,0.22892
3249.46969,0.22939
3251.39816,0.22650
3253.32663,0.22856
3255.25510,0.23621
3257.18357,0.24092
3259.11203,0.24072
3261.04050,0.24035
3262.96897,0.24073
3264.89744,0.23976
3266.82591,0.23800
3268.75438,0.23539
3270.68285,0.23327
3272.61131,0.23443
3274.53978,0.23564
3276.46825,0.23391
3278.39672,0.23277
3280.32519,0.23378
3282.25366,0.23411
3284.18213,0.23387
3286.11060,0.23437
3288.03906,0.23319
3289.96753,0.22924
3291.89600,0.22625
3293.82447,0.22695
3295.75294,0.22947
3297.68141,0.23089
3299.60988,0.23077
3301.53834,0.22949
3303.46681,0.22914
3305.39528,0.23359
3307.32375,0.24119
3309.25222,0.24493
3311.18069,0.24111
3313.10916,0.23444
3315.03763,0.22981
3316.96609,0.22634
3318.89456,0.22595
3320.82303,0.23184
3322.75150,0.23852
3324.67997,0.23807
3326.60844,0.23397
3328.53691,0.23318
3330.46537,0.23286
3332.39384,0.23094
3334.32231,0.22954
3336.25078,0.22923
3338.17925,0.23352
3340.10772,0.24031
3342.03619,0.24074
3343.96466,0.23680
3345.89312,0.23459
3347.82159,0.23367
3349.75006,0.23492
3351.67853,0.23837
3353.60700,0.24018
3355.53547,0.23890
3357.46394,0.23500
3359.39240,0.23213
3361.32087,0.23596
3363.24934,0.24209
3365.17781,0.24186
3367.10628,0.24012
3369.03475,0.24237
3370.96322,0.24308
3372.89168,0.23994
3374.82015,0.23651
3376.74862,0.23432
3378.67709,0.23469
3380.60556,0.23756
3382.53403,0.23957
3384.46250,0.24065
3386.39097,0.24072
3388.31943,0.23799
3390.24790,0.23679
3392.17637,0.23798
3394.10484,0.23556
3396.03331,0.23205
3397.96178,0.23404
3399.89025,0.23678
3401.81871,0.23489
3403.74718,0.23192
3405.67565,0.22951
3407.60412,0.22798
3409.53259,0.22917
3411.46106,0.23134
3413.38953,0.23276
3415.31800,0.23539
3417.24646,0.23739
3419.17493,0.23412
3421.10340,0.22986
3423.03187,0.22962
3424.96034,0.22836
3426.88881,0.22368
3428.81728,0.22172
3430.74574,0.22410
3432.67421,0.22727
3434.60268,0.22971
3436.53115,0.22812
3438.45962,0.22394
3440.38809,0.22212
3442.31656,0.22262
3444.24503,0.22377
3446.17349,0.22349
3448.10196,0.22305
3450.03043,0.22230
3451.95890,0.21751
3453.88737,0.21375
3455.81584,0.21641
3457.74431,0.22084
3459.67277,0.22267
3461.60124,0.22023
3463.52971,0.21531
3465.45818,0.21241
3467.38665,0.21073
3469.31512,0.21204
3471.24359,0.21854
3473.17206,0.22199
3475.10052,0.21835
3477.02899,0.21435
3478.95746,0.21272
3480.88593,0.21060
3482.81440,0.20718
3484.74287,0.20506
3486.67134,0.20697
3488.59980,0.20927
3490.52827,0.20529
3492.45674,0.19813
3494.38521,0.19615
3496.31368,0.19868
3498.24215,0.19987
3500.17062,0.20004
3502.09909,0.20179
3504.02755,0.20368
3505.95602,0.20277
3507.88449,0.20301
3509.81296,0.20656
3511.74143,0.20524
3513.66990,0.19900
3515.59837,0.19584
3517.52683,0.19502
3519.45530,0.19321
3521.38377,0.19325
3523.31224,0.19562
3525.24071,0.19606
3527.16918,0.19444
3529.09765,0.19173
3531.02611,0.18735
3532.95458,0.18306
3534.88305,0.18141
3536.81152,0.18333
3538.73999,0.18641
3540.66846,0.18899
3542.59693,0.19268
3544.52540,0.19562
3546.45386,0.19499
3548.38233,0.19086
3550.31080,0.18353
3552.23927,0.17765
3554.16774,0.17604
3556.09621,0.17489
3558.02468,0.17545
3559.95314,0.18079
3561.88161,0.18828
3563.81008,0.19497
3565.73855,0.19911
3567.66702,0.19739
3569.59549,0.19216
3571.52396,0.18696
3573.45243,0.18387
3575.38089,0.18315
3577.30936,0.17971
3579.23783,0.17284
3581.16630,0.16842
3583.09477,0.17222
3585.02324,0.18209
3586.95171,0.18670
3588.88017,0.18080
3590.80864,0.17593
3592.73711,0.17388
3594.66558,0.16918
3596.59405,0.16437
3598.52252,0.16190
3600.45099,0.15976
3602.37946,0.16002
3604.30792,0.16277
3606.23639,0.16745
3608.16486,0.17347
3610.09333,0.17563
3612.02180,0.17273
3613.95027,0.16934
3615.87874,0.16966
3617.80720,0.17279
3619.73567,0.17336
3621.66414,0.16834
3623.59261,0.16478
3625.52108,0.16644
3627.44955,0.17097
3629.37802,0.17338
3631.30649,0.16973
3633.23495,0.16378
3635.16342,0.15762
3637.09189,0.15428
3639.02036,0.15454
3640.94883,0.15283
3642.87730,0.14813
3644.80577,0.14748
3646.73423,0.15506
3648.66270,0.16897
3650.59117,0.17205
3652.51964,0.16215
3654.44811,0.15405
3656.37658,0.15076
3658.30505,0.15139
3660.23352,0.15326
3662.16198,0.15227
3664.09045,0.14850
3666.01892,0.14791
3667.94739,0.15342
3669.87586,0.15978
3671.80433,0.16090
3673.73280,0.16430
3675.66126,0.16773
3677.58973,0.15757
3679.51820,0.14689
3681.44667,0.14327
3683.37514,0.14308
3685.30361,0.14591
3687.23208,0.15396
3689.16055,0.16467
3691.08901,0.16459
3693.01748,0.15584
3694.94595,0.14873
3696.87442,0.14298
3698.80289,0.13939
3700.73136,0.14126
3702.65983,0.14607
3704.58829,0.14806
3706.51676,0.14843
3708.44523,0.14925
3710.37370,0.15080
3712.30217,0.15064
3714.23064,0.14740
3716.15911,0.14738
3718.08757,0.15005
3720.01604,0.15251
3721.94451,0.15761
3723.87298,0.16111
3725.80145,0.15588
3727.72992,0.14964
3729.65839,0.15009
3731.58686,0.15503
3733.51532,0.16637
3735.44379,0.17936
3737.37226,0.17447
3739.30073,0.16260
3741.22920,0.15683
3743.15767,0.15740
3745.08614,0.16202
3747.01460,0.16309
3748.94307,0.16204
3750.87154,0.16173
3752.80001,0.15595
3754.72848,0.14794
3756.65695,0.14721
3758.58542,0.15284
3760.51389,0.15117
3762.44235,0.14437
3764.37082,0.14394
3766.29929,0.14649
3768.22776,0.14618
3770.15623,0.14519
3772.08470,0.14366
3774.01317,0.14207
3775.94163,0.14419
3777.87010,0.14987
3779.79857,0.15080
3781.72704,0.14399
3783.65551,0.13849
3785.58398,0.13861
3787.51245,0.13965
3789.44092,0.13904
3791.36938,0.14090
3793.29785,0.14468
3795.22632,0.14573
3797.15479,0.14353
3799.08326,0.14251
3801.01173,0.14583
3802.94020,0.15180
3804.86866,0.15641
3806.79713,0.15592
3808.72560,0.14908
3810.65407,0.14423
3812.58254,0.14252
3814.51101,0.14195
3816.43948,0.14402
3818.36795,0.14852
3820.29641,0.15040
3822.22488,0.14397
3824.15335,0.14013
3826.08182,0.14296
3828.01029,0.14144
3829.93876,0.13639
3831.86723,0.14070
3833.79569,0.15174
3835.72416,0.15915
3837.65263,0.16343
3839.58110,0.16203
3841.50957,0.15513
3843.43804,0.14699
3845.36651,0.13978
3847.29498,0.13758
3849.22344,0.14056
3851.15191,0.14856
3853.08038,0.15798
3855.00885,0.14767
3856.93732,0.13257
3858.86579,0.12754
3860.79426,0.13161
3862.72272,0.14049
3864.65119,0.14547
3866.57966,0.14495
3868.50813,0.14720
3870.43660,0.15004
3872.36507,0.14605
3874.29354,0.14041
3876.22200,0.13408
3878.15047,0.12669
3880.07894,0.12482
3882.00741,0.13067
3883.93588,0.13669
3885.86435,0.14031
3887.79282,0.13891
3889.72129,0.13625
3891.64975,0.13634
3893.57822,0.13684
3895.50669,0.14006
3897.43516,0.14681
3899.36363,0.14897
3901.29210,0.14146
3903.22057,0.13185
3905.14903,0.12664
3907.07750,0.12541
3909.00597,0.12613
3910.93444,0.12555
3912.86291,0.12237
3914.79138,0.12158
3916.71985,0.12608
3918.64832,0.13094
3920.57678,0.12982
3922.50525,0.12456
3924.43372,0.12442
3926.36219,0.13000
3928.29066,0.13145
3930.21913,0.13061
3932.14760,0.13390
3934.07606,0.13588
3936.00453,0.13220
3937.93300,0.12638
3939.86147,0.12317
3941.78994,0.12265
3943.71841,0.11960
3945.64688,0.11672
3947.57535,0.11873
3949.50381,0.11986
3951.43228,0.11813
3953.36075,0.11983
3955.28922,0.12322
3957.21769,0.12359
3959.14616,0.12306
3961.07463,0.12372
3963.00309,0.12317
3964.93156,0.11977
3966.86003,0.11846
3968.78850,0.12365
3970.71697,0.12668
3972.64544,0.12273
3974.57391,0.12100
3976.50238,0.12196
3978.43084,0.12293
3980.35931,0.12473
3982.28778,0.12067
3984.21625,0.11169
3986.14472,0.10973
3988.07319,0.11666
3990.00166,0.12292
3991.93012,0.12447
3993.85859,0.12294
3995.78706,0.11856
3997.71553,0.11485
3999.64400,0.11093
4001.57247,0.10593
4003.50094,0.10750
4005.42941,0.11450
4007.35787,0.11887
4009.28634,0.11927
4011.21481,0.11819
4013.14328,0.11761
4015.07175,0.11646
4017.00022,0.11519
4018.92869,0.11409
4020.85715,0.11120
4022.78562,0.11044
4024.71409,0.11161
4026.64256,0.10860
4028.57103,0.10581
4030.49950,0.10980
4032.42797,0.11425
4034.35644,0.11298
4036.28490,0.11054
4038.21337,0.10887
4040.14184,0.10728
4042.07031,0.10805
4043.99878,0.10951
4045.92725,0.10983
4047.85572,0.11093
4049.78418,0.11138
4051.71265,0.11234
4053.64112,0.11893
4055.56959,0.12260
4057.49806,0.11585
4059.42653,0.10920
4061.35500,0.10717
4063.28346,0.10469
4065.21193,0.10367
4067.14040,0.10635
4069.06887,0.10838
4070.99734,0.10556
4072.92581,0.09958
4074.85428,0.09708
4076.78275,0.09858
4078.71121,0.09821
4080.63968,0.09700
4082.56815,0.09795
4084.49662,0.09848
4086.42509,0.09814
4088.35356,0.10047
4090.28203,0.10323
4092.21049,0.10224
4094.13896,0.10080
4096.06743,0.09931
4097.99590,0.09595
4099.92437,0.09607
4101.85284,0.10015
4103.78131,0.10086
4105.70978,0.09832
4107.63824,0.09561
4109.56671,0.09194
4111.49518,0.09061
4113.42365,0.09407
4115.35212,0.09907
4117.28059,0.10047
4119.20906,0.09657
4121.13752,0.09559
4123.06599,0.10059
4124.99446,0.10144
4126.92293,0.09952
4128.85140,0.10272
4130.77987,0.10306
4132.70834,0.09762
4134.63681,0.09582
4136.56527,0.09958
4138.49374,0.10401
4140.42221,0.10417
4142.35068,0.10081
4144.27915,0.10089
4146.20762,0.10570
4148.13609,0.10668
4150.06455,0.10094
4151.99302,0.09659
4153.92149,0.09526
4155.84996,0.09176
4157.77843,0.08762
4159.70690,0.08701
4161.63537,0.08877
4163.56384,0.09029
4165.49230,0.09255
4167.42077,0.09452
4169.34924,0.09153
4171.27771,0.08503
4173.20618,0.07878
4175.13465,0.07411
4177.06312,0.07640
4178.99158,0.08383
4180.92005,0.08906
4182.84852,0.09472
4184.77699,0.09890
4186.70546,0.09412
4188.63393,0.08454
4190.56240,0.07967
4192.49087,0.08009
4194.41933,0.08075
4196.34780,0.08175
4198.27627,0.08529
4200.20474,0.09075
4202.13321,0.09447
4204.06168,0.09224
4205.99015,0.08474
4207.91861,0.07594
4209.84708,0.07138
4211.77555,0.07430
4213.70402,0.08172
4215.63249,0.08699
4217.56096,0.08413
4219.48943,0.07829
4221.41789,0.07948
4223.34636,0.08651
4225.27483,0.09128
4227.20330,0.08838
4229.13177,0.07998
4231.06024,0.07241
4232.98871,0.06939
4234.91718,0.06828
4236.84564,0.06308
4238.77411,0.05905
4240.70258,0.06407
4242.63105,0.07287
4244.55952,0.07813
4246.48799,0.07749
4248.41646,0.07282
4250.34492,0.07192
4252.27339,0.07776
4254.20186,0.08192
4256.13033,0.07882
4258.05880,0.07103
4259.98727,0.06248
4261.91574,0.05616
4263.84421,0.05401
4265.77267,0.05763
4267.70114,0.06172
4269.62961,0.06253
4271.55808,0.06628
4273.48655,0.07222
4275.41502,0.07171
4277.34349,0.06332
4279.27195,0.05580
4281.20042,0.05636
4283.12889,0.06351
4285.05736,0.06979
4286.98583,0.06889
4288.91430,0.06290
4290.84277,0.05433
4292.77124,0.04602
4294.69970,0.04582
4296.62817,0.05535
4298.55664,0.06684
4300.48511,0.07088
4302.41358,0.06660
4304.34205,0.05922
4306.27052,0.05254
4308.19898,0.05027
4310.12745,0.05110
4312.05592,0.05445
4313.98439,0.06156
4315.91286,0.06653
4317.84133,0.06579
4319.76980,0.06060
4321.69827,0.05306
4323.62673,0.04904
4325.55520,0.05294
4327.48367,0.05678
4329.41214,0.05254
4331.34061,0.04815
4333.26908,0.04957
4335.19755,0.05187
4337.12601,0.05172
4339.05448,0.04980
4340.98295,0.05055
4342.91142,0.05427
4344.83989,0.05175
4346.76836,0.04568
4348.69683,0.04394
4350.62530,0.03948
4352.55376,0.03803
4354.48223,0.04769
4356.41070,0.05006
4358.33917,0.04057
4360.26764,0.04144
4362.19611,0.05177
4364.12458,0.05079
4366.05304,0.04240
4367.98151,0.03885
4369.90998,0.03798
4371.83845,0.03751
4373.76692,0.03708
4375.69539,0.03919
4377.62386,0.04204
4379.55232,0.03994
4381.48079,0.03773
4383.40926,0.03767
4385.33773,0.03574
4387.26620,0.03194
4389.19467,0.02807
4391.12314,0.02668
4393.05161,0.02750
4394.98007,0.03115
4396.90854,0.03893
4398.83701,0.04395
4400.76548,0.04183
4402.69395,0.03788
4404.62242,0.03698
4406.55089,0.04014
4408.47935,0.04412
4410.40782,0.04274
4412.33629,0.03696
4414.26476,0.03152
4416.19323,0.02812
4418.12170,0.02739
4420.05017,0.02693
4421.97864,0.02994
4423.90710,0.03850
4425.83557,0.04106
4427.76404,0.03622
4429.69251,0.03348
4431.62098,0.03111
4433.54945,0.02698
4435.47792,0.02380
4437.40638,0.02117
4439.33485,0.02137
4441.26332,0.02752
4443.19179,0.03246
4445.12026,0.02852
4447.04873,0.01967
4448.97720,0.01212
4450.90567,0.01130
4452.83413,0.01689
4454.76260,0.01950
4456.69107,0.01886
4458.61954,0.02359
4460.54801,0.03149
4462.47648,0.03185
4464.40495,0.02527
4466.33341,0.02036
4468.26188,0.01839
4470.19035,0.01429
4472.11882,0.00909
4474.04729,0.01138
4475.97576,0.01834
4477.90423,0.02047
4479.83270,0.02127
4481.76116,0.02232
4483.68963,0.01738
4485.61810,0.01182
4487.54657,0.01161
4489.47504,0.01342
4491.40351,0.01962
4493.33198,0.02692
4495.26044,0.02497
4497.18891,0.01644
4499.11738,0.00838
4501.04585,0.00333
4502.97432,0.00380
4504.90279,0.00682
4506.83126,0.00924
4508.75973,0.01432
4510.68819,0.01703
4512.61666,0.01197
4514.54513,0.00989
4516.47360,0.01502
4518.40207,0.01990
4520.33054,0.02279
4522.25901,0.01658
4524.18747,0.00220
4526.11594,-0.00346
4528.04441,-0.00100
4529.97288,0.00192
4531.90135,0.00709
4533.82982,0.01038
4535.75829,0.00892
4537.68676,0.00999
4539.61522,0.01290
4541.54369,0.01477
4543.47216,0.02248
4545.40063,0.03091
4547.32910,0.02966
4549.25757,0.02171
4551.18604,0.01389
4553.11450,0.00926
4555.04297,0.00893
4556.97144,0.01278
4558.89991,0.01630
4560.82838,0.01456
4562.75685,0.00573
4564.68532,-0.00527
4566.61378,-0.00948
4568.54225,-0.00615
4570.47072,-0.00083
4572.39919,0.00173
4574.32766,-0.00110
4576.25613,-0.00653
4578.18460,-0.00595
4580.11307,0.00164
4582.04153,0.00936
4583.97000,0.01217
4585.89847,0.00816
4587.82694,0.00225
4589.75541,0.00041
4591.68388,0.00298
4593.61235,0.00495
4595.54081,0.00377
4597.46928,0.00473
4599.39775,0.00658
4601.32622,0.00407
4603.25469,0.00176
4605.18316,0.00154
4607.11163,0.00040
4609.04010,0.00578
4610.96856,0.01736
4612.89703,0.02260
4614.82550,0.02344
4616.75397,0.02324
4618.68244,0.01824
4620.61091,0.01414
4622.53938,0.01353
4624.46784,0.00846
4626.39631,-0.00087
4628.32478,-0.00756
4630.25325,-0.01145
4632.18172,-0.00891
4634.11019,0.00014
4636.03866,0.00410
4637.96713,0.00581
4639.89559,0.01624
4641.82406,0.02681
4643.75253,0.02408
4645.68100,0.01331
4647.60947,0.00685
4649.53794,0.00396
4651.46641,-0.00077
4653.39487,-0.00410
4655.32334,-0.00280
4657.25181,0.00052
4659.18028,0.00461
4661.10875,0.01216
4663.03722,0.02021
4664.96569,0.02189
4666.89416,0.02230
4668.82262,0.02326
4670.75109,0.01667
4672.67956,0.00612
4674.60803,-0.00124
4676.53650,-0.00113
4678.46497,0.00726
4680.39344,0.01558
4682.32190,0.01704
4684.25037,0.01179
4686.17884,0.01315
4688.10731,0.02703
4690.03578,0.03161
4691.96425,0.01706
4693.89272,0.00388
4695.82119,0.00455
4697.74965,0.00595
4699.67812,0.00063
4701.60659,-0.00093
4703.53506,-0.00111
4705.46353,-0.00649
4707.39200,-0.00607
4709.32047,0.00409
4711.24893,0.01243
4713.17740,0.01161
4715.10587,0.00402
4717.03434,-0.00004
4718.96281,0.00439
4720.89128,0.00779
4722.81975,0.00813
4724.74821,0.00713
4726.67668,-0.00057
4728.60515,-0.00736
4730.53362,-0.00431
4732.46209,0.00193
4734.39056,0.00272
4736.31903,-0.00086
4738.24750,-0.00447
4740.17596,-0.01032
4742.10443,-0.01261
4744.03290,-0.00397
4745.96137,-0.00007
4747.88984,-0.00303
4749.81831,0.00628
4751.74678,0.01509
4753.67524,0.00875
4755.60371,0.00236
4757.53218,0.00338
4759.46065,0.00978
4761.38912,0.01492
4763.31759,0.00910
4765.24606,0.00352
4767.17453,0.01231
4769.10299,0.01972
4771.03146,0.01255
4772.95993,0.00337
4774.88840,-0.00177
4776.81687,-0.00644
4778.74534,-0.00997
4780.67381,-0.01135
4782.60227,-0.00683
4784.53074,0.00388
4786.45921,0.01502
4788.38768,0.02215
4790.31615,0.02399
4792.24462,0.02340
4794.17309,0.01624
4796.10156,0.00103
4798.03002,-0.00751
4799.95849,-0.00312
4801.88696,0.00504
4803.81543,0.00634
4805.74390,0.00510
4807.67237,0.01360
4809.60084,0.02165
4811.52930,0.01419
4813.45777,0.00496
4815.38624,0.00655
4817.31471,0.00392
4819.24318,-0.00510
4821.17165,-0.01112
4823.10012,-0.01279
4825.02859,-0.00004
4826.95705,0.02239
4828.88552,0.03043
4830.81399,0.02213
4832.74246,0.01288
4834.67093,0.00978
4836.59940,0.01006
4838.52787,0.00947
4840.45633,0.00936
4842.38480,0.00817
4844.31327,0.00498
4846.24174,0.00604
4848.17021,0.00560
4850.09868,0.00083
4852.02715,0.00291
4853.95562,0.01027
4855.88408,0.01124
4857.81255,0.00080
4859.74102,-0.01245
4861.66949,-0.01511
4863.59796,-0.00775
4865.52643,0.00196
4867.45490,0.00797
4869.38336,0.00610
4871.31183,0.00448
4873.24030,0.01043
4875.16877,0.01310
4877.09724,0.01025
4879.02571,0.01541
4880.95418,0.02074
4882.88265,0.00734
4884.81111,-0.01320
4886.73958,-0.01862
4888.66805,-0.01054
4890.59652,-0.00656
4892.52499,-0.01028
4894.45346,-0.00895
4896.38193,-0.00448
4898.31039,-0.00697
4900.23886,-0.00776
4902.16733,0.00243
4904.09580,0.01005
4906.02427,0.00408
4907.95274,-0.00359
4909.88121,0.00174
4911.80967,0.01760
4913.73814,0.01854
4915.66661,0.00154
4917.59508,-0.00230
4919.52355,0.00570
4921.45202,0.00630
4923.38049,0.00671
4925.30896,0.01221
4927.23742,0.01769
4929.16589,0.02015
4931.09436,0.01844
4933.02283,0.01387
4934.95130,0.00909
4936.87977,0.00552
4938.80824,0.00341
4940.73670,0.00119
4942.66517,0.00044
4944.59364,0.00652
4946.52211,0.01630
4948.45058,0.01681
4950.37905,0.00674
4952.30752,-0.00892
4954.23599,-0.02011
4956.16445,-0.01181
4958.09292,0.00327
4960.02139,0.00861
4961.94986,0.01990
4963.87833,0.03729
4965.80680,0.03784
4967.73527,0.02583
4969.66373,0.02012
4971.59220,0.02044
4973.52067,0.01712
4975.44914,0.01221
4977.37761,0.00849
4979.30608,-0.00020
4981.23455,-0.00767
4983.16302,-0.00247
4985.09148,0.00986
4987.01995,0.01718
4988.94842,0.01469
4990.87689,0.01209
4992.80536,0.01616
4994.73383,0.01927
4996.66230,0.01582
4998.59076,0.00365
5000.51923,-0.01218
5002.44770,-0.01781
5004.37617,-0.00292
5006.30464,0.02147
5008.23311,0.02757
5010.16158,0.01495
5012.09005,0.00798
5014.01851,0.01204
5015.94698,0.01852
5017.87545,0.02314
5019.80392,0.02390
5021.73239,0.02395
5023.66086,0.02235
5025.58933,0.01526
5027.51779,0.01347
5029.44626,0.02100
5031.37473,0.02041
5033.30320,0.01115
5035.23167,0.01108
5037.16014,0.02076
5039.08861,0.03581
5041.01708,0.04740
5042.94554,0.04136
5044.87401,0.03109
5046.80248,0.03070
5048.73095,0.02679
5050.65942,0.01209
5052.58789,0.00670
5054.51636,0.02182
5056.44482,0.03530
5058.37329,0.03766
5060.30176,0.03935
5062.23023,0.03962
5064.15870,0.04057
5066.08717,0.04094
5068.01564,0.02885
5069.94410,0.01030
5071.87257,0.00054
5073.80104,0.00211
5075.72951,0.01255
5077.65798,0.02491
5079.58645,0.02882
5081.51492,0.02906
5083.44339,0.02784
5085.37185,0.01813
5087.30032,0.01926
5089.22879,0.04178
5091.15726,0.05481
5093.08573,0.05004
5095.01420,0.04632
5096.94267,0.03955
5098.87113,0.02774
5100.79960,0.02546
5102.72807,0.02725
5104.65654,0.02419
5106.58501,0.02567
5108.51348,0.03219
5110.44195,0.03203
5112.37042,0.02721
5114.29888,0.03055
5116.22735,0.03545
5118.15582,0.03336
5120.08429,0.03796
5122.01276,0.04679
5123.94123,0.04444
5125.86970,0.03729
5127.79816,0.03354
5129.72663,0.03452
5131.65510,0.03999
5133.58357,0.03858
5135.51204,0.02619
5137.44051,0.01657
5139.36898,0.01843
5141.29745,0.02646
5143.22591,0.02881
5145.15438,0.02253
5147.08285,0.00971
5149.01132,-0.00635
5150.93979,-0.00712
5152.86826,0.01114
5154.79673,0.03153
5156.72519,0.04763
5158.65366,0.04855
5160.58213,0.02884
5162.51060,0.00903
5164.43907,-0.00061
5166.36754,-0.00773
5168.29601,0.00013
5170.22448,0.02894
5172.15294,0.05467
5174.08141,0.06218
5176.00988,0.05426
5177.93835,0.03867
5179.86682,0.02040
5181.79529,0.00617
5183.72376,0.00809
5185.65222,0.02444
5187.58069,0.04235
5189.50916,0.05703
5191.43763,0.06610
5193.36610,0.06312
5195.29457,0.05193
5197.22304,0.04597
5199.15151,0.04949
5201.07997,0.05730
5203.00844,0.05966
5204.93691,0.05192
5206.86538,0.04403
5208.79385,0.04499
5210.72232,0.04769
5212.65079,0.04569
5214.57925,0.04552
5216.50772,0.04313
5218.43619,0.03206
5220.36466,0.02840
5222.29313,0.03489
5224.22160,0.04466
5226.15007,0.05514
5228.07854,0.05984
5230.00700,0.05831
5231.93547,0.05130
5233.86394,0.04524
5235.79241,0.04619
5237.72088,0.05510
5239.64935,0.05855
5241.57782,0.04165
5243.50628,0.02313
5245.43475,0.02922
5247.36322,0.04852
5249.29169,0.05515
5251.22016,0.05815
5253.14863,0.07152
5255.07710,0.08497
5257.00556,0.09412
5258.93403,0.09349
5260.86250,0.07387
5262.79097,0.04030
5264.71944,0.00761
5266.64791,-0.00739
5268.57638,0.00269
5270.50485,0.02808
5272.43331,0.04577
5274.36178,0.04560
5276.29025,0.04498
5278.21872,0.05564
5280.14719,0.05795
5282.07566,0.04863
5284.00413,0.05061
5285.93259,0.06925
5287.86106,0.08989
5289.78953,0.09738
5291.71800,0.08771
5293.64647,0.06804
5295.57494,0.04993
5297.50341,0.04445
5299.43188,0.05501
5301.36034,0.07405
5303.28881,0.08645
5305.21728,0.08770
5307.14575,0.08601
5309.07422,0.08336
5311.00269,0.07031
5312.93116,0.04945
5314.85962,0.03892
5316.78809,0.04202
5318.71656,0.05010
5320.64503,0.05991
5322.57350,0.06236
5324.50197,0.05042
5326.43044,0.04173
5328.35891,0.05523
5330.28737,0.07166
5332.21584,0.07169
5334.14431,0.06808
5336.07278,0.06479
5338.00125,0.04913
5339.92972,0.03942
5341.85819,0.05095
5343.78665,0.06232
5345.71512,0.04865
5347.64359,0.01568
5349.57206,-0.00512
5351.50053,-0.00374
5353.42900,0.00196
5355.35747,0.00649
5357.28594,0.01759
5359.21440,0.03639
5361.14287,0.04997
5363.07134,0.05158
5364.99981,0.05742
5366.92828,0.06357
5368.85675,0.05770
5370.78522,0.05193
5372.71368,0.05364
5374.64215,0.05491
5376.57062,0.06141
5378.49909,0.08029
5380.42756,0.08849
5382.35603,0.07919
5384.28450,0.07358
5386.21297,0.07820
5388.14143,0.07155
5390.06990,0.05344
5391.99837,0.04696
5393.92684,0.05511
5395.85531,0.06375
5397.78378,0.07162
5399.71225,0.07096
5401.64071,0.05890
5403.56918,0.05154
5405.49765,0.05786
5407.42612,0.07761
5409.35459,0.10269
5411.28306,0.10822
5413.21153,0.08694
5415.13999,0.06235
5417.06846,0.04321
5418.99693,0.03774
5420.92540,0.04676
5422.85387,0.04765
5424.78234,0.05189
5426.71081,0.07918
5428.63928,0.10366
5430.56774,0.11232
5432.49621,0.11749
5434.42468,0.10869
5436.35315,0.08813
5438.28162,0.07545
5440.21009,0.06761
5442.13856,0.05789
5444.06702,0.05357
5445.99549,0.05416
5447.92396,0.05461
5449.85243,0.06355
5451.78090,0.08055
5453.70937,0.09474
5455.63784,0.09116
5457.56631,0.06387
5459.49477,0.05187
5461.42324,0.07048
5463.35171,0.07018
5465.28018,0.04338
5467.20865,0.03800
5469.13712,0.06232
5471.06559,0.08391
5472.99405,0.07725
5474.92252,0.05165
5476.85099,0.05008
5478.77946,0.07124
5480.70793,0.08134
5482.63640,0.07213
5484.56487,0.06027
5486.49334,0.06417
5488.42180,0.07673
5490.35027,0.09289
5492.27874,0.11735
5494.20721,0.11404
5496.13568,0.06082
5498.06415,0.00042
5499.99262,-0.01599
5501.92108,0.01069
5503.84955,0.03407
5505.77802,0.04592
5507.70649,0.06868
5509.63496,0.08836
5511.56343,0.09305
5513.49190,0.09557
5515.42037,0.09588
5517.34883,0.09538
5519.27730,0.10158
5521.20577,0.10392
5523.13424,0.10098
5525.06271,0.10280
5526.99118,0.10057
5528.91965,0.09090
5530.84811,0.08254
5532.77658,0.07952
5534.70505,0.07705
5536.63352,0.06691
5538.56199,0.05107
5540.49046,0.05266
5542.41893,0.10059
5544.34740,0.15695
5546.27586,0.15491
5548.20433,0.11389
5550.13280,0.08783
5552.06127,0.08768
5553.98974,0.09857
5555.91821,0.09787
5557.84668,0.10025
5559.77514,0.12025
5561.70361,0.11891
5563.63208,0.09062
5565.56055,0.06684
5567.48902,0.05144
5569.41749,0.04664
5571.34596,0.05746
5573.27443,0.06615
5575.20289,0.06030
5577.13136,0.06285
5579.05983,0.09240
5580.98830,0.12967
5582.91677,0.12997
5584.84524,0.09940
5586.77371,0.08405
5588.70217,0.07979
5590.63064,0.06866
5592.55911,0.07448
5594.48758,0.10333
5596.41605,0.12553
5598.34452,0.13237
5600.27299,0.12996
5602.20145,0.11465
5604.12992,0.10021
5606.05839,0.09892
5607.98686,0.09535
5609.91533,0.07962
5611.84380,0.07079
5613.77227,0.07903
5615.70074,0.08840
5617.62920,0.09147
5619.55767,0.07750
5621.48614,0.04104
5623.41461,0.02636
5625.34308,0.05541
5627.27155,0.07190
5629.20002,0.05654
5631.12848,0.04807
5633.05695,0.04093
5634.98542,0.02039
5636.91389,0.02482
5638.84236,0.06493
5640.77083,0.08099
5642.69930,0.06294
5644.62777,0.05597
5646.55623,0.06871
5648.48470,0.08279
5650.41317,0.09638
5652.34164,0.10643
5654.27011,0.08927
5656.19858,0.06090
5658.12705,0.07539
5660.05551,0.12212
5661.98398,0.13492
5663.91245,0.10634
5665.84092,0.09232
5667.76939,0.10290
5669.69786,0.09876
5671.62633,0.08519
5673.55480,0.09922
5675.48326,0.11926
5677.41173,0.10934
5679.34020,0.10425
5681.26867,0.11835
5683.19714,0.11529
5685.12561,0.09489
5687.05408,0.06840
5688.98254,0.03978
5690.91101,0.03779
5692.83948,0.07173
5694.76795,0.10718
5696.69642,0.11347
5698.62489,0.08835
5700.55336,0.06623
5702.48183,0.07736
5704.41029,0.08992
5706.33876,0.07795
5708.26723,0.07488
5710.19570,0.10145
5712.12417,0.12266
5714.05264,0.10992
5715.98111,0.08997
5717.90957,0.09053
5719.83804,0.10208
5721.76651,0.10361
5723.69498,0.09093
5725.62345,0.08700
5727.55192,0.11308
5729.48039,0.14296
5731.40886,0.13452
5733.33732,0.09046
5735.26579,0.05485
5737.19426,0.07182
5739.12273,0.12631
5741.05120,0.17239
5742.97967,0.18265
5744.90814,0.15775
5746.83660,0.12223
5748.76507,0.10340
5750.69354,0.10419
5752.62201,0.11037
5754.55048,0.10729
5756.47895,0.09830
5758.40742,0.11375
5760.33588,0.14140
5762.26435,0.13092
5764.19282,0.09287
5766.12129,0.06975
5768.04976,0.05291
5769.97823,0.03017
5771.90670,0.03274
5773.83517,0.06545
5775.76363,0.09787
5777.69210,0.11788
5779.62057,0.10937
5781.54904,0.07343
5783.47751,0.05650
5785.40598,0.07074
5787.33445,0.08831
5789.26291,0.11185
5791.19138,0.12690
5793.11985,0.10179
5795.04832,0.06172
5796.97679,0.05105
5798.90526,0.05944
5800.83373,0.05642
5802.76220,0.06438
5804.69066,0.11753
5806.61913,0.17975
5808.54760,0.18263
5810.47607,0.13697
5812.40454,0.09975
5814.33301,0.08172
5816.26148,0.07291
5818.18994,0.06670
5820.11841,0.04596
5822.04688,0.02289
5823.97535,0.02084
5825.90382,0.02011
5827.83229,0.02033
5829.76076,0.06463
5831.68923,0.13430
5833.61769,0.15342
5835.54616,0.11080
5837.47463,0.07076
5839.40310,0.06818
5841.33157,0.08435
5843.26004,0.10570
5845.18851,0.12647
5847.11697,0.12241
5849.04544,0.10647
5850.97391,0.11849
5852.90238,0.13996
5854.83085,0.14468
5856.75932,0.13742
5858.68779,0.11587
5860.61626,0.07664
5862.54472,0.05253
5864.47319,0.05978
5866.40166,0.07230
5868.33013,0.08462
5870.25860,0.08449
5872.18707,0.06196
5874.11554,0.05088
5876.04400,0.05895
5877.97247,0.05108
5879.90094,0.03740
5881.82941,0.04894
5883.75788,0.07126
5885.68635,0.08188
5887.61482,0.07928
5889.54329,0.08424
5891.47175,0.09670
5893.40022,0.08660
5895.32869,0.07024
5897.25716,0.08706
5899.18563,0.12241
5901.11410,0.12973
5903.04257,0.10742
5904.97103,0.08724
5906.89950,0.06497
5908.82797,0.04547
5910.75644,0.05455
5912.68491,0.08175
5914.61338,0.10988
5916.54185,0.11710
5918.47032,0.08353
5920.39878,0.04202
5922.32725,0.03595
5924.25572,0.07056
5926.18419,0.12260
5928.11266,0.15414
5930.04113,0.16075
5931.96960,0.15129
5933.89806,0.11420
5935.82653,0.08294
5937.75500,0.08619
5939.68347,0.08480
5941.61194,0.06876
5943.54041,0.06502
5945.46888,0.06642
5947.39734,0.05352
5949.32581,0.05818
5951.25428,0.11008
5953.18275,0.15427
5955.11122,0.16749
5957.03969,0.18906
5958.96816,0.19833
5960.89663,0.14584
5962.82509,0.05804
5964.75356,-0.00411
5966.68203,-0.01548
5968.61050,0.00592
5970.53897,0.04760
5972.46744,0.11145
5974.39591,0.15429
5976.32437,0.15495
5978.25284,0.13509
5980.18131,0.10413
5982.10978,0.09714
5984.03825,0.10953
5985.96672,0.08870
5987.89519,0.05321
5989.82366,0.04201
5991.75212,0.04433
5993.68059,0.04051
5995.60906,0.05203
5997.53753,0.08744
5999.46600,0.09183
6001.39447,0.06770
6003.32294,0.07107
6005.25140,0.07880
6007.17987,0.04944
6009.10834,0.03840
6011.03681,0.07574
6012.96528,0.10977
6014.89375,0.11203
6016.82222,0.10906
6018.75069,0.11092
6020.67915,0.09352
6022.60762,0.07786
6024.53609,0.08500
6026.46456,0.10678
6028.39303,0.12877
6030.32150,0.13074
6032.24997,0.12422
6034.17843,0.10661
6036.10690,0.07899
6038.03537,0.06525
6039.96384,0.05671
6041.89231,0.05071
6043.82078,0.04242
6045.74925,0.03058
6047.67772,0.04011
6049.60618,0.07561
6051.53465,0.10335
6053.46312,0.08036
6055.39159,0.02401
6057.32006,0.00663
6059.24853,0.03263
6061.17700,0.06858
6063.10546,0.08210
6065.03393,0.05746
6066.96240,0.04322
6068.89087,0.05319
6070.81934,0.05245
6072.74781,0.05346
6074.67628,0.07045
6076.60475,0.07254
6078.53321,0.07637
6080.46168,0.09878
6082.39015,0.09175
6084.31862,0.05585
6086.24709,0.03777
6088.17556,0.05472
6090.10403,0.08115
6092.03249,0.07947
6093.96096,0.07712
6095.88943,0.11650
6097.81790,0.14469
6099.74637,0.11387
6101.67484,0.08020
6103.60331,0.06740
6105.53177,0.04149
6107.46024,0.04883
6109.38871,0.09898
6111.31718,0.10601
6113.24565,0.08865
6115.17412,0.11255
6117.10259,0.15507
6119.03106,0.13323
6120.95952,0.05353
6122.88799,0.01979
6124.81646,0.04274
6126.74493,0.07849
6128.67340,0.13520
6130.60187,0.20354
6132.53034,0.20580
6134.45880,0.14443
6136.38727,0.10409
6138.31574,0.09880
6140.24421,0.09319
6142.17268,0.06821
6144.10115,0.01133
6146.02962,-0.02690
6147.95809,0.00878
6149.88655,0.06506
6151.81502,0.08490
6153.74349,0.10335
6155.67196,0.13358
6157.60043,0.14195
6159.52890,0.13150
6161.45737,0.12019
6163.38583,0.09767
6165.31430,0.08463
6167.24277,0.09689
6169.17124,0.09841
6171.09971,0.07954
6173.02818,0.06038
6174.95665,0.04565
6176.88512,0.03280
6178.81358,0.05142
6180.74205,0.08911
6182.67052,0.08282
6184.59899,0.06267
6186.52746,0.08209
6188.45593,0.10365
6190.38440,0.09586
6192.31286,0.10389
6194.24133,0.13703
6196.16980,0.16039
6198.09827,0.16580
6200.02674,0.14478
6201.95521,0.06404
6203.88368,-0.04913
6205.81215,-0.06796
6207.74061,0.02477
6209.66908,0.10753
6211.59755,0.10718
6213.52602,0.07111
6215.45449,0.04322
6217.38296,0.03033
6219.31143,0.04068
6221.23989,0.06175
6223.16836,0.07097
6225.09683,0.07292
6227.02530,0.09129
6228.95377,0.10500
6230.88224,0.09318
6232.81071,0.09799
6234.73918,0.11040
6236.66764,0.09880
6238.59611,0.09862
6240.52458,0.10370
6242.45305,0.07633
6244.38152,0.05479
6246.30999,0.07568
6248.23846,0.10869
6250.16692,0.11716
6252.09539,0.10021
6254.02386,0.08791
6255.95233,0.08602
6257.88080,0.09199
6259.80927,0.10471
6261.73774,0.10898
6263.66621,0.11658
6265.59467,0.12601
6267.52314,0.09827
6269.45161,0.07389
6271.38008,0.10021
6273.30855,0.12705
6275.23702,0.11436
6277.16549,0.10266
6279.09395,0.09739
6281.02242,0.09522
6282.95089,0.13736
6284.87936,0.19044
6286.80783,0.16790
6288.73630,0.08881
6290.66477,0.05496
6292.59323,0.08213
6294.52170,0.08208
6296.45017,0.06072
6298.37864,0.09317
6300.30711,0.15475
6302.23558,0.15417
6304.16405,0.08946
6306.09252,0.05684
6308.02098,0.08949
6309.94945,0.10733
6311.87792,0.05265
6313.80639,-0.00433
6315.73486,-0.00303
6317.66333,0.04248
6319.59180,0.12317
6321.52026,0.17405
6323.44873,0.14198
6325.37720,0.09577
6327.30567,0.09008
6329.23414,0.11277
6331.16261,0.09969
6333.09108,0.04177
6335.01955,0.01528
6336.94801,0.05290
6338.87648,0.11801
6340.80495,0.12676
6342.73342,0.07245
6344.66189,0.05995
6346.59036,0.13499
6348.51883,0.23151
6350.44729,0.26038
6352.37576,0.18757
6354.30423,0.10856
6356.23270,0.11074
6358.16117,0.17396
6360.08964,0.22167
6362.01811,0.22541
6363.94658,0.23291
6365.87504,0.23849
6367.80351,0.21336
6369.73198,0.17646
6371.66045,0.09174
6373.58892,0.01694
6375.51739,0.04300
6377.44586,0.08297
6379.37432,0.09882
6381.30279,0.14998
6383.23126,0.20400
6385.15973,0.17745
6387.08820,0.13540
6389.01667,0.11630
6390.94514,0.08007
6392.87361,0.05041
6394.80207,0.06674
6396.73054,0.09701
6398.65901,0.08494
6400.58748,0.03440
6402.51595,0.02237
6404.44442,0.06207
6406.37289,0.11659
6408.30135,0.17625
6410.22982,0.17685
6412.15829,0.09068
6414.08676,0.02455
6416.01523,0.04452
6417.94370,0.12742
6419.87217,0.19442
6421.80064,0.22386
6423.72910,0.26048
6425.65757,0.28271
6427.58604,0.24374
6429.51451,0.17615
6431.44298,0.15536
6433.37145,0.15986
6435.29992,0.15542
6437.22838,0.18130
6439.15685,0.20284
6441.08532,0.16846
6443.01379,0.09591
6444.94226,0.03288
6446.87073,0.02109
6448.79920,0.04994
6450.72766,0.09218
6452.65613,0.11768
6454.58460,0.08901
6456.51307,0.03834
6458.44154,0.03960
6460.37001,0.06637
6462.29848,0.06987
6464.22695,0.06947
6466.15541,0.06899
6468.08388,0.02718
6470.01235,-0.03132
6471.94082,-0.02473
6473.86929,-0.00067
6475.79776,-0.03219
6477.72623,-0.05307
6479.65469,-0.00807
6481.58316,0.03516
6483.51163,0.01480
6485.44010,-0.00784
6487.36857,0.01426
6489.29704,0.02313
6491.22551,0.01417
6493.15398,0.03444
6495.08244,0.06360
6497.01091,0.08810
6498.93938,0.08260
6500.86785,0.02832
6502.79632,-0.02472
6504.72479,-0.02056
6506.65326,0.01882
6508.58172,0.00800
6510.51019,-0.02679
6512.43866,-0.00996
6514.36713,0.00709
6516.29560,0.02148
6518.22407,0.06559
6520.15254,0.10553
6522.08101,0.16135
6524.00947,0.24538
6525.93794,0.23630
6527.86641,0.12649
6529.79488,0.06238
6531.72335,0.02990
6533.65182,-0.01854
6535.58029,-0.00337
6537.50875,0.07683
6539.43722,0.15135
6541.36569,0.20133
6543.29416,0.19467
6545.22263,0.12472
6547.15110,0.05839
6549.07957,0.03137
6551.00804,0.03552
6552.93650,0.05078
6554.86497,0.08057
6556.79344,0.09408
6558.72191,0.05444
6560.65038,0.01988
6562.57885,0.02557
6564.50732,0.04172
6566.43578,0.08419
6568.36425,0.11733
6570.29272,0.10139
6572.22119,0.11406
6574.14966,0.14284
6576.07813,0.07807
6578.00660,-0.02490
6579.93507,-0.02037
6581.86353,0.04861
6583.79200,0.08098
6585.72047,0.11039
6587.64894,0.15498
6589.57741,0.15047
6591.50588,0.08860
6593.43435,0.06306
6595.36281,0.10778
6597.29128,0.12049
6599.21975,0.06245
6601.14822,-0.00525
6603.07669,-0.01131
6605.00516,0.01960
6606.93363,0.06089
6608.86210,0.11439
6610.79056,0.13396
6612.71903,0.08116
6614.64750,0.01829
6616.57597,0.01887
6618.50444,0.04403
6620.43291,0.03704
6622.36138,0.03316
6624.28984,0.05831
6626.21831,0.09927
6628.14678,0.12264
6630.07525,0.09233
6632.00372,0.08430
6633.93219,0.17135
6635.86066,0.26370
6637.78912,0.22994
6639.71759,0.12977
6641.64606,0.07125
6643.57453,0.04531
6645.50300,0.03000
6647.43147,0.03304
6649.35994,0.05080
6651.28841,0.08238
6653.21687,0.08573
6655.14534,0.05964
6657.07381,0.07671
6659.00228,0.12405
6660.93075,0.11276
6662.85922,0.06544
6664.78769,0.07929
6666.71615,0.11752
6668.64462,0.06889
6670.57309,-0.03323
6672.50156,-0.04196
6674.43003,0.09089
6676.35850,0.22406
6678.28697,0.22192
6680.21544,0.11734
6682.14390,0.01064
6684.07237,-0.03448
6686.00084,0.00672
6687.92931,0.05243
6689.85778,0.07052
6691.78625,0.14160
6693.71472,0.22593
6695.64318,0.19852
6697.57165,0.02318
6699.50012,-0.10318
6701.42859,-0.06222
6703.35706,0.03839
6705.28553,0.11342
6707.21400,0.11579
6709.14247,0.04015
6711.07093,-0.02224
6712.99940,-0.02219
6714.92787,0.03989
6716.85634,0.09828
6718.78481,0.04460
6720.71328,-0.05353
6722.64175,-0.03616
6724.57021,0.03760
6726.49868,0.07466
6728.42715,0.12387
6730.35562,0.19245
6732.28409,0.22423
6734.21256,0.20944
6736.14103,0.14860
6738.06950,0.09766
6739.99796,0.08629
6741.92643,0.04878
6743.85490,0.05143
6745.78337,0.15771
6747.71184,0.21051
6749.64031,0.09431
6751.56878,-0.03336
6753.49724,0.00183
6755.42571,0.12794
6757.35418,0.20142
6759.28265,0.21529
6761.21112,0.18031
6763.13959,0.13219
6765.06806,0.12021
6766.99653,0.07078
6768.92499,-0.04308
6770.85346,-0.07642
6772.78193,0.00738
6774.71040,0.08256
6776.63887,0.08152
6778.56734,0.03334
6780.49581,0.01898
6782.42427,0.11892
6784.35274,0.24373
6786.28121,0.25410
6788.20968,0.20591
6790.13815,0.15466
6792.06662,0.08359
6793.99509,0.02259
6795.92355,-0.01563
6797.85202,0.00073
6799.78049,0.04037
6801.70896,-0.01014
6803.63743,-0.08848
6805.56590,-0.03986
6807.49437,0.04011
6809.42284,0.04689
6811.35130,0.03531
6813.27977,0.08955
6815.20824,0.18698
6817.13671,0.17519
6819.06518,0.06463
6820.99365,0.03424
6822.92212,0.08717
6824.85058,0.07557
6826.77905,0.01876
6828.70752,0.02002
6830.63599,0.07687
6832.56446,0.09396
6834.49293,0.06197
6836.42140,0.05319
6838.34987,0.09731
6840.27833,0.14571
6842.20680,0.13476
6844.13527,0.07543
6846.06374,0.00507
6847.99221,-0.09678
6849.92068,-0.15800
6851.84915,-0.09587
6853.77761,0.02482
6855.70608,0.09483
6857.63455,0.07085
6859.56302,0.03829
6861.49149,-0.00397
6863.41996,-0.05128
6865.34843,-0.01206
6867.27690,0.11234
6869.20536,0.17416
6871.13383,0.13479
6873.06230,0.15385
6874.99077,0.24752
6876.91924,0.24761
6878.84771,0.12829
6880.77618,0.05107
6882.70464,0.10436
6884.63311,0.17211
6886.56158,0.20115
6888.49005,0.18149
6890.41852,0.10417
6892.34699,0.05803
6894.27546,0.09108
6896.20393,0.13263
6898.13239,0.12537
6900.06086,0.08147
6901.98933,0.09057
6903.91780,0.13684
6905.84627,0.06691
6907.77474,-0.03638
6909.70321,-0.01866
6911.63167,0.09059
6913.56014,0.18636
6915.48861,0.16485
6917.41708,0.09561
6919.34555,0.04543
6921.27402,0.02029
6923.20249,0.05419
6925.13096,0.08025
6927.05942,0.09359
6928.98789,0.14616
6930.91636,0.20243
6932.84483,0.23378
6934.77330,0.24089
6936.70177,0.22577
6938.63024,0.17886
6940.55870,0.10766
6942.48717,0.08354
6944.41564,0.11485
6946.34411,0.13474
6948.27258,0.06826
6950.20105,-0.03894
6952.12952,-0.10605
6954.05799,-0.10209
6955.98645,-0.02713
6957.91492,0.03700
6959.84339,0.10298
6961.77186,0.18261
6963.70033,0.20664
6965.62880,0.21634
6967.55727,0.23864
6969.48573,0.18472
6971.41420,0.11758
6973.34267,0.14672
6975.27114,0.06353
6977.19961,-0.10602
6979.12808,-0.09066
6981.05655,0.02543
6982.98501,0.05663
6984.91348,0.02648
6986.84195,0.02866
6988.77042,0.03913
6990.69889,-0.00975
6992.62736,-0.10850
6994.55583,-0.18901
6996.48430,-0.20073
6998.41276,-0.12098
7000.34123,-0.07343
7002.26970,-0.17588
7004.19817,-0.23300
7006.12664,-0.06375
7008.05511,0.15526
7009.98358,0.18626
7011.91204,0.11106
7013.84051,0.07106
7015.76898,0.03936
7017.69745,-0.00914
7019.62592,-0.00890
7021.55439,0.00136
7023.48286,-0.02664
7025.41133,-0.04048
7027.33979,-0.02293
7029.26826,-0.02396
7031.19673,-0.04651
7033.12520,-0.01724
7035.05367,0.03118
7036.98214,0.02049
7038.91061,-0.01325
7040.83907,-0.04489
7042.76754,-0.03882
7044.69601,0.02960
7046.62448,0.08845
7048.55295,0.10043
7050.48142,0.07794
7052.40989,0.03066
7054.33836,0.03411
7056.26682,0.12068
7058.19529,0.15901
7060.12376,0.10643
7062.05223,0.08488
7063.98070,0.15633
7065.90917,0.19968
7067.83764,0.10489
7069.76610,-0.01592
7071.69457,-0.02504
7073.62304,0.01045
7075.55151,0.03665
7077.47998,0.06415
7079.40845,0.06217
7081.33692,-0.01341
7083.26539,-0.13565
7085.19385,-0.20498
7087.12232,-0.12193
7089.05079,0.04908
7090.97926,0.12499
7092.90773,0.09679
7094.83620,0.04596
7096.76467,0.03471
7098.69313,0.01943
7100.62160,-0.03688
7102.55007,-0.05002
7104.47854,-0.02547
7106.40701,-0.02467
7108.33548,0.03050
7110.26395,0.16009
7112.19242,0.21982
7114.12088,0.18862
7116.04935,0.16914
7117.97782,0.14026
7119.90629,0.04008
7121.83476,-0.07593
7123.76323,-0.07205
7125.69170,0.10211
7127.62016,0.27020
7129.54863,0.25347
7131.47710,0.10904
7133.40557,-0.01596
7135.33404,-0.06038
7137.26251,-0.01562
7139.19098,0.08765
7141.11944,0.16156
7143.04791,0.21740
7144.97638,0.28606
7146.90485,0.21995
7148.83332,0.04605
7150.76179,0.02981
7152.69026,0.22345
7154.61873,0.38898
7156.54719,0.41633
7158.47566,0.38010
7160.40413,0.26788
7162.33260,0.14790
7164.26107,0.15979
7166.18954,0.26819
7168.11801,0.35324
7170.04647,0.36377
7171.97494,0.31130
7173.90341,0.26805
7175.83188,0.24724
7177.76035,0.15408
7179.68882,-0.05442
7181.61729,-0.21642
7183.54576,-0.18987
7185.47422,-0.06497
7187.40269,0.04832
7189.33116,0.12150
7191.25963,0.11297
7193.18810,0.01489
7195.11657,-0.01934
7197.04504,0.03433
7198.97350,-0.01564
7200.90197,-0.11535
7202.83044,-0.09872
7204.75891,-0.03609
7206.68738,-0.08238
7208.61585,-0.12978
7210.54432,-0.10473
7212.47279,-0.05625
7214.40125,-0.05921
7216.32972,-0.17486
7218.25819,-0.26808
7220.18666,-0.11326
7222.11513,0.10900
7224.04360,0.23684
7225.97207,0.26799
7227.90053,0.33641
7229.82900,0.43364
7231.75747,0.31425
7233.68594,0.10615
7235.61441,0.07485
7237.54288,0.17140
7239.47135,0.28043
7241.39982,0.37223
7243.32828,0.38499
7245.25675,0.28580
7247.18522,0.16566
7249.11369,0.03294
7251.04216,-0.04607
7252.97063,-0.01168
7254.89910,0.05508
7256.82756,0.13436
7258.75603,0.18346
7260.68450,0.17394
7262.61297,0.23303
7264.54144,0.26655
7266.46991,0.17766
7268.39838,0.14514
7270.32685,0.23079
7272.25531,0.31151
7274.18378,0.25181
7276.11225,0.18044
7278.04072,0.16637
7279.96919,0.12581
7281.89766,0.04074
7283.82613,-0.03681
7285.75459,-0.07993
7287.68306,-0.10121
7289.61153,-0.08596
7291.54000,0.01342
7293.46847,-0.00564
7295.39694,-0.16528
7297.32541,-0.15477
7299.25387,-0.00671
7301.18234,0.03740
7303.11081,-0.02533
7305.03928,-0.03766
7306.96775,0.03898
7308.89622,0.21290
7310.82469,0.39165
7312.75316,0.36637
7314.68162,0.20464
7316.61009,0.11916
7318.53856,0.16062
7320.46703,0.11177
7322.39550,0.01291
7324.32397,0.09275
7326.25244,0.23070
7328.18090,0.30467
7330.10937,0.47157
7332.03784,0.57246
7333.96631,0.40625
7335.89478,0.22961
7337.82325,0.18720
7339.75172,0.24486
7341.68019,0.30576
7343.60865,0.19798
7345.53712,0.01129
7347.46559,-0.09738
7349.39406,-0.21210
7351.32253,-0.25145
7353.25100,-0.02250
7355.17947,0.27039
7357.10793,0.37189
7359.03640,0.18995
7360.96487,-0.16885
7362.89334,-0.35182
7364.82181,-0.27551
7366.75028,-0.19389
7368.67875,-0.09317
7370.60722,0.12446
7372.53568,0.32700
7374.46415,0.40457
7376.39262,0.31330
7378.32109,0.24182
7380.24956,0.30754
7382.17803,0.36413
7384.10650,0.31659
7386.03496,0.29366
7387.96343,0.26996
7389.89190,0.23066
7391.82037,0.17608
7393.74884,0.01749
7395.67731,-0.13634
7397.60578,-0.13123
7399.53425,-0.00258
7401.46271,0.14629
7403.39118,0.19781
7405.31965,0.10817
7407.24812,0.02316
7409.17659,0.04220
7411.10506,0.11270
7413.03353,0.16241
7414.96199,0.17852
7416.89046,0.22161
7418.81893,0.34221
7420.74740,0.31280
7422.67587,0.07800
7424.60434,-0.06864
7426.53281,0.00763
7428.46128,0.17667
7430.38974,0.16381
7432.31821,0.04746
7434.24668,0.17551
7436.17515,0.44688
7438.10362,0.56555
7440.03209,0.51309
7441.96056,0.34222
7443.88902,0.12542
7445.81749,0.06241
7447.74596,0.17333
7449.67443,0.20907
7451.60290,-0.02479
7453.53137,-0.27607
7455.45984,-0.28421
7457.38831,-0.11335
7459.31677,0.11467
7461.24524,0.19999
7463.17371,0.09385
7465.10218,-0.03704
7467.03065,-0.09307
7468.95912,-0.16574
7470.88759,-0.27507
7472.81605,-0.30040
7474.74452,-0.22431
7476.67299,-0.11884
7478.60146,-0.03064
7480.52993,0.04366
7482.45840,0.13867
7484.38687,0.26260
7486.31533,0.33155
7488.24380,0.30802
7490.17227,0.28333
7492.10074,0.23907
7494.02921,0.19717
7495.95768,0.22790
7497.88615,0.25667
