399.19301,0.75294
401.12148,0.52974
403.04995,0.37022
404.97842,0.16207
406.90689,-0.00961
408.83536,-0.06000
410.76382,-0.07671
412.69229,-0.15180
414.62076,-0.19035
416.54923,-0.14113
418.47770,-0.07581
420.40617,-0.05828
422.33464,-0.05573
424.26311,-0.05980
426.19157,-0.02169
428.12004,0.10249
430.04851,0.24900
431.97698,0.23229
433.90545,0.09657
435.83392,0.07527
437.76239,0.12947
439.69085,0.10436
441.61932,0.03357
443.54779,0.07178
445.47626,0.14279
447.40473,0.14212
449.33320,0.12831
451.26167,0.13051
453.19013,0.14496
455.11860,0.17703
457.04707,0.15252
458.97554,0.03408
460.90401,-0.00748
462.83248,0.06450
464.76095,0.12654
466.68942,0.12292
468.61788,0.08276
470.54635,0.06697
472.47482,0.15577
474.40329,0.25649
476.33176,0.18310
478.26023,0.11385
480.18870,0.09874
482.11716,0.07506
484.04563,0.03385
485.97410,0.02308
487.90257,0.03014
489.83104,0.02227
491.75951,0.02113
493.68798,0.04987
495.61645,0.09142
497.54491,0.11350
499.47338,0.12376
501.40185,0.13416
503.33032,0.14048
505.25879,0.15437
507.18726,0.14222
509.11573,0.08683
511.04419,0.04205
512.97266,0.04286
514.90113,0.08803
516.82960,0.12718
518.75807,0.11823
520.68654,0.08903
522.61501,0.07740
524.54348,0.10438
526.47194,0.13594
528.40041,0.13245
530.32888,0.11631
532.25735,0.10264
534.18582,0.09658
536.11429,0.08874
538.04276,0.06850
539.97122,0.07300
541.89969,0.11651
543.82816,0.13803
545.75663,0.11334
547.68510,0.09421
549.61357,0.08830
551.54204,0.11281
553.47051,0.17068
555.39897,0.17771
557.32744,0.14450
559.25591,0.13976
561.18438,0.13791
563.11285,0.12449
565.04132,0.12084
566.96979,0.11980
568.89825,0.11688
570.82672,0.12164
572.75519,0.12773
574.68366,0.13542
576.61213,0.13975
578.54060,0.12025
580.46907,0.08724
582.39754,0.06583
584.32600,0.05737
586.25447,0.05345
588.18294,0.05498
590.11141,0.06784
592.03988,0.08629
593.96835,0.09298
595.89682,0.08639
597.82528,0.08407
599.75375,0.09942
601.68222,0.11507
603.61069,0.11322
605.53916,0.10728
607.46763,0.10666
609.39610,0.11026
611.32456,0.11458
613.25303,0.12445
615.18150,0.14566
617.10997,0.15990
619.03844,0.15047
620.96691,0.12914
622.89538,0.11425
624.82385,0.10452
626.75231,0.09480
628.68078,0.09176
630.60925,0.10606
632.53772,0.13017
634.46619,0.14013
636.39466,0.14321
638.32313,0.15142
640.25159,0.15521
642.18006,0.14918
644.10853,0.12580
646.03700,0.09909
647.96547,0.10167
649.89394,0.13042
651.82241,0.15376
653.75088,0.15338
655.67934,0.14332
657.60781,0.14344
659.53628,0.14305
661.46475,0.13695
663.39322,0.13373
665.32169,0.12751
667.25016,0.11162
669.17862,0.10489
671.10709,0.11105
673.03556,0.10875
674.96403,0.10444
676.89250,0.10538
678.82097,0.10882
680.74944,0.11485
682.67791,0.12430
684.60637,0.13137
686.53484,0.13148
688.46331,0.12784
690.39178,0.12926
692.32025,0.14133
694.24872,0.15379
696.17719,0.15249
698.10565,0.14220
700.03412,0.13649
701.96259,0.13251
703.89106,0.12437
705.81953,0.12218
707.74800,0.13054
709.67647,0.12737
711.60494,0.11183
713.53340,0.11854
715.46187,0.13892
717.39034,0.14371
719.31881,0.14359
721.24728,0.15049
723.17575,0.15675
725.10422,0.15649
727.03268,0.15418
728.96115,0.15044
730.88962,0.14382
732.81809,0.13485
734.74656,0.12700
736.67503,0.13049
738.60350,0.13799
740.53197,0.13383
742.46043,0.12282
744.38890,0.11620
746.31737,0.11450
748.24584,0.11305
750.17431,0.11280
752.10278,0.11832
754.03125,0.12552
755.95971,0.12872
757.88818,0.12993
759.81665,0.12985
761.74512,0.12909
763.67359,0.12975
765.60206,0.13418
767.53053,0.13736
769.45900,0.13391
771.38746,0.13294
773.31593,0.13681
775.24440,0.14077
777.17287,0.14003
779.10134,0.13203
781.02981,0.13026
782.95828,0.13874
784.88674,0.14394
786.81521,0.14213
788.74368,0.14001
790.67215,0.13880
792.60062,0.13367
794.52909,0.12768
796.45756,0.13036
798.38602,0.13950
800.31449,0.14238
802.24296,0.13954
804.17143,0.14172
806.09990,0.14621
808.02837,0.14880
809.95684,0.14790
811.88531,0.14046
813.81377,0.13398
815.74224,0.13278
817.67071,0.12854
819.59918,0.12268
821.52765,0.12560
823.45612,0.13686
825.38459,0.14866
827.31305,0.15402
829.24152,0.14992
831.16999,0.13872
833.09846,0.12749
835.02693,0.12654
836.95540,0.13130
838.88387,0.12803
840.81234,0.12235
842.74080,0.12363
844.66927,0.12465
846.59774,0.12748
848.52621,0.14413
850.45468,0.15908
852.38315,0.15339
854.31162,0.14278
856.24008,0.14751
858.16855,0.15948
860.09702,0.15964
862.02549,0.15110
863.95396,0.14690
865.88243,0.15539
867.81090,0.18859
869.73937,0.22077
871.66783,0.20522
873.59630,0.16656
875.52477,0.15112
877.45324,0.14684
879.38171,0.13892
881.31018,0.13996
883.23865,0.14994
885.16711,0.15302
887.09558,0.14770
889.02405,0.14674
890.95252,0.15098
892.88099,0.15247
894.80946,0.14864
896.73793,0.14235
898.66640,0.13853
900.59486,0.13713
902.52333,0.13370
904.45180,0.13229
906.38027,0.14149
908.30874,0.15434
910.23721,0.15682
912.16568,0.15249
914.09414,0.15065
916.02261,0.14540
917.95108,0.13483
919.87955,0.13127
921.80802,0.13678
923.73649,0.14211
925.66496,0.14489
927.59343,0.14619
929.52189,0.14372
931.45036,0.13877
933.37883,0.13646
935.30730,0.13831
937.23577,0.14244
939.16424,0.14444
941.09271,0.14109
943.02117,0.13661
944.94964,0.13633
946.87811,0.13981
948.80658,0.14555
950.73505,0.15301
952.66352,0.15808
954.59199,0.15581
956.52045,0.14887
958.44892,0.14548
960.37739,0.14639
962.30586,0.14424
964.23433,0.14021
966.16280,0.13940
968.09127,0.13913
970.01974,0.14102
971.94820,0.14598
973.87667,0.14618
975.80514,0.14182
977.73361,0.13852
979.66208,0.13675
981.59055,0.13876
983.51902,0.14560
985.44748,0.15176
987.37595,0.15354
989.30442,0.15505
991.23289,0.15953
993.16136,0.16061
995.08983,0.15579
997.01830,0.15373
998.94677,0.15615
1000.87523,0.15667
1002.80370,0.15560
1004.73217,0.15516
1006.66064,0.15465
1008.58911,0.15554
1010.51758,0.15703
1012.44605,0.15608
1014.37451,0.15395
1016.30298,0.15179
1018.23145,0.15056
1020.15992,0.15350
1022.08839,0.15862
1024.01686,0.16204
1025.94533,0.16281
1027.87380,0.16026
1029.80226,0.15734
1031.73073,0.15708
1033.65920,0.15805
1035.58767,0.15732
1037.51614,0.15532
1039.44461,0.15254
1041.37308,0.14747
1043.30154,0.14373
1045.23001,0.14407
1047.15848,0.14717
1049.08695,0.15355
1051.01542,0.16135
1052.94389,0.16499
1054.87236,0.16409
1056.80083,0.16218
1058.72929,0.16004
1060.65776,0.15787
1062.58623,0.15558
1064.51470,0.15412
1066.44317,0.15289
1068.37164,0.15342
1070.30011,0.16068
1072.22857,0.17063
1074.15704,0.17545
1076.08551,0.17401
1078.01398,0.17013
1079.94245,0.16657
1081.87092,0.16406
1083.79939,0.16480
1085.72786,0.16873
1087.65632,0.17122
1089.58479,0.16846
1091.51326,0.16248
1093.44173,0.15958
1095.37020,0.16373
1097.29867,0.16995
1099.22714,0.17012
1101.15560,0.16426
1103.08407,0.15970
1105.01254,0.15781
1106.94101,0.15515
1108.86948,0.15911
1110.79795,0.17009
1112.72642,0.17638
1114.65489,0.17756
1116.58335,0.17630
1118.51182,0.17349
1120.44029,0.17070
1122.36876,0.16624
1124.29723,0.16421
1126.22570,0.16832
1128.15417,0.17380
1130.08263,0.17407
1132.01110,0.16698
1133.93957,0.16110
1135.86804,0.16250
1137.79651,0.16309
1139.72498,0.15941
1141.65345,0.15948
1143.58191,0.16457
1145.51038,0.16736
1147.43885,0.16785
1149.36732,0.17060
1151.29579,0.17655
1153.22426,0.18294
1155.15273,0.18272
1157.08120,0.17612
1159.00966,0.17081
1160.93813,0.16915
1162.86660,0.17076
1164.79507,0.17406
1166.72354,0.17679
1168.65201,0.17648
1170.58048,0.17221
1172.50894,0.16999
1174.43741,0.17242
1176.36588,0.17219
1178.29435,0.16549
1180.22282,0.15958
1182.15129,0.16093
1184.07976,0.16511
1186.00823,0.16788
1187.93669,0.16974
1189.86516,0.16891
1191.79363,0.16468
1193.72210,0.16267
1195.65057,0.16667
1197.57904,0.17090
1199.50751,0.17019
1201.43597,0.16856
1203.36444,0.16995
1205.29291,0.17222
1207.22138,0.17298
1209.14985,0.17223
1211.07832,0.17022
1213.00679,0.16716
1214.93526,0.16417
1216.86372,0.16403
1218.79219,0.16736
1220.72066,0.17053
1222.64913,0.17171
1224.57760,0.17168
1226.50607,0.16986
1228.43454,0.16768
1230.36300,0.16874
1232.29147,0.17183
1234.21994,0.17195
1236.14841,0.16911
1238.07688,0.16766
1240.00535,0.16792
1241.93382,0.16885
1243.86229,0.17035
1245.79075,0.17024
1247.71922,0.17031
1249.64769,0.17301
1251.57616,0.17269
1253.50463,0.16790
1255.43310,0.16613
1257.36157,0.16851
1259.29003,0.17095
1261.21850,0.17342
1263.14697,0.17348
1265.07544,0.16970
1267.00391,0.16769
1268.93238,0.16910
1270.86085,0.17270
1272.78932,0.17621
1274.71778,0.17637
1276.64625,0.17629
1278.57472,0.17738
1280.50319,0.17738
1282.43166,0.17765
1284.36013,0.17799
1286.28860,0.17629
1288.21706,0.17559
1290.14553,0.17887
1292.07400,0.18201
1294.00247,0.18111
1295.93094,0.17844
1297.85941,0.17704
1299.78788,0.17364
1301.71634,0.16339
1303.64481,0.15107
1305.57328,0.15079
1307.50175,0.16480
1309.43022,0.17775
1311.35869,0.18328
1313.28716,0.18469
1315.21563,0.18367
1317.14409,0.18439
1319.07256,0.18599
1321.00103,0.18498
1322.92950,0.18269
1324.85797,0.17838
1326.78644,0.17422
1328.71491,0.17521
1330.64337,0.17634
1332.57184,0.17542
1334.50031,0.17708
1336.42878,0.17941
1338.35725,0.18063
1340.28572,0.17947
1342.21419,0.17634
1344.14266,0.17416
1346.07112,0.17091
1347.99959,0.16936
1349.92806,0.17264
1351.85653,0.17534
1353.78500,0.17558
1355.71347,0.17526
1357.64194,0.17545
1359.57040,0.17898
1361.49887,0.18502
1363.42734,0.18705
1365.35581,0.18419
1367.28428,0.18203
1369.21275,0.18298
1371.14122,0.18554
1373.06969,0.18841
1374.99815,0.19010
1376.92662,0.18896
1378.85509,0.18782
1380.78356,0.18812
1382.71203,0.18880
1384.64050,0.19066
1386.56897,0.19268
1388.49743,0.19117
1390.42590,0.18919
1392.35437,0.19243
1394.28284,0.19897
1396.21131,0.20161
1398.13978,0.19873
1400.06825,0.19279
1401.99672,0.18915
1403.92518,0.18956
1405.85365,0.18914
1407.78212,0.18710
1409.71059,0.18764
1411.63906,0.18960
1413.56753,0.18956
1415.49600,0.19170
1417.42446,0.20001
1419.35293,0.20477
1421.28140,0.20186
1423.20987,0.19851
1425.13834,0.19256
1427.06681,0.18863
1428.99528,0.18949
1430.92375,0.18868
1432.85221,0.18790
1434.78068,0.19186
1436.70915,0.19673
1438.63762,0.19599
1440.56609,0.19449
1442.49456,0.19467
1444.42303,0.19377
1446.35149,0.19347
1448.27996,0.19492
1450.20843,0.19542
1452.13690,0.19691
1454.06537,0.20337
1455.99384,0.21753
1457.92231,0.22646
1459.85077,0.21786
1461.77924,0.21164
1463.70771,0.21129
1465.63618,0.20803
1467.56465,0.20206
1469.49312,0.20406
1471.42159,0.21369
1473.35006,0.21672
1475.27852,0.20893
1477.20699,0.20251
1479.13546,0.19837
1481.06393,0.19512
1482.99240,0.19489
1484.92087,0.20019
1486.84934,0.20966
1488.77780,0.21648
1490.70627,0.21171
1492.63474,0.20373
1494.56321,0.20364
1496.49168,0.20952
1498.42015,0.20969
1500.34862,0.20446
1502.27709,0.20364
1504.20555,0.21177
1506.13402,0.23265
1508.06249,0.23862
1509.99096,0.22200
1511.91943,0.21345
1513.84790,0.21534
1515.77637,0.22181
1517.70483,0.22657
1519.63330,0.23172
1521.56177,0.23632
1523.49024,0.22961
1525.41871,0.22040
1527.34718,0.21383
1529.27565,0.20944
1531.20412,0.21137
1533.13258,0.21692
1535.06105,0.21565
1536.98952,0.21531
1538.91799,0.22875
1540.84646,0.24855
1542.77493,0.24452
1544.70340,0.22671
1546.63186,0.21155
1548.56033,0.20668
1550.48880,0.20707
1552.41727,0.21006
1554.34574,0.22116
1556.27421,0.24096
1558.20268,0.25824
1560.13115,0.23583
1562.05961,0.21314
1563.98808,0.20641
1565.91655,0.20520
1567.84502,0.20682
1569.77349,0.20810
1571.70196,0.20651
1573.63043,0.20867
1575.55889,0.21389
1577.48736,0.20891
1579.41583,0.19827
1581.34430,0.19278
1583.27277,0.19147
1585.20124,0.19163
1587.12971,0.19339
1589.05818,0.19670
1590.98664,0.19906
1592.91511,0.19977
1594.84358,0.20070
1596.77205,0.19983
1598.70052,0.19604
1600.62899,0.19428
1602.55746,0.19611
1604.48592,0.19822
1606.41439,0.20024
1608.34286,0.20205
1610.27133,0.20119
1612.19980,0.19997
1614.12827,0.20399
1616.05674,0.21342
1617.98521,0.21653
1619.91367,0.21301
1621.84214,0.21314
1623.77061,0.21572
1625.69908,0.21594
1627.62755,0.21360
1629.55602,0.20911
1631.48449,0.20831
1633.41295,0.21617
1635.34142,0.22858
1637.26989,0.22785
1639.19836,0.22031
1641.12683,0.21678
1643.05530,0.21847
1644.98377,0.22745
1646.91223,0.23668
1648.84070,0.23379
1650.76917,0.23250
1652.69764,0.23669
1654.62611,0.22807
1656.55458,0.21564
1658.48305,0.20906
1660.41152,0.20800
1662.33998,0.21115
1664.26845,0.21303
1666.19692,0.21476
1668.12539,0.22060
1670.05386,0.22426
1671.98233,0.22114
1673.91080,0.21930
1675.83926,0.21898
1677.76773,0.21975
1679.69620,0.22508
1681.62467,0.23755
1683.55314,0.25034
1685.48161,0.23893
1687.41008,0.22308
1689.33855,0.21628
1691.26701,0.21067
1693.19548,0.20991
1695.12395,0.22076
1697.05242,0.23507
1698.98089,0.23950
1700.90936,0.23310
1702.83783,0.22611
1704.76629,0.22511
1706.69476,0.22183
1708.62323,0.21414
1710.55170,0.21017
1712.48017,0.21335
1714.40864,0.22316
1716.33711,0.23237
1718.26558,0.22328
1720.19404,0.20813
1722.12251,0.20200
1724.05098,0.20079
1725.97945,0.20077
1727.90792,0.20290
1729.83639,0.20727
1731.76486,0.21182
1733.69332,0.21460
1735.62179,0.21250
1737.55026,0.21147
1739.47873,0.21353
1741.40720,0.21293
1743.33567,0.21015
1745.26414,0.21254
1747.19261,0.22010
1749.12107,0.22415
1751.04954,0.21619
1752.97801,0.20502
1754.90648,0.20205
1756.83495,0.20482
1758.76342,0.20782
1760.69189,0.21111
1762.62035,0.21190
1764.54882,0.20838
1766.47729,0.20597
1768.40576,0.20764
1770.33423,0.21161
1772.26270,0.21252
1774.19117,0.20932
1776.11964,0.20665
1778.04810,0.20511
1779.97657,0.20420
1781.90504,0.20289
1783.83351,0.20091
1785.76198,0.19971
1787.69045,0.20155
1789.61892,0.20819
1791.54738,0.21592
1793.47585,0.21592
1795.40432,0.21137
1797.33279,0.20942
1799.26126,0.21050
1801.18973,0.20992
1803.11820,0.20474
1805.04666,0.20076
1806.97513,0.20176
1808.90360,0.20429
1810.83207,0.20351
1812.76054,0.20005
1814.68901,0.19980
1816.61748,0.20465
1818.54595,0.21088
1820.47441,0.21401
1822.40288,0.21197
1824.33135,0.20822
1826.25982,0.20809
1828.18829,0.21140
1830.11676,0.21373
1832.04523,0.21065
1833.97369,0.20601
1835.90216,0.20385
1837.83063,0.20310
1839.75910,0.20374
1841.68757,0.20764
1843.61604,0.21118
1845.54451,0.20784
1847.47298,0.20225
1849.40144,0.19937
1851.32991,0.19908
1853.25838,0.19960
1855.18685,0.19979
1857.11532,0.20133
1859.04379,0.20372
1860.97226,0.20401
1862.90072,0.20311
1864.82919,0.20591
1866.75766,0.21244
1868.68613,0.21434
1870.61460,0.20769
1872.54307,0.20095
1874.47154,0.19895
1876.40001,0.20032
1878.32847,0.20125
1880.25694,0.19986
1882.18541,0.19887
1884.11388,0.20049
1886.04235,0.20193
1887.97082,0.20170
1889.89929,0.20132
1891.82775,0.20212
1893.75622,0.20454
1895.68469,0.20609
1897.61316,0.20418
1899.54163,0.20192
1901.47010,0.20188
1903.39857,0.20216
1905.32704,0.20276
1907.25550,0.20456
1909.18397,0.20481
1911.11244,0.20174
1913.04091,0.19903
1914.96938,0.20071
1916.89785,0.20528
1918.82632,0.20800
1920.75478,0.20799
1922.68325,0.20692
1924.61172,0.20487
1926.54019,0.20302
1928.46866,0.20223
1930.39713,0.20229
1932.32560,0.20344
1934.25407,0.20467
1936.18253,0.20539
1938.11100,0.20572
1940.03947,0.20629
1941.96794,0.20818
1943.89641,0.20722
1945.82488,0.20162
1947.75335,0.19703
1949.68181,0.19597
1951.61028,0.19713
1953.53875,0.19853
1955.46722,0.19881
1957.39569,0.19892
1959.32416,0.20032
1961.25263,0.20229
1963.18110,0.20312
1965.10956,0.20381
1967.03803,0.20513
1968.96650,0.20520
1970.89497,0.20455
1972.82344,0.20479
1974.75191,0.20659
1976.68038,0.20945
1978.60884,0.21049
1980.53731,0.20803
1982.46578,0.20391
1984.39425,0.20153
1986.32272,0.20246
1988.25119,0.20417
1990.17966,0.20318
1992.10812,0.19933
1994.03659,0.19614
1995.96506,0.19566
1997.89353,0.19689
1999.82200,0.19998
2001.75047,0.20367
2003.67894,0.20436
2005.60741,0.20216
2007.53587,0.20072
2009.46434,0.20100
2011.39281,0.20152
2013.32128,0.20308
2015.24975,0.20570
2017.17822,0.20621
2019.10669,0.20447
2021.03515,0.20452
2022.96362,0.20620
2024.89209,0.20519
2026.82056,0.20229
2028.74903,0.20170
2030.67750,0.20396
2032.60597,0.20637
2034.53444,0.20585
2036.46290,0.20334
2038.39137,0.20170
2040.31984,0.20161
2042.24831,0.20243
2044.17678,0.20238
2046.10525,0.20091
2048.03372,0.20031
2049.96218,0.20159
2051.89065,0.20331
2053.81912,0.20394
2055.74759,0.20299
2057.67606,0.20144
2059.60453,0.19990
2061.53300,0.19995
2063.46147,0.20214
2065.38993,0.20312
2067.31840,0.20336
2069.24687,0.20489
2071.17534,0.20580
2073.10381,0.20524
2075.03228,0.20337
2076.96075,0.20141
2078.88921,0.20228
2080.81768,0.20473
2082.74615,0.20548
2084.67462,0.20599
2086.60309,0.20694
2088.53156,0.20680
2090.46003,0.20643
2092.38850,0.20627
2094.31696,0.20556
2096.24543,0.20423
2098.17390,0.20305
2100.10237,0.20340
2102.03084,0.20581
2103.95931,0.20856
2105.88778,0.20890
2107.81624,0.20705
2109.74471,0.20586
2111.67318,0.20593
2113.60165,0.20581
2115.53012,0.20602
2117.45859,0.20739
2119.38706,0.20816
2121.31553,0.20715
2123.24399,0.20619
2125.17246,0.20657
2127.10093,0.20725
2129.02940,0.20776
2130.95787,0.20790
2132.88634,0.20653
2134.81481,0.20498
2136.74327,0.20526
2138.67174,0.20527
2140.60021,0.20395
2142.52868,0.20358
2144.45715,0.20451
2146.38562,0.20618
2148.31409,0.20854
2150.24255,0.20973
2152.17102,0.20865
2154.09949,0.20726
2156.02796,0.20603
2157.95643,0.20437
2159.88490,0.20377
2161.81337,0.20456
2163.74184,0.20571
2165.67030,0.20564
2167.59877,0.20354
2169.52724,0.20214
2171.45571,0.20334
2173.38418,0.20452
2175.31265,0.20422
2177.24112,0.20520
2179.16958,0.20815
2181.09805,0.20933
2183.02652,0.20795
2184.95499,0.20688
2186.88346,0.20717
2188.81193,0.20801
2190.74040,0.20897
2192.66887,0.20937
2194.59733,0.20684
2196.52580,0.20184
2198.45427,0.19906
2200.38274,0.20037
2202.31121,0.20263
2204.23968,0.20357
2206.16815,0.20391
2208.09661,0.20420
2210.02508,0.20461
2211.95355,0.20492
2213.88202,0.20505
2215.81049,0.20569
2217.73896,0.20689
2219.66743,0.20777
2221.59590,0.20721
2223.52436,0.20589
2225.45283,0.20546
2227.38130,0.20612
2229.30977,0.20741
2231.23824,0.20821
2233.16671,0.20698
2235.09518,0.20457
2237.02364,0.20336
2238.95211,0.20433
2240.88058,0.20599
2242.80905,0.20655
2244.73752,0.20662
2246.66599,0.20658
2248.59446,0.20623
2250.52293,0.20621
2252.45139,0.20593
2254.37986,0.20457
2256.30833,0.20242
2258.23680,0.20036
2260.16527,0.20001
2262.09374,0.20207
2264.02221,0.20438
2265.95067,0.20580
2267.87914,0.20729
2269.80761,0.20791
2271.73608,0.20797
2273.66455,0.20858
2275.59302,0.20752
2277.52149,0.20453
2279.44996,0.20342
2281.37842,0.20534
2283.30689,0.20712
2285.23536,0.20618
2287.16383,0.20324
2289.09230,0.20169
2291.02077,0.20264
2292.94924,0.20321
2294.87770,0.20253
2296.80617,0.20321
2298.73464,0.20610
2300.66311,0.20871
2302.59158,0.20891
2304.52005,0.20768
2306.44852,0.20587
2308.37699,0.20224
2310.30545,0.20048
2312.23392,0.20513
2314.16239,0.20934
2316.09086,0.20773
2318.01933,0.20446
2319.94780,0.20386
2321.87627,0.20596
2323.80473,0.20604
2325.73320,0.20605
2327.66167,0.20949
2329.59014,0.21006
2331.51861,0.20701
2333.44708,0.20595
2335.37555,0.20452
2337.30401,0.19903
2339.23248,0.19361
2341.16095,0.19515
2343.08942,0.20325
2345.01789,0.20770
2346.94636,0.20837
2348.87483,0.21096
2350.80330,0.21063
2352.73176,0.20310
2354.66023,0.19734
2356.58870,0.20151
2358.51717,0.20766
2360.44564,0.21390
2362.37411,0.21957
2364.30258,0.21410
2366.23104,0.20167
2368.15951,0.19423
2370.08798,0.19542
2372.01645,0.20219
2373.94492,0.20610
2375.87339,0.20643
2377.80186,0.20665
2379.73033,0.20609
2381.65879,0.20625
2383.58726,0.20730
2385.51573,0.20636
2387.44420,0.20481
2389.37267,0.20443
2391.30114,0.20421
2393.22961,0.20432
2395.15807,0.20449
2397.08654,0.20428
2399.01501,0.20473
2400.94348,0.20578
2402.87195,0.20705
2404.80042,0.20880
2406.72889,0.21000
2408.65736,0.20858
2410.58582,0.20550
2412.51429,0.20425
2414.44276,0.20550
2416.37123,0.20714
2418.29970,0.20739
2420.22817,0.20670
2422.15664,0.20671
2424.08510,0.20678
2426.01357,0.20602
2427.94204,0.20616
2429.87051,0.20693
2431.79898,0.20676
2433.72745,0.20717
2435.65592,0.20859
2437.58439,0.20928
2439.51285,0.20852
2441.44132,0.20633
2443.36979,0.20429
2445.29826,0.20404
2447.22673,0.20489
2449.15520,0.20676
2451.08367,0.20995
2453.01213,0.21189
2454.94060,0.21076
2456.86907,0.20909
2458.79754,0.20920
2460.72601,0.20975
2462.65448,0.20843
2464.58295,0.20552
2466.51142,0.20392
2468.43988,0.20467
2470.36835,0.20572
2472.29682,0.20683
2474.22529,0.20769
2476.15376,0.20747
2478.08223,0.20789
2480.01070,0.20833
2481.93916,0.20655
2483.86763,0.20407
2485.79610,0.20301
2487.72457,0.20358
2489.65304,0.20686
2491.58151,0.21154
2493.50998,0.21268
2495.43844,0.21066
2497.36691,0.20960
2499.29538,0.20972
2501.22385,0.20936
2503.15232,0.20879
2505.08079,0.20886
2507.00926,0.20886
2508.93773,0.20863
2510.86619,0.20867
2512.79466,0.20810
2514.72313,0.20658
2516.65160,0.20541
2518.58007,0.20647
2520.50854,0.20972
2522.43701,0.21232
2524.36547,0.21204
2526.29394,0.20986
2528.22241,0.20921
2530.15088,0.21119
2532.07935,0.21244
2534.00782,0.21111
2535.93629,0.20951
2537.86476,0.21049
2539.79322,0.21252
2541.72169,0.21127
2543.65016,0.20766
2545.57863,0.20607
2547.50710,0.20682
2549.43557,0.20709
2551.36404,0.20631
2553.29250,0.20655
2555.22097,0.20819
2557.14944,0.20917
2559.07791,0.20864
2561.00638,0.20821
2562.93485,0.20861
2564.86332,0.20784
2566.79179,0.20517
2568.72025,0.20422
2570.64872,0.20685
2572.57719,0.20927
2574.50566,0.20992
2576.43413,0.21130
2578.36260,0.21357
2580.29107,0.21457
2582.21953,0.21339
2584.14800,0.21145
2586.07647,0.21073
2588.00494,0.21127
2589.93341,0.21159
2591.86188,0.21108
2593.79035,0.20988
2595.71882,0.20890
2597.64728,0.20911
2599.57575,0.20901
2601.50422,0.20830
2603.43269,0.20940
2605.36116,0.21170
2607.28963,0.21360
2609.21810,0.21616
2611.14656,0.21754
2613.07503,0.21523
2615.00350,0.21257
2616.93197,0.21311
2618.86044,0.21445
2620.78891,0.21337
2622.71738,0.21126
2624.64585,0.21061
2626.57431,0.21112
2628.50278,0.21130
2630.43125,0.21225
2632.35972,0.21452
2634.28819,0.21470
2636.21666,0.21213
2638.14513,0.21070
2640.07359,0.21149
2642.00206,0.21111
2643.93053,0.20873
2645.85900,0.20800
2647.78747,0.21058
2649.71594,0.21319
2651.64441,0.21353
2653.57288,0.21329
2655.50134,0.21232
2657.42981,0.21016
2659.35828,0.21001
2661.28675,0.21259
2663.21522,0.21398
2665.14369,0.21303
2667.07216,0.21345
2669.00062,0.21572
2670.92909,0.21602
2672.85756,0.21419
2674.78603,0.21418
2676.71450,0.21631
2678.64297,0.21713
2680.57144,0.21620
2682.49990,0.21547
2684.42837,0.21496
2686.35684,0.21437
2688.28531,0.21474
2690.21378,0.21546
2692.14225,0.21550
2694.07072,0.21613
2695.99919,0.21758
2697.92765,0.21829
2699.85612,0.21807
2701.78459,0.21761
2703.71306,0.21706
2705.64153,0.21667
2707.57000,0.21629
2709.49847,0.21570
2711.42693,0.21612
2713.35540,0.21788
2715.28387,0.21876
2717.21234,0.21759
2719.14081,0.21661
2721.06928,0.21699
2722.99775,0.21694
2724.92622,0.21665
2726.85468,0.21775
2728.78315,0.21903
2730.71162,0.21836
2732.64009,0.21709
2734.56856,0.21822
2736.49703,0.22122
2738.42550,0.22236
2740.35396,0.22131
2742.28243,0.22075
2744.21090,0.22046
2746.13937,0.22056
2748.06784,0.22220
2749.99631,0.22330
2751.92478,0.22243
2753.85325,0.22084
2755.78171,0.21924
2757.71018,0.21803
2759.63865,0.21836
2761.56712,0.22090
2763.49559,0.22508
2765.42406,0.22873
2767.35253,0.22907
2769.28099,0.22616
2771.20946,0.22330
2773.13793,0.22186
2775.06640,0.22152
2776.99487,0.22309
2778.92334,0.22351
2780.85181,0.22098
2782.78028,0.22106
2784.70874,0.22409
2786.63721,0.22410
2788.56568,0.22241
2790.49415,0.22367
2792.42262,0.22558
2794.35109,0.22592
2796.27956,0.22658
2798.20802,0.22616
2800.13649,0.22342
2802.06496,0.22150
2803.99343,0.22231
2805.92190,0.22361
2807.85037,0.22339
2809.77884,0.22429
2811.70731,0.22720
2813.63577,0.22883
2815.56424,0.22849
2817.49271,0.22750
2819.42118,0.22677
2821.34965,0.22623
2823.27812,0.22650
2825.20659,0.22920
2827.13505,0.23123
2829.06352,0.23048
2830.99199,0.22939
2832.92046,0.22735
2834.84893,0.22412
2836.77740,0.22213
2838.70587,0.22195
2840.63433,0.22281
2842.56280,0.22335
2844.49127,0.22351
2846.41974,0.22468
2848.34821,0.22466
2850.27668,0.22264
2852.20515,0.22261
2854.13362,0.22416
2856.06208,0.22450
2857.99055,0.22423
2859.91902,0.22413
2861.84749,0.22493
2863.77596,0.22689
2865.70443,0.22763
2867.63290,0.22660
2869.56136,0.22700
2871.48983,0.22766
2873.41830,0.22558
2875.34677,0.22305
2877.27524,0.22175
2879.20371,0.22192
2881.13218,0.22368
2883.06065,0.22506
2884.98911,0.22501
2886.91758,0.22391
2888.84605,0.22195
2890.77452,0.22075
2892.70299,0.22125
2894.63146,0.22045
2896.55993,0.21880
2898.48839,0.22024
2900.41686,0.22256
2902.34533,0.22279
2904.27380,0.22195
2906.20227,0.22229
2908.13074,0.22405
2910.05921,0.22379
2911.98768,0.22279
2913.91614,0.22403
2915.84461,0.22379
2917.77308,0.22132
2919.70155,0.21976
2921.63002,0.21973
2923.55849,0.22279
2925.48696,0.22687
2927.41542,0.22755
2929.34389,0.22659
2931.27236,0.22492
2933.20083,0.22057
2935.12930,0.21554
2937.05777,0.21359
2938.98624,0.21684
2940.91471,0.22281
2942.84317,0.22569
2944.77164,0.22258
2946.70011,0.21661
2948.62858,0.21562
2950.55705,0.22069
2952.48552,0.22572
2954.41399,0.22625
2956.34245,0.21957
2958.27092,0.21501
2960.19939,0.22310
2962.12786,0.23272
2964.05633,0.23118
2965.98480,0.22411
2967.91327,0.22204
2969.84174,0.22705
2971.77020,0.23242
2973.69867,0.23257
2975.62714,0.22818
2977.55561,0.22237
2979.48408,0.22057
2981.41255,0.22425
2983.34102,0.22764
2985.26948,0.22762
2987.19795,0.22564
2989.12642,0.22600
2991.05489,0.22944
2992.98336,0.23129
2994.91183,0.23164
2996.84030,0.23045
2998.76877,0.22753
3000.69723,0.22773
3002.62570,0.23149
3004.55417,0.23500
3006.48264,0.23445
3008.41111,0.22886
3010.33958,0.22032
3012.26805,0.20478
3014.19651,0.17819
3016.12498,0.15788
3018.05345,0.17009
3019.98192,0.20487
3021.91039,0.22893
3023.83886,0.23607
3025.76733,0.23597
3027.69579,0.23295
3029.62426,0.23132
3031.55273,0.23161
3033.48120,0.23200
3035.40967,0.23328
3037.33814,0.23403
3039.26661,0.23373
3041.19508,0.23413
3043.12354,0.23372
3045.05201,0.23146
3046.98048,0.23006
3048.90895,0.23296
3050.83742,0.23710
3052.76589,0.23704
3054.69436,0.23375
3056.62282,0.22891
3058.55129,0.22641
3060.47976,0.22878
3062.40823,0.23052
3064.33670,0.22670
3066.26517,0.22156
3068.19364,0.22557
3070.12211,0.23547
3072.05057,0.23707
3073.97904,0.22771
3075.90751,0.21856
3077.83598,0.22062
3079.76445,0.22835
3081.69292,0.23028
3083.62139,0.22457
3085.54985,0.21911
3087.47832,0.22222
3089.40679,0.22766
3091.33526,0.22778
3093.26373,0.22456
3095.19220,0.22360
3097.12067,0.22792
3099.04914,0.23053
3100.97760,0.22691
3102.90607,0.22064
3104.83454,0.21755
3106.76301,0.22131
3108.69148,0.22761
3110.61995,0.23017
3112.54842,0.22916
3114.47688,0.23049
3116.40535,0.23409
3118.33382,0.23278
3120.26229,0.22677
3122.19076,0.22398
3124.11923,0.22747
3126.04770,0.23213
3127.97617,0.23405
3129.90463,0.23416
3131.83310,0.23444
3133.76157,0.23488
3135.69004,0.23360
3137.61851,0.23023
3139.54698,0.22862
3141.47545,0.23202
3143.40391,0.23581
3145.33238,0.23608
3147.26085,0.23541
3149.18932,0.23615
3151.11779,0.23720
3153.04626,0.23617
3154.97473,0.23433
3156.90320,0.23464
3158.83166,0.23707
3160.76013,0.23885
3162.68860,0.23784
3164.61707,0.23594
3166.54554,0.23550
3168.47401,0.23571
3170.40248,0.23731
3172.33094,0.24099
3174.25941,0.24210
3176.18788,0.23915
3178.11635,0.23667
3180.04482,0.23817
3181.97329,0.24156
3183.90176,0.24160
3185.83022,0.23948
3187.75869,0.23835
3189.68716,0.23558
3191.61563,0.23289
3193.54410,0.23572
3195.47257,0.24047
3197.40104,0.24142
3199.32951,0.24011
3201.25797,0.23866
3203.18644,0.23883
3205.11491,0.24011
3207.04338,0.23976
3208.97185,0.23781
3210.90032,0.23591
3212.82879,0.23590
3214.75725,0.23653
3216.68572,0.23686
3218.61419,0.23674
3220.54266,0.23512
3222.47113,0.23527
3224.39960,0.23751
3226.32807,0.23803
3228.25654,0.23617
3230.18500,0.23423
3232.11347,0.23452
3234.04194,0.23470
3235.97041,0.23338
3237.89888,0.23262
3239.82735,0.23229
3241.75582,0.23371
3243.68428,0.23606
3245.61275,0.23396
3247.54122,0.23099
3249.46969,0.23254
3251.39816,0.23346
3253.32663,0.23223
3255.25510,0.23347
3257.18357,0.23562
3259.11203,0.23537
3261.04050,0.23394
3262.96897,0.23291
3264.89744,0.23206
3266.82591,0.23166
3268.75438,0.23275
3270.68285,0.23308
3272.61131,0.22993
3274.53978,0.22793
3276.46825,0.23133
3278.39672,0.23595
3280.32519,0.23639
3282.25366,0.23347
3284.18213,0.23148
3286.11060,0.23171
3288.03906,0.23431
3289.96753,0.23713
3291.89600,0.23547
3293.82447,0.23081
3295.75294,0.22881
3297.68141,0.23173
3299.60988,0.23679
3301.53834,0.24048
3303.46681,0.24268
3305.39528,0.24294
3307.32375,0.24039
3309.25222,0.23646
3311.18069,0.23328
3313.10916,0.23142
3315.03763,0.22977
3316.96609,0.22868
3318.89456,0.23004
3320.82303,0.23235
3322.75150,0.22995
3324.67997,0.22361
3326.60844,0.22364
3328.53691,0.23095
3330.46537,0.23712
3332.39384,0.24078
3334.32231,0.24268
3336.25078,0.24280
3338.17925,0.24145
3340.10772,0.23818
3342.03619,0.23499
3343.96466,0.23376
3345.89312,0.23538
3347.82159,0.23948
3349.75006,0.24351
3351.67853,0.24602
3353.60700,0.24668
3355.53547,0.24477
3357.46394,0.24227
3359.39240,0.24108
3361.32087,0.23801
3363.24934,0.23322
3365.17781,0.23129
3367.10628,0.23087
3369.03475,0.22982
3370.96322,0.23165
3372.89168,0.23555
3374.82015,0.23786
3376.74862,0.24030
3378.67709,0.24118
3380.60556,0.23815
3382.53403,0.23537
3384.46250,0.23462
3386.39097,0.23430
3388.31943,0.23420
3390.24790,0.23471
3392.17637,0.23507
3394.10484,0.23467
3396.03331,0.23595
3397.96178,0.23765
3399.89025,0.23461
3401.81871,0.22887
3403.74718,0.22463
3405.67565,0.22289
3407.60412,0.22359
3409.53259,0.22422
3411.46106,0.22448
3413.38953,0.22590
3415.31800,0.22914
3417.24646,0.23440
3419.17493,0.23795
3421.10340,0.23700
3423.03187,0.23396
3424.96034,0.23007
3426.88881,0.22672
3428.81728,0.22581
3430.74574,0.22472
3432.67421,0.22453
3434.60268,0.22733
3436.53115,0.22927
3438.45962,0.22976
3440.38809,0.22920
3442.31656,0.22758
3444.24503,0.22612
3446.17349,0.22409
3448.10196,0.22215
3450.03043,0.21983
3451.95890,0.21583
3453.88737,0.21369
3455.81584,0.21442
3457.74431,0.21315
3459.67277,0.21075
3461.60124,0.21296
3463.52971,0.21640
3465.45818,0.21441
3467.38665,0.21233
3469.31512,0.21599
3471.24359,0.21936
3473.17206,0.21797
3475.10052,0.21513
3477.02899,0.21511
3478.95746,0.21878
3480.88593,0.22125
3482.81440,0.21684
3484.74287,0.21105
3486.67134,0.21107
3488.59980,0.21157
3490.52827,0.20945
3492.45674,0.20771
3494.38521,0.20537
3496.31368,0.20260
3498.24215,0.20137
3500.17062,0.20266
3502.09909,0.20569
3504.02755,0.20811
3505.95602,0.20850
3507.88449,0.20664
3509.81296,0.20456
3511.74143,0.20275
3513.66990,0.19854
3515.59837,0.19408
3517.52683,0.19330
3519.45530,0.19552
3521.38377,0.19920
3523.31224,0.20130
3525.24071,0.19889
3527.16918,0.19531
3529.09765,0.19177
3531.02611,0.18806
3532.95458,0.18613
3534.88305,0.18356
3536.81152,0.18024
3538.73999,0.18062
3540.66846,0.18357
3542.59693,0.18567
3544.52540,0.18820
3546.45386,0.19199
3548.38233,0.19358
3550.31080,0.19333
3552.23927,0.19129
3554.16774,0.18616
3556.09621,0.18348
3558.02468,0.18528
3559.95314,0.18661
3561.88161,0.18768
3563.81008,0.19253
3565.73855,0.19889
3567.66702,0.19904
3569.59549,0.19109
3571.52396,0.18204
3573.45243,0.17818
3575.38089,0.18101
3577.30936,0.18466
3579.23783,0.18403
3581.16630,0.17947
3583.09477,0.17597
3585.02324,0.17941
3586.95171,0.18610
3588.88017,0.18265
3590.80864,0.17475
3592.73711,0.17356
3594.66558,0.17727
3596.59405,0.17977
3598.52252,0.17862
3600.45099,0.17371
3602.37946,0.17026
3604.30792,0.17355
3606.23639,0.17935
3608.16486,0.17896
3610.09333,0.17266
3612.02180,0.16954
3613.95027,0.17122
3615.87874,0.17385
3617.80720,0.17533
3619.73567,0.17377
3621.66414,0.16732
3623.59261,0.16202
3625.52108,0.16382
3627.44955,0.17044
3629.37802,0.17100
3631.30649,0.16543
3633.23495,0.16224
3635.16342,0.15871
3637.09189,0.15511
3639.02036,0.15487
3640.94883,0.15700
3642.87730,0.16045
3644.80577,0.16678
3646.73423,0.17620
3648.66270,0.18286
3650.59117,0.17373
3652.51964,0.16083
3654.44811,0.15482
3656.37658,0.15233
3658.30505,0.15016
3660.23352,0.14842
3662.16198,0.14660
3664.09045,0.14436
3666.01892,0.14483
3667.94739,0.15067
3669.87586,0.15658
3671.80433,0.15681
3673.73280,0.15732
3675.66126,0.15688
3677.58973,0.15464
3679.51820,0.15533
3681.44667,0.15477
3683.37514,0.15047
3685.30361,0.14777
3687.23208,0.15210
3689.16055,0.16068
3691.08901,0.16094
3693.01748,0.15451
3694.94595,0.14932
3696.87442,0.14639
3698.80289,0.14554
3700.73136,0.14508
3702.65983,0.14433
3704.58829,0.14514
3706.51676,0.14702
3708.44523,0.15045
3710.37370,0.15456
3712.30217,0.15170
3714.23064,0.14519
3716.15911,0.14403
3718.08757,0.14707
3720.01604,0.14898
3721.94451,0.14977
3723.87298,0.15258
3725.80145,0.15326
3727.72992,0.15148
3729.65839,0.15381
3731.58686,0.16118
3733.51532,0.16684
3735.44379,0.16382
3737.37226,0.15643
3739.30073,0.15293
3741.22920,0.15576
3743.15767,0.16251
3745.08614,0.16603
3747.01460,0.16566
3748.94307,0.16762
3750.87154,0.16481
3752.80001,0.15328
3754.72848,0.14789
3756.65695,0.14908
3758.58542,0.15122
3760.51389,0.15096
3762.44235,0.14922
3764.37082,0.14691
3766.29929,0.14383
3768.22776,0.14206
3770.15623,0.14135
3772.08470,0.14043
3774.01317,0.14094
3775.94163,0.14326
3777.87010,0.14636
3779.79857,0.14692
3781.72704,0.14392
3783.65551,0.14271
3785.58398,0.14417
3787.51245,0.14341
3789.44092,0.14023
3791.36938,0.13920
3793.29785,0.14133
3795.22632,0.14384
3797.15479,0.14537
3799.08326,0.14825
3801.01173,0.15319
3802.94020,0.15437
3804.86866,0.15263
3806.79713,0.14969
3808.72560,0.14319
3810.65407,0.13738
3812.58254,0.13473
3814.51101,0.13657
3816.43948,0.14273
3818.36795,0.14847
3820.29641,0.15149
3822.22488,0.14798
3824.15335,0.14415
3826.08182,0.14363
3828.01029,0.14299
3829.93876,0.14281
3831.86723,0.14326
3833.79569,0.14370
3835.72416,0.14638
3837.65263,0.15056
3839.58110,0.15023
3841.50957,0.14595
3843.43804,0.14147
3845.36651,0.13858
3847.29498,0.13829
3849.22344,0.14068
3851.15191,0.14977
3853.08038,0.16624
3855.00885,0.16218
3856.93732,0.14571
3858.86579,0.13891
3860.79426,0.14376
3862.72272,0.15382
3864.65119,0.15628
3866.57966,0.15044
3868.50813,0.14850
3870.43660,0.14788
3872.36507,0.13959
3874.29354,0.13038
3876.22200,0.12555
3878.15047,0.12726
3880.07894,0.13334
3882.00741,0.13321
3883.93588,0.12976
3885.86435,0.12909
3887.79282,0.12864
3889.72129,0.12931
3891.64975,0.12917
3893.57822,0.12758
3895.50669,0.12989
3897.43516,0.13477
3899.36363,0.13771
3901.29210,0.13984
3903.22057,0.14183
3905.14903,0.13639
3907.07750,0.12839
3909.00597,0.12616
3910.93444,0.12727
3912.86291,0.12869
3914.79138,0.12887
3916.71985,0.12519
3918.64832,0.12314
3920.57678,0.12577
3922.50525,0.12713
3924.43372,0.12654
3926.36219,0.12487
3928.29066,0.12454
3930.21913,0.12676
3932.14760,0.12639
3934.07606,0.12342
3936.00453,0.12331
3937.93300,0.12519
3939.86147,0.12601
3941.78994,0.12576
3943.71841,0.12506
3945.64688,0.12621
3947.57535,0.13014
3949.50381,0.13171
3951.43228,0.12793
3953.36075,0.12302
3955.28922,0.12201
3957.21769,0.12465
3959.14616,0.12655
3961.07463,0.12587
3963.00309,0.12290
3964.93156,0.11976
3966.86003,0.11798
3968.78850,0.11571
3970.71697,0.11456
3972.64544,0.11708
3974.57391,0.11849
3976.50238,0.11677
3978.43084,0.11771
3980.35931,0.12207
3982.28778,0.12430
3984.21625,0.12293
3986.14472,0.12158
3988.07319,0.12084
3990.00166,0.11915
3991.93012,0.11677
3993.85859,0.11331
3995.78706,0.10969
3997.71553,0.10869
3999.64400,0.10895
4001.57247,0.10804
4003.50094,0.10751
4005.42941,0.10799
4007.35787,0.10891
4009.28634,0.11013
4011.21481,0.11199
4013.14328,0.11486
4015.07175,0.11572
4017.00022,0.11376
4018.92869,0.11131
4020.85715,0.10936
4022.78562,0.10906
4024.71409,0.10999
4026.64256,0.11151
4028.57103,0.11403
4030.49950,0.11509
4032.42797,0.11245
4034.35644,0.10844
4036.28490,0.10646
4038.21337,0.10638
4040.14184,0.10585
4042.07031,0.10467
4043.99878,0.10275
4045.92725,0.10158
4047.85572,0.10366
4049.78418,0.10440
4051.71265,0.10193
4053.64112,0.10261
4055.56959,0.10579
4057.49806,0.10570
4059.42653,0.10475
4061.35500,0.10464
4063.28346,0.10375
4065.21193,0.10503
4067.14040,0.10711
4069.06887,0.10780
4070.99734,0.10811
4072.92581,0.10617
4074.85428,0.10378
4076.78275,0.10385
4078.71121,0.10363
4080.63968,0.10033
4082.56815,0.09747
4084.49662,0.09937
4086.42509,0.10220
4088.35356,0.10222
4090.28203,0.10175
4092.21049,0.10200
4094.13896,0.10404
4096.06743,0.10759
4097.99590,0.10676
4099.92437,0.10173
4101.85284,0.10046
4103.78131,0.10383
4105.70978,0.10538
4107.63824,0.10272
4109.56671,0.09988
4111.49518,0.09898
4113.42365,0.09788
4115.35212,0.09690
4117.28059,0.09816
4119.20906,0.10014
4121.13752,0.09987
4123.06599,0.09706
4124.99446,0.09486
4126.92293,0.09394
4128.85140,0.09245
4130.77987,0.09252
4132.70834,0.09549
4134.63681,0.10027
4136.56527,0.10440
4138.49374,0.10446
4140.42221,0.10038
4142.35068,0.09432
4144.27915,0.08986
4146.20762,0.08839
4148.13609,0.08884
4150.06455,0.09088
4151.99302,0.09055
4153.92149,0.08864
4155.84996,0.09095
4157.77843,0.09191
4159.70690,0.08660
4161.63537,0.08239
4163.56384,0.08451
4165.49230,0.08970
4167.42077,0.09199
4169.34924,0.09052
4171.27771,0.08722
4173.20618,0.08356
4175.13465,0.08218
4177.06312,0.08292
4178.99158,0.08488
4180.92005,0.08675
4182.84852,0.08669
4184.77699,0.08502
4186.70546,0.08296
4188.63393,0.08152
4190.56240,0.07903
4192.49087,0.07654
4194.41933,0.07700
4196.34780,0.08001
4198.27627,0.08373
4200.20474,0.08562
4202.13321,0.08515
4204.06168,0.08233
4205.99015,0.07860
4207.91861,0.07816
4209.84708,0.08281
4211.77555,0.08714
4213.70402,0.08429
4215.63249,0.07834
4217.56096,0.07564
4219.48943,0.07399
4221.41789,0.07377
4223.34636,0.07760
4225.27483,0.08151
4227.20330,0.08330
4229.13177,0.08317
4231.06024,0.07930
4232.98871,0.07478
4234.91718,0.07394
4236.84564,0.07557
4238.77411,0.07415
4240.70258,0.06818
4242.63105,0.06611
4244.55952,0.07098
4246.48799,0.07369
4248.41646,0.06956
4250.34492,0.06495
4252.27339,0.06545
4254.20186,0.06708
4256.13033,0.06499
4258.05880,0.06246
4259.98727,0.06154
4261.91574,0.05997
4263.84421,0.06133
4265.77267,0.06926
4267.70114,0.07701
4269.62961,0.07956
4271.55808,0.07948
4273.48655,0.07577
4275.41502,0.06776
4277.34349,0.06093
4279.27195,0.06065
4281.20042,0.06471
4283.12889,0.06846
4285.05736,0.07109
4286.98583,0.06982
4288.91430,0.06438
4290.84277,0.06058
4292.77124,0.06178
4294.69970,0.06425
4296.62817,0.06415
4298.55664,0.06321
4300.48511,0.06312
4302.41358,0.06460
4304.34205,0.06730
4306.27052,0.06809
4308.19898,0.06518
4310.12745,0.06180
4312.05592,0.06134
4313.98439,0.06131
4315.91286,0.05979
4317.84133,0.05983
4319.76980,0.06175
4321.69827,0.06068
4323.62673,0.05662
4325.55520,0.05469
4327.48367,0.05624
4329.41214,0.05967
4331.34061,0.06137
4333.26908,0.05688
4335.19755,0.05021
4337.12601,0.04880
4339.05448,0.04871
4340.98295,0.04411
4342.91142,0.03971
4344.83989,0.04022
4346.76836,0.04202
4348.69683,0.04079
4350.62530,0.03961
4352.55376,0.04321
4354.48223,0.04688
4356.41070,0.04376
4358.33917,0.03977
4360.26764,0.04211
4362.19611,0.04603
4364.12458,0.04715
4366.05304,0.04725
4367.98151,0.04714
4369.90998,0.04602
4371.83845,0.04407
4373.76692,0.04425
4375.69539,0.04551
4377.62386,0.04101
4379.55232,0.03575
4381.48079,0.04002
4383.40926,0.04673
4385.33773,0.04853
4387.26620,0.04830
4389.19467,0.04459
4391.12314,0.04002
4393.05161,0.04091
4394.98007,0.04391
4396.90854,0.04392
4398.83701,0.04004
4400.76548,0.03474
4402.69395,0.03247
4404.62242,0.03178
4406.55089,0.02922
4408.47935,0.02846
4410.40782,0.03232
4412.33629,0.03555
4414.26476,0.03578
4416.19323,0.03666
4418.12170,0.03695
4420.05017,0.03571
4421.97864,0.03819
4423.90710,0.04339
4425.83557,0.04437
4427.76404,0.03875
4429.69251,0.02941
4431.62098,0.02366
4433.54945,0.02490
4435.47792,0.02900
4437.40638,0.03399
4439.33485,0.03602
4441.26332,0.03376
4443.19179,0.03390
4445.12026,0.03490
4447.04873,0.03203
4448.97720,0.02934
4450.90567,0.03075
4452.83413,0.03351
4454.76260,0.03243
4456.69107,0.02872
4458.61954,0.02848
4460.54801,0.03306
4462.47648,0.03694
4464.40495,0.03588
4466.33341,0.03293
4468.26188,0.03195
4470.19035,0.03028
4472.11882,0.02487
4474.04729,0.02024
4475.97576,0.02029
4477.90423,0.02121
4479.83270,0.02305
4481.76116,0.02749
4483.68963,0.02837
4485.61810,0.02425
4487.54657,0.01927
4489.47504,0.01661
4491.40351,0.01604
4493.33198,0.01249
4495.26044,0.00828
4497.18891,0.00918
4499.11738,0.01469
4501.04585,0.01959
4502.97432,0.02009
4504.90279,0.01982
4506.83126,0.02045
4508.75973,0.01968
4510.68819,0.01733
4512.61666,0.01524
4514.54513,0.01812
4516.47360,0.02309
4518.40207,0.02188
4520.33054,0.01928
4522.25901,0.02175
4524.18747,0.02342
4526.11594,0.02014
4528.04441,0.01571
4529.97288,0.01322
4531.90135,0.00979
4533.82982,0.00408
4535.75829,0.00034
4537.68676,0.00156
4539.61522,0.00674
4541.54369,0.01306
4543.47216,0.01907
4545.40063,0.02291
4547.32910,0.02457
4549.25757,0.02226
4551.18604,0.01306
4553.11450,0.00538
4555.04297,0.00425
4556.97144,0.00414
4558.89991,0.00212
4560.82838,-0.00026
4562.75685,-0.00136
4564.68532,-0.00272
4566.61378,-0.00155
4568.54225,0.00358
4570.47072,0.00591
4572.39919,0.00453
4574.32766,0.00497
4576.25613,0.00845
4578.18460,0.01200
4580.11307,0.01379
4582.04153,0.01457
4583.97000,0.01512
4585.89847,0.01201
4587.82694,0.00422
4589.75541,-0.00103
4591.68388,-0.00018
4593.61235,0.00217
4595.54081,0.00327
4597.46928,0.00540
4599.39775,0.00725
4601.32622,0.00638
4603.25469,0.00530
4605.18316,0.00181
4607.11163,-0.00372
4609.04010,-0.00361
4610.96856,0.00019
4612.89703,0.00282
4614.82550,0.00482
4616.75397,0.00617
4618.68244,0.00718
4620.61091,0.00805
4622.53938,0.00828
4624.46784,0.00804
4626.39631,0.00742
4628.32478,0.00624
4630.25325,0.00633
4632.18172,0.00802
4634.11019,0.00782
4636.03866,0.00642
4637.96713,0.00690
4639.89559,0.00733
4641.82406,0.00258
4643.75253,-0.00373
4645.68100,-0.00428
4647.60947,-0.00168
4649.53794,0.00266
4651.46641,0.00717
4653.39487,0.00892
4655.32334,0.01121
4657.25181,0.01138
4659.18028,0.00633
4661.10875,0.00232
4663.03722,-0.00032
4664.96569,-0.00330
4666.89416,-0.00037
4668.82262,0.00611
4670.75109,0.01024
4672.67956,0.01137
4674.60803,0.00666
4676.53650,0.00080
4678.46497,-0.00060
4680.39344,-0.00072
4682.32190,0.00132
4684.25037,0.00668
4686.17884,0.00982
4688.10731,0.00766
4690.03578,0.00242
4691.96425,0.00012
4693.89272,0.00498
4695.82119,0.01094
4697.74965,0.01021
4699.67812,0.00391
4701.60659,-0.00019
4703.53506,-0.00016
4705.46353,0.00171
4707.39200,0.00557
4709.32047,0.00720
4711.24893,0.00451
4713.17740,0.00341
4715.10587,0.00898
4717.03434,0.01642
4718.96281,0.01679
4720.89128,0.01410
4722.81975,0.01316
4724.74821,0.00984
4726.67668,0.00941
4728.60515,0.01413
4730.53362,0.01326
4732.46209,0.00982
4734.39056,0.01288
4736.31903,0.01606
4738.24750,0.01409
4740.17596,0.00988
4742.10443,0.00498
4744.03290,0.00007
4745.96137,-0.00236
4747.88984,0.00097
4749.81831,0.00813
4751.74678,0.01088
4753.67524,0.00848
4755.60371,0.00571
4757.53218,0.00070
4759.46065,-0.00603
4761.38912,-0.00659
4763.31759,-0.00085
4765.24606,-0.00299
4767.17453,-0.01177
4769.10299,-0.00774
4771.03146,0.00447
4772.95993,0.00631
4774.88840,-0.00265
4776.81687,-0.01358
4778.74534,-0.01894
4780.67381,-0.01751
4782.60227,-0.01374
4784.53074,-0.00752
4786.45921,0.00035
4788.38768,0.00599
4790.31615,0.01052
4792.24462,0.01324
4794.17309,0.01080
4796.10156,0.00231
4798.03002,-0.00517
4799.95849,-0.00274
4801.88696,0.00404
4803.81543,0.00977
4805.74390,0.01394
4807.67237,0.00972
4809.60084,0.00117
4811.52930,0.00150
4813.45777,0.01105
4815.38624,0.01509
4817.31471,0.00969
4819.24318,0.00357
4821.17165,-0.00093
4823.10012,-0.00240
4825.02859,-0.00046
4826.95705,0.00308
4828.88552,0.01183
4830.81399,0.02179
4832.74246,0.02346
4834.67093,0.01725
4836.59940,0.01126
4838.52787,0.01325
4840.45633,0.01826
4842.38480,0.01243
4844.31327,0.00346
4846.24174,0.00428
4848.17021,0.00486
4850.09868,0.00066
4852.02715,0.00217
4853.95562,0.01112
4855.88408,0.01592
4857.81255,0.01218
4859.74102,0.00630
4861.66949,0.00141
4863.59796,0.00321
4865.52643,0.00839
4867.45490,0.00435
4869.38336,-0.00259
4871.31183,-0.00133
4873.24030,0.00266
4875.16877,0.00316
4877.09724,0.00448
4879.02571,0.00970
4880.95418,0.01589
4882.88265,0.01584
4884.81111,0.00972
4886.73958,0.00810
4888.66805,0.00697
4890.59652,-0.00042
4892.52499,-0.00790
4894.45346,-0.01064
4896.38193,-0.00558
4898.31039,0.00330
4900.23886,0.00782
4902.16733,0.00750
4904.09580,0.00537
4906.02427,0.00453
4907.95274,0.00086
4909.88121,-0.00877
4911.80967,-0.01148
4913.73814,-0.00065
4915.66661,0.01333
4917.59508,0.01999
4919.52355,0.01513
4921.45202,0.00699
4923.38049,0.00301
4925.30896,-0.00158
4927.23742,-0.00578
4929.16589,-0.00452
4931.09436,0.00025
4933.02283,0.00261
4934.95130,0.00129
4936.87977,0.00611
4938.80824,0.01900
4940.73670,0.02852
4942.66517,0.02875
4944.59364,0.02139
4946.52211,0.01687
4948.45058,0.01915
4950.37905,0.01634
4952.30752,0.00720
4954.23599,0.00077
4956.16445,0.00151
4958.09292,0.00892
4960.02139,0.01335
4961.94986,0.00961
4963.87833,0.00544
4965.80680,0.00068
4967.73527,-0.00736
4969.66373,-0.01216
4971.59220,-0.01191
4973.52067,-0.00945
4975.44914,-0.00764
4977.37761,-0.00665
4979.30608,-0.00110
4981.23455,0.00762
4983.16302,0.01497
4985.09148,0.01937
4987.01995,0.01862
4988.94842,0.01255
4990.87689,0.00522
4992.80536,0.00515
4994.73383,0.01133
4996.66230,0.01262
4998.59076,0.00895
5000.51923,0.00924
5002.44770,0.01228
5004.37617,0.00667
5006.30464,-0.00402
5008.23311,-0.00410
5010.16158,0.00661
5012.09005,0.01977
5014.01851,0.03055
5015.94698,0.02996
5017.87545,0.01904
5019.80392,0.00976
5021.73239,0.00128
5023.66086,-0.00537
5025.58933,0.00184
5027.51779,0.02012
5029.44626,0.02862
5031.37473,0.02069
5033.30320,0.01341
5035.23167,0.01121
5037.16014,0.00654
5039.08861,0.00234
5041.01708,0.00243
5042.94554,0.00916
5044.87401,0.02112
5046.80248,0.02721
5048.73095,0.02243
5050.65942,0.01562
5052.58789,0.01157
5054.51636,0.00735
5056.44482,0.00314
5058.37329,0.00114
5060.30176,0.00202
5062.23023,0.00379
5064.15870,0.00286
5066.08717,-0.00428
5068.01564,-0.01316
5069.94410,-0.01185
5071.87257,-0.00309
5073.80104,0.00211
5075.72951,0.00847
5077.65798,0.02057
5079.58645,0.02952
5081.51492,0.02862
5083.44339,0.02131
5085.37185,0.01580
5087.30032,0.01442
5089.22879,0.01338
5091.15726,0.01410
5093.08573,0.02137
5095.01420,0.02829
5096.94267,0.02342
5098.87113,0.01779
5100.79960,0.02365
5102.72807,0.03189
5104.65654,0.03719
5106.58501,0.03805
5108.51348,0.03145
5110.44195,0.02038
5112.37042,0.00812
5114.29888,-0.00133
5116.22735,0.00239
5118.15582,0.02023
5120.08429,0.03542
5122.01276,0.04014
5123.94123,0.03791
5125.86970,0.03032
5127.79816,0.02670
5129.72663,0.03386
5131.65510,0.04546
5133.58357,0.05277
5135.51204,0.04844
5137.44051,0.03775
5139.36898,0.03013
5141.29745,0.02247
5143.22591,0.01955
5145.15438,0.02637
5147.08285,0.03102
5149.01132,0.03265
5150.93979,0.04022
5152.86826,0.04853
5154.79673,0.04941
5156.72519,0.04201
5158.65366,0.03360
5160.58213,0.03779
5162.51060,0.04883
5164.43907,0.04653
5166.36754,0.03288
5168.29601,0.02384
5170.22448,0.02720
5172.15294,0.03646
5174.08141,0.04013
5176.00988,0.03934
5177.93835,0.03974
5179.86682,0.04020
5181.79529,0.03869
5183.72376,0.03462
5185.65222,0.03021
5187.58069,0.02973
5189.50916,0.02338
5191.43763,0.01537
5193.36610,0.02731
5195.29457,0.04506
5197.22304,0.04857
5199.15151,0.04585
5201.07997,0.04548
5203.00844,0.04875
5204.93691,0.05437
5206.86538,0.05829
5208.79385,0.05406
5210.72232,0.04905
5212.65079,0.04712
5214.57925,0.03555
5216.50772,0.02230
5218.43619,0.02951
5220.36466,0.05037
5222.29313,0.06004
5224.22160,0.05323
5226.15007,0.04094
5228.07854,0.03301
5230.00700,0.02894
5231.93547,0.02435
5233.86394,0.02469
5235.79241,0.03885
5237.72088,0.05606
5239.64935,0.05575
5241.57782,0.04647
5243.50628,0.04478
5245.43475,0.04191
5247.36322,0.03826
5249.29169,0.04418
5251.22016,0.05486
5253.14863,0.06576
5255.07710,0.06829
5257.00556,0.05550
5258.93403,0.04352
5260.86250,0.04730
5262.79097,0.05491
5264.71944,0.04961
5266.64791,0.03807
5268.57638,0.03039
5270.50485,0.02871
5272.43331,0.03428
5274.36178,0.04251
5276.29025,0.04278
5278.21872,0.03843
5280.14719,0.04121
5282.07566,0.04495
5284.00413,0.04812
5285.93259,0.05298
5287.86106,0.05151
5289.78953,0.05607
5291.71800,0.07476
5293.64647,0.08251
5295.57494,0.07452
5297.50341,0.06920
5299.43188,0.06666
5301.36034,0.05744
5303.28881,0.05186
5305.21728,0.05934
5307.14575,0.06555
5309.07422,0.06030
5311.00269,0.05382
5312.93116,0.04568
5314.85962,0.03563
5316.78809,0.03294
5318.71656,0.03483
5320.64503,0.04334
5322.57350,0.05924
5324.50197,0.06581
5326.43044,0.05768
5328.35891,0.04821
5330.28737,0.04178
5332.21584,0.03776
5334.14431,0.04107
5336.07278,0.04904
5338.00125,0.05447
5339.92972,0.04870
5341.85819,0.03911
5343.78665,0.04048
5345.71512,0.04413
5347.64359,0.03897
5349.57206,0.03970
5351.50053,0.06099
5353.42900,0.08970
5355.35747,0.09531
5357.28594,0.07945
5359.21440,0.06079
5361.14287,0.05208
5363.07134,0.05343
5364.99981,0.06212
5366.92828,0.08449
5368.85675,0.09844
5370.78522,0.08702
5372.71368,0.07990
5374.64215,0.08865
5376.57062,0.08800
5378.49909,0.07691
5380.42756,0.07643
5382.35603,0.08691
5384.28450,0.09185
5386.21297,0.07906
5388.14143,0.06200
5390.06990,0.06287
5391.99837,0.08023
5393.92684,0.09077
5395.85531,0.08429
5397.78378,0.07676
5399.71225,0.07407
5401.64071,0.07633
5403.56918,0.08348
5405.49765,0.08219
5407.42612,0.06944
5409.35459,0.06112
5411.28306,0.05535
5413.21153,0.04319
5415.13999,0.04475
5417.06846,0.05986
5418.99693,0.06855
5420.92540,0.06900
5422.85387,0.06814
5424.78234,0.06935
5426.71081,0.06230
5428.63928,0.04697
5430.56774,0.04135
5432.49621,0.04101
5434.42468,0.04295
5436.35315,0.05517
5438.28162,0.07140
5440.21009,0.08112
5442.13856,0.07917
5444.06702,0.06581
5445.99549,0.05597
5447.92396,0.06388
5449.85243,0.07468
5451.78090,0.07981
5453.70937,0.08414
5455.63784,0.08868
5457.56631,0.09227
5459.49477,0.08618
5461.42324,0.07425
5463.35171,0.07555
5465.28018,0.09076
5467.20865,0.10504
5469.13712,0.10990
5471.06559,0.10146
5472.99405,0.09001
5474.92252,0.08661
5476.85099,0.08197
5478.77946,0.07435
5480.70793,0.07524
5482.63640,0.08446
5484.56487,0.08687
5486.49334,0.07875
5488.42180,0.07550
5490.35027,0.08537
5492.27874,0.09585
5494.20721,0.08695
5496.13568,0.07272
5498.06415,0.06889
5499.99262,0.06478
5501.92108,0.05993
5503.84955,0.05772
5505.77802,0.05990
5507.70649,0.07431
5509.63496,0.09208
5511.56343,0.10230
5513.49190,0.10546
5515.42037,0.10343
5517.34883,0.09700
5519.27730,0.08765
5521.20577,0.08057
5523.13424,0.07254
5525.06271,0.05931
5526.99118,0.05162
5528.91965,0.05756
5530.84811,0.07481
5532.77658,0.09641
5534.70505,0.10205
5536.63352,0.07585
5538.56199,0.04993
5540.49046,0.05426
5542.41893,0.06798
5544.34740,0.07658
5546.27586,0.08153
5548.20433,0.08096
5550.13280,0.08502
5552.06127,0.08924
5553.98974,0.07684
5555.91821,0.05929
5557.84668,0.05570
5559.77514,0.06172
5561.70361,0.06953
5563.63208,0.07301
5565.56055,0.06995
5567.48902,0.07044
5569.41749,0.07951
5571.34596,0.09154
5573.27443,0.09608
5575.20289,0.08432
5577.13136,0.06610
5579.05983,0.05818
5580.98830,0.06280
5582.91677,0.07126
5584.84524,0.07089
5586.77371,0.06169
5588.70217,0.07000
5590.63064,0.10418
5592.55911,0.12784
5594.48758,0.11036
5596.41605,0.06786
5598.34452,0.05019
5600.27299,0.06906
5602.20145,0.08786
5604.12992,0.08915
5606.05839,0.07907
5607.98686,0.07225
5609.91533,0.07564
5611.84380,0.07291
5613.77227,0.07176
5615.70074,0.10060
5617.62920,0.13587
5619.55767,0.13409
5621.48614,0.10908
5623.41461,0.09617
5625.34308,0.09438
5627.27155,0.08269
5629.20002,0.06219
5631.12848,0.05444
5633.05695,0.06313
5634.98542,0.08302
5636.91389,0.10538
5638.84236,0.11160
5640.77083,0.09643
5642.69930,0.07194
5644.62777,0.05524
5646.55623,0.06267
5648.48470,0.08304
5650.41317,0.07820
5652.34164,0.05420
5654.27011,0.05619
5656.19858,0.08042
5658.12705,0.09671
5660.05551,0.10473
5661.98398,0.10009
5663.91245,0.07237
5665.84092,0.05642
5667.76939,0.07492
5669.69786,0.09529
5671.62633,0.10301
5673.55480,0.10281
5675.48326,0.09219
5677.41173,0.08946
5679.34020,0.09582
5681.26867,0.09048
5683.19714,0.08430
5685.12561,0.09624
5687.05408,0.11803
5688.98254,0.12666
5690.91101,0.11514
5692.83948,0.09845
5694.76795,0.09724
5696.69642,0.11395
5698.62489,0.11906
5700.55336,0.10320
5702.48183,0.09148
5704.41029,0.09733
5706.33876,0.11166
5708.26723,0.11251
5710.19570,0.09434
5712.12417,0.06971
5714.05264,0.04491
5715.98111,0.03076
5717.90957,0.04504
5719.83804,0.07438
5721.76651,0.07872
5723.69498,0.06596
5725.62345,0.06873
5727.55192,0.07279
5729.48039,0.07050
5731.40886,0.07809
5733.33732,0.07594
5735.26579,0.06035
5737.19426,0.06730
5739.12273,0.09611
5741.05120,0.12575
5742.97967,0.14398
5744.90814,0.13815
5746.83660,0.11893
5748.76507,0.10941
5750.69354,0.10086
5752.62201,0.07094
5754.55048,0.04651
5756.47895,0.04486
5758.40742,0.04668
5760.33588,0.06352
5762.26435,0.09439
5764.19282,0.09862
5766.12129,0.07072
5768.04976,0.05268
5769.97823,0.05902
5771.90670,0.05637
5773.83517,0.03316
5775.76363,0.01552
5777.69210,0.01956
5779.62057,0.04183
5781.54904,0.06972
5783.47751,0.08173
5785.40598,0.08218
5787.33445,0.10426
5789.26291,0.13003
5791.19138,0.12547
5793.11985,0.11032
5795.04832,0.10356
5796.97679,0.08543
5798.90526,0.06063
5800.83373,0.07007
5802.76220,0.09263
5804.69066,0.08682
5806.61913,0.08474
5808.54760,0.10576
5810.47607,0.11793
5812.40454,0.10010
5814.33301,0.06408
5816.26148,0.03822
5818.18994,0.04223
5820.11841,0.06987
5822.04688,0.09143
5823.97535,0.08681
5825.90382,0.06600
5827.83229,0.06121
5829.76076,0.07885
5831.68923,0.08750
5833.61769,0.09364
5835.54616,0.11052
5837.47463,0.11429
5839.40310,0.11341
5841.33157,0.12299
5843.26004,0.11694
5845.18851,0.10085
5847.11697,0.10307
5849.04544,0.10482
5850.97391,0.07764
5852.90238,0.03739
5854.83085,0.02732
5856.75932,0.06122
5858.68779,0.08611
5860.61626,0.07318
5862.54472,0.05922
5864.47319,0.05360
5866.40166,0.05018
5868.33013,0.06695
5870.25860,0.09015
5872.18707,0.09730
5874.11554,0.08739
5876.04400,0.06676
5877.97247,0.06652
5879.90094,0.09184
5881.82941,0.08510
5883.75788,0.04906
5885.68635,0.05090
5887.61482,0.08301
5889.54329,0.10751
5891.47175,0.12277
5893.40022,0.12634
5895.32869,0.12418
5897.25716,0.12125
5899.18563,0.10638
5901.11410,0.07684
5903.04257,0.05306
5904.97103,0.05822
5906.89950,0.08749
5908.82797,0.11318
5910.75644,0.11905
5912.68491,0.12727
5914.61338,0.14807
5916.54185,0.13915
5918.47032,0.08923
5920.39878,0.06331
5922.32725,0.08023
5924.25572,0.09403
5926.18419,0.08821
5928.11266,0.08028
5930.04113,0.09128
5931.96960,0.10608
5933.89806,0.08947
5935.82653,0.06483
5937.75500,0.07495
5939.68347,0.10690
5941.61194,0.14334
5943.54041,0.16435
5945.46888,0.14027
5947.39734,0.08875
5949.32581,0.05460
5951.25428,0.04774
5953.18275,0.04564
5955.11122,0.04335
5957.03969,0.03918
5958.96816,0.03219
5960.89663,0.04279
5962.82509,0.07431
5964.75356,0.10191
5966.68203,0.11077
5968.61050,0.11205
5970.53897,0.11505
5972.46744,0.12965
5974.39591,0.13500
5976.32437,0.09096
5978.25284,0.05311
5980.18131,0.07169
5982.10978,0.09470
5984.03825,0.08600
5985.96672,0.06656
5987.89519,0.05017
5989.82366,0.05001
5991.75212,0.06890
5993.68059,0.09060
5995.60906,0.11752
5997.53753,0.12686
5999.46600,0.09281
6001.39447,0.05491
6003.32294,0.05605
6005.25140,0.07542
6007.17987,0.07521
6009.10834,0.06631
6011.03681,0.07257
6012.96528,0.09377
6014.89375,0.10434
6016.82222,0.08929
6018.75069,0.07904
6020.67915,0.09500
6022.60762,0.11347
6024.53609,0.11667
6026.46456,0.11422
6028.39303,0.12831
6030.32150,0.16008
6032.24997,0.18141
6034.17843,0.16312
6036.10690,0.11069
6038.03537,0.08567
6039.96384,0.11053
6041.89231,0.13322
6043.82078,0.12003
6045.74925,0.08827
6047.67772,0.06537
6049.60618,0.06354
6051.53465,0.08287
6053.46312,0.09940
6055.39159,0.07857
6057.32006,0.04376
6059.24853,0.03810
6061.17700,0.04584
6063.10546,0.04393
6065.03393,0.04049
6066.96240,0.04059
6068.89087,0.05457
6070.81934,0.09783
6072.74781,0.14108
6074.67628,0.15512
6076.60475,0.15958
6078.53321,0.15991
6080.46168,0.15193
6082.39015,0.15603
6084.31862,0.15901
6086.24709,0.14015
6088.17556,0.11818
6090.10403,0.09538
6092.03249,0.06803
6093.96096,0.06652
6095.88943,0.10735
6097.81790,0.14609
6099.74637,0.13093
6101.67484,0.08529
6103.60331,0.07026
6105.53177,0.08501
6107.46024,0.08695
6109.38871,0.06818
6111.31718,0.05768
6113.24565,0.07029
6115.17412,0.09382
6117.10259,0.11711
6119.03106,0.13169
6120.95952,0.12207
6122.88799,0.10033
6124.81646,0.08145
6126.74493,0.05775
6128.67340,0.03957
6130.60187,0.05454
6132.53034,0.08218
6134.45880,0.07613
6136.38727,0.06396
6138.31574,0.09739
6140.24421,0.14417
6142.17268,0.14866
6144.10115,0.12228
6146.02962,0.11511
6147.95809,0.14086
6149.88655,0.16459
6151.81502,0.14697
6153.74349,0.10748
6155.67196,0.09299
6157.60043,0.09155
6159.52890,0.08687
6161.45737,0.09289
6163.38583,0.11248
6165.31430,0.13027
6167.24277,0.12088
6169.17124,0.09911
6171.09971,0.09863
6173.02818,0.10772
6174.95665,0.10359
6176.88512,0.07534
6178.81358,0.03303
6180.74205,0.02873
6182.67052,0.06828
6184.59899,0.09251
6186.52746,0.08166
6188.45593,0.06192
6190.38440,0.05904
6192.31286,0.07787
6194.24133,0.11034
6196.16980,0.14149
6198.09827,0.14945
6200.02674,0.13052
6201.95521,0.10835
6203.88368,0.10814
6205.81215,0.11270
6207.74061,0.09876
6209.66908,0.09859
6211.59755,0.11035
6213.52602,0.08938
6215.45449,0.04807
6217.38296,0.03186
6219.31143,0.05878
6221.23989,0.09815
6223.16836,0.13097
6225.09683,0.15924
6227.02530,0.15610
6228.95377,0.12069
6230.88224,0.08939
6232.81071,0.07369
6234.73918,0.09066
6236.66764,0.13380
6238.59611,0.14801
6240.52458,0.14690
6242.45305,0.17549
6244.38152,0.18329
6246.30999,0.13167
6248.23846,0.09048
6250.16692,0.11153
6252.09539,0.12093
6254.02386,0.07825
6255.95233,0.05568
6257.88080,0.06358
6259.80927,0.04652
6261.73774,0.00922
6263.66621,-0.00812
6265.59467,0.00015
6267.52314,0.02880
6269.45161,0.08251
6271.38008,0.13236
6273.30855,0.13773
6275.23702,0.10523
6277.16549,0.05831
6279.09395,0.01512
6281.02242,0.02915
6282.95089,0.10154
6284.87936,0.15292
6286.80783,0.15470
6288.73630,0.13613
6290.66477,0.11469
6292.59323,0.11137
6294.52170,0.11502
6296.45017,0.09249
6298.37864,0.07195
6300.30711,0.07246
6302.23558,0.07986
6304.16405,0.10761
6306.09252,0.13263
6308.02098,0.11888
6309.94945,0.09610
6311.87792,0.08982
6313.80639,0.08525
6315.73486,0.08613
6317.66333,0.09961
6319.59180,0.09934
6321.52026,0.08146
6323.44873,0.09010
6325.37720,0.13322
6327.30567,0.17134
6329.23414,0.16216
6331.16261,0.10008
6333.09108,0.02640
6335.01955,-0.01639
6336.94801,0.00769
6338.87648,0.08502
6340.80495,0.13087
6342.73342,0.11520
6344.66189,0.11118
6346.59036,0.15133
6348.51883,0.17156
6350.44729,0.15973
6352.37576,0.15914
6354.30423,0.16898
6356.23270,0.15933
6358.16117,0.10873
6360.08964,0.04462
6362.01811,0.02084
6363.94658,0.02732
6365.87504,0.02856
6367.80351,0.05305
6369.73198,0.09327
6371.66045,0.08272
6373.58892,0.02876
6375.51739,0.00178
6377.44586,0.02421
6379.37432,0.04816
6381.30279,0.02578
6383.23126,-0.00743
6385.15973,0.03473
6387.08820,0.10880
6389.01667,0.11378
6390.94514,0.06725
6392.87361,0.06397
6394.80207,0.09435
6396.73054,0.10267
6398.65901,0.12116
6400.58748,0.11642
6402.51595,0.05303
6404.44442,0.03986
6406.37289,0.09538
6408.30135,0.09730
6410.22982,0.08084
6412.15829,0.11845
6414.08676,0.13987
6416.01523,0.14138
6417.94370,0.12876
6419.87217,0.07601
6421.80064,0.04958
6423.72910,0.07883
6425.65757,0.11259
6427.58604,0.10004
6429.51451,0.04448
6431.44298,-0.00853
6433.37145,-0.02616
6435.29992,0.00783
6437.22838,0.06949
6439.15685,0.06565
6441.08532,0.02071
6443.01379,0.03474
6444.94226,0.08587
6446.87073,0.10359
6448.79920,0.08412
6450.72766,0.05816
6452.65613,0.06119
6454.58460,0.10749
6456.51307,0.14433
6458.44154,0.08862
6460.37001,0.00803
6462.29848,0.02213
6464.22695,0.08078
6466.15541,0.09502
6468.08388,0.08323
6470.01235,0.06189
6471.94082,0.05911
6473.86929,0.08424
6475.79776,0.08481
6477.72623,0.07643
6479.65469,0.08483
6481.58316,0.08647
6483.51163,0.06649
6485.44010,0.04714
6487.36857,0.04135
6489.29704,0.03147
6491.22551,0.03679
6493.15398,0.07530
6495.08244,0.08713
6497.01091,0.03871
6498.93938,0.00082
6500.86785,0.02560
6502.79632,0.04686
6504.72479,0.03182
6506.65326,0.02163
6508.58172,0.01988
6510.51019,0.02291
6512.43866,0.04891
6514.36713,0.07100
6516.29560,0.04697
6518.22407,0.01651
6520.15254,0.02535
6522.08101,0.04760
6524.00947,0.06830
6525.93794,0.09461
6527.86641,0.11051
6529.79488,0.11383
6531.72335,0.11671
6533.65182,0.11527
6535.58029,0.11497
6537.50875,0.10793
6539.43722,0.07094
6541.36569,0.05550
6543.29416,0.08626
6545.22263,0.10241
6547.15110,0.09714
6549.07957,0.09062
6551.00804,0.09172
6552.93650,0.10114
6554.86497,0.11499
6556.79344,0.14025
6558.72191,0.14878
6560.65038,0.11204
6562.57885,0.07622
6564.50732,0.08386
6566.43578,0.10417
6568.36425,0.09596
6570.29272,0.04773
6572.22119,0.00049
6574.14966,-0.00823
6576.07813,0.00286
6578.00660,0.03701
6579.93507,0.06137
6581.86353,0.02327
6583.79200,-0.01684
6585.72047,-0.01751
6587.64894,-0.01308
6589.57741,0.01961
6591.50588,0.08390
6593.43435,0.12325
6595.36281,0.11139
6597.29128,0.09438
6599.21975,0.12058
6601.14822,0.14820
6603.07669,0.10485
6605.00516,0.03951
6606.93363,-0.00178
6608.86210,-0.03182
6610.79056,-0.02584
6612.71903,0.03116
6614.64750,0.08665
6616.57597,0.12424
6618.50444,0.16034
6620.43291,0.16560
6622.36138,0.10548
6624.28984,0.03936
6626.21831,0.04602
6628.14678,0.08566
6630.07525,0.07529
6632.00372,0.02787
6633.93219,-0.00642
6635.86066,-0.01045
6637.78912,0.05291
6639.71759,0.14200
6641.64606,0.14194
6643.57453,0.05152
6645.50300,0.00166
6647.43147,0.02557
6649.35994,0.03629
6651.28841,0.02114
6653.21687,0.00619
6655.14534,-0.00308
6657.07381,-0.00258
6659.00228,0.00560
6660.93075,0.03553
6662.85922,0.07925
6664.78769,0.08677
6666.71615,0.05666
6668.64462,0.02137
6670.57309,0.00470
6672.50156,0.03213
6674.43003,0.04613
6676.35850,0.00783
6678.28697,0.02008
6680.21544,0.09978
6682.14390,0.10711
6684.07237,0.03217
6686.00084,0.00857
6687.92931,0.02404
6689.85778,0.00384
6691.78625,-0.04489
6693.71472,-0.08491
6695.64318,-0.05566
6697.57165,0.02164
6699.50012,0.05438
6701.42859,0.06124
6703.35706,0.10734
6705.28553,0.15683
6707.21400,0.15151
6709.14247,0.13730
6711.07093,0.13832
6712.99940,0.11425
6714.92787,0.07830
6716.85634,0.06135
6718.78481,0.03304
6720.71328,-0.00941
6722.64175,-0.00631
6724.57021,0.03467
6726.49868,0.05959
6728.42715,0.06263
6730.35562,0.08657
6732.28409,0.15112
6734.21256,0.16712
6736.14103,0.09110
6738.06950,0.04845
6739.99796,0.07535
6741.92643,0.06537
6743.85490,-0.00171
6745.78337,-0.03064
6747.71184,0.01402
6749.64031,0.05283
6751.56878,0.05970
6753.49724,0.07169
6755.42571,0.06095
6757.35418,0.03028
6759.28265,-0.00585
6761.21112,-0.03345
6763.13959,-0.01816
6765.06806,0.00262
6766.99653,0.00834
6768.92499,0.01802
6770.85346,0.02322
6772.78193,0.06089
6774.71040,0.12437
6776.63887,0.09452
6778.56734,0.01860
6780.49581,0.02370
6782.42427,0.04483
6784.35274,-0.01170
6786.28121,-0.08920
6788.20968,-0.09675
6790.13815,-0.03601
6792.06662,0.03090
6793.99509,0.07247
6795.92355,0.09168
6797.85202,0.09085
6799.78049,0.08554
6801.70896,0.05770
6803.63743,0.01831
6805.56590,0.03374
6807.49437,0.07644
6809.42284,0.09806
6811.35130,0.09265
6813.27977,0.07263
6815.20824,0.08332
6817.13671,0.09681
6819.06518,0.06308
6820.99365,0.02846
6822.92212,0.03102
6824.85058,0.04396
6826.77905,0.03852
6828.70752,0.01422
6830.63599,-0.02299
6832.56446,-0.04962
6834.49293,-0.02253
6836.42140,0.05125
6838.34987,0.10041
6840.27833,0.11755
6842.20680,0.12238
6844.13527,0.12128
6846.06374,0.13490
6847.99221,0.13441
6849.92068,0.06460
6851.84915,-0.00875
6853.77761,-0.03632
6855.70608,-0.04606
6857.63455,-0.05643
6859.56302,-0.04837
6861.49149,-0.01085
6863.41996,0.01313
6865.34843,0.02052
6867.27690,0.05111
6869.20536,0.08449
6871.13383,0.12811
6873.06230,0.19334
6874.99077,0.20853
6876.91924,0.17201
6878.84771,0.12357
6880.77618,0.05318
6882.70464,0.00399
6884.63311,0.02257
6886.56158,0.06766
6888.49005,0.08917
6890.41852,0.06784
6892.34699,0.03484
6894.27546,0.02304
6896.20393,0.02461
6898.13239,0.04757
6900.06086,0.06273
6901.98933,0.04951
6903.91780,0.02981
6905.84627,0.01284
6907.77474,0.02676
6909.70321,0.07193
6911.63167,0.11280
6913.56014,0.13902
6915.48861,0.12725
6917.41708,0.09215
6919.34555,0.09649
6921.27402,0.09173
6923.20249,0.03796
6925.13096,0.01938
6927.05942,0.06720
6928.98789,0.11562
6930.91636,0.11322
6932.84483,0.09604
6934.77330,0.07781
6936.70177,0.05247
6938.63024,0.04731
6940.55870,0.05606
6942.48717,0.03393
6944.41564,0.00855
6946.34411,0.02775
6948.27258,0.06292
6950.20105,0.06705
6952.12952,0.04805
6954.05799,0.05975
6955.98645,0.13083
6957.91492,0.15199
6959.84339,0.07257
6961.77186,0.01145
6963.70033,-0.00631
6965.62880,-0.04012
6967.55727,-0.02843
6969.48573,0.00692
6971.41420,-0.02962
6973.34267,-0.01465
6975.27114,0.12410
6977.19961,0.20121
6979.12808,0.17093
6981.05655,0.12697
6982.98501,0.05518
6984.91348,-0.04799
6986.84195,-0.09160
6988.77042,-0.06349
6990.69889,-0.01608
6992.62736,0.03459
6994.55583,0.10459
6996.48430,0.17357
6998.41276,0.18888
7000.34123,0.15040
7002.26970,0.07383
7004.19817,-0.02117
7006.12664,-0.07521
7008.05511,-0.03266
7009.98358,0.05171
7011.91204,0.08507
7013.84051,0.07889
7015.76898,0.12394
7017.69745,0.17722
7019.62592,0.14079
7021.55439,0.03946
7023.48286,-0.04089
7025.41133,-0.07702
7027.33979,-0.09485
7029.26826,-0.08497
7031.19673,-0.05891
7033.12520,-0.02667
7035.05367,0.03862
7036.98214,0.11402
7038.91061,0.11820
7040.83907,0.04981
7042.76754,-0.01316
7044.69601,-0.02424
7046.62448,0.01635
7048.55295,0.05591
7050.48142,0.05400
7052.40989,0.03702
7054.33836,0.00556
7056.26682,-0.03503
7058.19529,-0.03444
7060.12376,0.01032
7062.05223,0.07362
7063.98070,0.10895
7065.90917,0.06505
7067.83764,0.03914
7069.76610,0.08711
7071.69457,0.11354
7073.62304,0.09131
7075.55151,0.06875
7077.47998,0.03195
7079.40845,-0.04118
7081.33692,-0.09935
7083.26539,-0.09384
7085.19385,-0.06732
7087.12232,0.00483
7089.05079,0.11334
7090.97926,0.16221
7092.90773,0.17396
7094.83620,0.18601
7096.76467,0.15310
7098.69313,0.10221
7100.62160,0.10033
7102.55007,0.13314
7104.47854,0.20126
7106.40701,0.23673
7108.33548,0.14594
7110.26395,0.02297
7112.19242,-0.05386
7114.12088,-0.05701
7116.04935,0.05013
7117.97782,0.18997
7119.90629,0.20892
7121.83476,0.16995
7123.76323,0.16644
7125.69170,0.14647
7127.62016,0.06661
7129.54863,0.00227
7131.47710,0.00767
7133.40557,0.05523
7135.33404,0.06000
7137.26251,-0.00559
7139.19098,-0.06330
7141.11944,-0.05163
7143.04791,0.03477
7144.97638,0.13437
7146.90485,0.10138
7148.83332,0.01119
7150.76179,0.00425
7152.69026,0.05429
7154.61873,0.11700
7156.54719,0.17695
7158.47566,0.18570
7160.40413,0.12068
7162.33260,0.07968
7164.26107,0.12215
7166.18954,0.10716
7168.11801,-0.01627
7170.04647,-0.10647
7171.97494,-0.09514
7173.90341,-0.02499
7175.83188,0.06515
7177.76035,0.11380
7179.68882,0.14408
7181.61729,0.19979
7183.54576,0.17440
7185.47422,0.04463
7187.40269,-0.09034
7189.33116,-0.15866
7191.25963,-0.12645
7193.18810,-0.10376
7195.11657,-0.10179
7197.04504,-0.02714
7198.97350,0.07374
7200.90197,0.10763
7202.83044,0.04246
7204.75891,-0.02220
7206.68738,0.00918
7208.61585,-0.03702
7210.54432,-0.10183
7212.47279,-0.01070
7214.40125,0.14885
7216.32972,0.18749
7218.25819,0.07532
7220.18666,0.00847
7222.11513,0.06998
7224.04360,0.15832
7225.97207,0.14581
7227.90053,0.03638
7229.82900,-0.07037
7231.75747,-0.10370
7233.68594,-0.07313
7235.61441,-0.03992
7237.54288,0.01893
7239.47135,0.10503
7241.39982,0.14565
7243.32828,0.09617
7245.25675,0.01881
7247.18522,-0.02777
7249.11369,-0.03307
7251.04216,0.00650
7252.97063,0.09732
7254.89910,0.18859
7256.82756,0.22245
7258.75603,0.20272
7260.68450,0.14213
7262.61297,0.12933
7264.54144,0.12529
7266.46991,0.07189
7268.39838,0.07746
7270.32685,0.11750
7272.25531,0.09253
7274.18378,0.05650
7276.11225,0.06543
7278.04072,0.12968
7279.96919,0.18532
7281.89766,0.13331
7283.82613,0.12563
7285.75459,0.18105
7287.68306,0.19766
7289.61153,0.13392
7291.54000,0.00847
7293.46847,-0.03307
7295.39694,0.03777
7297.32541,0.10551
7299.25387,0.13699
7301.18234,0.18164
7303.11081,0.21838
7305.03928,0.12644
7306.96775,-0.08434
7308.89622,-0.17027
7310.82469,-0.01327
7312.75316,0.10089
7314.68162,0.04684
7316.61009,-0.07542
7318.53856,-0.12762
7320.46703,-0.05563
7322.39550,0.06987
7324.32397,0.06972
7326.25244,0.03406
7328.18090,0.14804
7330.10937,0.22178
7332.03784,0.15823
7333.96631,0.16469
7335.89478,0.23104
7337.82325,0.26182
7339.75172,0.11634
7341.68019,-0.14193
7343.60865,-0.21032
7345.53712,-0.11611
7347.46559,0.00219
7349.39406,0.06836
7351.32253,0.07846
7353.25100,0.02107
7355.17947,-0.03066
7357.10793,0.03535
7359.03640,0.12543
7360.96487,0.07753
7362.89334,0.02783
7364.82181,0.02400
7366.75028,0.04592
7368.67875,0.15114
7370.60722,0.25733
7372.53568,0.26646
7374.46415,0.22084
7376.39262,0.15913
7378.32109,0.04824
7380.24956,-0.07189
7382.17803,-0.07402
7384.10650,0.04069
7386.03496,0.12509
7387.96343,0.12464
7389.89190,0.06957
7391.82037,0.03661
7393.74884,0.09898
7395.67731,0.13506
7397.60578,0.01477
7399.53425,-0.16519
7401.46271,-0.29093
7403.39118,-0.29324
7405.31965,-0.15517
7407.24812,-0.00655
7409.17659,0.09623
7411.10506,0.17537
7413.03353,0.23436
7414.96199,0.25117
7416.89046,0.16328
7418.81893,0.02960
7420.74740,0.03695
7422.67587,0.09332
7424.60434,0.06045
7426.53281,-0.03046
7428.46128,-0.06769
7430.38974,-0.01780
7432.31821,0.02257
7434.24668,-0.00380
7436.17515,-0.05342
7438.10362,0.00194
7440.03209,0.10423
7441.96056,0.06458
7443.88902,-0.02632
7445.81749,0.01331
7447.74596,0.12894
7449.67443,0.17275
7451.60290,0.11557
7453.53137,0.05557
7455.45984,0.06573
7457.38831,0.12775
7459.31677,0.18212
7461.24524,0.16318
7463.17371,0.09442
7465.10218,0.05279
7467.03065,0.08274
7468.95912,0.09862
7470.88759,0.03001
7472.81605,-0.00157
7474.74452,0.03678
7476.67299,0.03580
7478.60146,0.02613
7480.52993,0.12344
7482.45840,0.18470
7484.38687,0.03238
7486.31533,-0.10608
7488.24380,-0.07056
7490.17227,-0.00112
7492.10074,0.05710
7494.02921,0.15034
7495.95768,0.23651
7497.88615,0.29024
