399.19301,0.04718
401.12148,-0.03374
403.04995,0.01209
404.97842,0.10391
406.90689,0.16724
408.83536,0.21419
410.76382,0.24395
412.69229,0.25288
414.62076,0.22693
416.54923,0.17216
418.47770,0.08881
420.40617,-0.03411
422.33464,-0.10426
424.26311,-0.05158
426.19157,0.05118
428.12004,0.07486
430.04851,0.03572
431.97698,0.00407
433.90545,0.00434
435.83392,0.01718
437.76239,0.03009
439.69085,0.06349
441.61932,0.09507
443.54779,0.06301
445.47626,0.02874
447.40473,0.05456
449.33320,0.09144
451.26167,0.08408
453.19013,0.05615
455.11860,0.05590
457.04707,0.06695
458.97554,0.05057
460.90401,0.01147
462.83248,-0.00264
464.76095,0.03937
466.68942,0.09281
468.61788,0.14236
470.54635,0.18411
472.47482,0.16007
474.40329,0.12772
476.33176,0.16303
478.26023,0.15516
480.18870,0.13016
482.11716,0.10628
484.04563,0.06442
485.97410,0.06435
487.90257,0.10502
489.83104,0.11899
491.75951,0.10320
493.68798,0.08476
495.61645,0.08660
497.54491,0.08794
499.47338,0.07725
501.40185,0.09628
503.33032,0.12410
505.25879,0.10618
507.18726,0.07130
509.11573,0.06257
511.04419,0.07537
512.97266,0.08844
514.90113,0.07763
516.82960,0.05216
518.75807,0.05562
520.68654,0.09497
522.61501,0.13352
524.54348,0.13253
526.47194,0.11323
528.40041,0.11494
530.32888,0.10752
532.25735,0.08818
534.18582,0.09017
536.11429,0.09981
538.04276,0.10874
539.97122,0.12708
541.89969,0.14083
543.82816,0.15127
545.75663,0.16078
547.68510,0.15383
549.61357,0.11318
551.54204,0.03342
553.47051,-0.01686
555.39897,0.02321
557.32744,0.09207
559.25591,0.11922
561.18438,0.11795
563.11285,0.11877
565.04132,0.12883
566.96979,0.13235
568.89825,0.12525
570.82672,0.11433
572.75519,0.10310
574.68366,0.10427
576.61213,0.11463
578.54060,0.12078
580.46907,0.12136
582.39754,0.11653
584.32600,0.10849
586.25447,0.10369
588.18294,0.11103
590.11141,0.12125
592.03988,0.11311
593.96835,0.10459
595.89682,0.11318
597.82528,0.10885
599.75375,0.08982
601.68222,0.09222
603.61069,0.11696
605.53916,0.12989
607.46763,0.11534
609.39610,0.09125
611.32456,0.08249
613.25303,0.09125
615.18150,0.10044
617.10997,0.10204
619.03844,0.09925
620.96691,0.09979
622.89538,0.10939
624.82385,0.12614
626.75231,0.14283
628.68078,0.15099
630.60925,0.16780
632.53772,0.18860
634.46619,0.17205
636.39466,0.14218
638.32313,0.13547
640.25159,0.13984
642.18006,0.14153
644.10853,0.13707
646.03700,0.13004
647.96547,0.12695
649.89394,0.13327
651.82241,0.14277
653.75088,0.14178
655.67934,0.13535
657.60781,0.13527
659.53628,0.14695
661.46475,0.15919
663.39322,0.15098
665.32169,0.13488
667.25016,0.13614
669.17862,0.14527
671.10709,0.14590
673.03556,0.14913
674.96403,0.14898
676.89250,0.14104
678.82097,0.12955
680.74944,0.12317
682.67791,0.12267
684.60637,0.12406
686.53484,0.13465
688.46331,0.14910
690.39178,0.15489
692.32025,0.15233
694.24872,0.14612
696.17719,0.14740
698.10565,0.15253
700.03412,0.14769
701.96259,0.13708
703.89106,0.12899
705.81953,0.13002
707.74800,0.14367
709.67647,0.16442
711.60494,0.17573
713.53340,0.16071
715.46187,0.13856
717.39034,0.13358
719.31881,0.13711
721.24728,0.14220
723.17575,0.14512
725.10422,0.13964
727.03268,0.13261
728.96115,0.13126
730.88962,0.13644
732.81809,0.14744
734.74656,0.15415
736.67503,0.14716
738.60350,0.13641
740.53197,0.13261
742.46043,0.13254
744.38890,0.13276
746.31737,0.13146
748.24584,0.12992
750.17431,0.13422
752.10278,0.14505
754.03125,0.15621
755.95971,0.15779
757.88818,0.15051
759.81665,0.14425
761.74512,0.13472
763.67359,0.12360
765.60206,0.12145
767.53053,0.12020
769.45900,0.11746
771.38746,0.12508
773.31593,0.14079
775.24440,0.15116
777.17287,0.14905
779.10134,0.14099
781.02981,0.13739
782.95828,0.13682
784.88674,0.13692
786.81521,0.13883
788.74368,0.13380
790.67215,0.12575
792.60062,0.12902
794.52909,0.13597
796.45756,0.13469
798.38602,0.13042
800.31449,0.13090
802.24296,0.13572
804.17143,0.14064
806.09990,0.14039
808.02837,0.13244
809.95684,0.12448
811.88531,0.12115
813.81377,0.12034
815.74224,0.12278
817.67071,0.12792
819.59918,0.13188
821.52765,0.13264
823.45612,0.12862
825.38459,0.12365
827.31305,0.12828
829.24152,0.13695
831.16999,0.13921
833.09846,0.14102
835.02693,0.14299
836.95540,0.13969
838.88387,0.14051
840.81234,0.14634
842.74080,0.14235
844.66927,0.13109
846.59774,0.12811
848.52621,0.13567
850.45468,0.14343
852.38315,0.14816
854.31162,0.15499
856.24008,0.16272
858.16855,0.16569
860.09702,0.16107
862.02549,0.15634
863.95396,0.15714
865.88243,0.16214
867.81090,0.16865
869.73937,0.17191
871.66783,0.16942
873.59630,0.15813
875.52477,0.14382
877.45324,0.13608
879.38171,0.13736
881.31018,0.14550
883.23865,0.14941
885.16711,0.14749
887.09558,0.15040
889.02405,0.15797
890.95252,0.15986
892.88099,0.15305
894.80946,0.14514
896.73793,0.14280
898.66640,0.14695
900.59486,0.15300
902.52333,0.15388
904.45180,0.15217
906.38027,0.15493
908.30874,0.15521
910.23721,0.14918
912.16568,0.14730
914.09414,0.14803
916.02261,0.14412
917.95108,0.14193
919.87955,0.14509
921.80802,0.14811
923.73649,0.15023
925.66496,0.15360
927.59343,0.15529
929.52189,0.15332
931.45036,0.15046
933.37883,0.14794
935.30730,0.14401
937.23577,0.13907
939.16424,0.13730
941.09271,0.14006
943.02117,0.14318
944.94964,0.14450
946.87811,0.14462
948.80658,0.14435
950.73505,0.14674
952.66352,0.15125
954.59199,0.15042
956.52045,0.14130
958.44892,0.13326
960.37739,0.13496
962.30586,0.14212
964.23433,0.14526
966.16280,0.14234
968.09127,0.14022
970.01974,0.14301
971.94820,0.14747
973.87667,0.15029
975.80514,0.15136
977.73361,0.15394
979.66208,0.15692
981.59055,0.15624
983.51902,0.15350
985.44748,0.14908
987.37595,0.14495
989.30442,0.14509
991.23289,0.14636
993.16136,0.14591
995.08983,0.14592
997.01830,0.14691
998.94677,0.14791
1000.87523,0.15042
1002.80370,0.15482
1004.73217,0.15770
1006.66064,0.15943
1008.58911,0.16166
1010.51758,0.16107
1012.44605,0.15772
1014.37451,0.15358
1016.30298,0.15071
1018.23145,0.15359
1020.15992,0.15765
1022.08839,0.16017
1024.01686,0.16695
1025.94533,0.17044
1027.87380,0.16307
1029.80226,0.15658
1031.73073,0.15819
1033.65920,0.15719
1035.58767,0.14891
1037.51614,0.14490
1039.44461,0.15122
1041.37308,0.15805
1043.30154,0.15857
1045.23001,0.15900
1047.15848,0.16344
1049.08695,0.16429
1051.01542,0.15776
1052.94389,0.15527
1054.87236,0.16377
1056.80083,0.17062
1058.72929,0.16567
1060.65776,0.15733
1062.58623,0.15495
1064.51470,0.15915
1066.44317,0.16773
1068.37164,0.17416
1070.30011,0.17450
1072.22857,0.17240
1074.15704,0.17111
1076.08551,0.17200
1078.01398,0.17405
1079.94245,0.17410
1081.87092,0.17197
1083.79939,0.16723
1085.72786,0.15654
1087.65632,0.14571
1089.58479,0.14548
1091.51326,0.15244
1093.44173,0.15833
1095.37020,0.16015
1097.29867,0.15885
1099.22714,0.16274
1101.15560,0.17450
1103.08407,0.18441
1105.01254,0.18557
1106.94101,0.18088
1108.86948,0.17572
1110.79795,0.17520
1112.72642,0.17687
1114.65489,0.17426
1116.58335,0.17282
1118.51182,0.17209
1120.44029,0.16460
1122.36876,0.15731
1124.29723,0.15526
1126.22570,0.15447
1128.15417,0.15482
1130.08263,0.15503
1132.01110,0.15285
1133.93957,0.15238
1135.86804,0.15514
1137.79651,0.15867
1139.72498,0.16068
1141.65345,0.15970
1143.58191,0.16125
1145.51038,0.16674
1147.43885,0.16837
1149.36732,0.16516
1151.29579,0.16337
1153.22426,0.16688
1155.15273,0.17087
1157.08120,0.16892
1159.00966,0.16735
1160.93813,0.16940
1162.86660,0.16709
1164.79507,0.16402
1166.72354,0.16731
1168.65201,0.16986
1170.58048,0.16722
1172.50894,0.16428
1174.43741,0.16346
1176.36588,0.16481
1178.29435,0.16795
1180.22282,0.17114
1182.15129,0.17212
1184.07976,0.17104
1186.00823,0.17036
1187.93669,0.16881
1189.86516,0.16619
1191.79363,0.16666
1193.72210,0.16853
1195.65057,0.16838
1197.57904,0.16845
1199.50751,0.16866
1201.43597,0.16780
1203.36444,0.16959
1205.29291,0.17462
1207.22138,0.17691
1209.14985,0.17429
1211.07832,0.17405
1213.00679,0.17922
1214.93526,0.18239
1216.86372,0.18014
1218.79219,0.17565
1220.72066,0.17233
1222.64913,0.17025
1224.57760,0.16861
1226.50607,0.16978
1228.43454,0.17153
1230.36300,0.17152
1232.29147,0.17326
1234.21994,0.17512
1236.14841,0.17256
1238.07688,0.16862
1240.00535,0.16870
1241.93382,0.17116
1243.86229,0.17131
1245.79075,0.16906
1247.71922,0.16834
1249.64769,0.17141
1251.57616,0.17467
1253.50463,0.17456
1255.43310,0.17262
1257.36157,0.17055
1259.29003,0.16821
1261.21850,0.16658
1263.14697,0.16754
1265.07544,0.16960
1267.00391,0.17011
1268.93238,0.17105
1270.86085,0.17428
1272.78932,0.17682
1274.71778,0.17704
1276.64625,0.17777
1278.57472,0.17910
1280.50319,0.17783
1282.43166,0.17540
1284.36013,0.17538
1286.28860,0.17681
1288.21706,0.17671
1290.14553,0.17606
1292.07400,0.17744
1294.00247,0.17841
1295.93094,0.17715
1297.85941,0.17567
1299.78788,0.17178
1301.71634,0.16204
1303.64481,0.15186
1305.57328,0.15358
1307.50175,0.16674
1309.43022,0.17707
1311.35869,0.18094
1313.28716,0.18192
1315.21563,0.18108
1317.14409,0.18131
1319.07256,0.18114
1321.00103,0.17945
1322.92950,0.17828
1324.85797,0.17514
1326.78644,0.17110
1328.71491,0.17017
1330.64337,0.17024
1332.57184,0.17180
1334.50031,0.17682
1336.42878,0.18107
1338.35725,0.18251
1340.28572,0.17995
1342.21419,0.17543
1344.14266,0.17484
1346.07112,0.17665
1347.99959,0.17833
1349.92806,0.17953
1351.85653,0.17887
1353.78500,0.17741
1355.71347,0.17764
1357.64194,0.17888
1359.57040,0.17964
1361.49887,0.18197
1363.42734,0.18494
1365.35581,0.18499
1367.28428,0.18402
1369.21275,0.18403
1371.14122,0.18605
1373.06969,0.19142
1374.99815,0.19525
1376.92662,0.19108
1378.85509,0.18517
1380.78356,0.18469
1382.71203,0.18918
1384.64050,0.19436
1386.56897,0.19658
1388.49743,0.19459
1390.42590,0.19290
1392.35437,0.19620
1394.28284,0.20327
1396.21131,0.20793
1398.13978,0.20443
1400.06825,0.19438
1401.99672,0.18826
1403.92518,0.18902
1405.85365,0.19043
1407.78212,0.18981
1409.71059,0.18911
1411.63906,0.18919
1413.56753,0.19218
1415.49600,0.19863
1417.42446,0.20496
1419.35293,0.20389
1421.28140,0.19893
1423.20987,0.19719
1425.13834,0.19446
1427.06681,0.19269
1428.99528,0.19576
1430.92375,0.19767
1432.85221,0.19566
1434.78068,0.19583
1436.70915,0.19691
1438.63762,0.19245
1440.56609,0.18813
1442.49456,0.18725
1444.42303,0.18906
1446.35149,0.19423
1448.27996,0.20059
1450.20843,0.20369
1452.13690,0.20546
1454.06537,0.21149
1455.99384,0.22737
1457.92231,0.23581
1459.85077,0.21826
1461.77924,0.20476
1463.70771,0.20323
1465.63618,0.20394
1467.56465,0.20062
1469.49312,0.20304
1471.42159,0.21417
1473.35006,0.22025
1475.27852,0.21352
1477.20699,0.20583
1479.13546,0.20163
1481.06393,0.20020
1482.99240,0.20030
1484.92087,0.20392
1486.84934,0.21348
1488.77780,0.22374
1490.70627,0.21935
1492.63474,0.20784
1494.56321,0.20440
1496.49168,0.20813
1498.42015,0.20958
1500.34862,0.20760
1502.27709,0.20943
1504.20555,0.22112
1506.13402,0.24836
1508.06249,0.25447
1509.99096,0.23278
1511.91943,0.22206
1513.84790,0.22264
1515.77637,0.22670
1517.70483,0.22799
1519.63330,0.23000
1521.56177,0.23414
1523.49024,0.23241
1525.41871,0.22630
1527.34718,0.21646
1529.27565,0.20877
1531.20412,0.20938
1533.13258,0.21340
1535.06105,0.21513
1536.98952,0.22234
1538.91799,0.24495
1540.84646,0.26774
1542.77493,0.25448
1544.70340,0.22949
1546.63186,0.21290
1548.56033,0.20942
1550.48880,0.21047
1552.41727,0.21119
1554.34574,0.21763
1556.27421,0.23354
1558.20268,0.25683
1560.13115,0.24625
1562.05961,0.22174
1563.98808,0.21046
1565.91655,0.20559
1567.84502,0.20568
1569.77349,0.20887
1571.70196,0.20944
1573.63043,0.21050
1575.55889,0.21331
1577.48736,0.21150
1579.41583,0.20630
1581.34430,0.20061
1583.27277,0.19480
1585.20124,0.19218
1587.12971,0.19294
1589.05818,0.19373
1590.98664,0.19448
1592.91511,0.19657
1594.84358,0.19778
1596.77205,0.19562
1598.70052,0.19293
1600.62899,0.19355
1602.55746,0.19643
1604.48592,0.19783
1606.41439,0.19729
1608.34286,0.19534
1610.27133,0.19328
1612.19980,0.19618
1614.12827,0.20667
1616.05674,0.21967
1617.98521,0.21935
1619.91367,0.21278
1621.84214,0.21406
1623.77061,0.21769
1625.69908,0.21710
1627.62755,0.21540
1629.55602,0.21105
1631.48449,0.20826
1633.41295,0.21506
1635.34142,0.22843
1637.26989,0.22733
1639.19836,0.21747
1641.12683,0.21188
1643.05530,0.21332
1644.98377,0.22490
1646.91223,0.23771
1648.84070,0.23493
1650.76917,0.23600
1652.69764,0.24575
1654.62611,0.23175
1656.55458,0.21463
1658.48305,0.20998
1660.41152,0.21183
1662.33998,0.21365
1664.26845,0.21255
1666.19692,0.21543
1668.12539,0.22521
1670.05386,0.23206
1671.98233,0.22825
1673.91080,0.22313
1675.83926,0.21787
1677.76773,0.21567
1679.69620,0.22180
1681.62467,0.23531
1683.55314,0.24661
1685.48161,0.23620
1687.41008,0.22138
1689.33855,0.21380
1691.26701,0.21086
1693.19548,0.21353
1695.12395,0.22198
1697.05242,0.22934
1698.98089,0.23027
1700.90936,0.22633
1702.83783,0.22264
1704.76629,0.22108
1706.69476,0.21569
1708.62323,0.20908
1710.55170,0.20753
1712.48017,0.21151
1714.40864,0.22169
1716.33711,0.23106
1718.26558,0.22113
1720.19404,0.20559
1722.12251,0.19895
1724.05098,0.19797
1725.97945,0.19970
1727.90792,0.20322
1729.83639,0.20819
1731.76486,0.21506
1733.69332,0.21986
1735.62179,0.21546
1737.55026,0.21459
1739.47873,0.21996
1741.40720,0.22141
1743.33567,0.21780
1745.26414,0.21641
1747.19261,0.21924
1749.12107,0.22212
1751.04954,0.21799
1752.97801,0.21040
1754.90648,0.20728
1756.83495,0.20856
1758.76342,0.21112
1760.69189,0.21286
1762.62035,0.20971
1764.54882,0.20382
1766.47729,0.20333
1768.40576,0.20969
1770.33423,0.21866
1772.26270,0.22130
1774.19117,0.21336
1776.11964,0.20715
1778.04810,0.20676
1779.97657,0.20739
1781.90504,0.20571
1783.83351,0.20390
1785.76198,0.20238
1787.69045,0.20142
1789.61892,0.20468
1791.54738,0.21216
1793.47585,0.21604
1795.40432,0.21311
1797.33279,0.20952
1799.26126,0.20863
1801.18973,0.20669
1803.11820,0.20193
1805.04666,0.20000
1806.97513,0.20232
1808.90360,0.20569
1810.83207,0.20671
1812.76054,0.20360
1814.68901,0.19906
1816.61748,0.19647
1818.54595,0.19709
1820.47441,0.20045
1822.40288,0.20495
1824.33135,0.20748
1826.25982,0.20792
1828.18829,0.21125
1830.11676,0.21260
1832.04523,0.20578
1833.97369,0.20014
1835.90216,0.20080
1837.83063,0.20314
1839.75910,0.20275
1841.68757,0.20293
1843.61604,0.20599
1845.54451,0.20709
1847.47298,0.20499
1849.40144,0.20267
1851.32991,0.20125
1853.25838,0.20087
1855.18685,0.19998
1857.11532,0.19788
1859.04379,0.19638
1860.97226,0.19615
1862.90072,0.19748
1864.82919,0.20185
1866.75766,0.20716
1868.68613,0.20767
1870.61460,0.20378
1872.54307,0.20137
1874.47154,0.20082
1876.40001,0.20054
1878.32847,0.19972
1880.25694,0.19956
1882.18541,0.20201
1884.11388,0.20482
1886.04235,0.20587
1887.97082,0.20695
1889.89929,0.20674
1891.82775,0.20406
1893.75622,0.20208
1895.68469,0.20124
1897.61316,0.20073
1899.54163,0.20090
1901.47010,0.20100
1903.39857,0.20109
1905.32704,0.20235
1907.25550,0.20338
1909.18397,0.20263
1911.11244,0.20188
1913.04091,0.20256
1914.96938,0.20443
1916.89785,0.20618
1918.82632,0.20621
1920.75478,0.20581
1922.68325,0.20549
1924.61172,0.20406
1926.54019,0.20187
1928.46866,0.19987
1930.39713,0.19931
1932.32560,0.20062
1934.25407,0.20229
1936.18253,0.20258
1938.11100,0.20221
1940.03947,0.20308
1941.96794,0.20507
1943.89641,0.20596
1945.82488,0.20391
1947.75335,0.20019
1949.68181,0.19819
1951.61028,0.19945
1953.53875,0.20188
1955.46722,0.20325
1957.39569,0.20417
1959.32416,0.20591
1961.25263,0.20744
1963.18110,0.20757
1965.10956,0.20757
1967.03803,0.20769
1968.96650,0.20708
1970.89497,0.20692
1972.82344,0.20707
1974.75191,0.20678
1976.68038,0.20677
1978.60884,0.20444
1980.53731,0.19968
1982.46578,0.19795
1984.39425,0.19986
1986.32272,0.20290
1988.25119,0.20501
1990.17966,0.20416
1992.10812,0.20214
1994.03659,0.20187
1995.96506,0.20219
1997.89353,0.20127
1999.82200,0.19992
2001.75047,0.19960
2003.67894,0.20023
2005.60741,0.20015
2007.53587,0.19956
2009.46434,0.20069
2011.39281,0.20308
2013.32128,0.20511
2015.24975,0.20597
2017.17822,0.20461
2019.10669,0.20140
2021.03515,0.19924
2022.96362,0.20033
2024.89209,0.20388
2026.82056,0.20614
2028.74903,0.20404
2030.67750,0.19974
2032.60597,0.19687
2034.53444,0.19625
2036.46290,0.19705
2038.39137,0.19843
2040.31984,0.19987
2042.24831,0.20110
2044.17678,0.20214
2046.10525,0.20234
2048.03372,0.20153
2049.96218,0.20110
2051.89065,0.20167
2053.81912,0.20185
2055.74759,0.20139
2057.67606,0.20150
2059.60453,0.20195
2061.53300,0.20298
2063.46147,0.20436
2065.38993,0.20381
2067.31840,0.20176
2069.24687,0.20080
2071.17534,0.20139
2073.10381,0.20316
2075.03228,0.20485
2076.96075,0.20471
2078.88921,0.20410
2080.81768,0.20523
2082.74615,0.20728
2084.67462,0.20818
2086.60309,0.20851
2088.53156,0.20973
2090.46003,0.20969
2092.38850,0.20753
2094.31696,0.20669
2096.24543,0.20760
2098.17390,0.20713
2100.10237,0.20499
2102.03084,0.20461
2103.95931,0.20722
2105.88778,0.20952
2107.81624,0.20872
2109.74471,0.20727
2111.67318,0.20782
2113.60165,0.20825
2115.53012,0.20782
2117.45859,0.20677
2119.38706,0.20409
2121.31553,0.20290
2123.24399,0.20486
2125.17246,0.20724
2127.10093,0.20815
2129.02940,0.20681
2130.95787,0.20438
2132.88634,0.20384
2134.81481,0.20680
2136.74327,0.20999
2138.67174,0.20783
2140.60021,0.20195
2142.52868,0.19920
2144.45715,0.20104
2146.38562,0.20495
2148.31409,0.20850
2150.24255,0.20923
2152.17102,0.20784
2154.09949,0.20644
2156.02796,0.20590
2157.95643,0.20621
2159.88490,0.20659
2161.81337,0.20721
2163.74184,0.20781
2165.67030,0.20663
2167.59877,0.20483
2169.52724,0.20539
2171.45571,0.20688
2173.38418,0.20648
2175.31265,0.20575
2177.24112,0.20636
2179.16958,0.20632
2181.09805,0.20426
2183.02652,0.20257
2184.95499,0.20272
2186.88346,0.20307
2188.81193,0.20289
2190.74040,0.20341
2192.66887,0.20457
2194.59733,0.20520
2196.52580,0.20590
2198.45427,0.20624
2200.38274,0.20520
2202.31121,0.20509
2204.23968,0.20730
2206.16815,0.20996
2208.09661,0.21057
2210.02508,0.20823
2211.95355,0.20557
2213.88202,0.20543
2215.81049,0.20675
2217.73896,0.20743
2219.66743,0.20704
2221.59590,0.20605
2223.52436,0.20541
2225.45283,0.20546
2227.38130,0.20558
2229.30977,0.20574
2231.23824,0.20660
2233.16671,0.20799
2235.09518,0.20837
2237.02364,0.20715
2238.95211,0.20561
2240.88058,0.20453
2242.80905,0.20362
2244.73752,0.20299
2246.66599,0.20402
2248.59446,0.20593
2250.52293,0.20553
2252.45139,0.20373
2254.37986,0.20379
2256.30833,0.20556
2258.23680,0.20682
2260.16527,0.20646
2262.09374,0.20503
2264.02221,0.20357
2265.95067,0.20393
2267.87914,0.20549
2269.80761,0.20467
2271.73608,0.20294
2273.66455,0.20414
2275.59302,0.20582
2277.52149,0.20512
2279.44996,0.20464
2281.37842,0.20515
2283.30689,0.20461
2285.23536,0.20341
2287.16383,0.20309
2289.09230,0.20385
2291.02077,0.20423
2292.94924,0.20379
2294.87770,0.20410
2296.80617,0.20487
2298.73464,0.20419
2300.66311,0.20211
2302.59158,0.20116
2304.52005,0.20124
2306.44852,0.20012
2308.37699,0.19977
2310.30545,0.20159
2312.23392,0.20254
2314.16239,0.20144
2316.09086,0.20136
2318.01933,0.20388
2319.94780,0.20559
2321.87627,0.20381
2323.80473,0.20065
2325.73320,0.20002
2327.66167,0.20180
2329.59014,0.20282
2331.51861,0.20094
2333.44708,0.19777
2335.37555,0.19895
2337.30401,0.20137
2339.23248,0.19998
2341.16095,0.20315
2343.08942,0.21079
2345.01789,0.21185
2346.94636,0.20836
2348.87483,0.20490
2350.80330,0.20007
2352.73176,0.19532
2354.66023,0.20076
2356.58870,0.21454
2358.51717,0.21397
2360.44564,0.20283
2362.37411,0.19920
2364.30258,0.20274
2366.23104,0.21301
2368.15951,0.21819
2370.08798,0.21021
2372.01645,0.20267
2373.94492,0.19978
2375.87339,0.19849
2377.80186,0.19978
2379.73033,0.20106
2381.65879,0.20192
2383.58726,0.20404
2385.51573,0.20560
2387.44420,0.20576
2389.37267,0.20673
2391.30114,0.20858
2393.22961,0.20865
2395.15807,0.20698
2397.08654,0.20561
2399.01501,0.20523
2400.94348,0.20542
2402.87195,0.20520
2404.80042,0.20483
2406.72889,0.20551
2408.65736,0.20749
2410.58582,0.20957
2412.51429,0.20955
2414.44276,0.20714
2416.37123,0.20482
2418.29970,0.20479
2420.22817,0.20680
2422.15664,0.20880
2424.08510,0.20960
2426.01357,0.20912
2427.94204,0.20737
2429.87051,0.20658
2431.79898,0.20759
2433.72745,0.20767
2435.65592,0.20700
2437.58439,0.20726
2439.51285,0.20690
2441.44132,0.20572
2443.36979,0.20677
2445.29826,0.20970
2447.22673,0.21026
2449.15520,0.20746
2451.08367,0.20509
2453.01213,0.20630
2454.94060,0.20873
2456.86907,0.20892
2458.79754,0.20841
2460.72601,0.20803
2462.65448,0.20704
2464.58295,0.20726
2466.51142,0.20824
2468.43988,0.20748
2470.36835,0.20600
2472.29682,0.20679
2474.22529,0.20935
2476.15376,0.21026
2478.08223,0.20872
2480.01070,0.20661
2481.93916,0.20654
2483.86763,0.20873
2485.79610,0.20968
2487.72457,0.20863
2489.65304,0.20827
2491.58151,0.20847
2493.50998,0.20791
2495.43844,0.20710
2497.36691,0.20608
2499.29538,0.20534
2501.22385,0.20551
2503.15232,0.20597
2505.08079,0.20663
2507.00926,0.20712
2508.93773,0.20732
2510.86619,0.20811
2512.79466,0.20920
2514.72313,0.20887
2516.65160,0.20687
2518.58007,0.20594
2520.50854,0.20627
2522.43701,0.20530
2524.36547,0.20415
2526.29394,0.20478
2528.22241,0.20592
2530.15088,0.20595
2532.07935,0.20566
2534.00782,0.20671
2535.93629,0.20876
2537.86476,0.21058
2539.79322,0.21093
2541.72169,0.20948
2543.65016,0.20802
2545.57863,0.20747
2547.50710,0.20640
2549.43557,0.20402
2551.36404,0.20313
2553.29250,0.20533
2555.22097,0.20749
2557.14944,0.20842
2559.07791,0.20890
2561.00638,0.20884
2562.93485,0.20897
2564.86332,0.20951
2566.79179,0.21014
2568.72025,0.21061
2570.64872,0.21068
2572.57719,0.21052
2574.50566,0.21037
2576.43413,0.20973
2578.36260,0.20841
2580.29107,0.20949
2582.21953,0.21358
2584.14800,0.21587
2586.07647,0.21470
2588.00494,0.21332
2589.93341,0.21369
2591.86188,0.21405
2593.79035,0.21289
2595.71882,0.21066
2597.64728,0.20819
2599.57575,0.20713
2601.50422,0.20836
2603.43269,0.21035
2605.36116,0.21096
2607.28963,0.20971
2609.21810,0.20825
2611.14656,0.20751
2613.07503,0.20791
2615.00350,0.21039
2616.93197,0.21231
2618.86044,0.21090
2620.78891,0.20850
2622.71738,0.20713
2624.64585,0.20728
2626.57431,0.20899
2628.50278,0.21062
2630.43125,0.21181
2632.35972,0.21292
2634.28819,0.21259
2636.21666,0.21103
2638.14513,0.21111
2640.07359,0.21303
2642.00206,0.21445
2643.93053,0.21516
2645.85900,0.21435
2647.78747,0.21118
2649.71594,0.20882
2651.64441,0.20927
2653.57288,0.21060
2655.50134,0.21153
2657.42981,0.21235
2659.35828,0.21363
2661.28675,0.21486
2663.21522,0.21436
2665.14369,0.21270
2667.07216,0.21224
2669.00062,0.21351
2670.92909,0.21579
2672.85756,0.21739
2674.78603,0.21676
2676.71450,0.21522
2678.64297,0.21519
2680.57144,0.21687
2682.49990,0.21809
2684.42837,0.21786
2686.35684,0.21726
2688.28531,0.21596
2690.21378,0.21354
2692.14225,0.21265
2694.07072,0.21456
2695.99919,0.21673
2697.92765,0.21791
2699.85612,0.21813
2701.78459,0.21692
2703.71306,0.21494
2705.64153,0.21326
2707.57000,0.21405
2709.49847,0.21713
2711.42693,0.21858
2713.35540,0.21776
2715.28387,0.21791
2717.21234,0.22007
2719.14081,0.22153
2721.06928,0.22103
2722.99775,0.22048
2724.92622,0.22029
2726.85468,0.21930
2728.78315,0.21807
2730.71162,0.21754
2732.64009,0.21730
2734.56856,0.21760
2736.49703,0.21902
2738.42550,0.22121
2740.35396,0.22169
2742.28243,0.21924
2744.21090,0.21787
2746.13937,0.21909
2748.06784,0.21918
2749.99631,0.21748
2751.92478,0.21693
2753.85325,0.21952
2755.78171,0.22352
2757.71018,0.22492
2759.63865,0.22426
2761.56712,0.22394
2763.49559,0.22333
2765.42406,0.22320
2767.35253,0.22409
2769.28099,0.22451
2771.20946,0.22467
2773.13793,0.22555
2775.06640,0.22538
2776.99487,0.22305
2778.92334,0.22144
2780.85181,0.22213
2782.78028,0.22327
2784.70874,0.22398
2786.63721,0.22478
2788.56568,0.22569
2790.49415,0.22744
2792.42262,0.22897
2794.35109,0.22694
2796.27956,0.22357
2798.20802,0.22286
2800.13649,0.22309
2802.06496,0.22268
2803.99343,0.22349
2805.92190,0.22506
2807.85037,0.22501
2809.77884,0.22459
2811.70731,0.22559
2813.63577,0.22604
2815.56424,0.22469
2817.49271,0.22452
2819.42118,0.22628
2821.34965,0.22614
2823.27812,0.22391
2825.20659,0.22274
2827.13505,0.22408
2829.06352,0.22734
2830.99199,0.22903
2832.92046,0.22694
2834.84893,0.22471
2836.77740,0.22567
2838.70587,0.22758
2840.63433,0.22841
2842.56280,0.22788
2844.49127,0.22442
2846.41974,0.22152
2848.34821,0.22379
2850.27668,0.22653
2852.20515,0.22609
2854.13362,0.22591
2856.06208,0.22717
2857.99055,0.22879
2859.91902,0.23039
2861.84749,0.23105
2863.77596,0.23032
2865.70443,0.22887
2867.63290,0.22669
2869.56136,0.22474
2871.48983,0.22544
2873.41830,0.22797
2875.34677,0.22958
2877.27524,0.23052
2879.20371,0.23026
2881.13218,0.22667
2883.06065,0.22274
2884.98911,0.22183
2886.91758,0.22192
2888.84605,0.22207
2890.77452,0.22271
2892.70299,0.22193
2894.63146,0.21906
2896.55993,0.21770
2898.48839,0.22020
2900.41686,0.22350
2902.34533,0.22492
2904.27380,0.22382
2906.20227,0.22016
2908.13074,0.21705
2910.05921,0.21684
2911.98768,0.21773
2913.91614,0.21671
2915.84461,0.21430
2917.77308,0.21568
2919.70155,0.22039
2921.63002,0.22263
2923.55849,0.22263
2925.48696,0.22372
2927.41542,0.22609
2929.34389,0.22786
2931.27236,0.22852
2933.20083,0.22809
2935.12930,0.22386
2937.05777,0.21693
2938.98624,0.21416
2940.91471,0.21611
2942.84317,0.21891
2944.77164,0.22007
2946.70011,0.21759
2948.62858,0.21701
2950.55705,0.22196
2952.48552,0.22602
2954.41399,0.22428
2956.34245,0.21643
2958.27092,0.20967
2960.19939,0.21200
2962.12786,0.21888
2964.05633,0.22168
2965.98480,0.21762
2967.91327,0.21208
2969.84174,0.21452
2971.77020,0.22146
2973.69867,0.22408
2975.62714,0.22261
2977.55561,0.21900
2979.48408,0.21881
2981.41255,0.22366
2983.34102,0.22686
2985.26948,0.22738
2987.19795,0.22688
2989.12642,0.22773
2991.05489,0.23159
2992.98336,0.23369
2994.91183,0.23164
2996.84030,0.22883
2998.76877,0.22863
3000.69723,0.23193
3002.62570,0.23631
3004.55417,0.23759
3006.48264,0.23316
3008.41111,0.22697
3010.33958,0.22197
3012.26805,0.20907
3014.19651,0.18089
3016.12498,0.15560
3018.05345,0.16489
3019.98192,0.20148
3021.91039,0.22657
3023.83886,0.23172
3025.76733,0.23085
3027.69579,0.22907
3029.62426,0.22768
3031.55273,0.22959
3033.48120,0.23397
3035.40967,0.23410
3037.33814,0.22975
3039.26661,0.22947
3041.19508,0.23302
3043.12354,0.23272
3045.05201,0.22820
3046.98048,0.22404
3048.90895,0.22559
3050.83742,0.23089
3052.76589,0.23111
3054.69436,0.22524
3056.62282,0.21815
3058.55129,0.21695
3060.47976,0.22373
3062.40823,0.22968
3064.33670,0.22682
3066.26517,0.21931
3068.19364,0.22071
3070.12211,0.23071
3072.05057,0.23539
3073.97904,0.23034
3075.90751,0.22269
3077.83598,0.22266
3079.76445,0.22968
3081.69292,0.23044
3083.62139,0.21913
3085.54985,0.21079
3087.47832,0.21780
3089.40679,0.22701
3091.33526,0.22641
3093.26373,0.21955
3095.19220,0.21541
3097.12067,0.22052
3099.04914,0.22745
3100.97760,0.22626
3102.90607,0.21854
3104.83454,0.21585
3106.76301,0.22314
3108.69148,0.23019
3110.61995,0.22914
3112.54842,0.22397
3114.47688,0.22356
3116.40535,0.22728
3118.33382,0.22664
3120.26229,0.22033
3122.19076,0.21691
3124.11923,0.22384
3126.04770,0.23378
3127.97617,0.23517
3129.90463,0.22791
3131.83310,0.22162
3133.76157,0.22339
3135.69004,0.22850
3137.61851,0.22995
3139.54698,0.22886
3141.47545,0.23070
3143.40391,0.23456
3145.33238,0.23522
3147.26085,0.23446
3149.18932,0.23692
3151.11779,0.23994
3153.04626,0.24013
3154.97473,0.23989
3156.90320,0.23922
3158.83166,0.23688
3160.76013,0.23506
3162.68860,0.23518
3164.61707,0.23566
3166.54554,0.23488
3168.47401,0.23637
3170.40248,0.24113
3172.33094,0.24276
3174.25941,0.24078
3176.18788,0.24025
3178.11635,0.24130
3180.04482,0.24226
3181.97329,0.24266
3183.90176,0.24153
3185.83022,0.23911
3187.75869,0.23656
3189.68716,0.23394
3191.61563,0.23199
3193.54410,0.23276
3195.47257,0.23650
3197.40104,0.24118
3199.32951,0.24354
3201.25797,0.24017
3203.18644,0.23459
3205.11491,0.23355
3207.04338,0.23509
3208.97185,0.23498
3210.90032,0.23423
3212.82879,0.23711
3214.75725,0.24307
3216.68572,0.24358
3218.61419,0.23805
3220.54266,0.23353
3222.47113,0.23218
3224.39960,0.23305
3226.32807,0.23434
3228.25654,0.23471
3230.18500,0.23526
3232.11347,0.23680
3234.04194,0.23762
3235.97041,0.23674
3237.89888,0.23611
3239.82735,0.23779
3241.75582,0.23995
3243.68428,0.24028
3245.61275,0.23853
3247.54122,0.23528
3249.46969,0.23458
3251.39816,0.23700
3253.32663,0.23742
3255.25510,0.23488
3257.18357,0.23236
3259.11203,0.23157
3261.04050,0.23181
3262.96897,0.23348
3264.89744,0.23757
3266.82591,0.24072
3268.75438,0.24020
3270.68285,0.23829
3272.61131,0.23669
3274.53978,0.23521
3276.46825,0.23431
3278.39672,0.23367
3280.32519,0.23260
3282.25366,0.23167
3284.18213,0.23296
3286.11060,0.23536
3288.03906,0.23492
3289.96753,0.23201
3291.89600,0.23006
3293.82447,0.23018
3295.75294,0.23158
3297.68141,0.23295
3299.60988,0.23231
3301.53834,0.23106
3303.46681,0.23109
3305.39528,0.23019
3307.32375,0.22853
3309.25222,0.22846
3311.18069,0.22872
3313.10916,0.22741
3315.03763,0.22539
3316.96609,0.22386
3318.89456,0.22482
3320.82303,0.22881
3322.75150,0.23211
3324.67997,0.23252
3326.60844,0.23146
3328.53691,0.23082
3330.46537,0.23206
3332.39384,0.23566
3334.32231,0.23821
3336.25078,0.23865
3338.17925,0.24042
3340.10772,0.24222
3342.03619,0.24220
3343.96466,0.24163
3345.89312,0.24078
3347.82159,0.23836
3349.75006,0.23413
3351.67853,0.23232
3353.60700,0.23548
3355.53547,0.23927
3357.46394,0.24008
3359.39240,0.24039
3361.32087,0.24247
3363.24934,0.24531
3365.17781,0.24584
3367.10628,0.24205
3369.03475,0.23905
3370.96322,0.24014
3372.89168,0.23964
3374.82015,0.23591
3376.74862,0.23425
3378.67709,0.23624
3380.60556,0.23837
3382.53403,0.23685
3384.46250,0.23357
3386.39097,0.23419
3388.31943,0.23764
3390.24790,0.23832
3392.17637,0.23622
3394.10484,0.23575
3396.03331,0.23790
3397.96178,0.24048
3399.89025,0.24166
3401.81871,0.24137
3403.74718,0.24043
3405.67565,0.23808
3407.60412,0.23563
3409.53259,0.23567
3411.46106,0.23614
3413.38953,0.23390
3415.31800,0.23045
3417.24646,0.23103
3419.17493,0.23690
3421.10340,0.23883
3423.03187,0.23214
3424.96034,0.22668
3426.88881,0.22658
3428.81728,0.22715
3430.74574,0.22675
3432.67421,0.22482
3434.60268,0.22163
3436.53115,0.22157
3438.45962,0.22542
3440.38809,0.22860
3442.31656,0.22979
3444.24503,0.22967
3446.17349,0.22820
3448.10196,0.22614
3450.03043,0.22424
3451.95890,0.22098
3453.88737,0.21586
3455.81584,0.21352
3457.74431,0.21477
3459.67277,0.21619
3461.60124,0.21622
3463.52971,0.21327
3465.45818,0.21034
3467.38665,0.21150
3469.31512,0.21287
3471.24359,0.21065
3473.17206,0.20783
3475.10052,0.20749
3477.02899,0.20990
3478.95746,0.21392
3480.88593,0.21629
3482.81440,0.21410
3484.74287,0.20951
3486.67134,0.20564
3488.59980,0.20155
3490.52827,0.19762
3492.45674,0.19685
3494.38521,0.19904
3496.31368,0.20260
3498.24215,0.20709
3500.17062,0.20962
3502.09909,0.20845
3504.02755,0.20477
3505.95602,0.20002
3507.88449,0.19662
3509.81296,0.19482
3511.74143,0.19458
3513.66990,0.19647
3515.59837,0.19870
3517.52683,0.19908
3519.45530,0.19702
3521.38377,0.19572
3523.31224,0.19708
3525.24071,0.19874
3527.16918,0.19836
3529.09765,0.19412
3531.02611,0.18766
3532.95458,0.18429
3534.88305,0.18663
3536.81152,0.19185
3538.73999,0.19502
3540.66846,0.19558
3542.59693,0.19614
3544.52540,0.19574
3546.45386,0.19286
3548.38233,0.18866
3550.31080,0.18530
3552.23927,0.18609
3554.16774,0.18735
3556.09621,0.18377
3558.02468,0.17900
3559.95314,0.17829
3561.88161,0.18234
3563.81008,0.18870
3565.73855,0.19524
3567.66702,0.19373
3569.59549,0.18375
3571.52396,0.17892
3573.45243,0.18063
3575.38089,0.18092
3577.30936,0.17577
3579.23783,0.16944
3581.16630,0.16599
3583.09477,0.16619
3585.02324,0.17161
3586.95171,0.18068
3588.88017,0.18178
3590.80864,0.17649
3592.73711,0.17412
3594.66558,0.17181
3596.59405,0.16788
3598.52252,0.16642
3600.45099,0.16544
3602.37946,0.16296
3604.30792,0.16194
3606.23639,0.16460
3608.16486,0.17018
3610.09333,0.17455
3612.02180,0.17694
3613.95027,0.17786
3615.87874,0.17793
3617.80720,0.17854
3619.73567,0.17502
3621.66414,0.16785
3623.59261,0.16294
3625.52108,0.16089
3627.44955,0.16278
3629.37802,0.16525
3631.30649,0.16221
3633.23495,0.15882
3635.16342,0.15775
3637.09189,0.15858
3639.02036,0.15874
3640.94883,0.15586
3642.87730,0.15310
3644.80577,0.15651
3646.73423,0.16790
3648.66270,0.18027
3650.59117,0.17690
3652.51964,0.16626
3654.44811,0.16031
3656.37658,0.15758
3658.30505,0.15438
3660.23352,0.14960
3662.16198,0.14555
3664.09045,0.14677
3666.01892,0.15402
3667.94739,0.16397
3669.87586,0.16955
3671.80433,0.16548
3673.73280,0.16302
3675.66126,0.16461
3677.58973,0.15988
3679.51820,0.15074
3681.44667,0.14430
3683.37514,0.14509
3685.30361,0.15142
3687.23208,0.15802
3689.16055,0.16248
3691.08901,0.16165
3693.01748,0.15541
3694.94595,0.15029
3696.87442,0.14937
3698.80289,0.15037
3700.73136,0.15097
3702.65983,0.14850
3704.58829,0.14389
3706.51676,0.14406
3708.44523,0.15154
3710.37370,0.15914
3712.30217,0.15372
3714.23064,0.14573
3716.15911,0.14654
3718.08757,0.15033
3720.01604,0.15103
3721.94451,0.14978
3723.87298,0.15076
3725.80145,0.15145
3727.72992,0.14989
3729.65839,0.15074
3731.58686,0.15557
3733.51532,0.16247
3735.44379,0.16599
3737.37226,0.16211
3739.30073,0.15752
3741.22920,0.15721
3743.15767,0.16051
3745.08614,0.16018
3747.01460,0.15642
3748.94307,0.16118
3750.87154,0.17038
3752.80001,0.16335
3754.72848,0.15050
3756.65695,0.14502
3758.58542,0.14583
3760.51389,0.14426
3762.44235,0.13937
3764.37082,0.13824
3766.29929,0.14192
3768.22776,0.14604
3770.15623,0.14493
3772.08470,0.13911
3774.01317,0.13766
3775.94163,0.14284
3777.87010,0.14974
3779.79857,0.15004
3781.72704,0.14348
3783.65551,0.13886
3785.58398,0.13665
3787.51245,0.13477
3789.44092,0.13494
3791.36938,0.13719
3793.29785,0.14221
3795.22632,0.15059
3797.15479,0.15575
3799.08326,0.15570
3801.01173,0.15707
3802.94020,0.15685
3804.86866,0.15426
3806.79713,0.15066
3808.72560,0.14253
3810.65407,0.13649
3812.58254,0.13732
3814.51101,0.14310
3816.43948,0.14956
3818.36795,0.15463
3820.29641,0.15849
3822.22488,0.15364
3824.15335,0.14606
3826.08182,0.14291
3828.01029,0.14079
3829.93876,0.13967
3831.86723,0.14189
3833.79569,0.14708
3835.72416,0.15442
3837.65263,0.15987
3839.58110,0.15573
3841.50957,0.14674
3843.43804,0.13977
3845.36651,0.13634
3847.29498,0.13617
3849.22344,0.13963
3851.15191,0.14951
3853.08038,0.15990
3855.00885,0.15094
3856.93732,0.13985
3858.86579,0.13550
3860.79426,0.13675
3862.72272,0.14441
3864.65119,0.15080
3866.57966,0.15083
3868.50813,0.15284
3870.43660,0.15535
3872.36507,0.14874
3874.29354,0.13784
3876.22200,0.13332
3878.15047,0.13624
3880.07894,0.13947
3882.00741,0.13756
3883.93588,0.13573
3885.86435,0.13694
3887.79282,0.13843
3889.72129,0.14061
3891.64975,0.13981
3893.57822,0.13483
3895.50669,0.13513
3897.43516,0.14146
3899.36363,0.14819
3901.29210,0.14989
3903.22057,0.14577
3905.14903,0.13837
3907.07750,0.13109
3909.00597,0.12555
3910.93444,0.12207
3912.86291,0.12315
3914.79138,0.12780
3916.71985,0.12848
3918.64832,0.12576
3920.57678,0.12626
3922.50525,0.12662
3924.43372,0.12325
3926.36219,0.11950
3928.29066,0.12068
3930.21913,0.12725
3932.14760,0.13333
3934.07606,0.13332
3936.00453,0.12935
3937.93300,0.12580
3939.86147,0.12418
3941.78994,0.12253
3943.71841,0.11986
3945.64688,0.12007
3947.57535,0.12286
3949.50381,0.12344
3951.43228,0.12258
3953.36075,0.12164
3955.28922,0.12015
3957.21769,0.12066
3959.14616,0.12232
3961.07463,0.12299
3963.00309,0.12341
3964.93156,0.12145
3966.86003,0.11681
3968.78850,0.11399
3970.71697,0.11554
3972.64544,0.11920
3974.57391,0.12072
3976.50238,0.12005
3978.43084,0.11884
3980.35931,0.11571
3982.28778,0.11140
3984.21625,0.11019
3986.14472,0.11350
3988.07319,0.11714
3990.00166,0.11795
3991.93012,0.11846
3993.85859,0.12061
3995.78706,0.12225
3997.71553,0.12005
3999.64400,0.11390
4001.57247,0.10806
4003.50094,0.10634
4005.42941,0.10896
4007.35787,0.11286
4009.28634,0.11394
4011.21481,0.11179
4013.14328,0.10942
4015.07175,0.10876
4017.00022,0.11009
4018.92869,0.11156
4020.85715,0.11093
4022.78562,0.10995
4024.71409,0.11049
4026.64256,0.11105
4028.57103,0.11022
4030.49950,0.10840
4032.42797,0.10722
4034.35644,0.10873
4036.28490,0.11058
4038.21337,0.10977
4040.14184,0.10869
4042.07031,0.10801
4043.99878,0.10871
4045.92725,0.11128
4047.85572,0.11112
4049.78418,0.10858
4051.71265,0.10703
4053.64112,0.10650
4055.56959,0.10701
4057.49806,0.10806
4059.42653,0.10944
4061.35500,0.10974
4063.28346,0.10705
4065.21193,0.10384
4067.14040,0.10071
4069.06887,0.09606
4070.99734,0.09373
4072.92581,0.09528
4074.85428,0.09767
4076.78275,0.09953
4078.71121,0.10080
4080.63968,0.10220
4082.56815,0.10310
4084.49662,0.10245
4086.42509,0.10199
4088.35356,0.10220
4090.28203,0.10032
4092.21049,0.09582
4094.13896,0.09231
4096.06743,0.09412
4097.99590,0.10111
4099.92437,0.10659
4101.85284,0.10515
4103.78131,0.09939
4105.70978,0.09502
4107.63824,0.09428
4109.56671,0.09580
4111.49518,0.09692
4113.42365,0.09577
4115.35212,0.09359
4117.28059,0.09439
4119.20906,0.09906
4121.13752,0.10227
4123.06599,0.09951
4124.99446,0.09420
4126.92293,0.09372
4128.85140,0.09819
4130.77987,0.10053
4132.70834,0.09841
4134.63681,0.09567
4136.56527,0.09492
4138.49374,0.09447
4140.42221,0.09396
4142.35068,0.09607
4144.27915,0.10026
4146.20762,0.10207
4148.13609,0.09994
4150.06455,0.09808
4151.99302,0.09787
4153.92149,0.09803
4155.84996,0.09939
4157.77843,0.09902
4159.70690,0.09470
4161.63537,0.09188
4163.56384,0.09280
4165.49230,0.09201
4167.42077,0.08901
4169.34924,0.08833
4171.27771,0.08880
4173.20618,0.08891
4175.13465,0.08986
4177.06312,0.08958
4178.99158,0.08794
4180.92005,0.08759
4182.84852,0.08767
4184.77699,0.08868
4186.70546,0.08995
4188.63393,0.08617
4190.56240,0.08003
4192.49087,0.07728
4194.41933,0.07679
4196.34780,0.07946
4198.27627,0.08454
4200.20474,0.08725
4202.13321,0.08870
4204.06168,0.08934
4205.99015,0.08619
4207.91861,0.08145
4209.84708,0.07790
4211.77555,0.07664
4213.70402,0.07762
4215.63249,0.07902
4217.56096,0.08054
4219.48943,0.08061
4221.41789,0.07735
4223.34636,0.07283
4225.27483,0.07196
4227.20330,0.07703
4229.13177,0.08213
4231.06024,0.08105
4232.98871,0.07676
4234.91718,0.07346
4236.84564,0.07055
4238.77411,0.06970
4240.70258,0.07215
4242.63105,0.07475
4244.55952,0.07717
4246.48799,0.07875
4248.41646,0.07592
4250.34492,0.07195
4252.27339,0.07212
4254.20186,0.07245
4256.13033,0.06749
4258.05880,0.06081
4259.98727,0.05928
4261.91574,0.06101
4263.84421,0.06129
4265.77267,0.06362
4267.70114,0.06906
4269.62961,0.07192
4271.55808,0.07067
4273.48655,0.06782
4275.41502,0.06728
4277.34349,0.07093
4279.27195,0.07445
4281.20042,0.07569
4283.12889,0.07532
4285.05736,0.07258
4286.98583,0.07019
4288.91430,0.07026
4290.84277,0.06938
4292.77124,0.06669
4294.69970,0.06958
4296.62817,0.07865
4298.55664,0.08150
4300.48511,0.07412
4302.41358,0.06481
4304.34205,0.05943
4306.27052,0.05780
4308.19898,0.05991
4310.12745,0.06528
4312.05592,0.06817
4313.98439,0.06688
4315.91286,0.06551
4317.84133,0.06563
4319.76980,0.06716
4321.69827,0.06767
4323.62673,0.06501
4325.55520,0.06264
4327.48367,0.06365
4329.41214,0.06533
4331.34061,0.06486
4333.26908,0.06372
4335.19755,0.06146
4337.12601,0.05820
4339.05448,0.05863
4340.98295,0.06183
4342.91142,0.06212
4344.83989,0.05787
4346.76836,0.05309
4348.69683,0.05132
4350.62530,0.05138
4352.55376,0.05186
4354.48223,0.05223
4356.41070,0.05488
4358.33917,0.05965
4360.26764,0.05940
4362.19611,0.05392
4364.12458,0.04834
4366.05304,0.04332
4367.98151,0.04065
4369.90998,0.04103
4371.83845,0.04071
4373.76692,0.04047
4375.69539,0.04317
4377.62386,0.04537
4379.55232,0.04240
4381.48079,0.03657
4383.40926,0.03367
4385.33773,0.03330
4387.26620,0.03395
4389.19467,0.03588
4391.12314,0.03585
4393.05161,0.03466
4394.98007,0.03616
4396.90854,0.03729
4398.83701,0.03492
4400.76548,0.03336
4402.69395,0.03579
4404.62242,0.03855
4406.55089,0.03962
4408.47935,0.04019
4410.40782,0.03975
4412.33629,0.03587
4414.26476,0.02781
4416.19323,0.02209
4418.12170,0.02402
4420.05017,0.02862
4421.97864,0.03185
4423.90710,0.03386
4425.83557,0.03266
4427.76404,0.02978
4429.69251,0.02861
4431.62098,0.02711
4433.54945,0.02531
4435.47792,0.02681
4437.40638,0.02832
4439.33485,0.02724
4441.26332,0.02779
4443.19179,0.02728
4445.12026,0.02412
4447.04873,0.02510
4448.97720,0.02734
4450.90567,0.02429
4452.83413,0.02000
4454.76260,0.01890
4456.69107,0.01888
4458.61954,0.01985
4460.54801,0.02049
4462.47648,0.01949
4464.40495,0.02268
4466.33341,0.02712
4468.26188,0.02764
4470.19035,0.02822
4472.11882,0.02677
4474.04729,0.02347
4475.97576,0.02493
4477.90423,0.02787
4479.83270,0.02524
4481.76116,0.01862
4483.68963,0.01503
4485.61810,0.01582
4487.54657,0.01647
4489.47504,0.01770
4491.40351,0.02122
4493.33198,0.02348
4495.26044,0.02250
4497.18891,0.02179
4499.11738,0.02381
4501.04585,0.02432
4502.97432,0.02294
4504.90279,0.02182
4506.83126,0.01838
4508.75973,0.01616
4510.68819,0.01745
4512.61666,0.01470
4514.54513,0.00947
4516.47360,0.00910
4518.40207,0.00783
4520.33054,0.00406
4522.25901,0.00709
4524.18747,0.01465
4526.11594,0.01736
4528.04441,0.01563
4529.97288,0.01416
4531.90135,0.01298
4533.82982,0.01193
4535.75829,0.01250
4537.68676,0.01555
4539.61522,0.02065
4541.54369,0.02246
4543.47216,0.01840
4545.40063,0.01441
4547.32910,0.01387
4549.25757,0.01446
4551.18604,0.01429
4553.11450,0.01110
4555.04297,0.00526
4556.97144,0.00202
4558.89991,0.00322
4560.82838,0.00512
4562.75685,0.00385
4564.68532,0.00047
4566.61378,0.00097
4568.54225,0.00713
4570.47072,0.01061
4572.39919,0.00738
4574.32766,0.00599
4576.25613,0.00939
4578.18460,0.01240
4580.11307,0.01214
4582.04153,0.00933
4583.97000,0.00749
4585.89847,0.00944
4587.82694,0.01330
4589.75541,0.01244
4591.68388,0.00785
4593.61235,0.00562
4595.54081,0.00563
4597.46928,0.00822
4599.39775,0.00921
4601.32622,0.00340
4603.25469,-0.00148
4605.18316,0.00412
4607.11163,0.01302
4609.04010,0.01307
4610.96856,0.01128
4612.89703,0.01676
4614.82550,0.01973
4616.75397,0.01228
4618.68244,0.00110
4620.61091,-0.00434
4622.53938,-0.00133
4624.46784,0.00803
4626.39631,0.01902
4628.32478,0.02494
4630.25325,0.02302
4632.18172,0.01555
4634.11019,0.00906
4636.03866,0.00654
4637.96713,0.00533
4639.89559,0.00624
4641.82406,0.00717
4643.75253,0.00384
4645.68100,0.00123
4647.60947,0.00409
4649.53794,0.00705
4651.46641,0.00503
4653.39487,0.00272
4655.32334,0.00534
4657.25181,0.00853
4659.18028,0.00500
4661.10875,-0.00124
4663.03722,-0.00082
4664.96569,0.00471
4666.89416,0.00521
4668.82262,-0.00219
4670.75109,-0.00554
4672.67956,0.00053
4674.60803,0.00605
4676.53650,0.01072
4678.46497,0.01634
4680.39344,0.01458
4682.32190,0.00939
4684.25037,0.00788
4686.17884,0.00571
4688.10731,0.00334
4690.03578,0.00198
4691.96425,-0.00157
4693.89272,-0.00342
4695.82119,-0.00215
4697.74965,-0.00354
4699.67812,-0.00868
4701.60659,-0.01561
4703.53506,-0.01825
4705.46353,-0.01005
4707.39200,0.00046
4709.32047,0.00350
4711.24893,0.00115
4713.17740,-0.00337
4715.10587,-0.00726
4717.03434,-0.00450
4718.96281,0.00322
4720.89128,0.00751
4722.81975,0.00493
4724.74821,-0.00560
4726.67668,-0.01530
4728.60515,-0.01342
4730.53362,-0.00859
4732.46209,-0.00961
4734.39056,-0.01142
4736.31903,-0.01166
4738.24750,-0.01061
4740.17596,-0.00795
4742.10443,-0.00438
4744.03290,-0.00023
4745.96137,0.00376
4747.88984,0.00614
4749.81831,0.00494
4751.74678,0.00154
4753.67524,-0.00127
4755.60371,-0.00302
4757.53218,-0.00163
4759.46065,0.00367
4761.38912,0.00883
4763.31759,0.00814
4765.24606,0.00168
4767.17453,-0.00355
4769.10299,-0.00397
4771.03146,-0.00251
4772.95993,0.00012
4774.88840,0.00072
4776.81687,-0.00137
4778.74534,0.00422
4780.67381,0.01479
4782.60227,0.01828
4784.53074,0.01750
4786.45921,0.01640
4788.38768,0.01267
4790.31615,0.00829
4792.24462,0.00859
4794.17309,0.01180
4796.10156,0.01152
4798.03002,0.00730
4799.95849,0.00187
4801.88696,-0.00020
4803.81543,0.00352
4805.74390,0.00591
4807.67237,0.00369
4809.60084,0.00546
4811.52930,0.01284
4813.45777,0.01754
4815.38624,0.01636
4817.31471,0.01105
4819.24318,0.00456
4821.17165,0.00197
4823.10012,0.00297
4825.02859,0.00366
4826.95705,0.00714
4828.88552,0.01004
4830.81399,0.00677
4832.74246,0.00634
4834.67093,0.01086
4836.59940,0.01109
4838.52787,0.00588
4840.45633,0.00338
4842.38480,0.00768
4844.31327,0.01060
4846.24174,0.00833
4848.17021,0.00553
4850.09868,0.00147
4852.02715,-0.00069
4853.95562,0.00397
4855.88408,0.01006
4857.81255,0.01322
4859.74102,0.00995
4861.66949,0.00283
4863.59796,0.00539
4865.52643,0.01696
4867.45490,0.02386
4869.38336,0.01938
4871.31183,0.00919
4873.24030,0.00563
4875.16877,0.01247
4877.09724,0.01890
4879.02571,0.01879
4880.95418,0.01829
4882.88265,0.01577
4884.81111,0.00953
4886.73958,0.01023
4888.66805,0.01718
4890.59652,0.01720
4892.52499,0.00965
4894.45346,0.00226
4896.38193,-0.00238
4898.31039,-0.00271
4900.23886,-0.00169
4902.16733,-0.00193
4904.09580,-0.00176
4906.02427,-0.00371
4907.95274,-0.00870
4909.88121,-0.01113
4911.80967,-0.00402
4913.73814,0.00645
4915.66661,0.00756
4917.59508,0.00508
4919.52355,0.00566
4921.45202,0.00274
4923.38049,-0.00086
4925.30896,-0.00074
4927.23742,-0.00282
4929.16589,-0.00514
4931.09436,-0.00007
4933.02283,0.00911
4934.95130,0.01137
4936.87977,0.00511
4938.80824,0.00139
4940.73670,0.00565
4942.66517,0.01297
4944.59364,0.01608
4946.52211,0.00918
4948.45058,-0.00086
4950.37905,-0.00239
4952.30752,0.00257
4954.23599,0.00593
4956.16445,0.00464
4958.09292,-0.00193
4960.02139,-0.00564
4961.94986,0.00478
4963.87833,0.01556
4965.80680,0.01128
4967.73527,0.00595
4969.66373,0.00986
4971.59220,0.01358
4973.52067,0.00864
4975.44914,0.00188
4977.37761,0.00261
4979.30608,0.00657
4981.23455,0.01027
4983.16302,0.01116
4985.09148,0.00725
4987.01995,0.00951
4988.94842,0.01915
4990.87689,0.02392
4992.80536,0.02393
4994.73383,0.01900
4996.66230,0.00849
4998.59076,0.00382
5000.51923,0.00778
5002.44770,0.01460
5004.37617,0.02143
5006.30464,0.02712
5008.23311,0.02744
5010.16158,0.02494
5012.09005,0.02804
5014.01851,0.02928
5015.94698,0.02402
5017.87545,0.02053
5019.80392,0.02064
5021.73239,0.02272
5023.66086,0.02177
5025.58933,0.01218
5027.51779,0.00103
5029.44626,-0.00222
5031.37473,0.00353
5033.30320,0.01738
5035.23167,0.03037
5037.16014,0.03167
5039.08861,0.02542
5041.01708,0.02190
5042.94554,0.02340
5044.87401,0.02477
5046.80248,0.02338
5048.73095,0.01923
5050.65942,0.01045
5052.58789,0.00363
5054.51636,0.00592
5056.44482,0.01080
5058.37329,0.01384
5060.30176,0.01943
5062.23023,0.02608
5064.15870,0.02445
5066.08717,0.01245
5068.01564,-0.00041
5069.94410,-0.00290
5071.87257,0.00582
5073.80104,0.01287
5075.72951,0.01717
5077.65798,0.02564
5079.58645,0.03160
5081.51492,0.02998
5083.44339,0.02069
5085.37185,0.01102
5087.30032,0.01346
5089.22879,0.02575
5091.15726,0.03504
5093.08573,0.03730
5095.01420,0.03729
5096.94267,0.03789
5098.87113,0.03837
5100.79960,0.03790
5102.72807,0.03623
5104.65654,0.03152
5106.58501,0.03185
5108.51348,0.03766
5110.44195,0.03801
5112.37042,0.04235
5114.29888,0.04665
5116.22735,0.03263
5118.15582,0.01353
5120.08429,0.00949
5122.01276,0.01626
5123.94123,0.02215
5125.86970,0.02642
5127.79816,0.03260
5129.72663,0.04125
5131.65510,0.04560
5133.58357,0.04030
5135.51204,0.03560
5137.44051,0.04264
5139.36898,0.05316
5141.29745,0.05274
5143.22591,0.04542
5145.15438,0.03814
5147.08285,0.02732
5149.01132,0.02299
5150.93979,0.03518
5152.86826,0.04813
5154.79673,0.04810
5156.72519,0.03620
5158.65366,0.02227
5160.58213,0.01717
5162.51060,0.02029
5164.43907,0.02405
5166.36754,0.01990
5168.29601,0.01456
5170.22448,0.02047
5172.15294,0.03603
5174.08141,0.05309
5176.00988,0.05333
5177.93835,0.03496
5179.86682,0.02641
5181.79529,0.02778
5183.72376,0.01661
5185.65222,0.00603
5187.58069,0.01404
5189.50916,0.02679
5191.43763,0.03041
5193.36610,0.02976
5195.29457,0.02877
5197.22304,0.02067
5199.15151,0.01807
5201.07997,0.02819
5203.00844,0.03695
5204.93691,0.04464
5206.86538,0.04551
5208.79385,0.03618
5210.72232,0.03737
5212.65079,0.04957
5214.57925,0.05141
5216.50772,0.04021
5218.43619,0.04224
5220.36466,0.06247
5222.29313,0.07401
5224.22160,0.06725
5226.15007,0.04824
5228.07854,0.03325
5230.00700,0.03895
5231.93547,0.05573
5233.86394,0.06005
5235.79241,0.04861
5237.72088,0.03578
5239.64935,0.02710
5241.57782,0.02128
5243.50628,0.02289
5245.43475,0.02828
5247.36322,0.03082
5249.29169,0.03765
5251.22016,0.05130
5253.14863,0.06726
5255.07710,0.07628
5257.00556,0.07151
5258.93403,0.06699
5260.86250,0.06506
5262.79097,0.05745
5264.71944,0.05410
5266.64791,0.05791
5268.57638,0.05900
5270.50485,0.05431
5272.43331,0.05024
5274.36178,0.04746
5276.29025,0.04101
5278.21872,0.03735
5280.14719,0.04167
5282.07566,0.05039
5284.00413,0.05704
5285.93259,0.06165
5287.86106,0.07067
5289.78953,0.08121
5291.71800,0.08489
5293.64647,0.08192
5295.57494,0.07913
5297.50341,0.07300
5299.43188,0.06201
5301.36034,0.06023
5303.28881,0.07018
5305.21728,0.08112
5307.14575,0.08664
5309.07422,0.08259
5311.00269,0.07329
5312.93116,0.06284
5314.85962,0.05305
5316.78809,0.05377
5318.71656,0.06842
5320.64503,0.08672
5322.57350,0.09311
5324.50197,0.08354
5326.43044,0.07161
5328.35891,0.06477
5330.28737,0.06111
5332.21584,0.05417
5334.14431,0.04265
5336.07278,0.04030
5338.00125,0.04233
5339.92972,0.03625
5341.85819,0.03851
5343.78665,0.05033
5345.71512,0.05910
5347.64359,0.07064
5349.57206,0.07755
5351.50053,0.07428
5353.42900,0.07836
5355.35747,0.08374
5357.28594,0.07376
5359.21440,0.06218
5361.14287,0.06099
5363.07134,0.06650
5364.99981,0.07020
5366.92828,0.06891
5368.85675,0.06826
5370.78522,0.06863
5372.71368,0.07155
5374.64215,0.07652
5376.57062,0.07508
5378.49909,0.07703
5380.42756,0.08606
5382.35603,0.08733
5384.28450,0.07374
5386.21297,0.05904
5388.14143,0.05920
5390.06990,0.06208
5391.99837,0.05468
5393.92684,0.04051
5395.85531,0.03547
5397.78378,0.04616
5399.71225,0.05435
5401.64071,0.05197
5403.56918,0.05908
5405.49765,0.07700
5407.42612,0.08051
5409.35459,0.07404
5411.28306,0.07993
5413.21153,0.08533
5415.13999,0.07782
5417.06846,0.06652
5418.99693,0.05179
5420.92540,0.04523
5422.85387,0.05095
5424.78234,0.05675
5426.71081,0.06571
5428.63928,0.07095
5430.56774,0.05818
5432.49621,0.04854
5434.42468,0.05468
5436.35315,0.05701
5438.28162,0.05508
5440.21009,0.06207
5442.13856,0.06671
5444.06702,0.06340
5445.99549,0.06150
5447.92396,0.06189
5449.85243,0.06818
5451.78090,0.07218
5453.70937,0.06354
5455.63784,0.06323
5457.56631,0.08118
5459.49477,0.08033
5461.42324,0.05795
5463.35171,0.05987
5465.28018,0.08138
5467.20865,0.08596
5469.13712,0.07725
5471.06559,0.06538
5472.99405,0.05277
5474.92252,0.05650
5476.85099,0.08006
5478.77946,0.09193
5480.70793,0.08177
5482.63640,0.07604
5484.56487,0.08550
5486.49334,0.09043
5488.42180,0.08390
5490.35027,0.07850
5492.27874,0.07289
5494.20721,0.06029
5496.13568,0.05158
5498.06415,0.04866
5499.99262,0.04533
5501.92108,0.04442
5503.84955,0.05646
5505.77802,0.07606
5507.70649,0.08159
5509.63496,0.08091
5511.56343,0.09023
5513.49190,0.09872
5515.42037,0.10046
5517.34883,0.09559
5519.27730,0.08345
5521.20577,0.07954
5523.13424,0.08984
5525.06271,0.09590
5526.99118,0.08524
5528.91965,0.06124
5530.84811,0.04320
5532.77658,0.05358
5534.70505,0.08372
5536.63352,0.10415
5538.56199,0.10322
5540.49046,0.09143
5542.41893,0.08134
5544.34740,0.08820
5546.27586,0.10676
5548.20433,0.10577
5550.13280,0.08840
5552.06127,0.07926
5553.98974,0.07883
5555.91821,0.08274
5557.84668,0.08155
5559.77514,0.06677
5561.70361,0.05909
5563.63208,0.07337
5565.56055,0.08673
5567.48902,0.08569
5569.41749,0.09315
5571.34596,0.11170
5573.27443,0.11641
5575.20289,0.10440
5577.13136,0.09218
5579.05983,0.09182
5580.98830,0.09477
5582.91677,0.08281
5584.84524,0.06721
5586.77371,0.06270
5588.70217,0.07395
5590.63064,0.09978
5592.55911,0.11312
5594.48758,0.09732
5596.41605,0.07347
5598.34452,0.05916
5600.27299,0.06174
5602.20145,0.08085
5604.12992,0.08600
5606.05839,0.07363
5607.98686,0.07077
5609.91533,0.07206
5611.84380,0.06947
5613.77227,0.07389
5615.70074,0.08536
5617.62920,0.09232
5619.55767,0.08938
5621.48614,0.08499
5623.41461,0.08909
5625.34308,0.09344
5627.27155,0.09190
5629.20002,0.09578
5631.12848,0.09910
5633.05695,0.09984
5634.98542,0.10521
5636.91389,0.10968
5638.84236,0.10913
5640.77083,0.09524
5642.69930,0.06772
5644.62777,0.04940
5646.55623,0.06623
5648.48470,0.10758
5650.41317,0.13534
5652.34164,0.13274
5654.27011,0.11072
5656.19858,0.09043
5658.12705,0.07451
5660.05551,0.05904
5661.98398,0.05740
5663.91245,0.07110
5665.84092,0.08859
5667.76939,0.10532
5669.69786,0.10682
5671.62633,0.08635
5673.55480,0.06586
5675.48326,0.06041
5677.41173,0.07063
5679.34020,0.08397
5681.26867,0.08879
5683.19714,0.09161
5685.12561,0.09281
5687.05408,0.08850
5688.98254,0.07710
5690.91101,0.06091
5692.83948,0.05592
5694.76795,0.06754
5696.69642,0.08163
5698.62489,0.09021
5700.55336,0.08933
5702.48183,0.08057
5704.41029,0.08647
5706.33876,0.11040
5708.26723,0.12295
5710.19570,0.11209
5712.12417,0.09572
5714.05264,0.09218
5715.98111,0.09866
5717.90957,0.09423
5719.83804,0.07934
5721.76651,0.07723
5723.69498,0.09014
5725.62345,0.10847
5727.55192,0.11583
5729.48039,0.09837
5731.40886,0.08873
5733.33732,0.11213
5735.26579,0.13580
5737.19426,0.13024
5739.12273,0.11112
5741.05120,0.09806
5742.97967,0.09243
5744.90814,0.07755
5746.83660,0.06364
5748.76507,0.07706
5750.69354,0.09299
5752.62201,0.08923
5754.55048,0.08899
5756.47895,0.09929
5758.40742,0.10699
5760.33588,0.09805
5762.26435,0.07165
5764.19282,0.05142
5766.12129,0.05592
5768.04976,0.08566
5769.97823,0.11827
5771.90670,0.11417
5773.83517,0.08975
5775.76363,0.08619
5777.69210,0.08521
5779.62057,0.07574
5781.54904,0.06902
5783.47751,0.05049
5785.40598,0.03981
5787.33445,0.07026
5789.26291,0.11503
5791.19138,0.13664
5793.11985,0.12124
5795.04832,0.08164
5796.97679,0.05197
5798.90526,0.05021
5800.83373,0.06274
5802.76220,0.06690
5804.69066,0.06788
5806.61913,0.07134
5808.54760,0.05757
5810.47607,0.03920
5812.40454,0.04677
5814.33301,0.06985
5816.26148,0.08552
5818.18994,0.09787
5820.11841,0.10388
5822.04688,0.09451
5823.97535,0.09413
5825.90382,0.09840
5827.83229,0.07779
5829.76076,0.05475
5831.68923,0.05661
5833.61769,0.06479
5835.54616,0.06475
5837.47463,0.06475
5839.40310,0.06787
5841.33157,0.07264
5843.26004,0.08069
5845.18851,0.09310
5847.11697,0.11708
5849.04544,0.14520
5850.97391,0.14319
5852.90238,0.10539
5854.83085,0.07155
5856.75932,0.07299
5858.68779,0.08915
5860.61626,0.09256
5862.54472,0.08806
5864.47319,0.08021
5866.40166,0.07157
5868.33013,0.07448
5870.25860,0.08780
5872.18707,0.10819
5874.11554,0.13149
5876.04400,0.13124
5877.97247,0.10260
5879.90094,0.08136
5881.82941,0.09591
5883.75788,0.14098
5885.68635,0.17182
5887.61482,0.16148
5889.54329,0.13851
5891.47175,0.10522
5893.40022,0.05618
5895.32869,0.04225
5897.25716,0.07994
5899.18563,0.11105
5901.11410,0.10545
5903.04257,0.10362
5904.97103,0.11422
5906.89950,0.09944
5908.82797,0.08505
5910.75644,0.10984
5912.68491,0.14001
5914.61338,0.13609
5916.54185,0.10562
5918.47032,0.07516
5920.39878,0.07157
5922.32725,0.10323
5924.25572,0.12888
5926.18419,0.12348
5928.11266,0.11529
5930.04113,0.11517
5931.96960,0.11498
5933.89806,0.10634
5935.82653,0.07780
5937.75500,0.04255
5939.68347,0.03813
5941.61194,0.08439
5943.54041,0.14068
5945.46888,0.15150
5947.39734,0.11666
5949.32581,0.06873
5951.25428,0.03696
5953.18275,0.03745
5955.11122,0.07545
5957.03969,0.11434
5958.96816,0.10671
5960.89663,0.08618
5962.82509,0.08925
5964.75356,0.08850
5966.68203,0.08284
5968.61050,0.08340
5970.53897,0.08178
5972.46744,0.07007
5974.39591,0.06081
5976.32437,0.08281
5978.25284,0.10774
5980.18131,0.10545
5982.10978,0.09972
5984.03825,0.09869
5985.96672,0.09904
5987.89519,0.10224
5989.82366,0.09489
5991.75212,0.07752
5993.68059,0.07434
5995.60906,0.08536
5997.53753,0.08925
5999.46600,0.08304
6001.39447,0.06210
6003.32294,0.04554
6005.25140,0.05551
6007.17987,0.07230
6009.10834,0.08563
6011.03681,0.09539
6012.96528,0.09370
6014.89375,0.08503
6016.82222,0.09115
6018.75069,0.11281
6020.67915,0.14127
6022.60762,0.17064
6024.53609,0.14778
6026.46456,0.08341
6028.39303,0.07132
6030.32150,0.12264
6032.24997,0.15592
6034.17843,0.12954
6036.10690,0.08744
6038.03537,0.08123
6039.96384,0.09071
6041.89231,0.07947
6043.82078,0.05799
6045.74925,0.06197
6047.67772,0.07349
6049.60618,0.05984
6051.53465,0.05418
6053.46312,0.07664
6055.39159,0.09630
6057.32006,0.09706
6059.24853,0.09963
6061.17700,0.10861
6063.10546,0.09808
6065.03393,0.09289
6066.96240,0.12186
6068.89087,0.13830
6070.81934,0.11413
6072.74781,0.07195
6074.67628,0.02233
6076.60475,0.00493
6078.53321,0.05094
6080.46168,0.09689
6082.39015,0.10467
6084.31862,0.10069
6086.24709,0.08707
6088.17556,0.07394
6090.10403,0.08246
6092.03249,0.10413
6093.96096,0.11847
6095.88943,0.11982
6097.81790,0.11901
6099.74637,0.11909
6101.67484,0.11446
6103.60331,0.10847
6105.53177,0.11150
6107.46024,0.12567
6109.38871,0.12460
6111.31718,0.10083
6113.24565,0.10387
6115.17412,0.13201
6117.10259,0.13233
6119.03106,0.11065
6120.95952,0.10047
6122.88799,0.08706
6124.81646,0.06293
6126.74493,0.03481
6128.67340,0.01534
6130.60187,0.03606
6132.53034,0.07527
6134.45880,0.10162
6136.38727,0.11797
6138.31574,0.11730
6140.24421,0.10816
6142.17268,0.10111
6144.10115,0.09719
6146.02962,0.09795
6147.95809,0.09396
6149.88655,0.08173
6151.81502,0.06668
6153.74349,0.05630
6155.67196,0.06347
6157.60043,0.09058
6159.52890,0.09814
6161.45737,0.08532
6163.38583,0.10147
6165.31430,0.12386
6167.24277,0.11976
6169.17124,0.09877
6171.09971,0.07826
6173.02818,0.08130
6174.95665,0.10096
6176.88512,0.10388
6178.81358,0.07861
6180.74205,0.05704
6182.67052,0.05409
6184.59899,0.05689
6186.52746,0.06888
6188.45593,0.06867
6190.38440,0.04413
6192.31286,0.04124
6194.24133,0.06868
6196.16980,0.10060
6198.09827,0.12192
6200.02674,0.12250
6201.95521,0.11648
6203.88368,0.11707
6205.81215,0.10993
6207.74061,0.11035
6209.66908,0.14435
6211.59755,0.16382
6213.52602,0.12870
6215.45449,0.08722
6217.38296,0.07314
6219.31143,0.06652
6221.23989,0.06181
6223.16836,0.07692
6225.09683,0.10275
6227.02530,0.10651
6228.95377,0.07979
6230.88224,0.03603
6232.81071,0.02358
6234.73918,0.08632
6236.66764,0.13512
6238.59611,0.10104
6240.52458,0.06622
6242.45305,0.08533
6244.38152,0.12485
6246.30999,0.15205
6248.23846,0.13689
6250.16692,0.10413
6252.09539,0.10727
6254.02386,0.11992
6255.95233,0.12385
6257.88080,0.13369
6259.80927,0.13576
6261.73774,0.13760
6263.66621,0.13253
6265.59467,0.09101
6267.52314,0.04418
6269.45161,0.01941
6271.38008,0.00305
6273.30855,0.01059
6275.23702,0.04089
6277.16549,0.04658
6279.09395,0.03737
6281.02242,0.04272
6282.95089,0.06638
6284.87936,0.08592
6286.80783,0.06323
6288.73630,0.04929
6290.66477,0.10972
6292.59323,0.17217
6294.52170,0.16656
6296.45017,0.12562
6298.37864,0.07641
6300.30711,0.04271
6302.23558,0.05599
6304.16405,0.09732
6306.09252,0.13052
6308.02098,0.12982
6309.94945,0.09464
6311.87792,0.06709
6313.80639,0.06611
6315.73486,0.05503
6317.66333,0.04129
6319.59180,0.05363
6321.52026,0.05768
6323.44873,0.06003
6325.37720,0.09333
6327.30567,0.10407
6329.23414,0.07015
6331.16261,0.06099
6333.09108,0.08258
6335.01955,0.10042
6336.94801,0.10245
6338.87648,0.08236
6340.80495,0.08411
6342.73342,0.10726
6344.66189,0.10592
6346.59036,0.08831
6348.51883,0.08153
6350.44729,0.11512
6352.37576,0.18307
6354.30423,0.20960
6356.23270,0.16547
6358.16117,0.09672
6360.08964,0.05604
6362.01811,0.05432
6363.94658,0.08277
6365.87504,0.10861
6367.80351,0.08926
6369.73198,0.05713
6371.66045,0.05025
6373.58892,0.06298
6375.51739,0.09222
6377.44586,0.11293
6379.37432,0.10599
6381.30279,0.08520
6383.23126,0.05346
6385.15973,0.01664
6387.08820,0.03080
6389.01667,0.09253
6390.94514,0.11259
6392.87361,0.07541
6394.80207,0.04597
6396.73054,0.02019
6398.65901,-0.01072
6400.58748,0.01020
6402.51595,0.07839
6404.44442,0.10953
6406.37289,0.08479
6408.30135,0.06136
6410.22982,0.09716
6412.15829,0.14350
6414.08676,0.10746
6416.01523,0.04153
6417.94370,0.03034
6419.87217,0.02063
6421.80064,-0.00674
6423.72910,0.02031
6425.65757,0.06805
6427.58604,0.08852
6429.51451,0.11702
6431.44298,0.13315
6433.37145,0.09338
6435.29992,0.03729
6437.22838,0.02233
6439.15685,0.05449
6441.08532,0.07237
6443.01379,0.04449
6444.94226,0.02617
6446.87073,0.04950
6448.79920,0.08817
6450.72766,0.12094
6452.65613,0.13765
6454.58460,0.14990
6456.51307,0.15173
6458.44154,0.10968
6460.37001,0.04107
6462.29848,0.02738
6464.22695,0.08346
6466.15541,0.12648
6468.08388,0.11191
6470.01235,0.06333
6471.94082,0.03066
6473.86929,0.04497
6475.79776,0.09774
6477.72623,0.14213
6479.65469,0.13037
6481.58316,0.07064
6483.51163,0.02346
6485.44010,0.02935
6487.36857,0.06883
6489.29704,0.09959
6491.22551,0.09961
6493.15398,0.09276
6495.08244,0.10059
6497.01091,0.10734
6498.93938,0.10898
6500.86785,0.11629
6502.79632,0.11822
6504.72479,0.10927
6506.65326,0.11189
6508.58172,0.12613
6510.51019,0.11610
6512.43866,0.07486
6514.36713,0.05937
6516.29560,0.08273
6518.22407,0.09613
6520.15254,0.09231
6522.08101,0.11016
6524.00947,0.15368
6525.93794,0.15652
6527.86641,0.09562
6529.79488,0.01082
6531.72335,-0.05001
6533.65182,-0.02924
6535.58029,0.03341
6537.50875,0.04719
6539.43722,0.02164
6541.36569,0.01350
6543.29416,0.02670
6545.22263,0.03351
6547.15110,0.01777
6549.07957,-0.02164
6551.00804,-0.05595
6552.93650,-0.05347
6554.86497,-0.01642
6556.79344,0.03922
6558.72191,0.07465
6560.65038,0.07854
6562.57885,0.07331
6564.50732,0.04225
6566.43578,0.00618
6568.36425,0.02433
6570.29272,0.08407
6572.22119,0.13337
6574.14966,0.13541
6576.07813,0.08916
6578.00660,0.04662
6579.93507,0.07730
6581.86353,0.14024
6583.79200,0.13263
6585.72047,0.06260
6587.64894,0.01534
6589.57741,0.02888
6591.50588,0.06961
6593.43435,0.10343
6595.36281,0.12468
6597.29128,0.11266
6599.21975,0.04829
6601.14822,-0.00366
6603.07669,0.02914
6605.00516,0.07515
6606.93363,0.09543
6608.86210,0.14525
6610.79056,0.18688
6612.71903,0.12665
6614.64750,0.02285
6616.57597,-0.02076
6618.50444,0.01784
6620.43291,0.07216
6622.36138,0.05773
6624.28984,0.01167
6626.21831,0.01829
6628.14678,0.05590
6630.07525,0.08329
6632.00372,0.10024
6633.93219,0.10179
6635.86066,0.09398
6637.78912,0.11351
6639.71759,0.14075
6641.64606,0.10212
6643.57453,0.02564
6645.50300,0.01521
6647.43147,0.07682
6649.35994,0.15182
6651.28841,0.17854
6653.21687,0.15048
6655.14534,0.13630
6657.07381,0.13936
6659.00228,0.09546
6660.93075,0.02615
6662.85922,0.00183
6664.78769,0.01857
6666.71615,0.04773
6668.64462,0.08556
6670.57309,0.10533
6672.50156,0.09335
6674.43003,0.09458
6676.35850,0.12395
6678.28697,0.14125
6680.21544,0.12749
6682.14390,0.10107
6684.07237,0.07688
6686.00084,0.06008
6687.92931,0.07743
6689.85778,0.10993
6691.78625,0.11664
6693.71472,0.13970
6695.64318,0.17338
6697.57165,0.17340
6699.50012,0.16311
6701.42859,0.15050
6703.35706,0.09727
6705.28553,0.02108
6707.21400,0.00924
6709.14247,0.05979
6711.07093,0.07349
6712.99940,0.04389
6714.92787,0.02574
6716.85634,0.03508
6718.78481,0.05654
6720.71328,0.09125
6722.64175,0.11916
6724.57021,0.10610
6726.49868,0.09509
6728.42715,0.11843
6730.35562,0.14219
6732.28409,0.15419
6734.21256,0.14666
6736.14103,0.12504
6738.06950,0.11782
6739.99796,0.10050
6741.92643,0.07437
6743.85490,0.04876
6745.78337,-0.01022
6747.71184,-0.06420
6749.64031,-0.02598
6751.56878,0.06832
6753.49724,0.07948
6755.42571,-0.00113
6757.35418,-0.05104
6759.28265,-0.03309
6761.21112,0.02416
6763.13959,0.07847
6765.06806,0.10298
6766.99653,0.10300
6768.92499,0.08211
6770.85346,0.06403
6772.78193,0.07937
6774.71040,0.09207
6776.63887,0.07746
6778.56734,0.08243
6780.49581,0.10341
6782.42427,0.10705
6784.35274,0.10250
6786.28121,0.09783
6788.20968,0.08272
6790.13815,0.04859
6792.06662,0.01704
6793.99509,-0.00150
6795.92355,-0.02494
6797.85202,-0.04104
6799.78049,-0.03704
6801.70896,-0.02348
6803.63743,-0.02182
6805.56590,-0.01560
6807.49437,0.00373
6809.42284,0.01691
6811.35130,0.04136
6813.27977,0.09174
6815.20824,0.14141
6817.13671,0.13671
6819.06518,0.07117
6820.99365,0.02590
6822.92212,0.05100
6824.85058,0.06604
6826.77905,0.01947
6828.70752,-0.02511
6830.63599,-0.03098
6832.56446,-0.04140
6834.49293,-0.04795
6836.42140,0.00690
6838.34987,0.06498
6840.27833,0.07498
6842.20680,0.09495
6844.13527,0.13150
6846.06374,0.15039
6847.99221,0.16230
6849.92068,0.12779
6851.84915,0.03665
6853.77761,0.00421
6855.70608,0.02685
6857.63455,0.00815
6859.56302,-0.00953
6861.49149,0.00626
6863.41996,-0.01740
6865.34843,-0.06322
6867.27690,-0.00344
6869.20536,0.10721
6871.13383,0.11957
6873.06230,0.05705
6874.99077,0.03515
6876.91924,0.07150
6878.84771,0.11439
6880.77618,0.12670
6882.70464,0.13116
6884.63311,0.16340
6886.56158,0.19831
6888.49005,0.18379
6890.41852,0.13297
6892.34699,0.08620
6894.27546,0.03496
6896.20393,-0.01496
6898.13239,-0.00889
6900.06086,0.02130
6901.98933,0.01604
6903.91780,0.00074
6905.84627,-0.00507
6907.77474,-0.00997
6909.70321,0.00677
6911.63167,0.04102
6913.56014,0.03689
6915.48861,0.00173
6917.41708,0.00190
6919.34555,0.06667
6921.27402,0.12415
6923.20249,0.08267
6925.13096,0.00155
6927.05942,-0.02310
6928.98789,0.02423
6930.91636,0.09053
6932.84483,0.11164
6934.77330,0.10673
6936.70177,0.12230
6938.63024,0.13316
6940.55870,0.10756
6942.48717,0.08237
6944.41564,0.04554
6946.34411,-0.00743
6948.27258,-0.03000
6950.20105,-0.04764
6952.12952,-0.06236
6954.05799,-0.02173
6955.98645,0.03527
6957.91492,0.05287
6959.84339,0.03256
6961.77186,-0.05477
6963.70033,-0.11373
6965.62880,-0.02779
6967.55727,0.12571
6969.48573,0.19060
6971.41420,0.17600
6973.34267,0.17108
6975.27114,0.15373
6977.19961,0.11047
6979.12808,0.06588
6981.05655,0.06552
6982.98501,0.16189
6984.91348,0.25851
6986.84195,0.21674
6988.77042,0.10234
6990.69889,0.06865
6992.62736,0.08893
6994.55583,0.07852
6996.48430,0.02668
6998.41276,-0.04228
7000.34123,-0.05909
7002.26970,-0.01093
7004.19817,0.02755
7006.12664,0.01099
7008.05511,-0.02533
7009.98358,-0.01194
7011.91204,0.04379
7013.84051,0.08183
7015.76898,0.09656
7017.69745,0.10259
7019.62592,0.07074
7021.55439,0.02260
7023.48286,-0.04071
7025.41133,-0.12568
7027.33979,-0.15100
7029.26826,-0.07580
7031.19673,0.00135
7033.12520,0.00992
7035.05367,-0.00118
7036.98214,0.03172
7038.91061,0.04221
7040.83907,0.01581
7042.76754,0.05350
7044.69601,0.10640
7046.62448,0.07063
7048.55295,0.02513
7050.48142,0.00206
7052.40989,-0.01201
7054.33836,0.01670
7056.26682,0.04516
7058.19529,0.01380
7060.12376,-0.01019
7062.05223,0.01683
7063.98070,0.06388
7065.90917,0.09437
7067.83764,0.09990
7069.76610,0.05626
7071.69457,-0.04327
7073.62304,-0.10459
7075.55151,-0.07566
7077.47998,-0.01603
7079.40845,-0.00722
7081.33692,-0.02457
7083.26539,0.04079
7085.19385,0.13458
7087.12232,0.17076
7089.05079,0.13756
7090.97926,0.05889
7092.90773,-0.03679
7094.83620,-0.08880
7096.76467,-0.04656
7098.69313,0.05810
7100.62160,0.09895
7102.55007,0.05991
7104.47854,-0.00426
7106.40701,-0.02989
7108.33548,0.02161
7110.26395,0.09463
7112.19242,0.14836
7114.12088,0.13153
7116.04935,0.04343
7117.97782,0.00376
7119.90629,0.05346
7121.83476,0.08243
7123.76323,0.06433
7125.69170,0.02755
7127.62016,-0.01805
7129.54863,-0.02995
7131.47710,0.00674
7133.40557,0.03374
7135.33404,0.05587
7137.26251,0.08276
7139.19098,0.06466
7141.11944,0.02205
7143.04791,-0.01228
7144.97638,-0.03615
7146.90485,0.01283
7148.83332,0.09645
7150.76179,0.11454
7152.69026,0.04931
7154.61873,-0.04837
7156.54719,-0.06400
7158.47566,-0.00738
7160.40413,-0.01333
7162.33260,-0.07180
7164.26107,-0.08278
7166.18954,-0.07545
7168.11801,-0.04732
7170.04647,0.02959
7171.97494,0.07339
7173.90341,0.06810
7175.83188,0.04763
7177.76035,0.02398
7179.68882,0.02971
7181.61729,0.03976
7183.54576,0.04138
7185.47422,0.11482
7187.40269,0.23252
7189.33116,0.25365
7191.25963,0.09884
7193.18810,-0.07739
7195.11657,-0.11326
7197.04504,-0.05235
7198.97350,-0.00353
7200.90197,0.02487
7202.83044,0.04918
7204.75891,0.02088
7206.68738,-0.01478
7208.61585,-0.01772
7210.54432,-0.04291
7212.47279,-0.07583
7214.40125,-0.06330
7216.32972,0.03385
7218.25819,0.14493
7220.18666,0.13103
7222.11513,0.08119
7224.04360,0.05088
7225.97207,0.03856
7227.90053,0.09446
7229.82900,0.17499
7231.75747,0.13593
7233.68594,0.05945
7235.61441,0.07968
7237.54288,0.15429
7239.47135,0.22072
7241.39982,0.22216
7243.32828,0.14708
7245.25675,0.10247
7247.18522,0.09624
7249.11369,0.07589
7251.04216,0.06214
7252.97063,0.09472
7254.89910,0.10665
7256.82756,0.09151
7258.75603,0.10981
7260.68450,0.15266
7262.61297,0.17862
7264.54144,0.12501
7266.46991,0.02179
7268.39838,-0.01319
7270.32685,-0.05105
7272.25531,-0.17223
7274.18378,-0.15870
7276.11225,-0.03341
7278.04072,0.00712
7279.96919,-0.01442
7281.89766,0.01200
7283.82613,0.02102
7285.75459,0.00810
7287.68306,0.01259
7289.61153,0.02300
7291.54000,0.05842
7293.46847,0.07992
7295.39694,0.08553
7297.32541,0.12905
7299.25387,0.13945
7301.18234,0.11178
7303.11081,0.12075
7305.03928,0.15523
7306.96775,0.12231
7308.89622,-0.00199
7310.82469,0.01176
7312.75316,0.14502
7314.68162,0.14722
7316.61009,-0.02386
7318.53856,-0.18850
7320.46703,-0.23571
7322.39550,-0.15068
7324.32397,-0.02390
7326.25244,0.02164
7328.18090,0.02034
7330.10937,0.03068
7332.03784,0.08192
7333.96631,0.16514
7335.89478,0.22611
7337.82325,0.27226
7339.75172,0.19929
7341.68019,-0.10849
7343.60865,-0.25215
7345.53712,-0.11359
7347.46559,0.01037
7349.39406,-0.04893
7351.32253,-0.08237
7353.25100,0.01969
7355.17947,0.13426
7357.10793,0.18116
7359.03640,0.25109
7360.96487,0.31208
7362.89334,0.21531
7364.82181,0.03821
7366.75028,-0.07971
7368.67875,-0.04896
7370.60722,0.01978
7372.53568,0.01122
7374.46415,0.05258
7376.39262,0.16176
7378.32109,0.16913
7380.24956,0.12300
7382.17803,0.11712
7384.10650,0.13825
7386.03496,0.05330
7387.96343,-0.05570
7389.89190,-0.04537
7391.82037,0.01760
7393.74884,0.04058
7395.67731,0.00186
7397.60578,0.01283
7399.53425,0.07450
7401.46271,0.05768
7403.39118,0.02507
7405.31965,0.13539
7407.24812,0.25280
7409.17659,0.20357
7411.10506,0.07665
7413.03353,-0.02103
7414.96199,-0.09606
7416.89046,-0.08650
7418.81893,0.08511
7420.74740,0.14506
7422.67587,0.05797
7424.60434,-0.01458
7426.53281,-0.05071
7428.46128,0.05651
7430.38974,0.29126
7432.31821,0.42658
7434.24668,0.41512
7436.17515,0.29669
7438.10362,0.17900
7440.03209,0.11165
7441.96056,0.02755
7443.88902,-0.10199
7445.81749,-0.17312
7447.74596,-0.11497
7449.67443,-0.01451
7451.60290,0.01275
7453.53137,0.02270
7455.45984,0.04384
7457.38831,0.05546
7459.31677,0.09349
7461.24524,0.07713
7463.17371,-0.05793
7465.10218,-0.14902
7467.03065,-0.13103
7468.95912,-0.05154
7470.88759,0.11948
7472.81605,0.20769
7474.74452,0.09227
7476.67299,-0.01286
7478.60146,0.04068
7480.52993,0.15938
7482.45840,0.16134
7484.38687,0.10773
7486.31533,0.16233
7488.24380,0.27831
7490.17227,0.23360
7492.10074,0.03174
7494.02921,-0.06584
7495.95768,-0.05788
7497.88615,-0.05722
