399.19301,1.33461
401.12148,1.38983
403.04995,0.94261
404.97842,0.40517
406.90689,-0.00792
408.83536,-0.18659
410.76382,-0.22567
412.69229,-0.28883
414.62076,-0.37482
416.54923,-0.51366
418.47770,-0.69689
420.40617,-0.61287
422.33464,-0.39183
424.26311,-0.28757
426.19157,-0.21396
428.12004,-0.10516
430.04851,-0.02027
431.97698,0.07808
433.90545,0.17677
435.83392,0.17997
437.76239,0.11318
439.69085,0.08877
441.61932,0.16422
443.54779,0.28708
445.47626,0.37466
447.40473,0.40132
449.33320,0.37610
451.26167,0.35498
453.19013,0.34469
455.11860,0.33164
457.04707,0.33587
458.97554,0.35717
460.90401,0.35905
462.83248,0.30251
464.76095,0.20847
466.68942,0.13395
468.61788,0.08230
470.54635,0.02004
472.47482,-0.06186
474.40329,-0.10205
476.33176,-0.08543
478.26023,-0.07580
480.18870,-0.07276
482.11716,-0.06278
484.04563,-0.04952
485.97410,-0.03867
487.90257,-0.03350
489.83104,-0.04881
491.75951,-0.06855
493.68798,-0.08563
495.61645,-0.09487
497.54491,-0.06521
499.47338,-0.02376
501.40185,0.00266
503.33032,0.03207
505.25879,0.06170
507.18726,0.08630
509.11573,0.09731
511.04419,0.08990
512.97266,0.09628
514.90113,0.14974
516.82960,0.23148
518.75807,0.26795
520.68654,0.24848
522.61501,0.22972
524.54348,0.23948
526.47194,0.25892
528.40041,0.24803
530.32888,0.21737
532.25735,0.20477
534.18582,0.21181
536.11429,0.21295
538.04276,0.18914
539.97122,0.15759
541.89969,0.14604
543.82816,0.14045
545.75663,0.12370
547.68510,0.11152
549.61357,0.09443
551.54204,0.06931
553.47051,0.06535
555.39897,0.07192
557.32744,0.06346
559.25591,0.04071
561.18438,0.02138
563.11285,0.02300
565.04132,0.02977
566.96979,0.02545
568.89825,0.01842
570.82672,0.01331
572.75519,0.01581
574.68366,0.02620
576.61213,0.03852
578.54060,0.05459
580.46907,0.06726
582.39754,0.06899
584.32600,0.08071
586.25447,0.12000
588.18294,0.16552
590.11141,0.18791
592.03988,0.18659
593.96835,0.17945
595.89682,0.17573
597.82528,0.17458
599.75375,0.17366
601.68222,0.17297
603.61069,0.16719
605.53916,0.15634
607.46763,0.15393
609.39610,0.15720
611.32456,0.15800
613.25303,0.15833
615.18150,0.16054
617.10997,0.16792
619.03844,0.17169
620.96691,0.15746
622.89538,0.13154
624.82385,0.10658
626.75231,0.08758
628.68078,0.08101
630.60925,0.08584
632.53772,0.09280
634.46619,0.09747
636.39466,0.09613
638.32313,0.08487
640.25159,0.07486
642.18006,0.08195
644.10853,0.09211
646.03700,0.08875
647.96547,0.08248
649.89394,0.08183
651.82241,0.08470
653.75088,0.09526
655.67934,0.11590
657.60781,0.13076
659.53628,0.12668
661.46475,0.12467
663.39322,0.14018
665.32169,0.16202
667.25016,0.18171
669.17862,0.17481
671.10709,0.15093
673.03556,0.14448
674.96403,0.15914
676.89250,0.18363
678.82097,0.19219
680.74944,0.17927
682.67791,0.16885
684.60637,0.17618
686.53484,0.18609
688.46331,0.17923
690.39178,0.16399
692.32025,0.15581
694.24872,0.15681
696.17719,0.15450
698.10565,0.14109
700.03412,0.13299
701.96259,0.13547
703.89106,0.13259
705.81953,0.12315
707.74800,0.11529
709.67647,0.10475
711.60494,0.09106
713.53340,0.08443
715.46187,0.08734
717.39034,0.09188
719.31881,0.09326
721.24728,0.09847
723.17575,0.10815
725.10422,0.10934
727.03268,0.10737
728.96115,0.11418
730.88962,0.12078
732.81809,0.12449
734.74656,0.13258
736.67503,0.13534
738.60350,0.12955
740.53197,0.12935
742.46043,0.13515
744.38890,0.13914
746.31737,0.14515
748.24584,0.15480
750.17431,0.15724
752.10278,0.14999
754.03125,0.14803
755.95971,0.15494
757.88818,0.15857
759.81665,0.15961
761.74512,0.16309
763.67359,0.16129
765.60206,0.15123
767.53053,0.14150
769.45900,0.13632
771.38746,0.13310
773.31593,0.13420
775.24440,0.14014
777.17287,0.13999
779.10134,0.13028
781.02981,0.12004
782.95828,0.11387
784.88674,0.11331
786.81521,0.11393
788.74368,0.10592
790.67215,0.09566
792.60062,0.09310
794.52909,0.09529
796.45756,0.10019
798.38602,0.10597
800.31449,0.10618
802.24296,0.10282
804.17143,0.10490
806.09990,0.11379
808.02837,0.12264
809.95684,0.12252
811.88531,0.11656
813.81377,0.11872
815.74224,0.13192
817.67071,0.14695
819.59918,0.15531
821.52765,0.15630
823.45612,0.15851
825.38459,0.16903
827.31305,0.18028
829.24152,0.18006
831.16999,0.17250
833.09846,0.16733
835.02693,0.16345
836.95540,0.15928
838.88387,0.15704
840.81234,0.15564
842.74080,0.15568
844.66927,0.15797
846.59774,0.16018
848.52621,0.15831
850.45468,0.14818
852.38315,0.13440
854.31162,0.13055
856.24008,0.13906
858.16855,0.14752
860.09702,0.15039
862.02549,0.14936
863.95396,0.14257
865.88243,0.12963
867.81090,0.11862
869.73937,0.11610
871.66783,0.11768
873.59630,0.11824
875.52477,0.11731
877.45324,0.11597
879.38171,0.11510
881.31018,0.11869
883.23865,0.12577
885.16711,0.12642
887.09558,0.12292
889.02405,0.12555
890.95252,0.13313
892.88099,0.13957
894.80946,0.14460
896.73793,0.14902
898.66640,0.15250
900.59486,0.15694
902.52333,0.16201
904.45180,0.16415
906.38027,0.16168
908.30874,0.16001
910.23721,0.16393
912.16568,0.16852
914.09414,0.17038
916.02261,0.17286
917.95108,0.17559
919.87955,0.17438
921.80802,0.17166
923.73649,0.17155
925.66496,0.16864
927.59343,0.15887
929.52189,0.15259
931.45036,0.15765
933.37883,0.16294
935.30730,0.15844
937.23577,0.14980
939.16424,0.14150
941.09271,0.13370
943.02117,0.13227
944.94964,0.13742
946.87811,0.13694
948.80658,0.12848
950.73505,0.12341
952.66352,0.12243
954.59199,0.12182
956.52045,0.12427
958.44892,0.12743
960.37739,0.13120
962.30586,0.13912
964.23433,0.14593
966.16280,0.14524
968.09127,0.14088
970.01974,0.14221
971.94820,0.14997
973.87667,0.15685
975.80514,0.16274
977.73361,0.16968
979.66208,0.17122
981.59055,0.16461
983.51902,0.15774
985.44748,0.16028
987.37595,0.17016
989.30442,0.17463
991.23289,0.17394
993.16136,0.17421
995.08983,0.17019
997.01830,0.16170
998.94677,0.15674
1000.87523,0.15808
1002.80370,0.16242
1004.73217,0.16428
1006.66064,0.16188
1008.58911,0.15982
1010.51758,0.15884
1012.44605,0.15418
1014.37451,0.14571
1016.30298,0.13807
1018.23145,0.13726
1020.15992,0.14155
1022.08839,0.14085
1024.01686,0.13447
1025.94533,0.13084
1027.87380,0.13324
1029.80226,0.13962
1031.73073,0.14596
1033.65920,0.14924
1035.58767,0.14801
1037.51614,0.14152
1039.44461,0.13753
1041.37308,0.14308
1043.30154,0.14991
1045.23001,0.15484
1047.15848,0.16151
1049.08695,0.16401
1051.01542,0.16404
1052.94389,0.16862
1054.87236,0.17481
1056.80083,0.17913
1058.72929,0.18275
1060.65776,0.18910
1062.58623,0.19977
1064.51470,0.20820
1066.44317,0.20501
1068.37164,0.19780
1070.30011,0.19954
1072.22857,0.20403
1074.15704,0.20214
1076.08551,0.19595
1078.01398,0.18882
1079.94245,0.18058
1081.87092,0.16945
1083.79939,0.15885
1085.72786,0.15813
1087.65632,0.16299
1089.58479,0.15946
1091.51326,0.15212
1093.44173,0.14785
1095.37020,0.14179
1097.29867,0.13726
1099.22714,0.13955
1101.15560,0.14438
1103.08407,0.14852
1105.01254,0.15255
1106.94101,0.15441
1108.86948,0.14993
1110.79795,0.14214
1112.72642,0.13944
1114.65489,0.14310
1116.58335,0.14809
1118.51182,0.15066
1120.44029,0.15444
1122.36876,0.16236
1124.29723,0.16859
1126.22570,0.17241
1128.15417,0.17755
1130.08263,0.17971
1132.01110,0.17614
1133.93957,0.17291
1135.86804,0.17171
1137.79651,0.17028
1139.72498,0.16963
1141.65345,0.16949
1143.58191,0.17194
1145.51038,0.17795
1147.43885,0.18173
1149.36732,0.18025
1151.29579,0.17877
1153.22426,0.18151
1155.15273,0.18294
1157.08120,0.17690
1159.00966,0.16866
1160.93813,0.16668
1162.86660,0.16838
1164.79507,0.16766
1166.72354,0.16426
1168.65201,0.15909
1170.58048,0.15553
1172.50894,0.15790
1174.43741,0.16187
1176.36588,0.16004
1178.29435,0.15584
1180.22282,0.15505
1182.15129,0.15698
1184.07976,0.16068
1186.00823,0.16385
1187.93669,0.16534
1189.86516,0.16814
1191.79363,0.17090
1193.72210,0.17069
1195.65057,0.16961
1197.57904,0.16851
1199.50751,0.16709
1201.43597,0.16915
1203.36444,0.17593
1205.29291,0.18258
1207.22138,0.18569
1209.14985,0.18469
1211.07832,0.17987
1213.00679,0.17716
1214.93526,0.18003
1216.86372,0.18250
1218.79219,0.18292
1220.72066,0.18377
1222.64913,0.18366
1224.57760,0.18302
1226.50607,0.18362
1228.43454,0.18358
1230.36300,0.18084
1232.29147,0.17717
1234.21994,0.17522
1236.14841,0.17563
1238.07688,0.17433
1240.00535,0.16928
1241.93382,0.16764
1243.86229,0.16978
1245.79075,0.16948
1247.71922,0.16987
1249.64769,0.17189
1251.57616,0.16869
1253.50463,0.16341
1255.43310,0.16296
1257.36157,0.16227
1259.29003,0.15876
1261.21850,0.15865
1263.14697,0.16285
1265.07544,0.16754
1267.00391,0.16913
1268.93238,0.16714
1270.86085,0.16701
1272.78932,0.17093
1274.71778,0.17556
1276.64625,0.18022
1278.57472,0.18342
1280.50319,0.18061
1282.43166,0.17574
1284.36013,0.17738
1286.28860,0.18229
1288.21706,0.18478
1290.14553,0.18678
1292.07400,0.18811
1294.00247,0.18779
1295.93094,0.18568
1297.85941,0.17905
1299.78788,0.16956
1301.71634,0.16113
1303.64481,0.15351
1305.57328,0.15400
1307.50175,0.16805
1309.43022,0.18096
1311.35869,0.18335
1313.28716,0.18081
1315.21563,0.17673
1317.14409,0.17564
1319.07256,0.17797
1321.00103,0.17590
1322.92950,0.17045
1324.85797,0.16739
1326.78644,0.16675
1328.71491,0.16688
1330.64337,0.16382
1332.57184,0.15970
1334.50031,0.16044
1336.42878,0.16375
1338.35725,0.16706
1340.28572,0.16453
1342.21419,0.15638
1344.14266,0.15472
1346.07112,0.16059
1347.99959,0.16850
1349.92806,0.17442
1351.85653,0.17584
1353.78500,0.17517
1355.71347,0.17576
1357.64194,0.17901
1359.57040,0.18508
1361.49887,0.19221
1363.42734,0.19455
1365.35581,0.19183
1367.28428,0.19018
1369.21275,0.19073
1371.14122,0.19381
1373.06969,0.19790
1374.99815,0.19759
1376.92662,0.19265
1378.85509,0.18729
1380.78356,0.18433
1382.71203,0.18619
1384.64050,0.19298
1386.56897,0.19897
1388.49743,0.19700
1390.42590,0.19256
1392.35437,0.19302
1394.28284,0.19697
1396.21131,0.19804
1398.13978,0.19453
1400.06825,0.19078
1401.99672,0.18981
1403.92518,0.19065
1405.85365,0.18955
1407.78212,0.18601
1409.71059,0.18208
1411.63906,0.17793
1413.56753,0.17596
1415.49600,0.17855
1417.42446,0.18562
1419.35293,0.19215
1421.28140,0.19184
1423.20987,0.18977
1425.13834,0.18917
1427.06681,0.19121
1428.99528,0.19592
1430.92375,0.19787
1432.85221,0.19637
1434.78068,0.19778
1436.70915,0.19974
1438.63762,0.19661
1440.56609,0.19514
1442.49456,0.19649
1444.42303,0.19825
1446.35149,0.20136
1448.27996,0.20318
1450.20843,0.20257
1452.13690,0.20554
1454.06537,0.21573
1455.99384,0.23249
1457.92231,0.23474
1459.85077,0.21757
1461.77924,0.20996
1463.70771,0.21128
1465.63618,0.20828
1467.56465,0.19993
1469.49312,0.19985
1471.42159,0.21159
1473.35006,0.21940
1475.27852,0.21044
1477.20699,0.20116
1479.13546,0.19730
1481.06393,0.19454
1482.99240,0.19133
1484.92087,0.19023
1486.84934,0.19316
1488.77780,0.20094
1490.70627,0.20667
1492.63474,0.20595
1494.56321,0.20685
1496.49168,0.21046
1498.42015,0.20866
1500.34862,0.20410
1502.27709,0.20380
1504.20555,0.21104
1506.13402,0.23268
1508.06249,0.24321
1509.99096,0.22763
1511.91943,0.21731
1513.84790,0.21882
1515.77637,0.22848
1517.70483,0.23524
1519.63330,0.23776
1521.56177,0.23948
1523.49024,0.23446
1525.41871,0.22986
1527.34718,0.22507
1529.27565,0.21791
1531.20412,0.21782
1533.13258,0.22453
1535.06105,0.22621
1536.98952,0.22973
1538.91799,0.24588
1540.84646,0.25867
1542.77493,0.24529
1544.70340,0.22758
1546.63186,0.21530
1548.56033,0.21005
1550.48880,0.20794
1552.41727,0.20699
1554.34574,0.21084
1556.27421,0.22054
1558.20268,0.22995
1560.13115,0.21817
1562.05961,0.20448
1563.98808,0.19930
1565.91655,0.19947
1567.84502,0.20393
1569.77349,0.20553
1571.70196,0.20043
1573.63043,0.19847
1575.55889,0.20236
1577.48736,0.20483
1579.41583,0.20276
1581.34430,0.20051
1583.27277,0.19829
1585.20124,0.19633
1587.12971,0.19612
1589.05818,0.19693
1590.98664,0.19860
1592.91511,0.20205
1594.84358,0.20424
1596.77205,0.20223
1598.70052,0.19887
1600.62899,0.19755
1602.55746,0.19819
1604.48592,0.19937
1606.41439,0.20175
1608.34286,0.20447
1610.27133,0.20541
1612.19980,0.20694
1614.12827,0.21155
1616.05674,0.21748
1617.98521,0.21692
1619.91367,0.21370
1621.84214,0.21490
1623.77061,0.21485
1625.69908,0.21058
1627.62755,0.20826
1629.55602,0.20729
1631.48449,0.20742
1633.41295,0.21303
1635.34142,0.22370
1637.26989,0.22224
1639.19836,0.21077
1641.12683,0.20376
1643.05530,0.20544
1644.98377,0.21669
1646.91223,0.23058
1648.84070,0.23021
1650.76917,0.22788
1652.69764,0.23665
1654.62611,0.23378
1656.55458,0.21574
1658.48305,0.20542
1660.41152,0.20769
1662.33998,0.21676
1664.26845,0.21972
1666.19692,0.21973
1668.12539,0.22815
1670.05386,0.23986
1671.98233,0.23804
1673.91080,0.23136
1675.83926,0.22591
1677.76773,0.22257
1679.69620,0.22417
1681.62467,0.23305
1683.55314,0.24704
1685.48161,0.24342
1687.41008,0.22973
1689.33855,0.22232
1691.26701,0.21965
1693.19548,0.22234
1695.12395,0.22953
1697.05242,0.23572
1698.98089,0.23920
1700.90936,0.23224
1702.83783,0.22117
1704.76629,0.21890
1706.69476,0.21654
1708.62323,0.20824
1710.55170,0.20198
1712.48017,0.20181
1714.40864,0.20809
1716.33711,0.21783
1718.26558,0.21641
1720.19404,0.20656
1722.12251,0.20148
1724.05098,0.19900
1725.97945,0.19665
1727.90792,0.19817
1729.83639,0.20354
1731.76486,0.20807
1733.69332,0.20951
1735.62179,0.20932
1737.55026,0.21155
1739.47873,0.21400
1741.40720,0.21361
1743.33567,0.21301
1745.26414,0.21560
1747.19261,0.22164
1749.12107,0.22655
1751.04954,0.22317
1752.97801,0.21440
1754.90648,0.20899
1756.83495,0.20802
1758.76342,0.20914
1760.69189,0.21191
1762.62035,0.21138
1764.54882,0.20743
1766.47729,0.20768
1768.40576,0.21286
1770.33423,0.22038
1772.26270,0.22313
1774.19117,0.21577
1776.11964,0.20905
1778.04810,0.20686
1779.97657,0.20550
1781.90504,0.20185
1783.83351,0.19835
1785.76198,0.19748
1787.69045,0.19880
1789.61892,0.20236
1791.54738,0.20670
1793.47585,0.20825
1795.40432,0.20735
1797.33279,0.20510
1799.26126,0.20189
1801.18973,0.19917
1803.11820,0.19754
1805.04666,0.19692
1806.97513,0.19685
1808.90360,0.19846
1810.83207,0.20219
1812.76054,0.20372
1814.68901,0.20185
1816.61748,0.19865
1818.54595,0.19714
1820.47441,0.20027
1822.40288,0.20717
1824.33135,0.21431
1826.25982,0.21771
1828.18829,0.21837
1830.11676,0.21570
1832.04523,0.20996
1833.97369,0.20721
1835.90216,0.20755
1837.83063,0.20848
1839.75910,0.20970
1841.68757,0.21294
1843.61604,0.21672
1845.54451,0.21373
1847.47298,0.20633
1849.40144,0.20102
1851.32991,0.19970
1853.25838,0.20162
1855.18685,0.20301
1857.11532,0.20233
1859.04379,0.20155
1860.97226,0.20054
1862.90072,0.19928
1864.82919,0.20136
1866.75766,0.20729
1868.68613,0.20944
1870.61460,0.20379
1872.54307,0.19826
1874.47154,0.19634
1876.40001,0.19618
1878.32847,0.19627
1880.25694,0.19717
1882.18541,0.19939
1884.11388,0.20117
1886.04235,0.20181
1887.97082,0.20351
1889.89929,0.20481
1891.82775,0.20393
1893.75622,0.20423
1895.68469,0.20497
1897.61316,0.20400
1899.54163,0.20386
1901.47010,0.20485
1903.39857,0.20501
1905.32704,0.20545
1907.25550,0.20799
1909.18397,0.21047
1911.11244,0.21003
1913.04091,0.20819
1914.96938,0.20760
1916.89785,0.20841
1918.82632,0.20945
1920.75478,0.21120
1922.68325,0.21204
1924.61172,0.20866
1926.54019,0.20425
1928.46866,0.20198
1930.39713,0.20058
1932.32560,0.19907
1934.25407,0.19688
1936.18253,0.19470
1938.11100,0.19594
1940.03947,0.20106
1941.96794,0.20529
1943.89641,0.20468
1945.82488,0.20101
1947.75335,0.19852
1949.68181,0.19917
1951.61028,0.20103
1953.53875,0.20118
1955.46722,0.19931
1957.39569,0.19734
1959.32416,0.19653
1961.25263,0.19586
1963.18110,0.19550
1965.10956,0.19792
1967.03803,0.20116
1968.96650,0.20115
1970.89497,0.19996
1972.82344,0.20032
1974.75191,0.20130
1976.68038,0.20213
1978.60884,0.20362
1980.53731,0.20545
1982.46578,0.20628
1984.39425,0.20687
1986.32272,0.20781
1988.25119,0.20803
1990.17966,0.20794
1992.10812,0.20908
1994.03659,0.21130
1995.96506,0.21239
1997.89353,0.21053
1999.82200,0.20700
2001.75047,0.20457
2003.67894,0.20363
2005.60741,0.20276
2007.53587,0.20223
2009.46434,0.20321
2011.39281,0.20398
2013.32128,0.20370
2015.24975,0.20434
2017.17822,0.20390
2019.10669,0.20075
2021.03515,0.19910
2022.96362,0.19999
2024.89209,0.20020
2026.82056,0.19834
2028.74903,0.19645
2030.67750,0.19757
2032.60597,0.20007
2034.53444,0.20054
2036.46290,0.19981
2038.39137,0.19950
2040.31984,0.19937
2042.24831,0.19927
2044.17678,0.20016
2046.10525,0.20144
2048.03372,0.20159
2049.96218,0.20263
2051.89065,0.20560
2053.81912,0.20721
2055.74759,0.20724
2057.67606,0.20814
2059.60453,0.20896
2061.53300,0.20885
2063.46147,0.20917
2065.38993,0.20961
2067.31840,0.20909
2069.24687,0.20910
2071.17534,0.21032
2073.10381,0.21065
2075.03228,0.21049
2076.96075,0.21072
2078.88921,0.20937
2080.81768,0.20736
2082.74615,0.20756
2084.67462,0.20843
2086.60309,0.20754
2088.53156,0.20543
2090.46003,0.20267
2092.38850,0.20080
2094.31696,0.20181
2096.24543,0.20435
2098.17390,0.20470
2100.10237,0.20155
2102.03084,0.19877
2103.95931,0.19920
2105.88778,0.20023
2107.81624,0.19972
2109.74471,0.19922
2111.67318,0.20001
2113.60165,0.20087
2115.53012,0.20168
2117.45859,0.20378
2119.38706,0.20583
2121.31553,0.20566
2123.24399,0.20401
2125.17246,0.20272
2127.10093,0.20242
2129.02940,0.20361
2130.95787,0.20588
2132.88634,0.20791
2134.81481,0.20919
2136.74327,0.20959
2138.67174,0.20996
2140.60021,0.21058
2142.52868,0.21107
2144.45715,0.21255
2146.38562,0.21345
2148.31409,0.21095
2150.24255,0.20753
2152.17102,0.20659
2154.09949,0.20750
2156.02796,0.20838
2157.95643,0.20801
2159.88490,0.20677
2161.81337,0.20587
2163.74184,0.20570
2165.67030,0.20643
2167.59877,0.20673
2169.52724,0.20487
2171.45571,0.20223
2173.38418,0.20092
2175.31265,0.20052
2177.24112,0.20154
2179.16958,0.20421
2181.09805,0.20565
2183.02652,0.20522
2184.95499,0.20410
2186.88346,0.20211
2188.81193,0.19994
2190.74040,0.19918
2192.66887,0.20051
2194.59733,0.20262
2196.52580,0.20339
2198.45427,0.20337
2200.38274,0.20335
2202.31121,0.20295
2204.23968,0.20354
2206.16815,0.20462
2208.09661,0.20434
2210.02508,0.20348
2211.95355,0.20376
2213.88202,0.20596
2215.81049,0.20809
2217.73896,0.20858
2219.66743,0.20897
2221.59590,0.20988
2223.52436,0.21026
2225.45283,0.20917
2227.38130,0.20806
2229.30977,0.20896
2231.23824,0.21071
2233.16671,0.21169
2235.09518,0.21106
2237.02364,0.20921
2238.95211,0.20819
2240.88058,0.20708
2242.80905,0.20487
2244.73752,0.20343
2246.66599,0.20304
2248.59446,0.20285
2250.52293,0.20305
2252.45139,0.20358
2254.37986,0.20373
2256.30833,0.20298
2258.23680,0.20147
2260.16527,0.19991
2262.09374,0.19923
2264.02221,0.20035
2265.95067,0.20178
2267.87914,0.20198
2269.80761,0.20211
2271.73608,0.20249
2273.66455,0.20267
2275.59302,0.20256
2277.52149,0.20382
2279.44996,0.20709
2281.37842,0.20826
2283.30689,0.20661
2285.23536,0.20553
2287.16383,0.20570
2289.09230,0.20704
2291.02077,0.20998
2292.94924,0.21213
2294.87770,0.21146
2296.80617,0.20994
2298.73464,0.20972
2300.66311,0.21071
2302.59158,0.21126
2304.52005,0.20899
2306.44852,0.20484
2308.37699,0.20343
2310.30545,0.20467
2312.23392,0.20496
2314.16239,0.20386
2316.09086,0.20197
2318.01933,0.20003
2319.94780,0.20013
2321.87627,0.20263
2323.80473,0.20271
2325.73320,0.19658
2327.66167,0.18918
2329.59014,0.19165
2331.51861,0.19932
2333.44708,0.19020
2335.37555,0.17225
2337.30401,0.17087
2339.23248,0.18189
2341.16095,0.18642
2343.08942,0.18770
2345.01789,0.19261
2346.94636,0.19448
2348.87483,0.19522
2350.80330,0.19914
2352.73176,0.20438
2354.66023,0.20566
2356.58870,0.20606
2358.51717,0.21266
2360.44564,0.21880
2362.37411,0.22310
2364.30258,0.23408
2366.23104,0.24020
2368.15951,0.23006
2370.08798,0.21694
2372.01645,0.21010
2373.94492,0.21033
2375.87339,0.21606
2377.80186,0.21877
2379.73033,0.21509
2381.65879,0.21081
2383.58726,0.20920
2385.51573,0.20885
2387.44420,0.20872
2389.37267,0.20851
2391.30114,0.20847
2393.22961,0.20923
2395.15807,0.20936
2397.08654,0.20801
2399.01501,0.20635
2400.94348,0.20393
2402.87195,0.20125
2404.80042,0.20025
2406.72889,0.20063
2408.65736,0.20124
2410.58582,0.20111
2412.51429,0.20073
2414.44276,0.20120
2416.37123,0.20090
2418.29970,0.19968
2420.22817,0.19993
2422.15664,0.20185
2424.08510,0.20380
2426.01357,0.20386
2427.94204,0.20167
2429.87051,0.20022
2431.79898,0.20208
2433.72745,0.20527
2435.65592,0.20709
2437.58439,0.20731
2439.51285,0.20600
2441.44132,0.20525
2443.36979,0.20639
2445.29826,0.20746
2447.22673,0.20862
2449.15520,0.21003
2451.08367,0.21032
2453.01213,0.21080
2454.94060,0.21244
2456.86907,0.21278
2458.79754,0.21043
2460.72601,0.20839
2462.65448,0.20914
2464.58295,0.20984
2466.51142,0.20839
2468.43988,0.20687
2470.36835,0.20632
2472.29682,0.20677
2474.22529,0.20860
2476.15376,0.21079
2478.08223,0.21097
2480.01070,0.20833
2481.93916,0.20553
2483.86763,0.20395
2485.79610,0.20185
2487.72457,0.20057
2489.65304,0.20239
2491.58151,0.20433
2493.50998,0.20400
2495.43844,0.20317
2497.36691,0.20316
2499.29538,0.20412
2501.22385,0.20512
2503.15232,0.20455
2505.08079,0.20288
2507.00926,0.20259
2508.93773,0.20404
2510.86619,0.20602
2512.79466,0.20785
2514.72313,0.20889
2516.65160,0.20998
2518.58007,0.21150
2520.50854,0.21218
2522.43701,0.21238
2524.36547,0.21334
2526.29394,0.21274
2528.22241,0.20955
2530.15088,0.20869
2532.07935,0.21174
2534.00782,0.21367
2535.93629,0.21375
2537.86476,0.21607
2539.79322,0.21850
2541.72169,0.21646
2543.65016,0.21258
2545.57863,0.21094
2547.50710,0.21093
2549.43557,0.21036
2551.36404,0.20889
2553.29250,0.20745
2555.22097,0.20723
2557.14944,0.20756
2559.07791,0.20681
2561.00638,0.20486
2562.93485,0.20220
2564.86332,0.20119
2566.79179,0.20300
2568.72025,0.20409
2570.64872,0.20363
2572.57719,0.20512
2574.50566,0.20840
2576.43413,0.21000
2578.36260,0.20917
2580.29107,0.20782
2582.21953,0.20728
2584.14800,0.20734
2586.07647,0.20851
2588.00494,0.21034
2589.93341,0.21027
2591.86188,0.20878
2593.79035,0.20843
2595.71882,0.21007
2597.64728,0.21250
2599.57575,0.21406
2601.50422,0.21470
2603.43269,0.21371
2605.36116,0.21149
2607.28963,0.21184
2609.21810,0.21454
2611.14656,0.21617
2613.07503,0.21633
2615.00350,0.21527
2616.93197,0.21439
2618.86044,0.21480
2620.78891,0.21502
2622.71738,0.21492
2624.64585,0.21495
2626.57431,0.21450
2628.50278,0.21337
2630.43125,0.21178
2632.35972,0.21050
2634.28819,0.20992
2636.21666,0.21019
2638.14513,0.21161
2640.07359,0.21328
2642.00206,0.21349
2643.93053,0.21119
2645.85900,0.20752
2647.78747,0.20622
2649.71594,0.20843
2651.64441,0.21098
2653.57288,0.21156
2655.50134,0.21065
2657.42981,0.21070
2659.35828,0.21259
2661.28675,0.21388
2663.21522,0.21311
2665.14369,0.21208
2667.07216,0.21231
2669.00062,0.21280
2670.92909,0.21327
2672.85756,0.21410
2674.78603,0.21475
2676.71450,0.21541
2678.64297,0.21695
2680.57144,0.21960
2682.49990,0.22175
2684.42837,0.22190
2686.35684,0.22131
2688.28531,0.22098
2690.21378,0.21963
2692.14225,0.21748
2694.07072,0.21616
2695.99919,0.21671
2697.92765,0.21851
2699.85612,0.21895
2701.78459,0.21803
2703.71306,0.21752
2705.64153,0.21712
2707.57000,0.21603
2709.49847,0.21413
2711.42693,0.21283
2713.35540,0.21358
2715.28387,0.21540
2717.21234,0.21641
2719.14081,0.21524
2721.06928,0.21221
2722.99775,0.21041
2724.92622,0.21115
2726.85468,0.21240
2728.78315,0.21364
2730.71162,0.21472
2732.64009,0.21489
2734.56856,0.21548
2736.49703,0.21723
2738.42550,0.21843
2740.35396,0.21841
2742.28243,0.21797
2744.21090,0.21787
2746.13937,0.21840
2748.06784,0.21988
2749.99631,0.22282
2751.92478,0.22512
2753.85325,0.22476
2755.78171,0.22347
2757.71018,0.22285
2759.63865,0.22316
2761.56712,0.22497
2763.49559,0.22737
2765.42406,0.22811
2767.35253,0.22769
2769.28099,0.22799
2771.20946,0.22898
2773.13793,0.22956
2775.06640,0.22923
2776.99487,0.22839
2778.92334,0.22718
2780.85181,0.22658
2782.78028,0.22757
2784.70874,0.22757
2786.63721,0.22476
2788.56568,0.22215
2790.49415,0.22155
2792.42262,0.22179
2794.35109,0.22192
2796.27956,0.22167
2798.20802,0.22163
2800.13649,0.22100
2802.06496,0.22025
2803.99343,0.22156
2805.92190,0.22266
2807.85037,0.22130
2809.77884,0.21964
2811.70731,0.22009
2813.63577,0.22322
2815.56424,0.22645
2817.49271,0.22666
2819.42118,0.22495
2821.34965,0.22459
2823.27812,0.22628
2825.20659,0.22681
2827.13505,0.22553
2829.06352,0.22657
2830.99199,0.22943
2832.92046,0.23155
2834.84893,0.23367
2836.77740,0.23469
2838.70587,0.23437
2840.63433,0.23498
2842.56280,0.23569
2844.49127,0.23549
2846.41974,0.23465
2848.34821,0.23146
2850.27668,0.22780
2852.20515,0.22751
2854.13362,0.22884
2856.06208,0.22923
2857.99055,0.22935
2859.91902,0.22960
2861.84749,0.22907
2863.77596,0.22770
2865.70443,0.22558
2867.63290,0.22315
2869.56136,0.22126
2871.48983,0.21994
2873.41830,0.21909
2875.34677,0.21870
2877.27524,0.22059
2879.20371,0.22466
2881.13218,0.22540
2883.06065,0.22111
2884.98911,0.21722
2886.91758,0.21715
2888.84605,0.21846
2890.77452,0.21896
2892.70299,0.21865
2894.63146,0.21738
2896.55993,0.21740
2898.48839,0.21977
2900.41686,0.22226
2902.34533,0.22388
2904.27380,0.22343
2906.20227,0.22250
2908.13074,0.22443
2910.05921,0.22663
2911.98768,0.22656
2913.91614,0.22501
2915.84461,0.22223
2917.77308,0.22055
2919.70155,0.22308
2921.63002,0.22769
2923.55849,0.22645
2925.48696,0.21811
2927.41542,0.21535
2929.34389,0.22237
2931.27236,0.22789
2933.20083,0.22722
2935.12930,0.22246
2937.05777,0.21706
2938.98624,0.21793
2940.91471,0.22274
2942.84317,0.22200
2944.77164,0.21274
2946.70011,0.20203
2948.62858,0.20280
2950.55705,0.21313
2952.48552,0.21894
2954.41399,0.21617
2956.34245,0.20757
2958.27092,0.20280
2960.19939,0.20850
2962.12786,0.21536
2964.05633,0.21741
2965.98480,0.21521
2967.91327,0.21116
2969.84174,0.21296
2971.77020,0.21925
2973.69867,0.22346
2975.62714,0.22263
2977.55561,0.21590
2979.48408,0.21331
2981.41255,0.22010
2983.34102,0.22646
2985.26948,0.22707
2987.19795,0.22277
2989.12642,0.22037
2991.05489,0.22627
2992.98336,0.23432
2994.91183,0.23944
2996.84030,0.24161
2998.76877,0.24088
3000.69723,0.24005
3002.62570,0.23946
3004.55417,0.23817
3006.48264,0.23625
3008.41111,0.23136
3010.33958,0.22133
3012.26805,0.20291
3014.19651,0.17184
3016.12498,0.14446
3018.05345,0.15447
3019.98192,0.19463
3021.91039,0.22242
3023.83886,0.22831
3025.76733,0.22607
3027.69579,0.22280
3029.62426,0.22396
3031.55273,0.22758
3033.48120,0.22843
3035.40967,0.22698
3037.33814,0.22587
3039.26661,0.22711
3041.19508,0.22784
3043.12354,0.22622
3045.05201,0.22380
3046.98048,0.22090
3048.90895,0.22163
3050.83742,0.22693
3052.76589,0.22986
3054.69436,0.22579
3056.62282,0.21852
3058.55129,0.21880
3060.47976,0.22695
3062.40823,0.23122
3064.33670,0.22561
3066.26517,0.21635
3068.19364,0.21676
3070.12211,0.22730
3072.05057,0.23433
3073.97904,0.23035
3075.90751,0.22324
3077.83598,0.22588
3079.76445,0.23492
3081.69292,0.23741
3083.62139,0.22736
3085.54985,0.21490
3087.47832,0.21571
3089.40679,0.22544
3091.33526,0.23109
3093.26373,0.22679
3095.19220,0.22042
3097.12067,0.22382
3099.04914,0.22963
3100.97760,0.22659
3102.90607,0.21649
3104.83454,0.21260
3106.76301,0.21966
3108.69148,0.22558
3110.61995,0.22324
3112.54842,0.21677
3114.47688,0.21553
3116.40535,0.22162
3118.33382,0.22492
3120.26229,0.21920
3122.19076,0.21478
3124.11923,0.22225
3126.04770,0.23089
3127.97617,0.22961
3129.90463,0.22379
3131.83310,0.22113
3133.76157,0.22217
3135.69004,0.22498
3137.61851,0.22885
3139.54698,0.23261
3141.47545,0.23650
3143.40391,0.23989
3145.33238,0.24222
3147.26085,0.24327
3149.18932,0.24230
3151.11779,0.24122
3153.04626,0.24070
3154.97473,0.24113
3156.90320,0.24250
3158.83166,0.24226
3160.76013,0.24135
3162.68860,0.24270
3164.61707,0.24368
3166.54554,0.24086
3168.47401,0.23857
3170.40248,0.23904
3172.33094,0.23615
3174.25941,0.23029
3176.18788,0.22798
3178.11635,0.22880
3180.04482,0.23004
3181.97329,0.23056
3183.90176,0.22909
3185.83022,0.22871
3187.75869,0.23013
3189.68716,0.22980
3191.61563,0.23013
3193.54410,0.23276
3195.47257,0.23382
3197.40104,0.23250
3199.32951,0.22973
3201.25797,0.22824
3203.18644,0.23071
3205.11491,0.23261
3207.04338,0.23200
3208.97185,0.23333
3210.90032,0.23744
3212.82879,0.24126
3214.75725,0.24182
3216.68572,0.24079
3218.61419,0.24119
3220.54266,0.24306
3222.47113,0.24652
3224.39960,0.24912
3226.32807,0.24909
3228.25654,0.24863
3230.18500,0.24755
3232.11347,0.24537
3234.04194,0.24365
3235.97041,0.24203
3237.89888,0.24111
3239.82735,0.24368
3241.75582,0.24593
3243.68428,0.24209
3245.61275,0.23758
3247.54122,0.23672
3249.46969,0.23340
3251.39816,0.22874
3253.32663,0.23049
3255.25510,0.23456
3257.18357,0.23328
3259.11203,0.22897
3261.04050,0.22490
3262.96897,0.22266
3264.89744,0.22368
3266.82591,0.22566
3268.75438,0.22696
3270.68285,0.22786
3272.61131,0.22734
3274.53978,0.22480
3276.46825,0.22253
3278.39672,0.22292
3280.32519,0.22624
3282.25366,0.23080
3284.18213,0.23172
3286.11060,0.22963
3288.03906,0.23047
3289.96753,0.23257
3291.89600,0.23191
3293.82447,0.23094
3295.75294,0.23369
3297.68141,0.23889
3299.60988,0.24146
3301.53834,0.24076
3303.46681,0.23955
3305.39528,0.23835
3307.32375,0.23706
3309.25222,0.23555
3311.18069,0.23504
3313.10916,0.23802
3315.03763,0.24203
3316.96609,0.24196
3318.89456,0.23765
3320.82303,0.23486
3322.75150,0.23615
3324.67997,0.23573
3326.60844,0.23272
3328.53691,0.23268
3330.46537,0.23500
3332.39384,0.23639
3334.32231,0.23638
3336.25078,0.23584
3338.17925,0.23636
3340.10772,0.23661
3342.03619,0.23305
3343.96466,0.22516
3345.89312,0.21916
3347.82159,0.22117
3349.75006,0.22794
3351.67853,0.23488
3353.60700,0.24045
3355.53547,0.24133
3357.46394,0.23828
3359.39240,0.23652
3361.32087,0.23671
3363.24934,0.23807
3365.17781,0.24080
3367.10628,0.24143
3369.03475,0.23975
3370.96322,0.24043
3372.89168,0.24294
3374.82015,0.24246
3376.74862,0.23852
3378.67709,0.23600
3380.60556,0.23690
3382.53403,0.23883
3384.46250,0.24116
3386.39097,0.24327
3388.31943,0.24388
3390.24790,0.24324
3392.17637,0.24029
3394.10484,0.23854
3396.03331,0.24239
3397.96178,0.24438
3399.89025,0.24020
3401.81871,0.23643
3403.74718,0.23520
3405.67565,0.23489
3407.60412,0.23529
3409.53259,0.23541
3411.46106,0.23333
3413.38953,0.22880
3415.31800,0.22645
3417.24646,0.22849
3419.17493,0.22764
3421.10340,0.22143
3423.03187,0.21853
3424.96034,0.22068
3426.88881,0.22231
3428.81728,0.22112
3430.74574,0.21833
3432.67421,0.21643
3434.60268,0.21484
3436.53115,0.21400
3438.45962,0.21633
3440.38809,0.22037
3442.31656,0.22457
3444.24503,0.22849
3446.17349,0.23031
3448.10196,0.22665
3450.03043,0.21978
3451.95890,0.21738
3453.88737,0.21861
3455.81584,0.21979
3457.74431,0.22346
3459.67277,0.22923
3461.60124,0.23111
3463.52971,0.22655
3465.45818,0.22008
3467.38665,0.21677
3469.31512,0.21709
3471.24359,0.21986
3473.17206,0.22285
3475.10052,0.22227
3477.02899,0.21868
3478.95746,0.21667
3480.88593,0.21674
3482.81440,0.21468
3484.74287,0.21141
3486.67134,0.21080
3488.59980,0.20991
3490.52827,0.20692
3492.45674,0.20417
3494.38521,0.20264
3496.31368,0.20223
3498.24215,0.20187
3500.17062,0.20219
3502.09909,0.20234
3504.02755,0.20023
3505.95602,0.19837
3507.88449,0.19865
3509.81296,0.20039
3511.74143,0.20158
3513.66990,0.20022
3515.59837,0.19760
3517.52683,0.19760
3519.45530,0.20131
3521.38377,0.20369
3523.31224,0.20360
3525.24071,0.20581
3527.16918,0.20757
3529.09765,0.20476
3531.02611,0.20009
3532.95458,0.19746
3534.88305,0.20046
3536.81152,0.20419
3538.73999,0.20011
3540.66846,0.19405
3542.59693,0.19272
3544.52540,0.19571
3546.45386,0.20142
3548.38233,0.20267
3550.31080,0.19774
3552.23927,0.19248
3554.16774,0.18836
3556.09621,0.18372
3558.02468,0.17989
3559.95314,0.18010
3561.88161,0.18317
3563.81008,0.18734
3565.73855,0.19387
3567.66702,0.19429
3569.59549,0.18410
3571.52396,0.17524
3573.45243,0.17027
3575.38089,0.16790
3577.30936,0.16794
3579.23783,0.16672
3581.16630,0.16472
3583.09477,0.16661
3585.02324,0.17181
3586.95171,0.17617
3588.88017,0.17541
3590.80864,0.17360
3592.73711,0.17523
3594.66558,0.17770
3596.59405,0.17684
3598.52252,0.17372
3600.45099,0.17085
3602.37946,0.16931
3604.30792,0.17185
3606.23639,0.17890
3608.16486,0.18330
3610.09333,0.18186
3612.02180,0.18197
3613.95027,0.18373
3615.87874,0.18425
3617.80720,0.18357
3619.73567,0.17798
3621.66414,0.16986
3623.59261,0.16589
3625.52108,0.16867
3627.44955,0.18056
3629.37802,0.18743
3631.30649,0.17546
3633.23495,0.16327
3635.16342,0.15673
3637.09189,0.15608
3639.02036,0.15760
3640.94883,0.15483
3642.87730,0.15066
3644.80577,0.15400
3646.73423,0.16701
3648.66270,0.17800
3650.59117,0.16865
3652.51964,0.15589
3654.44811,0.15130
3656.37658,0.15073
3658.30505,0.14784
3660.23352,0.14275
3662.16198,0.14004
3664.09045,0.14112
3666.01892,0.14367
3667.94739,0.14612
3669.87586,0.14759
3671.80433,0.14905
3673.73280,0.15664
3675.66126,0.16795
3677.58973,0.16613
3679.51820,0.15787
3681.44667,0.15285
3683.37514,0.15308
3685.30361,0.15781
3687.23208,0.16425
3689.16055,0.16764
3691.08901,0.16094
3693.01748,0.15285
3694.94595,0.15103
3696.87442,0.15180
3698.80289,0.15244
3700.73136,0.15312
3702.65983,0.15209
3704.58829,0.14988
3706.51676,0.14977
3708.44523,0.15268
3710.37370,0.15560
3712.30217,0.15542
3714.23064,0.15581
3716.15911,0.15668
3718.08757,0.15345
3720.01604,0.14663
3721.94451,0.14427
3723.87298,0.14727
3725.80145,0.14694
3727.72992,0.14319
3729.65839,0.14111
3731.58686,0.14126
3733.51532,0.14492
3735.44379,0.15043
3737.37226,0.14990
3739.30073,0.14648
3741.22920,0.14729
3743.15767,0.15309
3745.08614,0.15749
3747.01460,0.16121
3748.94307,0.17083
3750.87154,0.17353
3752.80001,0.16133
3754.72848,0.15372
3756.65695,0.15244
3758.58542,0.15114
3760.51389,0.14619
3762.44235,0.14400
3764.37082,0.14559
3766.29929,0.14422
3768.22776,0.14303
3770.15623,0.14515
3772.08470,0.14452
3774.01317,0.14358
3775.94163,0.14628
3777.87010,0.15069
3779.79857,0.15121
3781.72704,0.14885
3783.65551,0.14884
3785.58398,0.14767
3787.51245,0.14432
3789.44092,0.14142
3791.36938,0.13917
3793.29785,0.13983
3795.22632,0.14372
3797.15479,0.14750
3799.08326,0.15025
3801.01173,0.15249
3802.94020,0.14944
3804.86866,0.14335
3806.79713,0.13720
3808.72560,0.12908
3810.65407,0.12217
3812.58254,0.12065
3814.51101,0.12547
3816.43948,0.13355
3818.36795,0.13917
3820.29641,0.14412
3822.22488,0.14827
3824.15335,0.14537
3826.08182,0.13687
3828.01029,0.13135
3829.93876,0.13663
3831.86723,0.14649
3833.79569,0.14922
3835.72416,0.14519
3837.65263,0.14431
3839.58110,0.14906
3841.50957,0.15071
3843.43804,0.14693
3845.36651,0.14227
3847.29498,0.14245
3849.22344,0.14970
3851.15191,0.16211
3853.08038,0.16927
3855.00885,0.15647
3856.93732,0.14398
3858.86579,0.14028
3860.79426,0.14449
3862.72272,0.14999
3864.65119,0.14635
3866.57966,0.14012
3868.50813,0.13894
3870.43660,0.13888
3872.36507,0.13675
3874.29354,0.13232
3876.22200,0.12804
3878.15047,0.12768
3880.07894,0.13132
3882.00741,0.13695
3883.93588,0.14062
3885.86435,0.13709
3887.79282,0.13072
3889.72129,0.12931
3891.64975,0.12904
3893.57822,0.12478
3895.50669,0.11990
3897.43516,0.11946
3899.36363,0.12566
3901.29210,0.13291
3903.22057,0.13538
3905.14903,0.13277
3907.07750,0.12686
3909.00597,0.12289
3910.93444,0.12392
3912.86291,0.12830
3914.79138,0.13247
3916.71985,0.13261
3918.64832,0.12881
3920.57678,0.12871
3922.50525,0.13291
3924.43372,0.13496
3926.36219,0.13491
3928.29066,0.13687
3930.21913,0.14086
3932.14760,0.14077
3934.07606,0.13409
3936.00453,0.12915
3937.93300,0.12816
3939.86147,0.12735
3941.78994,0.12535
3943.71841,0.12312
3945.64688,0.12411
3947.57535,0.12874
3949.50381,0.13036
3951.43228,0.12490
3953.36075,0.11784
3955.28922,0.11473
3957.21769,0.11605
3959.14616,0.11738
3961.07463,0.11550
3963.00309,0.11229
3964.93156,0.11139
3966.86003,0.11338
3968.78850,0.11331
3970.71697,0.10855
3972.64544,0.10478
3974.57391,0.10747
3976.50238,0.11263
3978.43084,0.11326
3980.35931,0.11043
3982.28778,0.11029
3984.21625,0.11452
3986.14472,0.11770
3988.07319,0.11825
3990.00166,0.11940
3991.93012,0.11969
3993.85859,0.11892
3995.78706,0.11951
3997.71553,0.12011
3999.64400,0.12021
4001.57247,0.12182
4003.50094,0.12272
4005.42941,0.11978
4007.35787,0.11785
4009.28634,0.11975
4011.21481,0.12044
4013.14328,0.11761
4015.07175,0.11441
4017.00022,0.11350
4018.92869,0.11206
4020.85715,0.10876
4022.78562,0.10696
4024.71409,0.10735
4026.64256,0.10772
4028.57103,0.10861
4030.49950,0.11237
4032.42797,0.11431
4034.35644,0.10995
4036.28490,0.10486
4038.21337,0.10259
4040.14184,0.10046
4042.07031,0.10008
4043.99878,0.10231
4045.92725,0.10246
4047.85572,0.10035
4049.78418,0.09898
4051.71265,0.09902
4053.64112,0.10080
4055.56959,0.10385
4057.49806,0.10599
4059.42653,0.10598
4061.35500,0.10556
4063.28346,0.10654
4065.21193,0.10894
4067.14040,0.11039
4069.06887,0.10993
4070.99734,0.10917
4072.92581,0.10768
4074.85428,0.10623
4076.78275,0.10705
4078.71121,0.10919
4080.63968,0.11204
4082.56815,0.11456
4084.49662,0.11291
4086.42509,0.10830
4088.35356,0.10523
4090.28203,0.10436
4092.21049,0.10455
4094.13896,0.10243
4096.06743,0.09708
4097.99590,0.09331
4099.92437,0.09428
4101.85284,0.09800
4103.78131,0.09952
4105.70978,0.09769
4107.63824,0.09698
4109.56671,0.09872
4111.49518,0.10020
4113.42365,0.09948
4115.35212,0.09589
4117.28059,0.09157
4119.20906,0.09004
4121.13752,0.09178
4123.06599,0.09416
4124.99446,0.09486
4126.92293,0.09395
4128.85140,0.09250
4130.77987,0.09182
4132.70834,0.09237
4134.63681,0.09314
4136.56527,0.09434
4138.49374,0.09531
4140.42221,0.09464
4142.35068,0.09399
4144.27915,0.09418
4146.20762,0.09356
4148.13609,0.09277
4150.06455,0.09392
4151.99302,0.09393
4153.92149,0.09041
4155.84996,0.08847
4157.77843,0.08949
4159.70690,0.09256
4161.63537,0.09821
4163.56384,0.10145
4165.49230,0.10109
4167.42077,0.10056
4169.34924,0.09761
4171.27771,0.09094
4173.20618,0.08485
4175.13465,0.08230
4177.06312,0.08289
4178.99158,0.08617
4180.92005,0.09141
4182.84852,0.09365
4184.77699,0.08883
4186.70546,0.08086
4188.63393,0.07661
4190.56240,0.07780
4192.49087,0.08038
4194.41933,0.08128
4196.34780,0.07927
4198.27627,0.07413
4200.20474,0.07073
4202.13321,0.07247
4204.06168,0.07487
4205.99015,0.07403
4207.91861,0.07170
4209.84708,0.07047
4211.77555,0.07026
4213.70402,0.06913
4215.63249,0.06798
4217.56096,0.07087
4219.48943,0.07616
4221.41789,0.07698
4223.34636,0.07310
4225.27483,0.07267
4227.20330,0.07916
4229.13177,0.08525
4231.06024,0.08498
4232.98871,0.08140
4234.91718,0.07881
4236.84564,0.07891
4238.77411,0.08215
4240.70258,0.08409
4242.63105,0.08011
4244.55952,0.07458
4246.48799,0.07390
4248.41646,0.07717
4250.34492,0.07945
4252.27339,0.07812
4254.20186,0.07521
4256.13033,0.07426
4258.05880,0.07514
4259.98727,0.07472
4261.91574,0.07183
4263.84421,0.06838
4265.77267,0.06507
4267.70114,0.06281
4269.62961,0.06313
4271.55808,0.06308
4273.48655,0.06009
4275.41502,0.05672
4277.34349,0.05496
4279.27195,0.05373
4281.20042,0.05237
4283.12889,0.05187
4285.05736,0.05283
4286.98583,0.05399
4288.91430,0.05596
4290.84277,0.06097
4292.77124,0.06624
4294.69970,0.06817
4296.62817,0.06571
4298.55664,0.06183
4300.48511,0.06098
4302.41358,0.06024
4304.34205,0.06002
4306.27052,0.06347
4308.19898,0.06476
4310.12745,0.06277
4312.05592,0.06205
4313.98439,0.06090
4315.91286,0.05906
4317.84133,0.06094
4319.76980,0.06498
4321.69827,0.06506
4323.62673,0.06129
4325.55520,0.05883
4327.48367,0.05960
4329.41214,0.06073
4331.34061,0.05993
4333.26908,0.05696
4335.19755,0.05261
4337.12601,0.04958
4339.05448,0.05060
4340.98295,0.05180
4342.91142,0.04772
4344.83989,0.04296
4346.76836,0.04211
4348.69683,0.04124
4350.62530,0.03824
4352.55376,0.03614
4354.48223,0.03721
4356.41070,0.03935
4358.33917,0.03956
4360.26764,0.03736
4362.19611,0.03580
4364.12458,0.03781
4366.05304,0.04229
4367.98151,0.04761
4369.90998,0.05178
4371.83845,0.05176
4373.76692,0.04600
4375.69539,0.03820
4377.62386,0.03726
4379.55232,0.04377
4381.48079,0.04751
4383.40926,0.04711
4385.33773,0.04714
4387.26620,0.04479
4389.19467,0.04251
4391.12314,0.04378
4393.05161,0.04550
4394.98007,0.04800
4396.90854,0.05051
4398.83701,0.05000
4400.76548,0.04712
4402.69395,0.04370
4404.62242,0.04039
4406.55089,0.03716
4408.47935,0.03412
4410.40782,0.03270
4412.33629,0.03338
4414.26476,0.03482
4416.19323,0.03597
4418.12170,0.03369
4420.05017,0.02974
4421.97864,0.03167
4423.90710,0.03713
4425.83557,0.03691
4427.76404,0.03070
4429.69251,0.02632
4431.62098,0.02595
4433.54945,0.02683
4435.47792,0.02723
4437.40638,0.02243
4439.33485,0.01528
4441.26332,0.01597
4443.19179,0.02053
4445.12026,0.02128
4447.04873,0.02247
4448.97720,0.02577
4450.90567,0.02744
4452.83413,0.02780
4454.76260,0.02937
4456.69107,0.03051
4458.61954,0.02886
4460.54801,0.02489
4462.47648,0.02188
4464.40495,0.02519
4466.33341,0.03154
4468.26188,0.03257
4470.19035,0.03039
4472.11882,0.03254
4474.04729,0.03807
4475.97576,0.03955
4477.90423,0.03511
4479.83270,0.02917
4481.76116,0.02710
4483.68963,0.02968
4485.61810,0.03116
4487.54657,0.02791
4489.47504,0.02227
4491.40351,0.01778
4493.33198,0.01449
4495.26044,0.01171
4497.18891,0.01087
4499.11738,0.00919
4501.04585,0.00280
4502.97432,-0.00376
4504.90279,-0.00476
4506.83126,-0.00301
4508.75973,-0.00237
4510.68819,-0.00174
4512.61666,-0.00195
4514.54513,-0.00359
4516.47360,-0.00558
4518.40207,-0.00914
4520.33054,-0.01114
4522.25901,-0.00898
4524.18747,-0.00329
4526.11594,0.00534
4528.04441,0.01131
4529.97288,0.01604
4531.90135,0.02437
4533.82982,0.02902
4535.75829,0.02620
4537.68676,0.02208
4539.61522,0.02111
4541.54369,0.02293
4543.47216,0.02424
4545.40063,0.02242
4547.32910,0.01880
4549.25757,0.01805
4551.18604,0.01976
4553.11450,0.01825
4555.04297,0.01555
4556.97144,0.01666
4558.89991,0.01944
4560.82838,0.01939
4562.75685,0.01376
4564.68532,0.00537
4566.61378,-0.00056
4568.54225,-0.00243
4570.47072,0.00043
4572.39919,0.00602
4574.32766,0.00965
4576.25613,0.00804
4578.18460,0.00418
4580.11307,0.00594
4582.04153,0.00990
4583.97000,0.00792
4585.89847,0.00414
4587.82694,0.00138
4589.75541,-0.00168
4591.68388,-0.00359
4593.61235,-0.00444
4595.54081,-0.00234
4597.46928,0.00223
4599.39775,0.00346
4601.32622,0.00240
4603.25469,0.00347
4605.18316,0.00418
4607.11163,0.00541
4609.04010,0.01270
4610.96856,0.01955
4612.89703,0.01541
4614.82550,0.00532
4616.75397,0.00284
4618.68244,0.01016
4620.61091,0.01711
4622.53938,0.01591
4624.46784,0.00936
4626.39631,0.00684
4628.32478,0.00993
4630.25325,0.01107
4632.18172,0.01157
4634.11019,0.01673
4636.03866,0.01723
4637.96713,0.00959
4639.89559,0.00373
4641.82406,0.00060
4643.75253,-0.00062
4645.68100,0.00062
4647.60947,0.00109
4649.53794,0.00363
4651.46641,0.00803
4653.39487,0.00546
4655.32334,-0.00391
4657.25181,-0.00951
4659.18028,-0.00933
4661.10875,-0.01029
4663.03722,-0.01175
4664.96569,-0.00900
4666.89416,-0.00531
4668.82262,-0.00230
4670.75109,0.00364
4672.67956,0.00798
4674.60803,0.00662
4676.53650,0.00568
4678.46497,0.00726
4680.39344,0.00867
4682.32190,0.01003
4684.25037,0.01109
4686.17884,0.01053
4688.10731,0.00880
4690.03578,0.00801
4691.96425,0.00658
4693.89272,0.00397
4695.82119,0.00405
4697.74965,0.00604
4699.67812,0.00793
4701.60659,0.01265
4703.53506,0.01490
4705.46353,0.00610
4707.39200,-0.00528
4709.32047,-0.00744
4711.24893,-0.00569
4713.17740,-0.00953
4715.10587,-0.01447
4717.03434,-0.01125
4718.96281,-0.00226
4720.89128,0.00463
4722.81975,0.00658
4724.74821,0.00225
4726.67668,-0.00475
4728.60515,-0.00892
4730.53362,-0.00997
4732.46209,-0.00945
4734.39056,-0.00439
4736.31903,0.00923
4738.24750,0.01926
4740.17596,0.01619
4742.10443,0.01511
4744.03290,0.02075
4745.96137,0.01779
4747.88984,0.00525
4749.81831,-0.00070
4751.74678,0.00221
4753.67524,0.00346
4755.60371,0.00438
4757.53218,0.00888
4759.46065,0.01030
4761.38912,0.00564
4763.31759,0.00260
4765.24606,0.00391
4767.17453,0.00643
4769.10299,0.00658
4771.03146,0.00496
4772.95993,0.00556
4774.88840,0.00744
4776.81687,0.00850
4778.74534,0.01014
4780.67381,0.01714
4782.60227,0.02264
4784.53074,0.01703
4786.45921,0.01041
4788.38768,0.00696
4790.31615,-0.00214
4792.24462,-0.01233
4794.17309,-0.01389
4796.10156,-0.00927
4798.03002,-0.00504
4799.95849,-0.00325
4801.88696,-0.00230
4803.81543,-0.00233
4805.74390,-0.00443
4807.67237,-0.00596
4809.60084,-0.00439
4811.52930,0.00294
4813.45777,0.01251
4815.38624,0.01345
4817.31471,0.00652
4819.24318,0.00321
4821.17165,0.00641
4823.10012,0.00987
4825.02859,0.00881
4826.95705,0.00428
4828.88552,0.00177
4830.81399,0.00068
4832.74246,-0.00473
4834.67093,-0.00772
4836.59940,-0.00339
4838.52787,0.00031
4840.45633,0.00364
4842.38480,0.00470
4844.31327,-0.00301
4846.24174,-0.00807
4848.17021,-0.00060
4850.09868,0.00819
4852.02715,0.00928
4853.95562,0.00639
4855.88408,0.00155
4857.81255,-0.00451
4859.74102,-0.00474
4861.66949,0.00397
4863.59796,0.01492
4865.52643,0.02011
4867.45490,0.01989
4869.38336,0.02141
4871.31183,0.02396
4873.24030,0.02214
4875.16877,0.01804
4877.09724,0.01672
4879.02571,0.01701
4880.95418,0.01414
4882.88265,0.00765
4884.81111,-0.00242
4886.73958,-0.01581
4888.66805,-0.02185
4890.59652,-0.01423
4892.52499,-0.00784
4894.45346,-0.01200
4896.38193,-0.01515
4898.31039,-0.00831
4900.23886,0.00319
4902.16733,0.00927
4904.09580,0.00588
4906.02427,-0.00133
4907.95274,-0.00287
4909.88121,0.00233
4911.80967,0.00605
4913.73814,0.00762
4915.66661,0.00910
4917.59508,0.00683
4919.52355,0.00521
4921.45202,0.00968
4923.38049,0.01302
4925.30896,0.01012
4927.23742,0.00488
4929.16589,0.00047
4931.09436,0.00360
4933.02283,0.01795
4934.95130,0.03175
4936.87977,0.03547
4938.80824,0.03355
4940.73670,0.03137
4942.66517,0.02539
4944.59364,0.01194
4946.52211,-0.00285
4948.45058,-0.00557
4950.37905,0.00620
4952.30752,0.01547
4954.23599,0.01532
4956.16445,0.01729
4958.09292,0.02067
4960.02139,0.01470
4961.94986,0.00363
4963.87833,0.00064
4965.80680,0.00731
4967.73527,0.01015
4969.66373,0.00283
4971.59220,-0.00391
4973.52067,-0.00234
4975.44914,0.00372
4977.37761,0.00231
4979.30608,-0.00934
4981.23455,-0.01804
4983.16302,-0.01206
4985.09148,0.00275
4987.01995,0.00868
4988.94842,0.00602
4990.87689,0.00527
4992.80536,0.01014
4994.73383,0.01818
4996.66230,0.01869
4998.59076,0.01568
5000.51923,0.01548
5002.44770,0.00975
5004.37617,0.00655
5006.30464,0.01965
5008.23311,0.03247
5010.16158,0.02746
5012.09005,0.02006
5014.01851,0.02531
5015.94698,0.03229
5017.87545,0.02739
5019.80392,0.01198
5021.73239,0.00417
5023.66086,0.01223
5025.58933,0.01821
5027.51779,0.01576
5029.44626,0.01267
5031.37473,0.00613
5033.30320,-0.00207
5035.23167,-0.00228
5037.16014,0.00701
5039.08861,0.01756
5041.01708,0.02012
5042.94554,0.00983
5044.87401,-0.00304
5046.80248,-0.00186
5048.73095,0.00444
5050.65942,-0.00031
5052.58789,-0.00947
5054.51636,-0.00827
5056.44482,0.00185
5058.37329,0.00632
5060.30176,0.00363
5062.23023,0.00475
5064.15870,0.01307
5066.08717,0.01979
5068.01564,0.01949
5069.94410,0.02322
5071.87257,0.03067
5073.80104,0.02507
5075.72951,0.01120
5077.65798,0.00925
5079.58645,0.02510
5081.51492,0.04407
5083.44339,0.04339
5085.37185,0.02688
5087.30032,0.02352
5089.22879,0.03631
5091.15726,0.04089
5093.08573,0.03815
5095.01420,0.04414
5096.94267,0.04912
5098.87113,0.04194
5100.79960,0.03440
5102.72807,0.03338
5104.65654,0.02972
5106.58501,0.02189
5108.51348,0.02132
5110.44195,0.03145
5112.37042,0.04489
5114.29888,0.05415
5116.22735,0.05080
5118.15582,0.03688
5120.08429,0.03147
5122.01276,0.04034
5123.94123,0.05158
5125.86970,0.05625
5127.79816,0.04852
5129.72663,0.03688
5131.65510,0.03537
5133.58357,0.03781
5135.51204,0.03154
5137.44051,0.02114
5139.36898,0.01828
5141.29745,0.01803
5143.22591,0.01538
5145.15438,0.02012
5147.08285,0.02774
5149.01132,0.02493
5150.93979,0.01896
5152.86826,0.02115
5154.79673,0.02504
5156.72519,0.02092
5158.65366,0.01996
5160.58213,0.03406
5162.51060,0.05126
5164.43907,0.05873
5166.36754,0.05455
5168.29601,0.04201
5170.22448,0.03304
5172.15294,0.03579
5174.08141,0.04099
5176.00988,0.04225
5177.93835,0.04740
5179.86682,0.05483
5181.79529,0.05459
5183.72376,0.04846
5185.65222,0.04391
5187.58069,0.04308
5189.50916,0.03844
5191.43763,0.02554
5193.36610,0.01343
5195.29457,0.01210
5197.22304,0.01882
5199.15151,0.02353
5201.07997,0.02381
5203.00844,0.02469
5204.93691,0.02538
5206.86538,0.02226
5208.79385,0.02451
5210.72232,0.03623
5212.65079,0.04524
5214.57925,0.04386
5216.50772,0.03727
5218.43619,0.03679
5220.36466,0.04439
5222.29313,0.04488
5224.22160,0.03450
5226.15007,0.02848
5228.07854,0.02813
5230.00700,0.03000
5231.93547,0.03972
5233.86394,0.05121
5235.79241,0.05673
5237.72088,0.05701
5239.64935,0.05578
5241.57782,0.05894
5243.50628,0.06926
5245.43475,0.07944
5247.36322,0.08069
5249.29169,0.07354
5251.22016,0.06516
5253.14863,0.06292
5255.07710,0.06536
5257.00556,0.06243
5258.93403,0.05095
5260.86250,0.03881
5262.79097,0.03985
5264.71944,0.05764
5266.64791,0.06815
5268.57638,0.06325
5270.50485,0.05912
5272.43331,0.05672
5274.36178,0.05118
5276.29025,0.04544
5278.21872,0.04101
5280.14719,0.03866
5282.07566,0.03819
5284.00413,0.03899
5285.93259,0.04163
5287.86106,0.03590
5289.78953,0.02381
5291.71800,0.02677
5293.64647,0.03339
5295.57494,0.03568
5297.50341,0.04683
5299.43188,0.05661
5301.36034,0.05668
5303.28881,0.05447
5305.21728,0.05091
5307.14575,0.04766
5309.07422,0.04997
5311.00269,0.05509
5312.93116,0.06299
5314.85962,0.07606
5316.78809,0.08175
5318.71656,0.07252
5320.64503,0.06878
5322.57350,0.07821
5324.50197,0.08243
5326.43044,0.07655
5328.35891,0.05903
5330.28737,0.04095
5332.21584,0.04991
5334.14431,0.07424
5336.07278,0.08461
5338.00125,0.08037
5339.92972,0.07364
5341.85819,0.07376
5343.78665,0.07983
5345.71512,0.08373
5347.64359,0.07594
5349.57206,0.05451
5351.50053,0.04379
5353.42900,0.06430
5355.35747,0.08120
5357.28594,0.07431
5359.21440,0.06389
5361.14287,0.05906
5363.07134,0.05620
5364.99981,0.04691
5366.92828,0.03131
5368.85675,0.01910
5370.78522,0.01948
5372.71368,0.03105
5374.64215,0.04695
5376.57062,0.06302
5378.49909,0.06536
5380.42756,0.05417
5382.35603,0.05164
5384.28450,0.06135
5386.21297,0.06657
5388.14143,0.06846
5390.06990,0.07116
5391.99837,0.07843
5393.92684,0.09070
5395.85531,0.09081
5397.78378,0.08511
5399.71225,0.08199
5401.64071,0.07104
5403.56918,0.05580
5405.49765,0.05152
5407.42612,0.06779
5409.35459,0.09497
5411.28306,0.10369
5413.21153,0.08223
5415.13999,0.06748
5417.06846,0.07782
5418.99693,0.08939
5420.92540,0.09268
5422.85387,0.09487
5424.78234,0.08889
5426.71081,0.07101
5428.63928,0.06002
5430.56774,0.05497
5432.49621,0.03950
5434.42468,0.02799
5436.35315,0.03855
5438.28162,0.05846
5440.21009,0.06225
5442.13856,0.04771
5444.06702,0.04000
5445.99549,0.04743
5447.92396,0.06629
5449.85243,0.08793
5451.78090,0.09099
5453.70937,0.08100
5455.63784,0.08191
5457.56631,0.08605
5459.49477,0.07370
5461.42324,0.06264
5463.35171,0.07422
5465.28018,0.09396
5467.20865,0.09741
5469.13712,0.08468
5471.06559,0.07724
5472.99405,0.08418
5474.92252,0.09597
5476.85099,0.10806
5478.77946,0.11738
5480.70793,0.11209
5482.63640,0.09358
5484.56487,0.08475
5486.49334,0.10064
5488.42180,0.11875
5490.35027,0.11130
5492.27874,0.09592
5494.20721,0.09214
5496.13568,0.08453
5498.06415,0.06596
5499.99262,0.05256
5501.92108,0.06124
5503.84955,0.08210
5505.77802,0.09202
5507.70649,0.08264
5509.63496,0.06699
5511.56343,0.06168
5513.49190,0.07432
5515.42037,0.08883
5517.34883,0.07517
5519.27730,0.04393
5521.20577,0.03657
5523.13424,0.05650
5525.06271,0.06236
5526.99118,0.04443
5528.91965,0.03442
5530.84811,0.03501
5532.77658,0.03891
5534.70505,0.05252
5536.63352,0.06922
5538.56199,0.08767
5540.49046,0.10309
5542.41893,0.09247
5544.34740,0.07203
5546.27586,0.08081
5548.20433,0.10087
5550.13280,0.09695
5552.06127,0.07628
5553.98974,0.06172
5555.91821,0.06134
5557.84668,0.06857
5559.77514,0.06893
5561.70361,0.05870
5563.63208,0.06045
5565.56055,0.07913
5567.48902,0.08511
5569.41749,0.07933
5571.34596,0.08709
5573.27443,0.09439
5575.20289,0.08259
5577.13136,0.07041
5579.05983,0.06710
5580.98830,0.06462
5582.91677,0.05745
5584.84524,0.05206
5586.77371,0.05090
5588.70217,0.04161
5590.63064,0.03519
5592.55911,0.04796
5594.48758,0.06684
5596.41605,0.07282
5598.34452,0.06001
5600.27299,0.04445
5602.20145,0.04769
5604.12992,0.06701
5606.05839,0.07552
5607.98686,0.06466
5609.91533,0.05952
5611.84380,0.06768
5613.77227,0.07547
5615.70074,0.07690
5617.62920,0.07381
5619.55767,0.07660
5621.48614,0.08691
5623.41461,0.09565
5625.34308,0.09525
5627.27155,0.07866
5629.20002,0.05784
5631.12848,0.06106
5633.05695,0.08420
5634.98542,0.09478
5636.91389,0.09351
5638.84236,0.09880
5640.77083,0.10334
5642.69930,0.10791
5644.62777,0.11770
5646.55623,0.11972
5648.48470,0.12045
5650.41317,0.13680
5652.34164,0.14362
5654.27011,0.11774
5656.19858,0.08632
5658.12705,0.07743
5660.05551,0.08151
5661.98398,0.08201
5663.91245,0.07335
5665.84092,0.06022
5667.76939,0.06091
5669.69786,0.07432
5671.62633,0.08535
5673.55480,0.08745
5675.48326,0.07787
5677.41173,0.07216
5679.34020,0.07947
5681.26867,0.08794
5683.19714,0.09373
5685.12561,0.09702
5687.05408,0.09243
5688.98254,0.07800
5690.91101,0.06316
5692.83948,0.06440
5694.76795,0.09405
5696.69642,0.12802
5698.62489,0.12702
5700.55336,0.10219
5702.48183,0.08575
5704.41029,0.07984
5706.33876,0.07410
5708.26723,0.07960
5710.19570,0.10249
5712.12417,0.11992
5714.05264,0.12259
5715.98111,0.12183
5717.90957,0.11494
5719.83804,0.09880
5721.76651,0.09564
5723.69498,0.10972
5725.62345,0.11463
5727.55192,0.10224
5729.48039,0.09309
5731.40886,0.10989
5733.33732,0.13920
5735.26579,0.14675
5737.19426,0.12836
5739.12273,0.10762
5741.05120,0.09729
5742.97967,0.10277
5744.90814,0.11613
5746.83660,0.10775
5748.76507,0.07624
5750.69354,0.04972
5752.62201,0.04321
5754.55048,0.05388
5756.47895,0.05985
5758.40742,0.04960
5760.33588,0.03858
5762.26435,0.04583
5764.19282,0.07049
5766.12129,0.08771
5768.04976,0.08007
5769.97823,0.06911
5771.90670,0.08357
5773.83517,0.09818
5775.76363,0.08978
5777.69210,0.08097
5779.62057,0.07207
5781.54904,0.05648
5783.47751,0.05943
5785.40598,0.08555
5787.33445,0.10547
5789.26291,0.10756
5791.19138,0.10500
5793.11985,0.10753
5795.04832,0.11815
5796.97679,0.11995
5798.90526,0.10406
5800.83373,0.10440
5802.76220,0.13479
5804.69066,0.16153
5806.61913,0.14635
5808.54760,0.10080
5810.47607,0.07844
5812.40454,0.08726
5814.33301,0.09240
5816.26148,0.08459
5818.18994,0.07836
5820.11841,0.08053
5822.04688,0.07890
5823.97535,0.06965
5825.90382,0.06071
5827.83229,0.05843
5829.76076,0.06055
5831.68923,0.06133
5833.61769,0.06175
5835.54616,0.05338
5837.47463,0.03392
5839.40310,0.02000
5841.33157,0.02354
5843.26004,0.04113
5845.18851,0.06316
5847.11697,0.07759
5849.04544,0.08407
5850.97391,0.08624
5852.90238,0.07652
5854.83085,0.07644
5856.75932,0.10216
5858.68779,0.12695
5860.61626,0.13872
5862.54472,0.13867
5864.47319,0.12480
5866.40166,0.10834
5868.33013,0.09944
5870.25860,0.10023
5872.18707,0.10978
5874.11554,0.11120
5876.04400,0.09759
5877.97247,0.09227
5879.90094,0.09233
5881.82941,0.08436
5883.75788,0.08009
5885.68635,0.08024
5887.61482,0.08259
5889.54329,0.08578
5891.47175,0.07950
5893.40022,0.07190
5895.32869,0.07786
5897.25716,0.09132
5899.18563,0.09174
5901.11410,0.06770
5903.04257,0.03764
5904.97103,0.02142
5906.89950,0.01739
5908.82797,0.03577
5910.75644,0.06978
5912.68491,0.07760
5914.61338,0.05349
5916.54185,0.04414
5918.47032,0.06690
5920.39878,0.08642
5922.32725,0.08672
5924.25572,0.07632
5926.18419,0.06441
5928.11266,0.06732
5930.04113,0.07119
5931.96960,0.06767
5933.89806,0.09014
5935.82653,0.13036
5937.75500,0.13173
5939.68347,0.10310
5941.61194,0.09908
5943.54041,0.11131
5945.46888,0.11648
5947.39734,0.11883
5949.32581,0.09905
5951.25428,0.08020
5953.18275,0.09641
5955.11122,0.11558
5957.03969,0.13105
5958.96816,0.15550
5960.89663,0.15410
5962.82509,0.12147
5964.75356,0.09812
5966.68203,0.09064
5968.61050,0.09456
5970.53897,0.11220
5972.46744,0.12619
5974.39591,0.12108
5976.32437,0.09503
5978.25284,0.07178
5980.18131,0.08603
5982.10978,0.13100
5984.03825,0.15623
5985.96672,0.11418
5987.89519,0.04661
5989.82366,0.04357
5991.75212,0.08983
5993.68059,0.11602
5995.60906,0.10900
5997.53753,0.09381
5999.46600,0.07954
6001.39447,0.06396
6003.32294,0.06376
6005.25140,0.08178
6007.17987,0.09272
6009.10834,0.08873
6011.03681,0.08887
6012.96528,0.10135
6014.89375,0.10937
6016.82222,0.10905
6018.75069,0.09887
6020.67915,0.07384
6022.60762,0.06227
6024.53609,0.07757
6026.46456,0.10657
6028.39303,0.13815
6030.32150,0.13128
6032.24997,0.08597
6034.17843,0.06343
6036.10690,0.07811
6038.03537,0.10443
6039.96384,0.11346
6041.89231,0.10437
6043.82078,0.10678
6045.74925,0.12807
6047.67772,0.16532
6049.60618,0.18652
6051.53465,0.15539
6053.46312,0.09743
6055.39159,0.06354
6057.32006,0.08617
6059.24853,0.12324
6061.17700,0.11226
6063.10546,0.07186
6065.03393,0.05855
6066.96240,0.05654
6068.89087,0.04540
6070.81934,0.05633
6072.74781,0.07803
6074.67628,0.08189
6076.60475,0.07973
6078.53321,0.06879
6080.46168,0.05053
6082.39015,0.05647
6084.31862,0.10162
6086.24709,0.15657
6088.17556,0.16677
6090.10403,0.12414
6092.03249,0.06652
6093.96096,0.03263
6095.88943,0.04708
6097.81790,0.09459
6099.74637,0.12897
6101.67484,0.12909
6103.60331,0.12204
6105.53177,0.13270
6107.46024,0.14914
6109.38871,0.15850
6111.31718,0.15388
6113.24565,0.12988
6115.17412,0.11169
6117.10259,0.10776
6119.03106,0.09601
6120.95952,0.08148
6122.88799,0.07480
6124.81646,0.07495
6126.74493,0.09012
6128.67340,0.10612
6130.60187,0.09166
6132.53034,0.05823
6134.45880,0.04100
6136.38727,0.05670
6138.31574,0.09523
6140.24421,0.11177
6142.17268,0.08767
6144.10115,0.06876
6146.02962,0.06250
6147.95809,0.05734
6149.88655,0.07114
6151.81502,0.08083
6153.74349,0.06868
6155.67196,0.07179
6157.60043,0.09566
6159.52890,0.11629
6161.45737,0.13465
6163.38583,0.14549
6165.31430,0.11744
6167.24277,0.07559
6169.17124,0.06828
6171.09971,0.07928
6173.02818,0.06737
6174.95665,0.03668
6176.88512,0.02854
6178.81358,0.06025
6180.74205,0.08817
6182.67052,0.08499
6184.59899,0.07585
6186.52746,0.06742
6188.45593,0.06436
6190.38440,0.08932
6192.31286,0.11483
6194.24133,0.10528
6196.16980,0.08525
6198.09827,0.08087
6200.02674,0.09910
6201.95521,0.14334
6203.88368,0.16168
6205.81215,0.12574
6207.74061,0.08782
6209.66908,0.07569
6211.59755,0.08320
6213.52602,0.09188
6215.45449,0.09844
6217.38296,0.09999
6219.31143,0.08853
6221.23989,0.08835
6223.16836,0.12441
6225.09683,0.14785
6227.02530,0.09781
6228.95377,0.03206
6230.88224,0.02968
6232.81071,0.06849
6234.73918,0.07761
6236.66764,0.06838
6238.59611,0.08072
6240.52458,0.09477
6242.45305,0.10198
6244.38152,0.11085
6246.30999,0.11528
6248.23846,0.12050
6250.16692,0.10643
6252.09539,0.06188
6254.02386,0.03667
6255.95233,0.05266
6257.88080,0.08279
6259.80927,0.11432
6261.73774,0.14319
6263.66621,0.16279
6265.59467,0.16988
6267.52314,0.14914
6269.45161,0.12225
6271.38008,0.12301
6273.30855,0.12456
6275.23702,0.10579
6277.16549,0.11082
6279.09395,0.14365
6281.02242,0.14729
6282.95089,0.10394
6284.87936,0.07951
6286.80783,0.10281
6288.73630,0.11133
6290.66477,0.09448
6292.59323,0.08664
6294.52170,0.07852
6296.45017,0.07624
6298.37864,0.08550
6300.30711,0.07606
6302.23558,0.04445
6304.16405,0.02178
6306.09252,0.01862
6308.02098,0.02848
6309.94945,0.05075
6311.87792,0.07249
6313.80639,0.07992
6315.73486,0.08520
6317.66333,0.07164
6319.59180,0.04485
6321.52026,0.04353
6323.44873,0.05632
6325.37720,0.07783
6327.30567,0.09391
6329.23414,0.07468
6331.16261,0.06370
6333.09108,0.08804
6335.01955,0.08525
6336.94801,0.05913
6338.87648,0.06697
6340.80495,0.07508
6342.73342,0.06609
6344.66189,0.07634
6346.59036,0.08700
6348.51883,0.09839
6350.44729,0.13138
6352.37576,0.11496
6354.30423,0.03491
6356.23270,-0.02016
6358.16117,-0.01316
6360.08964,0.03429
6362.01811,0.08496
6363.94658,0.10771
6365.87504,0.10007
6367.80351,0.07869
6369.73198,0.05521
6371.66045,0.03104
6373.58892,0.03001
6375.51739,0.06400
6377.44586,0.11434
6379.37432,0.16357
6381.30279,0.17349
6383.23126,0.12604
6385.15973,0.08085
6387.08820,0.07199
6389.01667,0.07363
6390.94514,0.07401
6392.87361,0.04937
6394.80207,-0.00292
6396.73054,-0.01321
6398.65901,0.03651
6400.58748,0.08828
6402.51595,0.09962
6404.44442,0.10371
6406.37289,0.12233
6408.30135,0.13095
6410.22982,0.12626
6412.15829,0.11952
6414.08676,0.11336
6416.01523,0.11347
6417.94370,0.12763
6419.87217,0.12304
6421.80064,0.07494
6423.72910,0.03403
6425.65757,0.04320
6427.58604,0.08199
6429.51451,0.11268
6431.44298,0.12280
6433.37145,0.12611
6435.29992,0.12706
6437.22838,0.11191
6439.15685,0.09195
6441.08532,0.09534
6443.01379,0.11943
6444.94226,0.13089
6446.87073,0.10096
6448.79920,0.06803
6450.72766,0.07383
6452.65613,0.08381
6454.58460,0.07485
6456.51307,0.05039
6458.44154,0.01404
6460.37001,-0.01047
6462.29848,0.01665
6464.22695,0.08655
6466.15541,0.11860
6468.08388,0.09665
6470.01235,0.07914
6471.94082,0.07612
6473.86929,0.04992
6475.79776,-0.00057
6477.72623,-0.01689
6479.65469,0.01630
6481.58316,0.03837
6483.51163,0.02733
6485.44010,0.02646
6487.36857,0.04793
6489.29704,0.08557
6491.22551,0.13201
6493.15398,0.13800
6495.08244,0.11070
6497.01091,0.08892
6498.93938,0.06067
6500.86785,0.05997
6502.79632,0.08838
6504.72479,0.08190
6506.65326,0.07166
6508.58172,0.09507
6510.51019,0.12518
6512.43866,0.14132
6514.36713,0.11474
6516.29560,0.06370
6518.22407,0.07531
6520.15254,0.13057
6522.08101,0.14139
6524.00947,0.11310
6525.93794,0.09761
6527.86641,0.09292
6529.79488,0.09798
6531.72335,0.11131
6533.65182,0.09006
6535.58029,0.04930
6537.50875,0.05224
6539.43722,0.06756
6541.36569,0.03294
6543.29416,-0.00061
6545.22263,0.01169
6547.15110,0.01643
6549.07957,-0.01213
6551.00804,-0.04942
6552.93650,-0.04079
6554.86497,0.01917
6556.79344,0.05547
6558.72191,0.05111
6560.65038,0.04909
6562.57885,0.06285
6564.50732,0.08903
6566.43578,0.11043
6568.36425,0.10421
6570.29272,0.08420
6572.22119,0.07857
6574.14966,0.08940
6576.07813,0.09657
6578.00660,0.09410
6579.93507,0.09644
6581.86353,0.11932
6583.79200,0.15519
6585.72047,0.15676
6587.64894,0.12328
6589.57741,0.10514
6591.50588,0.13401
6593.43435,0.19072
6595.36281,0.18882
6597.29128,0.13899
6599.21975,0.11272
6601.14822,0.08803
6603.07669,0.07495
6605.00516,0.10593
6606.93363,0.12602
6608.86210,0.10270
6610.79056,0.06948
6612.71903,0.05147
6614.64750,0.07308
6616.57597,0.11643
6618.50444,0.09105
6620.43291,0.03871
6622.36138,0.04581
6624.28984,0.04754
6626.21831,0.02960
6628.14678,0.05163
6630.07525,0.06610
6632.00372,0.03366
6633.93219,0.01312
6635.86066,0.04597
6637.78912,0.07876
6639.71759,0.06452
6641.64606,0.03725
6643.57453,0.02584
6645.50300,0.05423
6647.43147,0.12033
6649.35994,0.15553
6651.28841,0.14084
6653.21687,0.11450
6655.14534,0.07609
6657.07381,0.05591
6659.00228,0.08037
6660.93075,0.06692
6662.85922,0.04074
6664.78769,0.07342
6666.71615,0.11208
6668.64462,0.11238
6670.57309,0.11315
6672.50156,0.13820
6674.43003,0.16518
6676.35850,0.17132
6678.28697,0.13752
6680.21544,0.05911
6682.14390,-0.01446
6684.07237,-0.04709
6686.00084,-0.06340
6687.92931,-0.03366
6689.85778,0.03129
6691.78625,0.04215
6693.71472,0.04001
6695.64318,0.07080
6697.57165,0.10224
6699.50012,0.11582
6701.42859,0.10252
6703.35706,0.06068
6705.28553,0.05279
6707.21400,0.09254
6709.14247,0.12415
6711.07093,0.14192
6712.99940,0.13586
6714.92787,0.07199
6716.85634,-0.00499
6718.78481,-0.01546
6720.71328,0.02871
6722.64175,0.06708
6724.57021,0.08421
6726.49868,0.10047
6728.42715,0.10743
6730.35562,0.09426
6732.28409,0.08279
6734.21256,0.04871
6736.14103,0.00383
6738.06950,0.01336
6739.99796,0.05663
6741.92643,0.06695
6743.85490,0.05527
6745.78337,0.08080
6747.71184,0.09493
6749.64031,0.03354
6751.56878,-0.02443
6753.49724,-0.00617
6755.42571,0.04174
6757.35418,0.07797
6759.28265,0.12846
6761.21112,0.17592
6763.13959,0.17560
6765.06806,0.15956
6766.99653,0.13208
6768.92499,0.06895
6770.85346,0.00654
6772.78193,-0.03903
6774.71040,-0.06271
6776.63887,-0.02069
6778.56734,0.04089
6780.49581,0.05390
6782.42427,0.01703
6784.35274,-0.02876
6786.28121,-0.05205
6788.20968,-0.04507
6790.13815,-0.03554
6792.06662,-0.06926
6793.99509,-0.08155
6795.92355,-0.03133
6797.85202,0.01075
6799.78049,0.00300
6801.70896,-0.06295
6803.63743,-0.11223
6805.56590,-0.03067
6807.49437,0.09962
6809.42284,0.13255
6811.35130,0.06659
6813.27977,0.01926
6815.20824,0.04874
6817.13671,0.09519
6819.06518,0.09619
6820.99365,0.09130
6822.92212,0.15024
6824.85058,0.19273
6826.77905,0.17104
6828.70752,0.15186
6830.63599,0.10278
6832.56446,0.02586
6834.49293,-0.00225
6836.42140,-0.00266
6838.34987,0.00546
6840.27833,0.03741
6842.20680,0.04481
6844.13527,-0.00883
6846.06374,-0.09399
6847.99221,-0.14701
6849.92068,-0.13289
6851.84915,-0.08417
6853.77761,-0.06147
6855.70608,-0.09398
6857.63455,-0.09730
6859.56302,-0.03323
6861.49149,0.04946
6863.41996,0.11718
6865.34843,0.14733
6867.27690,0.13455
6869.20536,0.09678
6871.13383,0.07637
6873.06230,0.07440
6874.99077,0.05791
6876.91924,0.01695
6878.84771,-0.07228
6880.77618,-0.12842
6882.70464,-0.05869
6884.63311,0.02673
6886.56158,0.03852
6888.49005,-0.00242
6890.41852,-0.01945
6892.34699,0.02200
6894.27546,0.04909
6896.20393,0.02572
6898.13239,-0.01056
6900.06086,-0.00655
6901.98933,0.05540
6903.91780,0.12023
6905.84627,0.13373
6907.77474,0.10027
6909.70321,0.05258
6911.63167,0.03720
6913.56014,0.03803
6915.48861,0.03658
6917.41708,0.05857
6919.34555,0.09213
6921.27402,0.09437
6923.20249,0.06122
6925.13096,-0.00029
6927.05942,-0.07108
6928.98789,-0.09629
6930.91636,-0.01755
6932.84483,0.10068
6934.77330,0.10111
6936.70177,-0.00228
6938.63024,-0.09137
6940.55870,-0.07059
6942.48717,-0.00091
6944.41564,-0.00922
6946.34411,-0.06086
6948.27258,-0.07382
6950.20105,-0.07523
6952.12952,-0.06584
6954.05799,-0.03521
6955.98645,-0.04355
6957.91492,-0.03024
6959.84339,0.04228
6961.77186,0.07555
6963.70033,0.06366
6965.62880,0.07615
6967.55727,0.13085
6969.48573,0.14320
6971.41420,0.06534
6973.34267,0.03988
6975.27114,0.09015
6977.19961,0.10909
6979.12808,0.13681
6981.05655,0.15159
6982.98501,0.09784
6984.91348,0.02891
6986.84195,-0.02605
6988.77042,-0.01063
6990.69889,0.07399
6992.62736,0.10438
6994.55583,0.07940
6996.48430,0.08732
6998.41276,0.13462
7000.34123,0.11706
7002.26970,0.04966
7004.19817,0.01531
7006.12664,-0.00412
7008.05511,0.00166
7009.98358,0.04399
7011.91204,0.08718
7013.84051,0.09740
7015.76898,0.04385
7017.69745,-0.03462
7019.62592,-0.08814
7021.55439,-0.10923
7023.48286,-0.04799
7025.41133,0.08413
7027.33979,0.11922
7029.26826,0.06869
7031.19673,0.11590
7033.12520,0.13611
7035.05367,0.02567
7036.98214,-0.02046
7038.91061,0.03660
7040.83907,0.09288
7042.76754,0.08795
7044.69601,0.05337
7046.62448,0.07923
7048.55295,0.10175
7050.48142,0.05759
7052.40989,0.01580
7054.33836,0.00682
7056.26682,0.03183
7058.19529,0.09951
7060.12376,0.12279
7062.05223,0.08148
7063.98070,0.02873
7065.90917,-0.00222
7067.83764,0.02164
7069.76610,0.09737
7071.69457,0.16310
7073.62304,0.14584
7075.55151,0.07085
7077.47998,0.00246
7079.40845,-0.04496
7081.33692,-0.03633
7083.26539,0.02609
7085.19385,0.07292
7087.12232,0.08932
7089.05079,0.09333
7090.97926,0.09350
7092.90773,0.08694
7094.83620,0.07824
7096.76467,0.04788
7098.69313,0.01551
7100.62160,0.01716
7102.55007,0.02533
7104.47854,0.04184
7106.40701,0.05836
7108.33548,0.02705
7110.26395,-0.02532
7112.19242,-0.04234
7114.12088,-0.03240
7116.04935,-0.03224
7117.97782,0.00185
7119.90629,0.13470
7121.83476,0.24480
7123.76323,0.21832
7125.69170,0.13049
7127.62016,0.06736
7129.54863,0.01372
7131.47710,0.00566
7133.40557,0.07444
7135.33404,0.13508
7137.26251,0.16598
7139.19098,0.19896
7141.11944,0.19164
7143.04791,0.13789
7144.97638,0.10826
7146.90485,0.09910
7148.83332,0.05267
7150.76179,0.01219
7152.69026,-0.01963
7154.61873,-0.09661
7156.54719,-0.15188
7158.47566,-0.09784
7160.40413,0.00383
7162.33260,0.02932
7164.26107,0.00409
7166.18954,0.03002
7168.11801,0.09780
7170.04647,0.10670
7171.97494,0.02373
7173.90341,-0.06622
7175.83188,-0.10934
7177.76035,-0.05652
7179.68882,0.06568
7181.61729,0.14297
7183.54576,0.07898
7185.47422,-0.05670
7187.40269,-0.13227
7189.33116,-0.11212
7191.25963,0.04161
7193.18810,0.26284
7195.11657,0.38009
7197.04504,0.35187
7198.97350,0.26141
7200.90197,0.17932
7202.83044,0.07098
7204.75891,-0.06516
7206.68738,-0.06298
7208.61585,-0.00023
7210.54432,-0.02581
7212.47279,-0.07615
7214.40125,-0.06342
7216.32972,-0.00343
7218.25819,0.04558
7220.18666,0.06294
7222.11513,0.01896
7224.04360,-0.05548
7225.97207,-0.02832
7227.90053,0.09847
7229.82900,0.17965
7231.75747,0.15182
7233.68594,0.09640
7235.61441,0.09105
7237.54288,0.13736
7239.47135,0.19824
7241.39982,0.22687
7243.32828,0.18469
7245.25675,0.11771
7247.18522,0.05105
7249.11369,0.00826
7251.04216,0.00566
7252.97063,-0.03377
7254.89910,-0.00405
7256.82756,0.06814
7258.75603,0.08661
7260.68450,0.05141
7262.61297,0.00310
7264.54144,0.00395
7266.46991,0.02607
7268.39838,-0.00454
7270.32685,-0.04801
7272.25531,-0.03449
7274.18378,-0.00636
7276.11225,-0.02858
7278.04072,-0.06787
7279.96919,-0.05283
7281.89766,0.06858
7283.82613,0.20790
7285.75459,0.24443
7287.68306,0.19389
7289.61153,0.19611
7291.54000,0.28021
7293.46847,0.28486
7295.39694,0.21751
7297.32541,0.19452
7299.25387,0.15438
7301.18234,0.07293
7303.11081,0.04340
7305.03928,0.10985
7306.96775,0.17442
7308.89622,0.14635
7310.82469,0.12243
7312.75316,0.13376
7314.68162,0.17591
7316.61009,0.26993
7318.53856,0.26843
7320.46703,0.13732
7322.39550,-0.02142
7324.32397,-0.12978
7326.25244,-0.07618
7328.18090,0.17670
7330.10937,0.38340
7332.03784,0.29127
7333.96631,0.09915
7335.89478,0.01867
7337.82325,0.04165
7339.75172,0.05227
7341.68019,-0.03214
7343.60865,-0.11063
7345.53712,-0.16295
7347.46559,-0.18513
7349.39406,-0.09667
7351.32253,0.04843
7353.25100,0.12493
7355.17947,0.19005
7357.10793,0.27888
7359.03640,0.24366
7360.96487,0.04739
7362.89334,-0.06411
7364.82181,-0.01759
7366.75028,-0.01707
7368.67875,-0.06734
7370.60722,-0.05729
7372.53568,-0.05387
7374.46415,-0.07485
7376.39262,-0.06270
7378.32109,-0.05984
7380.24956,-0.02955
7382.17803,0.07396
7384.10650,0.13343
7386.03496,0.08622
7387.96343,0.02801
7389.89190,0.00774
7391.82037,-0.01319
7393.74884,-0.03556
7395.67731,-0.01521
7397.60578,-0.01518
7399.53425,-0.11152
7401.46271,-0.16742
7403.39118,-0.02191
7405.31965,0.15858
7407.24812,0.11558
7409.17659,-0.01182
7411.10506,-0.05462
7413.03353,-0.02514
7414.96199,0.01768
7416.89046,-0.02805
7418.81893,-0.18467
7420.74740,-0.22916
7422.67587,-0.12890
7424.60434,-0.01078
7426.53281,0.05433
7428.46128,0.07530
7430.38974,0.10389
7432.31821,0.13578
7434.24668,0.20681
7436.17515,0.31565
7438.10362,0.29492
7440.03209,0.15308
7441.96056,0.12327
7443.88902,0.16420
7445.81749,0.13719
7447.74596,0.12055
7449.67443,0.11543
7451.60290,0.09457
7453.53137,0.17545
7455.45984,0.30105
7457.38831,0.39793
7459.31677,0.41271
7461.24524,0.20716
7463.17371,-0.02241
7465.10218,-0.07439
7467.03065,-0.03998
7468.95912,0.00824
7470.88759,0.10529
7472.81605,0.18588
7474.74452,0.15523
7476.67299,0.04713
7478.60146,-0.06216
7480.52993,-0.09377
7482.45840,-0.11097
7484.38687,-0.16692
7486.31533,-0.16431
7488.24380,-0.07671
7490.17227,0.08483
7492.10074,0.19932
7494.02921,0.17232
7495.95768,0.09226
7497.88615,-0.05141
