399.19301,0.51757
401.12148,0.22337
403.04995,0.05479
404.97842,-0.03551
406.90689,-0.00917
408.83536,-0.03933
410.76382,-0.11533
412.69229,-0.07143
414.62076,0.06792
416.54923,0.16264
418.47770,0.18512
420.40617,0.15312
422.33464,0.11416
424.26311,0.04037
426.19157,-0.04797
428.12004,-0.02255
430.04851,0.06929
431.97698,0.08014
433.90545,0.00692
435.83392,-0.03457
437.76239,-0.05219
439.69085,-0.07081
441.61932,-0.02755
443.54779,0.02918
445.47626,0.01055
447.40473,-0.02458
449.33320,-0.03461
451.26167,-0.03499
453.19013,-0.01919
455.11860,0.00708
457.04707,0.04710
458.97554,0.08317
460.90401,0.07906
462.83248,0.07009
464.76095,0.07340
466.68942,0.08805
468.61788,0.10906
470.54635,0.13994
472.47482,0.18809
474.40329,0.18695
476.33176,0.12182
478.26023,0.08062
480.18870,0.06760
482.11716,0.08544
484.04563,0.12311
485.97410,0.13595
487.90257,0.13652
489.83104,0.13640
491.75951,0.11632
493.68798,0.09760
495.61645,0.10433
497.54491,0.11600
499.47338,0.08463
501.40185,-0.02625
503.33032,-0.15417
505.25879,-0.18770
507.18726,-0.13095
509.11573,-0.05999
511.04419,-0.02468
512.97266,0.00037
514.90113,0.03332
516.82960,0.04797
518.75807,0.05601
520.68654,0.08209
522.61501,0.10161
524.54348,0.07858
526.47194,0.03862
528.40041,0.03093
530.32888,0.04732
532.25735,0.06365
534.18582,0.07387
536.11429,0.08754
538.04276,0.10034
539.97122,0.09734
541.89969,0.09096
543.82816,0.09772
545.75663,0.10439
547.68510,0.09878
549.61357,0.02925
551.54204,-0.18172
553.47051,-0.36952
555.39897,-0.27377
557.32744,-0.03566
559.25591,0.05477
561.18438,0.04680
563.11285,0.05946
565.04132,0.06811
566.96979,0.06511
568.89825,0.09040
570.82672,0.12304
572.75519,0.11617
574.68366,0.09176
576.61213,0.09352
578.54060,0.11128
580.46907,0.10789
582.39754,0.08150
584.32600,0.06444
586.25447,0.07192
588.18294,0.08795
590.11141,0.09615
592.03988,0.10002
593.96835,0.10405
595.89682,0.10778
597.82528,0.10898
599.75375,0.10440
601.68222,0.08897
603.61069,0.07187
605.53916,0.07064
607.46763,0.07937
609.39610,0.08180
611.32456,0.08223
613.25303,0.09095
615.18150,0.09892
617.10997,0.10148
619.03844,0.10113
620.96691,0.10234
622.89538,0.11260
624.82385,0.11674
626.75231,0.10143
628.68078,0.08509
630.60925,0.08449
632.53772,0.09021
634.46619,0.09760
636.39466,0.11195
638.32313,0.11875
640.25159,0.10147
642.18006,0.07644
644.10853,0.06904
646.03700,0.08442
647.96547,0.10740
649.89394,0.11215
651.82241,0.10165
653.75088,0.09953
655.67934,0.10310
657.60781,0.09726
659.53628,0.08815
661.46475,0.08867
663.39322,0.09282
665.32169,0.09469
667.25016,0.10991
669.17862,0.16391
671.10709,0.20909
673.03556,0.19561
674.96403,0.13162
676.89250,0.09266
678.82097,0.10602
680.74944,0.12000
682.67791,0.11582
684.60637,0.10888
686.53484,0.11282
688.46331,0.12440
690.39178,0.12968
692.32025,0.12360
694.24872,0.11081
696.17719,0.09879
698.10565,0.09117
700.03412,0.09115
701.96259,0.10131
703.89106,0.11407
705.81953,0.11747
707.74800,0.10797
709.67647,0.09289
711.60494,0.08539
713.53340,0.09123
715.46187,0.10473
717.39034,0.11530
719.31881,0.12047
721.24728,0.12329
723.17575,0.12018
725.10422,0.11604
727.03268,0.12134
728.96115,0.13114
730.88962,0.13330
732.81809,0.12750
734.74656,0.12025
736.67503,0.11596
738.60350,0.11859
740.53197,0.12416
742.46043,0.12576
744.38890,0.12315
746.31737,0.11944
748.24584,0.11809
750.17431,0.11747
752.10278,0.11271
754.03125,0.10573
755.95971,0.10170
757.88818,0.09996
759.81665,0.10150
761.74512,0.10957
763.67359,0.11717
765.60206,0.11792
767.53053,0.11462
769.45900,0.10620
771.38746,0.09754
773.31593,0.10056
775.24440,0.11270
777.17287,0.12097
779.10134,0.11966
781.02981,0.11813
782.95828,0.12282
784.88674,0.12793
786.81521,0.13176
788.74368,0.13457
790.67215,0.13164
792.60062,0.12212
794.52909,0.11451
796.45756,0.11444
798.38602,0.11764
800.31449,0.12256
802.24296,0.12732
804.17143,0.12470
806.09990,0.11736
808.02837,0.11735
809.95684,0.12330
811.88531,0.12515
813.81377,0.12286
815.74224,0.11610
817.67071,0.10717
819.59918,0.10735
821.52765,0.11587
823.45612,0.12164
825.38459,0.12283
827.31305,0.12351
829.24152,0.12139
831.16999,0.11451
833.09846,0.10911
835.02693,0.10745
836.95540,0.10947
838.88387,0.12421
840.81234,0.14435
842.74080,0.14701
844.66927,0.13140
846.59774,0.11775
848.52621,0.11895
850.45468,0.12922
852.38315,0.13704
854.31162,0.13860
856.24008,0.13340
858.16855,0.12194
860.09702,0.11000
862.02549,0.10687
863.95396,0.11252
865.88243,0.11744
867.81090,0.12020
869.73937,0.12712
871.66783,0.13284
873.59630,0.12909
875.52477,0.12137
877.45324,0.11572
879.38171,0.11263
881.31018,0.10968
883.23865,0.10717
885.16711,0.10934
887.09558,0.11648
889.02405,0.12639
890.95252,0.12889
892.88099,0.12066
894.80946,0.11863
896.73793,0.12691
898.66640,0.13361
900.59486,0.13415
902.52333,0.13128
904.45180,0.13281
906.38027,0.13945
908.30874,0.14197
910.23721,0.13760
912.16568,0.13343
914.09414,0.13283
916.02261,0.13072
917.95108,0.12647
919.87955,0.12549
921.80802,0.13122
923.73649,0.13793
925.66496,0.13644
927.59343,0.13154
929.52189,0.13310
931.45036,0.13807
933.37883,0.13813
935.30730,0.13373
937.23577,0.13238
939.16424,0.13699
941.09271,0.14333
943.02117,0.14402
944.94964,0.13790
946.87811,0.13487
948.80658,0.13730
950.73505,0.13640
952.66352,0.13161
954.59199,0.12889
956.52045,0.13052
958.44892,0.13333
960.37739,0.13287
962.30586,0.13188
964.23433,0.13442
966.16280,0.13810
968.09127,0.14093
970.01974,0.14331
971.94820,0.14421
973.87667,0.14319
975.80514,0.14353
977.73361,0.14518
979.66208,0.14383
981.59055,0.14116
983.51902,0.13915
985.44748,0.13859
987.37595,0.14304
989.30442,0.14852
991.23289,0.14634
993.16136,0.13960
995.08983,0.13938
997.01830,0.14434
998.94677,0.14514
1000.87523,0.14179
1002.80370,0.14161
1004.73217,0.14609
1006.66064,0.14912
1008.58911,0.14892
1010.51758,0.14705
1012.44605,0.14523
1014.37451,0.14504
1016.30298,0.14357
1018.23145,0.14198
1020.15992,0.14518
1022.08839,0.14837
1024.01686,0.14845
1025.94533,0.14983
1027.87380,0.15079
1029.80226,0.14953
1031.73073,0.14658
1033.65920,0.14136
1035.58767,0.13766
1037.51614,0.13918
1039.44461,0.14384
1041.37308,0.14907
1043.30154,0.15348
1045.23001,0.15488
1047.15848,0.15370
1049.08695,0.15203
1051.01542,0.14960
1052.94389,0.14591
1054.87236,0.14406
1056.80083,0.14655
1058.72929,0.15159
1060.65776,0.15431
1062.58623,0.15176
1064.51470,0.15185
1066.44317,0.15891
1068.37164,0.16376
1070.30011,0.16521
1072.22857,0.16575
1074.15704,0.16120
1076.08551,0.15768
1078.01398,0.16089
1079.94245,0.16070
1081.87092,0.15832
1083.79939,0.16293
1085.72786,0.16368
1087.65632,0.15317
1089.58479,0.14572
1091.51326,0.14844
1093.44173,0.15320
1095.37020,0.15495
1097.29867,0.15480
1099.22714,0.15675
1101.15560,0.16142
1103.08407,0.16301
1105.01254,0.16388
1106.94101,0.16853
1108.86948,0.16958
1110.79795,0.16358
1112.72642,0.15533
1114.65489,0.14914
1116.58335,0.15033
1118.51182,0.15911
1120.44029,0.16592
1122.36876,0.16206
1124.29723,0.15228
1126.22570,0.14903
1128.15417,0.15317
1130.08263,0.15258
1132.01110,0.14588
1133.93957,0.14569
1135.86804,0.15409
1137.79651,0.15967
1139.72498,0.15816
1141.65345,0.15604
1143.58191,0.15654
1145.51038,0.15738
1147.43885,0.15683
1149.36732,0.15553
1151.29579,0.15618
1153.22426,0.15821
1155.15273,0.15775
1157.08120,0.15570
1159.00966,0.15608
1160.93813,0.15847
1162.86660,0.15987
1164.79507,0.16121
1166.72354,0.16443
1168.65201,0.16602
1170.58048,0.16487
1172.50894,0.16401
1174.43741,0.16251
1176.36588,0.16057
1178.29435,0.15984
1180.22282,0.15818
1182.15129,0.15454
1184.07976,0.15213
1186.00823,0.15278
1187.93669,0.15495
1189.86516,0.15788
1191.79363,0.15903
1193.72210,0.15650
1195.65057,0.15444
1197.57904,0.15570
1199.50751,0.15873
1201.43597,0.16284
1203.36444,0.16540
1205.29291,0.16329
1207.22138,0.16022
1209.14985,0.15952
1211.07832,0.16029
1213.00679,0.16298
1214.93526,0.16681
1216.86372,0.16849
1218.79219,0.16721
1220.72066,0.16491
1222.64913,0.16328
1224.57760,0.16396
1226.50607,0.16586
1228.43454,0.16637
1230.36300,0.16704
1232.29147,0.16716
1234.21994,0.16417
1236.14841,0.16315
1238.07688,0.16678
1240.00535,0.16906
1241.93382,0.16869
1243.86229,0.16979
1245.79075,0.17183
1247.71922,0.17082
1249.64769,0.16672
1251.57616,0.16317
1253.50463,0.16195
1255.43310,0.16294
1257.36157,0.16593
1259.29003,0.16991
1261.21850,0.17355
1263.14697,0.17470
1265.07544,0.17138
1267.00391,0.16665
1268.93238,0.16541
1270.86085,0.16737
1272.78932,0.16886
1274.71778,0.16836
1276.64625,0.16907
1278.57472,0.17264
1280.50319,0.17621
1282.43166,0.17783
1284.36013,0.17683
1286.28860,0.17465
1288.21706,0.17374
1290.14553,0.17354
1292.07400,0.17379
1294.00247,0.17344
1295.93094,0.17137
1297.85941,0.17070
1299.78788,0.17242
1301.71634,0.17365
1303.64481,0.17358
1305.57328,0.17345
1307.50175,0.17384
1309.43022,0.17468
1311.35869,0.17605
1313.28716,0.17710
1315.21563,0.17633
1317.14409,0.17399
1319.07256,0.17261
1321.00103,0.17379
1322.92950,0.17564
1324.85797,0.17614
1326.78644,0.17570
1328.71491,0.17513
1330.64337,0.17442
1332.57184,0.17333
1334.50031,0.17182
1336.42878,0.17237
1338.35725,0.17738
1340.28572,0.18154
1342.21419,0.18195
1344.14266,0.18295
1346.07112,0.18293
1347.99959,0.18020
1349.92806,0.17734
1351.85653,0.17488
1353.78500,0.17384
1355.71347,0.17560
1357.64194,0.17835
1359.57040,0.18036
1361.49887,0.18103
1363.42734,0.18017
1365.35581,0.17958
1367.28428,0.17886
1369.21275,0.17773
1371.14122,0.18069
1373.06969,0.18733
1374.99815,0.19035
1376.92662,0.18857
1378.85509,0.18539
1380.78356,0.18088
1382.71203,0.17822
1384.64050,0.18226
1386.56897,0.18858
1388.49743,0.18784
1390.42590,0.18583
1392.35437,0.19048
1394.28284,0.19771
1396.21131,0.20053
1398.13978,0.19739
1400.06825,0.18889
1401.99672,0.18118
1403.92518,0.17839
1405.85365,0.17834
1407.78212,0.17999
1409.71059,0.18300
1411.63906,0.18502
1413.56753,0.18618
1415.49600,0.18951
1417.42446,0.19483
1419.35293,0.19637
1421.28140,0.19353
1423.20987,0.19083
1425.13834,0.18792
1427.06681,0.18765
1428.99528,0.18987
1430.92375,0.18653
1432.85221,0.18088
1434.78068,0.18208
1436.70915,0.18620
1438.63762,0.18669
1440.56609,0.18708
1442.49456,0.18773
1444.42303,0.18815
1446.35149,0.19033
1448.27996,0.19258
1450.20843,0.19220
1452.13690,0.19304
1454.06537,0.19819
1455.99384,0.20789
1457.92231,0.21311
1459.85077,0.20430
1461.77924,0.19711
1463.70771,0.19676
1465.63618,0.19647
1467.56465,0.19294
1469.49312,0.19425
1471.42159,0.20431
1473.35006,0.21139
1475.27852,0.20384
1477.20699,0.19679
1479.13546,0.19498
1481.06393,0.19428
1482.99240,0.19446
1484.92087,0.19889
1486.84934,0.20822
1488.77780,0.21507
1490.70627,0.20909
1492.63474,0.19916
1494.56321,0.19612
1496.49168,0.19894
1498.42015,0.19899
1500.34862,0.19628
1502.27709,0.19846
1504.20555,0.20755
1506.13402,0.22095
1508.06249,0.21954
1509.99096,0.20964
1511.91943,0.20759
1513.84790,0.21228
1515.77637,0.21698
1517.70483,0.21674
1519.63330,0.22173
1521.56177,0.23032
1523.49024,0.22346
1525.41871,0.21289
1527.34718,0.20740
1529.27565,0.20477
1531.20412,0.20810
1533.13258,0.21478
1535.06105,0.21347
1536.98952,0.21446
1538.91799,0.23346
1540.84646,0.25332
1542.77493,0.23882
1544.70340,0.21810
1546.63186,0.20569
1548.56033,0.20352
1550.48880,0.20537
1552.41727,0.20631
1554.34574,0.21022
1556.27421,0.21905
1558.20268,0.22888
1560.13115,0.22201
1562.05961,0.20988
1563.98808,0.20332
1565.91655,0.20204
1567.84502,0.20746
1569.77349,0.21252
1571.70196,0.21076
1573.63043,0.21273
1575.55889,0.21980
1577.48736,0.21635
1579.41583,0.20554
1581.34430,0.19955
1583.27277,0.19675
1585.20124,0.19399
1587.12971,0.19309
1589.05818,0.19434
1590.98664,0.19497
1592.91511,0.19526
1594.84358,0.19549
1596.77205,0.19331
1598.70052,0.19069
1600.62899,0.19233
1602.55746,0.19673
1604.48592,0.19866
1606.41439,0.19811
1608.34286,0.19813
1610.27133,0.20082
1612.19980,0.20588
1614.12827,0.21196
1616.05674,0.21674
1617.98521,0.21276
1619.91367,0.20749
1621.84214,0.20873
1623.77061,0.21118
1625.69908,0.21112
1627.62755,0.21031
1629.55602,0.20784
1631.48449,0.20736
1633.41295,0.21346
1635.34142,0.22299
1637.26989,0.21973
1639.19836,0.21007
1641.12683,0.20613
1643.05530,0.20952
1644.98377,0.22079
1646.91223,0.23367
1648.84070,0.23304
1650.76917,0.23254
1652.69764,0.23963
1654.62611,0.22986
1656.55458,0.21488
1658.48305,0.21245
1660.41152,0.22367
1662.33998,0.23313
1664.26845,0.22159
1666.19692,0.21123
1668.12539,0.21729
1670.05386,0.22473
1671.98233,0.22036
1673.91080,0.21541
1675.83926,0.21116
1677.76773,0.20853
1679.69620,0.21191
1681.62467,0.22255
1683.55314,0.23555
1685.48161,0.23158
1687.41008,0.21953
1689.33855,0.21070
1691.26701,0.20483
1693.19548,0.20647
1695.12395,0.21721
1697.05242,0.22921
1698.98089,0.23375
1700.90936,0.22824
1702.83783,0.22146
1704.76629,0.21931
1706.69476,0.21367
1708.62323,0.20570
1710.55170,0.20166
1712.48017,0.20275
1714.40864,0.21040
1716.33711,0.22140
1718.26558,0.21915
1720.19404,0.20760
1722.12251,0.20283
1724.05098,0.20153
1725.97945,0.19906
1727.90792,0.19990
1729.83639,0.20490
1731.76486,0.21140
1733.69332,0.21622
1735.62179,0.21256
1737.55026,0.21015
1739.47873,0.21205
1741.40720,0.21205
1743.33567,0.20956
1745.26414,0.20925
1747.19261,0.21401
1749.12107,0.21768
1751.04954,0.21150
1752.97801,0.20404
1754.90648,0.20205
1756.83495,0.20220
1758.76342,0.20268
1760.69189,0.20339
1762.62035,0.20050
1764.54882,0.19667
1766.47729,0.19938
1768.40576,0.20837
1770.33423,0.21832
1772.26270,0.22032
1774.19117,0.21135
1776.11964,0.20509
1778.04810,0.20552
1779.97657,0.20692
1781.90504,0.20474
1783.83351,0.20143
1785.76198,0.19926
1787.69045,0.19923
1789.61892,0.20287
1791.54738,0.20892
1793.47585,0.20994
1795.40432,0.20470
1797.33279,0.20078
1799.26126,0.20107
1801.18973,0.20283
1803.11820,0.20167
1805.04666,0.19934
1806.97513,0.19976
1808.90360,0.20270
1810.83207,0.20410
1812.76054,0.20142
1814.68901,0.19740
1816.61748,0.18776
1818.54595,0.17083
1820.47441,0.16483
1822.40288,0.17928
1824.33135,0.19856
1826.25982,0.20710
1828.18829,0.20923
1830.11676,0.20761
1832.04523,0.20107
1833.97369,0.19639
1835.90216,0.19604
1837.83063,0.19828
1839.75910,0.20022
1841.68757,0.20217
1843.61604,0.20483
1845.54451,0.20371
1847.47298,0.19892
1849.40144,0.19568
1851.32991,0.19570
1853.25838,0.19726
1855.18685,0.19844
1857.11532,0.19833
1859.04379,0.19732
1860.97226,0.19671
1862.90072,0.19671
1864.82919,0.19821
1866.75766,0.20235
1868.68613,0.20488
1870.61460,0.20172
1872.54307,0.19796
1874.47154,0.19582
1876.40001,0.19441
1878.32847,0.19500
1880.25694,0.19745
1882.18541,0.19917
1884.11388,0.19934
1886.04235,0.19990
1887.97082,0.20264
1889.89929,0.20431
1891.82775,0.20243
1893.75622,0.20108
1895.68469,0.20021
1897.61316,0.19770
1899.54163,0.19624
1901.47010,0.19747
1903.39857,0.19964
1905.32704,0.20065
1907.25550,0.20015
1909.18397,0.19883
1911.11244,0.19783
1913.04091,0.19837
1914.96938,0.20064
1916.89785,0.20333
1918.82632,0.20396
1920.75478,0.20322
1922.68325,0.20240
1924.61172,0.19974
1926.54019,0.19735
1928.46866,0.19821
1930.39713,0.20012
1932.32560,0.20072
1934.25407,0.20111
1936.18253,0.20183
1938.11100,0.20097
1940.03947,0.19974
1941.96794,0.20047
1943.89641,0.20058
1945.82488,0.19949
1947.75335,0.19925
1949.68181,0.19884
1951.61028,0.19800
1953.53875,0.19783
1955.46722,0.19808
1957.39569,0.19822
1959.32416,0.19878
1961.25263,0.19925
1963.18110,0.19909
1965.10956,0.20023
1967.03803,0.20135
1968.96650,0.20069
1970.89497,0.20101
1972.82344,0.20308
1974.75191,0.21538
1976.68038,0.24204
1978.60884,0.25321
1980.53731,0.23006
1982.46578,0.20296
1984.39425,0.19544
1986.32272,0.19731
1988.25119,0.19925
1990.17966,0.20074
1992.10812,0.20071
1994.03659,0.20000
1995.96506,0.19979
1997.89353,0.19931
1999.82200,0.19863
2001.75047,0.19824
2003.67894,0.19836
2005.60741,0.19874
2007.53587,0.19852
2009.46434,0.19791
2011.39281,0.19837
2013.32128,0.20037
2015.24975,0.20207
2017.17822,0.20198
2019.10669,0.20086
2021.03515,0.19953
2022.96362,0.19828
2024.89209,0.19806
2026.82056,0.19891
2028.74903,0.19980
2030.67750,0.20053
2032.60597,0.20056
2034.53444,0.19924
2036.46290,0.19867
2038.39137,0.20017
2040.31984,0.20146
2042.24831,0.20173
2044.17678,0.20156
2046.10525,0.20118
2048.03372,0.20215
2049.96218,0.20346
2051.89065,0.20262
2053.81912,0.20105
2055.74759,0.20057
2057.67606,0.20046
2059.60453,0.20096
2061.53300,0.20179
2063.46147,0.20157
2065.38993,0.20177
2067.31840,0.20304
2069.24687,0.20392
2071.17534,0.20390
2073.10381,0.20281
2075.03228,0.20147
2076.96075,0.20088
2078.88921,0.20093
2080.81768,0.20143
2082.74615,0.20219
2084.67462,0.20248
2086.60309,0.20202
2088.53156,0.20191
2090.46003,0.20231
2092.38850,0.20142
2094.31696,0.19879
2096.24543,0.19713
2098.17390,0.19808
2100.10237,0.19937
2102.03084,0.19977
2103.95931,0.20069
2105.88778,0.20181
2107.81624,0.20137
2109.74471,0.19969
2111.67318,0.19921
2113.60165,0.20060
2115.53012,0.20253
2117.45859,0.20440
2119.38706,0.20580
2121.31553,0.20574
2123.24399,0.20461
2125.17246,0.20426
2127.10093,0.20425
2129.02940,0.20323
2130.95787,0.20281
2132.88634,0.20516
2134.81481,0.21004
2136.74327,0.21234
2138.67174,0.20793
2140.60021,0.20238
2142.52868,0.20020
2144.45715,0.19922
2146.38562,0.19955
2148.31409,0.20088
2150.24255,0.20046
2152.17102,0.19914
2154.09949,0.19944
2156.02796,0.20076
2157.95643,0.20080
2159.88490,0.19989
2161.81337,0.20117
2163.74184,0.20492
2165.67030,0.20676
2167.59877,0.20478
2169.52724,0.20168
2171.45571,0.20095
2173.38418,0.20292
2175.31265,0.20435
2177.24112,0.20363
2179.16958,0.20215
2181.09805,0.20130
2183.02652,0.20105
2184.95499,0.20138
2186.88346,0.20230
2188.81193,0.20299
2190.74040,0.20345
2192.66887,0.20422
2194.59733,0.20447
2196.52580,0.20282
2198.45427,0.20099
2200.38274,0.20106
2202.31121,0.20123
2204.23968,0.20109
2206.16815,0.20178
2208.09661,0.20199
2210.02508,0.20117
2211.95355,0.20062
2213.88202,0.20033
2215.81049,0.20022
2217.73896,0.20146
2219.66743,0.20304
2221.59590,0.20266
2223.52436,0.20150
2225.45283,0.20209
2227.38130,0.20359
2229.30977,0.20434
2231.23824,0.20455
2233.16671,0.20371
2235.09518,0.20206
2237.02364,0.20142
2238.95211,0.20190
2240.88058,0.20274
2242.80905,0.20336
2244.73752,0.20298
2246.66599,0.20207
2248.59446,0.20194
2250.52293,0.20308
2252.45139,0.20433
2254.37986,0.20525
2256.30833,0.20601
2258.23680,0.20535
2260.16527,0.20446
2262.09374,0.20471
2264.02221,0.20519
2265.95067,0.20604
2267.87914,0.20634
2269.80761,0.20527
2271.73608,0.20425
2273.66455,0.20352
2275.59302,0.20240
2277.52149,0.20152
2279.44996,0.20161
2281.37842,0.20350
2283.30689,0.20619
2285.23536,0.20651
2287.16383,0.20489
2289.09230,0.20371
2291.02077,0.20215
2292.94924,0.20010
2294.87770,0.20017
2296.80617,0.20205
2298.73464,0.20334
2300.66311,0.20325
2302.59158,0.20140
2304.52005,0.19991
2306.44852,0.20024
2308.37699,0.19991
2310.30545,0.19852
2312.23392,0.19748
2314.16239,0.19681
2316.09086,0.19644
2318.01933,0.19450
2319.94780,0.18984
2321.87627,0.18779
2323.80473,0.18962
2325.73320,0.18791
2327.66167,0.17995
2329.59014,0.17028
2331.51861,0.16867
2333.44708,0.17618
2335.37555,0.17938
2337.30401,0.17404
2339.23248,0.16559
2341.16095,0.15769
2343.08942,0.16129
2345.01789,0.17749
2346.94636,0.18844
2348.87483,0.18810
2350.80330,0.18043
2352.73176,0.17219
2354.66023,0.16551
2356.58870,0.15625
2358.51717,0.16449
2360.44564,0.18938
2362.37411,0.19605
2364.30258,0.19024
2366.23104,0.18908
2368.15951,0.18939
2370.08798,0.19155
2372.01645,0.19439
2373.94492,0.19547
2375.87339,0.19648
2377.80186,0.19817
2379.73033,0.20041
2381.65879,0.20241
2383.58726,0.20267
2385.51573,0.20137
2387.44420,0.20112
2389.37267,0.20286
2391.30114,0.20403
2393.22961,0.20388
2395.15807,0.20394
2397.08654,0.20462
2399.01501,0.20592
2400.94348,0.20707
2402.87195,0.20710
2404.80042,0.20685
2406.72889,0.20686
2408.65736,0.20585
2410.58582,0.20501
2412.51429,0.20548
2414.44276,0.20438
2416.37123,0.20261
2418.29970,0.20322
2420.22817,0.20458
2422.15664,0.20529
2424.08510,0.20638
2426.01357,0.20718
2427.94204,0.20625
2429.87051,0.20443
2431.79898,0.20339
2433.72745,0.20434
2435.65592,0.20625
2437.58439,0.20692
2439.51285,0.20691
2441.44132,0.20687
2443.36979,0.20535
2445.29826,0.20409
2447.22673,0.20610
2449.15520,0.20617
2451.08367,0.20135
2453.01213,0.19861
2454.94060,0.20031
2456.86907,0.20411
2458.79754,0.20740
2460.72601,0.20695
2462.65448,0.20401
2464.58295,0.20195
2466.51142,0.20188
2468.43988,0.20308
2470.36835,0.20451
2472.29682,0.20506
2474.22529,0.20397
2476.15376,0.20288
2478.08223,0.20346
2480.01070,0.20521
2481.93916,0.20755
2483.86763,0.20972
2485.79610,0.21080
2487.72457,0.21115
2489.65304,0.21053
2491.58151,0.20810
2493.50998,0.20594
2495.43844,0.20627
2497.36691,0.20799
2499.29538,0.20968
2501.22385,0.21029
2503.15232,0.20882
2505.08079,0.20705
2507.00926,0.20775
2508.93773,0.20977
2510.86619,0.21013
2512.79466,0.20883
2514.72313,0.20736
2516.65160,0.20708
2518.58007,0.20911
2520.50854,0.21157
2522.43701,0.21147
2524.36547,0.20912
2526.29394,0.20737
2528.22241,0.20786
2530.15088,0.20916
2532.07935,0.20984
2534.00782,0.20891
2535.93629,0.20653
2537.86476,0.20624
2539.79322,0.20920
2541.72169,0.21157
2543.65016,0.21087
2545.57863,0.20891
2547.50710,0.20830
2549.43557,0.20910
2551.36404,0.20904
2553.29250,0.20798
2555.22097,0.20898
2557.14944,0.21135
2559.07791,0.21112
2561.00638,0.20944
2562.93485,0.21062
2564.86332,0.21315
2566.79179,0.21253
2568.72025,0.21065
2570.64872,0.21078
2572.57719,0.21147
2574.50566,0.21166
2576.43413,0.21201
2578.36260,0.21068
2580.29107,0.20856
2582.21953,0.20889
2584.14800,0.20914
2586.07647,0.20917
2588.00494,0.21172
2589.93341,0.21311
2591.86188,0.21099
2593.79035,0.20933
2595.71882,0.20966
2597.64728,0.20944
2599.57575,0.20910
2601.50422,0.20969
2603.43269,0.20983
2605.36116,0.20995
2607.28963,0.21714
2609.21810,0.23674
2611.14656,0.25192
2613.07503,0.24137
2615.00350,0.21846
2616.93197,0.20996
2618.86044,0.21394
2620.78891,0.21685
2622.71738,0.21726
2624.64585,0.21623
2626.57431,0.21517
2628.50278,0.21543
2630.43125,0.21538
2632.35972,0.21383
2634.28819,0.21223
2636.21666,0.21281
2638.14513,0.21390
2640.07359,0.21337
2642.00206,0.21227
2643.93053,0.21219
2645.85900,0.21335
2647.78747,0.21427
2649.71594,0.21399
2651.64441,0.21357
2653.57288,0.21361
2655.50134,0.21318
2657.42981,0.21289
2659.35828,0.21443
2661.28675,0.21663
2663.21522,0.21698
2665.14369,0.21530
2667.07216,0.21358
2669.00062,0.21315
2670.92909,0.21229
2672.85756,0.21081
2674.78603,0.21089
2676.71450,0.21148
2678.64297,0.21148
2680.57144,0.21238
2682.49990,0.21540
2684.42837,0.21907
2686.35684,0.22080
2688.28531,0.21972
2690.21378,0.21669
2692.14225,0.21436
2694.07072,0.21419
2695.99919,0.21537
2697.92765,0.21673
2699.85612,0.21716
2701.78459,0.21637
2703.71306,0.21547
2705.64153,0.21541
2707.57000,0.21604
2709.49847,0.21708
2711.42693,0.21773
2713.35540,0.21677
2715.28387,0.21526
2717.21234,0.21589
2719.14081,0.21726
2721.06928,0.21638
2722.99775,0.21496
2724.92622,0.21537
2726.85468,0.21672
2728.78315,0.21704
2730.71162,0.21726
2732.64009,0.21900
2734.56856,0.22039
2736.49703,0.22022
2738.42550,0.22031
2740.35396,0.22165
2742.28243,0.22283
2744.21090,0.22315
2746.13937,0.22280
2748.06784,0.22203
2749.99631,0.22207
2751.92478,0.22329
2753.85325,0.22376
2755.78171,0.22258
2757.71018,0.22167
2759.63865,0.22198
2761.56712,0.22414
2763.49559,0.22655
2765.42406,0.22437
2767.35253,0.22095
2769.28099,0.22145
2771.20946,0.22175
2773.13793,0.22010
2775.06640,0.22011
2776.99487,0.22168
2778.92334,0.22257
2780.85181,0.22251
2782.78028,0.22234
2784.70874,0.22260
2786.63721,0.22370
2788.56568,0.22536
2790.49415,0.22589
2792.42262,0.22451
2794.35109,0.22337
2796.27956,0.22414
2798.20802,0.22597
2800.13649,0.22639
2802.06496,0.22408
2803.99343,0.22224
2805.92190,0.22312
2807.85037,0.22301
2809.77884,0.22086
2811.70731,0.22058
2813.63577,0.22204
2815.56424,0.22346
2817.49271,0.22504
2819.42118,0.22507
2821.34965,0.22366
2823.27812,0.22384
2825.20659,0.22542
2827.13505,0.22580
2829.06352,0.22438
2830.99199,0.22341
2832.92046,0.22442
2834.84893,0.22585
2836.77740,0.22597
2838.70587,0.22504
2840.63433,0.22483
2842.56280,0.22584
2844.49127,0.22731
2846.41974,0.22892
2848.34821,0.22915
2850.27668,0.22903
2852.20515,0.23026
2854.13362,0.22951
2856.06208,0.22673
2857.99055,0.22584
2859.91902,0.22569
2861.84749,0.22399
2863.77596,0.22334
2865.70443,0.22493
2867.63290,0.22569
2869.56136,0.22581
2871.48983,0.22767
2873.41830,0.22867
2875.34677,0.22671
2877.27524,0.22505
2879.20371,0.22445
2881.13218,0.22450
2883.06065,0.22645
2884.98911,0.22861
2886.91758,0.22925
2888.84605,0.22828
2890.77452,0.22684
2892.70299,0.22603
2894.63146,0.22512
2896.55993,0.22416
2898.48839,0.22352
2900.41686,0.22368
2902.34533,0.22459
2904.27380,0.22402
2906.20227,0.22290
2908.13074,0.22385
2910.05921,0.22328
2911.98768,0.21961
2913.91614,0.21923
2915.84461,0.22322
2917.77308,0.22510
2919.70155,0.22470
2921.63002,0.22657
2923.55849,0.22897
2925.48696,0.22842
2927.41542,0.22630
2929.34389,0.22533
2931.27236,0.22617
2933.20083,0.22775
2935.12930,0.22833
2937.05777,0.22748
2938.98624,0.22694
2940.91471,0.22548
2942.84317,0.22319
2944.77164,0.22439
2946.70011,0.22698
2948.62858,0.22700
2950.55705,0.22575
2952.48552,0.22440
2954.41399,0.22397
2956.34245,0.22572
2958.27092,0.22781
2960.19939,0.22897
2962.12786,0.23101
2964.05633,0.23385
2965.98480,0.23552
2967.91327,0.23523
2969.84174,0.23317
2971.77020,0.23171
2973.69867,0.23404
2975.62714,0.23689
2977.55561,0.23476
2979.48408,0.23121
2981.41255,0.23135
2983.34102,0.23348
2985.26948,0.23357
2987.19795,0.23170
2989.12642,0.23227
2991.05489,0.23610
2992.98336,0.23878
2994.91183,0.23841
2996.84030,0.23774
2998.76877,0.23859
3000.69723,0.24008
3002.62570,0.24086
3004.55417,0.23957
3006.48264,0.23684
3008.41111,0.23421
3010.33958,0.23189
3012.26805,0.23111
3014.19651,0.23323
3016.12498,0.23634
3018.05345,0.23744
3019.98192,0.23597
3021.91039,0.23377
3023.83886,0.23357
3025.76733,0.23450
3027.69579,0.23327
3029.62426,0.23215
3031.55273,0.23340
3033.48120,0.23352
3035.40967,0.23317
3037.33814,0.23590
3039.26661,0.23865
3041.19508,0.23788
3043.12354,0.23610
3045.05201,0.23509
3046.98048,0.23368
3048.90895,0.23309
3050.83742,0.23407
3052.76589,0.23477
3054.69436,0.23460
3056.62282,0.23428
3058.55129,0.23495
3060.47976,0.23606
3062.40823,0.23450
3064.33670,0.23169
3066.26517,0.23206
3068.19364,0.23433
3070.12211,0.23538
3072.05057,0.23567
3073.97904,0.23644
3075.90751,0.23672
3077.83598,0.23497
3079.76445,0.23233
3081.69292,0.22990
3083.62139,0.22886
3085.54985,0.23100
3087.47832,0.23221
3089.40679,0.22990
3091.33526,0.22904
3093.26373,0.23102
3095.19220,0.23344
3097.12067,0.23561
3099.04914,0.23717
3100.97760,0.23779
3102.90607,0.23724
3104.83454,0.23660
3106.76301,0.23693
3108.69148,0.23662
3110.61995,0.23489
3112.54842,0.23310
3114.47688,0.23170
3116.40535,0.23021
3118.33382,0.22961
3120.26229,0.23353
3122.19076,0.23872
3124.11923,0.23680
3126.04770,0.23029
3127.97617,0.22679
3129.90463,0.22743
3131.83310,0.22993
3133.76157,0.23384
3135.69004,0.23738
3137.61851,0.23675
3139.54698,0.23539
3141.47545,0.23802
3143.40391,0.23967
3145.33238,0.23667
3147.26085,0.23523
3149.18932,0.23702
3151.11779,0.23621
3153.04626,0.23382
3154.97473,0.23362
3156.90320,0.23448
3158.83166,0.23413
3160.76013,0.23140
3162.68860,0.22834
3164.61707,0.22963
3166.54554,0.23411
3168.47401,0.23717
3170.40248,0.23962
3172.33094,0.24065
3174.25941,0.23749
3176.18788,0.23408
3178.11635,0.23499
3180.04482,0.23598
3181.97329,0.23444
3183.90176,0.23630
3185.83022,0.24031
3187.75869,0.23920
3189.68716,0.23371
3191.61563,0.22970
3193.54410,0.23208
3195.47257,0.23924
3197.40104,0.24304
3199.32951,0.24121
3201.25797,0.23908
3203.18644,0.23846
3205.11491,0.23686
3207.04338,0.23596
3208.97185,0.23818
3210.90032,0.24109
3212.82879,0.24526
3214.75725,0.24968
3216.68572,0.24743
3218.61419,0.24014
3220.54266,0.23560
3222.47113,0.23473
3224.39960,0.23456
3226.32807,0.23532
3228.25654,0.23717
3230.18500,0.23770
3232.11347,0.23620
3234.04194,0.23501
3235.97041,0.23424
3237.89888,0.23238
3239.82735,0.23028
3241.75582,0.22895
3243.68428,0.23096
3245.61275,0.23464
3247.54122,0.23534
3249.46969,0.23545
3251.39816,0.23575
3253.32663,0.23378
3255.25510,0.23235
3257.18357,0.23578
3259.11203,0.24026
3261.04050,0.23931
3262.96897,0.23445
3264.89744,0.22953
3266.82591,0.22732
3268.75438,0.22857
3270.68285,0.23042
3272.61131,0.23115
3274.53978,0.23196
3276.46825,0.23305
3278.39672,0.23309
3280.32519,0.23302
3282.25366,0.23277
3284.18213,0.23064
3286.11060,0.22823
3288.03906,0.22847
3289.96753,0.23003
3291.89600,0.22906
3293.82447,0.22797
3295.75294,0.23036
3297.68141,0.23359
3299.60988,0.23419
3301.53834,0.23105
3303.46681,0.22727
3305.39528,0.22721
3307.32375,0.23046
3309.25222,0.23329
3311.18069,0.23191
3313.10916,0.22783
3315.03763,0.22606
3316.96609,0.22765
3318.89456,0.23268
3320.82303,0.23930
3322.75150,0.24077
3324.67997,0.23797
3326.60844,0.23740
3328.53691,0.23627
3330.46537,0.23339
3332.39384,0.23505
3334.32231,0.23995
3336.25078,0.24089
3338.17925,0.23856
3340.10772,0.23830
3342.03619,0.23813
3343.96466,0.23479
3345.89312,0.23217
3347.82159,0.23478
3349.75006,0.24088
3351.67853,0.24394
3353.60700,0.24181
3355.53547,0.23792
3357.46394,0.23574
3359.39240,0.23748
3361.32087,0.23980
3363.24934,0.23943
3365.17781,0.23918
3367.10628,0.23993
3369.03475,0.24038
3370.96322,0.23930
3372.89168,0.23602
3374.82015,0.23462
3376.74862,0.23752
3378.67709,0.24036
3380.60556,0.23940
3382.53403,0.23637
3384.46250,0.23405
3386.39097,0.23290
3388.31943,0.23262
3390.24790,0.23414
3392.17637,0.23721
3394.10484,0.23737
3396.03331,0.23443
3397.96178,0.23169
3399.89025,0.22897
3401.81871,0.22821
3403.74718,0.22855
3405.67565,0.22725
3407.60412,0.22705
3409.53259,0.22670
3411.46106,0.22365
3413.38953,0.22126
3415.31800,0.22223
3417.24646,0.22691
3419.17493,0.23348
3421.10340,0.23805
3423.03187,0.23759
3424.96034,0.23367
3426.88881,0.22955
3428.81728,0.22457
3430.74574,0.21977
3432.67421,0.21858
3434.60268,0.21913
3436.53115,0.21924
3438.45962,0.21911
3440.38809,0.21860
3442.31656,0.22013
3444.24503,0.22355
3446.17349,0.22375
3448.10196,0.22018
3450.03043,0.21745
3451.95890,0.21803
3453.88737,0.21925
3455.81584,0.21648
3457.74431,0.21221
3459.67277,0.21166
3461.60124,0.21294
3463.52971,0.21380
3465.45818,0.21477
3467.38665,0.21364
3469.31512,0.21101
3471.24359,0.21203
3473.17206,0.21444
3475.10052,0.21216
3477.02899,0.20892
3478.95746,0.21107
3480.88593,0.21444
3482.81440,0.21183
3484.74287,0.20939
3486.67134,0.21152
3488.59980,0.21156
3490.52827,0.20861
3492.45674,0.20505
3494.38521,0.20247
3496.31368,0.20271
3498.24215,0.20417
3500.17062,0.20629
3502.09909,0.20754
3504.02755,0.20603
3505.95602,0.20606
3507.88449,0.20778
3509.81296,0.20425
3511.74143,0.19761
3513.66990,0.19534
3515.59837,0.19545
3517.52683,0.19546
3519.45530,0.19664
3521.38377,0.19715
3523.31224,0.19464
3525.24071,0.19286
3527.16918,0.19558
3529.09765,0.19796
3531.02611,0.19458
3532.95458,0.19011
3534.88305,0.18989
3536.81152,0.19024
3538.73999,0.18838
3540.66846,0.18845
3542.59693,0.19142
3544.52540,0.19473
3546.45386,0.19569
3548.38233,0.19373
3550.31080,0.19198
3552.23927,0.18951
3554.16774,0.18379
3556.09621,0.17919
3558.02468,0.17956
3559.95314,0.18181
3561.88161,0.18259
3563.81008,0.18410
3565.73855,0.18638
3567.66702,0.18512
3569.59549,0.18154
3571.52396,0.17903
3573.45243,0.17818
3575.38089,0.17741
3577.30936,0.17481
3579.23783,0.17243
3581.16630,0.17163
3583.09477,0.17179
3585.02324,0.17519
3586.95171,0.17917
3588.88017,0.17373
3590.80864,0.16622
3592.73711,0.16663
3594.66558,0.17158
3596.59405,0.17052
3598.52252,0.16359
3600.45099,0.16044
3602.37946,0.16300
3604.30792,0.16690
3606.23639,0.17032
3608.16486,0.17164
3610.09333,0.17132
3612.02180,0.17265
3613.95027,0.17402
3615.87874,0.17383
3617.80720,0.17264
3619.73567,0.16625
3621.66414,0.15717
3623.59261,0.15479
3625.52108,0.16120
3627.44955,0.17157
3629.37802,0.17341
3631.30649,0.16610
3633.23495,0.16013
3635.16342,0.15793
3637.09189,0.16060
3639.02036,0.16179
3640.94883,0.15690
3642.87730,0.15173
3644.80577,0.15272
3646.73423,0.16226
3648.66270,0.17619
3650.59117,0.17259
3652.51964,0.15911
3654.44811,0.15429
3656.37658,0.15345
3658.30505,0.14870
3660.23352,0.14522
3662.16198,0.14488
3664.09045,0.14452
3666.01892,0.14631
3667.94739,0.15235
3669.87586,0.15513
3671.80433,0.15253
3673.73280,0.15758
3675.66126,0.16289
3677.58973,0.15381
3679.51820,0.14519
3681.44667,0.14306
3683.37514,0.14534
3685.30361,0.15089
3687.23208,0.15845
3689.16055,0.16330
3691.08901,0.15800
3693.01748,0.14734
3694.94595,0.13916
3696.87442,0.13642
3698.80289,0.14056
3700.73136,0.14876
3702.65983,0.15078
3704.58829,0.14425
3706.51676,0.14065
3708.44523,0.14524
3710.37370,0.15249
3712.30217,0.15393
3714.23064,0.15047
3716.15911,0.14655
3718.08757,0.14515
3720.01604,0.14719
3721.94451,0.14985
3723.87298,0.15047
3725.80145,0.14802
3727.72992,0.14529
3729.65839,0.14683
3731.58686,0.15395
3733.51532,0.16429
3735.44379,0.16861
3737.37226,0.16070
3739.30073,0.15116
3741.22920,0.14903
3743.15767,0.15373
3745.08614,0.15656
3747.01460,0.15537
3748.94307,0.15795
3750.87154,0.15943
3752.80001,0.15194
3754.72848,0.14534
3756.65695,0.14271
3758.58542,0.14160
3760.51389,0.14014
3762.44235,0.13968
3764.37082,0.14199
3766.29929,0.14392
3768.22776,0.14392
3770.15623,0.14291
3772.08470,0.13984
3774.01317,0.13826
3775.94163,0.13962
3777.87010,0.14063
3779.79857,0.13848
3781.72704,0.13649
3783.65551,0.13844
3785.58398,0.14105
3787.51245,0.14035
3789.44092,0.13714
3791.36938,0.13430
3793.29785,0.13621
3795.22632,0.14135
3797.15479,0.14385
3799.08326,0.14725
3801.01173,0.15292
3802.94020,0.15143
3804.86866,0.14775
3806.79713,0.14563
3808.72560,0.14029
3810.65407,0.13533
3812.58254,0.13494
3814.51101,0.13807
3816.43948,0.14208
3818.36795,0.14897
3820.29641,0.15731
3822.22488,0.15290
3824.15335,0.14406
3826.08182,0.14164
3828.01029,0.14073
3829.93876,0.14033
3831.86723,0.13990
3833.79569,0.13768
3835.72416,0.13837
3837.65263,0.14809
3839.58110,0.15743
3841.50957,0.15363
3843.43804,0.14238
3845.36651,0.13194
3847.29498,0.12716
3849.22344,0.12792
3851.15191,0.13455
3853.08038,0.14548
3855.00885,0.14426
3856.93732,0.13516
3858.86579,0.12919
3860.79426,0.13097
3862.72272,0.13821
3864.65119,0.13975
3866.57966,0.13697
3868.50813,0.13841
3870.43660,0.14025
3872.36507,0.13562
3874.29354,0.12732
3876.22200,0.11969
3878.15047,0.11934
3880.07894,0.12922
3882.00741,0.13776
3883.93588,0.13662
3885.86435,0.13060
3887.79282,0.12512
3889.72129,0.12375
3891.64975,0.12480
3893.57822,0.12634
3895.50669,0.12989
3897.43516,0.13338
3899.36363,0.13249
3901.29210,0.13287
3903.22057,0.13875
3905.14903,0.13736
3907.07750,0.13006
3909.00597,0.12697
3910.93444,0.12556
3912.86291,0.12313
3914.79138,0.12333
3916.71985,0.12518
3918.64832,0.12275
3920.57678,0.11893
3922.50525,0.11802
3924.43372,0.11783
3926.36219,0.11815
3928.29066,0.11951
3930.21913,0.12017
3932.14760,0.12013
3934.07606,0.12054
3936.00453,0.12083
3937.93300,0.11944
3939.86147,0.11906
3941.78994,0.12270
3943.71841,0.12430
3945.64688,0.12145
3947.57535,0.12124
3949.50381,0.12459
3951.43228,0.12526
3953.36075,0.12044
3955.28922,0.11383
3957.21769,0.11090
3959.14616,0.11319
3961.07463,0.11711
3963.00309,0.11795
3964.93156,0.11564
3966.86003,0.11426
3968.78850,0.11649
3970.71697,0.11984
3972.64544,0.11946
3974.57391,0.11654
3976.50238,0.11518
3978.43084,0.11468
3980.35931,0.11516
3982.28778,0.11570
3984.21625,0.11320
3986.14472,0.11088
3988.07319,0.11111
3990.00166,0.11067
3991.93012,0.10734
3993.85859,0.10381
3995.78706,0.10493
3997.71553,0.10852
3999.64400,0.10942
4001.57247,0.10790
4003.50094,0.10610
4005.42941,0.10583
4007.35787,0.10783
4009.28634,0.10976
4011.21481,0.10918
4013.14328,0.10733
4015.07175,0.10717
4017.00022,0.10810
4018.92869,0.10840
4020.85715,0.10985
4022.78562,0.11154
4024.71409,0.11111
4026.64256,0.10877
4028.57103,0.10616
4030.49950,0.10549
4032.42797,0.10525
4034.35644,0.10528
4036.28490,0.10722
4038.21337,0.10810
4040.14184,0.10607
4042.07031,0.10346
4043.99878,0.10259
4045.92725,0.10352
4047.85572,0.10524
4049.78418,0.10426
4051.71265,0.09971
4053.64112,0.09695
4055.56959,0.09776
4057.49806,0.09901
4059.42653,0.09895
4061.35500,0.09820
4063.28346,0.09764
4065.21193,0.09871
4067.14040,0.10085
4069.06887,0.09927
4070.99734,0.09516
4072.92581,0.09515
4074.85428,0.09843
4076.78275,0.10021
4078.71121,0.10018
4080.63968,0.09939
4082.56815,0.09929
4084.49662,0.09991
4086.42509,0.09781
4088.35356,0.09400
4090.28203,0.09277
4092.21049,0.09396
4094.13896,0.09473
4096.06743,0.09467
4097.99590,0.09613
4099.92437,0.09747
4101.85284,0.09632
4103.78131,0.09515
4105.70978,0.09353
4107.63824,0.09055
4109.56671,0.09026
4111.49518,0.09226
4113.42365,0.09090
4115.35212,0.08700
4117.28059,0.08658
4119.20906,0.08897
4121.13752,0.08925
4123.06599,0.08765
4124.99446,0.08685
4126.92293,0.08601
4128.85140,0.08406
4130.77987,0.08426
4132.70834,0.08796
4134.63681,0.09019
4136.56527,0.08748
4138.49374,0.08296
4140.42221,0.08063
4142.35068,0.08166
4144.27915,0.08503
4146.20762,0.08616
4148.13609,0.08213
4150.06455,0.07805
4151.99302,0.08029
4153.92149,0.08520
4155.84996,0.08580
4157.77843,0.08567
4159.70690,0.08677
4161.63537,0.08351
4163.56384,0.07791
4165.49230,0.07697
4167.42077,0.07978
4169.34924,0.08090
4171.27771,0.08062
4173.20618,0.08116
4175.13465,0.08218
4177.06312,0.08277
4178.99158,0.08038
4180.92005,0.07576
4182.84852,0.07395
4184.77699,0.07514
4186.70546,0.07622
4188.63393,0.07622
4190.56240,0.07318
4192.49087,0.06755
4194.41933,0.06512
4196.34780,0.06883
4198.27627,0.07362
4200.20474,0.07085
4202.13321,0.06416
4204.06168,0.06510
4205.99015,0.07037
4207.91861,0.07267
4209.84708,0.07378
4211.77555,0.07267
4213.70402,0.06682
4215.63249,0.06141
4217.56096,0.06276
4219.48943,0.06810
4221.41789,0.07159
4223.34636,0.07121
4225.27483,0.06689
4227.20330,0.06238
4229.13177,0.06148
4231.06024,0.06336
4232.98871,0.06428
4234.91718,0.05988
4236.84564,0.05326
4238.77411,0.05148
4240.70258,0.05272
4242.63105,0.05437
4244.55952,0.05859
4246.48799,0.06310
4248.41646,0.06501
4250.34492,0.06704
4252.27339,0.07126
4254.20186,0.07201
4256.13033,0.06615
4258.05880,0.06147
4259.98727,0.05970
4261.91574,0.05499
4263.84421,0.05128
4265.77267,0.05533
4267.70114,0.06194
4269.62961,0.06283
4271.55808,0.05947
4273.48655,0.05705
4275.41502,0.05556
4277.34349,0.05288
4279.27195,0.05189
4281.20042,0.05586
4283.12889,0.05945
4285.05736,0.05811
4286.98583,0.05521
4288.91430,0.05106
4290.84277,0.04627
4292.77124,0.04625
4294.69970,0.05026
4296.62817,0.05105
4298.55664,0.04719
4300.48511,0.04634
4302.41358,0.04966
4304.34205,0.05090
4306.27052,0.05045
4308.19898,0.05057
4310.12745,0.04838
4312.05592,0.04386
4313.98439,0.04066
4315.91286,0.03804
4317.84133,0.03829
4319.76980,0.04436
4321.69827,0.04833
4323.62673,0.04662
4325.55520,0.04494
4327.48367,0.04594
4329.41214,0.04732
4331.34061,0.04315
4333.26908,0.03388
4335.19755,0.02984
4337.12601,0.03266
4339.05448,0.03543
4340.98295,0.03733
4342.91142,0.03915
4344.83989,0.04033
4346.76836,0.04220
4348.69683,0.04198
4350.62530,0.03814
4352.55376,0.03976
4354.48223,0.04700
4356.41070,0.04815
4358.33917,0.04356
4360.26764,0.03718
4362.19611,0.02833
4364.12458,0.01985
4366.05304,0.01486
4367.98151,0.01737
4369.90998,0.02579
4371.83845,0.03168
4373.76692,0.03314
4375.69539,0.03101
4377.62386,0.02807
4379.55232,0.02873
4381.48079,0.02762
4383.40926,0.02321
4385.33773,0.02462
4387.26620,0.03052
4389.19467,0.03269
4391.12314,0.03073
4393.05161,0.02679
4394.98007,0.02231
4396.90854,0.02135
4398.83701,0.02488
4400.76548,0.02643
4402.69395,0.02434
4404.62242,0.02377
4406.55089,0.02313
4408.47935,0.01976
4410.40782,0.01851
4412.33629,0.02238
4414.26476,0.02637
4416.19323,0.02719
4418.12170,0.02708
4420.05017,0.02615
4421.97864,0.02425
4423.90710,0.02158
4425.83557,0.01588
4427.76404,0.00893
4429.69251,0.00770
4431.62098,0.01297
4433.54945,0.01518
4435.47792,0.00935
4437.40638,0.00478
4439.33485,0.00896
4441.26332,0.01470
4443.19179,0.01485
4445.12026,0.01267
4447.04873,0.01242
4448.97720,0.01343
4450.90567,0.01357
4452.83413,0.01214
4454.76260,0.01075
4456.69107,0.01198
4458.61954,0.01440
4460.54801,0.01460
4462.47648,0.01262
4464.40495,0.01079
4466.33341,0.01002
4468.26188,0.01040
4470.19035,0.01285
4472.11882,0.01590
4474.04729,0.01540
4475.97576,0.01214
4477.90423,0.01181
4479.83270,0.01170
4481.76116,0.00816
4483.68963,0.00744
4485.61810,0.01062
4487.54657,0.01067
4489.47504,0.00547
4491.40351,0.00038
4493.33198,0.00183
4495.26044,0.00838
4497.18891,0.01169
4499.11738,0.00804
4501.04585,0.00386
4502.97432,0.00455
4504.90279,0.00577
4506.83126,0.00791
4508.75973,0.01618
4510.68819,0.02359
4512.61666,0.02334
4514.54513,0.01731
4516.47360,0.00788
4518.40207,-0.00395
4520.33054,-0.01345
4522.25901,-0.01193
4524.18747,-0.00394
4526.11594,0.00082
4528.04441,0.00453
4529.97288,0.00842
4531.90135,0.00703
4533.82982,0.00124
4535.75829,0.00069
4537.68676,0.00647
4539.61522,0.00884
4541.54369,0.00349
4543.47216,-0.00334
4545.40063,-0.00322
4547.32910,0.00244
4549.25757,0.00376
4551.18604,0.00054
4553.11450,0.00002
4555.04297,0.00024
4556.97144,0.00150
4558.89991,0.00539
4560.82838,0.00239
4562.75685,-0.00651
4564.68532,-0.00739
4566.61378,-0.00005
4568.54225,0.00398
4570.47072,0.00401
4572.39919,0.00520
4574.32766,0.00574
4576.25613,0.00318
4578.18460,-0.00071
4580.11307,-0.00190
4582.04153,-0.00143
4583.97000,-0.00349
4585.89847,-0.00527
4587.82694,-0.00345
4589.75541,0.00167
4591.68388,0.00683
4593.61235,0.00819
4595.54081,0.00927
4597.46928,0.01143
4599.39775,0.01364
4601.32622,0.01612
4603.25469,0.01440
4605.18316,0.00528
4607.11163,-0.00090
4609.04010,0.00052
4610.96856,0.00406
4612.89703,0.00571
4614.82550,0.00551
4616.75397,0.00261
4618.68244,-0.00175
4620.61091,-0.00069
4622.53938,0.00312
4624.46784,0.00227
4626.39631,-0.00044
4628.32478,-0.00106
4630.25325,-0.00240
4632.18172,-0.00672
4634.11019,-0.00923
4636.03866,-0.00420
4637.96713,0.00687
4639.89559,0.01189
4641.82406,0.00480
4643.75253,-0.00263
4645.68100,-0.00120
4647.60947,0.00545
4649.53794,0.00805
4651.46641,0.00385
4653.39487,0.00003
4655.32334,0.00291
4657.25181,0.00999
4659.18028,0.01146
4661.10875,0.00272
4663.03722,-0.00813
4664.96569,-0.00504
4666.89416,0.01144
4668.82262,0.02242
4670.75109,0.01870
4672.67956,0.01018
4674.60803,0.00995
4676.53650,0.01406
4678.46497,0.01036
4680.39344,0.00030
4682.32190,-0.00681
4684.25037,-0.00499
4686.17884,0.00272
4688.10731,0.00888
4690.03578,0.01236
4691.96425,0.01332
4693.89272,0.00848
4695.82119,-0.00013
4697.74965,-0.00335
4699.67812,0.00362
4701.60659,0.00974
4703.53506,0.00584
4705.46353,0.00315
4707.39200,0.00662
4709.32047,0.00784
4711.24893,0.00488
4713.17740,0.00126
4715.10587,-0.00092
4717.03434,-0.00072
4718.96281,0.00110
4720.89128,-0.00016
4722.81975,-0.00104
4724.74821,0.00598
4726.67668,0.01348
4728.60515,0.01106
4730.53362,0.00170
4732.46209,-0.00289
4734.39056,0.00046
4736.31903,0.00136
4738.24750,-0.00395
4740.17596,-0.00801
4742.10443,-0.00450
4744.03290,0.00590
4745.96137,0.01411
4747.88984,0.01395
4749.81831,0.00772
4751.74678,0.00036
4753.67524,-0.00040
4755.60371,0.00787
4757.53218,0.01929
4759.46065,0.02599
4761.38912,0.02123
4763.31759,0.00814
4765.24606,-0.00278
4767.17453,-0.00658
4769.10299,-0.00150
4771.03146,0.00530
4772.95993,0.00381
4774.88840,-0.00036
4776.81687,0.00052
4778.74534,0.00515
4780.67381,0.00514
4782.60227,-0.00069
4784.53074,-0.00141
4786.45921,0.00250
4788.38768,0.00280
4790.31615,-0.00035
4792.24462,0.00261
4794.17309,0.01391
4796.10156,0.01991
4798.03002,0.01466
4799.95849,0.00584
4801.88696,-0.00129
4803.81543,-0.00666
4805.74390,-0.01188
4807.67237,-0.01572
4809.60084,-0.01511
4811.52930,-0.01135
4813.45777,-0.00506
4815.38624,0.00329
4817.31471,0.01253
4819.24318,0.01417
4821.17165,0.00276
4823.10012,-0.00528
4825.02859,-0.00118
4826.95705,0.00474
4828.88552,0.00605
4830.81399,0.00343
4832.74246,0.00365
4834.67093,0.00700
4836.59940,0.00813
4838.52787,0.00936
4840.45633,0.01040
4842.38480,0.01124
4844.31327,0.01457
4846.24174,0.01242
4848.17021,0.00184
4850.09868,-0.00509
4852.02715,-0.00400
4853.95562,0.00131
4855.88408,0.00460
4857.81255,0.00318
4859.74102,0.00121
4861.66949,-0.00141
4863.59796,-0.00351
4865.52643,-0.00005
4867.45490,0.00404
4869.38336,0.00204
4871.31183,-0.00011
4873.24030,0.00427
4875.16877,0.00865
4877.09724,0.00198
4879.02571,-0.01035
4880.95418,-0.01128
4882.88265,-0.00635
4884.81111,-0.00823
4886.73958,-0.00923
4888.66805,-0.00341
4890.59652,0.00838
4892.52499,0.01860
4894.45346,0.01770
4896.38193,0.01218
4898.31039,0.00956
4900.23886,0.00819
4902.16733,0.00587
4904.09580,0.00313
4906.02427,0.00302
4907.95274,0.00506
4909.88121,0.00713
4911.80967,0.00608
4913.73814,0.00071
4915.66661,0.00138
4917.59508,0.01006
4919.52355,0.01298
4921.45202,0.00833
4923.38049,0.00677
4925.30896,0.00901
4927.23742,0.01093
4929.16589,0.01270
4931.09436,0.01087
4933.02283,0.00452
4934.95130,-0.00041
4936.87977,0.00041
4938.80824,0.00607
4940.73670,0.01049
4942.66517,0.01220
4944.59364,0.01381
4946.52211,0.01303
4948.45058,0.00625
4950.37905,-0.00448
4952.30752,-0.01245
4954.23599,-0.01004
4956.16445,0.00661
4958.09292,0.02785
4960.02139,0.03367
4961.94986,0.01993
4963.87833,0.00589
4965.80680,0.00376
4967.73527,0.00925
4969.66373,0.01519
4971.59220,0.01676
4973.52067,0.01535
4975.44914,0.01317
4977.37761,0.01148
4979.30608,0.01052
4981.23455,0.01164
4983.16302,0.02122
4985.09148,0.02713
4987.01995,0.01370
4988.94842,0.00151
4990.87689,0.00631
4992.80536,0.00899
4994.73383,0.01084
4996.66230,0.02517
4998.59076,0.03472
5000.51923,0.02995
5002.44770,0.01792
5004.37617,0.00622
5006.30464,0.00393
5008.23311,0.00388
5010.16158,-0.00182
5012.09005,-0.00097
5014.01851,0.00956
5015.94698,0.01414
5017.87545,0.00697
5019.80392,0.00002
5021.73239,0.00446
5023.66086,0.01601
5025.58933,0.02244
5027.51779,0.01819
5029.44626,0.00904
5031.37473,0.00439
5033.30320,0.00503
5035.23167,0.00777
5037.16014,0.01427
5039.08861,0.02377
5041.01708,0.02788
5042.94554,0.02131
5044.87401,0.00941
5046.80248,0.00236
5048.73095,0.00385
5050.65942,0.00874
5052.58789,0.01664
5054.51636,0.02267
5056.44482,0.01618
5058.37329,0.00771
5060.30176,0.00768
5062.23023,0.00542
5064.15870,0.00326
5066.08717,0.00872
5068.01564,0.01151
5069.94410,0.01100
5071.87257,0.01420
5073.80104,0.01733
5075.72951,0.01658
5077.65798,0.01133
5079.58645,0.00696
5081.51492,0.00893
5083.44339,0.01702
5085.37185,0.02996
5087.30032,0.03568
5089.22879,0.02648
5091.15726,0.01725
5093.08573,0.01533
5095.01420,0.01421
5096.94267,0.01755
5098.87113,0.02585
5100.79960,0.02842
5102.72807,0.02277
5104.65654,0.01340
5106.58501,0.00971
5108.51348,0.02093
5110.44195,0.03283
5112.37042,0.02962
5114.29888,0.02444
5116.22735,0.02553
5118.15582,0.02287
5120.08429,0.01804
5122.01276,0.01764
5123.94123,0.01918
5125.86970,0.02464
5127.79816,0.03325
5129.72663,0.03590
5131.65510,0.03136
5133.58357,0.02262
5135.51204,0.01740
5137.44051,0.02528
5139.36898,0.04407
5141.29745,0.06485
5143.22591,0.07821
5145.15438,0.07361
5147.08285,0.05148
5149.01132,0.03352
5150.93979,0.03058
5152.86826,0.02537
5154.79673,0.01750
5156.72519,0.02506
5158.65366,0.03500
5160.58213,0.02611
5162.51060,0.00750
5164.43907,-0.00324
5166.36754,0.00107
5168.29601,0.01628
5170.22448,0.02800
5172.15294,0.02650
5174.08141,0.01839
5176.00988,0.01041
5177.93835,0.00960
5179.86682,0.01833
5181.79529,0.02273
5183.72376,0.02251
5185.65222,0.03047
5187.58069,0.04054
5189.50916,0.04258
5191.43763,0.03783
5193.36610,0.02803
5195.29457,0.01544
5197.22304,0.01006
5199.15151,0.01988
5201.07997,0.03452
5203.00844,0.03822
5204.93691,0.03118
5206.86538,0.02976
5208.79385,0.03819
5210.72232,0.04031
5212.65079,0.03378
5214.57925,0.03159
5216.50772,0.03841
5218.43619,0.04522
5220.36466,0.04868
5222.29313,0.05066
5224.22160,0.04559
5226.15007,0.03523
5228.07854,0.02916
5230.00700,0.02844
5231.93547,0.03011
5233.86394,0.03140
5235.79241,0.03680
5237.72088,0.04524
5239.64935,0.04709
5241.57782,0.04990
5243.50628,0.05312
5245.43475,0.04289
5247.36322,0.03248
5249.29169,0.03441
5251.22016,0.04366
5253.14863,0.05713
5255.07710,0.06135
5257.00556,0.04652
5258.93403,0.03507
5260.86250,0.04518
5262.79097,0.05741
5264.71944,0.05348
5266.64791,0.04822
5268.57638,0.05131
5270.50485,0.05253
5272.43331,0.04627
5274.36178,0.03820
5276.29025,0.03260
5278.21872,0.02858
5280.14719,0.02161
5282.07566,0.01630
5284.00413,0.01729
5285.93259,0.02507
5287.86106,0.04505
5289.78953,0.06395
5291.71800,0.06221
5293.64647,0.04853
5295.57494,0.03674
5297.50341,0.03232
5299.43188,0.03758
5301.36034,0.04335
5303.28881,0.03894
5305.21728,0.02779
5307.14575,0.01913
5309.07422,0.01949
5311.00269,0.02645
5312.93116,0.03710
5314.85962,0.04641
5316.78809,0.03922
5318.71656,0.02572
5320.64503,0.02477
5322.57350,0.02565
5324.50197,0.03352
5326.43044,0.05891
5328.35891,0.07109
5330.28737,0.06018
5332.21584,0.05282
5334.14431,0.05541
5336.07278,0.05676
5338.00125,0.05036
5339.92972,0.03727
5341.85819,0.02463
5343.78665,0.02337
5345.71512,0.03770
5347.64359,0.04736
5349.57206,0.04360
5351.50053,0.04052
5353.42900,0.04478
5355.35747,0.05100
5357.28594,0.05515
5359.21440,0.05243
5361.14287,0.04868
5363.07134,0.05197
5364.99981,0.05195
5366.92828,0.04261
5368.85675,0.03623
5370.78522,0.04202
5372.71368,0.05334
5374.64215,0.05991
5376.57062,0.05924
5378.49909,0.05791
5380.42756,0.06464
5382.35603,0.07684
5384.28450,0.08453
5386.21297,0.08082
5388.14143,0.07774
5390.06990,0.08935
5391.99837,0.09733
5393.92684,0.08082
5395.85531,0.06299
5397.78378,0.06889
5399.71225,0.08290
5401.64071,0.08684
5403.56918,0.08443
5405.49765,0.07725
5407.42612,0.06637
5409.35459,0.06295
5411.28306,0.06697
5413.21153,0.07210
5415.13999,0.07115
5417.06846,0.05947
5418.99693,0.04968
5420.92540,0.05164
5422.85387,0.05252
5424.78234,0.05129
5426.71081,0.05573
5428.63928,0.04886
5430.56774,0.03365
5432.49621,0.03425
5434.42468,0.04821
5436.35315,0.06034
5438.28162,0.06116
5440.21009,0.05438
5442.13856,0.05286
5444.06702,0.06001
5445.99549,0.07117
5447.92396,0.08017
5449.85243,0.07140
5451.78090,0.04806
5453.70937,0.03400
5455.63784,0.04603
5457.56631,0.07289
5459.49477,0.07875
5461.42324,0.06362
5463.35171,0.05295
5465.28018,0.05157
5467.20865,0.04999
5469.13712,0.04692
5471.06559,0.05074
5472.99405,0.06302
5474.92252,0.07456
5476.85099,0.07090
5478.77946,0.05480
5480.70793,0.04592
5482.63640,0.05491
5484.56487,0.06980
5486.49334,0.07760
5488.42180,0.08049
5490.35027,0.08340
5492.27874,0.08419
5494.20721,0.08136
5496.13568,0.08656
5498.06415,0.09580
5499.99262,0.08970
5501.92108,0.07215
5503.84955,0.06200
5505.77802,0.06561
5507.70649,0.07352
5509.63496,0.07888
5511.56343,0.08714
5513.49190,0.08905
5515.42037,0.07886
5517.34883,0.07289
5519.27730,0.07499
5521.20577,0.07986
5523.13424,0.07700
5525.06271,0.06334
5526.99118,0.06359
5528.91965,0.07089
5530.84811,0.06154
5532.77658,0.05398
5534.70505,0.05642
5536.63352,0.05337
5538.56199,0.04696
5540.49046,0.05057
5542.41893,0.06361
5544.34740,0.06902
5546.27586,0.06851
5548.20433,0.08219
5550.13280,0.09305
5552.06127,0.08219
5553.98974,0.07168
5555.91821,0.07009
5557.84668,0.06895
5559.77514,0.07209
5561.70361,0.07525
5563.63208,0.07478
5565.56055,0.07483
5567.48902,0.07359
5569.41749,0.07522
5571.34596,0.08253
5573.27443,0.08050
5575.20289,0.06402
5577.13136,0.05004
5579.05983,0.04706
5580.98830,0.04937
5582.91677,0.05257
5584.84524,0.06588
5586.77371,0.08824
5588.70217,0.09817
5590.63064,0.09212
5592.55911,0.08936
5594.48758,0.09518
5596.41605,0.09419
5598.34452,0.08491
5600.27299,0.08847
5602.20145,0.10368
5604.12992,0.11152
5606.05839,0.10867
5607.98686,0.09348
5609.91533,0.07236
5611.84380,0.05952
5613.77227,0.05214
5615.70074,0.07312
5617.62920,0.13395
5619.55767,0.15618
5621.48614,0.09023
5623.41461,0.01519
5625.34308,0.01642
5627.27155,0.05236
5629.20002,0.05135
5631.12848,0.03841
5633.05695,0.03953
5634.98542,0.04481
5636.91389,0.04768
5638.84236,0.04871
5640.77083,0.05155
5642.69930,0.05862
5644.62777,0.07106
5646.55623,0.08932
5648.48470,0.11129
5650.41317,0.11478
5652.34164,0.09138
5654.27011,0.07006
5656.19858,0.06737
5658.12705,0.07202
5660.05551,0.06962
5661.98398,0.06847
5663.91245,0.06864
5665.84092,0.05423
5667.76939,0.04571
5669.69786,0.05902
5671.62633,0.07087
5673.55480,0.07788
5675.48326,0.08921
5677.41173,0.08574
5679.34020,0.06977
5681.26867,0.06992
5683.19714,0.07928
5685.12561,0.07540
5687.05408,0.06777
5688.98254,0.06770
5690.91101,0.06551
5692.83948,0.06474
5694.76795,0.07261
5696.69642,0.08029
5698.62489,0.08050
5700.55336,0.07038
5702.48183,0.06409
5704.41029,0.07995
5706.33876,0.09298
5708.26723,0.08136
5710.19570,0.07109
5712.12417,0.08000
5714.05264,0.09150
5715.98111,0.09417
5717.90957,0.09631
5719.83804,0.09314
5721.76651,0.07806
5723.69498,0.06742
5725.62345,0.07608
5727.55192,0.10020
5729.48039,0.11807
5731.40886,0.11986
5733.33732,0.10894
5735.26579,0.08325
5737.19426,0.05485
5739.12273,0.03907
5741.05120,0.03533
5742.97967,0.03836
5744.90814,0.05518
5746.83660,0.08754
5748.76507,0.10850
5750.69354,0.10306
5752.62201,0.08295
5754.55048,0.05686
5756.47895,0.04705
5758.40742,0.07479
5760.33588,0.11903
5762.26435,0.14021
5764.19282,0.13149
5766.12129,0.11967
5768.04976,0.11708
5769.97823,0.11567
5771.90670,0.11154
5773.83517,0.09795
5775.76363,0.07694
5777.69210,0.06313
5779.62057,0.05742
5781.54904,0.05715
5783.47751,0.07123
5785.40598,0.09515
5787.33445,0.10374
5789.26291,0.09529
5791.19138,0.09202
5793.11985,0.09935
5795.04832,0.10682
5796.97679,0.10775
5798.90526,0.10538
5800.83373,0.10257
5802.76220,0.10297
5804.69066,0.10264
5806.61913,0.08642
5808.54760,0.05541
5810.47607,0.03211
5812.40454,0.03745
5814.33301,0.05953
5816.26148,0.07889
5818.18994,0.09813
5820.11841,0.11276
5822.04688,0.10046
5823.97535,0.06915
5825.90382,0.06214
5827.83229,0.08058
5829.76076,0.09072
5831.68923,0.08121
5833.61769,0.06551
5835.54616,0.07072
5837.47463,0.09106
5839.40310,0.09556
5841.33157,0.08315
5843.26004,0.06641
5845.18851,0.05729
5847.11697,0.06441
5849.04544,0.07725
5850.97391,0.08637
5852.90238,0.08944
5854.83085,0.08623
5856.75932,0.09155
5858.68779,0.10602
5860.61626,0.10839
5862.54472,0.09403
5864.47319,0.08314
5866.40166,0.08907
5868.33013,0.10173
5870.25860,0.11023
5872.18707,0.11144
5874.11554,0.11258
5876.04400,0.11528
5877.97247,0.10666
5879.90094,0.09729
5881.82941,0.09631
5883.75788,0.08330
5885.68635,0.07184
5887.61482,0.08916
5889.54329,0.10240
5891.47175,0.09314
5893.40022,0.09145
5895.32869,0.10076
5897.25716,0.10544
5899.18563,0.09982
5901.11410,0.08707
5903.04257,0.07223
5904.97103,0.07275
5906.89950,0.09761
5908.82797,0.10825
5910.75644,0.08734
5912.68491,0.07012
5914.61338,0.06503
5916.54185,0.07100
5918.47032,0.08712
5920.39878,0.08670
5922.32725,0.08450
5924.25572,0.10035
5926.18419,0.10318
5928.11266,0.08681
5930.04113,0.08460
5931.96960,0.11410
5933.89806,0.12854
5935.82653,0.09547
5937.75500,0.08011
5939.68347,0.10693
5941.61194,0.13553
5943.54041,0.14817
5945.46888,0.14440
5947.39734,0.12215
5949.32581,0.09969
5951.25428,0.09448
5953.18275,0.09007
5955.11122,0.08673
5957.03969,0.09571
5958.96816,0.10004
5960.89663,0.08378
5962.82509,0.06083
5964.75356,0.05270
5966.68203,0.06251
5968.61050,0.07349
5970.53897,0.07555
5972.46744,0.08432
5974.39591,0.10239
5976.32437,0.10721
5978.25284,0.09449
5980.18131,0.07684
5982.10978,0.06352
5984.03825,0.06600
5985.96672,0.08831
5987.89519,0.10526
5989.82366,0.09577
5991.75212,0.08193
5993.68059,0.08619
5995.60906,0.08519
5997.53753,0.06008
5999.46600,0.03702
6001.39447,0.04194
6003.32294,0.08271
6005.25140,0.13997
6007.17987,0.16633
6009.10834,0.13288
6011.03681,0.07430
6012.96528,0.05179
6014.89375,0.06539
6016.82222,0.06961
6018.75069,0.05624
6020.67915,0.05823
6022.60762,0.08137
6024.53609,0.10610
6026.46456,0.11848
6028.39303,0.11048
6030.32150,0.09985
6032.24997,0.11255
6034.17843,0.12673
6036.10690,0.11972
6038.03537,0.11606
6039.96384,0.11843
6041.89231,0.10409
6043.82078,0.07880
6045.74925,0.06567
6047.67772,0.06958
6049.60618,0.07312
6051.53465,0.06276
6053.46312,0.05669
6055.39159,0.08075
6057.32006,0.11358
6059.24853,0.11778
6061.17700,0.11122
6063.10546,0.11094
6065.03393,0.10284
6066.96240,0.09408
6068.89087,0.08920
6070.81934,0.07559
6072.74781,0.05687
6074.67628,0.05022
6076.60475,0.06613
6078.53321,0.08274
6080.46168,0.07636
6082.39015,0.07576
6084.31862,0.09833
6086.24709,0.12854
6088.17556,0.15854
6090.10403,0.15053
6092.03249,0.09472
6093.96096,0.05081
6095.88943,0.04145
6097.81790,0.04849
6099.74637,0.04782
6101.67484,0.02954
6103.60331,0.03561
6105.53177,0.06231
6107.46024,0.06283
6109.38871,0.06278
6111.31718,0.09221
6113.24565,0.11059
6115.17412,0.09414
6117.10259,0.06346
6119.03106,0.03719
6120.95952,0.02108
6122.88799,0.02189
6124.81646,0.02958
6126.74493,0.02425
6128.67340,0.01865
6130.60187,0.03319
6132.53034,0.04992
6134.45880,0.06753
6136.38727,0.09881
6138.31574,0.12044
6140.24421,0.12980
6142.17268,0.14169
6144.10115,0.12207
6146.02962,0.06782
6147.95809,0.03104
6149.88655,0.03836
6151.81502,0.08945
6153.74349,0.13658
6155.67196,0.12436
6157.60043,0.08323
6159.52890,0.05436
6161.45737,0.05572
6163.38583,0.08631
6165.31430,0.09569
6167.24277,0.08045
6169.17124,0.07082
6171.09971,0.06432
6173.02818,0.06860
6174.95665,0.08211
6176.88512,0.09768
6178.81358,0.11303
6180.74205,0.10387
6182.67052,0.08324
6184.59899,0.08524
6186.52746,0.09738
6188.45593,0.10097
6190.38440,0.08936
6192.31286,0.05908
6194.24133,0.03257
6196.16980,0.03021
6198.09827,0.03331
6200.02674,0.04017
6201.95521,0.06192
6203.88368,0.08872
6205.81215,0.12182
6207.74061,0.13433
6209.66908,0.10624
6211.59755,0.07840
6213.52602,0.07510
6215.45449,0.08256
6217.38296,0.07313
6219.31143,0.05345
6221.23989,0.04668
6223.16836,0.03859
6225.09683,0.02679
6227.02530,0.04246
6228.95377,0.08060
6230.88224,0.08817
6232.81071,0.05970
6234.73918,0.04069
6236.66764,0.05911
6238.59611,0.09722
6240.52458,0.10854
6242.45305,0.09668
6244.38152,0.07966
6246.30999,0.06323
6248.23846,0.05678
6250.16692,0.05011
6252.09539,0.03916
6254.02386,0.01969
6255.95233,0.01185
6257.88080,0.04780
6259.80927,0.08697
6261.73774,0.07872
6263.66621,0.05041
6265.59467,0.05382
6267.52314,0.07048
6269.45161,0.05473
6271.38008,0.02811
6273.30855,0.02014
6275.23702,0.02142
6277.16549,0.03294
6279.09395,0.04999
6281.02242,0.04639
6282.95089,0.03378
6284.87936,0.03352
6286.80783,0.03562
6288.73630,0.03828
6290.66477,0.05476
6292.59323,0.08465
6294.52170,0.11806
6296.45017,0.14049
6298.37864,0.13227
6300.30711,0.09263
6302.23558,0.05052
6304.16405,0.02693
6306.09252,0.01829
6308.02098,0.01641
6309.94945,0.01308
6311.87792,0.02438
6313.80639,0.05440
6315.73486,0.06544
6317.66333,0.04864
6319.59180,0.04162
6321.52026,0.04570
6323.44873,0.03709
6325.37720,0.03408
6327.30567,0.04177
6329.23414,0.04933
6331.16261,0.06090
6333.09108,0.05652
6335.01955,0.02879
6336.94801,0.01640
6338.87648,0.02326
6340.80495,0.02336
6342.73342,0.03610
6344.66189,0.07586
6346.59036,0.10362
6348.51883,0.11191
6350.44729,0.11604
6352.37576,0.09981
6354.30423,0.10302
6356.23270,0.14589
6358.16117,0.18069
6360.08964,0.18068
6362.01811,0.14898
6363.94658,0.11405
6365.87504,0.09366
6367.80351,0.06367
6369.73198,0.03981
6371.66045,0.05109
6373.58892,0.08478
6375.51739,0.09791
6377.44586,0.07767
6379.37432,0.06351
6381.30279,0.05409
6383.23126,0.03020
6385.15973,0.02446
6387.08820,0.03150
6389.01667,0.04711
6390.94514,0.07990
6392.87361,0.07462
6394.80207,0.03447
6396.73054,0.02579
6398.65901,0.03094
6400.58748,0.02955
6402.51595,0.05019
6404.44442,0.10784
6406.37289,0.16173
6408.30135,0.17556
6410.22982,0.18739
6412.15829,0.20757
6414.08676,0.17916
6416.01523,0.10438
6417.94370,0.06302
6419.87217,0.09569
6421.80064,0.10788
6423.72910,0.06629
6425.65757,0.04530
6427.58604,0.04326
6429.51451,0.01622
6431.44298,-0.00715
6433.37145,0.00117
6435.29992,0.03660
6437.22838,0.07719
6439.15685,0.08539
6441.08532,0.07134
6443.01379,0.04947
6444.94226,0.00953
6446.87073,-0.01457
6448.79920,-0.00247
6450.72766,0.01300
6452.65613,0.01678
6454.58460,0.02074
6456.51307,0.03499
6458.44154,0.05199
6460.37001,0.03657
6462.29848,-0.00893
6464.22695,-0.00691
6466.15541,0.06247
6468.08388,0.11380
6470.01235,0.09905
6471.94082,0.05254
6473.86929,0.04035
6475.79776,0.07759
6477.72623,0.10582
6479.65469,0.08862
6481.58316,0.04233
6483.51163,0.01549
6485.44010,0.03602
6487.36857,0.06856
6489.29704,0.07178
6491.22551,0.06606
6493.15398,0.06816
6495.08244,0.04677
6497.01091,0.02223
6498.93938,0.01904
6500.86785,0.01614
6502.79632,0.00406
6504.72479,0.01111
6506.65326,0.04667
6508.58172,0.06408
6510.51019,0.04803
6512.43866,0.05138
6514.36713,0.09065
6516.29560,0.13031
6518.22407,0.13515
6520.15254,0.10837
6522.08101,0.09816
6524.00947,0.11775
6525.93794,0.12914
6527.86641,0.12939
6529.79488,0.12403
6531.72335,0.09730
6533.65182,0.05986
6535.58029,0.05488
6537.50875,0.10208
6539.43722,0.15430
6541.36569,0.14881
6543.29416,0.10171
6545.22263,0.08959
6547.15110,0.10754
6549.07957,0.10894
6551.00804,0.09751
6552.93650,0.09137
6554.86497,0.10271
6556.79344,0.12016
6558.72191,0.11287
6560.65038,0.09292
6562.57885,0.08938
6564.50732,0.09221
6566.43578,0.09621
6568.36425,0.13061
6570.29272,0.16314
6572.22119,0.13849
6574.14966,0.10814
6576.07813,0.12066
6578.00660,0.15175
6579.93507,0.17441
6581.86353,0.16714
6583.79200,0.12546
6585.72047,0.06674
6587.64894,0.01274
6589.57741,-0.00129
6591.50588,0.04329
6593.43435,0.11198
6595.36281,0.11280
6597.29128,0.03130
6599.21975,-0.02540
6601.14822,-0.00305
6603.07669,0.00671
6605.00516,-0.00539
6606.93363,0.04056
6608.86210,0.10631
6610.79056,0.12576
6612.71903,0.11634
6614.64750,0.10822
6616.57597,0.11155
6618.50444,0.10055
6620.43291,0.06117
6622.36138,0.03163
6624.28984,0.04189
6626.21831,0.07513
6628.14678,0.09934
6630.07525,0.12820
6632.00372,0.15384
6633.93219,0.12360
6635.86066,0.06605
6637.78912,0.03675
6639.71759,0.04165
6641.64606,0.05860
6643.57453,0.05561
6645.50300,0.04581
6647.43147,0.03113
6649.35994,0.00177
6651.28841,-0.00029
6653.21687,0.01504
6655.14534,0.02685
6657.07381,0.10046
6659.00228,0.19819
6660.93075,0.21205
6662.85922,0.19449
6664.78769,0.18681
6666.71615,0.14166
6668.64462,0.06100
6670.57309,0.00245
6672.50156,-0.01121
6674.43003,0.00739
6676.35850,0.02775
6678.28697,0.02721
6680.21544,0.03556
6682.14390,0.08647
6684.07237,0.11588
6686.00084,0.07333
6687.92931,0.04841
6689.85778,0.06077
6691.78625,0.03933
6693.71472,0.03525
6695.64318,0.07676
6697.57165,0.09740
6699.50012,0.08983
6701.42859,0.08361
6703.35706,0.04726
6705.28553,0.00898
6707.21400,0.04675
6709.14247,0.10669
6711.07093,0.09425
6712.99940,0.05299
6714.92787,0.04665
6716.85634,0.07072
6718.78481,0.10116
6720.71328,0.11594
6722.64175,0.11780
6724.57021,0.13936
6726.49868,0.14270
6728.42715,0.08652
6730.35562,0.01118
6732.28409,-0.07047
6734.21256,-0.12824
6736.14103,-0.06950
6738.06950,0.04412
6739.99796,0.09423
6741.92643,0.05443
6743.85490,-0.03283
6745.78337,-0.08402
6747.71184,-0.04354
6749.64031,0.05100
6751.56878,0.09435
6753.49724,0.07035
6755.42571,0.06237
6757.35418,0.09479
6759.28265,0.10914
6761.21112,0.08554
6763.13959,0.05992
6765.06806,0.02233
6766.99653,-0.00435
6768.92499,0.02412
6770.85346,0.03639
6772.78193,0.00319
6774.71040,0.01282
6776.63887,0.05274
6778.56734,0.05295
6780.49581,0.05395
6782.42427,0.07194
6784.35274,0.07586
6786.28121,0.07006
6788.20968,0.05077
6790.13815,0.01509
6792.06662,0.01609
6793.99509,0.06912
6795.92355,0.10755
6797.85202,0.09347
6799.78049,0.06910
6801.70896,0.08374
6803.63743,0.10485
6805.56590,0.07280
6807.49437,0.03557
6809.42284,0.01702
6811.35130,-0.00781
6813.27977,-0.01451
6815.20824,-0.01713
6817.13671,-0.01148
6819.06518,0.04825
6820.99365,0.10243
6822.92212,0.07440
6824.85058,0.04204
6826.77905,0.06076
6828.70752,0.05072
6830.63599,0.01722
6832.56446,0.01408
6834.49293,0.01427
6836.42140,-0.00430
6838.34987,-0.03362
6840.27833,-0.04315
6842.20680,-0.02197
6844.13527,-0.00417
6846.06374,-0.00194
6847.99221,0.00003
6849.92068,0.01543
6851.84915,0.04381
6853.77761,0.05143
6855.70608,0.02723
6857.63455,0.05512
6859.56302,0.11409
6861.49149,0.09267
6863.41996,0.04956
6865.34843,0.06749
6867.27690,0.08369
6869.20536,0.08317
6871.13383,0.07525
6873.06230,0.02045
6874.99077,-0.05300
6876.91924,-0.09203
6878.84771,-0.07796
6880.77618,-0.01303
6882.70464,0.01913
6884.63311,0.01856
6886.56158,0.08270
6888.49005,0.16607
6890.41852,0.16141
6892.34699,0.11735
6894.27546,0.11224
6896.20393,0.13219
6898.13239,0.13423
6900.06086,0.10709
6901.98933,0.06503
6903.91780,0.01875
6905.84627,0.00281
6907.77474,0.01657
6909.70321,0.01593
6911.63167,0.00694
6913.56014,0.00047
6915.48861,-0.02776
6917.41708,-0.06377
6919.34555,-0.04956
6921.27402,-0.00521
6923.20249,-0.01335
6925.13096,-0.02748
6927.05942,0.02645
6928.98789,0.09659
6930.91636,0.10896
6932.84483,0.11586
6934.77330,0.16635
6936.70177,0.20680
6938.63024,0.16635
6940.55870,0.06053
6942.48717,0.03592
6944.41564,0.05608
6946.34411,0.03093
6948.27258,0.03924
6950.20105,0.09516
6952.12952,0.08609
6954.05799,0.02612
6955.98645,0.01071
6957.91492,0.01194
6959.84339,0.02928
6961.77186,0.09074
6963.70033,0.12240
6965.62880,0.10584
6967.55727,0.10836
6969.48573,0.11879
6971.41420,0.04469
6973.34267,-0.07177
6975.27114,-0.14333
6977.19961,-0.13494
6979.12808,-0.04146
6981.05655,0.04789
6982.98501,0.06915
6984.91348,0.04291
6986.84195,0.01740
6988.77042,0.02954
6990.69889,0.04354
6992.62736,0.04263
6994.55583,0.06363
6996.48430,0.05676
6998.41276,-0.04243
7000.34123,-0.12229
7002.26970,-0.08429
7004.19817,0.02279
7006.12664,0.10085
7008.05511,0.06900
7009.98358,-0.01101
7011.91204,-0.03731
7013.84051,0.02234
7015.76898,0.09747
7017.69745,0.10833
7019.62592,0.06785
7021.55439,0.02408
7023.48286,0.00233
7025.41133,0.03468
7027.33979,0.11738
7029.26826,0.17054
7031.19673,0.18240
7033.12520,0.18988
7035.05367,0.12566
7036.98214,0.00667
7038.91061,-0.06970
7040.83907,-0.10187
7042.76754,-0.08433
7044.69601,0.00761
7046.62448,0.05964
7048.55295,-0.01563
7050.48142,-0.09409
7052.40989,-0.07313
7054.33836,0.01883
7056.26682,0.09118
7058.19529,0.09996
7060.12376,0.08042
7062.05223,0.06471
7063.98070,0.07622
7065.90917,0.08473
7067.83764,0.06486
7069.76610,0.04958
7071.69457,0.05481
7073.62304,0.08288
7075.55151,0.09381
7077.47998,0.07299
7079.40845,0.04350
7081.33692,-0.01565
7083.26539,-0.06339
7085.19385,-0.05522
7087.12232,-0.04460
7089.05079,-0.05748
7090.97926,-0.05195
7092.90773,0.00586
7094.83620,0.07472
7096.76467,0.05029
7098.69313,-0.02216
7100.62160,0.04339
7102.55007,0.15941
7104.47854,0.15650
7106.40701,0.08097
7108.33548,0.04678
7110.26395,0.03992
7112.19242,0.03968
7114.12088,0.02690
7116.04935,-0.04844
7117.97782,-0.15182
7119.90629,-0.16231
7121.83476,-0.10283
7123.76323,-0.06479
7125.69170,-0.06382
7127.62016,-0.02320
7129.54863,0.04719
7131.47710,0.05938
7133.40557,0.05568
7135.33404,0.08389
7137.26251,0.10335
7139.19098,0.10201
7141.11944,0.07758
7143.04791,0.06165
7144.97638,0.10838
7146.90485,0.16177
7148.83332,0.13200
7150.76179,0.03541
7152.69026,-0.09725
7154.61873,-0.19206
7156.54719,-0.15691
7158.47566,-0.05700
7160.40413,0.00073
7162.33260,-0.00942
7164.26107,-0.01987
7166.18954,0.01905
7168.11801,0.07793
7170.04647,0.15801
7171.97494,0.21512
7173.90341,0.19397
7175.83188,0.13673
7177.76035,0.12628
7179.68882,0.14592
7181.61729,0.12729
7183.54576,0.07272
7185.47422,0.00167
7187.40269,-0.02512
7189.33116,0.02544
7191.25963,0.08586
7193.18810,0.10342
7195.11657,0.07628
7197.04504,0.00395
7198.97350,-0.01616
7200.90197,0.07245
7202.83044,0.17974
7204.75891,0.19853
7206.68738,0.15463
7208.61585,0.15351
7210.54432,0.14473
7212.47279,0.10011
7214.40125,0.11743
7216.32972,0.18652
7218.25819,0.15724
7220.18666,0.10358
7222.11513,0.10209
7224.04360,0.08876
7225.97207,0.06489
7227.90053,0.04160
7229.82900,0.04214
7231.75747,0.10881
7233.68594,0.14029
7235.61441,0.07482
7237.54288,-0.00518
7239.47135,0.00617
7241.39982,0.09134
7243.32828,0.13530
7245.25675,0.08776
7247.18522,0.05613
7249.11369,0.08687
7251.04216,0.10517
7252.97063,-0.01861
7254.89910,-0.19094
7256.82756,-0.19169
7258.75603,-0.02836
7260.68450,0.10833
7262.61297,0.05284
7264.54144,-0.01902
7266.46991,0.00143
7268.39838,-0.00748
7270.32685,-0.14344
7272.25531,-0.24526
7274.18378,-0.12826
7276.11225,-0.00145
7278.04072,0.10159
7279.96919,0.19475
7281.89766,0.13694
7283.82613,0.04380
7285.75459,0.04385
7287.68306,0.09705
7289.61153,0.09769
7291.54000,0.03337
7293.46847,-0.00225
7295.39694,-0.02155
7297.32541,-0.06121
7299.25387,-0.06769
7301.18234,-0.00729
7303.11081,0.09764
7305.03928,0.22270
7306.96775,0.33034
7308.89622,0.32060
7310.82469,0.20811
7312.75316,0.12463
7314.68162,0.08740
7316.61009,0.08566
7318.53856,0.11009
7320.46703,0.14527
7322.39550,0.19595
7324.32397,0.22995
7326.25244,0.21072
7328.18090,0.19151
7330.10937,0.17373
7332.03784,0.05749
7333.96631,-0.07439
7335.89478,-0.11610
7337.82325,-0.08629
7339.75172,0.00324
7341.68019,0.04044
7343.60865,0.01918
7345.53712,0.00600
7347.46559,-0.02669
7349.39406,-0.06616
7351.32253,-0.12728
7353.25100,-0.17201
7355.17947,-0.13787
7357.10793,-0.03660
7359.03640,0.04295
7360.96487,-0.00319
7362.89334,-0.05855
7364.82181,0.02371
7366.75028,0.15083
7368.67875,0.13687
7370.60722,0.00882
7372.53568,-0.09625
7374.46415,-0.19568
7376.39262,-0.20663
7378.32109,-0.03456
7380.24956,0.13196
7382.17803,0.16944
7384.10650,0.15232
7386.03496,0.11019
7387.96343,0.05877
7389.89190,0.08259
7391.82037,0.11914
7393.74884,0.12320
7395.67731,0.09681
7397.60578,0.01225
7399.53425,-0.05712
7401.46271,-0.01318
7403.39118,0.07634
7405.31965,0.08718
7407.24812,0.12745
7409.17659,0.19310
7411.10506,0.16081
7413.03353,0.11870
7414.96199,0.14964
7416.89046,0.18753
7418.81893,0.15956
7420.74740,0.09185
7422.67587,0.04494
7424.60434,0.01828
7426.53281,-0.05908
7428.46128,-0.19916
7430.38974,-0.23984
7432.31821,-0.16617
7434.24668,-0.10332
7436.17515,0.02669
7438.10362,0.16970
7440.03209,0.12854
7441.96056,-0.05533
7443.88902,-0.15743
7445.81749,-0.06867
7447.74596,0.06545
7449.67443,0.07596
7451.60290,0.07868
7453.53137,0.19948
7455.45984,0.28006
7457.38831,0.30515
7459.31677,0.31139
7461.24524,0.19749
7463.17371,0.00299
7465.10218,-0.11063
7467.03065,-0.09255
7468.95912,-0.04534
7470.88759,-0.02575
7472.81605,0.02224
7474.74452,0.10251
7476.67299,0.14411
7478.60146,0.09321
7480.52993,0.01381
7482.45840,0.03074
7484.38687,0.09609
7486.31533,0.12049
7488.24380,0.14428
7490.17227,0.17042
7492.10074,0.12671
7494.02921,0.06493
7495.95768,0.04385
7497.88615,0.05102
