399.19301,0.05953
401.12148,0.04696
403.04995,-0.01695
404.97842,-0.12354
406.90689,-0.14623
408.83536,-0.06363
410.76382,0.05989
412.69229,0.14416
414.62076,0.06808
416.54923,-0.10867
418.47770,-0.14945
420.40617,0.01646
422.33464,0.12148
424.26311,0.15342
426.19157,0.13351
428.12004,0.08907
430.04851,0.06283
431.97698,0.03103
433.90545,0.01202
435.83392,0.05210
437.76239,0.07796
439.69085,0.03046
441.61932,-0.03136
443.54779,-0.00866
445.47626,0.07243
447.40473,0.10024
449.33320,0.06132
451.26167,0.03315
453.19013,0.04011
455.11860,0.04347
457.04707,0.00155
458.97554,-0.03412
460.90401,0.00559
462.83248,0.07748
464.76095,0.11045
466.68942,0.08171
468.61788,0.05147
470.54635,0.06540
472.47482,0.07417
474.40329,-0.01686
476.33176,-0.06240
478.26023,-0.02166
480.18870,0.00852
482.11716,0.01175
484.04563,0.00789
485.97410,0.03447
487.90257,0.07167
489.83104,0.04952
491.75951,0.00191
493.68798,-0.01463
495.61645,-0.01819
497.54491,-0.01585
499.47338,0.01424
501.40185,0.04283
503.33032,0.03108
505.25879,0.02087
507.18726,0.03440
509.11573,0.05162
511.04419,0.06956
512.97266,0.06996
514.90113,0.04636
516.82960,0.02824
518.75807,0.02960
520.68654,0.03695
522.61501,0.04187
524.54348,0.04615
526.47194,0.05158
528.40041,0.05100
530.32888,0.04564
532.25735,0.04537
534.18582,0.05390
536.11429,0.06378
538.04276,0.06157
539.97122,0.05714
541.89969,0.06380
543.82816,0.06637
545.75663,0.04500
547.68510,0.00943
549.61357,-0.00469
551.54204,0.01754
553.47051,0.05403
555.39897,0.06963
557.32744,0.04684
559.25591,0.01170
561.18438,-0.00437
563.11285,0.00601
565.04132,0.02330
566.96979,0.02567
568.89825,0.02572
570.82672,0.03585
572.75519,0.04085
574.68366,0.03349
576.61213,0.02594
578.54060,0.01823
580.46907,0.00331
582.39754,-0.00577
584.32600,0.00808
586.25447,0.03479
588.18294,0.04564
590.11141,0.03638
592.03988,0.02484
593.96835,0.02223
595.89682,0.02341
597.82528,0.01717
599.75375,0.00492
601.68222,-0.00264
603.61069,0.00450
605.53916,0.02267
607.46763,0.04432
609.39610,0.06509
611.32456,0.07060
613.25303,0.05879
615.18150,0.04675
617.10997,0.04133
619.03844,0.03488
620.96691,0.02546
622.89538,0.01892
624.82385,0.02368
626.75231,0.04361
628.68078,0.06403
630.60925,0.07516
632.53772,0.07396
634.46619,0.05456
636.39466,0.03588
638.32313,0.03031
640.25159,0.03124
642.18006,0.03808
644.10853,0.04152
646.03700,0.02808
647.96547,0.01234
649.89394,0.02026
651.82241,0.03990
653.75088,0.04108
655.67934,0.03113
657.60781,0.03873
659.53628,0.05787
661.46475,0.06366
663.39322,0.05731
665.32169,0.04918
667.25016,0.04281
669.17862,0.04363
671.10709,0.03853
673.03556,0.02070
674.96403,0.01204
676.89250,0.02718
678.82097,0.04077
680.74944,0.03995
682.67791,0.04205
684.60637,0.04840
686.53484,0.05214
688.46331,0.05579
690.39178,0.05778
692.32025,0.05440
694.24872,0.05082
696.17719,0.05130
698.10565,0.05109
700.03412,0.04705
701.96259,0.03765
703.89106,0.02607
705.81953,0.02370
707.74800,0.02346
709.67647,0.00461
711.60494,-0.01255
713.53340,0.00423
715.46187,0.02920
717.39034,0.03551
719.31881,0.03898
721.24728,0.04482
723.17575,0.04502
725.10422,0.04191
727.03268,0.03663
728.96115,0.03080
730.88962,0.02786
732.81809,0.02742
734.74656,0.03493
736.67503,0.04930
738.60350,0.05550
740.53197,0.04910
742.46043,0.04302
744.38890,0.04458
746.31737,0.04405
748.24584,0.04152
750.17431,0.04254
752.10278,0.03640
754.03125,0.02616
755.95971,0.02731
757.88818,0.03672
759.81665,0.04519
761.74512,0.04755
763.67359,0.04069
765.60206,0.03210
767.53053,0.03020
769.45900,0.03369
771.38746,0.03370
773.31593,0.02888
775.24440,0.03188
777.17287,0.04080
779.10134,0.04340
781.02981,0.04376
782.95828,0.04681
784.88674,0.04865
786.81521,0.04591
788.74368,0.03262
790.67215,0.01646
792.60062,0.02120
794.52909,0.03890
796.45756,0.04423
798.38602,0.04394
800.31449,0.04533
802.24296,0.04452
804.17143,0.04359
806.09990,0.04133
808.02837,0.03599
809.95684,0.03073
811.88531,0.02859
813.81377,0.03204
815.74224,0.03928
817.67071,0.04298
819.59918,0.03963
821.52765,0.03436
823.45612,0.03142
825.38459,0.03304
827.31305,0.04302
829.24152,0.05143
831.16999,0.04911
833.09846,0.04690
835.02693,0.05006
836.95540,0.04914
838.88387,0.04413
840.81234,0.04359
842.74080,0.04756
844.66927,0.05093
846.59774,0.05404
848.52621,0.05707
850.45468,0.05448
852.38315,0.04796
854.31162,0.04515
856.24008,0.04514
858.16855,0.04459
860.09702,0.04228
862.02549,0.03944
863.95396,0.03848
865.88243,0.03768
867.81090,0.03660
869.73937,0.03759
871.66783,0.04295
873.59630,0.05065
875.52477,0.05197
877.45324,0.04583
879.38171,0.04348
881.31018,0.04608
883.23865,0.04501
885.16711,0.04402
887.09558,0.04374
889.02405,0.03815
890.95252,0.03643
892.88099,0.04135
894.80946,0.04268
896.73793,0.04011
898.66640,0.03764
900.59486,0.03921
902.52333,0.04786
904.45180,0.05536
906.38027,0.05360
908.30874,0.04743
910.23721,0.04367
912.16568,0.04398
914.09414,0.04564
916.02261,0.04219
917.95108,0.03526
919.87955,0.03603
921.80802,0.04375
923.73649,0.04895
925.66496,0.05449
927.59343,0.06060
929.52189,0.05818
931.45036,0.05175
933.37883,0.04985
935.30730,0.04757
937.23577,0.04219
939.16424,0.04104
941.09271,0.04526
943.02117,0.04856
944.94964,0.04916
946.87811,0.04770
948.80658,0.04463
950.73505,0.04277
952.66352,0.04321
954.59199,0.04302
956.52045,0.04100
958.44892,0.04077
960.37739,0.04378
962.30586,0.04823
964.23433,0.05343
966.16280,0.05441
968.09127,0.04684
970.01974,0.03848
971.94820,0.03744
973.87667,0.03960
975.80514,0.03761
977.73361,0.03344
979.66208,0.03454
981.59055,0.04155
983.51902,0.04689
985.44748,0.04443
987.37595,0.03908
989.30442,0.03951
991.23289,0.04631
993.16136,0.05425
995.08983,0.05650
997.01830,0.05313
998.94677,0.05411
1000.87523,0.05999
1002.80370,0.06048
1004.73217,0.05587
1006.66064,0.05221
1008.58911,0.05055
1010.51758,0.05235
1012.44605,0.05596
1014.37451,0.05490
1016.30298,0.04825
1018.23145,0.04449
1020.15992,0.04557
1022.08839,0.04437
1024.01686,0.04153
1025.94533,0.04321
1027.87380,0.04945
1029.80226,0.05187
1031.73073,0.04692
1033.65920,0.04333
1035.58767,0.04573
1037.51614,0.04975
1039.44461,0.05323
1041.37308,0.05824
1043.30154,0.05944
1045.23001,0.05104
1047.15848,0.04388
1049.08695,0.04575
1051.01542,0.04810
1052.94389,0.04648
1054.87236,0.04548
1056.80083,0.04842
1058.72929,0.05267
1060.65776,0.05286
1062.58623,0.04687
1064.51470,0.03925
1066.44317,0.03588
1068.37164,0.03442
1070.30011,0.03603
1072.22857,0.04436
1074.15704,0.05077
1076.08551,0.05373
1078.01398,0.06031
1079.94245,0.06563
1081.87092,0.06284
1083.79939,0.05468
1085.72786,0.04707
1087.65632,0.04436
1089.58479,0.04626
1091.51326,0.04737
1093.44173,0.04932
1095.37020,0.05573
1097.29867,0.05900
1099.22714,0.05779
1101.15560,0.05767
1103.08407,0.05727
1105.01254,0.05572
1106.94101,0.05001
1108.86948,0.04060
1110.79795,0.04107
1112.72642,0.05164
1114.65489,0.05438
1116.58335,0.04748
1118.51182,0.04542
1120.44029,0.05041
1122.36876,0.05295
1124.29723,0.05002
1126.22570,0.04581
1128.15417,0.04545
1130.08263,0.05001
1132.01110,0.05358
1133.93957,0.05205
1135.86804,0.04870
1137.79651,0.04823
1139.72498,0.05056
1141.65345,0.05251
1143.58191,0.05271
1145.51038,0.05235
1147.43885,0.05293
1149.36732,0.05361
1151.29579,0.05393
1153.22426,0.05489
1155.15273,0.05439
1157.08120,0.05158
1159.00966,0.04992
1160.93813,0.05088
1162.86660,0.05402
1164.79507,0.05998
1166.72354,0.06354
1168.65201,0.05893
1170.58048,0.05337
1172.50894,0.05325
1174.43741,0.05460
1176.36588,0.05487
1178.29435,0.05400
1180.22282,0.05102
1182.15129,0.04759
1184.07976,0.04772
1186.00823,0.05053
1187.93669,0.05100
1189.86516,0.05079
1191.79363,0.05334
1193.72210,0.05375
1195.65057,0.04896
1197.57904,0.04397
1199.50751,0.04282
1201.43597,0.04651
1203.36444,0.05239
1205.29291,0.05465
1207.22138,0.05170
1209.14985,0.04816
1211.07832,0.04931
1213.00679,0.05350
1214.93526,0.05458
1216.86372,0.05334
1218.79219,0.05280
1220.72066,0.05104
1222.64913,0.04924
1224.57760,0.05073
1226.50607,0.05323
1228.43454,0.05397
1230.36300,0.05334
1232.29147,0.05249
1234.21994,0.05304
1236.14841,0.05426
1238.07688,0.05391
1240.00535,0.05307
1241.93382,0.05317
1243.86229,0.05343
1245.79075,0.05377
1247.71922,0.05518
1249.64769,0.05605
1251.57616,0.05442
1253.50463,0.05327
1255.43310,0.05336
1257.36157,0.05161
1259.29003,0.04848
1261.21850,0.04571
1263.14697,0.04391
1265.07544,0.04461
1267.00391,0.04930
1268.93238,0.05493
1270.86085,0.05755
1272.78932,0.05752
1274.71778,0.05620
1276.64625,0.05547
1278.57472,0.05666
1280.50319,0.05866
1282.43166,0.05904
1284.36013,0.05617
1286.28860,0.05243
1288.21706,0.05204
1290.14553,0.05536
1292.07400,0.05753
1294.00247,0.05463
1295.93094,0.05042
1297.85941,0.05060
1299.78788,0.05391
1301.71634,0.05643
1303.64481,0.05734
1305.57328,0.05664
1307.50175,0.05499
1309.43022,0.05316
1311.35869,0.05163
1313.28716,0.05214
1315.21563,0.05447
1317.14409,0.05577
1319.07256,0.05522
1321.00103,0.05449
1322.92950,0.05515
1324.85797,0.05709
1326.78644,0.05826
1328.71491,0.05723
1330.64337,0.05477
1332.57184,0.05176
1334.50031,0.04993
1336.42878,0.05068
1338.35725,0.05315
1340.28572,0.05654
1342.21419,0.06241
1344.14266,0.06814
1346.07112,0.06597
1347.99959,0.05810
1349.92806,0.05251
1351.85653,0.04947
1353.78500,0.05087
1355.71347,0.05602
1357.64194,0.05801
1359.57040,0.05786
1361.49887,0.05963
1363.42734,0.05838
1365.35581,0.05372
1367.28428,0.05334
1369.21275,0.05663
1371.14122,0.05874
1373.06969,0.05901
1374.99815,0.05864
1376.92662,0.05821
1378.85509,0.05770
1380.78356,0.05806
1382.71203,0.06031
1384.64050,0.06338
1386.56897,0.06419
1388.49743,0.06120
1390.42590,0.05909
1392.35437,0.06171
1394.28284,0.06650
1396.21131,0.06779
1398.13978,0.06503
1400.06825,0.06140
1401.99672,0.06070
1403.92518,0.06230
1405.85365,0.06131
1407.78212,0.05704
1409.71059,0.05447
1411.63906,0.05547
1413.56753,0.05736
1415.49600,0.05947
1417.42446,0.06113
1419.35293,0.05907
1421.28140,0.05847
1423.20987,0.06285
1425.13834,0.06542
1427.06681,0.06324
1428.99528,0.06090
1430.92375,0.05970
1432.85221,0.05952
1434.78068,0.06183
1436.70915,0.06364
1438.63762,0.06045
1440.56609,0.05760
1442.49456,0.05845
1444.42303,0.06072
1446.35149,0.06222
1448.27996,0.06245
1450.20843,0.06244
1452.13690,0.06550
1454.06537,0.07220
1455.99384,0.08079
1457.92231,0.08286
1459.85077,0.07461
1461.77924,0.06935
1463.70771,0.07017
1465.63618,0.07179
1467.56465,0.06897
1469.49312,0.06636
1471.42159,0.06827
1473.35006,0.07067
1475.27852,0.06619
1477.20699,0.06054
1479.13546,0.05894
1481.06393,0.06059
1482.99240,0.06185
1484.92087,0.06311
1486.84934,0.06866
1488.77780,0.07699
1490.70627,0.07656
1492.63474,0.07065
1494.56321,0.06945
1496.49168,0.07238
1498.42015,0.07385
1500.34862,0.06933
1502.27709,0.06322
1504.20555,0.06533
1506.13402,0.08201
1508.06249,0.09022
1509.99096,0.08134
1511.91943,0.07653
1513.84790,0.07635
1515.77637,0.07825
1517.70483,0.08180
1519.63330,0.08772
1521.56177,0.08967
1523.49024,0.08184
1525.41871,0.07416
1527.34718,0.07121
1529.27565,0.07177
1531.20412,0.07505
1533.13258,0.07886
1535.06105,0.07801
1536.98952,0.07689
1538.91799,0.08169
1540.84646,0.09127
1542.77493,0.09299
1544.70340,0.08506
1546.63186,0.07485
1548.56033,0.06905
1550.48880,0.06679
1552.41727,0.06568
1554.34574,0.06639
1556.27421,0.07085
1558.20268,0.08048
1560.13115,0.07871
1562.05961,0.06849
1563.98808,0.06213
1565.91655,0.06022
1567.84502,0.06396
1569.77349,0.06814
1571.70196,0.06696
1573.63043,0.06606
1575.55889,0.06600
1577.48736,0.06247
1579.41583,0.05954
1581.34430,0.05838
1583.27277,0.05674
1585.20124,0.05537
1587.12971,0.05597
1589.05818,0.05835
1590.98664,0.06188
1592.91511,0.06455
1594.84358,0.06334
1596.77205,0.06026
1598.70052,0.05987
1600.62899,0.06183
1602.55746,0.06258
1604.48592,0.06107
1606.41439,0.05977
1608.34286,0.05959
1610.27133,0.06027
1612.19980,0.06281
1614.12827,0.06755
1616.05674,0.07190
1617.98521,0.07087
1619.91367,0.06951
1621.84214,0.07149
1623.77061,0.07271
1625.69908,0.07158
1627.62755,0.06870
1629.55602,0.06273
1631.48449,0.05905
1633.41295,0.06156
1635.34142,0.06848
1637.26989,0.07158
1639.19836,0.06946
1641.12683,0.06742
1643.05530,0.06842
1644.98377,0.07565
1646.91223,0.08403
1648.84070,0.08131
1650.76917,0.07984
1652.69764,0.08504
1654.62611,0.07897
1656.55458,0.06864
1658.48305,0.06515
1660.41152,0.06785
1662.33998,0.07209
1664.26845,0.07175
1666.19692,0.07116
1668.12539,0.07501
1670.05386,0.07919
1671.98233,0.07839
1673.91080,0.07703
1675.83926,0.07516
1677.76773,0.07187
1679.69620,0.07140
1681.62467,0.07554
1683.55314,0.07877
1685.48161,0.07323
1687.41008,0.06852
1689.33855,0.06780
1691.26701,0.06973
1693.19548,0.07488
1695.12395,0.08233
1697.05242,0.08650
1698.98089,0.08671
1700.90936,0.08254
1702.83783,0.07705
1704.76629,0.07662
1706.69476,0.07542
1708.62323,0.06982
1710.55170,0.06695
1712.48017,0.06978
1714.40864,0.07625
1716.33711,0.08298
1718.26558,0.08100
1720.19404,0.07334
1722.12251,0.06946
1724.05098,0.06811
1725.97945,0.06646
1727.90792,0.06549
1729.83639,0.06724
1731.76486,0.07118
1733.69332,0.07347
1735.62179,0.07098
1737.55026,0.06866
1739.47873,0.06868
1741.40720,0.06965
1743.33567,0.07013
1745.26414,0.07196
1747.19261,0.07575
1749.12107,0.07748
1751.04954,0.07300
1752.97801,0.06719
1754.90648,0.06563
1756.83495,0.06693
1758.76342,0.06810
1760.69189,0.06859
1762.62035,0.06774
1764.54882,0.06662
1766.47729,0.06704
1768.40576,0.06921
1770.33423,0.07504
1772.26270,0.08039
1774.19117,0.07593
1776.11964,0.06918
1778.04810,0.06605
1779.97657,0.06481
1781.90504,0.06375
1783.83351,0.06351
1785.76198,0.06380
1787.69045,0.06361
1789.61892,0.06521
1791.54738,0.06963
1793.47585,0.07182
1795.40432,0.07109
1797.33279,0.07126
1799.26126,0.07106
1801.18973,0.06775
1803.11820,0.06370
1805.04666,0.06292
1806.97513,0.06552
1808.90360,0.06902
1810.83207,0.07107
1812.76054,0.07029
1814.68901,0.06640
1816.61748,0.06116
1818.54595,0.05818
1820.47441,0.05900
1822.40288,0.06322
1824.33135,0.06988
1826.25982,0.07408
1828.18829,0.07437
1830.11676,0.07298
1832.04523,0.06963
1833.97369,0.06632
1835.90216,0.06491
1837.83063,0.06435
1839.75910,0.06390
1841.68757,0.06599
1843.61604,0.07001
1845.54451,0.07001
1847.47298,0.06639
1849.40144,0.06338
1851.32991,0.06311
1853.25838,0.06486
1855.18685,0.06624
1857.11532,0.06766
1859.04379,0.06897
1860.97226,0.06851
1862.90072,0.06662
1864.82919,0.06511
1866.75766,0.06650
1868.68613,0.06855
1870.61460,0.06607
1872.54307,0.06323
1874.47154,0.06320
1876.40001,0.06441
1878.32847,0.06567
1880.25694,0.06565
1882.18541,0.06420
1884.11388,0.06344
1886.04235,0.06377
1887.97082,0.06455
1889.89929,0.06518
1891.82775,0.06446
1893.75622,0.06377
1895.68469,0.06334
1897.61316,0.06213
1899.54163,0.06176
1901.47010,0.06280
1903.39857,0.06401
1905.32704,0.06490
1907.25550,0.06526
1909.18397,0.06534
1911.11244,0.06549
1913.04091,0.06478
1914.96938,0.06400
1916.89785,0.06509
1918.82632,0.06694
1920.75478,0.06708
1922.68325,0.06529
1924.61172,0.06380
1926.54019,0.06357
1928.46866,0.06283
1930.39713,0.06279
1932.32560,0.06470
1934.25407,0.06636
1936.18253,0.06674
1938.11100,0.06581
1940.03947,0.06487
1941.96794,0.06601
1943.89641,0.06785
1945.82488,0.06836
1947.75335,0.06749
1949.68181,0.06658
1951.61028,0.06689
1953.53875,0.06739
1955.46722,0.06676
1957.39569,0.06510
1959.32416,0.06413
1961.25263,0.06498
1963.18110,0.06719
1965.10956,0.06935
1967.03803,0.06952
1968.96650,0.06863
1970.89497,0.06911
1972.82344,0.06872
1974.75191,0.06439
1976.68038,0.05954
1978.60884,0.05947
1980.53731,0.06360
1982.46578,0.06671
1984.39425,0.06696
1986.32272,0.06711
1988.25119,0.06768
1990.17966,0.06735
1992.10812,0.06727
1994.03659,0.06861
1995.96506,0.06960
1997.89353,0.06880
1999.82200,0.06612
2001.75047,0.06336
2003.67894,0.06295
2005.60741,0.06372
2007.53587,0.06354
2009.46434,0.06279
2011.39281,0.06352
2013.32128,0.06623
2015.24975,0.06815
2017.17822,0.06799
2019.10669,0.06779
2021.03515,0.06847
2022.96362,0.06775
2024.89209,0.06598
2026.82056,0.06642
2028.74903,0.06818
2030.67750,0.06882
2032.60597,0.06851
2034.53444,0.06793
2036.46290,0.06644
2038.39137,0.06479
2040.31984,0.06467
2042.24831,0.06447
2044.17678,0.06274
2046.10525,0.06145
2048.03372,0.06208
2049.96218,0.06437
2051.89065,0.06721
2053.81912,0.06903
2055.74759,0.06969
2057.67606,0.06976
2059.60453,0.06910
2061.53300,0.06698
2063.46147,0.06428
2065.38993,0.06359
2067.31840,0.06442
2069.24687,0.06445
2071.17534,0.06450
2073.10381,0.06609
2075.03228,0.06761
2076.96075,0.06703
2078.88921,0.06478
2080.81768,0.06311
2082.74615,0.06367
2084.67462,0.06493
2086.60309,0.06598
2088.53156,0.06756
2090.46003,0.06857
2092.38850,0.06915
2094.31696,0.07016
2096.24543,0.06981
2098.17390,0.06778
2100.10237,0.06602
2102.03084,0.06519
2103.95931,0.06541
2105.88778,0.06630
2107.81624,0.06688
2109.74471,0.06682
2111.67318,0.06560
2113.60165,0.06444
2115.53012,0.06514
2117.45859,0.06657
2119.38706,0.06715
2121.31553,0.06669
2123.24399,0.06667
2125.17246,0.06871
2127.10093,0.07095
2129.02940,0.07054
2130.95787,0.06796
2132.88634,0.06669
2134.81481,0.06833
2136.74327,0.06973
2138.67174,0.06890
2140.60021,0.06811
2142.52868,0.06827
2144.45715,0.06815
2146.38562,0.06784
2148.31409,0.06780
2150.24255,0.06717
2152.17102,0.06631
2154.09949,0.06700
2156.02796,0.06838
2157.95643,0.06858
2159.88490,0.06806
2161.81337,0.06758
2163.74184,0.06769
2165.67030,0.06815
2167.59877,0.06796
2169.52724,0.06864
2171.45571,0.06992
2173.38418,0.06912
2175.31265,0.06833
2177.24112,0.06885
2179.16958,0.06790
2181.09805,0.06633
2183.02652,0.06691
2184.95499,0.06844
2186.88346,0.06873
2188.81193,0.06951
2190.74040,0.07137
2192.66887,0.07134
2194.59733,0.06960
2196.52580,0.06754
2198.45427,0.06553
2200.38274,0.06531
2202.31121,0.06632
2204.23968,0.06644
2206.16815,0.06691
2208.09661,0.06860
2210.02508,0.06882
2211.95355,0.06715
2213.88202,0.06707
2215.81049,0.06865
2217.73896,0.06732
2219.66743,0.06359
2221.59590,0.06315
2223.52436,0.06616
2225.45283,0.06824
2227.38130,0.06824
2229.30977,0.06844
2231.23824,0.06970
2233.16671,0.07076
2235.09518,0.07191
2237.02364,0.07331
2238.95211,0.07357
2240.88058,0.07294
2242.80905,0.07207
2244.73752,0.07044
2246.66599,0.06824
2248.59446,0.06709
2250.52293,0.06796
2252.45139,0.06910
2254.37986,0.06800
2256.30833,0.06534
2258.23680,0.06396
2260.16527,0.06444
2262.09374,0.06567
2264.02221,0.06762
2265.95067,0.06998
2267.87914,0.07054
2269.80761,0.06866
2271.73608,0.06638
2273.66455,0.06584
2275.59302,0.06794
2277.52149,0.07023
2279.44996,0.07014
2281.37842,0.06959
2283.30689,0.06965
2285.23536,0.06889
2287.16383,0.06748
2289.09230,0.06559
2291.02077,0.06224
2292.94924,0.05814
2294.87770,0.05691
2296.80617,0.06106
2298.73464,0.06703
2300.66311,0.06948
2302.59158,0.06777
2304.52005,0.06539
2306.44852,0.06513
2308.37699,0.06606
2310.30545,0.06617
2312.23392,0.06502
2314.16239,0.06338
2316.09086,0.06235
2318.01933,0.06192
2319.94780,0.06211
2321.87627,0.06291
2323.80473,0.06276
2325.73320,0.06167
2327.66167,0.05998
2329.59014,0.05453
2331.51861,0.04646
2333.44708,0.04455
2335.37555,0.05257
2337.30401,0.06539
2339.23248,0.07315
2341.16095,0.07007
2343.08942,0.06570
2345.01789,0.06956
2346.94636,0.07295
2348.87483,0.07206
2350.80330,0.07084
2352.73176,0.07022
2354.66023,0.06905
2356.58870,0.06599
2358.51717,0.05956
2360.44564,0.05722
2362.37411,0.06329
2364.30258,0.06614
2366.23104,0.05989
2368.15951,0.05031
2370.08798,0.04714
2372.01645,0.05178
2373.94492,0.05723
2375.87339,0.06020
2377.80186,0.06281
2379.73033,0.06736
2381.65879,0.06987
2383.58726,0.06731
2385.51573,0.06460
2387.44420,0.06500
2389.37267,0.06561
2391.30114,0.06532
2393.22961,0.06629
2395.15807,0.06774
2397.08654,0.06745
2399.01501,0.06615
2400.94348,0.06572
2402.87195,0.06660
2404.80042,0.06741
2406.72889,0.06761
2408.65736,0.06782
2410.58582,0.06834
2412.51429,0.06893
2414.44276,0.06904
2416.37123,0.06885
2418.29970,0.06861
2420.22817,0.06744
2422.15664,0.06637
2424.08510,0.06752
2426.01357,0.06901
2427.94204,0.06865
2429.87051,0.06778
2431.79898,0.06828
2433.72745,0.06986
2435.65592,0.07059
2437.58439,0.07008
2439.51285,0.06871
2441.44132,0.06758
2443.36979,0.06795
2445.29826,0.06840
2447.22673,0.06845
2449.15520,0.06940
2451.08367,0.07039
2453.01213,0.06989
2454.94060,0.06897
2456.86907,0.06913
2458.79754,0.06915
2460.72601,0.06764
2462.65448,0.06663
2464.58295,0.06825
2466.51142,0.07069
2468.43988,0.07127
2470.36835,0.06996
2472.29682,0.06853
2474.22529,0.06776
2476.15376,0.06780
2478.08223,0.06822
2480.01070,0.06798
2481.93916,0.06723
2483.86763,0.06719
2485.79610,0.06906
2487.72457,0.07135
2489.65304,0.07120
2491.58151,0.06937
2493.50998,0.06909
2495.43844,0.06967
2497.36691,0.06657
2499.29538,0.06203
2501.22385,0.06246
2503.15232,0.06628
2505.08079,0.06883
2507.00926,0.06940
2508.93773,0.06937
2510.86619,0.07001
2512.79466,0.07065
2514.72313,0.07031
2516.65160,0.06965
2518.58007,0.06931
2520.50854,0.06904
2522.43701,0.06846
2524.36547,0.06759
2526.29394,0.06702
2528.22241,0.06830
2530.15088,0.07111
2532.07935,0.07223
2534.00782,0.07163
2535.93629,0.07227
2537.86476,0.07331
2539.79322,0.07201
2541.72169,0.06979
2543.65016,0.06914
2545.57863,0.06887
2547.50710,0.06835
2549.43557,0.06915
2551.36404,0.07044
2553.29250,0.07032
2555.22097,0.07017
2557.14944,0.07121
2559.07791,0.07159
2561.00638,0.07030
2562.93485,0.06860
2564.86332,0.06855
2566.79179,0.06978
2568.72025,0.07029
2570.64872,0.07074
2572.57719,0.07137
2574.50566,0.07111
2576.43413,0.07111
2578.36260,0.07184
2580.29107,0.07172
2582.21953,0.06987
2584.14800,0.06697
2586.07647,0.06540
2588.00494,0.06699
2589.93341,0.06957
2591.86188,0.07053
2593.79035,0.07025
2595.71882,0.06924
2597.64728,0.06843
2599.57575,0.06842
2601.50422,0.06796
2603.43269,0.06784
2605.36116,0.06903
2607.28963,0.07074
2609.21810,0.07239
2611.14656,0.07217
2613.07503,0.07053
2615.00350,0.07058
2616.93197,0.07204
2618.86044,0.07311
2620.78891,0.07352
2622.71738,0.07310
2624.64585,0.07139
2626.57431,0.06925
2628.50278,0.06735
2630.43125,0.06560
2632.35972,0.06557
2634.28819,0.06793
2636.21666,0.06957
2638.14513,0.06868
2640.07359,0.06782
2642.00206,0.06852
2643.93053,0.06918
2645.85900,0.06963
2647.78747,0.07089
2649.71594,0.07119
2651.64441,0.06959
2653.57288,0.06795
2655.50134,0.06712
2657.42981,0.06817
2659.35828,0.07052
2661.28675,0.07178
2663.21522,0.07215
2665.14369,0.07245
2667.07216,0.07185
2669.00062,0.06982
2670.92909,0.06816
2672.85756,0.06828
2674.78603,0.06964
2676.71450,0.07143
2678.64297,0.07168
2680.57144,0.07001
2682.49990,0.06949
2684.42837,0.07114
2686.35684,0.07273
2688.28531,0.07248
2690.21378,0.07082
2692.14225,0.06966
2694.07072,0.07001
2695.99919,0.07200
2697.92765,0.07471
2699.85612,0.07539
2701.78459,0.07396
2703.71306,0.07311
2705.64153,0.07279
2707.57000,0.07195
2709.49847,0.07137
2711.42693,0.07213
2713.35540,0.07383
2715.28387,0.07424
2717.21234,0.07290
2719.14081,0.07169
2721.06928,0.07090
2722.99775,0.07077
2724.92622,0.07062
2726.85468,0.06907
2728.78315,0.06858
2730.71162,0.06955
2732.64009,0.06927
2734.56856,0.06992
2736.49703,0.07292
2738.42550,0.07527
2740.35396,0.07544
2742.28243,0.07393
2744.21090,0.07248
2746.13937,0.07245
2748.06784,0.07420
2749.99631,0.07643
2751.92478,0.07589
2753.85325,0.07376
2755.78171,0.07447
2757.71018,0.07667
2759.63865,0.07709
2761.56712,0.07700
2763.49559,0.07686
2765.42406,0.07478
2767.35253,0.07212
2769.28099,0.07212
2771.20946,0.07353
2773.13793,0.07338
2775.06640,0.07354
2776.99487,0.07457
2778.92334,0.07366
2780.85181,0.07204
2782.78028,0.07257
2784.70874,0.07323
2786.63721,0.07159
2788.56568,0.07095
2790.49415,0.07219
2792.42262,0.07297
2794.35109,0.07489
2796.27956,0.07714
2798.20802,0.07702
2800.13649,0.07593
2802.06496,0.07457
2803.99343,0.07249
2805.92190,0.07155
2807.85037,0.07240
2809.77884,0.07291
2811.70731,0.07238
2813.63577,0.07237
2815.56424,0.07339
2817.49271,0.07484
2819.42118,0.07639
2821.34965,0.07701
2823.27812,0.07552
2825.20659,0.07268
2827.13505,0.07095
2829.06352,0.07073
2830.99199,0.07049
2832.92046,0.07102
2834.84893,0.07331
2836.77740,0.07538
2838.70587,0.07568
2840.63433,0.07492
2842.56280,0.07355
2844.49127,0.07185
2846.41974,0.07023
2848.34821,0.06890
2850.27668,0.06879
2852.20515,0.06944
2854.13362,0.07024
2856.06208,0.07213
2857.99055,0.07429
2859.91902,0.07525
2861.84749,0.07390
2863.77596,0.07134
2865.70443,0.07146
2867.63290,0.07282
2869.56136,0.07130
2871.48983,0.06964
2873.41830,0.07091
2875.34677,0.07230
2877.27524,0.07183
2879.20371,0.07176
2881.13218,0.07238
2883.06065,0.07105
2884.98911,0.06943
2886.91758,0.06973
2888.84605,0.06963
2890.77452,0.06966
2892.70299,0.07219
2894.63146,0.07504
2896.55993,0.07630
2898.48839,0.07622
2900.41686,0.07473
2902.34533,0.07388
2904.27380,0.07491
2906.20227,0.07459
2908.13074,0.07223
2910.05921,0.07158
2911.98768,0.07259
2913.91614,0.07167
2915.84461,0.06982
2917.77308,0.07050
2919.70155,0.07199
2921.63002,0.07189
2923.55849,0.07145
2925.48696,0.07167
2927.41542,0.07283
2929.34389,0.07327
2931.27236,0.07088
2933.20083,0.06916
2935.12930,0.07044
2937.05777,0.07216
2938.98624,0.07470
2940.91471,0.07760
2942.84317,0.07768
2944.77164,0.07552
2946.70011,0.07305
2948.62858,0.07139
2950.55705,0.07095
2952.48552,0.07053
2954.41399,0.07064
2956.34245,0.07315
2958.27092,0.07690
2960.19939,0.07831
2962.12786,0.07722
2964.05633,0.07660
2965.98480,0.07672
2967.91327,0.07717
2969.84174,0.07802
2971.77020,0.07755
2973.69867,0.07535
2975.62714,0.07363
2977.55561,0.07377
2979.48408,0.07523
2981.41255,0.07604
2983.34102,0.07397
2985.26948,0.07226
2987.19795,0.07548
2989.12642,0.08006
2991.05489,0.08109
2992.98336,0.07966
2994.91183,0.07852
2996.84030,0.07842
2998.76877,0.07941
3000.69723,0.08156
3002.62570,0.08278
3004.55417,0.08055
3006.48264,0.07665
3008.41111,0.07454
3010.33958,0.07541
3012.26805,0.07711
3014.19651,0.07606
3016.12498,0.07352
3018.05345,0.07325
3019.98192,0.07566
3021.91039,0.07925
3023.83886,0.08099
3025.76733,0.07902
3027.69579,0.07660
3029.62426,0.07621
3031.55273,0.07609
3033.48120,0.07698
3035.40967,0.07900
3037.33814,0.07840
3039.26661,0.07622
3041.19508,0.07473
3043.12354,0.07307
3045.05201,0.07305
3046.98048,0.07665
3048.90895,0.08028
3050.83742,0.07935
3052.76589,0.07739
3054.69436,0.07855
3056.62282,0.07905
3058.55129,0.07743
3060.47976,0.07663
3062.40823,0.07686
3064.33670,0.07678
3066.26517,0.07672
3068.19364,0.07840
3070.12211,0.08006
3072.05057,0.07961
3073.97904,0.07981
3075.90751,0.08206
3077.83598,0.08269
3079.76445,0.07929
3081.69292,0.07529
3083.62139,0.07405
3085.54985,0.07480
3087.47832,0.07479
3089.40679,0.07357
3091.33526,0.07446
3093.26373,0.07617
3095.19220,0.07448
3097.12067,0.07151
3099.04914,0.07182
3100.97760,0.07370
3102.90607,0.07255
3104.83454,0.07063
3106.76301,0.07209
3108.69148,0.07502
3110.61995,0.07631
3112.54842,0.07634
3114.47688,0.07700
3116.40535,0.07831
3118.33382,0.07791
3120.26229,0.07647
3122.19076,0.07747
3124.11923,0.07871
3126.04770,0.07832
3127.97617,0.07907
3129.90463,0.07998
3131.83310,0.07904
3133.76157,0.07727
3135.69004,0.07576
3137.61851,0.07455
3139.54698,0.07362
3141.47545,0.07376
3143.40391,0.07534
3145.33238,0.07683
3147.26085,0.07775
3149.18932,0.07946
3151.11779,0.08121
3153.04626,0.08173
3154.97473,0.08124
3156.90320,0.07997
3158.83166,0.07809
3160.76013,0.07646
3162.68860,0.07613
3164.61707,0.07755
3166.54554,0.07943
3168.47401,0.07947
3170.40248,0.07911
3172.33094,0.08060
3174.25941,0.08265
3176.18788,0.08331
3178.11635,0.08182
3180.04482,0.08004
3181.97329,0.07921
3183.90176,0.07860
3185.83022,0.07864
3187.75869,0.07917
3189.68716,0.08049
3191.61563,0.08217
3193.54410,0.08050
3195.47257,0.07511
3197.40104,0.07103
3199.32951,0.07163
3201.25797,0.07446
3203.18644,0.07568
3205.11491,0.07490
3207.04338,0.07460
3208.97185,0.07662
3210.90032,0.07749
3212.82879,0.07674
3214.75725,0.07946
3216.68572,0.08195
3218.61419,0.07917
3220.54266,0.07654
3222.47113,0.07668
3224.39960,0.07552
3226.32807,0.07433
3228.25654,0.07639
3230.18500,0.07894
3232.11347,0.07844
3234.04194,0.07456
3235.97041,0.07097
3237.89888,0.07080
3239.82735,0.07194
3241.75582,0.07185
3243.68428,0.07020
3245.61275,0.06783
3247.54122,0.06777
3249.46969,0.07224
3251.39816,0.07678
3253.32663,0.07547
3255.25510,0.07038
3257.18357,0.06869
3259.11203,0.07154
3261.04050,0.07339
3262.96897,0.07414
3264.89744,0.07524
3266.82591,0.07271
3268.75438,0.06789
3270.68285,0.06842
3272.61131,0.07562
3274.53978,0.08205
3276.46825,0.08200
3278.39672,0.07818
3280.32519,0.07580
3282.25366,0.07443
3284.18213,0.07279
3286.11060,0.07338
3288.03906,0.07563
3289.96753,0.07599
3291.89600,0.07507
3293.82447,0.07585
3295.75294,0.07781
3297.68141,0.07912
3299.60988,0.07949
3301.53834,0.07925
3303.46681,0.07861
3305.39528,0.07611
3307.32375,0.07208
3309.25222,0.07039
3311.18069,0.07256
3313.10916,0.07427
3315.03763,0.07204
3316.96609,0.06879
3318.89456,0.06893
3320.82303,0.07357
3322.75150,0.07791
3324.67997,0.07646
3326.60844,0.07110
3328.53691,0.06725
3330.46537,0.06761
3332.39384,0.07138
3334.32231,0.07573
3336.25078,0.07632
3338.17925,0.07345
3340.10772,0.07281
3342.03619,0.07546
3343.96466,0.07829
3345.89312,0.07877
3347.82159,0.07704
3349.75006,0.07656
3351.67853,0.07857
3353.60700,0.08000
3355.53547,0.07920
3357.46394,0.07795
3359.39240,0.07736
3361.32087,0.07788
3363.24934,0.07989
3365.17781,0.08204
3367.10628,0.08361
3369.03475,0.08374
3370.96322,0.08040
3372.89168,0.07640
3374.82015,0.07614
3376.74862,0.07745
3378.67709,0.07768
3380.60556,0.07724
3382.53403,0.07571
3384.46250,0.07401
3386.39097,0.07493
3388.31943,0.07716
3390.24790,0.07757
3392.17637,0.07862
3394.10484,0.08188
3396.03331,0.08473
3397.96178,0.08540
3399.89025,0.08117
3401.81871,0.07409
3403.74718,0.07063
3405.67565,0.07036
3407.60412,0.07015
3409.53259,0.07023
3411.46106,0.07094
3413.38953,0.07264
3415.31800,0.07559
3417.24646,0.07892
3419.17493,0.08008
3421.10340,0.07688
3423.03187,0.07316
3424.96034,0.07368
3426.88881,0.07566
3428.81728,0.07476
3430.74574,0.07176
3432.67421,0.06871
3434.60268,0.06707
3436.53115,0.06781
3438.45962,0.06884
3440.38809,0.06878
3442.31656,0.06901
3444.24503,0.07115
3446.17349,0.07475
3448.10196,0.07519
3450.03043,0.07225
3451.95890,0.07018
3453.88737,0.06785
3455.81584,0.06563
3457.74431,0.06720
3459.67277,0.07001
3461.60124,0.07011
3463.52971,0.07000
3465.45818,0.07111
3467.38665,0.07154
3469.31512,0.07264
3471.24359,0.07614
3473.17206,0.07842
3475.10052,0.07505
3477.02899,0.06971
3478.95746,0.06808
3480.88593,0.06865
3482.81440,0.06897
3484.74287,0.06813
3486.67134,0.06449
3488.59980,0.06104
3490.52827,0.06247
3492.45674,0.06531
3494.38521,0.06573
3496.31368,0.06560
3498.24215,0.06485
3500.17062,0.06446
3502.09909,0.06713
3504.02755,0.06960
3505.95602,0.06856
3507.88449,0.06727
3509.81296,0.06685
3511.74143,0.06386
3513.66990,0.05893
3515.59837,0.05630
3517.52683,0.05774
3519.45530,0.06155
3521.38377,0.06453
3523.31224,0.06610
3525.24071,0.06760
3527.16918,0.06737
3529.09765,0.06398
3531.02611,0.06115
3532.95458,0.06073
3534.88305,0.06114
3536.81152,0.06192
3538.73999,0.06203
3540.66846,0.06125
3542.59693,0.06187
3544.52540,0.06626
3546.45386,0.07289
3548.38233,0.07518
3550.31080,0.07112
3552.23927,0.06411
3554.16774,0.05925
3556.09621,0.05998
3558.02468,0.06376
3559.95314,0.06578
3561.88161,0.06419
3563.81008,0.06260
3565.73855,0.06733
3567.66702,0.07523
3569.59549,0.07479
3571.52396,0.06898
3573.45243,0.06282
3575.38089,0.05971
3577.30936,0.06168
3579.23783,0.06255
3581.16630,0.05906
3583.09477,0.05914
3585.02324,0.06566
3586.95171,0.06887
3588.88017,0.06208
3590.80864,0.05826
3592.73711,0.06292
3594.66558,0.06695
3596.59405,0.06334
3598.52252,0.05753
3600.45099,0.05310
3602.37946,0.05033
3604.30792,0.04898
3606.23639,0.04823
3608.16486,0.04927
3610.09333,0.05223
3612.02180,0.05571
3613.95027,0.05893
3615.87874,0.06104
3617.80720,0.06116
3619.73567,0.05969
3621.66414,0.06041
3623.59261,0.06094
3625.52108,0.05838
3627.44955,0.05592
3629.37802,0.05564
3631.30649,0.05396
3633.23495,0.05066
3635.16342,0.04888
3637.09189,0.05158
3639.02036,0.05567
3640.94883,0.05609
3642.87730,0.05501
3644.80577,0.05797
3646.73423,0.06490
3648.66270,0.07036
3650.59117,0.06699
3652.51964,0.06000
3654.44811,0.05626
3656.37658,0.05403
3658.30505,0.05044
3660.23352,0.04859
3662.16198,0.04956
3664.09045,0.05108
3666.01892,0.05292
3667.94739,0.05634
3669.87586,0.06040
3671.80433,0.06232
3673.73280,0.06204
3675.66126,0.05954
3677.58973,0.05711
3679.51820,0.05491
3681.44667,0.05168
3683.37514,0.04938
3685.30361,0.04985
3687.23208,0.05215
3689.16055,0.05457
3691.08901,0.05557
3693.01748,0.05570
3694.94595,0.05704
3696.87442,0.05757
3698.80289,0.05632
3700.73136,0.05489
3702.65983,0.05323
3704.58829,0.05330
3706.51676,0.05345
3708.44523,0.05077
3710.37370,0.04913
3712.30217,0.04973
3714.23064,0.04672
3716.15911,0.04457
3718.08757,0.04892
3720.01604,0.05560
3721.94451,0.05512
3723.87298,0.04969
3725.80145,0.04767
3727.72992,0.04854
3729.65839,0.04976
3731.58686,0.05518
3733.51532,0.06770
3735.44379,0.07599
3737.37226,0.07030
3739.30073,0.06225
3741.22920,0.06006
3743.15767,0.06327
3745.08614,0.06449
3747.01460,0.05986
3748.94307,0.05611
3750.87154,0.05563
3752.80001,0.05536
3754.72848,0.05264
3756.65695,0.05108
3758.58542,0.05325
3760.51389,0.05436
3762.44235,0.05289
3764.37082,0.05300
3766.29929,0.05387
3768.22776,0.05459
3770.15623,0.05536
3772.08470,0.05257
3774.01317,0.04659
3775.94163,0.04297
3777.87010,0.04464
3779.79857,0.04723
3781.72704,0.04821
3783.65551,0.05094
3785.58398,0.05354
3787.51245,0.05268
3789.44092,0.05013
3791.36938,0.04636
3793.29785,0.04199
3795.22632,0.04051
3797.15479,0.04231
3799.08326,0.04603
3801.01173,0.05180
3802.94020,0.05435
3804.86866,0.05355
3806.79713,0.05173
3808.72560,0.04683
3810.65407,0.04491
3812.58254,0.04864
3814.51101,0.05314
3816.43948,0.05303
3818.36795,0.05187
3820.29641,0.05673
3822.22488,0.05943
3824.15335,0.05425
3826.08182,0.05099
3828.01029,0.04970
3829.93876,0.04660
3831.86723,0.04629
3833.79569,0.05374
3835.72416,0.06332
3837.65263,0.06642
3839.58110,0.06161
3841.50957,0.05649
3843.43804,0.05369
3845.36651,0.05173
3847.29498,0.04884
3849.22344,0.04547
3851.15191,0.04951
3853.08038,0.06344
3855.00885,0.06037
3856.93732,0.05243
3858.86579,0.05229
3860.79426,0.05335
3862.72272,0.05420
3864.65119,0.05351
3866.57966,0.05056
3868.50813,0.05215
3870.43660,0.05552
3872.36507,0.05126
3874.29354,0.04519
3876.22200,0.04250
3878.15047,0.04163
3880.07894,0.04163
3882.00741,0.04170
3883.93588,0.04083
3885.86435,0.04204
3887.79282,0.04649
3889.72129,0.04997
3891.64975,0.05103
3893.57822,0.05075
3895.50669,0.05059
3897.43516,0.05032
3899.36363,0.05014
3901.29210,0.05217
3903.22057,0.05499
3905.14903,0.05319
3907.07750,0.04740
3909.00597,0.04247
3910.93444,0.04114
3912.86291,0.04259
3914.79138,0.04251
3916.71985,0.04150
3918.64832,0.04374
3920.57678,0.04538
3922.50525,0.04376
3924.43372,0.04183
3926.36219,0.04007
3928.29066,0.03874
3930.21913,0.04048
3932.14760,0.04305
3934.07606,0.04299
3936.00453,0.04367
3937.93300,0.04632
3939.86147,0.04910
3941.78994,0.04839
3943.71841,0.04253
3945.64688,0.03728
3947.57535,0.03602
3949.50381,0.03703
3951.43228,0.03601
3953.36075,0.03250
3955.28922,0.03173
3957.21769,0.03643
3959.14616,0.04244
3961.07463,0.04437
3963.00309,0.04299
3964.93156,0.04262
3966.86003,0.04437
3968.78850,0.04488
3970.71697,0.04141
3972.64544,0.03581
3974.57391,0.03266
3976.50238,0.03251
3978.43084,0.03078
3980.35931,0.02910
3982.28778,0.03136
3984.21625,0.03351
3986.14472,0.03455
3988.07319,0.03897
3990.00166,0.04371
3991.93012,0.04356
3993.85859,0.04108
3995.78706,0.03961
3997.71553,0.03930
3999.64400,0.03909
4001.57247,0.03824
4003.50094,0.03799
4005.42941,0.03821
4007.35787,0.03715
4009.28634,0.03709
4011.21481,0.03986
4013.14328,0.04207
4015.07175,0.04116
4017.00022,0.03836
4018.92869,0.03786
4020.85715,0.03953
4022.78562,0.03869
4024.71409,0.03652
4026.64256,0.03451
4028.57103,0.03205
4030.49950,0.03191
4032.42797,0.03324
4034.35644,0.03373
4036.28490,0.03669
4038.21337,0.04069
4040.14184,0.04053
4042.07031,0.03809
4043.99878,0.03637
4045.92725,0.03586
4047.85572,0.03622
4049.78418,0.03518
4051.71265,0.03208
4053.64112,0.02960
4055.56959,0.02883
4057.49806,0.02836
4059.42653,0.02815
4061.35500,0.02959
4063.28346,0.03213
4065.21193,0.03197
4067.14040,0.02973
4069.06887,0.02968
4070.99734,0.02969
4072.92581,0.02767
4074.85428,0.02620
4076.78275,0.02703
4078.71121,0.03075
4080.63968,0.03597
4082.56815,0.03917
4084.49662,0.03823
4086.42509,0.03645
4088.35356,0.03725
4090.28203,0.03672
4092.21049,0.03268
4094.13896,0.02847
4096.06743,0.02639
4097.99590,0.02654
4099.92437,0.02750
4101.85284,0.02969
4103.78131,0.03413
4105.70978,0.03728
4107.63824,0.03483
4109.56671,0.03137
4111.49518,0.03428
4113.42365,0.03877
4115.35212,0.03757
4117.28059,0.03313
4119.20906,0.03037
4121.13752,0.03064
4123.06599,0.03102
4124.99446,0.03038
4126.92293,0.03138
4128.85140,0.03286
4130.77987,0.03286
4132.70834,0.03272
4134.63681,0.03332
4136.56527,0.03410
4138.49374,0.03360
4140.42221,0.03218
4142.35068,0.03180
4144.27915,0.03191
4146.20762,0.02980
4148.13609,0.02562
4150.06455,0.02304
4151.99302,0.02402
4153.92149,0.02693
4155.84996,0.02695
4157.77843,0.02439
4159.70690,0.02605
4161.63537,0.03059
4163.56384,0.03054
4165.49230,0.02593
4167.42077,0.02351
4169.34924,0.02525
4171.27771,0.02637
4173.20618,0.02628
4175.13465,0.02670
4177.06312,0.02525
4178.99158,0.02227
4180.92005,0.02259
4182.84852,0.02557
4184.77699,0.02523
4186.70546,0.02452
4188.63393,0.02864
4190.56240,0.02977
4192.49087,0.02393
4194.41933,0.02218
4196.34780,0.02881
4198.27627,0.03354
4200.20474,0.03057
4202.13321,0.02725
4204.06168,0.02953
4205.99015,0.03097
4207.91861,0.02677
4209.84708,0.02276
4211.77555,0.02226
4213.70402,0.02598
4215.63249,0.03048
4217.56096,0.02956
4219.48943,0.02753
4221.41789,0.02757
4223.34636,0.02589
4225.27483,0.02344
4227.20330,0.02274
4229.13177,0.02310
4231.06024,0.02629
4232.98871,0.03122
4234.91718,0.02955
4236.84564,0.02241
4238.77411,0.02147
4240.70258,0.02596
4242.63105,0.02564
4244.55952,0.02165
4246.48799,0.01888
4248.41646,0.01698
4250.34492,0.01741
4252.27339,0.01970
4254.20186,0.01901
4256.13033,0.01495
4258.05880,0.01271
4259.98727,0.01536
4261.91574,0.02079
4263.84421,0.02359
4265.77267,0.02430
4267.70114,0.02658
4269.62961,0.02617
4271.55808,0.02251
4273.48655,0.02004
4275.41502,0.01882
4277.34349,0.01795
4279.27195,0.01522
4281.20042,0.01073
4283.12889,0.00913
4285.05736,0.01163
4286.98583,0.01612
4288.91430,0.02091
4290.84277,0.02343
4292.77124,0.02281
4294.69970,0.02112
4296.62817,0.01934
4298.55664,0.01673
4300.48511,0.01493
4302.41358,0.01749
4304.34205,0.02237
4306.27052,0.02327
4308.19898,0.01902
4310.12745,0.01522
4312.05592,0.01537
4313.98439,0.01631
4315.91286,0.01445
4317.84133,0.01242
4319.76980,0.01499
4321.69827,0.01843
4323.62673,0.01867
4325.55520,0.01906
4327.48367,0.02083
4329.41214,0.02160
4331.34061,0.02002
4333.26908,0.01636
4335.19755,0.01256
4337.12601,0.01159
4339.05448,0.01300
4340.98295,0.01342
4342.91142,0.01256
4344.83989,0.01301
4346.76836,0.01554
4348.69683,0.01826
4350.62530,0.01968
4352.55376,0.01895
4354.48223,0.01687
4356.41070,0.01508
4358.33917,0.01430
4360.26764,0.01543
4362.19611,0.01532
4364.12458,0.01142
4366.05304,0.00984
4367.98151,0.01517
4369.90998,0.02210
4371.83845,0.02436
4373.76692,0.02104
4375.69539,0.01501
4377.62386,0.01064
4379.55232,0.00876
4381.48079,0.00890
4383.40926,0.01237
4385.33773,0.01555
4387.26620,0.01290
4389.19467,0.00897
4391.12314,0.01086
4393.05161,0.01577
4394.98007,0.01823
4396.90854,0.01615
4398.83701,0.01167
4400.76548,0.00874
4402.69395,0.00856
4404.62242,0.00840
4406.55089,0.00592
4408.47935,0.00646
4410.40782,0.01414
4412.33629,0.02127
4414.26476,0.02057
4416.19323,0.01589
4418.12170,0.01106
4420.05017,0.00693
4421.97864,0.00789
4423.90710,0.01116
4425.83557,0.01128
4427.76404,0.01231
4429.69251,0.01580
4431.62098,0.01631
4433.54945,0.01393
4435.47792,0.01399
4437.40638,0.01615
4439.33485,0.01586
4441.26332,0.01395
4443.19179,0.01534
4445.12026,0.01761
4447.04873,0.01592
4448.97720,0.01254
4450.90567,0.00780
4452.83413,0.00308
4454.76260,0.00357
4456.69107,0.00605
4458.61954,0.00653
4460.54801,0.00767
4462.47648,0.00932
4464.40495,0.00789
4466.33341,0.00518
4468.26188,0.00695
4470.19035,0.01030
4472.11882,0.01047
4474.04729,0.01024
4475.97576,0.00699
4477.90423,-0.00086
4479.83270,-0.00492
4481.76116,-0.00084
4483.68963,0.00668
4485.61810,0.00927
4487.54657,0.00490
4489.47504,0.00167
4491.40351,0.00269
4493.33198,0.00283
4495.26044,0.00158
4497.18891,0.00157
4499.11738,0.00284
4501.04585,0.00245
4502.97432,-0.00159
4504.90279,-0.00533
4506.83126,-0.00307
4508.75973,0.00503
4510.68819,0.00970
4512.61666,0.00365
4514.54513,-0.00461
4516.47360,-0.00411
4518.40207,-0.00208
4520.33054,-0.00356
4522.25901,-0.00016
4524.18747,0.00737
4526.11594,0.01178
4528.04441,0.01000
4529.97288,0.00604
4531.90135,0.00433
4533.82982,0.00542
4535.75829,0.01196
4537.68676,0.01558
4539.61522,0.01047
4541.54369,0.00812
4543.47216,0.01028
4545.40063,0.01018
4547.32910,0.00793
4549.25757,0.00651
4551.18604,0.00978
4553.11450,0.01655
4555.04297,0.01816
4556.97144,0.01383
4558.89991,0.01097
4560.82838,0.00770
4562.75685,-0.00033
4564.68532,-0.00711
4566.61378,-0.00522
4568.54225,0.00298
4570.47072,0.00797
4572.39919,0.00588
4574.32766,0.00237
4576.25613,0.00165
4578.18460,0.00267
4580.11307,0.00146
4582.04153,-0.00150
4583.97000,-0.00309
4585.89847,-0.00366
4587.82694,-0.00075
4589.75541,0.00416
4591.68388,0.00539
4593.61235,0.00566
4595.54081,0.00997
4597.46928,0.01405
4599.39775,0.01176
4601.32622,0.00706
4603.25469,0.00450
4605.18316,0.00267
4607.11163,0.00102
4609.04010,0.00202
4610.96856,0.00759
4612.89703,0.01414
4614.82550,0.01639
4616.75397,0.01327
4618.68244,0.01043
4620.61091,0.01385
4622.53938,0.01732
4624.46784,0.01191
4626.39631,0.00295
4628.32478,0.00050
4630.25325,0.00454
4632.18172,0.00760
4634.11019,0.00193
4636.03866,-0.00813
4637.96713,-0.01032
4639.89559,-0.00377
4641.82406,0.00349
4643.75253,0.00635
4645.68100,0.00707
4647.60947,0.00883
4649.53794,0.00788
4651.46641,0.00298
4653.39487,-0.00358
4655.32334,-0.00828
4657.25181,-0.00447
4659.18028,0.00373
4661.10875,0.00674
4663.03722,0.00681
4664.96569,0.00822
4666.89416,0.00915
4668.82262,0.00892
4670.75109,0.00849
4672.67956,0.00913
4674.60803,0.00923
4676.53650,0.00601
4678.46497,0.00287
4680.39344,0.00140
4682.32190,0.00090
4684.25037,0.00209
4686.17884,0.00193
4688.10731,0.00179
4690.03578,0.00677
4691.96425,0.01202
4693.89272,0.00960
4695.82119,0.00413
4697.74965,0.00284
4699.67812,0.00133
4701.60659,-0.00255
4703.53506,-0.00301
4705.46353,0.00208
4707.39200,0.00838
4709.32047,0.00841
4711.24893,0.00125
4713.17740,-0.00311
4715.10587,-0.00172
4717.03434,-0.00271
4718.96281,-0.00781
4720.89128,-0.01257
4722.81975,-0.01320
4724.74821,-0.00862
4726.67668,-0.00148
4728.60515,0.00609
4730.53362,0.01125
4732.46209,0.01236
4734.39056,0.01028
4736.31903,0.00296
4738.24750,-0.00461
4740.17596,-0.00403
4742.10443,0.00190
4744.03290,0.00912
4745.96137,0.01267
4747.88984,0.00896
4749.81831,0.00639
4751.74678,0.00927
4753.67524,0.01021
4755.60371,0.00292
4757.53218,-0.00600
4759.46065,-0.00540
4761.38912,-0.00187
4763.31759,-0.00364
4765.24606,-0.00510
4767.17453,-0.00614
4769.10299,-0.00987
4771.03146,-0.01036
4772.95993,-0.00613
4774.88840,-0.00419
4776.81687,-0.00618
4778.74534,-0.00842
4780.67381,-0.00676
4782.60227,0.00319
4784.53074,0.01695
4786.45921,0.01928
4788.38768,0.00969
4790.31615,0.00498
4792.24462,0.00660
4794.17309,0.00732
4796.10156,0.00847
4798.03002,0.00889
4799.95849,0.00747
4801.88696,0.00778
4803.81543,0.00932
4805.74390,0.01047
4807.67237,0.01298
4809.60084,0.01341
4811.52930,0.00714
4813.45777,0.00169
4815.38624,0.00844
4817.31471,0.02288
4819.24318,0.03045
4821.17165,0.02332
4823.10012,0.00826
4825.02859,0.00073
4826.95705,0.00003
4828.88552,-0.00189
4830.81399,-0.00090
4832.74246,0.00104
4834.67093,-0.00254
4836.59940,-0.00368
4838.52787,0.00383
4840.45633,0.01077
4842.38480,0.01549
4844.31327,0.02270
4846.24174,0.02571
4848.17021,0.02088
4850.09868,0.01485
4852.02715,0.01256
4853.95562,0.01004
4855.88408,0.00316
4857.81255,-0.00346
4859.74102,-0.00378
4861.66949,0.00022
4863.59796,-0.00100
4865.52643,-0.00731
4867.45490,-0.00944
4869.38336,-0.00859
4871.31183,-0.01012
4873.24030,-0.01030
4875.16877,-0.00404
4877.09724,0.00340
4879.02571,0.00598
4880.95418,0.00446
4882.88265,-0.00175
4884.81111,-0.00657
4886.73958,-0.00229
4888.66805,0.00333
4890.59652,0.00333
4892.52499,0.00442
4894.45346,0.01133
4896.38193,0.01870
4898.31039,0.01726
4900.23886,0.00995
4902.16733,0.00681
4904.09580,0.00384
4906.02427,-0.00096
4907.95274,-0.00005
4909.88121,0.00274
4911.80967,0.00224
4913.73814,0.00440
4915.66661,0.00825
4917.59508,0.00700
4919.52355,0.00274
4921.45202,-0.00084
4923.38049,0.00122
4925.30896,0.01459
4927.23742,0.02852
4929.16589,0.02759
4931.09436,0.02246
4933.02283,0.02559
4934.95130,0.02379
4936.87977,0.01310
4938.80824,0.00458
4940.73670,0.00050
4942.66517,-0.00650
4944.59364,-0.01581
4946.52211,-0.01131
4948.45058,0.00449
4950.37905,0.01156
4952.30752,0.00668
4954.23599,-0.00012
4956.16445,-0.00439
4958.09292,-0.00321
4960.02139,0.00601
4961.94986,0.01395
4963.87833,0.01291
4965.80680,0.00640
4967.73527,0.00044
4969.66373,0.00062
4971.59220,0.00496
4973.52067,0.00472
4975.44914,-0.00008
4977.37761,-0.00473
4979.30608,-0.00947
4981.23455,-0.00548
4983.16302,0.00616
4985.09148,0.00880
4987.01995,0.00468
4988.94842,0.00504
4990.87689,0.00950
4992.80536,0.01369
4994.73383,0.01227
4996.66230,0.00017
4998.59076,-0.01493
5000.51923,-0.02055
5002.44770,-0.01519
5004.37617,-0.00655
5006.30464,-0.00501
5008.23311,-0.00788
5010.16158,-0.00839
5012.09005,-0.00500
5014.01851,0.00197
5015.94698,0.00641
5017.87545,0.00734
5019.80392,0.01110
5021.73239,0.02018
5023.66086,0.02782
5025.58933,0.02318
5027.51779,0.00970
5029.44626,0.00134
5031.37473,0.00447
5033.30320,0.01321
5035.23167,0.01356
5037.16014,0.00061
5039.08861,-0.01002
5041.01708,-0.00871
5042.94554,-0.00356
5044.87401,0.00024
5046.80248,-0.00344
5048.73095,-0.01109
5050.65942,-0.01403
5052.58789,-0.01886
5054.51636,-0.01795
5056.44482,-0.00073
5058.37329,0.01838
5060.30176,0.02647
5062.23023,0.02238
5064.15870,0.01408
5066.08717,0.01240
5068.01564,0.01157
5069.94410,0.00121
5071.87257,-0.00956
5073.80104,-0.00682
5075.72951,0.00386
5077.65798,0.00950
5079.58645,0.00750
5081.51492,0.00135
5083.44339,-0.00062
5085.37185,0.00231
5087.30032,0.00162
5089.22879,0.00300
5091.15726,0.01153
5093.08573,0.01595
5095.01420,0.01102
5096.94267,0.00155
5098.87113,-0.00108
5100.79960,0.01153
5102.72807,0.02599
5104.65654,0.03204
5106.58501,0.03690
5108.51348,0.03585
5110.44195,0.02201
5112.37042,0.01103
5114.29888,0.01145
5116.22735,0.00587
5118.15582,-0.00747
5120.08429,-0.01151
5122.01276,-0.00859
5123.94123,-0.00393
5125.86970,0.00911
5127.79816,0.02205
5129.72663,0.02035
5131.65510,0.00963
5133.58357,0.00343
5135.51204,0.00605
5137.44051,0.01223
5139.36898,0.01104
5141.29745,0.00093
5143.22591,-0.00076
5145.15438,0.01229
5147.08285,0.02574
5149.01132,0.03295
5150.93979,0.03461
5152.86826,0.03199
5154.79673,0.02701
5156.72519,0.01743
5158.65366,0.01221
5160.58213,0.01850
5162.51060,0.01800
5164.43907,0.00797
5166.36754,0.01047
5168.29601,0.02173
5170.22448,0.02611
5172.15294,0.02048
5174.08141,0.00888
5176.00988,0.00331
5177.93835,0.01127
5179.86682,0.02457
5181.79529,0.03276
5183.72376,0.03528
5185.65222,0.02858
5187.58069,0.01289
5189.50916,0.00808
5191.43763,0.01620
5193.36610,0.01390
5195.29457,-0.00044
5197.22304,-0.00635
5199.15151,-0.00103
5201.07997,-0.00376
5203.00844,-0.01710
5204.93691,-0.01649
5206.86538,0.01200
5208.79385,0.03561
5210.72232,0.02743
5212.65079,0.00934
5214.57925,0.00363
5216.50772,0.00501
5218.43619,0.00355
5220.36466,-0.00478
5222.29313,-0.01352
5224.22160,-0.00842
5226.15007,0.00845
5228.07854,0.01754
5230.00700,0.01350
5231.93547,0.01253
5233.86394,0.01982
5235.79241,0.01630
5237.72088,0.00220
5239.64935,0.00259
5241.57782,0.02469
5243.50628,0.04336
5245.43475,0.03765
5247.36322,0.02116
5249.29169,0.00643
5251.22016,0.00788
5253.14863,0.03716
5255.07710,0.05942
5257.00556,0.04055
5258.93403,0.00923
5260.86250,0.00337
5262.79097,0.01762
5264.71944,0.02573
5266.64791,0.02167
5268.57638,0.00808
5270.50485,-0.00778
5272.43331,-0.01339
5274.36178,-0.00639
5276.29025,0.01084
5278.21872,0.02269
5280.14719,0.01689
5282.07566,0.01051
5284.00413,0.01459
5285.93259,0.01931
5287.86106,0.01685
5289.78953,0.00728
5291.71800,0.00288
5293.64647,0.01144
5295.57494,0.02080
5297.50341,0.02367
5299.43188,0.02396
5301.36034,0.02381
5303.28881,0.02368
5305.21728,0.02179
5307.14575,0.01110
5309.07422,-0.00260
5311.00269,0.00078
5312.93116,0.01545
5314.85962,0.01804
5316.78809,0.01428
5318.71656,0.01825
5320.64503,0.01953
5322.57350,0.01703
5324.50197,0.01923
5326.43044,0.02066
5328.35891,0.01804
5330.28737,0.01261
5332.21584,-0.00498
5334.14431,-0.02945
5336.07278,-0.03591
5338.00125,-0.02146
5339.92972,-0.00319
5341.85819,0.01297
5343.78665,0.02846
5345.71512,0.03429
5347.64359,0.02815
5349.57206,0.02722
5351.50053,0.03216
5353.42900,0.02247
5355.35747,0.00157
5357.28594,-0.00919
5359.21440,-0.00834
5361.14287,-0.00683
5363.07134,-0.01319
5364.99981,-0.01792
5366.92828,-0.00476
5368.85675,0.01168
5370.78522,0.00896
5372.71368,0.00404
5374.64215,0.01189
5376.57062,0.01569
5378.49909,0.01445
5380.42756,0.02008
5382.35603,0.02801
5384.28450,0.02919
5386.21297,0.02130
5388.14143,0.00950
5390.06990,0.00254
5391.99837,0.00213
5393.92684,0.00682
5395.85531,0.01933
5397.78378,0.03223
5399.71225,0.03472
5401.64071,0.02713
5403.56918,0.01607
5405.49765,0.00971
5407.42612,0.01150
5409.35459,0.01181
5411.28306,0.00140
5413.21153,-0.00808
5415.13999,-0.00090
5417.06846,0.00752
5418.99693,-0.00066
5420.92540,-0.01230
5422.85387,-0.00834
5424.78234,0.00450
5426.71081,0.01038
5428.63928,0.00746
5430.56774,0.00965
5432.49621,0.02567
5434.42468,0.04222
5436.35315,0.04317
5438.28162,0.03486
5440.21009,0.01984
5442.13856,0.00766
5444.06702,0.01149
5445.99549,0.01087
5447.92396,0.00238
5449.85243,0.01856
5451.78090,0.05711
5453.70937,0.08580
5455.63784,0.08729
5457.56631,0.06465
5459.49477,0.03973
5461.42324,0.02637
5463.35171,0.02115
5465.28018,0.01840
5467.20865,0.01699
5469.13712,0.01673
5471.06559,0.01295
5472.99405,0.00214
5474.92252,-0.00648
5476.85099,0.00499
5478.77946,0.02994
5480.70793,0.04628
5482.63640,0.04896
5484.56487,0.04941
5486.49334,0.04692
5488.42180,0.03646
5490.35027,0.03583
5492.27874,0.04402
5494.20721,0.04189
5496.13568,0.03671
5498.06415,0.03231
5499.99262,0.02625
5501.92108,0.02175
5503.84955,0.01943
5505.77802,0.01432
5507.70649,0.00511
5509.63496,0.00501
5511.56343,0.01631
5513.49190,0.02350
5515.42037,0.02072
5517.34883,0.01407
5519.27730,0.01296
5521.20577,0.02346
5523.13424,0.03258
5525.06271,0.03447
5526.99118,0.04308
5528.91965,0.05297
5530.84811,0.04902
5532.77658,0.03006
5534.70505,0.00568
5536.63352,0.00076
5538.56199,0.01960
5540.49046,0.03376
5542.41893,0.03481
5544.34740,0.02113
5546.27586,0.00188
5548.20433,0.01072
5550.13280,0.03112
5552.06127,0.02784
5553.98974,0.01761
5555.91821,0.02737
5557.84668,0.04684
5559.77514,0.05387
5561.70361,0.04033
5563.63208,0.02178
5565.56055,0.02988
5567.48902,0.04976
5569.41749,0.04558
5571.34596,0.01636
5573.27443,-0.01351
5575.20289,-0.01395
5577.13136,0.00054
5579.05983,-0.00158
5580.98830,-0.01550
5582.91677,-0.01023
5584.84524,0.02096
5586.77371,0.05826
5588.70217,0.08178
5590.63064,0.07258
5592.55911,0.04743
5594.48758,0.03628
5596.41605,0.03660
5598.34452,0.02925
5600.27299,0.00819
5602.20145,0.00047
5604.12992,0.01901
5606.05839,0.03106
5607.98686,0.01342
5609.91533,-0.01452
5611.84380,-0.00752
5613.77227,0.03967
5615.70074,0.06828
5617.62920,0.05533
5619.55767,0.03053
5621.48614,0.02044
5623.41461,0.03113
5625.34308,0.04683
5627.27155,0.05397
5629.20002,0.04640
5631.12848,0.03322
5633.05695,0.03442
5634.98542,0.04830
5636.91389,0.06483
5638.84236,0.07032
5640.77083,0.05031
5642.69930,0.01760
5644.62777,-0.00160
5646.55623,-0.00004
5648.48470,0.01223
5650.41317,0.02429
5652.34164,0.01853
5654.27011,0.00645
5656.19858,0.01503
5658.12705,0.02266
5660.05551,0.01349
5661.98398,0.01077
5663.91245,0.00763
5665.84092,-0.01174
5667.76939,-0.01936
5669.69786,-0.00355
5671.62633,0.01161
5673.55480,0.01355
5675.48326,0.00925
5677.41173,0.01398
5679.34020,0.02541
5681.26867,0.02936
5683.19714,0.03026
5685.12561,0.03247
5687.05408,0.02805
5688.98254,0.02038
5690.91101,0.02112
5692.83948,0.02827
5694.76795,0.04269
5696.69642,0.06646
5698.62489,0.07600
5700.55336,0.05550
5702.48183,0.03847
5704.41029,0.04829
5706.33876,0.05648
5708.26723,0.04873
5710.19570,0.04187
5712.12417,0.04307
5714.05264,0.04851
5715.98111,0.04968
5717.90957,0.04042
5719.83804,0.03099
5721.76651,0.02693
5723.69498,0.01607
5725.62345,0.00593
5727.55192,0.00658
5729.48039,0.00499
5731.40886,0.00601
5733.33732,0.01821
5735.26579,0.02828
5737.19426,0.02749
5739.12273,0.02027
5741.05120,0.01614
5742.97967,0.02284
5744.90814,0.03429
5746.83660,0.03995
5748.76507,0.04002
5750.69354,0.04295
5752.62201,0.04628
5754.55048,0.04197
5756.47895,0.04063
5758.40742,0.03976
5760.33588,0.02357
5762.26435,0.01119
5764.19282,0.02780
5766.12129,0.05258
5768.04976,0.05002
5769.97823,0.02276
5771.90670,0.00178
5773.83517,0.00333
5775.76363,0.01078
5777.69210,0.00613
5779.62057,0.00725
5781.54904,0.02782
5783.47751,0.04558
5785.40598,0.05278
5787.33445,0.05999
5789.26291,0.05385
5791.19138,0.03633
5793.11985,0.03767
5795.04832,0.04329
5796.97679,0.03125
5798.90526,0.01305
5800.83373,0.00359
5802.76220,0.02144
5804.69066,0.05747
5806.61913,0.08036
5808.54760,0.07433
5810.47607,0.03600
5812.40454,-0.01018
5814.33301,-0.01772
5816.26148,0.01585
5818.18994,0.04304
5820.11841,0.04677
5822.04688,0.04198
5823.97535,0.02405
5825.90382,0.00009
5827.83229,-0.01131
5829.76076,-0.01265
5831.68923,-0.01284
5833.61769,-0.00489
5835.54616,0.01226
5837.47463,0.02903
5839.40310,0.03441
5841.33157,0.02186
5843.26004,0.01153
5845.18851,0.00879
5847.11697,-0.00100
5849.04544,0.00708
5850.97391,0.03242
5852.90238,0.02693
5854.83085,0.00138
5856.75932,-0.01534
5858.68779,-0.02967
5860.61626,-0.03780
5862.54472,-0.02355
5864.47319,0.01268
5866.40166,0.04890
5868.33013,0.06519
5870.25860,0.06268
5872.18707,0.04478
5874.11554,0.02786
5876.04400,0.02933
5877.97247,0.02182
5879.90094,-0.00386
5881.82941,-0.00334
5883.75788,0.03676
5885.68635,0.07659
5887.61482,0.07571
5889.54329,0.05135
5891.47175,0.04420
5893.40022,0.03583
5895.32869,0.00315
5897.25716,-0.02802
5899.18563,-0.03291
5901.11410,-0.00991
5903.04257,0.01893
5904.97103,0.02450
5906.89950,0.00925
5908.82797,-0.00424
5910.75644,0.00506
5912.68491,0.02267
5914.61338,0.02560
5916.54185,0.02184
5918.47032,0.02107
5920.39878,0.03493
5922.32725,0.06155
5924.25572,0.05642
5926.18419,0.00642
5928.11266,-0.02196
5930.04113,0.00486
5931.96960,0.03777
5933.89806,0.04068
5935.82653,0.02996
5937.75500,0.02583
5939.68347,0.02811
5941.61194,0.03781
5943.54041,0.05403
5945.46888,0.06639
5947.39734,0.06160
5949.32581,0.05869
5951.25428,0.07649
5953.18275,0.07263
5955.11122,0.04013
5957.03969,0.01895
5958.96816,0.02558
5960.89663,0.04348
5962.82509,0.03940
5964.75356,0.03163
5966.68203,0.05385
5968.61050,0.08285
5970.53897,0.07959
5972.46744,0.05051
5974.39591,0.03250
5976.32437,0.02355
5978.25284,-0.00227
5980.18131,-0.01558
5982.10978,0.01795
5984.03825,0.05577
5985.96672,0.05009
5987.89519,0.04170
5989.82366,0.06781
5991.75212,0.08722
5993.68059,0.07550
5995.60906,0.05726
5997.53753,0.05279
5999.46600,0.05501
6001.39447,0.04349
6003.32294,0.02064
6005.25140,0.01779
6007.17987,0.03817
6009.10834,0.05218
6011.03681,0.04468
6012.96528,0.03059
6014.89375,0.03599
6016.82222,0.05501
6018.75069,0.06547
6020.67915,0.06372
6022.60762,0.04800
6024.53609,0.03792
6026.46456,0.03949
6028.39303,0.01460
6030.32150,-0.01857
6032.24997,-0.00975
6034.17843,0.02281
6036.10690,0.04100
6038.03537,0.03520
6039.96384,0.02500
6041.89231,0.03273
6043.82078,0.05798
6045.74925,0.07298
6047.67772,0.05802
6049.60618,0.04593
6051.53465,0.06896
6053.46312,0.09672
6055.39159,0.08739
6057.32006,0.05244
6059.24853,0.03913
6061.17700,0.04583
6063.10546,0.04142
6065.03393,0.02655
6066.96240,0.02512
6068.89087,0.04116
6070.81934,0.05160
6072.74781,0.03947
6074.67628,0.03027
6076.60475,0.05067
6078.53321,0.07278
6080.46168,0.07688
6082.39015,0.05971
6084.31862,0.02171
6086.24709,-0.00461
6088.17556,-0.01137
6090.10403,0.00022
6092.03249,0.03710
6093.96096,0.05380
6095.88943,0.04205
6097.81790,0.04779
6099.74637,0.05275
6101.67484,0.04403
6103.60331,0.04853
6105.53177,0.05276
6107.46024,0.04339
6109.38871,0.01786
6111.31718,-0.00770
6113.24565,0.00823
6115.17412,0.05061
6117.10259,0.06938
6119.03106,0.05742
6120.95952,0.04968
6122.88799,0.03981
6124.81646,0.02714
6126.74493,0.05981
6128.67340,0.10013
6130.60187,0.07675
6132.53034,0.04043
6134.45880,0.02614
6136.38727,0.00669
6138.31574,-0.00928
6140.24421,0.00297
6142.17268,0.03460
6144.10115,0.04221
6146.02962,0.01223
6147.95809,-0.00590
6149.88655,0.01325
6151.81502,0.02867
6153.74349,0.00840
6155.67196,-0.01172
6157.60043,-0.00780
6159.52890,-0.00154
6161.45737,0.01137
6163.38583,0.04053
6165.31430,0.04129
6167.24277,0.01264
6169.17124,0.00370
6171.09971,0.00952
6173.02818,0.01074
6174.95665,0.01079
6176.88512,0.00040
6178.81358,0.00060
6180.74205,0.03590
6182.67052,0.06110
6184.59899,0.04681
6186.52746,0.02971
6188.45593,0.03321
6190.38440,0.03028
6192.31286,0.00096
6194.24133,-0.02267
6196.16980,0.00264
6198.09827,0.05803
6200.02674,0.09275
6201.95521,0.09893
6203.88368,0.09956
6205.81215,0.10325
6207.74061,0.08860
6209.66908,0.04830
6211.59755,0.01849
6213.52602,0.02291
6215.45449,0.03486
6217.38296,0.02652
6219.31143,0.01735
6221.23989,0.02716
6223.16836,0.03437
6225.09683,0.04500
6227.02530,0.08365
6228.95377,0.09846
6230.88224,0.05115
6232.81071,0.02255
6234.73918,0.06955
6236.66764,0.10831
6238.59611,0.07080
6240.52458,0.00967
6242.45305,0.00114
6244.38152,0.01927
6246.30999,0.00619
6248.23846,-0.03091
6250.16692,-0.05510
6252.09539,-0.05510
6254.02386,-0.04739
6255.95233,-0.05053
6257.88080,-0.05706
6259.80927,-0.02755
6261.73774,0.02891
6263.66621,0.05348
6265.59467,0.02406
6267.52314,-0.01718
6269.45161,-0.01460
6271.38008,0.01890
6273.30855,0.02728
6275.23702,0.01765
6277.16549,0.02948
6279.09395,0.04246
6281.02242,0.04620
6282.95089,0.02399
6284.87936,-0.01344
6286.80783,-0.00187
6288.73630,0.03373
6290.66477,0.02812
6292.59323,0.00829
6294.52170,0.02735
6296.45017,0.06641
6298.37864,0.08787
6300.30711,0.08036
6302.23558,0.04336
6304.16405,0.00916
6306.09252,-0.00040
6308.02098,0.00295
6309.94945,0.01174
6311.87792,0.02156
6313.80639,0.01019
6315.73486,-0.00868
6317.66333,0.02926
6319.59180,0.10463
6321.52026,0.12126
6323.44873,0.07261
6325.37720,0.04928
6327.30567,0.09084
6329.23414,0.14564
6331.16261,0.15442
6333.09108,0.11141
6335.01955,0.04433
6336.94801,-0.00883
6338.87648,-0.03480
6340.80495,-0.01457
6342.73342,0.06574
6344.66189,0.13956
6346.59036,0.14696
6348.51883,0.11213
6350.44729,0.07021
6352.37576,0.05042
6354.30423,0.04144
6356.23270,0.01576
6358.16117,-0.00324
6360.08964,0.00610
6362.01811,0.02186
6363.94658,0.02231
6365.87504,0.01440
6367.80351,0.03452
6369.73198,0.06845
6371.66045,0.05292
6373.58892,0.04139
6375.51739,0.09346
6377.44586,0.14318
6379.37432,0.16798
6381.30279,0.17358
6383.23126,0.12283
6385.15973,0.03752
6387.08820,-0.01068
6389.01667,-0.01463
6390.94514,0.00955
6392.87361,0.02464
6394.80207,0.01733
6396.73054,0.04580
6398.65901,0.11606
6400.58748,0.16563
6402.51595,0.15290
6404.44442,0.10235
6406.37289,0.05701
6408.30135,0.02299
6410.22982,-0.01480
6412.15829,-0.02730
6414.08676,0.00623
6416.01523,0.03712
6417.94370,0.02967
6419.87217,0.01618
6421.80064,0.04132
6423.72910,0.09944
6425.65757,0.13020
6427.58604,0.08990
6429.51451,0.01800
6431.44298,-0.03675
6433.37145,-0.04705
6435.29992,-0.00836
6437.22838,0.02674
6439.15685,0.03653
6441.08532,0.06903
6443.01379,0.09945
6444.94226,0.08689
6446.87073,0.06093
6448.79920,0.04714
6450.72766,0.07608
6452.65613,0.13339
6454.58460,0.14613
6456.51307,0.11152
6458.44154,0.09202
6460.37001,0.08441
6462.29848,0.02542
6464.22695,-0.05188
6466.15541,-0.07136
6468.08388,-0.06650
6470.01235,-0.08946
6471.94082,-0.09582
6473.86929,-0.03553
6475.79776,0.06644
6477.72623,0.13941
6479.65469,0.15199
6481.58316,0.12246
6483.51163,0.07853
6485.44010,0.05179
6487.36857,0.04750
6489.29704,0.04635
6491.22551,0.03397
6493.15398,0.01394
6495.08244,-0.00605
6497.01091,-0.00480
6498.93938,0.02088
6500.86785,0.03810
6502.79632,0.02885
6504.72479,0.00897
6506.65326,-0.01141
6508.58172,-0.03470
6510.51019,-0.03114
6512.43866,-0.00182
6514.36713,-0.00367
6516.29560,-0.00678
6518.22407,0.02811
6520.15254,0.05276
6522.08101,0.04499
6524.00947,0.05312
6525.93794,0.08421
6527.86641,0.07635
6529.79488,0.04592
6531.72335,0.05350
6533.65182,0.06869
6535.58029,0.03469
6537.50875,0.01364
6539.43722,0.04778
6541.36569,0.06870
6543.29416,0.06492
6545.22263,0.06342
6547.15110,0.06904
6549.07957,0.09630
6551.00804,0.12055
6552.93650,0.09561
6554.86497,0.04546
6556.79344,0.01618
6558.72191,0.03289
6560.65038,0.07235
6562.57885,0.05479
6564.50732,0.00266
6566.43578,-0.00128
6568.36425,-0.00544
6570.29272,-0.05671
6572.22119,-0.07916
6574.14966,-0.01668
6576.07813,0.06104
6578.00660,0.08752
6579.93507,0.07792
6581.86353,0.04716
6583.79200,0.00767
6585.72047,0.00227
6587.64894,0.01315
6589.57741,0.00577
6591.50588,0.01068
6593.43435,0.03329
6595.36281,0.03525
6597.29128,0.02788
6599.21975,0.04154
6601.14822,0.07989
6603.07669,0.10514
6605.00516,0.07984
6606.93363,0.02478
6608.86210,-0.02705
6610.79056,-0.04882
6612.71903,0.00561
6614.64750,0.09843
6616.57597,0.13600
6618.50444,0.12902
6620.43291,0.09649
6622.36138,0.03611
6624.28984,0.00551
6626.21831,0.00180
6628.14678,-0.00630
6630.07525,0.00598
6632.00372,0.02322
6633.93219,0.02536
6635.86066,0.02866
6637.78912,0.02402
6639.71759,-0.00045
6641.64606,-0.03178
6643.57453,-0.04034
6645.50300,0.01616
6647.43147,0.12325
6649.35994,0.19719
6651.28841,0.19172
6653.21687,0.13580
6655.14534,0.09439
6657.07381,0.07566
6659.00228,0.05333
6660.93075,0.03125
6662.85922,0.00734
6664.78769,0.00393
6666.71615,0.02166
6668.64462,0.01434
6670.57309,-0.03042
6672.50156,-0.06753
6674.43003,-0.05175
6676.35850,-0.00919
6678.28697,0.03428
6680.21544,0.08734
6682.14390,0.11637
6684.07237,0.09034
6686.00084,0.06133
6687.92931,0.04388
6689.85778,0.01723
6691.78625,0.03517
6693.71472,0.07489
6695.64318,0.06943
6697.57165,0.04383
6699.50012,0.04946
6701.42859,0.07305
6703.35706,0.07904
6705.28553,0.04757
6707.21400,0.00294
6709.14247,-0.00440
6711.07093,0.03632
6712.99940,0.09490
6714.92787,0.12205
6716.85634,0.08223
6718.78481,0.02844
6720.71328,0.01818
6722.64175,0.01362
6724.57021,0.00738
6726.49868,0.03128
6728.42715,0.04662
6730.35562,0.01823
6732.28409,-0.01842
6734.21256,-0.03229
6736.14103,-0.00503
6738.06950,0.05802
6739.99796,0.10902
6741.92643,0.13016
6743.85490,0.13850
6745.78337,0.16048
6747.71184,0.18496
6749.64031,0.15448
6751.56878,0.10304
6753.49724,0.07554
6755.42571,0.05072
6757.35418,0.02424
6759.28265,-0.01647
6761.21112,-0.05252
6763.13959,-0.06017
6765.06806,-0.07037
6766.99653,-0.05504
6768.92499,0.01325
6770.85346,0.07767
6772.78193,0.11362
6774.71040,0.12485
6776.63887,0.07932
6778.56734,0.03310
6780.49581,0.03124
6782.42427,0.01573
6784.35274,-0.02483
6786.28121,-0.04365
6788.20968,-0.04360
6790.13815,-0.03939
6792.06662,-0.03311
6793.99509,-0.02903
6795.92355,-0.00617
6797.85202,0.02651
6799.78049,0.04535
6801.70896,0.02946
6803.63743,-0.00441
6805.56590,0.01913
6807.49437,0.06244
6809.42284,0.06572
6811.35130,0.07496
6813.27977,0.07915
6815.20824,0.01873
6817.13671,-0.00058
6819.06518,0.06767
6820.99365,0.08886
6822.92212,0.01475
6824.85058,-0.03730
6826.77905,-0.04879
6828.70752,-0.06715
6830.63599,-0.05939
6832.56446,-0.01850
6834.49293,0.04037
6836.42140,0.07649
6838.34987,0.04608
6840.27833,0.03534
6842.20680,0.06616
6844.13527,0.03645
6846.06374,-0.03950
6847.99221,-0.03375
6849.92068,0.03957
6851.84915,0.07604
6853.77761,0.08741
6855.70608,0.06865
6857.63455,0.03452
6859.56302,0.03516
6861.49149,0.07971
6863.41996,0.10319
6865.34843,0.03183
6867.27690,-0.04453
6869.20536,-0.00452
6871.13383,0.08493
6873.06230,0.11388
6874.99077,0.07831
6876.91924,0.04294
6878.84771,0.04450
6880.77618,0.06857
6882.70464,0.03255
6884.63311,-0.05212
6886.56158,-0.09738
6888.49005,-0.08479
6890.41852,-0.03041
6892.34699,0.03431
6894.27546,0.05614
6896.20393,0.05195
6898.13239,0.03081
6900.06086,-0.02554
6901.98933,-0.04275
6903.91780,0.04373
6905.84627,0.10594
6907.77474,0.02749
6909.70321,-0.05100
6911.63167,0.00352
6913.56014,0.10196
6915.48861,0.06625
6917.41708,-0.05695
6919.34555,-0.08601
6921.27402,-0.02667
6923.20249,-0.02075
6925.13096,-0.04198
6927.05942,-0.02378
6928.98789,-0.00119
6930.91636,-0.00409
6932.84483,0.01342
6934.77330,0.05013
6936.70177,0.08126
6938.63024,0.09913
6940.55870,0.09104
6942.48717,0.09242
6944.41564,0.08675
6946.34411,0.03220
6948.27258,-0.01018
6950.20105,-0.00383
6952.12952,-0.00318
6954.05799,-0.02826
6955.98645,-0.00807
6957.91492,0.06339
6959.84339,0.07065
6961.77186,-0.00538
6963.70033,-0.07972
6965.62880,-0.11099
6967.55727,-0.10117
6969.48573,-0.08613
6971.41420,-0.06865
6973.34267,-0.01775
6975.27114,0.03679
6977.19961,0.08229
6979.12808,0.13350
6981.05655,0.15174
6982.98501,0.08848
6984.91348,-0.03220
6986.84195,-0.12759
6988.77042,-0.14644
6990.69889,-0.09937
6992.62736,-0.02799
6994.55583,0.00819
6996.48430,-0.00322
6998.41276,0.00889
7000.34123,0.06289
7002.26970,0.12222
7004.19817,0.15381
7006.12664,0.14606
7008.05511,0.10956
7009.98358,0.04048
7011.91204,-0.04683
7013.84051,-0.05236
7015.76898,0.04692
7017.69745,0.09075
7019.62592,0.05288
7021.55439,0.04393
7023.48286,0.07580
7025.41133,0.09010
7027.33979,0.11342
7029.26826,0.18001
7031.19673,0.15060
7033.12520,0.03782
7035.05367,0.00859
7036.98214,0.03336
7038.91061,0.02683
7040.83907,-0.01452
7042.76754,-0.06421
7044.69601,-0.05668
7046.62448,0.00162
7048.55295,0.07218
7050.48142,0.15400
7052.40989,0.18857
7054.33836,0.14582
7056.26682,0.10803
7058.19529,0.08006
7060.12376,0.03875
7062.05223,0.01637
7063.98070,0.00448
7065.90917,-0.00705
7067.83764,-0.00443
7069.76610,0.02951
7071.69457,0.05982
7073.62304,0.07322
7075.55151,0.05204
7077.47998,0.00741
7079.40845,0.01269
7081.33692,0.05933
7083.26539,0.07054
7085.19385,0.05839
7087.12232,0.03801
7089.05079,0.02974
7090.97926,0.05419
7092.90773,0.07396
7094.83620,0.01853
7096.76467,-0.04957
7098.69313,0.00534
7100.62160,0.07834
7102.55007,0.09708
7104.47854,0.06514
7106.40701,-0.02417
7108.33548,-0.09703
7110.26395,-0.08035
7112.19242,-0.01831
7114.12088,0.00315
7116.04935,-0.01394
7117.97782,-0.00702
7119.90629,0.05555
7121.83476,0.09053
7123.76323,0.07456
7125.69170,0.10141
7127.62016,0.14062
7129.54863,0.10920
7131.47710,0.05698
7133.40557,0.01608
7135.33404,-0.03506
7137.26251,-0.03753
7139.19098,0.04583
7141.11944,0.09915
7143.04791,0.08326
7144.97638,0.06160
7146.90485,0.04274
7148.83332,0.07935
7150.76179,0.20806
7152.69026,0.31596
7154.61873,0.26995
7156.54719,0.16106
7158.47566,0.09760
7160.40413,0.07759
7162.33260,0.07372
7164.26107,0.07800
7166.18954,0.10085
7168.11801,0.11479
7170.04647,0.13573
7171.97494,0.17639
7173.90341,0.17439
7175.83188,0.16599
7177.76035,0.20387
7179.68882,0.17209
7181.61729,0.06882
7183.54576,0.03591
7185.47422,0.02203
7187.40269,-0.04180
7189.33116,-0.10286
7191.25963,-0.10207
7193.18810,-0.04946
7195.11657,-0.02945
7197.04504,-0.04941
7198.97350,-0.06579
7200.90197,-0.04054
7202.83044,0.06140
7204.75891,0.17880
7206.68738,0.17299
7208.61585,0.10602
7210.54432,0.01763
7212.47279,-0.12109
7214.40125,-0.26912
7216.32972,-0.27672
7218.25819,-0.03206
7220.18666,0.17522
7222.11513,0.18451
7224.04360,0.14727
7225.97207,0.14592
7227.90053,0.15641
7229.82900,0.19676
7231.75747,0.25512
7233.68594,0.25070
7235.61441,0.17519
7237.54288,0.01895
7239.47135,-0.10397
7241.39982,-0.08105
7243.32828,-0.01175
7245.25675,0.00143
7247.18522,0.03510
7249.11369,0.10434
7251.04216,0.12357
7252.97063,-0.00231
7254.89910,-0.11086
7256.82756,-0.06726
7258.75603,0.02552
7260.68450,0.07518
7262.61297,0.03350
7264.54144,-0.09001
7266.46991,-0.20937
7268.39838,-0.26238
7270.32685,-0.22957
7272.25531,-0.11735
7274.18378,-0.04594
7276.11225,-0.01835
7278.04072,0.07156
7279.96919,0.16930
7281.89766,0.08945
7283.82613,-0.02508
7285.75459,-0.03371
7287.68306,-0.03498
7289.61153,-0.06904
7291.54000,-0.04156
7293.46847,0.04338
7295.39694,0.13313
7297.32541,0.19791
7299.25387,0.16970
7301.18234,0.06497
7303.11081,0.03620
7305.03928,0.13782
7306.96775,0.19198
7308.89622,0.14200
7310.82469,0.08300
7312.75316,-0.00769
7314.68162,-0.09741
7316.61009,-0.12607
7318.53856,-0.10280
7320.46703,-0.11203
7322.39550,-0.10709
7324.32397,-0.00053
7326.25244,0.06689
7328.18090,-0.00223
7330.10937,-0.07895
7332.03784,-0.00653
7333.96631,0.16558
7335.89478,0.26420
7337.82325,0.23386
7339.75172,0.08544
7341.68019,-0.04786
7343.60865,-0.04948
7345.53712,-0.03141
7347.46559,-0.04157
7349.39406,0.02515
7351.32253,0.10038
7353.25100,0.04720
7355.17947,-0.05540
7357.10793,-0.14009
7359.03640,-0.17407
7360.96487,-0.09950
7362.89334,0.00455
7364.82181,0.02368
7366.75028,-0.02536
7368.67875,-0.05923
7370.60722,-0.04837
7372.53568,0.01662
7374.46415,0.15056
7376.39262,0.17801
7378.32109,0.05399
7380.24956,0.01226
7382.17803,0.09635
7384.10650,0.17834
7386.03496,0.22648
7387.96343,0.20717
7389.89190,0.12797
7391.82037,0.04074
7393.74884,-0.05658
7395.67731,-0.05571
7397.60578,0.04153
7399.53425,0.07074
7401.46271,0.04137
7403.39118,0.02333
7405.31965,-0.02118
7407.24812,-0.07924
7409.17659,-0.04374
7411.10506,0.06182
7413.03353,0.11635
7414.96199,0.12009
7416.89046,0.08365
7418.81893,-0.00856
7420.74740,-0.03012
7422.67587,0.04169
7424.60434,0.11009
7426.53281,0.17581
7428.46128,0.25511
7430.38974,0.30556
7432.31821,0.25579
7434.24668,0.14273
7436.17515,0.05773
7438.10362,0.00965
7440.03209,-0.03626
7441.96056,-0.07421
7443.88902,-0.03456
7445.81749,0.12668
7447.74596,0.24945
7449.67443,0.23964
7451.60290,0.15880
7453.53137,0.08170
7455.45984,0.05107
7457.38831,0.01517
7459.31677,-0.02754
7461.24524,-0.01393
7463.17371,-0.01797
7465.10218,-0.07988
7467.03065,-0.12379
7468.95912,-0.07166
7470.88759,0.02073
7472.81605,0.02000
7474.74452,-0.03484
7476.67299,-0.05917
7478.60146,-0.08998
7480.52993,-0.19066
7482.45840,-0.24598
7484.38687,-0.15590
7486.31533,-0.03610
7488.24380,0.05038
7490.17227,0.12257
7492.10074,0.18404
7494.02921,0.18271
7495.95768,0.08489
7497.88615,-0.07795
