399.19301,-0.02678
401.12148,0.32862
403.04995,0.36372
404.97842,0.16833
406.90689,0.03246
408.83536,0.03032
410.76382,0.09427
412.69229,0.10001
414.62076,0.05323
416.54923,0.03886
418.47770,0.07274
420.40617,0.07755
422.33464,0.04094
424.26311,0.02126
426.19157,0.04365
428.12004,0.07635
430.04851,0.09170
431.97698,0.10528
433.90545,0.10281
435.83392,0.09023
437.76239,0.11219
439.69085,0.13040
441.61932,0.07493
443.54779,-0.00578
445.47626,-0.01426
447.40473,0.02136
449.33320,0.05240
451.26167,0.06838
453.19013,0.05523
455.11860,0.02966
457.04707,0.04580
458.97554,0.09704
460.90401,0.12613
462.83248,0.14312
464.76095,0.13530
466.68942,0.06657
468.61788,0.00607
470.54635,0.04646
472.47482,0.20684
474.40329,0.30884
476.33176,0.18088
478.26023,0.05631
480.18870,-0.00026
482.11716,-0.00958
484.04563,0.03594
485.97410,0.09906
487.90257,0.11273
489.83104,0.05963
491.75951,-0.00344
493.68798,-0.01731
495.61645,0.00156
497.54491,0.01987
499.47338,0.03164
501.40185,0.02590
503.33032,-0.00177
505.25879,-0.01099
507.18726,0.01172
509.11573,0.03694
511.04419,0.05021
512.97266,0.05161
514.90113,0.05500
516.82960,0.07231
518.75807,0.08321
520.68654,0.06500
522.61501,0.03801
524.54348,0.03007
526.47194,0.03701
528.40041,0.04570
530.32888,0.05365
532.25735,0.05804
534.18582,0.05553
536.11429,0.05609
538.04276,0.05523
539.97122,0.04163
541.89969,0.03047
543.82816,0.03325
545.75663,0.04709
547.68510,0.05668
549.61357,0.04799
551.54204,0.02285
553.47051,-0.00184
555.39897,-0.01420
557.32744,-0.02205
559.25591,-0.02843
561.18438,-0.02881
563.11285,-0.01989
565.04132,-0.00572
566.96979,0.00580
568.89825,0.01899
570.82672,0.03685
572.75519,0.05299
574.68366,0.05814
576.61213,0.04476
578.54060,0.02266
580.46907,0.01308
582.39754,0.01766
584.32600,0.02518
586.25447,0.03408
588.18294,0.03329
590.11141,0.02805
592.03988,0.04521
593.96835,0.06461
595.89682,0.05586
597.82528,0.03581
599.75375,0.02346
601.68222,0.02680
603.61069,0.04238
605.53916,0.04938
607.46763,0.04539
609.39610,0.03902
611.32456,0.02925
613.25303,0.02756
615.18150,0.03293
617.10997,0.02807
619.03844,0.02791
620.96691,0.04487
622.89538,0.06330
624.82385,0.07126
626.75231,0.06341
628.68078,0.04294
630.60925,0.02579
632.53772,0.02666
634.46619,0.04121
636.39466,0.05226
638.32313,0.05165
640.25159,0.04474
642.18006,0.04629
644.10853,0.05732
646.03700,0.06486
647.96547,0.06221
649.89394,0.04936
651.82241,0.03581
653.75088,0.03035
655.67934,0.02752
657.60781,0.01727
659.53628,0.00451
661.46475,0.00824
663.39322,0.02537
665.32169,0.03321
667.25016,0.02312
669.17862,0.01449
671.10709,0.01868
673.03556,0.02360
674.96403,0.03145
676.89250,0.03313
678.82097,0.03262
680.74944,0.04373
682.67791,0.05487
684.60637,0.05782
686.53484,0.05522
688.46331,0.05106
690.39178,0.04911
692.32025,0.04383
694.24872,0.03587
696.17719,0.03616
698.10565,0.04192
700.03412,0.03999
701.96259,0.03334
703.89106,0.02821
705.81953,0.02167
707.74800,0.02142
709.67647,0.03822
711.60494,0.05757
713.53340,0.05814
715.46187,0.04845
717.39034,0.04379
719.31881,0.04075
721.24728,0.03642
723.17575,0.03318
725.10422,0.03396
727.03268,0.03803
728.96115,0.03883
730.88962,0.03669
732.81809,0.03940
734.74656,0.04394
736.67503,0.04056
738.60350,0.03356
740.53197,0.03333
742.46043,0.04218
744.38890,0.05410
746.31737,0.05856
748.24584,0.05315
750.17431,0.04525
752.10278,0.03952
754.03125,0.03931
755.95971,0.04542
757.88818,0.04716
759.81665,0.04288
761.74512,0.04358
763.67359,0.04737
765.60206,0.04306
767.53053,0.03077
769.45900,0.02270
771.38746,0.02704
773.31593,0.04008
775.24440,0.04914
777.17287,0.04619
779.10134,0.03863
781.02981,0.03718
782.95828,0.04497
784.88674,0.05275
786.81521,0.04727
788.74368,0.03395
790.67215,0.03004
792.60062,0.03422
794.52909,0.03689
796.45756,0.04115
798.38602,0.04477
800.31449,0.04238
802.24296,0.04006
804.17143,0.04108
806.09990,0.04332
808.02837,0.04283
809.95684,0.03823
811.88531,0.03328
813.81377,0.03002
815.74224,0.03422
817.67071,0.04613
819.59918,0.05661
821.52765,0.06407
823.45612,0.06492
825.38459,0.05316
827.31305,0.03789
829.24152,0.03576
831.16999,0.04743
833.09846,0.06021
835.02693,0.06310
836.95540,0.05523
838.88387,0.04959
840.81234,0.04809
842.74080,0.04094
844.66927,0.03209
846.59774,0.03140
848.52621,0.04176
850.45468,0.05354
852.38315,0.05518
854.31162,0.05058
856.24008,0.04912
858.16855,0.04735
860.09702,0.04311
862.02549,0.04778
863.95396,0.06000
865.88243,0.06317
867.81090,0.04147
869.73937,0.00032
871.66783,-0.01930
873.59630,0.00338
875.52477,0.03454
877.45324,0.04563
879.38171,0.04428
881.31018,0.04059
883.23865,0.03936
885.16711,0.04293
887.09558,0.04684
889.02405,0.04841
890.95252,0.04873
892.88099,0.04806
894.80946,0.04633
896.73793,0.04632
898.66640,0.04710
900.59486,0.04419
902.52333,0.04262
904.45180,0.04818
906.38027,0.05289
908.30874,0.05030
910.23721,0.04799
912.16568,0.04992
914.09414,0.04686
916.02261,0.03664
917.95108,0.03223
919.87955,0.03931
921.80802,0.05083
923.73649,0.05909
925.66496,0.05894
927.59343,0.05205
929.52189,0.04686
931.45036,0.04701
933.37883,0.04590
935.30730,0.04161
937.23577,0.04129
939.16424,0.04394
941.09271,0.04287
943.02117,0.03996
944.94964,0.03951
946.87811,0.03898
948.80658,0.03909
950.73505,0.04295
952.66352,0.04629
954.59199,0.04618
956.52045,0.04576
958.44892,0.04855
960.37739,0.05343
962.30586,0.05627
964.23433,0.05627
966.16280,0.05415
968.09127,0.05012
970.01974,0.04571
971.94820,0.04438
973.87667,0.04850
975.80514,0.05128
977.73361,0.04659
979.66208,0.04249
981.59055,0.04431
983.51902,0.04747
985.44748,0.04998
987.37595,0.05064
989.30442,0.04929
991.23289,0.04899
993.16136,0.05089
995.08983,0.05345
997.01830,0.05378
998.94677,0.05240
1000.87523,0.05242
1002.80370,0.05053
1004.73217,0.04538
1006.66064,0.04432
1008.58911,0.04699
1010.51758,0.04598
1012.44605,0.04290
1014.37451,0.04486
1016.30298,0.05121
1018.23145,0.05353
1020.15992,0.05088
1022.08839,0.04681
1024.01686,0.04078
1025.94533,0.03662
1027.87380,0.03825
1029.80226,0.04344
1031.73073,0.04704
1033.65920,0.04654
1035.58767,0.04729
1037.51614,0.05403
1039.44461,0.05966
1041.37308,0.05945
1043.30154,0.06002
1045.23001,0.05918
1047.15848,0.05255
1049.08695,0.04763
1051.01542,0.04818
1052.94389,0.04994
1054.87236,0.05117
1056.80083,0.05558
1058.72929,0.06197
1060.65776,0.06246
1062.58623,0.05686
1064.51470,0.05397
1066.44317,0.05700
1068.37164,0.05952
1070.30011,0.05836
1072.22857,0.05591
1074.15704,0.05270
1076.08551,0.04991
1078.01398,0.05222
1079.94245,0.05576
1081.87092,0.05275
1083.79939,0.04741
1085.72786,0.04772
1087.65632,0.05284
1089.58479,0.05467
1091.51326,0.05129
1093.44173,0.05130
1095.37020,0.06079
1097.29867,0.07099
1099.22714,0.06756
1101.15560,0.05388
1103.08407,0.04389
1105.01254,0.04206
1106.94101,0.04672
1108.86948,0.05432
1110.79795,0.05791
1112.72642,0.05464
1114.65489,0.04902
1116.58335,0.04573
1118.51182,0.04390
1120.44029,0.04243
1122.36876,0.04247
1124.29723,0.04289
1126.22570,0.04532
1128.15417,0.04860
1130.08263,0.04718
1132.01110,0.04533
1133.93957,0.04872
1135.86804,0.05287
1137.79651,0.05398
1139.72498,0.05489
1141.65345,0.05624
1143.58191,0.05617
1145.51038,0.05498
1147.43885,0.05354
1149.36732,0.05260
1151.29579,0.05217
1153.22426,0.05056
1155.15273,0.04681
1157.08120,0.04487
1159.00966,0.04858
1160.93813,0.05361
1162.86660,0.05476
1164.79507,0.05425
1166.72354,0.05478
1168.65201,0.05439
1170.58048,0.05110
1172.50894,0.04690
1174.43741,0.04720
1176.36588,0.05195
1178.29435,0.05369
1180.22282,0.05127
1182.15129,0.05034
1184.07976,0.05170
1186.00823,0.05319
1187.93669,0.05491
1189.86516,0.05613
1191.79363,0.05506
1193.72210,0.05263
1195.65057,0.05199
1197.57904,0.05384
1199.50751,0.05563
1201.43597,0.05523
1203.36444,0.05273
1205.29291,0.05082
1207.22138,0.05151
1209.14985,0.05227
1211.07832,0.05219
1213.00679,0.05385
1214.93526,0.05498
1216.86372,0.05318
1218.79219,0.05218
1220.72066,0.05235
1222.64913,0.05181
1224.57760,0.05170
1226.50607,0.05066
1228.43454,0.04854
1230.36300,0.04956
1232.29147,0.05275
1234.21994,0.05326
1236.14841,0.05208
1238.07688,0.05329
1240.00535,0.05629
1241.93382,0.05757
1243.86229,0.05693
1245.79075,0.05571
1247.71922,0.05452
1249.64769,0.05595
1251.57616,0.05800
1253.50463,0.05540
1255.43310,0.05078
1257.36157,0.04911
1259.29003,0.05034
1261.21850,0.05183
1263.14697,0.05336
1265.07544,0.05689
1267.00391,0.05945
1268.93238,0.05840
1270.86085,0.05839
1272.78932,0.05986
1274.71778,0.05753
1276.64625,0.05402
1278.57472,0.05316
1280.50319,0.05162
1282.43166,0.04986
1284.36013,0.05021
1286.28860,0.05007
1288.21706,0.05081
1290.14553,0.05457
1292.07400,0.05639
1294.00247,0.05410
1295.93094,0.05262
1297.85941,0.05515
1299.78788,0.05761
1301.71634,0.05510
1303.64481,0.05039
1305.57328,0.04853
1307.50175,0.04937
1309.43022,0.04999
1311.35869,0.05028
1313.28716,0.05168
1315.21563,0.05408
1317.14409,0.05662
1319.07256,0.05734
1321.00103,0.05756
1322.92950,0.05888
1324.85797,0.05847
1326.78644,0.05676
1328.71491,0.05580
1330.64337,0.05465
1332.57184,0.05300
1334.50031,0.05195
1336.42878,0.05211
1338.35725,0.05341
1340.28572,0.05473
1342.21419,0.05430
1344.14266,0.05233
1346.07112,0.05057
1347.99959,0.05071
1349.92806,0.05247
1351.85653,0.05336
1353.78500,0.05207
1355.71347,0.04985
1357.64194,0.04826
1359.57040,0.04915
1361.49887,0.05371
1363.42734,0.05733
1365.35581,0.05720
1367.28428,0.05666
1369.21275,0.05454
1371.14122,0.05202
1373.06969,0.05470
1374.99815,0.05988
1376.92662,0.05952
1378.85509,0.05591
1380.78356,0.05439
1382.71203,0.05445
1384.64050,0.05542
1386.56897,0.05951
1388.49743,0.06396
1390.42590,0.06494
1392.35437,0.06490
1394.28284,0.06474
1396.21131,0.06243
1398.13978,0.05934
1400.06825,0.05937
1401.99672,0.06193
1403.92518,0.06433
1405.85365,0.06410
1407.78212,0.06065
1409.71059,0.05742
1411.63906,0.05721
1413.56753,0.06016
1415.49600,0.06372
1417.42446,0.06350
1419.35293,0.05912
1421.28140,0.06015
1423.20987,0.06464
1425.13834,0.06387
1427.06681,0.06049
1428.99528,0.05965
1430.92375,0.05967
1432.85221,0.06024
1434.78068,0.06179
1436.70915,0.06127
1438.63762,0.05772
1440.56609,0.05566
1442.49456,0.05591
1444.42303,0.05757
1446.35149,0.06083
1448.27996,0.06418
1450.20843,0.06456
1452.13690,0.06410
1454.06537,0.06666
1455.99384,0.07277
1457.92231,0.07435
1459.85077,0.06785
1461.77924,0.06383
1463.70771,0.06470
1465.63618,0.06686
1467.56465,0.06595
1469.49312,0.06544
1471.42159,0.06805
1473.35006,0.06830
1475.27852,0.06293
1477.20699,0.06077
1479.13546,0.06213
1481.06393,0.06325
1482.99240,0.06361
1484.92087,0.06467
1486.84934,0.06923
1488.77780,0.07652
1490.70627,0.07667
1492.63474,0.07134
1494.56321,0.06925
1496.49168,0.07136
1498.42015,0.07205
1500.34862,0.06772
1502.27709,0.06347
1504.20555,0.06500
1506.13402,0.07620
1508.06249,0.07942
1509.99096,0.07123
1511.91943,0.06951
1513.84790,0.07254
1515.77637,0.07654
1517.70483,0.07875
1519.63330,0.08064
1521.56177,0.08324
1523.49024,0.08116
1525.41871,0.07890
1527.34718,0.07674
1529.27565,0.07170
1531.20412,0.06955
1533.13258,0.07190
1535.06105,0.07165
1536.98952,0.07080
1538.91799,0.07564
1540.84646,0.08287
1542.77493,0.08221
1544.70340,0.07815
1546.63186,0.07397
1548.56033,0.07033
1550.48880,0.06720
1552.41727,0.06779
1554.34574,0.07339
1556.27421,0.08229
1558.20268,0.09049
1560.13115,0.08135
1562.05961,0.07252
1563.98808,0.07050
1565.91655,0.07075
1567.84502,0.07255
1569.77349,0.07190
1571.70196,0.06867
1573.63043,0.07110
1575.55889,0.07816
1577.48736,0.07631
1579.41583,0.06729
1581.34430,0.06069
1583.27277,0.05701
1585.20124,0.05579
1587.12971,0.05734
1589.05818,0.06137
1590.98664,0.06368
1592.91511,0.06158
1594.84358,0.05974
1596.77205,0.06084
1598.70052,0.06182
1600.62899,0.06298
1602.55746,0.06568
1604.48592,0.06689
1606.41439,0.06587
1608.34286,0.06484
1610.27133,0.06312
1612.19980,0.06154
1614.12827,0.06404
1616.05674,0.06981
1617.98521,0.06953
1619.91367,0.06575
1621.84214,0.06484
1623.77061,0.06433
1625.69908,0.06384
1627.62755,0.06319
1629.55602,0.05995
1631.48449,0.05926
1633.41295,0.06585
1635.34142,0.07457
1637.26989,0.07066
1639.19836,0.06367
1641.12683,0.06190
1643.05530,0.06377
1644.98377,0.07015
1646.91223,0.07822
1648.84070,0.07952
1650.76917,0.08193
1652.69764,0.08717
1654.62611,0.07938
1656.55458,0.07082
1658.48305,0.06872
1660.41152,0.07024
1662.33998,0.07145
1664.26845,0.06913
1666.19692,0.06917
1668.12539,0.07600
1670.05386,0.08212
1671.98233,0.08005
1673.91080,0.07928
1675.83926,0.07966
1677.76773,0.07703
1679.69620,0.07558
1681.62467,0.07812
1683.55314,0.08266
1685.48161,0.07990
1687.41008,0.07419
1689.33855,0.07076
1691.26701,0.06811
1693.19548,0.06900
1695.12395,0.07609
1697.05242,0.08335
1698.98089,0.08395
1700.90936,0.08234
1702.83783,0.08148
1704.76629,0.07911
1706.69476,0.07384
1708.62323,0.06891
1710.55170,0.06685
1712.48017,0.06850
1714.40864,0.07388
1716.33711,0.07987
1718.26558,0.07806
1720.19404,0.07233
1722.12251,0.06945
1724.05098,0.06758
1725.97945,0.06729
1727.90792,0.07099
1729.83639,0.07655
1731.76486,0.08036
1733.69332,0.07993
1735.62179,0.07362
1737.55026,0.06794
1739.47873,0.06544
1741.40720,0.06602
1743.33567,0.06756
1745.26414,0.06937
1747.19261,0.07369
1749.12107,0.07789
1751.04954,0.07520
1752.97801,0.06938
1754.90648,0.06750
1756.83495,0.06934
1758.76342,0.07139
1760.69189,0.07209
1762.62035,0.07032
1764.54882,0.06775
1766.47729,0.06812
1768.40576,0.07118
1770.33423,0.07526
1772.26270,0.07783
1774.19117,0.07523
1776.11964,0.07040
1778.04810,0.06742
1779.97657,0.06738
1781.90504,0.06885
1783.83351,0.07057
1785.76198,0.07093
1787.69045,0.06950
1789.61892,0.06853
1791.54738,0.06763
1793.47585,0.06595
1795.40432,0.06609
1797.33279,0.06760
1799.26126,0.06837
1801.18973,0.06884
1803.11820,0.06865
1805.04666,0.06598
1806.97513,0.06394
1808.90360,0.06585
1810.83207,0.06845
1812.76054,0.06832
1814.68901,0.06730
1816.61748,0.06728
1818.54595,0.06878
1820.47441,0.07047
1822.40288,0.06986
1824.33135,0.06717
1826.25982,0.06592
1828.18829,0.06822
1830.11676,0.07043
1832.04523,0.06853
1833.97369,0.06565
1835.90216,0.06377
1837.83063,0.06295
1839.75910,0.06348
1841.68757,0.06487
1843.61604,0.06621
1845.54451,0.06619
1847.47298,0.06553
1849.40144,0.06514
1851.32991,0.06494
1853.25838,0.06473
1855.18685,0.06454
1857.11532,0.06486
1859.04379,0.06581
1860.97226,0.06701
1862.90072,0.06734
1864.82919,0.06782
1866.75766,0.07128
1868.68613,0.07480
1870.61460,0.07234
1872.54307,0.06779
1874.47154,0.06577
1876.40001,0.06630
1878.32847,0.06779
1880.25694,0.06810
1882.18541,0.06715
1884.11388,0.06626
1886.04235,0.06621
1887.97082,0.06790
1889.89929,0.06947
1891.82775,0.06878
1893.75622,0.06717
1895.68469,0.06595
1897.61316,0.06669
1899.54163,0.06857
1901.47010,0.06794
1903.39857,0.06496
1905.32704,0.06314
1907.25550,0.06305
1909.18397,0.06269
1911.11244,0.06156
1913.04091,0.06140
1914.96938,0.06368
1916.89785,0.06736
1918.82632,0.06860
1920.75478,0.06713
1922.68325,0.06639
1924.61172,0.06582
1926.54019,0.06468
1928.46866,0.06541
1930.39713,0.06714
1932.32560,0.06626
1934.25407,0.06442
1936.18253,0.06537
1938.11100,0.06761
1940.03947,0.06865
1941.96794,0.06834
1943.89641,0.06708
1945.82488,0.06590
1947.75335,0.06490
1949.68181,0.06381
1951.61028,0.06285
1953.53875,0.06243
1955.46722,0.06350
1957.39569,0.06553
1959.32416,0.06630
1961.25263,0.06534
1963.18110,0.06464
1965.10956,0.06526
1967.03803,0.06613
1968.96650,0.06646
1970.89497,0.06593
1972.82344,0.06521
1974.75191,0.06539
1976.68038,0.06538
1978.60884,0.06607
1980.53731,0.06900
1982.46578,0.07064
1984.39425,0.06872
1986.32272,0.06557
1988.25119,0.06336
1990.17966,0.06298
1992.10812,0.06350
1994.03659,0.06357
1995.96506,0.06418
1997.89353,0.06490
1999.82200,0.06457
2001.75047,0.06431
2003.67894,0.06480
2005.60741,0.06578
2007.53587,0.06670
2009.46434,0.06666
2011.39281,0.06564
2013.32128,0.06503
2015.24975,0.06691
2017.17822,0.07041
2019.10669,0.07149
2021.03515,0.06965
2022.96362,0.06745
2024.89209,0.06603
2026.82056,0.06590
2028.74903,0.06660
2030.67750,0.06692
2032.60597,0.06609
2034.53444,0.06413
2036.46290,0.06290
2038.39137,0.06352
2040.31984,0.06471
2042.24831,0.06555
2044.17678,0.06622
2046.10525,0.06634
2048.03372,0.06663
2049.96218,0.06883
2051.89065,0.07096
2053.81912,0.07065
2055.74759,0.06844
2057.67606,0.06565
2059.60453,0.06431
2061.53300,0.06454
2063.46147,0.06414
2065.38993,0.06321
2067.31840,0.06410
2069.24687,0.06633
2071.17534,0.06702
2073.10381,0.06595
2075.03228,0.06557
2076.96075,0.06694
2078.88921,0.06778
2080.81768,0.06649
2082.74615,0.06532
2084.67462,0.06587
2086.60309,0.06690
2088.53156,0.06704
2090.46003,0.06604
2092.38850,0.06536
2094.31696,0.06621
2096.24543,0.06695
2098.17390,0.06640
2100.10237,0.06627
2102.03084,0.06698
2103.95931,0.06741
2105.88778,0.06727
2107.81624,0.06688
2109.74471,0.06594
2111.67318,0.06433
2113.60165,0.06407
2115.53012,0.06603
2117.45859,0.06827
2119.38706,0.06912
2121.31553,0.06830
2123.24399,0.06761
2125.17246,0.06846
2127.10093,0.06950
2129.02940,0.06932
2130.95787,0.06799
2132.88634,0.06728
2134.81481,0.06846
2136.74327,0.06906
2138.67174,0.06884
2140.60021,0.07040
2142.52868,0.07205
2144.45715,0.07130
2146.38562,0.06903
2148.31409,0.06764
2150.24255,0.06839
2152.17102,0.06940
2154.09949,0.06828
2156.02796,0.06548
2157.95643,0.06432
2159.88490,0.06629
2161.81337,0.06807
2163.74184,0.06689
2165.67030,0.06460
2167.59877,0.06345
2169.52724,0.06371
2171.45571,0.06493
2173.38418,0.06555
2175.31265,0.06600
2177.24112,0.06754
2179.16958,0.06820
2181.09805,0.06791
2183.02652,0.06842
2184.95499,0.06842
2186.88346,0.06816
2188.81193,0.06946
2190.74040,0.07085
2192.66887,0.07111
2194.59733,0.07065
2196.52580,0.06985
2198.45427,0.07010
2200.38274,0.07096
2202.31121,0.07001
2204.23968,0.06827
2206.16815,0.06830
2208.09661,0.06961
2210.02508,0.07062
2211.95355,0.07090
2213.88202,0.07075
2215.81049,0.06945
2217.73896,0.06756
2219.66743,0.06699
2221.59590,0.06715
2223.52436,0.06768
2225.45283,0.06861
2227.38130,0.06892
2229.30977,0.06913
2231.23824,0.06952
2233.16671,0.06996
2235.09518,0.07036
2237.02364,0.07007
2238.95211,0.06976
2240.88058,0.06929
2242.80905,0.06792
2244.73752,0.06696
2246.66599,0.06735
2248.59446,0.06801
2250.52293,0.06782
2252.45139,0.06734
2254.37986,0.06748
2256.30833,0.06789
2258.23680,0.06791
2260.16527,0.06748
2262.09374,0.06707
2264.02221,0.06712
2265.95067,0.06758
2267.87914,0.06859
2269.80761,0.06933
2271.73608,0.06869
2273.66455,0.06836
2275.59302,0.06994
2277.52149,0.07049
2279.44996,0.06820
2281.37842,0.06627
2283.30689,0.06624
2285.23536,0.06656
2287.16383,0.06684
2289.09230,0.06749
2291.02077,0.06835
2292.94924,0.06879
2294.87770,0.06852
2296.80617,0.06849
2298.73464,0.06832
2300.66311,0.06665
2302.59158,0.06554
2304.52005,0.06772
2306.44852,0.07141
2308.37699,0.07322
2310.30545,0.07188
2312.23392,0.06815
2314.16239,0.06392
2316.09086,0.06139
2318.01933,0.06134
2319.94780,0.06183
2321.87627,0.06173
2323.80473,0.06228
2325.73320,0.06100
2327.66167,0.05640
2329.59014,0.05277
2331.51861,0.05195
2333.44708,0.05627
2335.37555,0.06503
2337.30401,0.06523
2339.23248,0.05265
2341.16095,0.04254
2343.08942,0.04512
2345.01789,0.05257
2346.94636,0.05591
2348.87483,0.05779
2350.80330,0.06036
2352.73176,0.05878
2354.66023,0.04825
2356.58870,0.04296
2358.51717,0.05660
2360.44564,0.07245
2362.37411,0.06978
2364.30258,0.04810
2366.23104,0.03191
2368.15951,0.03935
2370.08798,0.05468
2372.01645,0.05945
2373.94492,0.05594
2375.87339,0.05438
2377.80186,0.05696
2379.73033,0.06104
2381.65879,0.06498
2383.58726,0.06735
2385.51573,0.06775
2387.44420,0.06721
2389.37267,0.06735
2391.30114,0.06944
2393.22961,0.07216
2395.15807,0.07262
2397.08654,0.07119
2399.01501,0.06973
2400.94348,0.06802
2402.87195,0.06717
2404.80042,0.06875
2406.72889,0.07029
2408.65736,0.06934
2410.58582,0.06722
2412.51429,0.06548
2414.44276,0.06483
2416.37123,0.06559
2418.29970,0.06634
2420.22817,0.06627
2422.15664,0.06655
2424.08510,0.06771
2426.01357,0.06870
2427.94204,0.06853
2429.87051,0.06776
2431.79898,0.06790
2433.72745,0.06843
2435.65592,0.06712
2437.58439,0.06504
2439.51285,0.06545
2441.44132,0.06866
2443.36979,0.07177
2445.29826,0.07200
2447.22673,0.06981
2449.15520,0.06791
2451.08367,0.06688
2453.01213,0.06489
2454.94060,0.06331
2456.86907,0.06502
2458.79754,0.06763
2460.72601,0.06819
2462.65448,0.06740
2464.58295,0.06617
2466.51142,0.06619
2468.43988,0.06828
2470.36835,0.06943
2472.29682,0.06886
2474.22529,0.06970
2476.15376,0.07164
2478.08223,0.07149
2480.01070,0.06959
2481.93916,0.06858
2483.86763,0.06922
2485.79610,0.07063
2487.72457,0.07154
2489.65304,0.07100
2491.58151,0.06986
2493.50998,0.06970
2495.43844,0.06980
2497.36691,0.06935
2499.29538,0.06836
2501.22385,0.06708
2503.15232,0.06714
2505.08079,0.06854
2507.00926,0.06922
2508.93773,0.06893
2510.86619,0.06892
2512.79466,0.06971
2514.72313,0.07065
2516.65160,0.07104
2518.58007,0.07148
2520.50854,0.07130
2522.43701,0.06994
2524.36547,0.06962
2526.29394,0.06987
2528.22241,0.06925
2530.15088,0.06862
2532.07935,0.06794
2534.00782,0.06727
2535.93629,0.06670
2537.86476,0.06583
2539.79322,0.06568
2541.72169,0.06716
2543.65016,0.06904
2545.57863,0.06930
2547.50710,0.06784
2549.43557,0.06750
2551.36404,0.06964
2553.29250,0.07154
2555.22097,0.07138
2557.14944,0.06993
2559.07791,0.06844
2561.00638,0.06811
2562.93485,0.06916
2564.86332,0.07034
2566.79179,0.07054
2568.72025,0.07066
2570.64872,0.07137
2572.57719,0.07078
2574.50566,0.06845
2576.43413,0.06742
2578.36260,0.06876
2580.29107,0.07034
2582.21953,0.07096
2584.14800,0.07153
2586.07647,0.07246
2588.00494,0.07262
2589.93341,0.07217
2591.86188,0.07178
2593.79035,0.07084
2595.71882,0.06926
2597.64728,0.06751
2599.57575,0.06611
2601.50422,0.06585
2603.43269,0.06636
2605.36116,0.06647
2607.28963,0.06585
2609.21810,0.06499
2611.14656,0.06497
2613.07503,0.06551
2615.00350,0.06641
2616.93197,0.06948
2618.86044,0.07256
2620.78891,0.07187
2622.71738,0.06932
2624.64585,0.06898
2626.57431,0.07042
2628.50278,0.07068
2630.43125,0.07065
2632.35972,0.07193
2634.28819,0.07305
2636.21666,0.07348
2638.14513,0.07337
2640.07359,0.07322
2642.00206,0.07337
2643.93053,0.07195
2645.85900,0.06954
2647.78747,0.06886
2649.71594,0.07002
2651.64441,0.07172
2653.57288,0.07230
2655.50134,0.07123
2657.42981,0.06972
2659.35828,0.06923
2661.28675,0.06970
2663.21522,0.06945
2665.14369,0.06842
2667.07216,0.06837
2669.00062,0.06949
2670.92909,0.07061
2672.85756,0.07093
2674.78603,0.07015
2676.71450,0.06949
2678.64297,0.06950
2680.57144,0.06929
2682.49990,0.06950
2684.42837,0.06980
2686.35684,0.06894
2688.28531,0.06826
2690.21378,0.06920
2692.14225,0.07117
2694.07072,0.07294
2695.99919,0.07342
2697.92765,0.07247
2699.85612,0.07040
2701.78459,0.06958
2703.71306,0.07171
2705.64153,0.07282
2707.57000,0.07172
2709.49847,0.07149
2711.42693,0.07222
2713.35540,0.07231
2715.28387,0.07080
2717.21234,0.06994
2719.14081,0.07140
2721.06928,0.07305
2722.99775,0.07455
2724.92622,0.07639
2726.85468,0.07651
2728.78315,0.07406
2730.71162,0.07109
2732.64009,0.06955
2734.56856,0.06979
2736.49703,0.07197
2738.42550,0.07506
2740.35396,0.07627
2742.28243,0.07534
2744.21090,0.07391
2746.13937,0.07263
2748.06784,0.07282
2749.99631,0.07351
2751.92478,0.07200
2753.85325,0.06999
2755.78171,0.07039
2757.71018,0.07256
2759.63865,0.07434
2761.56712,0.07399
2763.49559,0.07278
2765.42406,0.07303
2767.35253,0.07286
2769.28099,0.07224
2771.20946,0.07310
2773.13793,0.07396
2775.06640,0.07514
2776.99487,0.07634
2778.92334,0.07587
2780.85181,0.07527
2782.78028,0.07491
2784.70874,0.07357
2786.63721,0.07218
2788.56568,0.07278
2790.49415,0.07433
2792.42262,0.07368
2794.35109,0.07251
2796.27956,0.07355
2798.20802,0.07472
2800.13649,0.07457
2802.06496,0.07362
2803.99343,0.07213
2805.92190,0.07162
2807.85037,0.07261
2809.77884,0.07444
2811.70731,0.07676
2813.63577,0.07718
2815.56424,0.07475
2817.49271,0.07238
2819.42118,0.07184
2821.34965,0.07276
2823.27812,0.07333
2825.20659,0.07246
2827.13505,0.07232
2829.06352,0.07415
2830.99199,0.07575
2832.92046,0.07587
2834.84893,0.07514
2836.77740,0.07394
2838.70587,0.07315
2840.63433,0.07305
2842.56280,0.07205
2844.49127,0.07060
2846.41974,0.07094
2848.34821,0.07231
2850.27668,0.07277
2852.20515,0.07252
2854.13362,0.07310
2856.06208,0.07515
2857.99055,0.07691
2859.91902,0.07670
2861.84749,0.07580
2863.77596,0.07509
2865.70443,0.07370
2867.63290,0.07322
2869.56136,0.07522
2871.48983,0.07700
2873.41830,0.07770
2875.34677,0.07818
2877.27524,0.07653
2879.20371,0.07458
2881.13218,0.07464
2883.06065,0.07397
2884.98911,0.07249
2886.91758,0.07289
2888.84605,0.07552
2890.77452,0.07839
2892.70299,0.07858
2894.63146,0.07433
2896.55993,0.06843
2898.48839,0.06719
2900.41686,0.07024
2902.34533,0.07109
2904.27380,0.07010
2906.20227,0.07097
2908.13074,0.07091
2910.05921,0.06782
2911.98768,0.06609
2913.91614,0.06826
2915.84461,0.07184
2917.77308,0.07388
2919.70155,0.07390
2921.63002,0.07334
2923.55849,0.07280
2925.48696,0.07160
2927.41542,0.07059
2929.34389,0.07123
2931.27236,0.07154
2933.20083,0.07067
2935.12930,0.07090
2937.05777,0.07224
2938.98624,0.07272
2940.91471,0.07128
2942.84317,0.06978
2944.77164,0.06932
2946.70011,0.06943
2948.62858,0.07110
2950.55705,0.07338
2952.48552,0.07428
2954.41399,0.07309
2956.34245,0.07007
2958.27092,0.06896
2960.19939,0.07282
2962.12786,0.07686
2964.05633,0.07646
2965.98480,0.07458
2967.91327,0.07376
2969.84174,0.07357
2971.77020,0.07414
2973.69867,0.07529
2975.62714,0.07486
2977.55561,0.07397
2979.48408,0.07644
2981.41255,0.07967
2983.34102,0.08081
2985.26948,0.08086
2987.19795,0.07947
2989.12642,0.07679
2991.05489,0.07316
2992.98336,0.07148
2994.91183,0.07482
2996.84030,0.07960
2998.76877,0.08263
3000.69723,0.08351
3002.62570,0.08174
3004.55417,0.07886
3006.48264,0.07739
3008.41111,0.07778
3010.33958,0.07700
3012.26805,0.07328
3014.19651,0.06773
3016.12498,0.06256
3018.05345,0.06315
3019.98192,0.07020
3021.91039,0.07725
3023.83886,0.08101
3025.76733,0.08055
3027.69579,0.07726
3029.62426,0.07625
3031.55273,0.07790
3033.48120,0.07853
3035.40967,0.07784
3037.33814,0.07740
3039.26661,0.07736
3041.19508,0.07730
3043.12354,0.07651
3045.05201,0.07525
3046.98048,0.07624
3048.90895,0.07877
3050.83742,0.07962
3052.76589,0.08003
3054.69436,0.07989
3056.62282,0.07690
3058.55129,0.07432
3060.47976,0.07530
3062.40823,0.07664
3064.33670,0.07502
3066.26517,0.07134
3068.19364,0.07041
3070.12211,0.07465
3072.05057,0.07918
3073.97904,0.07921
3075.90751,0.07539
3077.83598,0.07140
3079.76445,0.07000
3081.69292,0.07129
3083.62139,0.07307
3085.54985,0.07449
3087.47832,0.07633
3089.40679,0.07827
3091.33526,0.08065
3093.26373,0.08134
3095.19220,0.07940
3097.12067,0.07825
3099.04914,0.07798
3100.97760,0.07725
3102.90607,0.07616
3104.83454,0.07637
3106.76301,0.07871
3108.69148,0.07990
3110.61995,0.07910
3112.54842,0.07821
3114.47688,0.07671
3116.40535,0.07664
3118.33382,0.08030
3120.26229,0.08220
3122.19076,0.08048
3124.11923,0.07969
3126.04770,0.07878
3127.97617,0.07535
3129.90463,0.07221
3131.83310,0.07305
3133.76157,0.07664
3135.69004,0.07720
3137.61851,0.07447
3139.54698,0.07479
3141.47545,0.07667
3143.40391,0.07364
3145.33238,0.07037
3147.26085,0.07309
3149.18932,0.07736
3151.11779,0.07945
3153.04626,0.08111
3154.97473,0.08215
3156.90320,0.08131
3158.83166,0.07864
3160.76013,0.07617
3162.68860,0.07543
3164.61707,0.07516
3166.54554,0.07673
3168.47401,0.08125
3170.40248,0.08489
3172.33094,0.08461
3174.25941,0.08166
3176.18788,0.07800
3178.11635,0.07430
3180.04482,0.07078
3181.97329,0.06829
3183.90176,0.06912
3185.83022,0.07410
3187.75869,0.08014
3189.68716,0.08223
3191.61563,0.07968
3193.54410,0.07569
3195.47257,0.07220
3197.40104,0.07155
3199.32951,0.07293
3201.25797,0.07363
3203.18644,0.07567
3205.11491,0.07754
3207.04338,0.07427
3208.97185,0.06871
3210.90032,0.06743
3212.82879,0.07021
3214.75725,0.07212
3216.68572,0.07209
3218.61419,0.07332
3220.54266,0.07685
3222.47113,0.07905
3224.39960,0.07705
3226.32807,0.07472
3228.25654,0.07591
3230.18500,0.07792
3232.11347,0.07807
3234.04194,0.07750
3235.97041,0.07688
3237.89888,0.07592
3239.82735,0.07579
3241.75582,0.07618
3243.68428,0.07546
3245.61275,0.07407
3247.54122,0.07364
3249.46969,0.07470
3251.39816,0.07472
3253.32663,0.07357
3255.25510,0.07579
3257.18357,0.07988
3259.11203,0.07945
3261.04050,0.07544
3262.96897,0.07421
3264.89744,0.07614
3266.82591,0.07495
3268.75438,0.07035
3270.68285,0.06946
3272.61131,0.07293
3274.53978,0.07592
3276.46825,0.07613
3278.39672,0.07343
3280.32519,0.07071
3282.25366,0.07114
3284.18213,0.07246
3286.11060,0.07208
3288.03906,0.07138
3289.96753,0.07036
3291.89600,0.06932
3293.82447,0.06966
3295.75294,0.07087
3297.68141,0.07220
3299.60988,0.07339
3301.53834,0.07540
3303.46681,0.07624
3305.39528,0.07416
3307.32375,0.07310
3309.25222,0.07401
3311.18069,0.07540
3313.10916,0.07604
3315.03763,0.07416
3316.96609,0.07306
3318.89456,0.07698
3320.82303,0.08163
3322.75150,0.07952
3324.67997,0.07393
3326.60844,0.07278
3328.53691,0.07388
3330.46537,0.07289
3332.39384,0.07194
3334.32231,0.07168
3336.25078,0.07145
3338.17925,0.07372
3340.10772,0.07684
3342.03619,0.07802
3343.96466,0.08016
3345.89312,0.08245
3347.82159,0.08146
3349.75006,0.07952
3351.67853,0.07877
3353.60700,0.07838
3355.53547,0.07918
3357.46394,0.08110
3359.39240,0.08154
3361.32087,0.08023
3363.24934,0.07783
3365.17781,0.07576
3367.10628,0.07511
3369.03475,0.07345
3370.96322,0.07232
3372.89168,0.07513
3374.82015,0.07730
3376.74862,0.07462
3378.67709,0.07158
3380.60556,0.07252
3382.53403,0.07565
3384.46250,0.07715
3386.39097,0.07549
3388.31943,0.07258
3390.24790,0.06991
3392.17637,0.06892
3394.10484,0.07197
3396.03331,0.07617
3397.96178,0.07839
3399.89025,0.08088
3401.81871,0.08302
3403.74718,0.08176
3405.67565,0.07922
3407.60412,0.07769
3409.53259,0.07497
3411.46106,0.07123
3413.38953,0.07064
3415.31800,0.07347
3417.24646,0.07589
3419.17493,0.07637
3421.10340,0.07694
3423.03187,0.07906
3424.96034,0.08079
3426.88881,0.08115
3428.81728,0.08214
3430.74574,0.08178
3432.67421,0.07666
3434.60268,0.07219
3436.53115,0.07305
3438.45962,0.07472
3440.38809,0.07512
3442.31656,0.07642
3444.24503,0.07869
3446.17349,0.08192
3448.10196,0.08354
3450.03043,0.07898
3451.95890,0.07276
3453.88737,0.07154
3455.81584,0.07276
3457.74431,0.07260
3459.67277,0.07152
3461.60124,0.07010
3463.52971,0.06892
3465.45818,0.06996
3467.38665,0.07218
3469.31512,0.07110
3471.24359,0.06737
3473.17206,0.06543
3475.10052,0.06612
3477.02899,0.06717
3478.95746,0.06880
3480.88593,0.07184
3482.81440,0.07383
3484.74287,0.07537
3486.67134,0.07732
3488.59980,0.07672
3490.52827,0.07333
3492.45674,0.06865
3494.38521,0.06551
3496.31368,0.06591
3498.24215,0.06529
3500.17062,0.06191
3502.09909,0.06103
3504.02755,0.06376
3505.95602,0.06574
3507.88449,0.06635
3509.81296,0.06693
3511.74143,0.06689
3513.66990,0.06645
3515.59837,0.06672
3517.52683,0.06645
3519.45530,0.06418
3521.38377,0.06237
3523.31224,0.06208
3525.24071,0.06053
3527.16918,0.05984
3529.09765,0.06221
3531.02611,0.06265
3532.95458,0.06040
3534.88305,0.06007
3536.81152,0.06236
3538.73999,0.06288
3540.66846,0.06063
3542.59693,0.06097
3544.52540,0.06443
3546.45386,0.06558
3548.38233,0.06595
3550.31080,0.06920
3552.23927,0.07319
3554.16774,0.07322
3556.09621,0.06897
3558.02468,0.06561
3559.95314,0.06409
3561.88161,0.06144
3563.81008,0.06092
3565.73855,0.06717
3567.66702,0.07139
3569.59549,0.06502
3571.52396,0.05926
3573.45243,0.05791
3575.38089,0.05698
3577.30936,0.05623
3579.23783,0.05668
3581.16630,0.05956
3583.09477,0.06443
3585.02324,0.06665
3586.95171,0.06486
3588.88017,0.06178
3590.80864,0.05983
3592.73711,0.06008
3594.66558,0.06034
3596.59405,0.05839
3598.52252,0.05709
3600.45099,0.05756
3602.37946,0.05744
3604.30792,0.05714
3606.23639,0.05887
3608.16486,0.06295
3610.09333,0.06680
3612.02180,0.06614
3613.95027,0.06086
3615.87874,0.05732
3617.80720,0.05658
3619.73567,0.05443
3621.66414,0.05284
3623.59261,0.05414
3625.52108,0.05717
3627.44955,0.06035
3629.37802,0.06014
3631.30649,0.05882
3633.23495,0.06017
3635.16342,0.06211
3637.09189,0.06249
3639.02036,0.06036
3640.94883,0.05700
3642.87730,0.05393
3644.80577,0.05171
3646.73423,0.05343
3648.66270,0.06082
3650.59117,0.06252
3652.51964,0.05815
3654.44811,0.05598
3656.37658,0.05337
3658.30505,0.04935
3660.23352,0.04781
3662.16198,0.04655
3664.09045,0.04516
3666.01892,0.04707
3667.94739,0.05253
3669.87586,0.05892
3671.80433,0.05979
3673.73280,0.05671
3675.66126,0.05482
3677.58973,0.05343
3679.51820,0.04981
3681.44667,0.04723
3683.37514,0.04832
3685.30361,0.05087
3687.23208,0.05470
3689.16055,0.06089
3691.08901,0.06004
3693.01748,0.05253
3694.94595,0.04738
3696.87442,0.04558
3698.80289,0.04568
3700.73136,0.04532
3702.65983,0.04503
3704.58829,0.04759
3706.51676,0.05012
3708.44523,0.05191
3710.37370,0.05573
3712.30217,0.05760
3714.23064,0.05373
3716.15911,0.05035
3718.08757,0.05019
3720.01604,0.05131
3721.94451,0.05229
3723.87298,0.05305
3725.80145,0.05188
3727.72992,0.04917
3729.65839,0.04898
3731.58686,0.05439
3733.51532,0.06465
3735.44379,0.06835
3737.37226,0.06079
3739.30073,0.05539
3741.22920,0.05632
3743.15767,0.06305
3745.08614,0.06699
3747.01460,0.06264
3748.94307,0.06501
3750.87154,0.07229
3752.80001,0.06803
3754.72848,0.06102
3756.65695,0.05955
3758.58542,0.06017
3760.51389,0.05691
3762.44235,0.05343
3764.37082,0.05306
3766.29929,0.05228
3768.22776,0.05221
3770.15623,0.05440
3772.08470,0.05303
3774.01317,0.04972
3775.94163,0.04815
3777.87010,0.04759
3779.79857,0.04691
3781.72704,0.04522
3783.65551,0.04351
3785.58398,0.04176
3787.51245,0.03982
3789.44092,0.04036
3791.36938,0.04411
3793.29785,0.04833
3795.22632,0.05106
3797.15479,0.05343
3799.08326,0.05707
3801.01173,0.05837
3802.94020,0.05428
3804.86866,0.05128
3806.79713,0.04847
3808.72560,0.04561
3810.65407,0.04717
3812.58254,0.05228
3814.51101,0.05906
3816.43948,0.06248
3818.36795,0.06060
3820.29641,0.06033
3822.22488,0.05727
3824.15335,0.04977
3826.08182,0.04471
3828.01029,0.04208
3829.93876,0.04148
3831.86723,0.04546
3833.79569,0.05268
3835.72416,0.05791
3837.65263,0.05736
3839.58110,0.05240
3841.50957,0.04946
3843.43804,0.04749
3845.36651,0.04578
3847.29498,0.04671
3849.22344,0.04857
3851.15191,0.05016
3853.08038,0.05452
3855.00885,0.05638
3856.93732,0.05261
3858.86579,0.04853
3860.79426,0.04727
3862.72272,0.05093
3864.65119,0.05203
3866.57966,0.04515
3868.50813,0.04032
3870.43660,0.04321
3872.36507,0.04687
3874.29354,0.04638
3876.22200,0.04418
3878.15047,0.04277
3880.07894,0.04284
3882.00741,0.04424
3883.93588,0.04553
3885.86435,0.04585
3887.79282,0.04597
3889.72129,0.04667
3891.64975,0.04755
3893.57822,0.04694
3895.50669,0.04700
3897.43516,0.04926
3899.36363,0.05018
3901.29210,0.04885
3903.22057,0.04655
3905.14903,0.04298
3907.07750,0.04124
3909.00597,0.04149
3910.93444,0.04384
3912.86291,0.04764
3914.79138,0.04859
3916.71985,0.04533
3918.64832,0.04234
3920.57678,0.04163
3922.50525,0.04145
3924.43372,0.04232
3926.36219,0.04303
3928.29066,0.04222
3930.21913,0.04321
3932.14760,0.04527
3934.07606,0.04244
3936.00453,0.03827
3937.93300,0.04008
3939.86147,0.04578
3941.78994,0.04825
3943.71841,0.04613
3945.64688,0.04417
3947.57535,0.04367
3949.50381,0.04277
3951.43228,0.04163
3953.36075,0.04046
3955.28922,0.03956
3957.21769,0.03922
3959.14616,0.03768
3961.07463,0.03676
3963.00309,0.03856
3964.93156,0.03980
3966.86003,0.04071
3968.78850,0.04093
3970.71697,0.03712
3972.64544,0.03360
3974.57391,0.03516
3976.50238,0.03901
3978.43084,0.04028
3980.35931,0.03883
3982.28778,0.03770
3984.21625,0.03805
3986.14472,0.03998
3988.07319,0.04120
3990.00166,0.04018
3991.93012,0.03885
3993.85859,0.03731
3995.78706,0.03587
3997.71553,0.03537
3999.64400,0.03399
4001.57247,0.03273
4003.50094,0.03609
4005.42941,0.04279
4007.35787,0.04722
4009.28634,0.04644
4011.21481,0.04045
4013.14328,0.03493
4015.07175,0.03498
4017.00022,0.03712
4018.92869,0.03749
4020.85715,0.03670
4022.78562,0.03611
4024.71409,0.03594
4026.64256,0.03546
4028.57103,0.03468
4030.49950,0.03429
4032.42797,0.03398
4034.35644,0.03326
4036.28490,0.03408
4038.21337,0.03631
4040.14184,0.03463
4042.07031,0.03082
4043.99878,0.03282
4045.92725,0.03789
4047.85572,0.03719
4049.78418,0.03109
4051.71265,0.02697
4053.64112,0.02812
4055.56959,0.03136
4057.49806,0.03375
4059.42653,0.03521
4061.35500,0.03580
4063.28346,0.03425
4065.21193,0.03114
4067.14040,0.02947
4069.06887,0.02924
4070.99734,0.03042
4072.92581,0.03412
4074.85428,0.03813
4076.78275,0.04053
4078.71121,0.04083
4080.63968,0.03887
4082.56815,0.03730
4084.49662,0.03791
4086.42509,0.03664
4088.35356,0.03045
4090.28203,0.02554
4092.21049,0.02671
4094.13896,0.02891
4096.06743,0.02807
4097.99590,0.02720
4099.92437,0.02900
4101.85284,0.03167
4103.78131,0.03250
4105.70978,0.03196
4107.63824,0.03170
4109.56671,0.03062
4111.49518,0.02844
4113.42365,0.02689
4115.35212,0.02779
4117.28059,0.03113
4119.20906,0.03243
4121.13752,0.03098
4123.06599,0.03114
4124.99446,0.03328
4126.92293,0.03470
4128.85140,0.03335
4130.77987,0.03143
4132.70834,0.03324
4134.63681,0.03658
4136.56527,0.03732
4138.49374,0.03738
4140.42221,0.03757
4142.35068,0.03569
4144.27915,0.03293
4146.20762,0.03078
4148.13609,0.02748
4150.06455,0.02266
4151.99302,0.02166
4153.92149,0.02551
4155.84996,0.02638
4157.77843,0.02359
4159.70690,0.02318
4161.63537,0.02355
4163.56384,0.02198
4165.49230,0.02308
4167.42077,0.02583
4169.34924,0.02442
4171.27771,0.02180
4173.20618,0.02161
4175.13465,0.02379
4177.06312,0.02753
4178.99158,0.03003
4180.92005,0.03099
4182.84852,0.03152
4184.77699,0.03049
4186.70546,0.02708
4188.63393,0.02322
4190.56240,0.02316
4192.49087,0.02881
4194.41933,0.03526
4196.34780,0.03581
4198.27627,0.03084
4200.20474,0.02615
4202.13321,0.02591
4204.06168,0.02987
4205.99015,0.03385
4207.91861,0.03375
4209.84708,0.02886
4211.77555,0.02269
4213.70402,0.01931
4215.63249,0.01996
4217.56096,0.02369
4219.48943,0.02640
4221.41789,0.02521
4223.34636,0.02247
4225.27483,0.02267
4227.20330,0.02508
4229.13177,0.02474
4231.06024,0.02373
4232.98871,0.02553
4234.91718,0.02773
4236.84564,0.02803
4238.77411,0.02759
4240.70258,0.02740
4242.63105,0.02368
4244.55952,0.01840
4246.48799,0.01938
4248.41646,0.02417
4250.34492,0.02558
4252.27339,0.02347
4254.20186,0.02120
4256.13033,0.02154
4258.05880,0.02293
4259.98727,0.01963
4261.91574,0.01381
4263.84421,0.01230
4265.77267,0.01209
4267.70114,0.01086
4269.62961,0.01317
4271.55808,0.01784
4273.48655,0.02060
4275.41502,0.02180
4277.34349,0.02376
4279.27195,0.02698
4281.20042,0.02921
4283.12889,0.02936
4285.05736,0.02812
4286.98583,0.02461
4288.91430,0.01856
4290.84277,0.01381
4292.77124,0.01521
4294.69970,0.02025
4296.62817,0.02206
4298.55664,0.01887
4300.48511,0.01395
4302.41358,0.01262
4304.34205,0.01709
4306.27052,0.02110
4308.19898,0.01917
4310.12745,0.01563
4312.05592,0.01444
4313.98439,0.01502
4315.91286,0.01742
4317.84133,0.01896
4319.76980,0.01655
4321.69827,0.01068
4323.62673,0.00592
4325.55520,0.00714
4327.48367,0.01075
4329.41214,0.01266
4331.34061,0.01529
4333.26908,0.01850
4335.19755,0.01828
4337.12601,0.01524
4339.05448,0.01307
4340.98295,0.01136
4342.91142,0.00956
4344.83989,0.00843
4346.76836,0.00975
4348.69683,0.01371
4350.62530,0.01688
4352.55376,0.01889
4354.48223,0.01970
4356.41070,0.01923
4358.33917,0.01828
4360.26764,0.01483
4362.19611,0.01214
4364.12458,0.01563
4366.05304,0.01888
4367.98151,0.01433
4369.90998,0.00848
4371.83845,0.01055
4373.76692,0.01707
4375.69539,0.01946
4377.62386,0.01889
4379.55232,0.01988
4381.48079,0.01964
4383.40926,0.01673
4385.33773,0.01677
4387.26620,0.01995
4389.19467,0.01707
4391.12314,0.00801
4393.05161,0.00253
4394.98007,0.00513
4396.90854,0.01283
4398.83701,0.01769
4400.76548,0.01713
4402.69395,0.01731
4404.62242,0.01921
4406.55089,0.01699
4408.47935,0.00978
4410.40782,0.00420
4412.33629,0.00643
4414.26476,0.01435
4416.19323,0.02102
4418.12170,0.02341
4420.05017,0.02179
4421.97864,0.01567
4423.90710,0.00865
4425.83557,0.00777
4427.76404,0.01178
4429.69251,0.01259
4431.62098,0.00702
4433.54945,0.00017
4435.47792,-0.00216
4437.40638,0.00012
4439.33485,0.00599
4441.26332,0.01088
4443.19179,0.00999
4445.12026,0.00901
4447.04873,0.01242
4448.97720,0.01351
4450.90567,0.00916
4452.83413,0.00657
4454.76260,0.00968
4456.69107,0.01312
4458.61954,0.00927
4460.54801,0.00226
4462.47648,0.00299
4464.40495,0.00641
4466.33341,0.00352
4468.26188,-0.00143
4470.19035,-0.00211
4472.11882,0.00180
4474.04729,0.00658
4475.97576,0.00895
4477.90423,0.00771
4479.83270,0.00438
4481.76116,0.00264
4483.68963,0.00286
4485.61810,0.00341
4487.54657,0.00418
4489.47504,0.00444
4491.40351,0.00337
4493.33198,0.00362
4495.26044,0.00797
4497.18891,0.01530
4499.11738,0.02217
4501.04585,0.02378
4502.97432,0.01898
4504.90279,0.00995
4506.83126,0.00120
4508.75973,-0.00236
4510.68819,-0.00233
4512.61666,-0.00215
4514.54513,-0.00441
4516.47360,-0.00420
4518.40207,0.00201
4520.33054,0.00439
4522.25901,0.00330
4524.18747,0.00373
4526.11594,0.00066
4528.04441,-0.00431
4529.97288,-0.00470
4531.90135,-0.00120
4533.82982,0.00062
4535.75829,0.00138
4537.68676,0.00725
4539.61522,0.01321
4541.54369,0.00825
4543.47216,-0.00011
4545.40063,0.00066
4547.32910,0.00532
4549.25757,0.00627
4551.18604,0.00573
4553.11450,0.00760
4555.04297,0.01211
4556.97144,0.01508
4558.89991,0.01047
4560.82838,0.00332
4562.75685,0.00285
4564.68532,0.00260
4566.61378,-0.00369
4568.54225,-0.00760
4570.47072,-0.00215
4572.39919,0.00377
4574.32766,0.00219
4576.25613,0.00020
4578.18460,0.00131
4580.11307,0.00648
4582.04153,0.01370
4583.97000,0.01310
4585.89847,0.00637
4587.82694,0.00319
4589.75541,0.00576
4591.68388,0.00869
4593.61235,0.00723
4595.54081,0.00466
4597.46928,0.00433
4599.39775,0.00046
4601.32622,-0.00575
4603.25469,-0.00166
4605.18316,0.00930
4607.11163,0.01386
4609.04010,0.01378
4610.96856,0.01033
4612.89703,0.00363
4614.82550,0.00334
4616.75397,0.00676
4618.68244,0.00308
4620.61091,-0.00002
4622.53938,0.00380
4624.46784,0.00584
4626.39631,0.00332
4628.32478,0.00157
4630.25325,0.00118
4632.18172,-0.00164
4634.11019,-0.00805
4636.03866,-0.01200
4637.96713,-0.00829
4639.89559,-0.00228
4641.82406,0.00116
4643.75253,0.00353
4645.68100,0.00390
4647.60947,0.00141
4649.53794,0.00102
4651.46641,0.00462
4653.39487,0.00871
4655.32334,0.01317
4657.25181,0.01386
4659.18028,0.00657
4661.10875,-0.00121
4663.03722,-0.00452
4664.96569,-0.00511
4666.89416,-0.00493
4668.82262,-0.00330
4670.75109,0.00048
4672.67956,0.00326
4674.60803,0.00394
4676.53650,-0.00065
4678.46497,-0.00856
4680.39344,-0.00873
4682.32190,-0.00292
4684.25037,-0.00180
4686.17884,-0.00401
4688.10731,-0.00109
4690.03578,0.00756
4691.96425,0.01238
4693.89272,0.01215
4695.82119,0.01125
4697.74965,0.01035
4699.67812,0.00841
4701.60659,0.00714
4703.53506,0.00629
4705.46353,0.00472
4707.39200,0.00330
4709.32047,0.00301
4711.24893,0.00441
4713.17740,0.00910
4715.10587,0.01281
4717.03434,0.01025
4718.96281,0.00631
4720.89128,0.00506
4722.81975,0.00420
4724.74821,0.00180
4726.67668,0.00002
4728.60515,-0.00033
4730.53362,-0.00193
4732.46209,-0.00385
4734.39056,-0.00208
4736.31903,0.00571
4738.24750,0.01367
4740.17596,0.01403
4742.10443,0.00887
4744.03290,0.00466
4745.96137,0.00325
4747.88984,0.00205
4749.81831,0.00226
4751.74678,0.00400
4753.67524,0.00335
4755.60371,0.00270
4757.53218,0.00305
4759.46065,0.00276
4761.38912,0.00511
4763.31759,0.00773
4765.24606,0.00694
4767.17453,0.00949
4769.10299,0.01831
4771.03146,0.02314
4772.95993,0.01685
4774.88840,0.00416
4776.81687,-0.00829
4778.74534,-0.01208
4780.67381,-0.00295
4782.60227,0.00638
4784.53074,0.00701
4786.45921,0.00267
4788.38768,-0.00537
4790.31615,-0.00947
4792.24462,-0.00370
4794.17309,0.00547
4796.10156,0.01073
4798.03002,0.00813
4799.95849,0.00491
4801.88696,0.00933
4803.81543,0.01449
4805.74390,0.01236
4807.67237,0.00446
4809.60084,-0.00037
4811.52930,0.00288
4813.45777,0.00670
4815.38624,0.00663
4817.31471,0.00526
4819.24318,0.00358
4821.17165,0.00696
4823.10012,0.01753
4825.02859,0.02450
4826.95705,0.02185
4828.88552,0.01347
4830.81399,0.00615
4832.74246,0.00938
4834.67093,0.01903
4836.59940,0.02029
4838.52787,0.01139
4840.45633,0.00463
4842.38480,0.00793
4844.31327,0.01049
4846.24174,0.00174
4848.17021,-0.01081
4850.09868,-0.01508
4852.02715,-0.00749
4853.95562,0.00183
4855.88408,0.00238
4857.81255,0.00081
4859.74102,0.00602
4861.66949,0.01264
4863.59796,0.01674
4865.52643,0.01820
4867.45490,0.01215
4869.38336,0.00367
4871.31183,0.00278
4873.24030,0.00645
4875.16877,0.00952
4877.09724,0.01040
4879.02571,0.01149
4880.95418,0.01871
4882.88265,0.02260
4884.81111,0.01436
4886.73958,0.00305
4888.66805,-0.00437
4890.59652,-0.00845
4892.52499,-0.00536
4894.45346,0.00551
4896.38193,0.01198
4898.31039,0.00281
4900.23886,-0.00902
4902.16733,-0.00435
4904.09580,0.00853
4906.02427,0.00978
4907.95274,0.00421
4909.88121,0.00594
4911.80967,0.00912
4913.73814,0.00927
4915.66661,0.01222
4917.59508,0.01560
4919.52355,0.01518
4921.45202,0.01011
4923.38049,0.00239
4925.30896,0.00006
4927.23742,0.00388
4929.16589,0.00481
4931.09436,0.00015
4933.02283,-0.00534
4934.95130,-0.00554
4936.87977,0.00177
4938.80824,0.00978
4940.73670,0.00882
4942.66517,0.00084
4944.59364,-0.00330
4946.52211,-0.00424
4948.45058,-0.00711
4950.37905,-0.00399
4952.30752,0.00718
4954.23599,0.01214
4956.16445,0.00920
4958.09292,0.01025
4960.02139,0.01214
4961.94986,0.00531
4963.87833,-0.00783
4965.80680,-0.01594
4967.73527,-0.00893
4969.66373,0.00471
4971.59220,0.00792
4973.52067,0.00561
4975.44914,0.00984
4977.37761,0.01299
4979.30608,0.01008
4981.23455,0.00694
4983.16302,0.00471
4985.09148,0.00299
4987.01995,0.00177
4988.94842,0.00498
4990.87689,0.01134
4992.80536,0.00958
4994.73383,0.00374
4996.66230,0.00520
4998.59076,0.01005
5000.51923,0.01181
5002.44770,0.01287
5004.37617,0.01620
5006.30464,0.01636
5008.23311,0.01138
5010.16158,0.00730
5012.09005,0.00991
5014.01851,0.01494
5015.94698,0.01060
5017.87545,0.00459
5019.80392,0.00976
5021.73239,0.01506
5023.66086,0.01188
5025.58933,0.01147
5027.51779,0.01553
5029.44626,0.01258
5031.37473,0.01183
5033.30320,0.02187
5035.23167,0.02351
5037.16014,0.00955
5039.08861,-0.00411
5041.01708,-0.00711
5042.94554,-0.00385
5044.87401,-0.00372
5046.80248,-0.00714
5048.73095,-0.00344
5050.65942,0.01143
5052.58789,0.02294
5054.51636,0.01874
5056.44482,0.00834
5058.37329,0.00182
5060.30176,-0.00016
5062.23023,0.00158
5064.15870,0.00244
5066.08717,0.00576
5068.01564,0.01144
5069.94410,0.00784
5071.87257,0.00085
5073.80104,0.00633
5075.72951,0.02029
5077.65798,0.02468
5079.58645,0.01717
5081.51492,0.01074
5083.44339,0.00610
5085.37185,-0.00006
5087.30032,0.00083
5089.22879,0.01472
5091.15726,0.03270
5093.08573,0.03808
5095.01420,0.02898
5096.94267,0.02131
5098.87113,0.02043
5100.79960,0.01869
5102.72807,0.01387
5104.65654,0.01059
5106.58501,0.00834
5108.51348,-0.00206
5110.44195,-0.01083
5112.37042,-0.00413
5114.29888,0.00240
5116.22735,0.00130
5118.15582,0.00235
5120.08429,0.00455
5122.01276,0.00679
5123.94123,0.00898
5125.86970,0.00464
5127.79816,-0.00553
5129.72663,-0.00923
5131.65510,-0.00564
5133.58357,-0.00575
5135.51204,-0.00847
5137.44051,-0.00897
5139.36898,-0.00812
5141.29745,-0.00369
5143.22591,0.00338
5145.15438,0.00734
5147.08285,0.00618
5149.01132,0.00590
5150.93979,0.01229
5152.86826,0.02513
5154.79673,0.03736
5156.72519,0.03545
5158.65366,0.02354
5160.58213,0.02204
5162.51060,0.02683
5164.43907,0.01310
5166.36754,-0.01316
5168.29601,-0.01722
5170.22448,0.00705
5172.15294,0.02652
5174.08141,0.02452
5176.00988,0.02111
5177.93835,0.02095
5179.86682,0.01631
5181.79529,0.01703
5183.72376,0.02079
5185.65222,0.01788
5187.58069,0.01134
5189.50916,0.00673
5191.43763,0.01135
5193.36610,0.01894
5195.29457,0.01638
5197.22304,0.00705
5199.15151,-0.00548
5201.07997,-0.01863
5203.00844,-0.01803
5204.93691,-0.00801
5206.86538,-0.00973
5208.79385,-0.00959
5210.72232,0.01135
5212.65079,0.02988
5214.57925,0.02735
5216.50772,0.02518
5218.43619,0.03301
5220.36466,0.03141
5222.29313,0.02612
5224.22160,0.02960
5226.15007,0.03614
5228.07854,0.03847
5230.00700,0.03506
5231.93547,0.03182
5233.86394,0.03062
5235.79241,0.02605
5237.72088,0.02110
5239.64935,0.02241
5241.57782,0.03091
5243.50628,0.04402
5245.43475,0.05080
5247.36322,0.03999
5249.29169,0.02144
5251.22016,0.01387
5253.14863,0.01267
5255.07710,0.01027
5257.00556,0.01159
5258.93403,0.01749
5260.86250,0.02384
5262.79097,0.02066
5264.71944,0.00630
5266.64791,-0.00209
5268.57638,0.00058
5270.50485,0.00313
5272.43331,-0.00144
5274.36178,-0.00945
5276.29025,-0.01327
5278.21872,-0.01049
5280.14719,-0.00654
5282.07566,-0.00042
5284.00413,0.00699
5285.93259,0.00493
5287.86106,-0.00318
5289.78953,0.00012
5291.71800,0.01825
5293.64647,0.02735
5295.57494,0.01882
5297.50341,0.00971
5299.43188,0.01010
5301.36034,0.01077
5303.28881,0.00835
5305.21728,0.02072
5307.14575,0.04087
5309.07422,0.03659
5311.00269,0.01996
5312.93116,0.01907
5314.85962,0.02529
5316.78809,0.02308
5318.71656,0.01423
5320.64503,0.00017
5322.57350,-0.01298
5324.50197,-0.00863
5326.43044,0.01036
5328.35891,0.02585
5330.28737,0.02975
5332.21584,0.02167
5334.14431,0.01577
5336.07278,0.02084
5338.00125,0.02553
5339.92972,0.02829
5341.85819,0.02783
5343.78665,0.01526
5345.71512,-0.00173
5347.64359,-0.01099
5349.57206,-0.01317
5351.50053,-0.00775
5353.42900,-0.00309
5355.35747,-0.00374
5357.28594,0.00145
5359.21440,0.01388
5361.14287,0.02434
5363.07134,0.02591
5364.99981,0.02103
5366.92828,0.01327
5368.85675,0.01154
5370.78522,0.01898
5372.71368,0.02161
5374.64215,0.01403
5376.57062,0.00406
5378.49909,0.00856
5380.42756,0.02097
5382.35603,0.02359
5384.28450,0.02600
5386.21297,0.02843
5388.14143,0.02069
5390.06990,0.02227
5391.99837,0.03764
5393.92684,0.04503
5395.85531,0.04182
5397.78378,0.03811
5399.71225,0.02917
5401.64071,0.02417
5403.56918,0.03128
5405.49765,0.03889
5407.42612,0.03979
5409.35459,0.03572
5411.28306,0.03558
5413.21153,0.03971
5415.13999,0.03763
5417.06846,0.03423
5418.99693,0.03018
5420.92540,0.01922
5422.85387,0.00591
5424.78234,0.00336
5426.71081,0.01572
5428.63928,0.02897
5430.56774,0.03335
5432.49621,0.03288
5434.42468,0.02770
5436.35315,0.02154
5438.28162,0.02594
5440.21009,0.04406
5442.13856,0.05927
5444.06702,0.05372
5445.99549,0.03637
5447.92396,0.02792
5449.85243,0.02743
5451.78090,0.02353
5453.70937,0.01635
5455.63784,0.00994
5457.56631,0.00949
5459.49477,0.01608
5461.42324,0.02343
5463.35171,0.02458
5465.28018,0.02392
5467.20865,0.02735
5469.13712,0.03083
5471.06559,0.03449
5472.99405,0.04331
5474.92252,0.05036
5476.85099,0.04234
5478.77946,0.02553
5480.70793,0.01660
5482.63640,0.02465
5484.56487,0.04008
5486.49334,0.04478
5488.42180,0.03268
5490.35027,0.01708
5492.27874,0.01282
5494.20721,0.00967
5496.13568,0.00419
5498.06415,0.00317
5499.99262,0.00725
5501.92108,0.02751
5503.84955,0.05449
5505.77802,0.05889
5507.70649,0.04505
5509.63496,0.03625
5511.56343,0.03376
5513.49190,0.03285
5515.42037,0.03502
5517.34883,0.04200
5519.27730,0.04672
5521.20577,0.04680
5523.13424,0.04603
5525.06271,0.03908
5526.99118,0.03416
5528.91965,0.03259
5530.84811,0.01733
5532.77658,0.00209
5534.70505,0.00495
5536.63352,0.01326
5538.56199,0.01816
5540.49046,0.02062
5542.41893,0.02149
5544.34740,0.03299
5546.27586,0.05330
5548.20433,0.06852
5550.13280,0.07364
5552.06127,0.05754
5553.98974,0.02529
5555.91821,0.00174
5557.84668,-0.00463
5559.77514,0.00717
5561.70361,0.03373
5563.63208,0.05251
5565.56055,0.05709
5567.48902,0.06064
5569.41749,0.06726
5571.34596,0.07248
5573.27443,0.06645
5575.20289,0.05568
5577.13136,0.05828
5579.05983,0.06861
5580.98830,0.06340
5582.91677,0.04761
5584.84524,0.04266
5586.77371,0.04215
5588.70217,0.03757
5590.63064,0.02697
5592.55911,0.02181
5594.48758,0.02998
5596.41605,0.03383
5598.34452,0.02852
5600.27299,0.02547
5602.20145,0.03040
5604.12992,0.03411
5606.05839,0.02939
5607.98686,0.02600
5609.91533,0.02622
5611.84380,0.03665
5613.77227,0.05566
5615.70074,0.05151
5617.62920,0.02762
5619.55767,0.01694
5621.48614,0.02416
5623.41461,0.03735
5625.34308,0.04838
5627.27155,0.06048
5629.20002,0.07142
5631.12848,0.06088
5633.05695,0.03483
5634.98542,0.03232
5636.91389,0.05550
5638.84236,0.06219
5640.77083,0.04470
5642.69930,0.02360
5644.62777,0.01575
5646.55623,0.03147
5648.48470,0.04856
5650.41317,0.03993
5652.34164,0.01987
5654.27011,0.00631
5656.19858,-0.00243
5658.12705,0.00134
5660.05551,0.01388
5661.98398,0.01560
5663.91245,0.00813
5665.84092,0.00457
5667.76939,0.00771
5669.69786,0.01757
5671.62633,0.02821
5673.55480,0.02182
5675.48326,0.00852
5677.41173,0.01531
5679.34020,0.03467
5681.26867,0.05059
5683.19714,0.05682
5685.12561,0.05165
5687.05408,0.03612
5688.98254,0.02588
5690.91101,0.03950
5692.83948,0.05686
5694.76795,0.05422
5696.69642,0.03661
5698.62489,0.02038
5700.55336,0.00774
5702.48183,-0.00363
5704.41029,0.00517
5706.33876,0.03269
5708.26723,0.05121
5710.19570,0.05546
5712.12417,0.05684
5714.05264,0.05804
5715.98111,0.06118
5717.90957,0.06253
5719.83804,0.04843
5721.76651,0.02127
5723.69498,-0.00321
5725.62345,-0.01084
5727.55192,-0.00645
5729.48039,-0.00910
5731.40886,-0.01651
5733.33732,-0.01817
5735.26579,-0.00400
5737.19426,0.03056
5739.12273,0.05751
5741.05120,0.05784
5742.97967,0.05268
5744.90814,0.05530
5746.83660,0.05803
5748.76507,0.04781
5750.69354,0.01916
5752.62201,0.00532
5754.55048,0.01628
5756.47895,0.01493
5758.40742,0.01518
5760.33588,0.04533
5762.26435,0.07210
5764.19282,0.05795
5766.12129,0.01993
5768.04976,-0.00590
5769.97823,-0.00565
5771.90670,0.00953
5773.83517,0.01650
5775.76363,0.01293
5777.69210,0.01343
5779.62057,0.01450
5781.54904,0.00911
5783.47751,0.00701
5785.40598,0.01883
5787.33445,0.04388
5789.26291,0.05478
5791.19138,0.04232
5793.11985,0.04104
5795.04832,0.05134
5796.97679,0.04569
5798.90526,0.03218
5800.83373,0.03370
5802.76220,0.05149
5804.69066,0.05745
5806.61913,0.03000
5808.54760,0.00254
5810.47607,0.01184
5812.40454,0.03323
5814.33301,0.03231
5816.26148,0.02698
5818.18994,0.03554
5820.11841,0.03651
5822.04688,0.02067
5823.97535,0.01777
5825.90382,0.03340
5827.83229,0.04389
5829.76076,0.04052
5831.68923,0.02933
5833.61769,0.01607
5835.54616,0.00759
5837.47463,0.01794
5839.40310,0.04492
5841.33157,0.06425
5843.26004,0.07065
5845.18851,0.06244
5847.11697,0.03808
5849.04544,0.00846
5850.97391,-0.01764
5852.90238,-0.02530
5854.83085,-0.01327
5856.75932,0.00792
5858.68779,0.03313
5860.61626,0.04404
5862.54472,0.04277
5864.47319,0.05179
5866.40166,0.04770
5868.33013,0.01489
5870.25860,-0.00843
5872.18707,-0.01268
5874.11554,-0.02388
5876.04400,-0.03968
5877.97247,-0.03119
5879.90094,-0.00642
5881.82941,-0.00006
5883.75788,0.00379
5885.68635,0.02638
5887.61482,0.03102
5889.54329,0.00788
5891.47175,0.00542
5893.40022,0.01693
5895.32869,0.00827
5897.25716,0.01393
5899.18563,0.05317
5901.11410,0.08246
5903.04257,0.08680
5904.97103,0.08766
5906.89950,0.09009
5908.82797,0.08066
5910.75644,0.05496
5912.68491,0.03884
5914.61338,0.04655
5916.54185,0.05639
5918.47032,0.05870
5920.39878,0.05590
5922.32725,0.04606
5924.25572,0.03124
5926.18419,0.01816
5928.11266,0.01656
5930.04113,0.03149
5931.96960,0.05673
5933.89806,0.07316
5935.82653,0.06752
5937.75500,0.04890
5939.68347,0.03231
5941.61194,0.01770
5943.54041,0.00471
5945.46888,0.02202
5947.39734,0.06893
5949.32581,0.08735
5951.25428,0.06239
5953.18275,0.04608
5955.11122,0.03969
5957.03969,0.01447
5958.96816,-0.00497
5960.89663,-0.00498
5962.82509,-0.00469
5964.75356,0.00853
5966.68203,0.03553
5968.61050,0.04264
5970.53897,0.02337
5972.46744,-0.00206
5974.39591,-0.02333
5976.32437,-0.01830
5978.25284,0.02251
5980.18131,0.06351
5982.10978,0.06823
5984.03825,0.03850
5985.96672,0.01422
5987.89519,0.00782
5989.82366,-0.00291
5991.75212,-0.00869
5993.68059,0.00073
5995.60906,0.01517
5997.53753,0.02295
5999.46600,0.02202
6001.39447,0.02863
6003.32294,0.05010
6005.25140,0.06453
6007.17987,0.06026
6009.10834,0.06316
6011.03681,0.08386
6012.96528,0.09167
6014.89375,0.06567
6016.82222,0.03479
6018.75069,0.03582
6020.67915,0.05570
6022.60762,0.06872
6024.53609,0.07130
6026.46456,0.05335
6028.39303,0.00312
6030.32150,-0.03413
6032.24997,-0.02484
6034.17843,-0.00210
6036.10690,0.01851
6038.03537,0.03346
6039.96384,0.04639
6041.89231,0.06316
6043.82078,0.06076
6045.74925,0.03714
6047.67772,0.02437
6049.60618,0.03296
6051.53465,0.04498
6053.46312,0.06578
6055.39159,0.07480
6057.32006,0.03422
6059.24853,-0.01390
6061.17700,-0.02910
6063.10546,-0.03293
6065.03393,-0.04436
6066.96240,-0.04803
6068.89087,-0.03849
6070.81934,-0.02468
6072.74781,-0.00176
6074.67628,0.03846
6076.60475,0.07122
6078.53321,0.06639
6080.46168,0.04728
6082.39015,0.03074
6084.31862,0.00667
6086.24709,-0.00833
6088.17556,-0.00120
6090.10403,0.01843
6092.03249,0.04980
6093.96096,0.09136
6095.88943,0.11369
6097.81790,0.09975
6099.74637,0.06656
6101.67484,0.02881
6103.60331,0.00027
6105.53177,0.00167
6107.46024,0.02414
6109.38871,0.04767
6111.31718,0.07161
6113.24565,0.07621
6115.17412,0.06847
6117.10259,0.06078
6119.03106,0.03640
6120.95952,0.01099
6122.88799,-0.00451
6124.81646,-0.00212
6126.74493,0.02330
6128.67340,0.03503
6130.60187,0.02225
6132.53034,0.01959
6134.45880,0.03318
6136.38727,0.04459
6138.31574,0.04779
6140.24421,0.04268
6142.17268,0.02747
6144.10115,0.01109
6146.02962,0.01323
6147.95809,0.01970
6149.88655,-0.00296
6151.81502,-0.04855
6153.74349,-0.06697
6155.67196,-0.04252
6157.60043,-0.02327
6159.52890,-0.02761
6161.45737,-0.01414
6163.38583,0.01969
6165.31430,0.02774
6167.24277,0.02963
6169.17124,0.04218
6171.09971,0.02589
6173.02818,0.00677
6174.95665,0.01044
6176.88512,-0.00410
6178.81358,-0.02788
6180.74205,-0.02098
6182.67052,0.00815
6184.59899,0.02935
6186.52746,0.02479
6188.45593,-0.01440
6190.38440,-0.04173
6192.31286,-0.00845
6194.24133,0.03796
6196.16980,0.03424
6198.09827,0.00693
6200.02674,0.00973
6201.95521,0.03473
6203.88368,0.04820
6205.81215,0.03853
6207.74061,0.02431
6209.66908,0.02328
6211.59755,0.02996
6213.52602,0.02654
6215.45449,0.01432
6217.38296,0.02194
6219.31143,0.04693
6221.23989,0.05291
6223.16836,0.03688
6225.09683,0.01796
6227.02530,0.01447
6228.95377,0.03543
6230.88224,0.04765
6232.81071,0.02232
6234.73918,-0.01547
6236.66764,-0.04283
6238.59611,-0.04167
6240.52458,0.00675
6242.45305,0.06540
6244.38152,0.07638
6246.30999,0.03863
6248.23846,-0.01911
6250.16692,-0.05439
6252.09539,-0.02597
6254.02386,0.03784
6255.95233,0.06973
6257.88080,0.04780
6259.80927,0.01579
6261.73774,-0.00040
6263.66621,-0.00730
6265.59467,-0.00130
6267.52314,0.00483
6269.45161,0.00331
6271.38008,0.02502
6273.30855,0.07283
6275.23702,0.08359
6277.16549,0.04690
6279.09395,0.02817
6281.02242,0.03110
6282.95089,0.03664
6284.87936,0.07180
6286.80783,0.12367
6288.73630,0.12869
6290.66477,0.08153
6292.59323,0.02048
6294.52170,-0.03420
6296.45017,-0.04756
6298.37864,-0.02122
6300.30711,-0.01446
6302.23558,-0.03945
6304.16405,-0.04341
6306.09252,-0.01326
6308.02098,-0.00423
6309.94945,-0.05326
6311.87792,-0.08784
6313.80639,-0.05032
6315.73486,0.00670
6317.66333,0.02740
6319.59180,0.00441
6321.52026,-0.01140
6323.44873,0.01129
6325.37720,0.03764
6327.30567,0.04660
6329.23414,0.04003
6331.16261,0.04334
6333.09108,0.07579
6335.01955,0.10694
6336.94801,0.09209
6338.87648,0.04345
6340.80495,0.02519
6342.73342,0.04516
6344.66189,0.06240
6346.59036,0.06738
6348.51883,0.06352
6350.44729,0.06647
6352.37576,0.08382
6354.30423,0.07136
6356.23270,0.03820
6358.16117,0.03668
6360.08964,0.05798
6362.01811,0.08126
6363.94658,0.11709
6365.87504,0.14301
6367.80351,0.12551
6369.73198,0.09360
6371.66045,0.07678
6373.58892,0.05716
6375.51739,0.04022
6377.44586,0.05187
6379.37432,0.07297
6381.30279,0.07142
6383.23126,0.04530
6385.15973,0.02520
6387.08820,0.04340
6389.01667,0.06551
6390.94514,0.02852
6392.87361,-0.03224
6394.80207,-0.02724
6396.73054,0.00334
6398.65901,-0.00111
6400.58748,-0.01848
6402.51595,-0.01861
6404.44442,-0.00374
6406.37289,-0.00363
6408.30135,-0.01269
6410.22982,0.01109
6412.15829,0.02531
6414.08676,0.00793
6416.01523,0.00455
6417.94370,0.02522
6419.87217,0.06428
6421.80064,0.09057
6423.72910,0.07522
6425.65757,0.04832
6427.58604,0.04908
6429.51451,0.06861
6431.44298,0.06550
6433.37145,0.02864
6435.29992,0.01120
6437.22838,0.02353
6439.15685,0.03261
6441.08532,0.05222
6443.01379,0.07292
6444.94226,0.04411
6446.87073,-0.01372
6448.79920,-0.02714
6450.72766,0.00723
6452.65613,0.01034
6454.58460,-0.01995
6456.51307,-0.03610
6458.44154,-0.01776
6460.37001,0.06044
6462.29848,0.13826
6464.22695,0.12336
6466.15541,0.08011
6468.08388,0.08792
6470.01235,0.12289
6471.94082,0.13362
6473.86929,0.09710
6475.79776,0.05168
6477.72623,0.04329
6479.65469,0.06688
6481.58316,0.08025
6483.51163,0.07178
6485.44010,0.07851
6487.36857,0.09051
6489.29704,0.06387
6491.22551,0.00115
6493.15398,-0.03689
6495.08244,-0.02370
6497.01091,0.00691
6498.93938,0.03431
6500.86785,0.03823
6502.79632,0.03632
6504.72479,0.06910
6506.65326,0.09619
6508.58172,0.07236
6510.51019,0.01308
6512.43866,-0.02949
6514.36713,-0.01260
6516.29560,0.02149
6518.22407,0.02871
6520.15254,0.03478
6522.08101,0.04758
6524.00947,0.03576
6525.93794,0.00368
6527.86641,0.00240
6529.79488,0.00840
6531.72335,-0.02399
6533.65182,-0.05170
6535.58029,-0.03933
6537.50875,-0.00906
6539.43722,0.02635
6541.36569,0.06795
6543.29416,0.10299
6545.22263,0.12818
6547.15110,0.16531
6549.07957,0.18902
6551.00804,0.14138
6552.93650,0.07625
6554.86497,0.07318
6556.79344,0.10974
6558.72191,0.12259
6560.65038,0.09079
6562.57885,0.07802
6564.50732,0.09680
6566.43578,0.07888
6568.36425,0.02837
6570.29272,-0.03185
6572.22119,-0.09795
6574.14966,-0.11778
6576.07813,-0.04089
6578.00660,0.07969
6579.93507,0.13205
6581.86353,0.11929
6583.79200,0.09689
6585.72047,0.05735
6587.64894,0.01309
6589.57741,0.00764
6591.50588,0.03925
6593.43435,0.07683
6595.36281,0.07975
6597.29128,0.04914
6599.21975,0.03470
6601.14822,0.06508
6603.07669,0.09917
6605.00516,0.08873
6606.93363,0.05552
6608.86210,0.04833
6610.79056,0.05239
6612.71903,0.02095
6614.64750,-0.00876
6616.57597,0.00766
6618.50444,0.02649
6620.43291,0.01009
6622.36138,0.00273
6624.28984,0.04590
6626.21831,0.06416
6628.14678,0.02217
6630.07525,0.01870
6632.00372,0.05660
6633.93219,0.06625
6635.86066,0.04563
6637.78912,-0.02303
6639.71759,-0.09607
6641.64606,-0.09099
6643.57453,-0.03483
6645.50300,-0.00398
6647.43147,0.02312
6649.35994,0.07819
6651.28841,0.10400
6653.21687,0.06652
6655.14534,-0.00082
6657.07381,-0.05956
6659.00228,-0.08355
6660.93075,-0.06841
6662.85922,-0.03646
6664.78769,-0.00869
6666.71615,0.02848
6668.64462,0.06553
6670.57309,0.07004
6672.50156,0.05676
6674.43003,0.05169
6676.35850,0.05659
6678.28697,0.02946
6680.21544,-0.03293
6682.14390,-0.04623
6684.07237,0.00478
6686.00084,0.04410
6687.92931,0.05714
6689.85778,0.05986
6691.78625,0.05403
6693.71472,0.06226
6695.64318,0.06619
6697.57165,0.04317
6699.50012,0.03722
6701.42859,0.04237
6703.35706,0.02871
6705.28553,0.04298
6707.21400,0.09218
6709.14247,0.11857
6711.07093,0.12089
6712.99940,0.11534
6714.92787,0.09028
6716.85634,0.06225
6718.78481,0.06901
6720.71328,0.09630
6722.64175,0.12428
6724.57021,0.13532
6726.49868,0.07621
6728.42715,-0.00694
6730.35562,-0.01397
6732.28409,0.03483
6734.21256,0.08017
6736.14103,0.09886
6738.06950,0.06663
6739.99796,0.03848
6741.92643,0.07594
6743.85490,0.10964
6745.78337,0.06851
6747.71184,-0.02808
6749.64031,-0.07814
6751.56878,-0.03376
6753.49724,0.02148
6755.42571,0.03811
6757.35418,0.05005
6759.28265,0.06902
6761.21112,0.06242
6763.13959,0.06267
6765.06806,0.08401
6766.99653,0.07998
6768.92499,0.06392
6770.85346,0.03684
6772.78193,0.00071
6774.71040,-0.00675
6776.63887,0.00287
6778.56734,0.00056
6780.49581,0.00453
6782.42427,0.02934
6784.35274,0.03838
6786.28121,0.03226
6788.20968,0.01592
6790.13815,-0.04170
6792.06662,-0.07143
6793.99509,-0.03375
6795.92355,0.00897
6797.85202,0.03606
6799.78049,0.06063
6801.70896,0.13136
6803.63743,0.22446
6805.56590,0.19794
6807.49437,0.08472
6809.42284,0.01427
6811.35130,-0.00565
6813.27977,0.01325
6815.20824,0.07729
6817.13671,0.13164
6819.06518,0.12382
6820.99365,0.06607
6822.92212,0.02304
6824.85058,0.08767
6826.77905,0.18578
6828.70752,0.19905
6830.63599,0.16664
6832.56446,0.12471
6834.49293,0.03598
6836.42140,-0.02600
6838.34987,-0.00646
6840.27833,0.01418
6842.20680,0.00421
6844.13527,0.00231
6846.06374,0.02205
6847.99221,0.04948
6849.92068,0.07750
6851.84915,0.07590
6853.77761,0.04743
6855.70608,0.02478
6857.63455,0.00070
6859.56302,-0.04199
6861.49149,-0.06658
6863.41996,-0.04600
6865.34843,-0.02518
6867.27690,-0.00987
6869.20536,0.02332
6871.13383,0.05412
6873.06230,0.07105
6874.99077,0.06304
6876.91924,0.02274
6878.84771,-0.02454
6880.77618,-0.05068
6882.70464,-0.06169
6884.63311,-0.04013
6886.56158,0.05863
6888.49005,0.15124
6890.41852,0.11882
6892.34699,0.03761
6894.27546,0.02712
6896.20393,0.04742
6898.13239,0.03870
6900.06086,0.04589
6901.98933,0.07073
6903.91780,0.06211
6905.84627,0.01628
6907.77474,-0.03461
6909.70321,-0.00627
6911.63167,0.09974
6913.56014,0.15559
6915.48861,0.10456
6917.41708,-0.00515
6919.34555,-0.10164
6921.27402,-0.09349
6923.20249,-0.01787
6925.13096,0.00281
6927.05942,-0.02151
6928.98789,0.00182
6930.91636,0.03445
6932.84483,-0.00299
6934.77330,-0.01306
6936.70177,0.08025
6938.63024,0.20340
6940.55870,0.22753
6942.48717,0.14623
6944.41564,0.06940
6946.34411,0.04532
6948.27258,0.05512
6950.20105,0.06257
6952.12952,0.07606
6954.05799,0.11220
6955.98645,0.11938
6957.91492,0.10448
6959.84339,0.13215
6961.77186,0.12700
6963.70033,0.05595
6965.62880,0.01318
6967.55727,0.03726
6969.48573,0.09240
6971.41420,0.08563
6973.34267,0.01577
6975.27114,0.04354
6977.19961,0.12934
6979.12808,0.14694
6981.05655,0.13442
6982.98501,0.09719
6984.91348,0.05000
6986.84195,0.02731
6988.77042,0.00570
6990.69889,-0.04132
6992.62736,-0.09547
6994.55583,-0.07476
6996.48430,0.05042
6998.41276,0.17232
7000.34123,0.22004
7002.26970,0.23423
7004.19817,0.19691
7006.12664,0.08089
7008.05511,-0.03359
7009.98358,-0.04809
7011.91204,0.02554
7013.84051,0.10788
7015.76898,0.15584
7017.69745,0.18488
7019.62592,0.19128
7021.55439,0.18585
7023.48286,0.13996
7025.41133,0.05619
7027.33979,0.02224
7029.26826,0.04227
7031.19673,0.03595
7033.12520,-0.00558
7035.05367,-0.01934
7036.98214,0.00836
7038.91061,0.00187
7040.83907,-0.03094
7042.76754,-0.00900
7044.69601,0.04414
7046.62448,0.05898
7048.55295,0.06967
7050.48142,0.12039
7052.40989,0.16226
7054.33836,0.12484
7056.26682,0.04250
7058.19529,0.02663
7060.12376,0.09541
7062.05223,0.13415
7063.98070,0.08428
7065.90917,0.00611
7067.83764,-0.02419
7069.76610,0.01519
7071.69457,0.04576
7073.62304,0.03944
7075.55151,0.07157
7077.47998,0.14204
7079.40845,0.15502
7081.33692,0.06470
7083.26539,0.02217
7085.19385,0.03561
7087.12232,0.01381
7089.05079,0.02367
7090.97926,0.08362
7092.90773,0.07212
7094.83620,0.02660
7096.76467,0.05795
7098.69313,0.09178
7100.62160,0.07567
7102.55007,0.06810
7104.47854,0.06074
7106.40701,0.00298
7108.33548,-0.09404
7110.26395,-0.11863
7112.19242,-0.03780
7114.12088,0.03503
7116.04935,0.08119
7117.97782,0.17945
7119.90629,0.22534
7121.83476,0.15683
7123.76323,0.06631
7125.69170,0.00561
7127.62016,-0.02017
7129.54863,-0.00850
7131.47710,0.03536
7133.40557,0.01520
7135.33404,-0.08096
7137.26251,-0.09655
7139.19098,0.00464
7141.11944,0.06892
7143.04791,0.02431
7144.97638,-0.02653
7146.90485,0.02082
7148.83332,0.11376
7150.76179,0.11972
7152.69026,0.05484
7154.61873,0.06330
7156.54719,0.10939
7158.47566,0.09768
7160.40413,0.05912
7162.33260,0.03228
7164.26107,0.03322
7166.18954,0.10653
7168.11801,0.21384
7170.04647,0.17792
7171.97494,0.02486
7173.90341,-0.01421
7175.83188,0.04579
7177.76035,0.06554
7179.68882,0.00525
7181.61729,-0.12704
7183.54576,-0.18616
7185.47422,-0.07588
7187.40269,0.02444
7189.33116,0.00940
7191.25963,-0.09563
7193.18810,-0.14068
7195.11657,-0.10199
7197.04504,-0.06352
7198.97350,-0.00250
7200.90197,0.06691
7202.83044,0.09037
7204.75891,0.07455
7206.68738,0.05911
7208.61585,0.06326
7210.54432,0.06183
7212.47279,0.01310
7214.40125,-0.02689
7216.32972,0.02306
7218.25819,0.06669
7220.18666,0.02090
7222.11513,-0.01483
7224.04360,0.00558
7225.97207,0.08444
7227.90053,0.11803
7229.82900,0.06948
7231.75747,0.06861
7233.68594,0.14665
7235.61441,0.20839
7237.54288,0.22920
7239.47135,0.25048
7241.39982,0.26095
7243.32828,0.15646
7245.25675,0.01045
7247.18522,-0.01530
7249.11369,0.03877
7251.04216,0.01901
7252.97063,-0.05075
7254.89910,-0.01465
7256.82756,-0.00064
7258.75603,-0.01436
7260.68450,0.04127
7262.61297,0.01601
7264.54144,-0.15657
7266.46991,-0.20545
7268.39838,-0.07732
7270.32685,0.08862
7272.25531,0.11786
7274.18378,0.01255
7276.11225,-0.02602
7278.04072,-0.01632
7279.96919,-0.02821
7281.89766,-0.02536
7283.82613,0.02760
7285.75459,0.13279
7287.68306,0.20761
7289.61153,0.18095
7291.54000,0.11830
7293.46847,0.03937
7295.39694,-0.02516
7297.32541,-0.01232
7299.25387,-0.01675
7301.18234,-0.09604
7303.11081,-0.17098
7305.03928,-0.13559
7306.96775,-0.02786
7308.89622,0.04059
7310.82469,0.03604
7312.75316,-0.02396
7314.68162,-0.02335
7316.61009,0.14190
7318.53856,0.27421
7320.46703,0.20876
7322.39550,0.05340
7324.32397,-0.04380
7326.25244,-0.04079
7328.18090,0.04846
7330.10937,0.15298
7332.03784,0.13493
7333.96631,0.06709
7335.89478,0.09264
7337.82325,0.21195
7339.75172,0.29470
7341.68019,0.18706
7343.60865,0.02931
7345.53712,-0.05149
7347.46559,-0.08240
7349.39406,-0.11778
7351.32253,-0.08313
7353.25100,-0.01420
7355.17947,-0.04336
7357.10793,-0.15449
7359.03640,-0.19549
7360.96487,-0.05161
7362.89334,0.14498
7364.82181,0.18329
7366.75028,0.08051
7368.67875,0.05966
7370.60722,0.18736
7372.53568,0.30928
7374.46415,0.30488
7376.39262,0.17281
7378.32109,0.07125
7380.24956,0.03289
7382.17803,0.06671
7384.10650,0.06571
7386.03496,-0.06436
7387.96343,-0.15056
7389.89190,-0.10751
7391.82037,-0.01211
7393.74884,0.10798
7395.67731,0.15341
7397.60578,0.10732
7399.53425,0.09095
7401.46271,0.12022
7403.39118,0.14386
7405.31965,0.10210
7407.24812,0.08348
7409.17659,0.17108
7411.10506,0.21936
7413.03353,0.18887
7414.96199,0.15068
7416.89046,0.10754
7418.81893,0.13420
7420.74740,0.15727
7422.67587,0.11663
7424.60434,0.12971
7426.53281,0.13075
7428.46128,0.09487
7430.38974,0.09617
7432.31821,0.06545
7434.24668,0.02355
7436.17515,0.10465
7438.10362,0.18818
7440.03209,0.13527
7441.96056,0.05145
7443.88902,0.05258
7445.81749,0.07673
7447.74596,0.03136
7449.67443,-0.00547
7451.60290,-0.00179
7453.53137,-0.07971
7455.45984,-0.12799
7457.38831,-0.03666
7459.31677,0.08347
7461.24524,0.03860
7463.17371,-0.05487
7465.10218,0.00609
7467.03065,0.15605
7468.95912,0.20849
7470.88759,0.15789
7472.81605,0.11427
7474.74452,0.10082
7476.67299,0.08639
7478.60146,0.08556
7480.52993,0.07572
7482.45840,0.02664
7484.38687,-0.01814
7486.31533,-0.03480
7488.24380,-0.01822
7490.17227,-0.00137
7492.10074,-0.02679
7494.02921,-0.02416
7495.95768,0.04383
7497.88615,0.15201
