399.19301,0.63393
401.12148,0.13267
403.04995,0.22559
404.97842,0.25378
406.90689,0.13472
408.83536,-0.02993
410.76382,-0.06626
412.69229,-0.02209
414.62076,0.00321
416.54923,0.01789
418.47770,0.01449
420.40617,0.02835
422.33464,0.02264
424.26311,-0.03799
426.19157,-0.07429
428.12004,-0.03975
430.04851,0.05051
431.97698,0.10441
433.90545,0.06674
435.83392,0.04784
437.76239,0.08449
439.69085,0.12767
441.61932,0.16644
443.54779,0.18626
445.47626,0.15994
447.40473,0.11979
449.33320,0.07906
451.26167,0.05826
453.19013,0.08577
455.11860,0.11927
457.04707,0.13520
458.97554,0.13396
460.90401,0.07027
462.83248,-0.01432
464.76095,-0.03073
466.68942,0.00637
468.61788,0.04599
470.54635,0.10506
472.47482,0.23023
474.40329,0.31218
476.33176,0.22542
478.26023,0.15489
480.18870,0.11725
482.11716,0.05881
484.04563,-0.01843
485.97410,-0.05937
487.90257,-0.01928
489.83104,0.04426
491.75951,0.04998
493.68798,0.01509
495.61645,-0.00238
497.54491,0.02223
499.47338,0.05662
501.40185,0.05442
503.33032,0.02804
505.25879,0.03236
507.18726,0.06608
509.11573,0.07300
511.04419,0.03328
512.97266,-0.01595
514.90113,-0.03327
516.82960,-0.02296
518.75807,-0.03184
520.68654,-0.04218
522.61501,0.00183
524.54348,0.06932
526.47194,0.09001
528.40041,0.07248
530.32888,0.07372
532.25735,0.09776
534.18582,0.10285
536.11429,0.08813
538.04276,0.06899
539.97122,0.04035
541.89969,0.01068
543.82816,0.00363
545.75663,0.01847
547.68510,0.02182
549.61357,0.00895
551.54204,0.02338
553.47051,0.07067
555.39897,0.09878
557.32744,0.08113
559.25591,0.04152
561.18438,0.01239
563.11285,0.00269
565.04132,0.00373
566.96979,0.01549
568.89825,0.03171
570.82672,0.04394
572.75519,0.05129
574.68366,0.05093
576.61213,0.04657
578.54060,0.03898
580.46907,0.03379
582.39754,0.04649
584.32600,0.05500
586.25447,0.03551
588.18294,0.02451
590.11141,0.04231
592.03988,0.05411
593.96835,0.04450
595.89682,0.03821
597.82528,0.04185
599.75375,0.03965
601.68222,0.03358
603.61069,0.02712
605.53916,0.02436
607.46763,0.03502
609.39610,0.04250
611.32456,0.03723
613.25303,0.03752
615.18150,0.04577
617.10997,0.04221
619.03844,0.02524
620.96691,0.01557
622.89538,0.02271
624.82385,0.03775
626.75231,0.04835
628.68078,0.04646
630.60925,0.03561
632.53772,0.03017
634.46619,0.02740
636.39466,0.01342
638.32313,0.00987
640.25159,0.03590
642.18006,0.05465
644.10853,0.04519
646.03700,0.03204
647.96547,0.02473
649.89394,0.02716
651.82241,0.04085
653.75088,0.04451
655.67934,0.02861
657.60781,0.01025
659.53628,0.00648
661.46475,0.01403
663.39322,0.02379
665.32169,0.03472
667.25016,0.04324
669.17862,0.04411
671.10709,0.04496
673.03556,0.04100
674.96403,0.02090
676.89250,-0.00038
678.82097,-0.00064
680.74944,0.00668
682.67791,0.01421
684.60637,0.03392
686.53484,0.05074
688.46331,0.04870
690.39178,0.04254
692.32025,0.04427
694.24872,0.04667
696.17719,0.04351
698.10565,0.04022
700.03412,0.03842
701.96259,0.03627
703.89106,0.03992
705.81953,0.04764
707.74800,0.04960
709.67647,0.04821
711.60494,0.05153
713.53340,0.05772
715.46187,0.05750
717.39034,0.05256
719.31881,0.05365
721.24728,0.05688
723.17575,0.05037
725.10422,0.03872
727.03268,0.03327
728.96115,0.03270
730.88962,0.03353
732.81809,0.03974
734.74656,0.04753
736.67503,0.04769
738.60350,0.04106
740.53197,0.03618
742.46043,0.04060
744.38890,0.04964
746.31737,0.05362
748.24584,0.05426
750.17431,0.05348
752.10278,0.05035
754.03125,0.04655
755.95971,0.04415
757.88818,0.04535
759.81665,0.04432
761.74512,0.04021
763.67359,0.04341
765.60206,0.05123
767.53053,0.05114
769.45900,0.04409
771.38746,0.04288
773.31593,0.04633
775.24440,0.04148
777.17287,0.03582
779.10134,0.04086
781.02981,0.04786
782.95828,0.05124
784.88674,0.05314
786.81521,0.04917
788.74368,0.03429
790.67215,0.01391
792.60062,0.00098
794.52909,0.00240
796.45756,0.01363
798.38602,0.03256
800.31449,0.04986
802.24296,0.04764
804.17143,0.03534
806.09990,0.02974
808.02837,0.02902
809.95684,0.02961
811.88531,0.03076
813.81377,0.03419
815.74224,0.03796
817.67071,0.04029
819.59918,0.04405
821.52765,0.04564
823.45612,0.04241
825.38459,0.03938
827.31305,0.04082
829.24152,0.04511
831.16999,0.04795
833.09846,0.04773
835.02693,0.04617
836.95540,0.04195
838.88387,0.03440
840.81234,0.03083
842.74080,0.03191
844.66927,0.03218
846.59774,0.03279
848.52621,0.03387
850.45468,0.03571
852.38315,0.03909
854.31162,0.04278
856.24008,0.04821
858.16855,0.05218
860.09702,0.04824
862.02549,0.03837
863.95396,0.03346
865.88243,0.03920
867.81090,0.05405
869.73937,0.07056
871.66783,0.07056
873.59630,0.05355
875.52477,0.04011
877.45324,0.03769
879.38171,0.04107
881.31018,0.05009
883.23865,0.06166
885.16711,0.06278
887.09558,0.05241
889.02405,0.04480
890.95252,0.04556
892.88099,0.04709
894.80946,0.04606
896.73793,0.04647
898.66640,0.04574
900.59486,0.04453
902.52333,0.04620
904.45180,0.04566
906.38027,0.04187
908.30874,0.04209
910.23721,0.05063
912.16568,0.05824
914.09414,0.05661
916.02261,0.04962
917.95108,0.04079
919.87955,0.03548
921.80802,0.03779
923.73649,0.04171
925.66496,0.04215
927.59343,0.04170
929.52189,0.04253
931.45036,0.04316
933.37883,0.04316
935.30730,0.04178
937.23577,0.04050
939.16424,0.04357
941.09271,0.04889
943.02117,0.05202
944.94964,0.05306
946.87811,0.05134
948.80658,0.04799
950.73505,0.04769
952.66352,0.04670
954.59199,0.03953
956.52045,0.03265
958.44892,0.03380
960.37739,0.04386
962.30586,0.05849
964.23433,0.06706
966.16280,0.06273
968.09127,0.05327
970.01974,0.04691
971.94820,0.04160
973.87667,0.03901
975.80514,0.04419
977.73361,0.04917
979.66208,0.04511
981.59055,0.04000
983.51902,0.04105
985.44748,0.04447
987.37595,0.04636
989.30442,0.04638
991.23289,0.04726
993.16136,0.04830
995.08983,0.04795
997.01830,0.04728
998.94677,0.04274
1000.87523,0.03478
1002.80370,0.03303
1004.73217,0.03807
1006.66064,0.04240
1008.58911,0.04635
1010.51758,0.04899
1012.44605,0.04980
1014.37451,0.05233
1016.30298,0.05006
1018.23145,0.04182
1020.15992,0.03901
1022.08839,0.04153
1024.01686,0.04369
1025.94533,0.04707
1027.87380,0.04767
1029.80226,0.04292
1031.73073,0.04091
1033.65920,0.04566
1035.58767,0.05541
1037.51614,0.06168
1039.44461,0.05434
1041.37308,0.04221
1043.30154,0.04322
1045.23001,0.05487
1047.15848,0.06100
1049.08695,0.05889
1051.01542,0.05466
1052.94389,0.05214
1054.87236,0.05309
1056.80083,0.05578
1058.72929,0.05866
1060.65776,0.06043
1062.58623,0.06068
1064.51470,0.06082
1066.44317,0.06009
1068.37164,0.05700
1070.30011,0.05405
1072.22857,0.05384
1074.15704,0.05419
1076.08551,0.05348
1078.01398,0.05283
1079.94245,0.05193
1081.87092,0.04726
1083.79939,0.03934
1085.72786,0.03631
1087.65632,0.04015
1089.58479,0.04435
1091.51326,0.04574
1093.44173,0.04670
1095.37020,0.04927
1097.29867,0.05158
1099.22714,0.05129
1101.15560,0.04949
1103.08407,0.04960
1105.01254,0.05222
1106.94101,0.05625
1108.86948,0.06024
1110.79795,0.06058
1112.72642,0.05666
1114.65489,0.05325
1116.58335,0.05528
1118.51182,0.05981
1120.44029,0.05992
1122.36876,0.05401
1124.29723,0.04738
1126.22570,0.04774
1128.15417,0.05298
1130.08263,0.05604
1132.01110,0.05680
1133.93957,0.05715
1135.86804,0.05715
1137.79651,0.05451
1139.72498,0.04897
1141.65345,0.04517
1143.58191,0.04624
1145.51038,0.04953
1147.43885,0.05155
1149.36732,0.05363
1151.29579,0.05621
1153.22426,0.05465
1155.15273,0.04956
1157.08120,0.04831
1159.00966,0.05116
1160.93813,0.05259
1162.86660,0.05371
1164.79507,0.05731
1166.72354,0.05843
1168.65201,0.05348
1170.58048,0.04918
1172.50894,0.05123
1174.43741,0.05468
1176.36588,0.05432
1178.29435,0.05343
1180.22282,0.05382
1182.15129,0.05354
1184.07976,0.05376
1186.00823,0.05379
1187.93669,0.05160
1189.86516,0.04997
1191.79363,0.05136
1193.72210,0.05339
1195.65057,0.05306
1197.57904,0.05117
1199.50751,0.05036
1201.43597,0.05096
1203.36444,0.05312
1205.29291,0.05666
1207.22138,0.05667
1209.14985,0.05301
1211.07832,0.05133
1213.00679,0.05127
1214.93526,0.05169
1216.86372,0.05329
1218.79219,0.05402
1220.72066,0.05236
1222.64913,0.04988
1224.57760,0.04952
1226.50607,0.05116
1228.43454,0.05223
1230.36300,0.05299
1232.29147,0.05405
1234.21994,0.05410
1236.14841,0.05401
1238.07688,0.05394
1240.00535,0.05270
1241.93382,0.05223
1243.86229,0.05339
1245.79075,0.05429
1247.71922,0.05413
1249.64769,0.05451
1251.57616,0.05625
1253.50463,0.05655
1255.43310,0.05474
1257.36157,0.05366
1259.29003,0.05355
1261.21850,0.05248
1263.14697,0.05089
1265.07544,0.04914
1267.00391,0.04738
1268.93238,0.04788
1270.86085,0.05009
1272.78932,0.05139
1274.71778,0.05167
1276.64625,0.05250
1278.57472,0.05443
1280.50319,0.05554
1282.43166,0.05456
1284.36013,0.05351
1286.28860,0.05345
1288.21706,0.05291
1290.14553,0.05356
1292.07400,0.05697
1294.00247,0.05930
1295.93094,0.05804
1297.85941,0.05635
1299.78788,0.05651
1301.71634,0.05544
1303.64481,0.05260
1305.57328,0.05273
1307.50175,0.05521
1309.43022,0.05586
1311.35869,0.05684
1313.28716,0.06009
1315.21563,0.06176
1317.14409,0.06011
1319.07256,0.05583
1321.00103,0.05251
1322.92950,0.05381
1324.85797,0.05667
1326.78644,0.05841
1328.71491,0.05891
1330.64337,0.05693
1332.57184,0.05462
1334.50031,0.05573
1336.42878,0.05957
1338.35725,0.06227
1340.28572,0.05997
1342.21419,0.05513
1344.14266,0.05286
1346.07112,0.05364
1347.99959,0.05621
1349.92806,0.05796
1351.85653,0.05656
1353.78500,0.05419
1355.71347,0.05463
1357.64194,0.05654
1359.57040,0.05731
1361.49887,0.05928
1363.42734,0.06083
1365.35581,0.05875
1367.28428,0.05788
1369.21275,0.05996
1371.14122,0.06102
1373.06969,0.05947
1374.99815,0.05792
1376.92662,0.05768
1378.85509,0.05758
1380.78356,0.05774
1382.71203,0.05864
1384.64050,0.05962
1386.56897,0.05930
1388.49743,0.05725
1390.42590,0.05701
1392.35437,0.06106
1394.28284,0.06640
1396.21131,0.06924
1398.13978,0.06855
1400.06825,0.06393
1401.99672,0.06036
1403.92518,0.06027
1405.85365,0.06119
1407.78212,0.06251
1409.71059,0.06452
1411.63906,0.06536
1413.56753,0.06370
1415.49600,0.06167
1417.42446,0.06231
1419.35293,0.06403
1421.28140,0.06293
1423.20987,0.06236
1425.13834,0.06231
1427.06681,0.06156
1428.99528,0.06211
1430.92375,0.06234
1432.85221,0.06239
1434.78068,0.06480
1436.70915,0.06539
1438.63762,0.06092
1440.56609,0.05639
1442.49456,0.05418
1444.42303,0.05607
1446.35149,0.06082
1448.27996,0.06353
1450.20843,0.06307
1452.13690,0.06312
1454.06537,0.06565
1455.99384,0.07037
1457.92231,0.07176
1459.85077,0.06791
1461.77924,0.06678
1463.70771,0.06887
1465.63618,0.06760
1467.56465,0.06165
1469.49312,0.05951
1471.42159,0.06346
1473.35006,0.06773
1475.27852,0.06910
1477.20699,0.06900
1479.13546,0.06540
1481.06393,0.06107
1482.99240,0.06042
1484.92087,0.06320
1486.84934,0.06698
1488.77780,0.06920
1490.70627,0.06795
1492.63474,0.06631
1494.56321,0.06746
1496.49168,0.07195
1498.42015,0.07496
1500.34862,0.07326
1502.27709,0.07181
1504.20555,0.07604
1506.13402,0.09068
1508.06249,0.09391
1509.99096,0.07942
1511.91943,0.07080
1513.84790,0.06849
1515.77637,0.06900
1517.70483,0.07085
1519.63330,0.07641
1521.56177,0.08304
1523.49024,0.08071
1525.41871,0.07523
1527.34718,0.07116
1529.27565,0.06883
1531.20412,0.07093
1533.13258,0.07506
1535.06105,0.07520
1536.98952,0.07659
1538.91799,0.08487
1540.84646,0.09450
1542.77493,0.09354
1544.70340,0.08408
1546.63186,0.07412
1548.56033,0.07029
1550.48880,0.06934
1552.41727,0.06877
1554.34574,0.07108
1556.27421,0.07712
1558.20268,0.08558
1560.13115,0.08034
1562.05961,0.07087
1563.98808,0.06691
1565.91655,0.06530
1567.84502,0.06710
1569.77349,0.06968
1571.70196,0.06692
1573.63043,0.06532
1575.55889,0.06703
1577.48736,0.06500
1579.41583,0.06175
1581.34430,0.06057
1583.27277,0.05877
1585.20124,0.05697
1587.12971,0.05869
1589.05818,0.06298
1590.98664,0.06493
1592.91511,0.06355
1594.84358,0.06284
1596.77205,0.06327
1598.70052,0.06204
1600.62899,0.06051
1602.55746,0.05960
1604.48592,0.05729
1606.41439,0.05611
1608.34286,0.05847
1610.27133,0.06071
1612.19980,0.06120
1614.12827,0.06367
1616.05674,0.06851
1617.98521,0.06786
1619.91367,0.06403
1621.84214,0.06309
1623.77061,0.06382
1625.69908,0.06476
1627.62755,0.06500
1629.55602,0.06419
1631.48449,0.06625
1633.41295,0.07363
1635.34142,0.08039
1637.26989,0.07465
1639.19836,0.06709
1641.12683,0.06489
1643.05530,0.06749
1644.98377,0.07496
1646.91223,0.08297
1648.84070,0.08050
1650.76917,0.07664
1652.69764,0.08221
1654.62611,0.08358
1656.55458,0.07274
1658.48305,0.06491
1660.41152,0.06322
1662.33998,0.06457
1664.26845,0.06537
1666.19692,0.06761
1668.12539,0.07221
1670.05386,0.07382
1671.98233,0.07115
1673.91080,0.07060
1675.83926,0.07232
1677.76773,0.07498
1679.69620,0.07824
1681.62467,0.08237
1683.55314,0.08693
1685.48161,0.08349
1687.41008,0.07570
1689.33855,0.06954
1691.26701,0.06465
1693.19548,0.06244
1695.12395,0.06512
1697.05242,0.07282
1698.98089,0.07971
1700.90936,0.08085
1702.83783,0.07969
1704.76629,0.08039
1706.69476,0.07717
1708.62323,0.07013
1710.55170,0.06601
1712.48017,0.06692
1714.40864,0.07268
1716.33711,0.07804
1718.26558,0.07303
1720.19404,0.06483
1722.12251,0.06188
1724.05098,0.06290
1725.97945,0.06485
1727.90792,0.06704
1729.83639,0.06950
1731.76486,0.07274
1733.69332,0.07729
1735.62179,0.07684
1737.55026,0.07454
1739.47873,0.07401
1741.40720,0.07293
1743.33567,0.07288
1745.26414,0.07605
1747.19261,0.08004
1749.12107,0.08057
1751.04954,0.07559
1752.97801,0.06986
1754.90648,0.06843
1756.83495,0.07048
1758.76342,0.07224
1760.69189,0.07342
1762.62035,0.07296
1764.54882,0.07082
1766.47729,0.07012
1768.40576,0.07186
1770.33423,0.07776
1772.26270,0.08269
1774.19117,0.07802
1776.11964,0.07212
1778.04810,0.07021
1779.97657,0.07080
1781.90504,0.07137
1783.83351,0.07045
1785.76198,0.06891
1787.69045,0.06816
1789.61892,0.06884
1791.54738,0.07042
1793.47585,0.07013
1795.40432,0.06727
1797.33279,0.06558
1799.26126,0.06682
1801.18973,0.06798
1803.11820,0.06752
1805.04666,0.06745
1806.97513,0.06760
1808.90360,0.06800
1810.83207,0.06907
1812.76054,0.06879
1814.68901,0.06697
1816.61748,0.06494
1818.54595,0.06372
1820.47441,0.06491
1822.40288,0.06839
1824.33135,0.07085
1826.25982,0.06984
1828.18829,0.06822
1830.11676,0.06742
1832.04523,0.06614
1833.97369,0.06515
1835.90216,0.06525
1837.83063,0.06528
1839.75910,0.06543
1841.68757,0.06806
1843.61604,0.07105
1845.54451,0.06987
1847.47298,0.06776
1849.40144,0.06633
1851.32991,0.06482
1853.25838,0.06562
1855.18685,0.06817
1857.11532,0.06875
1859.04379,0.06722
1860.97226,0.06586
1862.90072,0.06607
1864.82919,0.06775
1866.75766,0.06950
1868.68613,0.06966
1870.61460,0.06773
1872.54307,0.06628
1874.47154,0.06670
1876.40001,0.06729
1878.32847,0.06651
1880.25694,0.06440
1882.18541,0.06267
1884.11388,0.06352
1886.04235,0.06594
1887.97082,0.06864
1889.89929,0.07078
1891.82775,0.07075
1893.75622,0.06990
1895.68469,0.06829
1897.61316,0.06561
1899.54163,0.06397
1901.47010,0.06392
1903.39857,0.06440
1905.32704,0.06472
1907.25550,0.06531
1909.18397,0.06597
1911.11244,0.06625
1913.04091,0.06643
1914.96938,0.06644
1916.89785,0.06642
1918.82632,0.06617
1920.75478,0.06583
1922.68325,0.06535
1924.61172,0.06427
1926.54019,0.06403
1928.46866,0.06496
1930.39713,0.06556
1932.32560,0.06474
1934.25407,0.06286
1936.18253,0.06271
1938.11100,0.06567
1940.03947,0.06966
1941.96794,0.07170
1943.89641,0.06989
1945.82488,0.06689
1947.75335,0.06496
1949.68181,0.06322
1951.61028,0.06250
1953.53875,0.06392
1955.46722,0.06593
1957.39569,0.06651
1959.32416,0.06662
1961.25263,0.06775
1963.18110,0.06810
1965.10956,0.06710
1967.03803,0.06648
1968.96650,0.06613
1970.89497,0.06643
1972.82344,0.06799
1974.75191,0.06924
1976.68038,0.06745
1978.60884,0.06291
1980.53731,0.06209
1982.46578,0.06660
1984.39425,0.06870
1986.32272,0.06758
1988.25119,0.06801
1990.17966,0.06901
1992.10812,0.06926
1994.03659,0.06945
1995.96506,0.06893
1997.89353,0.06727
1999.82200,0.06589
2001.75047,0.06556
2003.67894,0.06493
2005.60741,0.06420
2007.53587,0.06432
2009.46434,0.06492
2011.39281,0.06606
2013.32128,0.06745
2015.24975,0.06883
2017.17822,0.07007
2019.10669,0.06977
2021.03515,0.06796
2022.96362,0.06711
2024.89209,0.06783
2026.82056,0.06867
2028.74903,0.06965
2030.67750,0.07003
2032.60597,0.06844
2034.53444,0.06643
2036.46290,0.06518
2038.39137,0.06472
2040.31984,0.06543
2042.24831,0.06549
2044.17678,0.06427
2046.10525,0.06421
2048.03372,0.06559
2049.96218,0.06631
2051.89065,0.06573
2053.81912,0.06434
2055.74759,0.06336
2057.67606,0.06446
2059.60453,0.06683
2061.53300,0.06808
2063.46147,0.06777
2065.38993,0.06703
2067.31840,0.06658
2069.24687,0.06621
2071.17534,0.06592
2073.10381,0.06583
2075.03228,0.06639
2076.96075,0.06782
2078.88921,0.06914
2080.81768,0.06898
2082.74615,0.06740
2084.67462,0.06614
2086.60309,0.06612
2088.53156,0.06686
2090.46003,0.06758
2092.38850,0.06771
2094.31696,0.06795
2096.24543,0.06907
2098.17390,0.06970
2100.10237,0.07003
2102.03084,0.07173
2103.95931,0.07253
2105.88778,0.07083
2107.81624,0.06843
2109.74471,0.06706
2111.67318,0.06745
2113.60165,0.06848
2115.53012,0.06884
2117.45859,0.06837
2119.38706,0.06708
2121.31553,0.06470
2123.24399,0.06191
2125.17246,0.06135
2127.10093,0.06399
2129.02940,0.06705
2130.95787,0.06880
2132.88634,0.07085
2134.81481,0.07371
2136.74327,0.07546
2138.67174,0.07426
2140.60021,0.07082
2142.52868,0.06768
2144.45715,0.06614
2146.38562,0.06669
2148.31409,0.06864
2150.24255,0.06928
2152.17102,0.06807
2154.09949,0.06692
2156.02796,0.06624
2157.95643,0.06598
2159.88490,0.06689
2161.81337,0.06892
2163.74184,0.07059
2165.67030,0.06957
2167.59877,0.06677
2169.52724,0.06630
2171.45571,0.06780
2173.38418,0.06759
2175.31265,0.06678
2177.24112,0.06757
2179.16958,0.06891
2181.09805,0.07009
2183.02652,0.07077
2184.95499,0.06998
2186.88346,0.06760
2188.81193,0.06491
2190.74040,0.06354
2192.66887,0.06362
2194.59733,0.06462
2196.52580,0.06591
2198.45427,0.06630
2200.38274,0.06547
2202.31121,0.06430
2204.23968,0.06409
2206.16815,0.06557
2208.09661,0.06742
2210.02508,0.06814
2211.95355,0.06774
2213.88202,0.06654
2215.81049,0.06578
2217.73896,0.06668
2219.66743,0.06752
2221.59590,0.06710
2223.52436,0.06660
2225.45283,0.06548
2227.38130,0.06437
2229.30977,0.06491
2231.23824,0.06575
2233.16671,0.06677
2235.09518,0.06872
2237.02364,0.06968
2238.95211,0.06885
2240.88058,0.06856
2242.80905,0.06967
2244.73752,0.07039
2246.66599,0.07025
2248.59446,0.06990
2250.52293,0.06931
2252.45139,0.06828
2254.37986,0.06716
2256.30833,0.06616
2258.23680,0.06506
2260.16527,0.06453
2262.09374,0.06474
2264.02221,0.06455
2265.95067,0.06453
2267.87914,0.06585
2269.80761,0.06727
2271.73608,0.06723
2273.66455,0.06574
2275.59302,0.06488
2277.52149,0.06666
2279.44996,0.06830
2281.37842,0.06757
2283.30689,0.06687
2285.23536,0.06631
2287.16383,0.06492
2289.09230,0.06449
2291.02077,0.06522
2292.94924,0.06481
2294.87770,0.06268
2296.80617,0.06211
2298.73464,0.06450
2300.66311,0.06548
2302.59158,0.06292
2304.52005,0.06082
2306.44852,0.06191
2308.37699,0.06342
2310.30545,0.06316
2312.23392,0.06384
2314.16239,0.06653
2316.09086,0.06825
2318.01933,0.06670
2319.94780,0.06256
2321.87627,0.06140
2323.80473,0.06563
2325.73320,0.06918
2327.66167,0.06849
2329.59014,0.06359
2331.51861,0.06084
2333.44708,0.06571
2335.37555,0.06821
2337.30401,0.06559
2339.23248,0.06588
2341.16095,0.06619
2343.08942,0.06494
2345.01789,0.06883
2346.94636,0.07139
2348.87483,0.06784
2350.80330,0.06489
2352.73176,0.06899
2354.66023,0.07842
2356.58870,0.08096
2358.51717,0.06780
2360.44564,0.05139
2362.37411,0.05005
2364.30258,0.06292
2366.23104,0.07189
2368.15951,0.06466
2370.08798,0.05287
2372.01645,0.05105
2373.94492,0.05741
2375.87339,0.06353
2377.80186,0.06653
2379.73033,0.06765
2381.65879,0.06791
2383.58726,0.06807
2385.51573,0.06871
2387.44420,0.06953
2389.37267,0.06938
2391.30114,0.06828
2393.22961,0.06731
2395.15807,0.06694
2397.08654,0.06790
2399.01501,0.06943
2400.94348,0.06999
2402.87195,0.07027
2404.80042,0.06998
2406.72889,0.06838
2408.65736,0.06742
2410.58582,0.06873
2412.51429,0.07070
2414.44276,0.07030
2416.37123,0.06860
2418.29970,0.06864
2420.22817,0.06992
2422.15664,0.07176
2424.08510,0.07347
2426.01357,0.07234
2427.94204,0.06958
2429.87051,0.06905
2431.79898,0.06917
2433.72745,0.06821
2435.65592,0.06910
2437.58439,0.07115
2439.51285,0.07109
2441.44132,0.06942
2443.36979,0.06738
2445.29826,0.06612
2447.22673,0.06703
2449.15520,0.06917
2451.08367,0.07168
2453.01213,0.07350
2454.94060,0.07256
2456.86907,0.07029
2458.79754,0.06917
2460.72601,0.06958
2462.65448,0.07177
2464.58295,0.07355
2466.51142,0.07200
2468.43988,0.06900
2470.36835,0.06728
2472.29682,0.06734
2474.22529,0.06927
2476.15376,0.07082
2478.08223,0.07085
2480.01070,0.07127
2481.93916,0.07154
2483.86763,0.06946
2485.79610,0.06647
2487.72457,0.06701
2489.65304,0.07060
2491.58151,0.07198
2493.50998,0.06978
2495.43844,0.06672
2497.36691,0.06532
2499.29538,0.06601
2501.22385,0.06727
2503.15232,0.06754
2505.08079,0.06669
2507.00926,0.06629
2508.93773,0.06760
2510.86619,0.06941
2512.79466,0.07053
2514.72313,0.07099
2516.65160,0.07026
2518.58007,0.06897
2520.50854,0.06843
2522.43701,0.06787
2524.36547,0.06673
2526.29394,0.06627
2528.22241,0.06740
2530.15088,0.06898
2532.07935,0.06955
2534.00782,0.07072
2535.93629,0.07336
2537.86476,0.07371
2539.79322,0.07050
2541.72169,0.06735
2543.65016,0.06680
2545.57863,0.06842
2547.50710,0.07043
2549.43557,0.07131
2551.36404,0.07026
2553.29250,0.06803
2555.22097,0.06634
2557.14944,0.06603
2559.07791,0.06751
2561.00638,0.06997
2562.93485,0.07091
2564.86332,0.06928
2566.79179,0.06729
2568.72025,0.06753
2570.64872,0.06896
2572.57719,0.06859
2574.50566,0.06754
2576.43413,0.06848
2578.36260,0.07041
2580.29107,0.07189
2582.21953,0.07267
2584.14800,0.07199
2586.07647,0.07039
2588.00494,0.06959
2589.93341,0.06996
2591.86188,0.07063
2593.79035,0.07003
2595.71882,0.06827
2597.64728,0.06717
2599.57575,0.06688
2601.50422,0.06773
2603.43269,0.06977
2605.36116,0.07060
2607.28963,0.07004
2609.21810,0.06988
2611.14656,0.06996
2613.07503,0.06902
2615.00350,0.06773
2616.93197,0.06852
2618.86044,0.06991
2620.78891,0.06960
2622.71738,0.06940
2624.64585,0.06944
2626.57431,0.06894
2628.50278,0.06893
2630.43125,0.07036
2632.35972,0.07272
2634.28819,0.07318
2636.21666,0.07076
2638.14513,0.06820
2640.07359,0.06752
2642.00206,0.06810
2643.93053,0.06879
2645.85900,0.06914
2647.78747,0.06896
2649.71594,0.06865
2651.64441,0.06876
2653.57288,0.06933
2655.50134,0.07118
2657.42981,0.07340
2659.35828,0.07312
2661.28675,0.07121
2663.21522,0.07011
2665.14369,0.06946
2667.07216,0.06903
2669.00062,0.06994
2670.92909,0.07114
2672.85756,0.07150
2674.78603,0.07303
2676.71450,0.07432
2678.64297,0.07209
2680.57144,0.06887
2682.49990,0.06911
2684.42837,0.07192
2686.35684,0.07324
2688.28531,0.07294
2690.21378,0.07247
2692.14225,0.07205
2694.07072,0.07143
2695.99919,0.06977
2697.92765,0.06873
2699.85612,0.06947
2701.78459,0.06990
2703.71306,0.06987
2705.64153,0.07023
2707.57000,0.07088
2709.49847,0.07221
2711.42693,0.07303
2713.35540,0.07262
2715.28387,0.07205
2717.21234,0.07142
2719.14081,0.07089
2721.06928,0.07038
2722.99775,0.06974
2724.92622,0.06959
2726.85468,0.06972
2728.78315,0.06985
2730.71162,0.07096
2732.64009,0.07379
2734.56856,0.07685
2736.49703,0.07738
2738.42550,0.07447
2740.35396,0.07113
2742.28243,0.07057
2744.21090,0.07212
2746.13937,0.07343
2748.06784,0.07417
2749.99631,0.07563
2751.92478,0.07702
2753.85325,0.07664
2755.78171,0.07498
2757.71018,0.07316
2759.63865,0.07166
2761.56712,0.07020
2763.49559,0.06936
2765.42406,0.06965
2767.35253,0.06913
2769.28099,0.06689
2771.20946,0.06528
2773.13793,0.06620
2775.06640,0.06893
2776.99487,0.07106
2778.92334,0.07162
2780.85181,0.07154
2782.78028,0.07131
2784.70874,0.07160
2786.63721,0.07283
2788.56568,0.07422
2790.49415,0.07475
2792.42262,0.07420
2794.35109,0.07353
2796.27956,0.07361
2798.20802,0.07490
2800.13649,0.07612
2802.06496,0.07591
2803.99343,0.07554
2805.92190,0.07514
2807.85037,0.07461
2809.77884,0.07419
2811.70731,0.07317
2813.63577,0.07257
2815.56424,0.07255
2817.49271,0.07343
2819.42118,0.07693
2821.34965,0.07937
2823.27812,0.07756
2825.20659,0.07496
2827.13505,0.07292
2829.06352,0.07057
2830.99199,0.06979
2832.92046,0.07093
2834.84893,0.07194
2836.77740,0.07139
2838.70587,0.07111
2840.63433,0.07432
2842.56280,0.07848
2844.49127,0.07861
2846.41974,0.07534
2848.34821,0.07283
2850.27668,0.07278
2852.20515,0.07410
2854.13362,0.07577
2856.06208,0.07690
2857.99055,0.07769
2859.91902,0.07858
2861.84749,0.07787
2863.77596,0.07605
2865.70443,0.07499
2867.63290,0.07408
2869.56136,0.07423
2871.48983,0.07557
2873.41830,0.07475
2875.34677,0.07238
2877.27524,0.07282
2879.20371,0.07525
2881.13218,0.07580
2883.06065,0.07513
2884.98911,0.07558
2886.91758,0.07710
2888.84605,0.07791
2890.77452,0.07747
2892.70299,0.07693
2894.63146,0.07493
2896.55993,0.07182
2898.48839,0.07125
2900.41686,0.07289
2902.34533,0.07466
2904.27380,0.07645
2906.20227,0.07709
2908.13074,0.07543
2910.05921,0.07252
2911.98768,0.07040
2913.91614,0.07042
2915.84461,0.07107
2917.77308,0.07053
2919.70155,0.06969
2921.63002,0.06939
2923.55849,0.06953
2925.48696,0.06944
2927.41542,0.06964
2929.34389,0.07058
2931.27236,0.07056
2933.20083,0.07076
2935.12930,0.07213
2937.05777,0.07268
2938.98624,0.07352
2940.91471,0.07505
2942.84317,0.07579
2944.77164,0.07611
2946.70011,0.07610
2948.62858,0.07556
2950.55705,0.07448
2952.48552,0.07419
2954.41399,0.07501
2956.34245,0.07475
2958.27092,0.07487
2960.19939,0.07678
2962.12786,0.07623
2964.05633,0.07314
2965.98480,0.07151
2967.91327,0.07043
2969.84174,0.06886
2971.77020,0.06850
2973.69867,0.07130
2975.62714,0.07609
2977.55561,0.07756
2979.48408,0.07536
2981.41255,0.07425
2983.34102,0.07616
2985.26948,0.07861
2987.19795,0.07864
2989.12642,0.07752
2991.05489,0.07717
2992.98336,0.07767
2994.91183,0.07926
2996.84030,0.07929
2998.76877,0.07626
3000.69723,0.07430
3002.62570,0.07541
3004.55417,0.07640
3006.48264,0.07560
3008.41111,0.07629
3010.33958,0.07962
3012.26805,0.08058
3014.19651,0.07541
3016.12498,0.06780
3018.05345,0.06603
3019.98192,0.07109
3021.91039,0.07595
3023.83886,0.07768
3025.76733,0.07760
3027.69579,0.07765
3029.62426,0.07869
3031.55273,0.07884
3033.48120,0.07666
3035.40967,0.07364
3037.33814,0.07338
3039.26661,0.07631
3041.19508,0.07793
3043.12354,0.07682
3045.05201,0.07596
3046.98048,0.07769
3048.90895,0.08104
3050.83742,0.08083
3052.76589,0.07620
3054.69436,0.07288
3056.62282,0.07219
3058.55129,0.07130
3060.47976,0.07175
3062.40823,0.07454
3064.33670,0.07623
3066.26517,0.07625
3068.19364,0.07687
3070.12211,0.07842
3072.05057,0.07993
3073.97904,0.07821
3075.90751,0.07282
3077.83598,0.07066
3079.76445,0.07399
3081.69292,0.07736
3083.62139,0.07883
3085.54985,0.08014
3087.47832,0.08039
3089.40679,0.07785
3091.33526,0.07419
3093.26373,0.07226
3095.19220,0.07407
3097.12067,0.07790
3099.04914,0.07942
3100.97760,0.07782
3102.90607,0.07474
3104.83454,0.07360
3106.76301,0.07390
3108.69148,0.07100
3110.61995,0.06825
3112.54842,0.07113
3114.47688,0.07583
3116.40535,0.07735
3118.33382,0.07710
3120.26229,0.07691
3122.19076,0.07675
3124.11923,0.07700
3126.04770,0.07665
3127.97617,0.07517
3129.90463,0.07518
3131.83310,0.07748
3133.76157,0.07848
3135.69004,0.07690
3137.61851,0.07450
3139.54698,0.07141
3141.47545,0.06914
3143.40391,0.07001
3145.33238,0.07306
3147.26085,0.07649
3149.18932,0.07717
3151.11779,0.07377
3153.04626,0.07105
3154.97473,0.07121
3156.90320,0.07176
3158.83166,0.07178
3160.76013,0.07198
3162.68860,0.07323
3164.61707,0.07546
3166.54554,0.07740
3168.47401,0.07776
3170.40248,0.07644
3172.33094,0.07594
3174.25941,0.07784
3176.18788,0.07842
3178.11635,0.07634
3180.04482,0.07570
3181.97329,0.07750
3183.90176,0.07863
3185.83022,0.07726
3187.75869,0.07533
3189.68716,0.07475
3191.61563,0.07533
3193.54410,0.07566
3195.47257,0.07413
3197.40104,0.07324
3199.32951,0.07594
3201.25797,0.07934
3203.18644,0.07987
3205.11491,0.07859
3207.04338,0.07654
3208.97185,0.07403
3210.90032,0.07368
3212.82879,0.07481
3214.75725,0.07431
3216.68572,0.07261
3218.61419,0.07178
3220.54266,0.07320
3222.47113,0.07569
3224.39960,0.07680
3226.32807,0.07850
3228.25654,0.08212
3230.18500,0.08311
3232.11347,0.07936
3234.04194,0.07392
3235.97041,0.06972
3237.89888,0.06881
3239.82735,0.07208
3241.75582,0.07719
3243.68428,0.08059
3245.61275,0.08116
3247.54122,0.07952
3249.46969,0.07824
3251.39816,0.07949
3253.32663,0.07951
3255.25510,0.07539
3257.18357,0.07143
3259.11203,0.07171
3261.04050,0.07448
3262.96897,0.07573
3264.89744,0.07604
3266.82591,0.07726
3268.75438,0.07819
3270.68285,0.07880
3272.61131,0.08083
3274.53978,0.08312
3276.46825,0.08134
3278.39672,0.07636
3280.32519,0.07347
3282.25366,0.07373
3284.18213,0.07515
3286.11060,0.07572
3288.03906,0.07665
3289.96753,0.07830
3291.89600,0.07675
3293.82447,0.07294
3295.75294,0.07260
3297.68141,0.07533
3299.60988,0.07647
3301.53834,0.07685
3303.46681,0.07785
3305.39528,0.07728
3307.32375,0.07651
3309.25222,0.07741
3311.18069,0.07836
3313.10916,0.07746
3315.03763,0.07509
3316.96609,0.07467
3318.89456,0.07645
3320.82303,0.07653
3322.75150,0.07420
3324.67997,0.07227
3326.60844,0.07379
3328.53691,0.07716
3330.46537,0.07832
3332.39384,0.07795
3334.32231,0.07618
3336.25078,0.07395
3338.17925,0.07624
3340.10772,0.08022
3342.03619,0.07947
3343.96466,0.07762
3345.89312,0.07925
3347.82159,0.08057
3349.75006,0.07890
3351.67853,0.07749
3353.60700,0.07821
3355.53547,0.07881
3357.46394,0.07820
3359.39240,0.07844
3361.32087,0.07960
3363.24934,0.07890
3365.17781,0.07644
3367.10628,0.07365
3369.03475,0.07148
3370.96322,0.07255
3372.89168,0.07731
3374.82015,0.08226
3376.74862,0.08243
3378.67709,0.07819
3380.60556,0.07582
3382.53403,0.07701
3384.46250,0.07761
3386.39097,0.07603
3388.31943,0.07606
3390.24790,0.07768
3392.17637,0.07676
3394.10484,0.07524
3396.03331,0.07658
3397.96178,0.07880
3399.89025,0.07797
3401.81871,0.07578
3403.74718,0.07513
3405.67565,0.07274
3407.60412,0.07009
3409.53259,0.07109
3411.46106,0.07120
3413.38953,0.06950
3415.31800,0.07125
3417.24646,0.07497
3419.17493,0.07627
3421.10340,0.07652
3423.03187,0.07675
3424.96034,0.07467
3426.88881,0.07246
3428.81728,0.07378
3430.74574,0.07545
3432.67421,0.07434
3434.60268,0.07374
3436.53115,0.07672
3438.45962,0.08055
3440.38809,0.08192
3442.31656,0.08338
3444.24503,0.08595
3446.17349,0.08434
3448.10196,0.07524
3450.03043,0.06657
3451.95890,0.06583
3453.88737,0.06952
3455.81584,0.07352
3457.74431,0.07466
3459.67277,0.07032
3461.60124,0.06594
3463.52971,0.06707
3465.45818,0.07031
3467.38665,0.07217
3469.31512,0.07228
3471.24359,0.07013
3473.17206,0.06783
3475.10052,0.06714
3477.02899,0.06833
3478.95746,0.07214
3480.88593,0.07637
3482.81440,0.07623
3484.74287,0.07147
3486.67134,0.06739
3488.59980,0.06630
3490.52827,0.06822
3492.45674,0.07332
3494.38521,0.07741
3496.31368,0.07488
3498.24215,0.06786
3500.17062,0.06479
3502.09909,0.06652
3504.02755,0.06650
3505.95602,0.06431
3507.88449,0.06360
3509.81296,0.06329
3511.74143,0.06224
3513.66990,0.06257
3515.59837,0.06299
3517.52683,0.06175
3519.45530,0.06260
3521.38377,0.06781
3523.31224,0.07311
3525.24071,0.07516
3527.16918,0.07503
3529.09765,0.07282
3531.02611,0.06976
3532.95458,0.06836
3534.88305,0.06722
3536.81152,0.06476
3538.73999,0.06436
3540.66846,0.06714
3542.59693,0.07003
3544.52540,0.07109
3546.45386,0.06785
3548.38233,0.06292
3550.31080,0.06200
3552.23927,0.06223
3554.16774,0.05845
3556.09621,0.05502
3558.02468,0.05791
3559.95314,0.06365
3561.88161,0.06614
3563.81008,0.06769
3565.73855,0.07100
3567.66702,0.06723
3569.59549,0.05611
3571.52396,0.05230
3573.45243,0.05692
3575.38089,0.06232
3577.30936,0.06586
3579.23783,0.06757
3581.16630,0.06488
3583.09477,0.05956
3585.02324,0.05729
3586.95171,0.05984
3588.88017,0.06051
3590.80864,0.05702
3592.73711,0.05498
3594.66558,0.05512
3596.59405,0.05458
3598.52252,0.05506
3600.45099,0.05779
3602.37946,0.05862
3604.30792,0.05638
3606.23639,0.05376
3608.16486,0.05402
3610.09333,0.05741
3612.02180,0.05867
3613.95027,0.05764
3615.87874,0.05915
3617.80720,0.06204
3619.73567,0.06026
3621.66414,0.05452
3623.59261,0.05150
3625.52108,0.05288
3627.44955,0.05757
3629.37802,0.05967
3631.30649,0.05493
3633.23495,0.05223
3635.16342,0.05317
3637.09189,0.05387
3639.02036,0.05311
3640.94883,0.05186
3642.87730,0.05238
3644.80577,0.05514
3646.73423,0.05793
3648.66270,0.05970
3650.59117,0.05955
3652.51964,0.05721
3654.44811,0.05517
3656.37658,0.05462
3658.30505,0.05406
3660.23352,0.05313
3662.16198,0.05324
3664.09045,0.05292
3666.01892,0.05157
3667.94739,0.05214
3669.87586,0.05252
3671.80433,0.05047
3673.73280,0.05477
3675.66126,0.06291
3677.58973,0.06051
3679.51820,0.05455
3681.44667,0.05016
3683.37514,0.04719
3685.30361,0.04748
3687.23208,0.05187
3689.16055,0.05686
3691.08901,0.05345
3693.01748,0.04725
3694.94595,0.04610
3696.87442,0.04688
3698.80289,0.04561
3700.73136,0.04397
3702.65983,0.04548
3704.58829,0.04885
3706.51676,0.05232
3708.44523,0.05662
3710.37370,0.05903
3712.30217,0.05483
3714.23064,0.04933
3716.15911,0.04872
3718.08757,0.05176
3720.01604,0.05415
3721.94451,0.05556
3723.87298,0.05735
3725.80145,0.05537
3727.72992,0.04960
3729.65839,0.04627
3731.58686,0.04769
3733.51532,0.05248
3735.44379,0.05659
3737.37226,0.05604
3739.30073,0.05337
3741.22920,0.05297
3743.15767,0.05557
3745.08614,0.05643
3747.01460,0.05507
3748.94307,0.05709
3750.87154,0.06017
3752.80001,0.05725
3754.72848,0.05260
3756.65695,0.05002
3758.58542,0.04772
3760.51389,0.04630
3762.44235,0.04795
3764.37082,0.04970
3766.29929,0.04978
3768.22776,0.05006
3770.15623,0.05047
3772.08470,0.04980
3774.01317,0.04913
3775.94163,0.04856
3777.87010,0.04707
3779.79857,0.04652
3781.72704,0.04851
3783.65551,0.05002
3785.58398,0.04984
3787.51245,0.04892
3789.44092,0.04804
3791.36938,0.04761
3793.29785,0.04792
3795.22632,0.04939
3797.15479,0.05104
3799.08326,0.05287
3801.01173,0.05594
3802.94020,0.05407
3804.86866,0.04795
3806.79713,0.04480
3808.72560,0.04649
3810.65407,0.04782
3812.58254,0.04646
3814.51101,0.04500
3816.43948,0.04559
3818.36795,0.04813
3820.29641,0.05295
3822.22488,0.05431
3824.15335,0.05025
3826.08182,0.04689
3828.01029,0.04531
3829.93876,0.04577
3831.86723,0.04884
3833.79569,0.05210
3835.72416,0.05402
3837.65263,0.05561
3839.58110,0.05517
3841.50957,0.05330
3843.43804,0.05059
3845.36651,0.04656
3847.29498,0.04398
3849.22344,0.04569
3851.15191,0.05098
3853.08038,0.05083
3855.00885,0.04195
3856.93732,0.03883
3858.86579,0.03982
3860.79426,0.04228
3862.72272,0.04350
3864.65119,0.04338
3866.57966,0.04494
3868.50813,0.04754
3870.43660,0.05009
3872.36507,0.04927
3874.29354,0.04320
3876.22200,0.03907
3878.15047,0.04257
3880.07894,0.04653
3882.00741,0.04383
3883.93588,0.04244
3885.86435,0.04377
3887.79282,0.04240
3889.72129,0.04073
3891.64975,0.04061
3893.57822,0.04018
3895.50669,0.03892
3897.43516,0.03937
3899.36363,0.04395
3901.29210,0.05131
3903.22057,0.05740
3905.14903,0.05650
3907.07750,0.05014
3909.00597,0.04488
3910.93444,0.04115
3912.86291,0.03927
3914.79138,0.04076
3916.71985,0.04215
3918.64832,0.04068
3920.57678,0.04041
3922.50525,0.04204
3924.43372,0.04266
3926.36219,0.04077
3928.29066,0.03867
3930.21913,0.04021
3932.14760,0.04331
3934.07606,0.04312
3936.00453,0.04107
3937.93300,0.04027
3939.86147,0.04108
3941.78994,0.04046
3943.71841,0.03904
3945.64688,0.04126
3947.57535,0.04420
3949.50381,0.04377
3951.43228,0.04261
3953.36075,0.04299
3955.28922,0.04304
3957.21769,0.03987
3959.14616,0.03460
3961.07463,0.03432
3963.00309,0.04010
3964.93156,0.04271
3966.86003,0.03963
3968.78850,0.03797
3970.71697,0.03865
3972.64544,0.03809
3974.57391,0.03802
3976.50238,0.03826
3978.43084,0.03739
3980.35931,0.03858
3982.28778,0.04249
3984.21625,0.04608
3986.14472,0.04496
3988.07319,0.03757
3990.00166,0.03185
3991.93012,0.03508
3993.85859,0.04191
3995.78706,0.04505
3997.71553,0.04476
3999.64400,0.04338
4001.57247,0.04212
4003.50094,0.04053
4005.42941,0.03847
4007.35787,0.03763
4009.28634,0.03742
4011.21481,0.03741
4013.14328,0.03869
4015.07175,0.03988
4017.00022,0.03816
4018.92869,0.03448
4020.85715,0.03372
4022.78562,0.03622
4024.71409,0.03872
4026.64256,0.04018
4028.57103,0.03972
4030.49950,0.03637
4032.42797,0.03153
4034.35644,0.02964
4036.28490,0.03281
4038.21337,0.03627
4040.14184,0.03618
4042.07031,0.03456
4043.99878,0.03301
4045.92725,0.03153
4047.85572,0.03089
4049.78418,0.03096
4051.71265,0.03209
4053.64112,0.03456
4055.56959,0.03604
4057.49806,0.03544
4059.42653,0.03567
4061.35500,0.03833
4063.28346,0.03927
4065.21193,0.03605
4067.14040,0.03436
4069.06887,0.03727
4070.99734,0.03847
4072.92581,0.03512
4074.85428,0.03205
4076.78275,0.03257
4078.71121,0.03589
4080.63968,0.03956
4082.56815,0.03919
4084.49662,0.03187
4086.42509,0.02354
4088.35356,0.02056
4090.28203,0.02132
4092.21049,0.02384
4094.13896,0.02600
4096.06743,0.02624
4097.99590,0.02751
4099.92437,0.03141
4101.85284,0.03468
4103.78131,0.03406
4105.70978,0.03094
4107.63824,0.02902
4109.56671,0.03045
4111.49518,0.03306
4113.42365,0.03147
4115.35212,0.02673
4117.28059,0.02497
4119.20906,0.02794
4121.13752,0.03050
4123.06599,0.02758
4124.99446,0.02486
4126.92293,0.02680
4128.85140,0.02901
4130.77987,0.03128
4132.70834,0.03406
4134.63681,0.03275
4136.56527,0.02787
4138.49374,0.02663
4140.42221,0.02889
4142.35068,0.02912
4144.27915,0.02938
4146.20762,0.03025
4148.13609,0.02732
4150.06455,0.02329
4151.99302,0.02292
4153.92149,0.02452
4155.84996,0.02627
4157.77843,0.02697
4159.70690,0.02674
4161.63537,0.02896
4163.56384,0.03130
4165.49230,0.02962
4167.42077,0.02649
4169.34924,0.02525
4171.27771,0.02448
4173.20618,0.02276
4175.13465,0.02298
4177.06312,0.02534
4178.99158,0.02616
4180.92005,0.02580
4182.84852,0.02633
4184.77699,0.02687
4186.70546,0.02708
4188.63393,0.02632
4190.56240,0.02434
4192.49087,0.02149
4194.41933,0.01829
4196.34780,0.01876
4198.27627,0.02198
4200.20474,0.02274
4202.13321,0.02207
4204.06168,0.02216
4205.99015,0.02299
4207.91861,0.02406
4209.84708,0.02488
4211.77555,0.02488
4213.70402,0.02235
4215.63249,0.01952
4217.56096,0.02084
4219.48943,0.02286
4221.41789,0.02236
4223.34636,0.02338
4225.27483,0.02600
4227.20330,0.02735
4229.13177,0.02748
4231.06024,0.02692
4232.98871,0.02642
4234.91718,0.02536
4236.84564,0.02346
4238.77411,0.02359
4240.70258,0.02592
4242.63105,0.02687
4244.55952,0.02569
4246.48799,0.02426
4248.41646,0.02355
4250.34492,0.02297
4252.27339,0.02129
4254.20186,0.02034
4256.13033,0.02241
4258.05880,0.02330
4259.98727,0.02036
4261.91574,0.01766
4263.84421,0.01553
4265.77267,0.01220
4267.70114,0.00970
4269.62961,0.01063
4271.55808,0.01583
4273.48655,0.02235
4275.41502,0.02579
4277.34349,0.02403
4279.27195,0.01757
4281.20042,0.01126
4283.12889,0.01074
4285.05736,0.01620
4286.98583,0.02347
4288.91430,0.02542
4290.84277,0.02037
4292.77124,0.01855
4294.69970,0.02252
4296.62817,0.02439
4298.55664,0.02384
4300.48511,0.02189
4302.41358,0.02008
4304.34205,0.02365
4306.27052,0.03011
4308.19898,0.03142
4310.12745,0.02624
4312.05592,0.02332
4313.98439,0.02599
4315.91286,0.02636
4317.84133,0.02213
4319.76980,0.01796
4321.69827,0.01749
4323.62673,0.02034
4325.55520,0.01973
4327.48367,0.01364
4329.41214,0.01080
4331.34061,0.01516
4333.26908,0.01856
4335.19755,0.01576
4337.12601,0.01234
4339.05448,0.01176
4340.98295,0.01162
4342.91142,0.01094
4344.83989,0.00926
4346.76836,0.00787
4348.69683,0.00898
4350.62530,0.01114
4352.55376,0.01494
4354.48223,0.02180
4356.41070,0.02539
4358.33917,0.02177
4360.26764,0.01806
4362.19611,0.01781
4364.12458,0.01698
4366.05304,0.01325
4367.98151,0.00807
4369.90998,0.00772
4371.83845,0.01461
4373.76692,0.02020
4375.69539,0.02033
4377.62386,0.02099
4379.55232,0.02295
4381.48079,0.02044
4383.40926,0.01361
4385.33773,0.00779
4387.26620,0.00596
4389.19467,0.00658
4391.12314,0.00760
4393.05161,0.00861
4394.98007,0.00863
4396.90854,0.00844
4398.83701,0.00972
4400.76548,0.01187
4402.69395,0.01201
4404.62242,0.00895
4406.55089,0.00669
4408.47935,0.00661
4410.40782,0.00533
4412.33629,0.00427
4414.26476,0.00749
4416.19323,0.01109
4418.12170,0.01065
4420.05017,0.00888
4421.97864,0.00883
4423.90710,0.01131
4425.83557,0.01146
4427.76404,0.00709
4429.69251,0.00588
4431.62098,0.01070
4433.54945,0.01582
4435.47792,0.01511
4437.40638,0.01018
4439.33485,0.00783
4441.26332,0.00853
4443.19179,0.00794
4445.12026,0.00556
4447.04873,0.00465
4448.97720,0.00587
4450.90567,0.00806
4452.83413,0.00922
4454.76260,0.00743
4456.69107,0.00448
4458.61954,0.00323
4460.54801,0.00553
4462.47648,0.00807
4464.40495,0.00849
4466.33341,0.01233
4468.26188,0.01666
4470.19035,0.01163
4472.11882,0.00481
4474.04729,0.00761
4475.97576,0.01098
4477.90423,0.00847
4479.83270,0.00807
4481.76116,0.01071
4483.68963,0.01126
4485.61810,0.00875
4487.54657,0.00891
4489.47504,0.01542
4491.40351,0.02177
4493.33198,0.02321
4495.26044,0.01857
4497.18891,0.00901
4499.11738,0.00369
4501.04585,0.00418
4502.97432,0.00549
4504.90279,0.00724
4506.83126,0.00603
4508.75973,0.00444
4510.68819,0.00740
4512.61666,0.00584
4514.54513,-0.00132
4516.47360,-0.00064
4518.40207,0.00702
4520.33054,0.01002
4522.25901,0.00553
4524.18747,0.00024
4526.11594,0.00237
4528.04441,0.00969
4529.97288,0.01253
4531.90135,0.00893
4533.82982,0.00191
4535.75829,-0.00575
4537.68676,-0.00846
4539.61522,-0.00645
4541.54369,-0.00590
4543.47216,-0.00375
4545.40063,0.00568
4547.32910,0.01547
4549.25757,0.01483
4551.18604,0.00420
4553.11450,-0.00731
4555.04297,-0.01195
4556.97144,-0.00737
4558.89991,0.00218
4560.82838,0.00732
4562.75685,0.00477
4564.68532,0.00181
4566.61378,0.00230
4568.54225,0.00265
4570.47072,0.00352
4572.39919,0.00568
4574.32766,0.00537
4576.25613,0.00282
4578.18460,0.00121
4580.11307,0.00129
4582.04153,0.00205
4583.97000,0.00250
4585.89847,0.00332
4587.82694,0.00478
4589.75541,0.00607
4591.68388,0.00887
4593.61235,0.01475
4595.54081,0.01947
4597.46928,0.01822
4599.39775,0.01233
4601.32622,0.00713
4603.25469,0.00537
4605.18316,0.00480
4607.11163,0.00141
4609.04010,-0.00588
4610.96856,-0.00766
4612.89703,0.00085
4614.82550,0.00613
4616.75397,0.00264
4618.68244,-0.00080
4620.61091,0.00193
4622.53938,0.00497
4624.46784,0.00003
4626.39631,-0.00355
4628.32478,0.00027
4630.25325,0.00123
4632.18172,-0.00055
4634.11019,-0.00104
4636.03866,-0.00308
4637.96713,-0.00324
4639.89559,0.00238
4641.82406,0.00701
4643.75253,0.00652
4645.68100,0.00329
4647.60947,-0.00007
4649.53794,0.00206
4651.46641,0.00820
4653.39487,0.00826
4655.32334,0.00331
4657.25181,0.00181
4659.18028,-0.00095
4661.10875,-0.01015
4663.03722,-0.01533
4664.96569,-0.00930
4666.89416,0.00014
4668.82262,0.00643
4670.75109,0.01084
4672.67956,0.01690
4674.60803,0.02149
4676.53650,0.01576
4678.46497,0.00488
4680.39344,0.00104
4682.32190,0.00359
4684.25037,0.00439
4686.17884,0.00119
4688.10731,0.00254
4690.03578,0.00660
4691.96425,0.00314
4693.89272,-0.00227
4695.82119,0.00063
4697.74965,0.00865
4699.67812,0.01163
4701.60659,0.00835
4703.53506,0.00558
4705.46353,0.00535
4707.39200,0.00393
4709.32047,0.00192
4711.24893,0.00288
4713.17740,0.00532
4715.10587,0.00702
4717.03434,0.00543
4718.96281,-0.00134
4720.89128,-0.00738
4722.81975,-0.00519
4724.74821,0.00163
4726.67668,0.00685
4728.60515,0.00752
4730.53362,0.00331
4732.46209,0.00194
4734.39056,0.00355
4736.31903,0.00392
4738.24750,0.00571
4740.17596,0.00507
4742.10443,0.00094
4744.03290,0.00227
4745.96137,0.00877
4747.88984,0.01080
4749.81831,0.00813
4751.74678,0.00596
4753.67524,0.00465
4755.60371,0.00391
4757.53218,0.00390
4759.46065,0.00708
4761.38912,0.01296
4763.31759,0.01290
4765.24606,0.00237
4767.17453,-0.00847
4769.10299,-0.00607
4771.03146,0.00428
4772.95993,0.00731
4774.88840,0.00604
4776.81687,0.00670
4778.74534,0.00497
4780.67381,0.00643
4782.60227,0.01170
4784.53074,0.00842
4786.45921,-0.00089
4788.38768,-0.00761
4790.31615,-0.01382
4792.24462,-0.02061
4794.17309,-0.01999
4796.10156,-0.01044
4798.03002,-0.00216
4799.95849,0.00225
4801.88696,0.00454
4803.81543,0.00365
4805.74390,0.00348
4807.67237,0.00434
4809.60084,-0.00053
4811.52930,-0.00775
4813.45777,-0.00789
4815.38624,-0.00377
4817.31471,-0.00369
4819.24318,-0.00691
4821.17165,-0.00960
4823.10012,-0.01010
4825.02859,-0.01000
4826.95705,-0.00993
4828.88552,-0.00306
4830.81399,0.01178
4832.74246,0.02441
4834.67093,0.02820
4836.59940,0.02592
4838.52787,0.02414
4840.45633,0.02541
4842.38480,0.02814
4844.31327,0.02825
4846.24174,0.01958
4848.17021,0.00757
4850.09868,0.00459
4852.02715,0.01031
4853.95562,0.01503
4855.88408,0.01302
4857.81255,0.00525
4859.74102,-0.00283
4861.66949,-0.00649
4863.59796,-0.00747
4865.52643,-0.00901
4867.45490,-0.00720
4869.38336,0.00146
4871.31183,0.01128
4873.24030,0.01601
4875.16877,0.01279
4877.09724,0.00497
4879.02571,0.00132
4880.95418,0.00010
4882.88265,-0.00576
4884.81111,-0.01285
4886.73958,-0.01354
4888.66805,-0.00935
4890.59652,-0.00724
4892.52499,-0.00565
4894.45346,-0.00375
4896.38193,-0.00316
4898.31039,0.00147
4900.23886,0.00866
4902.16733,0.01018
4904.09580,0.00821
4906.02427,0.01012
4907.95274,0.01073
4909.88121,0.00520
4911.80967,0.00102
4913.73814,0.00072
4915.66661,0.00126
4917.59508,0.00468
4919.52355,0.00667
4921.45202,0.00047
4923.38049,-0.00989
4925.30896,-0.01496
4927.23742,-0.00428
4929.16589,0.01542
4931.09436,0.02227
4933.02283,0.01393
4934.95130,0.00187
4936.87977,-0.00741
4938.80824,-0.00750
4940.73670,0.00202
4942.66517,0.01217
4944.59364,0.01590
4946.52211,0.01117
4948.45058,0.00066
4950.37905,-0.00324
4952.30752,0.00534
4954.23599,0.01233
4956.16445,0.00676
4958.09292,-0.00040
4960.02139,-0.00106
4961.94986,-0.00370
4963.87833,-0.00688
4965.80680,-0.00374
4967.73527,0.00128
4969.66373,0.00414
4971.59220,0.00669
4973.52067,0.01239
4975.44914,0.02369
4977.37761,0.03041
4979.30608,0.02295
4981.23455,0.00912
4983.16302,-0.00184
4985.09148,-0.00357
4987.01995,0.00658
4988.94842,0.01780
4990.87689,0.01799
4992.80536,0.01051
4994.73383,0.00849
4996.66230,0.01096
4998.59076,0.00873
5000.51923,0.00690
5002.44770,0.01162
5004.37617,0.01700
5006.30464,0.01524
5008.23311,0.00773
5010.16158,0.00081
5012.09005,-0.00277
5014.01851,-0.00173
5015.94698,0.00550
5017.87545,0.00816
5019.80392,0.00320
5021.73239,0.00205
5023.66086,0.00316
5025.58933,0.00452
5027.51779,0.00696
5029.44626,0.00511
5031.37473,-0.00100
5033.30320,-0.00888
5035.23167,-0.01234
5037.16014,-0.00545
5039.08861,0.00307
5041.01708,0.00023
5042.94554,-0.00452
5044.87401,-0.00115
5046.80248,-0.00116
5048.73095,-0.00889
5050.65942,-0.00923
5052.58789,0.00047
5054.51636,0.00768
5056.44482,0.00619
5058.37329,-0.00062
5060.30176,-0.00149
5062.23023,0.00553
5064.15870,0.01094
5066.08717,0.01227
5068.01564,0.01331
5069.94410,0.01693
5071.87257,0.01857
5073.80104,0.01151
5075.72951,0.00117
5077.65798,0.00367
5079.58645,0.01738
5081.51492,0.02472
5083.44339,0.02140
5085.37185,0.01316
5087.30032,0.00990
5089.22879,0.01537
5091.15726,0.02202
5093.08573,0.02464
5095.01420,0.01772
5096.94267,0.00353
5098.87113,-0.00220
5100.79960,-0.00217
5102.72807,-0.00683
5104.65654,-0.00906
5106.58501,-0.00705
5108.51348,-0.00166
5110.44195,0.00835
5112.37042,0.01537
5114.29888,0.01287
5116.22735,-0.00185
5118.15582,-0.01918
5120.08429,-0.02178
5122.01276,-0.00901
5123.94123,0.00820
5125.86970,0.01761
5127.79816,0.01376
5129.72663,0.00653
5131.65510,0.00534
5133.58357,0.01060
5135.51204,0.01705
5137.44051,0.02142
5139.36898,0.02338
5141.29745,0.01311
5143.22591,-0.00417
5145.15438,-0.00362
5147.08285,0.00877
5149.01132,0.00820
5150.93979,-0.00391
5152.86826,-0.00801
5154.79673,0.00303
5156.72519,0.01407
5158.65366,0.01927
5160.58213,0.02769
5162.51060,0.03560
5164.43907,0.03574
5166.36754,0.02767
5168.29601,0.02038
5170.22448,0.01895
5172.15294,0.01860
5174.08141,0.02075
5176.00988,0.01713
5177.93835,0.00688
5179.86682,0.00732
5181.79529,0.01033
5183.72376,0.00354
5185.65222,-0.00109
5187.58069,0.00459
5189.50916,0.01447
5191.43763,0.01208
5193.36610,-0.00692
5195.29457,-0.01942
5197.22304,-0.01280
5199.15151,0.00392
5201.07997,0.01904
5203.00844,0.02565
5204.93691,0.02426
5206.86538,0.01915
5208.79385,0.01192
5210.72232,-0.00043
5212.65079,-0.01526
5214.57925,-0.02240
5216.50772,-0.01475
5218.43619,0.00134
5220.36466,0.00631
5222.29313,0.00062
5224.22160,0.00195
5226.15007,0.00822
5228.07854,0.01301
5230.00700,0.01951
5231.93547,0.02359
5233.86394,0.02779
5235.79241,0.03235
5237.72088,0.02304
5239.64935,0.00578
5241.57782,0.00264
5243.50628,0.01266
5245.43475,0.01977
5247.36322,0.02051
5249.29169,0.01971
5251.22016,0.01572
5253.14863,0.00800
5255.07710,0.00762
5257.00556,0.01500
5258.93403,0.01748
5260.86250,0.01735
5262.79097,0.01777
5264.71944,0.01496
5266.64791,0.01349
5268.57638,0.01770
5270.50485,0.02244
5272.43331,0.02195
5274.36178,0.01901
5276.29025,0.01967
5278.21872,0.02281
5280.14719,0.01871
5282.07566,0.00846
5284.00413,0.00365
5285.93259,0.00038
5287.86106,-0.00892
5289.78953,-0.01404
5291.71800,-0.00472
5293.64647,0.01229
5295.57494,0.02409
5297.50341,0.02789
5299.43188,0.02743
5301.36034,0.02354
5303.28881,0.02682
5305.21728,0.03822
5307.14575,0.03666
5309.07422,0.02256
5311.00269,0.01844
5312.93116,0.02330
5314.85962,0.02546
5316.78809,0.02347
5318.71656,0.01670
5320.64503,0.01627
5322.57350,0.02596
5324.50197,0.02966
5326.43044,0.03302
5328.35891,0.04257
5330.28737,0.04234
5332.21584,0.03577
5334.14431,0.04150
5336.07278,0.05343
5338.00125,0.04250
5339.92972,0.01631
5341.85819,0.01658
5343.78665,0.03549
5345.71512,0.03627
5347.64359,0.02929
5349.57206,0.04054
5351.50053,0.05775
5353.42900,0.05553
5355.35747,0.04002
5357.28594,0.02719
5359.21440,0.01027
5361.14287,-0.00222
5363.07134,0.00404
5364.99981,0.01925
5366.92828,0.03135
5368.85675,0.03113
5370.78522,0.01836
5372.71368,0.01380
5374.64215,0.01693
5376.57062,0.01179
5378.49909,0.00454
5380.42756,0.00516
5382.35603,0.02391
5384.28450,0.05163
5386.21297,0.06125
5388.14143,0.04834
5390.06990,0.02500
5391.99837,0.00564
5393.92684,0.00615
5395.85531,0.02640
5397.78378,0.03848
5399.71225,0.02377
5401.64071,0.00209
5403.56918,-0.00257
5405.49765,0.00366
5407.42612,0.00822
5409.35459,0.00809
5411.28306,0.00519
5413.21153,0.00584
5415.13999,0.00784
5417.06846,0.01372
5418.99693,0.02874
5420.92540,0.04159
5422.85387,0.04160
5424.78234,0.03275
5426.71081,0.02604
5428.63928,0.03252
5430.56774,0.04617
5432.49621,0.04708
5434.42468,0.03232
5436.35315,0.02145
5438.28162,0.02416
5440.21009,0.02399
5442.13856,0.01780
5444.06702,0.02404
5445.99549,0.03236
5447.92396,0.03020
5449.85243,0.03731
5451.78090,0.04665
5453.70937,0.04299
5455.63784,0.03503
5457.56631,0.02003
5459.49477,0.00696
5461.42324,0.02298
5463.35171,0.05313
5465.28018,0.06074
5467.20865,0.04025
5469.13712,0.01119
5471.06559,-0.00676
5472.99405,-0.00548
5474.92252,0.01404
5476.85099,0.03091
5478.77946,0.03324
5480.70793,0.03624
5482.63640,0.04263
5484.56487,0.04445
5486.49334,0.04826
5488.42180,0.05538
5490.35027,0.05349
5492.27874,0.04501
5494.20721,0.03331
5496.13568,0.01295
5498.06415,-0.00935
5499.99262,-0.02139
5501.92108,-0.01545
5503.84955,0.00549
5505.77802,0.02406
5507.70649,0.03605
5509.63496,0.04770
5511.56343,0.04601
5513.49190,0.02372
5515.42037,-0.00401
5517.34883,-0.01342
5519.27730,0.00434
5521.20577,0.02443
5523.13424,0.01789
5525.06271,-0.00304
5526.99118,-0.00001
5528.91965,0.02747
5530.84811,0.04849
5532.77658,0.05024
5534.70505,0.04148
5536.63352,0.03274
5538.56199,0.03095
5540.49046,0.03815
5542.41893,0.04302
5544.34740,0.03350
5546.27586,0.02324
5548.20433,0.01733
5550.13280,-0.00020
5552.06127,-0.01934
5553.98974,-0.02365
5555.91821,-0.01467
5557.84668,0.00739
5559.77514,0.02660
5561.70361,0.02296
5563.63208,0.01675
5565.56055,0.02784
5567.48902,0.02978
5569.41749,0.02151
5571.34596,0.02853
5573.27443,0.03118
5575.20289,0.01376
5577.13136,0.00368
5579.05983,0.01242
5580.98830,0.02341
5582.91677,0.03231
5584.84524,0.04931
5586.77371,0.05817
5588.70217,0.04145
5590.63064,0.02445
5592.55911,0.02541
5594.48758,0.02744
5596.41605,0.02771
5598.34452,0.03191
5600.27299,0.03323
5602.20145,0.02789
5604.12992,0.01600
5606.05839,0.00750
5607.98686,0.00870
5609.91533,0.00783
5611.84380,0.00965
5613.77227,0.02859
5615.70074,0.04105
5617.62920,0.02396
5619.55767,0.00050
5621.48614,0.00157
5623.41461,0.02527
5625.34308,0.04629
5627.27155,0.04360
5629.20002,0.02172
5631.12848,-0.00020
5633.05695,-0.01133
5634.98542,-0.00276
5636.91389,0.02061
5638.84236,0.03068
5640.77083,0.02590
5642.69930,0.02999
5644.62777,0.04501
5646.55623,0.05300
5648.48470,0.04552
5650.41317,0.04073
5652.34164,0.04762
5654.27011,0.04790
5656.19858,0.04050
5658.12705,0.04353
5660.05551,0.05401
5661.98398,0.05423
5663.91245,0.04754
5665.84092,0.04822
5667.76939,0.05298
5669.69786,0.05209
5671.62633,0.04656
5673.55480,0.04393
5675.48326,0.04026
5677.41173,0.03115
5679.34020,0.03080
5681.26867,0.03044
5683.19714,0.01660
5685.12561,0.01665
5687.05408,0.03452
5688.98254,0.04050
5690.91101,0.03764
5692.83948,0.04498
5694.76795,0.05863
5696.69642,0.06663
5698.62489,0.05548
5700.55336,0.02923
5702.48183,0.01665
5704.41029,0.02314
5706.33876,0.03387
5708.26723,0.04008
5710.19570,0.03668
5712.12417,0.03089
5714.05264,0.03335
5715.98111,0.04691
5717.90957,0.05226
5719.83804,0.02800
5721.76651,0.00653
5723.69498,0.01248
5725.62345,0.01977
5727.55192,0.02157
5729.48039,0.03298
5731.40886,0.04255
5733.33732,0.03739
5735.26579,0.03149
5737.19426,0.03892
5739.12273,0.05774
5741.05120,0.07606
5742.97967,0.07629
5744.90814,0.05940
5746.83660,0.03454
5748.76507,0.01009
5750.69354,0.00161
5752.62201,0.00932
5754.55048,0.01825
5756.47895,0.02845
5758.40742,0.04552
5760.33588,0.05740
5762.26435,0.04473
5764.19282,0.01378
5766.12129,-0.00611
5768.04976,-0.00640
5769.97823,-0.00014
5771.90670,0.00820
5773.83517,0.01599
5775.76363,0.02199
5777.69210,0.03229
5779.62057,0.04279
5781.54904,0.04165
5783.47751,0.02724
5785.40598,0.00825
5787.33445,-0.00207
5789.26291,0.00378
5791.19138,0.01807
5793.11985,0.02829
5795.04832,0.03412
5796.97679,0.04894
5798.90526,0.06800
5800.83373,0.06271
5802.76220,0.03572
5804.69066,0.02396
5806.61913,0.03838
5808.54760,0.04779
5810.47607,0.03823
5812.40454,0.03575
5814.33301,0.04467
5816.26148,0.04629
5818.18994,0.04237
5820.11841,0.03772
5822.04688,0.03094
5823.97535,0.03044
5825.90382,0.04444
5827.83229,0.05946
5829.76076,0.05738
5831.68923,0.03282
5833.61769,-0.00135
5835.54616,-0.00648
5837.47463,0.02806
5839.40310,0.05718
5841.33157,0.05678
5843.26004,0.05370
5845.18851,0.04782
5847.11697,0.03318
5849.04544,0.03414
5850.97391,0.04423
5852.90238,0.04726
5854.83085,0.05623
5856.75932,0.07581
5858.68779,0.08871
5860.61626,0.07677
5862.54472,0.04729
5864.47319,0.02497
5866.40166,0.01474
5868.33013,0.01173
5870.25860,0.01663
5872.18707,0.01816
5874.11554,0.02537
5876.04400,0.05666
5877.97247,0.07110
5879.90094,0.02620
5881.82941,-0.02763
5883.75788,-0.02872
5885.68635,0.00427
5887.61482,0.03019
5889.54329,0.03197
5891.47175,0.01194
5893.40022,0.00087
5895.32869,0.02362
5897.25716,0.05528
5899.18563,0.06523
5901.11410,0.05317
5903.04257,0.03879
5904.97103,0.04211
5906.89950,0.04053
5908.82797,0.02930
5910.75644,0.04657
5912.68491,0.07532
5914.61338,0.06866
5916.54185,0.04425
5918.47032,0.03745
5920.39878,0.03815
5922.32725,0.03952
5924.25572,0.05061
5926.18419,0.06355
5928.11266,0.06485
5930.04113,0.04973
5931.96960,0.03029
5933.89806,0.03308
5935.82653,0.05474
5937.75500,0.05893
5939.68347,0.05153
5941.61194,0.05047
5943.54041,0.03996
5945.46888,0.02363
5947.39734,0.01097
5949.32581,-0.01048
5951.25428,-0.01043
5953.18275,0.03041
5955.11122,0.04948
5957.03969,0.04432
5958.96816,0.05792
5960.89663,0.05752
5962.82509,0.03942
5964.75356,0.03295
5966.68203,0.02846
5968.61050,0.03275
5970.53897,0.04987
5972.46744,0.05778
5974.39591,0.05392
5976.32437,0.05273
5978.25284,0.05473
5980.18131,0.05030
5982.10978,0.04356
5984.03825,0.03798
5985.96672,0.03822
5987.89519,0.04996
5989.82366,0.04644
5991.75212,0.02084
5993.68059,0.00266
5995.60906,-0.00265
5997.53753,-0.00449
5999.46600,-0.00139
6001.39447,-0.00207
6003.32294,-0.01065
6005.25140,-0.01306
6007.17987,0.00106
6009.10834,0.02004
6011.03681,0.01295
6012.96528,-0.00367
6014.89375,0.01130
6016.82222,0.02719
6018.75069,0.00768
6020.67915,-0.00200
6022.60762,0.01602
6024.53609,0.01844
6026.46456,0.01068
6028.39303,0.00614
6030.32150,-0.01943
6032.24997,-0.03852
6034.17843,-0.01129
6036.10690,0.01703
6038.03537,0.01043
6039.96384,-0.00222
6041.89231,0.00012
6043.82078,0.01793
6045.74925,0.01729
6047.67772,-0.00982
6049.60618,-0.02386
6051.53465,0.00146
6053.46312,0.01490
6055.39159,0.01254
6057.32006,0.01794
6059.24853,0.00613
6061.17700,-0.02598
6063.10546,-0.02157
6065.03393,0.02268
6066.96240,0.04851
6068.89087,0.04493
6070.81934,0.02088
6072.74781,-0.02184
6074.67628,-0.03675
6076.60475,0.00298
6078.53321,0.04275
6080.46168,0.04798
6082.39015,0.02532
6084.31862,-0.00514
6086.24709,-0.00854
6088.17556,0.01726
6090.10403,0.03179
6092.03249,0.02040
6093.96096,0.00415
6095.88943,-0.00125
6097.81790,-0.00005
6099.74637,0.00870
6101.67484,0.01483
6103.60331,0.01388
6105.53177,0.00855
6107.46024,-0.01157
6109.38871,-0.02246
6111.31718,-0.00242
6113.24565,0.00883
6115.17412,-0.01425
6117.10259,-0.02555
6119.03106,0.01712
6120.95952,0.07071
6122.88799,0.08227
6124.81646,0.06085
6126.74493,0.05184
6128.67340,0.06593
6130.60187,0.05647
6132.53034,-0.00120
6134.45880,-0.05169
6136.38727,-0.02319
6138.31574,0.05185
6140.24421,0.08235
6142.17268,0.06341
6144.10115,0.04014
6146.02962,0.01644
6147.95809,-0.00725
6149.88655,-0.01038
6151.81502,0.01862
6153.74349,0.05327
6155.67196,0.08055
6157.60043,0.09650
6159.52890,0.06818
6161.45737,0.02604
6163.38583,0.02211
6165.31430,0.03587
6167.24277,0.03869
6169.17124,0.02700
6171.09971,0.00292
6173.02818,-0.02020
6174.95665,-0.02444
6176.88512,-0.01356
6178.81358,0.00555
6180.74205,0.02203
6182.67052,0.01556
6184.59899,0.00840
6186.52746,0.04294
6188.45593,0.09340
6190.38440,0.08795
6192.31286,0.05816
6194.24133,0.07419
6196.16980,0.10825
6198.09827,0.09835
6200.02674,0.05985
6201.95521,0.03569
6203.88368,0.02628
6205.81215,0.03790
6207.74061,0.08059
6209.66908,0.11549
6211.59755,0.12294
6213.52602,0.12824
6215.45449,0.09574
6217.38296,0.01906
6219.31143,-0.00378
6221.23989,0.03307
6223.16836,0.04418
6225.09683,0.04815
6227.02530,0.09273
6228.95377,0.12331
6230.88224,0.11321
6232.81071,0.08656
6234.73918,0.06318
6236.66764,0.05772
6238.59611,0.06574
6240.52458,0.06955
6242.45305,0.05119
6244.38152,0.02371
6246.30999,0.02148
6248.23846,0.03582
6250.16692,0.04169
6252.09539,0.03631
6254.02386,0.02453
6255.95233,0.01756
6257.88080,0.02082
6259.80927,0.02866
6261.73774,0.03573
6263.66621,0.02830
6265.59467,-0.00270
6267.52314,-0.03275
6269.45161,-0.04174
6271.38008,-0.04346
6273.30855,-0.03074
6275.23702,-0.00329
6277.16549,0.00031
6279.09395,-0.01608
6281.02242,-0.02669
6282.95089,-0.01689
6284.87936,0.01129
6286.80783,0.03610
6288.73630,0.04520
6290.66477,0.03916
6292.59323,0.03787
6294.52170,0.03364
6296.45017,0.01508
6298.37864,0.00655
6300.30711,0.01825
6302.23558,0.04286
6304.16405,0.04620
6306.09252,0.01737
6308.02098,0.00221
6309.94945,0.00526
6311.87792,-0.01968
6313.80639,-0.04607
6315.73486,-0.00759
6317.66333,0.07102
6319.59180,0.12087
6321.52026,0.12291
6323.44873,0.09290
6325.37720,0.05482
6327.30567,0.03375
6329.23414,0.03208
6331.16261,0.02589
6333.09108,0.02408
6335.01955,0.03635
6336.94801,0.04698
6338.87648,0.05938
6340.80495,0.06460
6342.73342,0.03645
6344.66189,0.00469
6346.59036,0.00896
6348.51883,0.01272
6350.44729,0.00228
6352.37576,0.00955
6354.30423,0.01167
6356.23270,-0.01356
6358.16117,-0.04211
6360.08964,-0.04198
6362.01811,0.00441
6363.94658,0.08963
6365.87504,0.15218
6367.80351,0.14015
6369.73198,0.10552
6371.66045,0.09254
6373.58892,0.08814
6375.51739,0.07944
6377.44586,0.04075
6379.37432,-0.01053
6381.30279,-0.02771
6383.23126,-0.02154
6385.15973,-0.02057
6387.08820,-0.02638
6389.01667,-0.02394
6390.94514,0.00034
6392.87361,0.03258
6394.80207,0.04937
6396.73054,0.03073
6398.65901,-0.00944
6400.58748,-0.02068
6402.51595,0.01432
6404.44442,0.05627
6406.37289,0.08109
6408.30135,0.07231
6410.22982,0.03175
6412.15829,0.01836
6414.08676,0.02627
6416.01523,0.00565
6417.94370,-0.01428
6419.87217,0.00683
6421.80064,0.05158
6423.72910,0.07317
6425.65757,0.04402
6427.58604,0.01034
6429.51451,-0.00043
6431.44298,-0.02173
6433.37145,-0.02735
6435.29992,0.02009
6437.22838,0.05464
6439.15685,0.01193
6441.08532,-0.03226
6443.01379,0.00602
6444.94226,0.08665
6446.87073,0.12854
6448.79920,0.11699
6450.72766,0.04835
6452.65613,-0.03798
6454.58460,-0.06570
6456.51307,-0.02343
6458.44154,0.04102
6460.37001,0.08312
6462.29848,0.07698
6464.22695,0.03755
6466.15541,0.03317
6468.08388,0.08989
6470.01235,0.10926
6471.94082,0.04558
6473.86929,0.01447
6475.79776,0.03897
6477.72623,0.05007
6479.65469,0.05528
6481.58316,0.06196
6483.51163,0.04030
6485.44010,0.02468
6487.36857,0.06017
6489.29704,0.10000
6491.22551,0.08177
6493.15398,0.03710
6495.08244,0.00815
6497.01091,-0.00056
6498.93938,0.02566
6500.86785,0.04891
6502.79632,0.03454
6504.72479,0.04439
6506.65326,0.07296
6508.58172,0.05472
6510.51019,0.02679
6512.43866,0.02879
6514.36713,0.00722
6516.29560,-0.03982
6518.22407,-0.05177
6520.15254,-0.00106
6522.08101,0.08192
6524.00947,0.14038
6525.93794,0.13965
6527.86641,0.10615
6529.79488,0.09091
6531.72335,0.09075
6533.65182,0.06238
6535.58029,0.01625
6537.50875,0.01356
6539.43722,0.07305
6541.36569,0.13172
6543.29416,0.13484
6545.22263,0.10406
6547.15110,0.08004
6549.07957,0.06391
6551.00804,0.03083
6552.93650,-0.01974
6554.86497,-0.03532
6556.79344,-0.01938
6558.72191,-0.02587
6560.65038,-0.03162
6562.57885,0.00909
6564.50732,0.08303
6566.43578,0.11128
6568.36425,0.06941
6570.29272,0.05646
6572.22119,0.08362
6574.14966,0.07202
6576.07813,0.03852
6578.00660,0.04217
6579.93507,0.07999
6581.86353,0.09199
6583.79200,0.06213
6585.72047,0.03236
6587.64894,-0.00550
6589.57741,-0.04440
6591.50588,-0.03704
6593.43435,-0.00658
6595.36281,-0.00604
6597.29128,-0.01523
6599.21975,-0.01625
6601.14822,-0.01713
6603.07669,-0.00672
6605.00516,0.03181
6606.93363,0.08057
6608.86210,0.09056
6610.79056,0.07720
6612.71903,0.08016
6614.64750,0.07150
6616.57597,0.03242
6618.50444,0.00809
6620.43291,0.02560
6622.36138,0.04805
6624.28984,0.05057
6626.21831,0.04291
6628.14678,0.03914
6630.07525,0.05981
6632.00372,0.07917
6633.93219,0.07478
6635.86066,0.08706
6637.78912,0.10858
6639.71759,0.10042
6641.64606,0.09107
6643.57453,0.09027
6645.50300,0.07056
6647.43147,0.04811
6649.35994,0.05964
6651.28841,0.09429
6653.21687,0.10336
6655.14534,0.04682
6657.07381,-0.02883
6659.00228,-0.02899
6660.93075,0.01888
6662.85922,0.04338
6664.78769,0.02725
6666.71615,0.00278
6668.64462,0.01527
6670.57309,0.05874
6672.50156,0.09224
6674.43003,0.06082
6676.35850,-0.01793
6678.28697,-0.05302
6680.21544,-0.01123
6682.14390,0.05322
6684.07237,0.08200
6686.00084,0.07835
6687.92931,0.05816
6689.85778,0.03646
6691.78625,0.03759
6693.71472,0.04902
6695.64318,0.05253
6697.57165,0.02347
6699.50012,-0.03084
6701.42859,-0.03775
6703.35706,0.01162
6705.28553,0.02961
6707.21400,-0.01026
6709.14247,-0.04377
6711.07093,-0.03176
6712.99940,-0.00540
6714.92787,0.00721
6716.85634,0.00954
6718.78481,-0.00122
6720.71328,-0.00126
6722.64175,0.03862
6724.57021,0.07145
6726.49868,0.06308
6728.42715,0.06270
6730.35562,0.09202
6732.28409,0.08185
6734.21256,0.01421
6736.14103,-0.04918
6738.06950,-0.07727
6739.99796,-0.09694
6741.92643,-0.10119
6743.85490,-0.06785
6745.78337,-0.05797
6747.71184,-0.07643
6749.64031,-0.05046
6751.56878,0.00804
6753.49724,0.03415
6755.42571,0.03881
6757.35418,0.08200
6759.28265,0.12296
6761.21112,0.07716
6763.13959,0.02650
6765.06806,0.02229
6766.99653,0.02660
6768.92499,0.04530
6770.85346,0.03737
6772.78193,-0.03915
6774.71040,-0.11250
6776.63887,-0.10027
6778.56734,-0.02418
6780.49581,0.02184
6782.42427,0.01400
6784.35274,0.00265
6786.28121,-0.01431
6788.20968,-0.02550
6790.13815,-0.01067
6792.06662,-0.03080
6793.99509,-0.06794
6795.92355,-0.05987
6797.85202,-0.05021
6799.78049,-0.03600
6801.70896,0.04253
6803.63743,0.14630
6805.56590,0.18203
6807.49437,0.15205
6809.42284,0.11875
6811.35130,0.09572
6813.27977,0.04251
6815.20824,-0.01125
6817.13671,-0.01279
6819.06518,-0.01500
6820.99365,-0.04495
6822.92212,-0.02727
6824.85058,0.06970
6826.77905,0.13186
6828.70752,0.11596
6830.63599,0.09548
6832.56446,0.08114
6834.49293,0.03663
6836.42140,-0.00580
6838.34987,-0.00270
6840.27833,0.03007
6842.20680,0.05821
6844.13527,0.04428
6846.06374,-0.00133
6847.99221,-0.02630
6849.92068,-0.01991
6851.84915,0.00624
6853.77761,0.03205
6855.70608,0.03126
6857.63455,0.03241
6859.56302,0.05950
6861.49149,0.09478
6863.41996,0.12316
6865.34843,0.13087
6867.27690,0.10393
6869.20536,0.08441
6871.13383,0.10114
6873.06230,0.09672
6874.99077,0.05559
6876.91924,0.01809
6878.84771,-0.01765
6880.77618,-0.00419
6882.70464,0.06167
6884.63311,0.07429
6886.56158,0.03517
6888.49005,0.03191
6890.41852,0.07423
6892.34699,0.09150
6894.27546,0.05186
6896.20393,-0.00259
6898.13239,-0.02133
6900.06086,-0.00284
6901.98933,0.01616
6903.91780,0.01259
6905.84627,-0.01426
6907.77474,-0.00725
6909.70321,0.03957
6911.63167,0.07129
6913.56014,0.09986
6915.48861,0.14548
6917.41708,0.17655
6919.34555,0.14713
6921.27402,0.06725
6923.20249,0.01117
6925.13096,-0.00130
6927.05942,0.00070
6928.98789,0.00070
6930.91636,0.00169
6932.84483,0.00887
6934.77330,0.04151
6936.70177,0.08362
6938.63024,0.09951
6940.55870,0.11090
6942.48717,0.14044
6944.41564,0.14052
6946.34411,0.09209
6948.27258,0.04945
6950.20105,0.04600
6952.12952,0.03430
6954.05799,0.00516
6955.98645,-0.03178
6957.91492,-0.08432
6959.84339,-0.09075
6961.77186,-0.00849
6963.70033,0.08212
6965.62880,0.08091
6967.55727,-0.02224
6969.48573,-0.12875
6971.41420,-0.19655
6973.34267,-0.22042
6975.27114,-0.10010
6977.19961,0.03680
6979.12808,0.01083
6981.05655,-0.06088
6982.98501,-0.05931
6984.91348,-0.05394
6986.84195,-0.08327
6988.77042,-0.05302
6990.69889,0.02184
6992.62736,0.04539
6994.55583,0.01560
6996.48430,-0.02830
6998.41276,-0.02964
7000.34123,0.02882
7002.26970,0.06949
7004.19817,0.08131
7006.12664,0.05951
7008.05511,-0.01756
7009.98358,-0.03392
7011.91204,0.00980
7013.84051,0.01871
7015.76898,0.04536
7017.69745,0.12729
7019.62592,0.18294
7021.55439,0.13491
7023.48286,0.05362
7025.41133,0.07854
7027.33979,0.15528
7029.26826,0.16727
7031.19673,0.14949
7033.12520,0.14415
7035.05367,0.13092
7036.98214,0.12283
7038.91061,0.14320
7040.83907,0.17105
7042.76754,0.15807
7044.69601,0.13726
7046.62448,0.15263
7048.55295,0.14051
7050.48142,0.11021
7052.40989,0.09599
7054.33836,0.09939
7056.26682,0.14132
7058.19529,0.16042
7060.12376,0.10323
7062.05223,0.04701
7063.98070,0.03677
7065.90917,0.02638
7067.83764,-0.02389
7069.76610,-0.06335
7071.69457,-0.04379
7073.62304,-0.00625
7075.55151,0.02802
7077.47998,0.04420
7079.40845,0.02292
7081.33692,-0.00088
7083.26539,0.01509
7085.19385,0.04762
7087.12232,0.07007
7089.05079,0.06725
7090.97926,0.07609
7092.90773,0.13344
7094.83620,0.14702
7096.76467,0.03970
7098.69313,-0.04470
7100.62160,0.01068
7102.55007,0.06156
7104.47854,-0.01191
7106.40701,-0.14683
7108.33548,-0.15232
7110.26395,-0.03167
7112.19242,0.06062
7114.12088,0.07509
7116.04935,0.06167
7117.97782,0.04162
7119.90629,0.03352
7121.83476,0.01041
7123.76323,-0.05701
7125.69170,-0.09886
7127.62016,-0.08947
7129.54863,-0.08986
7131.47710,-0.05410
7133.40557,0.04053
7135.33404,0.06031
7137.26251,-0.01726
7139.19098,-0.06518
7141.11944,-0.05671
7143.04791,-0.03740
7144.97638,0.02288
7146.90485,0.09337
7148.83332,0.15042
7150.76179,0.21222
7152.69026,0.16565
7154.61873,-0.00701
7156.54719,-0.13499
7158.47566,-0.15660
7160.40413,-0.06453
7162.33260,0.04714
7164.26107,0.05324
7166.18954,0.02677
7168.11801,0.08054
7170.04647,0.14167
7171.97494,0.11382
7173.90341,0.06801
7175.83188,0.07525
7177.76035,0.08979
7179.68882,0.05286
7181.61729,-0.01705
7183.54576,-0.04733
7185.47422,0.02809
7187.40269,0.10747
7189.33116,0.09217
7191.25963,0.05574
7193.18810,0.09387
7195.11657,0.18682
7197.04504,0.21816
7198.97350,0.13143
7200.90197,0.08361
7202.83044,0.16275
7204.75891,0.25829
7206.68738,0.17816
7208.61585,-0.03548
7210.54432,-0.22139
7212.47279,-0.23132
7214.40125,-0.07487
7216.32972,0.07969
7218.25819,0.09591
7220.18666,0.06585
7222.11513,0.05947
7224.04360,0.03478
7225.97207,0.03092
7227.90053,0.09452
7229.82900,0.14555
7231.75747,0.10660
7233.68594,0.05650
7235.61441,0.08119
7237.54288,0.11550
7239.47135,0.06017
7241.39982,-0.03093
7243.32828,-0.01815
7245.25675,0.07296
7247.18522,0.10089
7249.11369,0.05605
7251.04216,0.00186
7252.97063,0.00274
7254.89910,0.05310
7256.82756,0.09519
7258.75603,0.15020
7260.68450,0.24687
7262.61297,0.31189
7264.54144,0.25285
7266.46991,0.13320
7268.39838,0.07590
7270.32685,0.09147
7272.25531,0.08117
7274.18378,0.01587
7276.11225,0.01116
7278.04072,0.04124
7279.96919,-0.03103
7281.89766,-0.15272
7283.82613,-0.16153
7285.75459,-0.10774
7287.68306,-0.04988
7289.61153,0.03235
7291.54000,0.15061
7293.46847,0.22120
7295.39694,0.13938
7297.32541,-0.06412
7299.25387,-0.19531
7301.18234,-0.13834
7303.11081,-0.01569
7305.03928,0.00451
7306.96775,-0.03105
7308.89622,-0.04025
7310.82469,-0.04962
7312.75316,-0.09105
7314.68162,-0.10922
7316.61009,-0.01229
7318.53856,0.09040
7320.46703,0.12666
7322.39550,0.20522
7324.32397,0.23488
7326.25244,0.10093
7328.18090,-0.00270
7330.10937,0.06312
7332.03784,0.09955
7333.96631,0.07293
7335.89478,0.05070
7337.82325,0.03711
7339.75172,0.08358
7341.68019,0.14137
7343.60865,0.11200
7345.53712,0.12421
7347.46559,0.22721
7349.39406,0.26839
7351.32253,0.22639
7353.25100,0.15847
7355.17947,0.06820
7357.10793,0.04717
7359.03640,0.15726
7360.96487,0.22438
7362.89334,0.17173
7364.82181,0.07787
7366.75028,0.05653
7368.67875,0.11023
7370.60722,0.11910
7372.53568,0.09339
7374.46415,0.07780
7376.39262,0.03292
7378.32109,-0.05850
7380.24956,-0.17046
7382.17803,-0.20455
7384.10650,-0.10691
7386.03496,0.04385
7387.96343,0.16812
7389.89190,0.22287
7391.82037,0.18511
7393.74884,0.07834
7395.67731,-0.02085
7397.60578,-0.07939
7399.53425,-0.07326
7401.46271,-0.00430
7403.39118,0.04809
7405.31965,0.02994
7407.24812,0.02072
7409.17659,0.09705
7411.10506,0.18812
7413.03353,0.18688
7414.96199,0.15334
7416.89046,0.19753
7418.81893,0.29875
7420.74740,0.24585
7422.67587,0.06365
7424.60434,-0.02963
7426.53281,-0.02916
7428.46128,-0.02784
7430.38974,0.02014
7432.31821,0.12882
7434.24668,0.17077
7436.17515,0.11881
7438.10362,0.12589
7440.03209,0.26182
7441.96056,0.30919
7443.88902,0.18902
7445.81749,0.11518
7447.74596,0.16433
7449.67443,0.24197
7451.60290,0.22041
7453.53137,0.07702
7455.45984,-0.01066
7457.38831,0.03432
7459.31677,0.08552
7461.24524,0.01928
7463.17371,-0.01213
7465.10218,0.06173
7467.03065,0.11802
7468.95912,0.12211
7470.88759,0.11722
7472.81605,0.04661
7474.74452,-0.00353
7476.67299,0.11695
7478.60146,0.21145
7480.52993,0.09323
7482.45840,-0.02191
7484.38687,-0.06449
7486.31533,-0.07197
7488.24380,0.00982
7490.17227,0.09634
7492.10074,0.11485
7494.02921,0.15153
7495.95768,0.21449
7497.88615,0.22041
