399.19301,1.16195
401.12148,0.82212
403.04995,0.54009
404.97842,0.26264
406.90689,0.09795
408.83536,0.05202
410.76382,0.08455
412.69229,0.04936
414.62076,-0.04143
416.54923,-0.10525
418.47770,-0.17410
420.40617,-0.18750
422.33464,-0.12873
424.26311,-0.10881
426.19157,-0.08089
428.12004,0.03148
430.04851,0.16705
431.97698,0.18925
433.90545,0.12490
435.83392,0.08956
437.76239,0.06316
439.69085,0.00895
441.61932,-0.02760
443.54779,0.01546
445.47626,0.07427
447.40473,0.03322
449.33320,-0.07493
451.26167,-0.11663
453.19013,-0.07154
455.11860,0.00934
457.04707,0.05434
458.97554,0.03979
460.90401,0.03045
462.83248,0.01149
464.76095,-0.01301
466.68942,0.00555
468.61788,0.03127
470.54635,0.07927
472.47482,0.35738
474.40329,0.70879
476.33176,0.50538
478.26023,0.23219
480.18870,0.15011
482.11716,0.13771
484.04563,0.10281
485.97410,0.04949
487.90257,0.03425
489.83104,0.06591
491.75951,0.07352
493.68798,0.05290
495.61645,0.05679
497.54491,0.08054
499.47338,0.07644
501.40185,0.03008
503.33032,-0.01202
505.25879,-0.00816
507.18726,0.01732
509.11573,0.03345
511.04419,0.03396
512.97266,0.01457
514.90113,-0.01512
516.82960,-0.03228
518.75807,-0.01952
520.68654,0.01827
522.61501,0.04032
524.54348,0.02685
526.47194,0.02564
528.40041,0.05095
530.32888,0.06198
532.25735,0.06226
534.18582,0.07658
536.11429,0.08102
538.04276,0.05761
539.97122,0.03307
541.89969,0.02622
543.82816,0.04039
545.75663,0.06410
547.68510,0.08488
549.61357,0.10171
551.54204,0.17074
553.47051,0.26429
555.39897,0.23938
557.32744,0.13306
559.25591,0.07178
561.18438,0.05188
563.11285,0.05381
565.04132,0.06281
566.96979,0.06195
568.89825,0.05449
570.82672,0.04461
572.75519,0.02815
574.68366,0.01894
576.61213,0.03461
578.54060,0.04480
580.46907,0.03473
582.39754,0.01943
584.32600,-0.00157
586.25447,-0.01915
588.18294,-0.01152
590.11141,0.02128
592.03988,0.04909
593.96835,0.04235
595.89682,0.02262
597.82528,0.01822
599.75375,0.01264
601.68222,0.00265
603.61069,0.01030
605.53916,0.01704
607.46763,0.00460
609.39610,0.00157
611.32456,0.01749
613.25303,0.02428
615.18150,0.01491
617.10997,0.01153
619.03844,0.02643
620.96691,0.04157
622.89538,0.03978
624.82385,0.03736
626.75231,0.03889
628.68078,0.02927
630.60925,0.02129
632.53772,0.02118
634.46619,0.01183
636.39466,0.00669
638.32313,0.02996
640.25159,0.06187
642.18006,0.06661
644.10853,0.05556
646.03700,0.04200
647.96547,0.01565
649.89394,0.00036
651.82241,0.01911
653.75088,0.04755
655.67934,0.06130
657.60781,0.05611
659.53628,0.04231
661.46475,0.04079
663.39322,0.05519
665.32169,0.06965
667.25016,0.06640
669.17862,0.04254
671.10709,0.03597
673.03556,0.04133
674.96403,0.04655
676.89250,0.04836
678.82097,0.04106
680.74944,0.02760
682.67791,0.01834
684.60637,0.02065
686.53484,0.03217
688.46331,0.03633
690.39178,0.03034
692.32025,0.03220
694.24872,0.04278
696.17719,0.05020
698.10565,0.04807
700.03412,0.04241
701.96259,0.04582
703.89106,0.05357
705.81953,0.05874
707.74800,0.06030
709.67647,0.05450
711.60494,0.04421
713.53340,0.03185
715.46187,0.02100
717.39034,0.01922
719.31881,0.02446
721.24728,0.02897
723.17575,0.03053
725.10422,0.02986
727.03268,0.03238
728.96115,0.04019
730.88962,0.04552
732.81809,0.04583
734.74656,0.04151
736.67503,0.03535
738.60350,0.03549
740.53197,0.04092
742.46043,0.04236
744.38890,0.03899
746.31737,0.03692
748.24584,0.03563
750.17431,0.03740
752.10278,0.04523
754.03125,0.05214
755.95971,0.05584
757.88818,0.05359
759.81665,0.04545
761.74512,0.04244
763.67359,0.04571
765.60206,0.04699
767.53053,0.04486
769.45900,0.04358
771.38746,0.04218
773.31593,0.04217
775.24440,0.04935
777.17287,0.05842
779.10134,0.06559
781.02981,0.06874
782.95828,0.06449
784.88674,0.06105
786.81521,0.05926
788.74368,0.05193
790.67215,0.04586
792.60062,0.04876
794.52909,0.05916
796.45756,0.06880
798.38602,0.06495
800.31449,0.05263
802.24296,0.04703
804.17143,0.04329
806.09990,0.03927
808.02837,0.04103
809.95684,0.04089
811.88531,0.03966
813.81377,0.04446
815.74224,0.04612
817.67071,0.04766
819.59918,0.05678
821.52765,0.05740
823.45612,0.04536
825.38459,0.03645
827.31305,0.03573
829.24152,0.04022
831.16999,0.05155
833.09846,0.06361
835.02693,0.06515
836.95540,0.05590
838.88387,0.04246
840.81234,0.04061
842.74080,0.05053
844.66927,0.05094
846.59774,0.04581
848.52621,0.04554
850.45468,0.04177
852.38315,0.03582
854.31162,0.03872
856.24008,0.04859
858.16855,0.05092
860.09702,0.04437
862.02549,0.04196
863.95396,0.04556
865.88243,0.04954
867.81090,0.05631
869.73937,0.06386
871.66783,0.06040
873.59630,0.04676
875.52477,0.03741
877.45324,0.03672
879.38171,0.03707
881.31018,0.03657
883.23865,0.03583
885.16711,0.03423
887.09558,0.03635
889.02405,0.04078
890.95252,0.04090
892.88099,0.03693
894.80946,0.03441
896.73793,0.03649
898.66640,0.04054
900.59486,0.04443
902.52333,0.04918
904.45180,0.05467
906.38027,0.05654
908.30874,0.05266
910.23721,0.04646
912.16568,0.04217
914.09414,0.04051
916.02261,0.03907
917.95108,0.04082
919.87955,0.04553
921.80802,0.04604
923.73649,0.04612
925.66496,0.04945
927.59343,0.04985
929.52189,0.04864
931.45036,0.04729
933.37883,0.04452
935.30730,0.04747
937.23577,0.05359
939.16424,0.05357
941.09271,0.04960
943.02117,0.04550
944.94964,0.04206
946.87811,0.04002
948.80658,0.04226
950.73505,0.04987
952.66352,0.05882
954.59199,0.06568
956.52045,0.06592
958.44892,0.05798
960.37739,0.05102
962.30586,0.05272
964.23433,0.05630
966.16280,0.05454
968.09127,0.05175
970.01974,0.04888
971.94820,0.04356
973.87667,0.04235
975.80514,0.04653
977.73361,0.04583
979.66208,0.04118
981.59055,0.04082
983.51902,0.04148
985.44748,0.04036
987.37595,0.03993
989.30442,0.04235
991.23289,0.04809
993.16136,0.05347
995.08983,0.05516
997.01830,0.05102
998.94677,0.04212
1000.87523,0.03680
1002.80370,0.04107
1004.73217,0.04349
1006.66064,0.03314
1008.58911,0.02546
1010.51758,0.03376
1012.44605,0.04851
1014.37451,0.05893
1016.30298,0.06099
1018.23145,0.05814
1020.15992,0.05701
1022.08839,0.05658
1024.01686,0.05194
1025.94533,0.04591
1027.87380,0.04628
1029.80226,0.05205
1031.73073,0.05565
1033.65920,0.05529
1035.58767,0.05665
1037.51614,0.05975
1039.44461,0.05592
1041.37308,0.04670
1043.30154,0.04029
1045.23001,0.03837
1047.15848,0.04064
1049.08695,0.04705
1051.01542,0.05264
1052.94389,0.05346
1054.87236,0.05356
1056.80083,0.05358
1058.72929,0.05267
1060.65776,0.05276
1062.58623,0.05187
1064.51470,0.05030
1066.44317,0.05236
1068.37164,0.05654
1070.30011,0.05484
1072.22857,0.04644
1074.15704,0.03818
1076.08551,0.03468
1078.01398,0.04061
1079.94245,0.05132
1081.87092,0.05450
1083.79939,0.05289
1085.72786,0.05613
1087.65632,0.06192
1089.58479,0.06253
1091.51326,0.05339
1093.44173,0.04063
1095.37020,0.03729
1097.29867,0.04135
1099.22714,0.04108
1101.15560,0.03898
1103.08407,0.04230
1105.01254,0.04958
1106.94101,0.05746
1108.86948,0.06083
1110.79795,0.05686
1112.72642,0.04998
1114.65489,0.04413
1116.58335,0.04281
1118.51182,0.04715
1120.44029,0.05012
1122.36876,0.04673
1124.29723,0.04113
1126.22570,0.03855
1128.15417,0.03989
1130.08263,0.04374
1132.01110,0.04768
1133.93957,0.04810
1135.86804,0.04570
1137.79651,0.04421
1139.72498,0.04386
1141.65345,0.04651
1143.58191,0.05186
1145.51038,0.05340
1147.43885,0.05085
1149.36732,0.04901
1151.29579,0.04788
1153.22426,0.04573
1155.15273,0.04327
1157.08120,0.04279
1159.00966,0.04843
1160.93813,0.05683
1162.86660,0.05564
1164.79507,0.04793
1166.72354,0.04704
1168.65201,0.05103
1170.58048,0.05313
1172.50894,0.05352
1174.43741,0.05419
1176.36588,0.05673
1178.29435,0.05838
1180.22282,0.05704
1182.15129,0.05692
1184.07976,0.05846
1186.00823,0.05838
1187.93669,0.05807
1189.86516,0.05775
1191.79363,0.05400
1193.72210,0.04961
1195.65057,0.05051
1197.57904,0.05230
1199.50751,0.05016
1201.43597,0.05013
1203.36444,0.05439
1205.29291,0.05817
1207.22138,0.05851
1209.14985,0.05496
1211.07832,0.05055
1213.00679,0.04775
1214.93526,0.04683
1216.86372,0.04833
1218.79219,0.05026
1220.72066,0.05142
1222.64913,0.05314
1224.57760,0.05535
1226.50607,0.05599
1228.43454,0.05328
1230.36300,0.05035
1232.29147,0.05080
1234.21994,0.05161
1236.14841,0.05015
1238.07688,0.05040
1240.00535,0.05289
1241.93382,0.05241
1243.86229,0.04976
1245.79075,0.04870
1247.71922,0.04968
1249.64769,0.05182
1251.57616,0.05206
1253.50463,0.05101
1255.43310,0.05179
1257.36157,0.05126
1259.29003,0.04679
1261.21850,0.04261
1263.14697,0.04123
1265.07544,0.03975
1267.00391,0.03851
1268.93238,0.04180
1270.86085,0.04921
1272.78932,0.05315
1274.71778,0.04916
1276.64625,0.04555
1278.57472,0.04912
1280.50319,0.05342
1282.43166,0.05367
1284.36013,0.05208
1286.28860,0.04919
1288.21706,0.04811
1290.14553,0.05147
1292.07400,0.05305
1294.00247,0.04999
1295.93094,0.04734
1297.85941,0.04530
1299.78788,0.04068
1301.71634,0.03322
1303.64481,0.02543
1305.57328,0.02497
1307.50175,0.03570
1309.43022,0.04760
1311.35869,0.05130
1313.28716,0.05027
1315.21563,0.05085
1317.14409,0.05454
1319.07256,0.05777
1321.00103,0.05703
1322.92950,0.05536
1324.85797,0.05293
1326.78644,0.04931
1328.71491,0.04855
1330.64337,0.04730
1332.57184,0.04277
1334.50031,0.03951
1336.42878,0.03983
1338.35725,0.04383
1340.28572,0.04699
1342.21419,0.04857
1344.14266,0.05164
1346.07112,0.05143
1347.99959,0.04999
1349.92806,0.05150
1351.85653,0.04963
1353.78500,0.04425
1355.71347,0.04247
1357.64194,0.04463
1359.57040,0.04758
1361.49887,0.05167
1363.42734,0.05445
1365.35581,0.05297
1367.28428,0.05250
1369.21275,0.05631
1371.14122,0.06105
1373.06969,0.06230
1374.99815,0.05964
1376.92662,0.05780
1378.85509,0.05867
1380.78356,0.05990
1382.71203,0.06013
1384.64050,0.06002
1386.56897,0.05905
1388.49743,0.05745
1390.42590,0.05713
1392.35437,0.05743
1394.28284,0.05891
1396.21131,0.06231
1398.13978,0.06399
1400.06825,0.06180
1401.99672,0.05799
1403.92518,0.05383
1405.85365,0.05035
1407.78212,0.05002
1409.71059,0.05118
1411.63906,0.05207
1413.56753,0.05441
1415.49600,0.05944
1417.42446,0.06656
1419.35293,0.06848
1421.28140,0.06348
1423.20987,0.06036
1425.13834,0.05858
1427.06681,0.05766
1428.99528,0.05758
1430.92375,0.05701
1432.85221,0.05832
1434.78068,0.06224
1436.70915,0.06643
1438.63762,0.06705
1440.56609,0.06518
1442.49456,0.06180
1444.42303,0.05731
1446.35149,0.05620
1448.27996,0.06001
1450.20843,0.06239
1452.13690,0.06141
1454.06537,0.06126
1455.99384,0.06349
1457.92231,0.06429
1459.85077,0.06388
1461.77924,0.06494
1463.70771,0.06527
1465.63618,0.06412
1467.56465,0.06500
1469.49312,0.06991
1471.42159,0.07774
1473.35006,0.08070
1475.27852,0.07551
1477.20699,0.07037
1479.13546,0.06763
1481.06393,0.06614
1482.99240,0.06397
1484.92087,0.06340
1486.84934,0.06798
1488.77780,0.07391
1490.70627,0.07359
1492.63474,0.07148
1494.56321,0.07262
1496.49168,0.07354
1498.42015,0.06755
1500.34862,0.05980
1502.27709,0.05820
1504.20555,0.06466
1506.13402,0.08118
1508.06249,0.08661
1509.99096,0.07438
1511.91943,0.06808
1513.84790,0.07025
1515.77637,0.07638
1517.70483,0.07995
1519.63330,0.08361
1521.56177,0.08837
1523.49024,0.08271
1525.41871,0.07545
1527.34718,0.07372
1529.27565,0.07269
1531.20412,0.07202
1533.13258,0.07205
1535.06105,0.06962
1536.98952,0.06851
1538.91799,0.07592
1540.84646,0.08854
1542.77493,0.08566
1544.70340,0.07698
1546.63186,0.07036
1548.56033,0.06665
1550.48880,0.06621
1552.41727,0.06940
1554.34574,0.07458
1556.27421,0.07984
1558.20268,0.08522
1560.13115,0.07933
1562.05961,0.07061
1563.98808,0.06779
1565.91655,0.06863
1567.84502,0.07297
1569.77349,0.07632
1571.70196,0.07185
1573.63043,0.06727
1575.55889,0.06765
1577.48736,0.06877
1579.41583,0.06612
1581.34430,0.06196
1583.27277,0.05755
1585.20124,0.05488
1587.12971,0.05583
1589.05818,0.05782
1590.98664,0.05970
1592.91511,0.06186
1594.84358,0.06092
1596.77205,0.05838
1598.70052,0.05837
1600.62899,0.05950
1602.55746,0.06006
1604.48592,0.06022
1606.41439,0.06029
1608.34286,0.05949
1610.27133,0.05804
1612.19980,0.05924
1614.12827,0.06411
1616.05674,0.06803
1617.98521,0.06450
1619.91367,0.06167
1621.84214,0.06621
1623.77061,0.07253
1625.69908,0.07156
1627.62755,0.06643
1629.55602,0.06254
1631.48449,0.06344
1633.41295,0.07067
1635.34142,0.08019
1637.26989,0.07884
1639.19836,0.07308
1641.12683,0.07085
1643.05530,0.07168
1644.98377,0.07624
1646.91223,0.08288
1648.84070,0.08401
1650.76917,0.08541
1652.69764,0.08957
1654.62611,0.08039
1656.55458,0.06999
1658.48305,0.06645
1660.41152,0.06605
1662.33998,0.06678
1664.26845,0.06785
1666.19692,0.06898
1668.12539,0.07185
1670.05386,0.07590
1671.98233,0.07747
1673.91080,0.07716
1675.83926,0.07241
1677.76773,0.06692
1679.69620,0.06747
1681.62467,0.07386
1683.55314,0.08279
1685.48161,0.08093
1687.41008,0.07186
1689.33855,0.06706
1691.26701,0.06636
1693.19548,0.06806
1695.12395,0.07391
1697.05242,0.08337
1698.98089,0.08735
1700.90936,0.08061
1702.83783,0.07512
1704.76629,0.07632
1706.69476,0.07567
1708.62323,0.07032
1710.55170,0.06632
1712.48017,0.06684
1714.40864,0.07180
1716.33711,0.07645
1718.26558,0.07417
1720.19404,0.07142
1722.12251,0.07044
1724.05098,0.06758
1725.97945,0.06421
1727.90792,0.06320
1729.83639,0.06411
1731.76486,0.06788
1733.69332,0.07381
1735.62179,0.07351
1737.55026,0.07051
1739.47873,0.06960
1741.40720,0.06906
1743.33567,0.06771
1745.26414,0.06805
1747.19261,0.07248
1749.12107,0.07714
1751.04954,0.07464
1752.97801,0.06750
1754.90648,0.06327
1756.83495,0.06475
1758.76342,0.06938
1760.69189,0.07264
1762.62035,0.07167
1764.54882,0.06823
1766.47729,0.06683
1768.40576,0.06923
1770.33423,0.07558
1772.26270,0.07889
1774.19117,0.07308
1776.11964,0.06769
1778.04810,0.06598
1779.97657,0.06629
1781.90504,0.06759
1783.83351,0.06774
1785.76198,0.06703
1787.69045,0.06754
1789.61892,0.06924
1791.54738,0.07136
1793.47585,0.07332
1795.40432,0.07459
1797.33279,0.07567
1799.26126,0.07672
1801.18973,0.07466
1803.11820,0.06883
1805.04666,0.06543
1806.97513,0.06743
1808.90360,0.07091
1810.83207,0.07101
1812.76054,0.06862
1814.68901,0.06703
1816.61748,0.06844
1818.54595,0.07340
1820.47441,0.07495
1822.40288,0.07020
1824.33135,0.06732
1826.25982,0.06970
1828.18829,0.07263
1830.11676,0.07208
1832.04523,0.06704
1833.97369,0.06349
1835.90216,0.06339
1837.83063,0.06439
1839.75910,0.06637
1841.68757,0.06966
1843.61604,0.07287
1845.54451,0.07374
1847.47298,0.07249
1849.40144,0.07081
1851.32991,0.07000
1853.25838,0.07066
1855.18685,0.07087
1857.11532,0.06873
1859.04379,0.06660
1860.97226,0.06739
1862.90072,0.06845
1864.82919,0.06859
1866.75766,0.07126
1868.68613,0.07519
1870.61460,0.07460
1872.54307,0.07029
1874.47154,0.06549
1876.40001,0.06330
1878.32847,0.06531
1880.25694,0.06786
1882.18541,0.06772
1884.11388,0.06607
1886.04235,0.06592
1887.97082,0.06837
1889.89929,0.06961
1891.82775,0.06915
1893.75622,0.07031
1895.68469,0.07059
1897.61316,0.06935
1899.54163,0.06958
1901.47010,0.06985
1903.39857,0.06878
1905.32704,0.06771
1907.25550,0.06715
1909.18397,0.06735
1911.11244,0.06785
1913.04091,0.06728
1914.96938,0.06577
1916.89785,0.06492
1918.82632,0.06583
1920.75478,0.06710
1922.68325,0.06745
1924.61172,0.06735
1926.54019,0.06738
1928.46866,0.06758
1930.39713,0.06784
1932.32560,0.06694
1934.25407,0.06368
1936.18253,0.06118
1938.11100,0.06298
1940.03947,0.06699
1941.96794,0.06965
1943.89641,0.06999
1945.82488,0.06868
1947.75335,0.06551
1949.68181,0.06232
1951.61028,0.06233
1953.53875,0.06486
1955.46722,0.06725
1957.39569,0.06887
1959.32416,0.07030
1961.25263,0.07075
1963.18110,0.06942
1965.10956,0.06809
1967.03803,0.06749
1968.96650,0.06659
1970.89497,0.06604
1972.82344,0.06497
1974.75191,0.06148
1976.68038,0.05742
1978.60884,0.05695
1980.53731,0.06170
1982.46578,0.06592
1984.39425,0.06601
1986.32272,0.06740
1988.25119,0.07106
1990.17966,0.07304
1992.10812,0.07195
1994.03659,0.06910
1995.96506,0.06784
1997.89353,0.06885
1999.82200,0.06985
2001.75047,0.06929
2003.67894,0.06825
2005.60741,0.06774
2007.53587,0.06686
2009.46434,0.06572
2011.39281,0.06506
2013.32128,0.06425
2015.24975,0.06415
2017.17822,0.06634
2019.10669,0.06919
2021.03515,0.07089
2022.96362,0.07015
2024.89209,0.06744
2026.82056,0.06581
2028.74903,0.06426
2030.67750,0.06177
2032.60597,0.06210
2034.53444,0.06575
2036.46290,0.06819
2038.39137,0.06725
2040.31984,0.06544
2042.24831,0.06611
2044.17678,0.06828
2046.10525,0.06847
2048.03372,0.06744
2049.96218,0.06656
2051.89065,0.06489
2053.81912,0.06370
2055.74759,0.06438
2057.67606,0.06568
2059.60453,0.06624
2061.53300,0.06653
2063.46147,0.06743
2065.38993,0.06771
2067.31840,0.06663
2069.24687,0.06646
2071.17534,0.06783
2073.10381,0.06879
2075.03228,0.06874
2076.96075,0.06791
2078.88921,0.06658
2080.81768,0.06652
2082.74615,0.06811
2084.67462,0.06829
2086.60309,0.06653
2088.53156,0.06600
2090.46003,0.06702
2092.38850,0.06808
2094.31696,0.06868
2096.24543,0.06837
2098.17390,0.06830
2100.10237,0.06858
2102.03084,0.06732
2103.95931,0.06549
2105.88778,0.06535
2107.81624,0.06679
2109.74471,0.06801
2111.67318,0.06614
2113.60165,0.06206
2115.53012,0.06172
2117.45859,0.06489
2119.38706,0.06657
2121.31553,0.06709
2123.24399,0.06748
2125.17246,0.06680
2127.10093,0.06613
2129.02940,0.06719
2130.95787,0.06929
2132.88634,0.07007
2134.81481,0.06862
2136.74327,0.06803
2138.67174,0.07017
2140.60021,0.07056
2142.52868,0.06811
2144.45715,0.06737
2146.38562,0.06847
2148.31409,0.06915
2150.24255,0.06910
2152.17102,0.06850
2154.09949,0.06759
2156.02796,0.06683
2157.95643,0.06652
2159.88490,0.06653
2161.81337,0.06723
2163.74184,0.06892
2165.67030,0.07098
2167.59877,0.07227
2169.52724,0.07203
2171.45571,0.07030
2173.38418,0.06757
2175.31265,0.06496
2177.24112,0.06308
2179.16958,0.06257
2181.09805,0.06412
2183.02652,0.06653
2184.95499,0.06801
2186.88346,0.06742
2188.81193,0.06592
2190.74040,0.06605
2192.66887,0.06702
2194.59733,0.06710
2196.52580,0.06697
2198.45427,0.06733
2200.38274,0.06889
2202.31121,0.07120
2204.23968,0.07130
2206.16815,0.06919
2208.09661,0.06808
2210.02508,0.06819
2211.95355,0.06786
2213.88202,0.06708
2215.81049,0.06631
2217.73896,0.06620
2219.66743,0.06747
2221.59590,0.06859
2223.52436,0.06854
2225.45283,0.06890
2227.38130,0.06896
2229.30977,0.06724
2231.23824,0.06545
2233.16671,0.06513
2235.09518,0.06595
2237.02364,0.06727
2238.95211,0.06716
2240.88058,0.06613
2242.80905,0.06692
2244.73752,0.06811
2246.66599,0.06791
2248.59446,0.06672
2250.52293,0.06502
2252.45139,0.06453
2254.37986,0.06527
2256.30833,0.06457
2258.23680,0.06288
2260.16527,0.06332
2262.09374,0.06591
2264.02221,0.06837
2265.95067,0.07023
2267.87914,0.07170
2269.80761,0.07131
2271.73608,0.06938
2273.66455,0.06951
2275.59302,0.07114
2277.52149,0.07077
2279.44996,0.06998
2281.37842,0.07038
2283.30689,0.06968
2285.23536,0.06856
2287.16383,0.06905
2289.09230,0.06846
2291.02077,0.06510
2292.94924,0.06147
2294.87770,0.06004
2296.80617,0.06112
2298.73464,0.06285
2300.66311,0.06320
2302.59158,0.06383
2304.52005,0.06701
2306.44852,0.06883
2308.37699,0.06592
2310.30545,0.06299
2312.23392,0.06356
2314.16239,0.06408
2316.09086,0.06114
2318.01933,0.05598
2319.94780,0.05392
2321.87627,0.05987
2323.80473,0.06707
2325.73320,0.06724
2327.66167,0.06572
2329.59014,0.06738
2331.51861,0.06951
2333.44708,0.06663
2335.37555,0.06232
2337.30401,0.06756
2339.23248,0.07375
2341.16095,0.06917
2343.08942,0.06502
2345.01789,0.06346
2346.94636,0.05931
2348.87483,0.05823
2350.80330,0.06250
2352.73176,0.06647
2354.66023,0.06143
2356.58870,0.05781
2358.51717,0.06137
2360.44564,0.05806
2362.37411,0.05458
2364.30258,0.05159
2366.23104,0.04925
2368.15951,0.05255
2370.08798,0.05308
2372.01645,0.05335
2373.94492,0.05864
2375.87339,0.06509
2377.80186,0.06892
2379.73033,0.06745
2381.65879,0.06378
2383.58726,0.06421
2385.51573,0.06696
2387.44420,0.06751
2389.37267,0.06601
2391.30114,0.06455
2393.22961,0.06553
2395.15807,0.06856
2397.08654,0.07032
2399.01501,0.06940
2400.94348,0.06750
2402.87195,0.06634
2404.80042,0.06608
2406.72889,0.06657
2408.65736,0.06679
2410.58582,0.06738
2412.51429,0.06890
2414.44276,0.06852
2416.37123,0.06700
2418.29970,0.06723
2420.22817,0.06872
2422.15664,0.06996
2424.08510,0.06993
2426.01357,0.06891
2427.94204,0.06733
2429.87051,0.06593
2431.79898,0.06616
2433.72745,0.06717
2435.65592,0.06786
2437.58439,0.06905
2439.51285,0.07020
2441.44132,0.07030
2443.36979,0.07014
2445.29826,0.06947
2447.22673,0.06686
2449.15520,0.06379
2451.08367,0.06464
2453.01213,0.07007
2454.94060,0.07280
2456.86907,0.06864
2458.79754,0.06580
2460.72601,0.06944
2462.65448,0.07285
2464.58295,0.07217
2466.51142,0.07072
2468.43988,0.06999
2470.36835,0.06895
2472.29682,0.06851
2474.22529,0.06912
2476.15376,0.06924
2478.08223,0.06896
2480.01070,0.06863
2481.93916,0.06814
2483.86763,0.06874
2485.79610,0.06979
2487.72457,0.06888
2489.65304,0.06724
2491.58151,0.06713
2493.50998,0.06798
2495.43844,0.06902
2497.36691,0.06900
2499.29538,0.06815
2501.22385,0.06887
2503.15232,0.07047
2505.08079,0.07033
2507.00926,0.06829
2508.93773,0.06778
2510.86619,0.06994
2512.79466,0.07103
2514.72313,0.07063
2516.65160,0.07085
2518.58007,0.07119
2520.50854,0.07127
2522.43701,0.07200
2524.36547,0.07370
2526.29394,0.07502
2528.22241,0.07382
2530.15088,0.06996
2532.07935,0.06712
2534.00782,0.06789
2535.93629,0.06890
2537.86476,0.06808
2539.79322,0.06745
2541.72169,0.06834
2543.65016,0.06972
2545.57863,0.06941
2547.50710,0.06803
2549.43557,0.06702
2551.36404,0.06678
2553.29250,0.06796
2555.22097,0.06923
2557.14944,0.06891
2559.07791,0.06733
2561.00638,0.06633
2562.93485,0.06690
2564.86332,0.06732
2566.79179,0.06692
2568.72025,0.06733
2570.64872,0.06799
2572.57719,0.06818
2574.50566,0.06987
2576.43413,0.07219
2578.36260,0.07233
2580.29107,0.07095
2582.21953,0.06976
2584.14800,0.07011
2586.07647,0.07129
2588.00494,0.06987
2589.93341,0.06726
2591.86188,0.06764
2593.79035,0.06981
2595.71882,0.07050
2597.64728,0.06909
2599.57575,0.06831
2601.50422,0.06880
2603.43269,0.06762
2605.36116,0.06597
2607.28963,0.06804
2609.21810,0.07210
2611.14656,0.07216
2613.07503,0.06882
2615.00350,0.06756
2616.93197,0.06890
2618.86044,0.07027
2620.78891,0.07123
2622.71738,0.07153
2624.64585,0.07121
2626.57431,0.07166
2628.50278,0.07120
2630.43125,0.06924
2632.35972,0.06880
2634.28819,0.06893
2636.21666,0.06813
2638.14513,0.06799
2640.07359,0.06968
2642.00206,0.07184
2643.93053,0.07183
2645.85900,0.07060
2647.78747,0.07002
2649.71594,0.06928
2651.64441,0.06894
2653.57288,0.07033
2655.50134,0.07229
2657.42981,0.07275
2659.35828,0.07245
2661.28675,0.07328
2663.21522,0.07340
2665.14369,0.07100
2667.07216,0.06748
2669.00062,0.06433
2670.92909,0.06385
2672.85756,0.06672
2674.78603,0.06966
2676.71450,0.06959
2678.64297,0.06820
2680.57144,0.06922
2682.49990,0.07168
2684.42837,0.07238
2686.35684,0.07198
2688.28531,0.07217
2690.21378,0.07173
2692.14225,0.07076
2694.07072,0.07065
2695.99919,0.07086
2697.92765,0.07257
2699.85612,0.07569
2701.78459,0.07566
2703.71306,0.07144
2705.64153,0.06805
2707.57000,0.06815
2709.49847,0.06982
2711.42693,0.07209
2713.35540,0.07361
2715.28387,0.07238
2717.21234,0.06941
2719.14081,0.06732
2721.06928,0.06763
2722.99775,0.06994
2724.92622,0.07117
2726.85468,0.07034
2728.78315,0.07109
2730.71162,0.07281
2732.64009,0.07272
2734.56856,0.07212
2736.49703,0.07136
2738.42550,0.07069
2740.35396,0.07128
2742.28243,0.07114
2744.21090,0.06897
2746.13937,0.06726
2748.06784,0.06734
2749.99631,0.06899
2751.92478,0.07191
2753.85325,0.07387
2755.78171,0.07279
2757.71018,0.07158
2759.63865,0.07391
2761.56712,0.07657
2763.49559,0.07617
2765.42406,0.07416
2767.35253,0.07271
2769.28099,0.07308
2771.20946,0.07520
2773.13793,0.07772
2775.06640,0.07834
2776.99487,0.07613
2778.92334,0.07388
2780.85181,0.07551
2782.78028,0.07825
2784.70874,0.07747
2786.63721,0.07581
2788.56568,0.07546
2790.49415,0.07489
2792.42262,0.07400
2794.35109,0.07319
2796.27956,0.07166
2798.20802,0.06891
2800.13649,0.06743
2802.06496,0.06905
2803.99343,0.07153
2805.92190,0.07305
2807.85037,0.07388
2809.77884,0.07460
2811.70731,0.07513
2813.63577,0.07343
2815.56424,0.07054
2817.49271,0.07032
2819.42118,0.07062
2821.34965,0.06867
2823.27812,0.06840
2825.20659,0.07109
2827.13505,0.07292
2829.06352,0.07271
2830.99199,0.07102
2832.92046,0.06940
2834.84893,0.07099
2836.77740,0.07592
2838.70587,0.07875
2840.63433,0.07435
2842.56280,0.06837
2844.49127,0.06958
2846.41974,0.07519
2848.34821,0.07862
2850.27668,0.07848
2852.20515,0.07614
2854.13362,0.07511
2856.06208,0.07644
2857.99055,0.07611
2859.91902,0.07366
2861.84749,0.07122
2863.77596,0.06830
2865.70443,0.06699
2867.63290,0.06958
2869.56136,0.07373
2871.48983,0.07680
2873.41830,0.07633
2875.34677,0.07256
2877.27524,0.07009
2879.20371,0.07064
2881.13218,0.07122
2883.06065,0.06859
2884.98911,0.06420
2886.91758,0.06317
2888.84605,0.06681
2890.77452,0.07135
2892.70299,0.07147
2894.63146,0.06535
2896.55993,0.06007
2898.48839,0.06207
2900.41686,0.06706
2902.34533,0.06926
2904.27380,0.06777
2906.20227,0.06515
2908.13074,0.06565
2910.05921,0.06987
2911.98768,0.07368
2913.91614,0.07105
2915.84461,0.06327
2917.77308,0.06149
2919.70155,0.06695
2921.63002,0.07025
2923.55849,0.06741
2925.48696,0.05989
2927.41542,0.05689
2929.34389,0.06371
2931.27236,0.07078
2933.20083,0.07073
2935.12930,0.06408
2937.05777,0.05875
2938.98624,0.06323
2940.91471,0.07064
2942.84317,0.07334
2944.77164,0.07149
2946.70011,0.06454
2948.62858,0.06062
2950.55705,0.06539
2952.48552,0.07072
2954.41399,0.07213
2956.34245,0.06763
2958.27092,0.06111
2960.19939,0.06526
2962.12786,0.07696
2964.05633,0.08131
2965.98480,0.07441
2967.91327,0.06467
2969.84174,0.06145
2971.77020,0.06464
2973.69867,0.06950
2975.62714,0.07130
2977.55561,0.06728
2979.48408,0.06568
2981.41255,0.07125
2983.34102,0.07652
2985.26948,0.07802
2987.19795,0.07504
2989.12642,0.07165
2991.05489,0.07389
2992.98336,0.07595
2994.91183,0.07381
2996.84030,0.07113
2998.76877,0.07053
3000.69723,0.07347
3002.62570,0.07664
3004.55417,0.07439
3006.48264,0.06680
3008.41111,0.05916
3010.33958,0.05403
3012.26805,0.04593
3014.19651,0.03052
3016.12498,0.01861
3018.05345,0.02686
3019.98192,0.04979
3021.91039,0.06606
3023.83886,0.07165
3025.76733,0.07313
3027.69579,0.07267
3029.62426,0.07344
3031.55273,0.07350
3033.48120,0.07047
3035.40967,0.06872
3037.33814,0.06879
3039.26661,0.06909
3041.19508,0.06954
3043.12354,0.06794
3045.05201,0.06373
3046.98048,0.06066
3048.90895,0.06292
3050.83742,0.06943
3052.76589,0.07356
3054.69436,0.07066
3056.62282,0.06432
3058.55129,0.06357
3060.47976,0.06906
3062.40823,0.07229
3064.33670,0.06893
3066.26517,0.06362
3068.19364,0.06496
3070.12211,0.07225
3072.05057,0.07668
3073.97904,0.07301
3075.90751,0.06623
3077.83598,0.06564
3079.76445,0.06893
3081.69292,0.07042
3083.62139,0.06791
3085.54985,0.06258
3087.47832,0.06404
3089.40679,0.07362
3091.33526,0.07993
3093.26373,0.07562
3095.19220,0.06693
3097.12067,0.06415
3099.04914,0.06648
3100.97760,0.06742
3102.90607,0.06540
3104.83454,0.06453
3106.76301,0.06696
3108.69148,0.07099
3110.61995,0.07090
3112.54842,0.06441
3114.47688,0.06153
3116.40535,0.06665
3118.33382,0.07219
3120.26229,0.07143
3122.19076,0.06778
3124.11923,0.06965
3126.04770,0.07420
3127.97617,0.07549
3129.90463,0.07506
3131.83310,0.07604
3133.76157,0.07888
3135.69004,0.08073
3137.61851,0.07791
3139.54698,0.07226
3141.47545,0.07107
3143.40391,0.07302
3145.33238,0.07295
3147.26085,0.07418
3149.18932,0.07913
3151.11779,0.08384
3153.04626,0.08375
3154.97473,0.07889
3156.90320,0.07345
3158.83166,0.07199
3160.76013,0.07565
3162.68860,0.08108
3164.61707,0.08403
3166.54554,0.08438
3168.47401,0.08391
3170.40248,0.08192
3172.33094,0.08087
3174.25941,0.08315
3176.18788,0.08391
3178.11635,0.08030
3180.04482,0.07642
3181.97329,0.07552
3183.90176,0.07632
3185.83022,0.07649
3187.75869,0.07474
3189.68716,0.07212
3191.61563,0.07122
3193.54410,0.07406
3195.47257,0.08037
3197.40104,0.08299
3199.32951,0.07656
3201.25797,0.06954
3203.18644,0.06938
3205.11491,0.07156
3207.04338,0.07154
3208.97185,0.07141
3210.90032,0.07464
3212.82879,0.07922
3214.75725,0.08081
3216.68572,0.07940
3218.61419,0.07647
3220.54266,0.07287
3222.47113,0.07035
3224.39960,0.07123
3226.32807,0.07356
3228.25654,0.07304
3230.18500,0.07024
3232.11347,0.06790
3234.04194,0.06827
3235.97041,0.07067
3237.89888,0.07176
3239.82735,0.07099
3241.75582,0.06843
3243.68428,0.06453
3245.61275,0.06286
3247.54122,0.06703
3249.46969,0.07429
3251.39816,0.07801
3253.32663,0.07766
3255.25510,0.07616
3257.18357,0.07391
3259.11203,0.07184
3261.04050,0.07207
3262.96897,0.07488
3264.89744,0.07646
3266.82591,0.07501
3268.75438,0.07500
3270.68285,0.07773
3272.61131,0.08033
3274.53978,0.08107
3276.46825,0.07892
3278.39672,0.07623
3280.32519,0.07600
3282.25366,0.07788
3284.18213,0.08025
3286.11060,0.08016
3288.03906,0.07625
3289.96753,0.07302
3291.89600,0.07536
3293.82447,0.08015
3295.75294,0.08066
3297.68141,0.07554
3299.60988,0.06913
3301.53834,0.06553
3303.46681,0.06441
3305.39528,0.06669
3307.32375,0.07370
3309.25222,0.07877
3311.18069,0.07740
3313.10916,0.07605
3315.03763,0.07760
3316.96609,0.07751
3318.89456,0.07449
3320.82303,0.07207
3322.75150,0.07209
3324.67997,0.07167
3326.60844,0.07048
3328.53691,0.07201
3330.46537,0.07528
3332.39384,0.07753
3334.32231,0.07782
3336.25078,0.07623
3338.17925,0.07575
3340.10772,0.07712
3342.03619,0.07711
3343.96466,0.07357
3345.89312,0.06932
3347.82159,0.07017
3349.75006,0.07460
3351.67853,0.07742
3353.60700,0.07835
3355.53547,0.07758
3357.46394,0.07673
3359.39240,0.07657
3361.32087,0.07509
3363.24934,0.07521
3365.17781,0.07871
3367.10628,0.08054
3369.03475,0.07826
3370.96322,0.07577
3372.89168,0.07740
3374.82015,0.08041
3376.74862,0.07896
3378.67709,0.07401
3380.60556,0.07164
3382.53403,0.07425
3384.46250,0.07793
3386.39097,0.07921
3388.31943,0.07862
3390.24790,0.07906
3392.17637,0.08179
3394.10484,0.08328
3396.03331,0.08216
3397.96178,0.08132
3399.89025,0.08136
3401.81871,0.07954
3403.74718,0.07541
3405.67565,0.07378
3407.60412,0.07624
3409.53259,0.07906
3411.46106,0.08085
3413.38953,0.08241
3415.31800,0.08290
3417.24646,0.08131
3419.17493,0.07873
3421.10340,0.07705
3423.03187,0.07674
3424.96034,0.07538
3426.88881,0.07185
3428.81728,0.07010
3430.74574,0.07187
3432.67421,0.07419
3434.60268,0.07621
3436.53115,0.07598
3438.45962,0.07164
3440.38809,0.07043
3442.31656,0.07634
3444.24503,0.08201
3446.17349,0.08400
3448.10196,0.08320
3450.03043,0.07963
3451.95890,0.07690
3453.88737,0.07740
3455.81584,0.07709
3457.74431,0.07493
3459.67277,0.07649
3461.60124,0.07982
3463.52971,0.07641
3465.45818,0.06910
3467.38665,0.06808
3469.31512,0.07329
3471.24359,0.07741
3473.17206,0.07832
3475.10052,0.07741
3477.02899,0.07466
3478.95746,0.07162
3480.88593,0.07119
3482.81440,0.07248
3484.74287,0.07266
3486.67134,0.07240
3488.59980,0.07245
3490.52827,0.06973
3492.45674,0.06388
3494.38521,0.05975
3496.31368,0.06002
3498.24215,0.06332
3500.17062,0.06701
3502.09909,0.06796
3504.02755,0.06546
3505.95602,0.06266
3507.88449,0.06047
3509.81296,0.05996
3511.74143,0.06362
3513.66990,0.06865
3515.59837,0.07194
3517.52683,0.07382
3519.45530,0.07493
3521.38377,0.07400
3523.31224,0.07007
3525.24071,0.06796
3527.16918,0.07037
3529.09765,0.07023
3531.02611,0.06282
3532.95458,0.05535
3534.88305,0.05469
3536.81152,0.05928
3538.73999,0.06446
3540.66846,0.06749
3542.59693,0.06633
3544.52540,0.06099
3546.45386,0.05753
3548.38233,0.06056
3550.31080,0.06577
3552.23927,0.06671
3554.16774,0.06322
3556.09621,0.06035
3558.02468,0.05782
3559.95314,0.05513
3561.88161,0.05543
3563.81008,0.05868
3565.73855,0.06154
3567.66702,0.06153
3569.59549,0.06033
3571.52396,0.05869
3573.45243,0.05581
3575.38089,0.05374
3577.30936,0.05423
3579.23783,0.05634
3581.16630,0.05954
3583.09477,0.06438
3585.02324,0.06985
3586.95171,0.06983
3588.88017,0.06212
3590.80864,0.05746
3592.73711,0.05769
3594.66558,0.05829
3596.59405,0.05902
3598.52252,0.06114
3600.45099,0.06117
3602.37946,0.05877
3604.30792,0.05708
3606.23639,0.05547
3608.16486,0.05364
3610.09333,0.05488
3612.02180,0.05913
3613.95027,0.06068
3615.87874,0.05867
3617.80720,0.05714
3619.73567,0.05604
3621.66414,0.05518
3623.59261,0.05444
3625.52108,0.05235
3627.44955,0.05059
3629.37802,0.05330
3631.30649,0.05587
3633.23495,0.05608
3635.16342,0.05661
3637.09189,0.05778
3639.02036,0.05807
3640.94883,0.05326
3642.87730,0.04496
3644.80577,0.04299
3646.73423,0.05297
3648.66270,0.06878
3650.59117,0.06755
3652.51964,0.05691
3654.44811,0.05431
3656.37658,0.05666
3658.30505,0.05472
3660.23352,0.05072
3662.16198,0.05074
3664.09045,0.05331
3666.01892,0.05395
3667.94739,0.05529
3669.87586,0.06026
3671.80433,0.06011
3673.73280,0.05604
3675.66126,0.05586
3677.58973,0.05643
3679.51820,0.05368
3681.44667,0.05206
3683.37514,0.05301
3685.30361,0.05390
3687.23208,0.05194
3689.16055,0.04673
3691.08901,0.04397
3693.01748,0.04589
3694.94595,0.05070
3696.87442,0.05472
3698.80289,0.05423
3700.73136,0.05087
3702.65983,0.04611
3704.58829,0.04149
3706.51676,0.04268
3708.44523,0.05378
3710.37370,0.06671
3712.30217,0.06273
3714.23064,0.05208
3716.15911,0.05041
3718.08757,0.05325
3720.01604,0.05424
3721.94451,0.05412
3723.87298,0.05379
3725.80145,0.04796
3727.72992,0.03932
3729.65839,0.03729
3731.58686,0.04265
3733.51532,0.05331
3735.44379,0.06476
3737.37226,0.06759
3739.30073,0.06299
3741.22920,0.05643
3743.15767,0.05131
3745.08614,0.05006
3747.01460,0.05195
3748.94307,0.05723
3750.87154,0.06495
3752.80001,0.06387
3754.72848,0.05603
3756.65695,0.05166
3758.58542,0.05289
3760.51389,0.05429
3762.44235,0.05433
3764.37082,0.05576
3766.29929,0.05582
3768.22776,0.05232
3770.15623,0.04877
3772.08470,0.04720
3774.01317,0.04707
3775.94163,0.04686
3777.87010,0.04521
3779.79857,0.04240
3781.72704,0.04028
3783.65551,0.04135
3785.58398,0.04535
3787.51245,0.04770
3789.44092,0.04827
3791.36938,0.04993
3793.29785,0.05191
3795.22632,0.05266
3797.15479,0.05100
3799.08326,0.05049
3801.01173,0.05531
3802.94020,0.05793
3804.86866,0.05585
3806.79713,0.05385
3808.72560,0.05146
3810.65407,0.04980
3812.58254,0.04942
3814.51101,0.04806
3816.43948,0.04549
3818.36795,0.04738
3820.29641,0.05455
3822.22488,0.05695
3824.15335,0.05117
3826.08182,0.04595
3828.01029,0.04456
3829.93876,0.04586
3831.86723,0.04835
3833.79569,0.05221
3835.72416,0.05661
3837.65263,0.05993
3839.58110,0.05843
3841.50957,0.05319
3843.43804,0.05051
3845.36651,0.04848
3847.29498,0.04438
3849.22344,0.04197
3851.15191,0.04633
3853.08038,0.05497
3855.00885,0.05085
3856.93732,0.04624
3858.86579,0.04681
3860.79426,0.04653
3862.72272,0.04694
3864.65119,0.05133
3866.57966,0.05481
3868.50813,0.05613
3870.43660,0.05419
3872.36507,0.04833
3874.29354,0.04594
3876.22200,0.04770
3878.15047,0.04778
3880.07894,0.04357
3882.00741,0.03905
3883.93588,0.03888
3885.86435,0.04005
3887.79282,0.04108
3889.72129,0.04503
3891.64975,0.04913
3893.57822,0.04673
3895.50669,0.04345
3897.43516,0.04315
3899.36363,0.04277
3901.29210,0.04443
3903.22057,0.05015
3905.14903,0.05112
3907.07750,0.04603
3909.00597,0.04142
3910.93444,0.03895
3912.86291,0.03725
3914.79138,0.03619
3916.71985,0.03859
3918.64832,0.04351
3920.57678,0.04487
3922.50525,0.04475
3924.43372,0.04880
3926.36219,0.05104
3928.29066,0.04783
3930.21913,0.04560
3932.14760,0.04314
3934.07606,0.04105
3936.00453,0.04515
3937.93300,0.05117
3939.86147,0.05362
3941.78994,0.05249
3943.71841,0.04939
3945.64688,0.04575
3947.57535,0.04293
3949.50381,0.04276
3951.43228,0.04484
3953.36075,0.04496
3955.28922,0.04252
3957.21769,0.04204
3959.14616,0.04447
3961.07463,0.04756
3963.00309,0.04911
3964.93156,0.04754
3966.86003,0.04441
3968.78850,0.04128
3970.71697,0.03829
3972.64544,0.03595
3974.57391,0.03577
3976.50238,0.03786
3978.43084,0.04038
3980.35931,0.04281
3982.28778,0.04301
3984.21625,0.03901
3986.14472,0.03498
3988.07319,0.03392
3990.00166,0.03346
3991.93012,0.03354
3993.85859,0.03487
3995.78706,0.03450
3997.71553,0.03282
3999.64400,0.03176
4001.57247,0.03096
4003.50094,0.03199
4005.42941,0.03410
4007.35787,0.03438
4009.28634,0.03313
4011.21481,0.03261
4013.14328,0.03287
4015.07175,0.03095
4017.00022,0.02762
4018.92869,0.02621
4020.85715,0.02711
4022.78562,0.02820
4024.71409,0.02865
4026.64256,0.03044
4028.57103,0.03330
4030.49950,0.03587
4032.42797,0.03950
4034.35644,0.04447
4036.28490,0.04582
4038.21337,0.04068
4040.14184,0.03500
4042.07031,0.03252
4043.99878,0.03214
4045.92725,0.03467
4047.85572,0.03716
4049.78418,0.03590
4051.71265,0.03498
4053.64112,0.03675
4055.56959,0.03803
4057.49806,0.03759
4059.42653,0.03507
4061.35500,0.03231
4063.28346,0.03416
4065.21193,0.03841
4067.14040,0.03884
4069.06887,0.03635
4070.99734,0.03445
4072.92581,0.03371
4074.85428,0.03318
4076.78275,0.03219
4078.71121,0.03252
4080.63968,0.03618
4082.56815,0.03946
4084.49662,0.03758
4086.42509,0.03286
4088.35356,0.02830
4090.28203,0.02503
4092.21049,0.02776
4094.13896,0.03618
4096.06743,0.04059
4097.99590,0.03732
4099.92437,0.03202
4101.85284,0.02990
4103.78131,0.03356
4105.70978,0.03717
4107.63824,0.03524
4109.56671,0.03267
4111.49518,0.03328
4113.42365,0.03489
4115.35212,0.03189
4117.28059,0.02539
4119.20906,0.02497
4121.13752,0.03026
4123.06599,0.03155
4124.99446,0.02778
4126.92293,0.02628
4128.85140,0.03002
4130.77987,0.03390
4132.70834,0.03265
4134.63681,0.02871
4136.56527,0.02741
4138.49374,0.02834
4140.42221,0.02742
4142.35068,0.02408
4144.27915,0.02224
4146.20762,0.02450
4148.13609,0.02737
4150.06455,0.02775
4151.99302,0.02820
4153.92149,0.02828
4155.84996,0.02508
4157.77843,0.02188
4159.70690,0.02312
4161.63537,0.02680
4163.56384,0.02885
4165.49230,0.02889
4167.42077,0.02709
4169.34924,0.02538
4171.27771,0.02661
4173.20618,0.02682
4175.13465,0.02142
4177.06312,0.01496
4178.99158,0.01501
4180.92005,0.02139
4182.84852,0.02791
4184.77699,0.03207
4186.70546,0.03459
4188.63393,0.03256
4190.56240,0.02583
4192.49087,0.02031
4194.41933,0.01885
4196.34780,0.02113
4198.27627,0.02492
4200.20474,0.02590
4202.13321,0.02420
4204.06168,0.02429
4205.99015,0.02621
4207.91861,0.02494
4209.84708,0.02005
4211.77555,0.01772
4213.70402,0.02196
4215.63249,0.02711
4217.56096,0.02672
4219.48943,0.02498
4221.41789,0.02388
4223.34636,0.02135
4225.27483,0.02268
4227.20330,0.02649
4229.13177,0.02569
4231.06024,0.02510
4232.98871,0.02999
4234.91718,0.03415
4236.84564,0.03159
4238.77411,0.02766
4240.70258,0.02914
4242.63105,0.03131
4244.55952,0.02851
4246.48799,0.02428
4248.41646,0.02181
4250.34492,0.02109
4252.27339,0.02146
4254.20186,0.02172
4256.13033,0.02235
4258.05880,0.02024
4259.98727,0.01447
4261.91574,0.01337
4263.84421,0.01787
4265.77267,0.02035
4267.70114,0.01958
4269.62961,0.01639
4271.55808,0.01241
4273.48655,0.01402
4275.41502,0.01856
4277.34349,0.01970
4279.27195,0.01964
4281.20042,0.01854
4283.12889,0.01701
4285.05736,0.01853
4286.98583,0.02131
4288.91430,0.02185
4290.84277,0.01922
4292.77124,0.01605
4294.69970,0.01583
4296.62817,0.01831
4298.55664,0.02091
4300.48511,0.02137
4302.41358,0.02195
4304.34205,0.02710
4306.27052,0.02906
4308.19898,0.02081
4310.12745,0.01482
4312.05592,0.01855
4313.98439,0.02474
4315.91286,0.02849
4317.84133,0.02724
4319.76980,0.02139
4321.69827,0.01640
4323.62673,0.01351
4325.55520,0.01151
4327.48367,0.01127
4329.41214,0.01324
4331.34061,0.01768
4333.26908,0.02139
4335.19755,0.02130
4337.12601,0.01931
4339.05448,0.01570
4340.98295,0.01206
4342.91142,0.01081
4344.83989,0.00920
4346.76836,0.00768
4348.69683,0.00958
4350.62530,0.01399
4352.55376,0.01801
4354.48223,0.01793
4356.41070,0.01447
4358.33917,0.01368
4360.26764,0.01763
4362.19611,0.02287
4364.12458,0.02400
4366.05304,0.01978
4367.98151,0.01442
4369.90998,0.01313
4371.83845,0.01736
4373.76692,0.02151
4375.69539,0.02219
4377.62386,0.02063
4379.55232,0.01666
4381.48079,0.01273
4383.40926,0.01334
4385.33773,0.01469
4387.26620,0.01023
4389.19467,0.00647
4391.12314,0.00773
4393.05161,0.00647
4394.98007,0.00128
4396.90854,-0.00242
4398.83701,-0.00061
4400.76548,0.00406
4402.69395,0.00616
4404.62242,0.00660
4406.55089,0.00796
4408.47935,0.00703
4410.40782,0.00011
4412.33629,-0.00403
4414.26476,0.00059
4416.19323,0.00225
4418.12170,-0.00098
4420.05017,0.00233
4421.97864,0.00991
4423.90710,0.01421
4425.83557,0.01515
4427.76404,0.01100
4429.69251,0.00282
4431.62098,-0.00039
4433.54945,0.00427
4435.47792,0.01098
4437.40638,0.01411
4439.33485,0.00756
4441.26332,-0.00218
4443.19179,0.00175
4445.12026,0.01523
4447.04873,0.02157
4448.97720,0.01778
4450.90567,0.01050
4452.83413,0.00435
4454.76260,-0.00007
4456.69107,-0.00225
4458.61954,-0.00166
4460.54801,0.00133
4462.47648,0.00502
4464.40495,0.00679
4466.33341,0.00675
4468.26188,0.00851
4470.19035,0.01191
4472.11882,0.01112
4474.04729,0.00534
4475.97576,0.00117
4477.90423,0.00313
4479.83270,0.00682
4481.76116,0.00604
4483.68963,0.00345
4485.61810,0.00533
4487.54657,0.00859
4489.47504,0.00638
4491.40351,0.00027
4493.33198,-0.00249
4495.26044,0.00089
4497.18891,0.00476
4499.11738,0.00508
4501.04585,0.00491
4502.97432,0.00750
4504.90279,0.01032
4506.83126,0.00760
4508.75973,0.00250
4510.68819,0.00254
4512.61666,0.00624
4514.54513,0.00695
4516.47360,0.00454
4518.40207,0.00323
4520.33054,0.00493
4522.25901,0.00856
4524.18747,0.00844
4526.11594,0.00501
4528.04441,0.00300
4529.97288,0.00396
4531.90135,0.01013
4533.82982,0.01670
4535.75829,0.01688
4537.68676,0.01268
4539.61522,0.00747
4541.54369,0.00282
4543.47216,0.00415
4545.40063,0.00827
4547.32910,0.00482
4549.25757,-0.00041
4551.18604,-0.00051
4553.11450,-0.00187
4555.04297,-0.00679
4556.97144,-0.00814
4558.89991,-0.00132
4560.82838,0.00622
4562.75685,0.00624
4564.68532,0.00426
4566.61378,0.00440
4568.54225,-0.00149
4570.47072,-0.01050
4572.39919,-0.00960
4574.32766,-0.00233
4576.25613,0.00087
4578.18460,0.00204
4580.11307,0.00256
4582.04153,-0.00197
4583.97000,-0.00499
4585.89847,0.00254
4587.82694,0.01120
4589.75541,0.01113
4591.68388,0.00797
4593.61235,0.00718
4595.54081,0.00569
4597.46928,0.00030
4599.39775,-0.00427
4601.32622,-0.00462
4603.25469,-0.00749
4605.18316,-0.00831
4607.11163,-0.00563
4609.04010,-0.00168
4610.96856,0.01018
4612.89703,0.02115
4614.82550,0.01885
4616.75397,0.01435
4618.68244,0.01388
4620.61091,0.01057
4622.53938,0.00384
4624.46784,-0.00326
4626.39631,-0.00595
4628.32478,-0.00500
4630.25325,-0.00526
4632.18172,-0.00265
4634.11019,0.00411
4636.03866,0.00612
4637.96713,0.00201
4639.89559,0.00179
4641.82406,0.00453
4643.75253,0.00192
4645.68100,-0.00090
4647.60947,0.00438
4649.53794,0.00765
4651.46641,0.00022
4653.39487,-0.00741
4655.32334,-0.01150
4657.25181,-0.01451
4659.18028,-0.00884
4661.10875,0.00159
4663.03722,0.00316
4664.96569,0.00320
4666.89416,0.01435
4668.82262,0.02483
4670.75109,0.01995
4672.67956,0.01097
4674.60803,0.01166
4676.53650,0.01450
4678.46497,0.00896
4680.39344,0.00114
4682.32190,0.00082
4684.25037,0.00321
4686.17884,0.00295
4688.10731,0.00483
4690.03578,0.00968
4691.96425,0.01179
4693.89272,0.00918
4695.82119,0.00756
4697.74965,0.01279
4699.67812,0.02092
4701.60659,0.02605
4703.53506,0.02672
4705.46353,0.02044
4707.39200,0.00949
4709.32047,0.00248
4711.24893,0.00559
4713.17740,0.01387
4715.10587,0.01646
4717.03434,0.01245
4718.96281,0.00836
4720.89128,0.01001
4722.81975,0.01693
4724.74821,0.02006
4726.67668,0.01357
4728.60515,0.00673
4730.53362,0.00869
4732.46209,0.01099
4734.39056,0.00634
4736.31903,-0.00273
4738.24750,-0.01198
4740.17596,-0.01478
4742.10443,-0.01039
4744.03290,-0.00205
4745.96137,0.00802
4747.88984,0.01082
4749.81831,0.00336
4751.74678,-0.00087
4753.67524,0.00350
4755.60371,0.01063
4757.53218,0.01527
4759.46065,0.01320
4761.38912,0.01025
4763.31759,0.01110
4765.24606,0.00759
4767.17453,-0.00073
4769.10299,-0.00398
4771.03146,-0.00160
4772.95993,0.00023
4774.88840,-0.00093
4776.81687,-0.00155
4778.74534,-0.00000
4780.67381,-0.00038
4782.60227,-0.00014
4784.53074,0.00210
4786.45921,0.00258
4788.38768,0.00295
4790.31615,0.00153
4792.24462,-0.00673
4794.17309,-0.00934
4796.10156,0.00494
4798.03002,0.01817
4799.95849,0.01609
4801.88696,0.00879
4803.81543,0.00560
4805.74390,0.00555
4807.67237,0.00823
4809.60084,0.01175
4811.52930,0.00972
4813.45777,0.00463
4815.38624,0.00594
4817.31471,0.00649
4819.24318,0.00226
4821.17165,0.00142
4823.10012,0.00377
4825.02859,0.00142
4826.95705,-0.00350
4828.88552,-0.00491
4830.81399,-0.00263
4832.74246,-0.00100
4834.67093,-0.00082
4836.59940,0.00208
4838.52787,0.00715
4840.45633,0.01296
4842.38480,0.01542
4844.31327,0.01372
4846.24174,0.01485
4848.17021,0.01813
4850.09868,0.01690
4852.02715,0.01049
4853.95562,0.00151
4855.88408,-0.00343
4857.81255,-0.00083
4859.74102,0.00167
4861.66949,-0.00131
4863.59796,-0.00230
4865.52643,-0.00138
4867.45490,-0.00792
4869.38336,-0.01363
4871.31183,-0.01207
4873.24030,-0.01130
4875.16877,-0.00837
4877.09724,-0.00151
4879.02571,0.00013
4880.95418,-0.00203
4882.88265,-0.00027
4884.81111,0.00440
4886.73958,0.00726
4888.66805,0.00654
4890.59652,0.00463
4892.52499,0.00033
4894.45346,-0.00353
4896.38193,0.00537
4898.31039,0.02555
4900.23886,0.03933
4902.16733,0.03369
4904.09580,0.01359
4906.02427,-0.00037
4907.95274,-0.00071
4909.88121,-0.00150
4911.80967,-0.01121
4913.73814,-0.01817
4915.66661,-0.00978
4917.59508,0.00885
4919.52355,0.02008
4921.45202,0.01472
4923.38049,0.00563
4925.30896,0.00806
4927.23742,0.01561
4929.16589,0.01586
4931.09436,0.01229
4933.02283,0.01294
4934.95130,0.01313
4936.87977,0.00828
4938.80824,0.00725
4940.73670,0.00916
4942.66517,0.00626
4944.59364,0.00812
4946.52211,0.01631
4948.45058,0.01670
4950.37905,0.01123
4952.30752,0.00925
4954.23599,0.00684
4956.16445,-0.00081
4958.09292,-0.00634
4960.02139,-0.00229
4961.94986,0.00404
4963.87833,0.00360
4965.80680,-0.00427
4967.73527,-0.01268
4969.66373,-0.00688
4971.59220,0.01226
4973.52067,0.02395
4975.44914,0.01981
4977.37761,0.00998
4979.30608,0.00266
4981.23455,-0.00007
4983.16302,0.00045
4985.09148,0.00258
4987.01995,0.00625
4988.94842,0.00852
4990.87689,0.00997
4992.80536,0.01668
4994.73383,0.02922
4996.66230,0.03550
4998.59076,0.02628
5000.51923,0.00657
5002.44770,-0.01223
5004.37617,-0.01588
5006.30464,-0.00906
5008.23311,0.00007
5010.16158,0.01383
5012.09005,0.01973
5014.01851,0.01495
5015.94698,0.01412
5017.87545,0.01785
5019.80392,0.01610
5021.73239,0.00435
5023.66086,-0.00811
5025.58933,-0.00566
5027.51779,0.00645
5029.44626,0.01284
5031.37473,0.01762
5033.30320,0.02438
5035.23167,0.02550
5037.16014,0.02300
5039.08861,0.02936
5041.01708,0.03764
5042.94554,0.02906
5044.87401,0.01311
5046.80248,-0.00161
5048.73095,-0.01777
5050.65942,-0.02020
5052.58789,-0.00709
5054.51636,0.00734
5056.44482,0.02138
5058.37329,0.02522
5060.30176,0.01067
5062.23023,-0.00349
5064.15870,-0.00526
5066.08717,-0.00271
5068.01564,0.00033
5069.94410,0.00685
5071.87257,0.01401
5073.80104,0.01396
5075.72951,0.00901
5077.65798,0.01034
5079.58645,0.01717
5081.51492,0.01596
5083.44339,0.00810
5085.37185,0.00701
5087.30032,0.01286
5089.22879,0.01703
5091.15726,0.01373
5093.08573,0.00785
5095.01420,0.00957
5096.94267,0.01256
5098.87113,0.00916
5100.79960,0.00854
5102.72807,0.00778
5104.65654,-0.00279
5106.58501,-0.00919
5108.51348,-0.00177
5110.44195,0.00473
5112.37042,-0.00010
5114.29888,-0.00871
5116.22735,-0.00291
5118.15582,0.02013
5120.08429,0.03094
5122.01276,0.01749
5123.94123,0.00461
5125.86970,0.00597
5127.79816,0.01684
5129.72663,0.02520
5131.65510,0.02265
5133.58357,0.01607
5135.51204,0.01216
5137.44051,0.00802
5139.36898,0.00065
5141.29745,-0.00546
5143.22591,-0.00614
5145.15438,-0.00021
5147.08285,0.01038
5149.01132,0.01427
5150.93979,0.01163
5152.86826,0.01725
5154.79673,0.02717
5156.72519,0.02419
5158.65366,0.01326
5160.58213,0.01105
5162.51060,0.01862
5164.43907,0.02274
5166.36754,0.01419
5168.29601,0.00488
5170.22448,0.00715
5172.15294,0.01531
5174.08141,0.01949
5176.00988,0.02173
5177.93835,0.02798
5179.86682,0.03212
5181.79529,0.02991
5183.72376,0.02940
5185.65222,0.02904
5187.58069,0.02158
5189.50916,0.01560
5191.43763,0.01512
5193.36610,0.01709
5195.29457,0.02569
5197.22304,0.02831
5199.15151,0.01466
5201.07997,0.00764
5203.00844,0.01661
5204.93691,0.02719
5206.86538,0.02344
5208.79385,0.00486
5210.72232,-0.00177
5212.65079,0.01174
5214.57925,0.02275
5216.50772,0.02068
5218.43619,0.01956
5220.36466,0.02904
5222.29313,0.03720
5224.22160,0.03410
5226.15007,0.03000
5228.07854,0.03271
5230.00700,0.02699
5231.93547,0.00529
5233.86394,-0.01044
5235.79241,-0.00385
5237.72088,0.00809
5239.64935,0.00123
5241.57782,-0.01864
5243.50628,-0.02601
5245.43475,-0.02105
5247.36322,-0.02084
5249.29169,-0.01148
5251.22016,0.01030
5253.14863,0.01549
5255.07710,0.00188
5257.00556,-0.00606
5258.93403,0.00114
5260.86250,0.00921
5262.79097,0.00272
5264.71944,-0.00194
5266.64791,0.01336
5268.57638,0.02474
5270.50485,0.01199
5272.43331,-0.00356
5274.36178,-0.00717
5276.29025,-0.00795
5278.21872,-0.00144
5280.14719,0.01308
5282.07566,0.01862
5284.00413,0.01349
5285.93259,0.01692
5287.86106,0.02805
5289.78953,0.03180
5291.71800,0.03340
5293.64647,0.03005
5295.57494,0.01721
5297.50341,0.01180
5299.43188,0.01714
5301.36034,0.02217
5303.28881,0.02882
5305.21728,0.03694
5307.14575,0.04236
5309.07422,0.04445
5311.00269,0.03858
5312.93116,0.02742
5314.85962,0.01914
5316.78809,0.02157
5318.71656,0.03148
5320.64503,0.03548
5322.57350,0.03631
5324.50197,0.04282
5326.43044,0.05001
5328.35891,0.04565
5330.28737,0.03281
5332.21584,0.01988
5334.14431,0.00341
5336.07278,-0.01221
5338.00125,-0.00795
5339.92972,0.01750
5341.85819,0.03534
5343.78665,0.03414
5345.71512,0.02005
5347.64359,0.00882
5349.57206,0.01371
5351.50053,0.02649
5353.42900,0.03462
5355.35747,0.03700
5357.28594,0.03078
5359.21440,0.01683
5361.14287,0.00857
5363.07134,0.01119
5364.99981,0.00527
5366.92828,-0.01555
5368.85675,-0.02383
5370.78522,-0.00450
5372.71368,0.01518
5374.64215,0.01257
5376.57062,0.00914
5378.49909,0.01289
5380.42756,0.00719
5382.35603,-0.00049
5384.28450,0.00027
5386.21297,0.00474
5388.14143,0.00838
5390.06990,0.01721
5391.99837,0.02696
5393.92684,0.01904
5395.85531,-0.00231
5397.78378,-0.01306
5399.71225,-0.00827
5401.64071,0.00746
5403.56918,0.03116
5405.49765,0.05133
5407.42612,0.04863
5409.35459,0.02662
5411.28306,0.00600
5413.21153,-0.00701
5415.13999,-0.00494
5417.06846,0.00961
5418.99693,0.01534
5420.92540,0.01065
5422.85387,0.01042
5424.78234,0.01465
5426.71081,0.01704
5428.63928,0.01345
5430.56774,0.00695
5432.49621,0.00815
5434.42468,0.01741
5436.35315,0.03371
5438.28162,0.05032
5440.21009,0.04988
5442.13856,0.03178
5444.06702,0.01202
5445.99549,0.01000
5447.92396,0.03358
5449.85243,0.05025
5451.78090,0.05037
5453.70937,0.05696
5455.63784,0.07082
5457.56631,0.07653
5459.49477,0.06009
5461.42324,0.03692
5463.35171,0.03066
5465.28018,0.03616
5467.20865,0.04211
5469.13712,0.03920
5471.06559,0.02887
5472.99405,0.01665
5474.92252,0.00687
5476.85099,0.00961
5478.77946,0.01409
5480.70793,0.01439
5482.63640,0.02171
5484.56487,0.03548
5486.49334,0.03941
5488.42180,0.03337
5490.35027,0.03020
5492.27874,0.02442
5494.20721,0.02055
5496.13568,0.02276
5498.06415,0.02687
5499.99262,0.03427
5501.92108,0.03393
5503.84955,0.03301
5505.77802,0.03737
5507.70649,0.03567
5509.63496,0.04213
5511.56343,0.05599
5513.49190,0.05930
5515.42037,0.06560
5517.34883,0.07130
5519.27730,0.04716
5521.20577,0.00973
5523.13424,-0.00695
5525.06271,-0.00032
5526.99118,0.01580
5528.91965,0.02140
5530.84811,0.01249
5532.77658,0.00999
5534.70505,0.01995
5536.63352,0.02819
5538.56199,0.02305
5540.49046,0.01329
5542.41893,0.01527
5544.34740,0.02275
5546.27586,0.01740
5548.20433,0.00270
5550.13280,-0.00377
5552.06127,0.00005
5553.98974,0.01205
5555.91821,0.03669
5557.84668,0.05356
5559.77514,0.03321
5561.70361,0.00114
5563.63208,-0.00090
5565.56055,0.01663
5567.48902,0.03218
5569.41749,0.04648
5571.34596,0.05167
5573.27443,0.04796
5575.20289,0.05393
5577.13136,0.05396
5579.05983,0.02705
5580.98830,0.00171
5582.91677,0.00619
5584.84524,0.02153
5586.77371,0.02728
5588.70217,0.03083
5590.63064,0.03802
5592.55911,0.03803
5594.48758,0.03515
5596.41605,0.03968
5598.34452,0.04798
5600.27299,0.04904
5602.20145,0.02426
5604.12992,-0.01072
5606.05839,-0.00590
5607.98686,0.03986
5609.91533,0.07942
5611.84380,0.08680
5613.77227,0.07183
5615.70074,0.05737
5617.62920,0.05596
5619.55767,0.05571
5621.48614,0.03846
5623.41461,0.02003
5625.34308,0.03151
5627.27155,0.06123
5629.20002,0.07126
5631.12848,0.05955
5633.05695,0.03754
5634.98542,0.01057
5636.91389,0.00002
5638.84236,0.00967
5640.77083,0.01978
5642.69930,0.03023
5644.62777,0.03403
5646.55623,0.02304
5648.48470,0.02393
5650.41317,0.02653
5652.34164,0.00199
5654.27011,-0.01740
5656.19858,-0.00391
5658.12705,0.02792
5660.05551,0.05001
5661.98398,0.04237
5663.91245,0.00937
5665.84092,-0.02707
5667.76939,-0.03121
5669.69786,0.00173
5671.62633,0.02885
5673.55480,0.02834
5675.48326,0.01928
5677.41173,0.02106
5679.34020,0.03646
5681.26867,0.04980
5683.19714,0.04291
5685.12561,0.03178
5687.05408,0.02738
5688.98254,0.01536
5690.91101,0.00636
5692.83948,0.01145
5694.76795,0.02802
5696.69642,0.04415
5698.62489,0.04156
5700.55336,0.03222
5702.48183,0.02482
5704.41029,0.01684
5706.33876,0.01811
5708.26723,0.02361
5710.19570,0.01837
5712.12417,0.00328
5714.05264,-0.01283
5715.98111,-0.02518
5717.90957,-0.02388
5719.83804,0.00900
5721.76651,0.06234
5723.69498,0.08540
5725.62345,0.06399
5727.55192,0.03231
5729.48039,0.00952
5731.40886,-0.00105
5733.33732,0.00093
5735.26579,-0.00104
5737.19426,-0.02609
5739.12273,-0.05270
5741.05120,-0.03795
5742.97967,0.00854
5744.90814,0.04475
5746.83660,0.06004
5748.76507,0.04192
5750.69354,-0.01283
5752.62201,-0.05160
5754.55048,-0.04669
5756.47895,-0.01071
5758.40742,0.02907
5760.33588,0.03973
5762.26435,0.03795
5764.19282,0.05156
5766.12129,0.06354
5768.04976,0.05438
5769.97823,0.02856
5771.90670,0.01426
5773.83517,0.02905
5775.76363,0.04761
5777.69210,0.04924
5779.62057,0.04300
5781.54904,0.04320
5783.47751,0.05556
5785.40598,0.06195
5787.33445,0.04798
5789.26291,0.03947
5791.19138,0.04724
5793.11985,0.04246
5795.04832,0.03747
5796.97679,0.06551
5798.90526,0.08534
5800.83373,0.06310
5802.76220,0.03567
5804.69066,0.03064
5806.61913,0.03387
5808.54760,0.03600
5810.47607,0.04876
5812.40454,0.06649
5814.33301,0.07079
5816.26148,0.05976
5818.18994,0.04167
5820.11841,0.02989
5822.04688,0.02824
5823.97535,0.04882
5825.90382,0.09115
5827.83229,0.09803
5829.76076,0.05250
5831.68923,0.01311
5833.61769,-0.00324
5835.54616,-0.00854
5837.47463,0.00389
5839.40310,0.02411
5841.33157,0.03015
5843.26004,0.01358
5845.18851,-0.01670
5847.11697,-0.03522
5849.04544,-0.02806
5850.97391,-0.01103
5852.90238,0.00117
5854.83085,0.01293
5856.75932,0.03568
5858.68779,0.07138
5860.61626,0.09802
5862.54472,0.08820
5864.47319,0.05099
5866.40166,0.01995
5868.33013,0.00876
5870.25860,0.02031
5872.18707,0.05060
5874.11554,0.06870
5876.04400,0.04626
5877.97247,0.01632
5879.90094,0.01967
5881.82941,0.02850
5883.75788,0.02223
5885.68635,0.02345
5887.61482,0.03168
5889.54329,0.03280
5891.47175,0.04009
5893.40022,0.05421
5895.32869,0.04882
5897.25716,0.02949
5899.18563,0.02702
5901.11410,0.03767
5903.04257,0.03974
5904.97103,0.03585
5906.89950,0.03696
5908.82797,0.04357
5910.75644,0.05055
5912.68491,0.04197
5914.61338,0.01900
5916.54185,0.00992
5918.47032,0.01614
5920.39878,0.03168
5922.32725,0.05065
5924.25572,0.04796
5926.18419,0.04115
5928.11266,0.05416
5930.04113,0.06628
5931.96960,0.07347
5933.89806,0.08477
5935.82653,0.09268
5937.75500,0.09078
5939.68347,0.09086
5941.61194,0.09802
5943.54041,0.08818
5945.46888,0.06824
5947.39734,0.06984
5949.32581,0.07821
5951.25428,0.07006
5953.18275,0.05055
5955.11122,0.03879
5957.03969,0.04215
5958.96816,0.03518
5960.89663,0.02577
5962.82509,0.03306
5964.75356,0.03495
5966.68203,0.01683
5968.61050,-0.01120
5970.53897,-0.01387
5972.46744,0.01043
5974.39591,0.01436
5976.32437,0.00828
5978.25284,0.02045
5980.18131,0.01741
5982.10978,0.00122
5984.03825,0.00523
5985.96672,-0.00257
5987.89519,-0.02124
5989.82366,-0.00748
5991.75212,0.01227
5993.68059,0.03115
5995.60906,0.07062
5997.53753,0.08478
5999.46600,0.05190
6001.39447,0.01200
6003.32294,-0.00840
6005.25140,-0.00901
6007.17987,-0.00545
6009.10834,-0.01214
6011.03681,-0.03109
6012.96528,-0.04474
6014.89375,-0.03479
6016.82222,-0.01944
6018.75069,-0.02111
6020.67915,-0.01932
6022.60762,0.00666
6024.53609,0.03184
6026.46456,0.02125
6028.39303,-0.01594
6030.32150,-0.02753
6032.24997,0.00603
6034.17843,0.04839
6036.10690,0.07476
6038.03537,0.09249
6039.96384,0.08606
6041.89231,0.03907
6043.82078,0.00402
6045.74925,0.02643
6047.67772,0.06394
6049.60618,0.06352
6051.53465,0.04466
6053.46312,0.06531
6055.39159,0.11080
6057.32006,0.11018
6059.24853,0.06151
6061.17700,0.00692
6063.10546,-0.03439
6065.03393,-0.03372
6066.96240,0.02380
6068.89087,0.09170
6070.81934,0.11795
6072.74781,0.09848
6074.67628,0.06906
6076.60475,0.05391
6078.53321,0.01878
6080.46168,-0.03128
6082.39015,-0.02785
6084.31862,0.02876
6086.24709,0.07179
6088.17556,0.07909
6090.10403,0.07284
6092.03249,0.06333
6093.96096,0.04951
6095.88943,0.02863
6097.81790,0.03286
6099.74637,0.08123
6101.67484,0.11805
6103.60331,0.10782
6105.53177,0.08325
6107.46024,0.07195
6109.38871,0.08538
6111.31718,0.11095
6113.24565,0.11402
6115.17412,0.10445
6117.10259,0.08189
6119.03106,0.02104
6120.95952,-0.02900
6122.88799,-0.04091
6124.81646,-0.04441
6126.74493,-0.03036
6128.67340,-0.00872
6130.60187,-0.00653
6132.53034,0.01793
6134.45880,0.07899
6136.38727,0.12717
6138.31574,0.12071
6140.24421,0.07858
6142.17268,0.06403
6144.10115,0.05888
6146.02962,0.01833
6147.95809,-0.00328
6149.88655,0.03989
6151.81502,0.10576
6153.74349,0.12775
6155.67196,0.10575
6157.60043,0.08599
6159.52890,0.07982
6161.45737,0.05308
6163.38583,0.01087
6165.31430,-0.00358
6167.24277,-0.00136
6169.17124,-0.00299
6171.09971,0.00687
6173.02818,0.03250
6174.95665,0.05691
6176.88512,0.05320
6178.81358,0.00855
6180.74205,-0.02829
6182.67052,-0.01280
6184.59899,0.01593
6186.52746,0.01307
6188.45593,0.00598
6190.38440,0.03360
6192.31286,0.06519
6194.24133,0.08267
6196.16980,0.09506
6198.09827,0.08329
6200.02674,0.06546
6201.95521,0.06555
6203.88368,0.05838
6205.81215,0.05460
6207.74061,0.05667
6209.66908,0.01660
6211.59755,-0.02793
6213.52602,-0.02015
6215.45449,0.01400
6217.38296,0.06421
6219.31143,0.10050
6221.23989,0.07852
6223.16836,0.01808
6225.09683,-0.02686
6227.02530,-0.03657
6228.95377,-0.00697
6230.88224,0.05230
6232.81071,0.07834
6234.73918,0.04318
6236.66764,-0.00545
6238.59611,-0.03442
6240.52458,-0.03345
6242.45305,-0.01028
6244.38152,0.01055
6246.30999,0.01599
6248.23846,0.00470
6250.16692,-0.01055
6252.09539,0.01291
6254.02386,0.05607
6255.95233,0.05959
6257.88080,0.04237
6259.80927,0.03577
6261.73774,0.02753
6263.66621,0.01909
6265.59467,0.03017
6267.52314,0.05456
6269.45161,0.06689
6271.38008,0.06746
6273.30855,0.05449
6275.23702,0.03186
6277.16549,0.02319
6279.09395,0.01195
6281.02242,-0.01212
6282.95089,-0.02005
6284.87936,0.00604
6286.80783,0.07008
6288.73630,0.13117
6290.66477,0.13676
6292.59323,0.09210
6294.52170,0.01085
6296.45017,-0.05073
6298.37864,-0.04621
6300.30711,-0.02991
6302.23558,-0.03034
6304.16405,-0.02213
6306.09252,0.01123
6308.02098,0.08594
6309.94945,0.14779
6311.87792,0.13530
6313.80639,0.10312
6315.73486,0.11299
6317.66333,0.14711
6319.59180,0.15896
6321.52026,0.12562
6323.44873,0.07842
6325.37720,0.05495
6327.30567,0.04042
6329.23414,0.01951
6331.16261,0.01814
6333.09108,0.04866
6335.01955,0.07768
6336.94801,0.07483
6338.87648,0.05076
6340.80495,0.02821
6342.73342,0.00984
6344.66189,0.00421
6346.59036,0.02513
6348.51883,0.03677
6350.44729,-0.00908
6352.37576,-0.05826
6354.30423,-0.03565
6356.23270,0.01893
6358.16117,0.04696
6360.08964,0.04374
6362.01811,0.01904
6363.94658,-0.01155
6365.87504,-0.02840
6367.80351,-0.03314
6369.73198,-0.01629
6371.66045,0.02615
6373.58892,0.07538
6375.51739,0.10910
6377.44586,0.10227
6379.37432,0.06170
6381.30279,0.03179
6383.23126,0.04746
6385.15973,0.06648
6387.08820,0.04871
6389.01667,0.02717
6390.94514,0.02776
6392.87361,0.04353
6394.80207,0.02280
6396.73054,-0.02658
6398.65901,-0.02611
6400.58748,0.01616
6402.51595,0.04791
6404.44442,0.07753
6406.37289,0.10173
6408.30135,0.09202
6410.22982,0.08152
6412.15829,0.11904
6414.08676,0.15289
6416.01523,0.10306
6417.94370,0.01458
6419.87217,-0.01185
6421.80064,-0.01031
6423.72910,-0.01970
6425.65757,-0.01094
6427.58604,-0.01413
6429.51451,-0.04940
6431.44298,-0.03430
6433.37145,0.03322
6435.29992,0.04772
6437.22838,-0.00126
6439.15685,-0.03920
6441.08532,-0.02345
6443.01379,0.04277
6444.94226,0.09119
6446.87073,0.06386
6448.79920,0.00537
6450.72766,-0.01657
6452.65613,-0.00074
6454.58460,-0.00070
6456.51307,-0.02750
6458.44154,-0.06449
6460.37001,-0.08089
6462.29848,-0.03592
6464.22695,0.03982
6466.15541,0.08182
6468.08388,0.09076
6470.01235,0.09434
6471.94082,0.07434
6473.86929,0.02819
6475.79776,-0.01029
6477.72623,-0.00961
6479.65469,0.05236
6481.58316,0.13594
6483.51163,0.14934
6485.44010,0.09208
6487.36857,0.04609
6489.29704,0.03413
6491.22551,0.03033
6493.15398,0.03466
6495.08244,0.03733
6497.01091,0.00497
6498.93938,-0.06070
6500.86785,-0.10882
6502.79632,-0.09105
6504.72479,-0.04959
6506.65326,-0.04100
6508.58172,-0.01802
6510.51019,0.06567
6512.43866,0.12779
6514.36713,0.10201
6516.29560,0.03842
6518.22407,-0.00342
6520.15254,-0.00857
6522.08101,0.01259
6524.00947,0.03895
6525.93794,0.05516
6527.86641,0.07228
6529.79488,0.08660
6531.72335,0.08426
6533.65182,0.07295
6535.58029,0.05440
6537.50875,0.01083
6539.43722,-0.02870
6541.36569,-0.00836
6543.29416,0.02068
6545.22263,-0.00006
6547.15110,-0.03086
6549.07957,-0.04917
6551.00804,-0.04335
6552.93650,0.01623
6554.86497,0.09666
6556.79344,0.09801
6558.72191,0.01508
6560.65038,-0.03998
6562.57885,-0.03627
6564.50732,0.00333
6566.43578,0.07221
6568.36425,0.08789
6570.29272,0.03035
6572.22119,0.00976
6574.14966,0.04787
6576.07813,0.09328
6578.00660,0.10992
6579.93507,0.10398
6581.86353,0.08910
6583.79200,0.05914
6585.72047,0.04674
6587.64894,0.06551
6589.57741,0.07777
6591.50588,0.07841
6593.43435,0.05577
6595.36281,0.01820
6597.29128,-0.01527
6599.21975,-0.04481
6601.14822,-0.02710
6603.07669,0.00663
6605.00516,0.00397
6606.93363,-0.01917
6608.86210,-0.04929
6610.79056,-0.03068
6612.71903,0.05146
6614.64750,0.11229
6616.57597,0.08058
6618.50444,0.00377
6620.43291,-0.02583
6622.36138,0.00205
6624.28984,0.03366
6626.21831,0.02341
6628.14678,0.02028
6630.07525,0.07765
6632.00372,0.10086
6633.93219,0.03283
6635.86066,-0.01335
6637.78912,0.02396
6639.71759,0.05655
6641.64606,0.04486
6643.57453,0.01316
6645.50300,0.00437
6647.43147,0.02007
6649.35994,0.01182
6651.28841,-0.01709
6653.21687,-0.06405
6655.14534,-0.14465
6657.07381,-0.18206
6659.00228,-0.11077
6660.93075,0.01343
6662.85922,0.10009
6664.78769,0.10640
6666.71615,0.09084
6668.64462,0.10504
6670.57309,0.12263
6672.50156,0.10036
6674.43003,0.05167
6676.35850,0.04207
6678.28697,0.09153
6680.21544,0.16872
6682.14390,0.21462
6684.07237,0.17204
6686.00084,0.07799
6687.92931,0.02031
6689.85778,0.03864
6691.78625,0.10669
6693.71472,0.15652
6695.64318,0.16363
6697.57165,0.14453
6699.50012,0.09391
6701.42859,0.04786
6703.35706,0.06220
6705.28553,0.09361
6707.21400,0.10285
6709.14247,0.12676
6711.07093,0.14346
6712.99940,0.11391
6714.92787,0.06576
6716.85634,0.05336
6718.78481,0.10630
6720.71328,0.16214
6722.64175,0.16250
6724.57021,0.12602
6726.49868,0.07739
6728.42715,0.05578
6730.35562,0.04001
6732.28409,-0.02057
6734.21256,-0.06720
6736.14103,-0.00424
6738.06950,0.10285
6739.99796,0.13655
6741.92643,0.10649
6743.85490,0.05563
6745.78337,0.01567
6747.71184,0.03521
6749.64031,0.07967
6751.56878,0.08886
6753.49724,0.07384
6755.42571,0.05826
6757.35418,0.09512
6759.28265,0.17789
6761.21112,0.19657
6763.13959,0.14611
6765.06806,0.06313
6766.99653,-0.01682
6768.92499,-0.00457
6770.85346,0.02896
6772.78193,0.00045
6774.71040,-0.03165
6776.63887,-0.04447
6778.56734,-0.03048
6780.49581,0.00756
6782.42427,0.02111
6784.35274,0.01085
6786.28121,0.01432
6788.20968,0.01795
6790.13815,-0.01846
6792.06662,-0.05842
6793.99509,-0.06046
6795.92355,-0.03740
6797.85202,0.02836
6799.78049,0.10091
6801.70896,0.13372
6803.63743,0.15110
6805.56590,0.16419
6807.49437,0.16883
6809.42284,0.17202
6811.35130,0.15001
6813.27977,0.09213
6815.20824,0.04034
6817.13671,0.01598
6819.06518,0.01447
6820.99365,0.02694
6822.92212,0.04257
6824.85058,0.05742
6826.77905,0.08166
6828.70752,0.11108
6830.63599,0.11532
6832.56446,0.09737
6834.49293,0.06201
6836.42140,0.04442
6838.34987,0.08371
6840.27833,0.08204
6842.20680,0.02417
6844.13527,0.00637
6846.06374,0.03672
6847.99221,0.08450
6849.92068,0.13928
6851.84915,0.15599
6853.77761,0.09517
6855.70608,-0.01126
6857.63455,-0.05738
6859.56302,-0.01363
6861.49149,0.05356
6863.41996,0.07614
6865.34843,0.05238
6867.27690,0.02435
6869.20536,0.01791
6871.13383,0.02275
6873.06230,0.03672
6874.99077,0.04290
6876.91924,0.02828
6878.84771,0.01254
6880.77618,0.02732
6882.70464,0.09499
6884.63311,0.17909
6886.56158,0.19768
6888.49005,0.12001
6890.41852,0.01503
6892.34699,-0.01862
6894.27546,0.02526
6896.20393,0.06457
6898.13239,0.04308
6900.06086,-0.00404
6901.98933,-0.01992
6903.91780,-0.00991
6905.84627,-0.01923
6907.77474,-0.01280
6909.70321,0.07098
6911.63167,0.13328
6913.56014,0.05547
6915.48861,-0.06435
6917.41708,-0.10776
6919.34555,-0.06889
6921.27402,0.01150
6923.20249,0.03744
6925.13096,-0.00417
6927.05942,-0.02129
6928.98789,0.01036
6930.91636,0.02920
6932.84483,0.03277
6934.77330,0.06743
6936.70177,0.10187
6938.63024,0.08220
6940.55870,0.02130
6942.48717,-0.01392
6944.41564,-0.00130
6946.34411,0.06299
6948.27258,0.12249
6950.20105,0.09477
6952.12952,0.02042
6954.05799,-0.01312
6955.98645,0.00834
6957.91492,0.05733
6959.84339,0.12296
6961.77186,0.17042
6963.70033,0.17782
6965.62880,0.16571
6967.55727,0.16781
6969.48573,0.18947
6971.41420,0.14734
6973.34267,0.02103
6975.27114,-0.05227
6977.19961,0.00663
6979.12808,0.12154
6981.05655,0.21051
6982.98501,0.25071
6984.91348,0.27960
6986.84195,0.32582
6988.77042,0.34078
6990.69889,0.23728
6992.62736,0.07667
6994.55583,0.04331
6996.48430,0.12347
6998.41276,0.07717
7000.34123,-0.08024
7002.26970,-0.10913
7004.19817,-0.00862
7006.12664,0.05987
7008.05511,0.00498
7009.98358,-0.04431
7011.91204,0.03762
7013.84051,0.11380
7015.76898,0.01735
7017.69745,-0.08465
7019.62592,-0.04923
7021.55439,0.02938
7023.48286,0.03005
7025.41133,-0.03435
7027.33979,-0.05819
7029.26826,0.00333
7031.19673,0.05532
7033.12520,0.05447
7035.05367,0.02493
7036.98214,-0.03799
7038.91061,-0.04946
7040.83907,0.07427
7042.76754,0.23371
7044.69601,0.25788
7046.62448,0.16266
7048.55295,0.05914
7050.48142,0.01446
7052.40989,0.02318
7054.33836,0.04647
7056.26682,0.02224
7058.19529,-0.01015
7060.12376,0.00500
7062.05223,0.02085
7063.98070,0.07247
7065.90917,0.15672
7067.83764,0.16273
7069.76610,0.06116
7071.69457,-0.05202
7073.62304,-0.09236
7075.55151,-0.06558
7077.47998,0.01416
7079.40845,0.09692
7081.33692,0.07832
7083.26539,0.00272
7085.19385,-0.00598
7087.12232,0.01098
7089.05079,0.00310
7090.97926,-0.02243
7092.90773,-0.07056
7094.83620,-0.08844
7096.76467,-0.02861
7098.69313,0.05976
7100.62160,0.13758
7102.55007,0.23078
7104.47854,0.28077
7106.40701,0.22269
7108.33548,0.14205
7110.26395,0.07111
7112.19242,-0.02280
7114.12088,-0.07779
7116.04935,-0.06231
7117.97782,-0.04787
7119.90629,-0.02789
7121.83476,0.09588
7123.76323,0.21160
7125.69170,0.16812
7127.62016,0.06071
7129.54863,0.01330
7131.47710,0.05287
7133.40557,0.18570
7135.33404,0.25331
7137.26251,0.13710
7139.19098,-0.05727
7141.11944,-0.18012
7143.04791,-0.16904
7144.97638,-0.03263
7146.90485,0.07960
7148.83332,0.06118
7150.76179,0.05172
7152.69026,0.11892
7154.61873,0.13091
7156.54719,0.03312
7158.47566,-0.06990
7160.40413,-0.13075
7162.33260,-0.14043
7164.26107,-0.05671
7166.18954,0.05869
7168.11801,0.06652
7170.04647,0.06451
7171.97494,0.17513
7173.90341,0.22896
7175.83188,0.13465
7177.76035,0.05513
7179.68882,0.05906
7181.61729,0.03125
7183.54576,-0.07332
7185.47422,-0.08415
7187.40269,0.07661
7189.33116,0.26931
7191.25963,0.29215
7193.18810,0.15755
7195.11657,0.06548
7197.04504,0.02724
7198.97350,-0.00592
7200.90197,-0.02744
7202.83044,-0.02926
7204.75891,-0.00956
7206.68738,-0.05351
7208.61585,-0.13939
7210.54432,-0.10652
7212.47279,0.03117
7214.40125,0.09436
7216.32972,0.03451
7218.25819,0.00331
7220.18666,0.06803
7222.11513,0.10232
7224.04360,0.10200
7225.97207,0.07233
7227.90053,-0.01176
7229.82900,-0.10141
7231.75747,-0.15755
7233.68594,-0.14774
7235.61441,-0.08161
7237.54288,-0.04526
7239.47135,-0.06714
7241.39982,-0.07752
7243.32828,-0.04726
7245.25675,0.00875
7247.18522,0.08738
7249.11369,0.15883
7251.04216,0.19692
7252.97063,0.20348
7254.89910,0.16028
7256.82756,0.14590
7258.75603,0.19293
7260.68450,0.19906
7262.61297,0.12371
7264.54144,0.08718
7266.46991,0.11925
7268.39838,0.20752
7270.32685,0.33944
7272.25531,0.34288
7274.18378,0.13141
7276.11225,0.00166
7278.04072,0.03578
7279.96919,0.11164
7281.89766,0.15932
7283.82613,0.19115
7285.75459,0.16207
7287.68306,0.10577
7289.61153,0.09152
7291.54000,0.08733
7293.46847,0.06344
7295.39694,0.08483
7297.32541,0.12566
7299.25387,0.10257
7301.18234,0.05807
7303.11081,0.01983
7305.03928,-0.09424
7306.96775,-0.27510
7308.89622,-0.35370
7310.82469,-0.27844
7312.75316,-0.17626
7314.68162,-0.01399
7316.61009,0.23941
7318.53856,0.36054
7320.46703,0.27068
7322.39550,0.10979
7324.32397,0.03782
7326.25244,0.06364
7328.18090,0.09294
7330.10937,0.08782
7332.03784,0.03176
7333.96631,0.02761
7335.89478,0.12246
7337.82325,0.21369
7339.75172,0.20793
7341.68019,0.09531
7343.60865,-0.03336
7345.53712,-0.11596
7347.46559,-0.13229
7349.39406,-0.16606
7351.32253,-0.21642
7353.25100,-0.20745
7355.17947,-0.17839
7357.10793,-0.15671
7359.03640,-0.04921
7360.96487,0.09016
7362.89334,0.15598
7364.82181,0.20014
7366.75028,0.15723
7368.67875,0.04376
7370.60722,-0.03774
7372.53568,-0.10769
7374.46415,-0.15629
7376.39262,-0.09824
7378.32109,0.07584
7380.24956,0.27526
7382.17803,0.30234
7384.10650,0.18847
7386.03496,0.19560
7387.96343,0.23404
7389.89190,0.10418
7391.82037,-0.04331
7393.74884,-0.03071
7395.67731,0.12380
7397.60578,0.23923
7399.53425,0.24157
7401.46271,0.23777
7403.39118,0.24774
7405.31965,0.14879
7407.24812,-0.00126
7409.17659,-0.03353
7411.10506,0.02822
7413.03353,0.05256
7414.96199,0.04975
7416.89046,0.09581
7418.81893,0.06581
7420.74740,-0.11811
7422.67587,-0.15806
7424.60434,-0.05748
7426.53281,0.02427
7428.46128,-0.00511
7430.38974,-0.07804
7432.31821,0.00290
7434.24668,0.13481
7436.17515,0.20242
7438.10362,0.21136
7440.03209,0.15112
7441.96056,0.07541
7443.88902,-0.01601
7445.81749,-0.08975
7447.74596,-0.07993
7449.67443,-0.04159
7451.60290,0.00752
7453.53137,0.04985
7455.45984,0.00787
7457.38831,-0.05560
7459.31677,-0.07063
7461.24524,-0.08962
7463.17371,-0.15623
7465.10218,-0.18928
7467.03065,-0.08930
7468.95912,0.05558
7470.88759,0.09905
7472.81605,0.07196
7474.74452,0.07012
7476.67299,0.09550
7478.60146,0.16150
7480.52993,0.18317
7482.45840,0.06501
7484.38687,-0.05304
7486.31533,-0.08206
7488.24380,-0.09415
7490.17227,-0.11801
7492.10074,-0.11444
7494.02921,-0.09860
7495.95768,-0.06188
7497.88615,0.03037
