399.19301,1.68233
401.12148,0.53297
403.04995,0.32655
404.97842,0.14049
406.90689,0.02735
408.83536,-0.03044
410.76382,-0.09363
412.69229,-0.10366
414.62076,0.01333
416.54923,0.17832
418.47770,0.26780
420.40617,0.18927
422.33464,0.09469
424.26311,0.05446
426.19157,0.04513
428.12004,0.04823
430.04851,0.03276
431.97698,-0.02249
433.90545,-0.06407
435.83392,-0.07032
437.76239,-0.05907
439.69085,-0.00190
441.61932,0.09371
443.54779,0.15410
445.47626,0.17757
447.40473,0.16150
449.33320,0.08907
451.26167,0.02428
453.19013,-0.00072
455.11860,-0.01078
457.04707,-0.01076
458.97554,0.00474
460.90401,0.00876
462.83248,0.01283
464.76095,0.06220
466.68942,0.12053
468.61788,0.12234
470.54635,0.08901
472.47482,0.10461
474.40329,0.17129
476.33176,0.10894
478.26023,0.02476
480.18870,0.00329
482.11716,0.00263
484.04563,0.01454
485.97410,0.05956
487.90257,0.10190
489.83104,0.10463
491.75951,0.07779
493.68798,0.05663
495.61645,0.07323
497.54491,0.10820
499.47338,0.10530
501.40185,0.06939
503.33032,0.04517
505.25879,0.04163
507.18726,0.04888
509.11573,0.06482
511.04419,0.07764
512.97266,0.08306
514.90113,0.08484
516.82960,0.08129
518.75807,0.05759
520.68654,0.01871
522.61501,0.00581
524.54348,0.02397
526.47194,0.03319
528.40041,0.03223
530.32888,0.02821
532.25735,0.00368
534.18582,-0.02926
536.11429,-0.04221
538.04276,-0.03409
539.97122,-0.01512
541.89969,0.01244
543.82816,0.04164
545.75663,0.05874
547.68510,0.05272
549.61357,0.03357
551.54204,0.02632
553.47051,0.02411
555.39897,0.01140
557.32744,0.00550
559.25591,0.02883
561.18438,0.06372
563.11285,0.07607
565.04132,0.07943
566.96979,0.09089
568.89825,0.09457
570.82672,0.08510
572.75519,0.05740
574.68366,0.02757
576.61213,0.02366
578.54060,0.02386
580.46907,0.01297
582.39754,0.01044
584.32600,0.01652
586.25447,0.02668
588.18294,0.04463
590.11141,0.05262
592.03988,0.04334
593.96835,0.04254
595.89682,0.04916
597.82528,0.03978
599.75375,0.02127
601.68222,0.00737
603.61069,0.00011
605.53916,0.00551
607.46763,0.01897
609.39610,0.03025
611.32456,0.04416
613.25303,0.06413
615.18150,0.07327
617.10997,0.05801
619.03844,0.02937
620.96691,0.00977
622.89538,0.01295
624.82385,0.03063
626.75231,0.04854
628.68078,0.05587
630.60925,0.04702
632.53772,0.03836
634.46619,0.04663
636.39466,0.05412
638.32313,0.04584
640.25159,0.03541
642.18006,0.02770
644.10853,0.02204
646.03700,0.02680
647.96547,0.03228
649.89394,0.03666
651.82241,0.04832
653.75088,0.04556
655.67934,0.02907
657.60781,0.02926
659.53628,0.03768
661.46475,0.03507
663.39322,0.03124
665.32169,0.03797
667.25016,0.04823
669.17862,0.04082
671.10709,0.03198
673.03556,0.02782
674.96403,0.02265
676.89250,0.02885
678.82097,0.04479
680.74944,0.05133
682.67791,0.04404
684.60637,0.03749
686.53484,0.04250
688.46331,0.05230
690.39178,0.05462
692.32025,0.05205
694.24872,0.05062
696.17719,0.04504
698.10565,0.03549
700.03412,0.03622
701.96259,0.04882
703.89106,0.05547
705.81953,0.05075
707.74800,0.04156
709.67647,0.02708
711.60494,0.01306
713.53340,0.01592
715.46187,0.03355
717.39034,0.04696
719.31881,0.04970
721.24728,0.04689
723.17575,0.04287
725.10422,0.03705
727.03268,0.03147
728.96115,0.03180
730.88962,0.03666
732.81809,0.04107
734.74656,0.04431
736.67503,0.04633
738.60350,0.04310
740.53197,0.03610
742.46043,0.03603
744.38890,0.04663
746.31737,0.05445
748.24584,0.04961
750.17431,0.04179
752.10278,0.03866
754.03125,0.03678
755.95971,0.03918
757.88818,0.05066
759.81665,0.05760
761.74512,0.05166
763.67359,0.04677
765.60206,0.04883
767.53053,0.05136
769.45900,0.04850
771.38746,0.03981
773.31593,0.03632
775.24440,0.04308
777.17287,0.04635
779.10134,0.03933
781.02981,0.03390
782.95828,0.03842
784.88674,0.04779
786.81521,0.04931
788.74368,0.04400
790.67215,0.04659
792.60062,0.05469
794.52909,0.05321
796.45756,0.03799
798.38602,0.02486
800.31449,0.02985
802.24296,0.04460
804.17143,0.05248
806.09990,0.05234
808.02837,0.05242
809.95684,0.05682
811.88531,0.06105
813.81377,0.05860
815.74224,0.04825
817.67071,0.03897
819.59918,0.03780
821.52765,0.03910
823.45612,0.03899
825.38459,0.04034
827.31305,0.04167
829.24152,0.04026
831.16999,0.03708
833.09846,0.03426
835.02693,0.03567
836.95540,0.03971
838.88387,0.04329
840.81234,0.04771
842.74080,0.05050
844.66927,0.05218
846.59774,0.05578
848.52621,0.05697
850.45468,0.05412
852.38315,0.05110
854.31162,0.04646
856.24008,0.03809
858.16855,0.03251
860.09702,0.03705
862.02549,0.04481
863.95396,0.04733
865.88243,0.04874
867.81090,0.04467
869.73937,0.03083
871.66783,0.02240
873.59630,0.02758
875.52477,0.03725
877.45324,0.04502
879.38171,0.04944
881.31018,0.04709
883.23865,0.04152
885.16711,0.04090
887.09558,0.04539
889.02405,0.05042
890.95252,0.05345
892.88099,0.05433
894.80946,0.05309
896.73793,0.05032
898.66640,0.04718
900.59486,0.04626
902.52333,0.04806
904.45180,0.04700
906.38027,0.04485
908.30874,0.04822
910.23721,0.05119
912.16568,0.04775
914.09414,0.04201
916.02261,0.03896
917.95108,0.04240
919.87955,0.04957
921.80802,0.05503
923.73649,0.05887
925.66496,0.05970
927.59343,0.05759
929.52189,0.05731
931.45036,0.05642
933.37883,0.05063
935.30730,0.04758
937.23577,0.04989
939.16424,0.04944
941.09271,0.04699
943.02117,0.04905
944.94964,0.05539
946.87811,0.05939
948.80658,0.05754
950.73505,0.05089
952.66352,0.04260
954.59199,0.04041
956.52045,0.04622
958.44892,0.05239
960.37739,0.05047
962.30586,0.04039
964.23433,0.03298
966.16280,0.03506
968.09127,0.04274
970.01974,0.05131
971.94820,0.05872
973.87667,0.06363
975.80514,0.06544
977.73361,0.06256
979.66208,0.05692
981.59055,0.05500
983.51902,0.05393
985.44748,0.04938
987.37595,0.04606
989.30442,0.04342
991.23289,0.03829
993.16136,0.03529
995.08983,0.03887
997.01830,0.04348
998.94677,0.04277
1000.87523,0.04315
1002.80370,0.04685
1004.73217,0.04809
1006.66064,0.04918
1008.58911,0.05274
1010.51758,0.05567
1012.44605,0.05401
1014.37451,0.04995
1016.30298,0.04771
1018.23145,0.04503
1020.15992,0.04243
1022.08839,0.04219
1024.01686,0.04323
1025.94533,0.04386
1027.87380,0.04213
1029.80226,0.04048
1031.73073,0.04186
1033.65920,0.04449
1035.58767,0.04843
1037.51614,0.05356
1039.44461,0.05286
1041.37308,0.04508
1043.30154,0.04014
1045.23001,0.04145
1047.15848,0.04232
1049.08695,0.03958
1051.01542,0.04098
1052.94389,0.05064
1054.87236,0.05644
1056.80083,0.05147
1058.72929,0.04670
1060.65776,0.04879
1062.58623,0.05013
1064.51470,0.04996
1066.44317,0.05251
1068.37164,0.05205
1070.30011,0.04884
1072.22857,0.04856
1074.15704,0.04735
1076.08551,0.04393
1078.01398,0.04453
1079.94245,0.04732
1081.87092,0.04757
1083.79939,0.04948
1085.72786,0.05298
1087.65632,0.05317
1089.58479,0.05400
1091.51326,0.05851
1093.44173,0.05927
1095.37020,0.05448
1097.29867,0.05237
1099.22714,0.05382
1101.15560,0.05476
1103.08407,0.05610
1105.01254,0.05537
1106.94101,0.04967
1108.86948,0.04583
1110.79795,0.04609
1112.72642,0.04542
1114.65489,0.04365
1116.58335,0.04179
1118.51182,0.04374
1120.44029,0.05226
1122.36876,0.06106
1124.29723,0.06449
1126.22570,0.06329
1128.15417,0.06011
1130.08263,0.05549
1132.01110,0.04941
1133.93957,0.04461
1135.86804,0.04486
1137.79651,0.04954
1139.72498,0.05367
1141.65345,0.05427
1143.58191,0.05299
1145.51038,0.05157
1147.43885,0.05134
1149.36732,0.05305
1151.29579,0.05246
1153.22426,0.05014
1155.15273,0.05237
1157.08120,0.05615
1159.00966,0.05629
1160.93813,0.05472
1162.86660,0.05260
1164.79507,0.04983
1166.72354,0.04793
1168.65201,0.04867
1170.58048,0.05160
1172.50894,0.05382
1174.43741,0.05558
1176.36588,0.05769
1178.29435,0.05776
1180.22282,0.05617
1182.15129,0.05534
1184.07976,0.05585
1186.00823,0.05625
1187.93669,0.05519
1189.86516,0.05309
1191.79363,0.05144
1193.72210,0.05047
1195.65057,0.04812
1197.57904,0.04695
1199.50751,0.05118
1201.43597,0.05616
1203.36444,0.05779
1205.29291,0.05805
1207.22138,0.05756
1209.14985,0.05634
1211.07832,0.05499
1213.00679,0.05343
1214.93526,0.05167
1216.86372,0.05053
1218.79219,0.05158
1220.72066,0.05378
1222.64913,0.05406
1224.57760,0.05189
1226.50607,0.04984
1228.43454,0.05033
1230.36300,0.05179
1232.29147,0.05230
1234.21994,0.05269
1236.14841,0.05266
1238.07688,0.05208
1240.00535,0.05266
1241.93382,0.05407
1243.86229,0.05464
1245.79075,0.05378
1247.71922,0.05116
1249.64769,0.04795
1251.57616,0.04677
1253.50463,0.04805
1255.43310,0.04946
1257.36157,0.04925
1259.29003,0.04940
1261.21850,0.05143
1263.14697,0.05275
1265.07544,0.05324
1267.00391,0.05576
1268.93238,0.05937
1270.86085,0.06076
1272.78932,0.05944
1274.71778,0.05653
1276.64625,0.05301
1278.57472,0.05031
1280.50319,0.04917
1282.43166,0.04952
1284.36013,0.05158
1286.28860,0.05413
1288.21706,0.05460
1290.14553,0.05381
1292.07400,0.05503
1294.00247,0.05703
1295.93094,0.05656
1297.85941,0.05487
1299.78788,0.05335
1301.71634,0.04999
1303.64481,0.04572
1305.57328,0.04583
1307.50175,0.05133
1309.43022,0.05665
1311.35869,0.05888
1313.28716,0.05895
1315.21563,0.05781
1317.14409,0.05687
1319.07256,0.05588
1321.00103,0.05482
1322.92950,0.05529
1324.85797,0.05653
1326.78644,0.05650
1328.71491,0.05574
1330.64337,0.05497
1332.57184,0.05372
1334.50031,0.05303
1336.42878,0.05454
1338.35725,0.05896
1340.28572,0.06286
1342.21419,0.06242
1344.14266,0.05977
1346.07112,0.05707
1347.99959,0.05549
1349.92806,0.05360
1351.85653,0.05056
1353.78500,0.05000
1355.71347,0.05318
1357.64194,0.05760
1359.57040,0.06003
1361.49887,0.05810
1363.42734,0.05325
1365.35581,0.05146
1367.28428,0.05355
1369.21275,0.05518
1371.14122,0.05568
1373.06969,0.05737
1374.99815,0.05958
1376.92662,0.06078
1378.85509,0.06078
1380.78356,0.05968
1382.71203,0.05918
1384.64050,0.05995
1386.56897,0.06044
1388.49743,0.05929
1390.42590,0.05622
1392.35437,0.05384
1394.28284,0.05627
1396.21131,0.06169
1398.13978,0.06380
1400.06825,0.06370
1401.99672,0.06435
1403.92518,0.06510
1405.85365,0.06460
1407.78212,0.06239
1409.71059,0.06015
1411.63906,0.05887
1413.56753,0.05864
1415.49600,0.06077
1417.42446,0.06440
1419.35293,0.06506
1421.28140,0.06272
1423.20987,0.06143
1425.13834,0.06155
1427.06681,0.06255
1428.99528,0.06386
1430.92375,0.06417
1432.85221,0.06458
1434.78068,0.06522
1436.70915,0.06250
1438.63762,0.05901
1440.56609,0.05852
1442.49456,0.05827
1444.42303,0.05860
1446.35149,0.06217
1448.27996,0.06610
1450.20843,0.06594
1452.13690,0.06460
1454.06537,0.06536
1455.99384,0.07063
1457.92231,0.07596
1459.85077,0.07002
1461.77924,0.06338
1463.70771,0.06201
1465.63618,0.06297
1467.56465,0.06229
1469.49312,0.06271
1471.42159,0.06542
1473.35006,0.06746
1475.27852,0.06648
1477.20699,0.06467
1479.13546,0.06483
1481.06393,0.06559
1482.99240,0.06509
1484.92087,0.06698
1486.84934,0.07298
1488.77780,0.07927
1490.70627,0.07711
1492.63474,0.06980
1494.56321,0.06829
1496.49168,0.07312
1498.42015,0.07698
1500.34862,0.07574
1502.27709,0.07300
1504.20555,0.07461
1506.13402,0.08361
1508.06249,0.08516
1509.99096,0.07608
1511.91943,0.07024
1513.84790,0.07124
1515.77637,0.07721
1517.70483,0.08000
1519.63330,0.07880
1521.56177,0.07674
1523.49024,0.07170
1525.41871,0.06793
1527.34718,0.06672
1529.27565,0.06721
1531.20412,0.07125
1533.13258,0.07670
1535.06105,0.07650
1536.98952,0.07669
1538.91799,0.08518
1540.84646,0.09242
1542.77493,0.08467
1544.70340,0.07593
1546.63186,0.07055
1548.56033,0.06833
1550.48880,0.06720
1552.41727,0.06624
1554.34574,0.06687
1556.27421,0.06972
1558.20268,0.07403
1560.13115,0.07212
1562.05961,0.06799
1563.98808,0.06713
1565.91655,0.06795
1567.84502,0.06973
1569.77349,0.07012
1571.70196,0.06658
1573.63043,0.06457
1575.55889,0.06520
1577.48736,0.06398
1579.41583,0.06254
1581.34430,0.06102
1583.27277,0.05773
1585.20124,0.05636
1587.12971,0.05819
1589.05818,0.05935
1590.98664,0.05810
1592.91511,0.05640
1594.84358,0.05731
1596.77205,0.05949
1598.70052,0.05906
1600.62899,0.05689
1602.55746,0.05616
1604.48592,0.05736
1606.41439,0.05880
1608.34286,0.05844
1610.27133,0.05728
1612.19980,0.05945
1614.12827,0.06563
1616.05674,0.07191
1617.98521,0.07014
1619.91367,0.06625
1621.84214,0.06833
1623.77061,0.07240
1625.69908,0.07278
1627.62755,0.07068
1629.55602,0.06756
1631.48449,0.06691
1633.41295,0.07188
1635.34142,0.08081
1637.26989,0.07837
1639.19836,0.06801
1641.12683,0.06207
1643.05530,0.06260
1644.98377,0.07044
1646.91223,0.08150
1648.84070,0.08322
1650.76917,0.08423
1652.69764,0.09090
1654.62611,0.08568
1656.55458,0.07581
1658.48305,0.07226
1660.41152,0.07280
1662.33998,0.07152
1664.26845,0.06574
1666.19692,0.06442
1668.12539,0.07096
1670.05386,0.07833
1671.98233,0.07863
1673.91080,0.07493
1675.83926,0.06936
1677.76773,0.06745
1679.69620,0.07094
1681.62467,0.07818
1683.55314,0.08620
1685.48161,0.08344
1687.41008,0.07604
1689.33855,0.07161
1691.26701,0.06845
1693.19548,0.06819
1695.12395,0.07313
1697.05242,0.07984
1698.98089,0.08305
1700.90936,0.08292
1702.83783,0.08224
1704.76629,0.08119
1706.69476,0.07475
1708.62323,0.06699
1710.55170,0.06350
1712.48017,0.06321
1714.40864,0.06714
1716.33711,0.07679
1718.26558,0.08086
1720.19404,0.07489
1722.12251,0.06991
1724.05098,0.06860
1725.97945,0.07003
1727.90792,0.07227
1729.83639,0.07331
1731.76486,0.07341
1733.69332,0.07186
1735.62179,0.06737
1737.55026,0.06701
1739.47873,0.07087
1741.40720,0.07174
1743.33567,0.06797
1745.26414,0.06582
1747.19261,0.06907
1749.12107,0.07494
1751.04954,0.07509
1752.97801,0.06900
1754.90648,0.06490
1756.83495,0.06514
1758.76342,0.06656
1760.69189,0.06721
1762.62035,0.06659
1764.54882,0.06606
1766.47729,0.06751
1768.40576,0.07073
1770.33423,0.07528
1772.26270,0.07747
1774.19117,0.07359
1776.11964,0.06935
1778.04810,0.06744
1779.97657,0.06622
1781.90504,0.06559
1783.83351,0.06649
1785.76198,0.06650
1787.69045,0.06578
1789.61892,0.06877
1791.54738,0.07486
1793.47585,0.07575
1795.40432,0.07242
1797.33279,0.07075
1799.26126,0.06941
1801.18973,0.06708
1803.11820,0.06608
1805.04666,0.06681
1806.97513,0.06743
1808.90360,0.06810
1810.83207,0.06945
1812.76054,0.06995
1814.68901,0.06887
1816.61748,0.06695
1818.54595,0.06512
1820.47441,0.06406
1822.40288,0.06543
1824.33135,0.06824
1826.25982,0.06797
1828.18829,0.06780
1830.11676,0.07042
1832.04523,0.06952
1833.97369,0.06659
1835.90216,0.06666
1837.83063,0.06875
1839.75910,0.07027
1841.68757,0.07083
1843.61604,0.06987
1845.54451,0.06689
1847.47298,0.06407
1849.40144,0.06319
1851.32991,0.06432
1853.25838,0.06567
1855.18685,0.06504
1857.11532,0.06378
1859.04379,0.06509
1860.97226,0.06835
1862.90072,0.07099
1864.82919,0.07312
1866.75766,0.07547
1868.68613,0.07551
1870.61460,0.07114
1872.54307,0.06688
1874.47154,0.06622
1876.40001,0.06715
1878.32847,0.06593
1880.25694,0.06308
1882.18541,0.06226
1884.11388,0.06505
1886.04235,0.06817
1887.97082,0.06853
1889.89929,0.06751
1891.82775,0.06717
1893.75622,0.06815
1895.68469,0.06970
1897.61316,0.06990
1899.54163,0.06804
1901.47010,0.06487
1903.39857,0.06222
1905.32704,0.06272
1907.25550,0.06640
1909.18397,0.06894
1911.11244,0.06784
1913.04091,0.06613
1914.96938,0.06643
1916.89785,0.06824
1918.82632,0.06950
1920.75478,0.06999
1922.68325,0.07059
1924.61172,0.07027
1926.54019,0.06870
1928.46866,0.06682
1930.39713,0.06531
1932.32560,0.06457
1934.25407,0.06397
1936.18253,0.06362
1938.11100,0.06486
1940.03947,0.06760
1941.96794,0.06995
1943.89641,0.06962
1945.82488,0.06737
1947.75335,0.06601
1949.68181,0.06568
1951.61028,0.06540
1953.53875,0.06513
1955.46722,0.06452
1957.39569,0.06390
1959.32416,0.06505
1961.25263,0.06804
1963.18110,0.07040
1965.10956,0.06991
1967.03803,0.06775
1968.96650,0.06710
1970.89497,0.06831
1972.82344,0.06979
1974.75191,0.06945
1976.68038,0.06727
1978.60884,0.06657
1980.53731,0.06798
1982.46578,0.06917
1984.39425,0.06926
1986.32272,0.06840
1988.25119,0.06722
1990.17966,0.06670
1992.10812,0.06644
1994.03659,0.06573
1995.96506,0.06486
1997.89353,0.06398
1999.82200,0.06387
2001.75047,0.06492
2003.67894,0.06608
2005.60741,0.06663
2007.53587,0.06681
2009.46434,0.06684
2011.39281,0.06677
2013.32128,0.06691
2015.24975,0.06734
2017.17822,0.06804
2019.10669,0.06860
2021.03515,0.06846
2022.96362,0.06828
2024.89209,0.06820
2026.82056,0.06707
2028.74903,0.06584
2030.67750,0.06683
2032.60597,0.06884
2034.53444,0.06863
2036.46290,0.06642
2038.39137,0.06575
2040.31984,0.06747
2042.24831,0.06862
2044.17678,0.06833
2046.10525,0.06809
2048.03372,0.06914
2049.96218,0.07081
2051.89065,0.06971
2053.81912,0.06599
2055.74759,0.06403
2057.67606,0.06436
2059.60453,0.06472
2061.53300,0.06567
2063.46147,0.06726
2065.38993,0.06693
2067.31840,0.06563
2069.24687,0.06657
2071.17534,0.06882
2073.10381,0.06962
2075.03228,0.06866
2076.96075,0.06683
2078.88921,0.06466
2080.81768,0.06344
2082.74615,0.06367
2084.67462,0.06468
2086.60309,0.06671
2088.53156,0.06884
2090.46003,0.06919
2092.38850,0.06769
2094.31696,0.06570
2096.24543,0.06451
2098.17390,0.06525
2100.10237,0.06643
2102.03084,0.06564
2103.95931,0.06509
2105.88778,0.06726
2107.81624,0.07024
2109.74471,0.07078
2111.67318,0.06901
2113.60165,0.06794
2115.53012,0.06772
2117.45859,0.06728
2119.38706,0.06667
2121.31553,0.06545
2123.24399,0.06513
2125.17246,0.06747
2127.10093,0.06963
2129.02940,0.06881
2130.95787,0.06711
2132.88634,0.06681
2134.81481,0.06798
2136.74327,0.06884
2138.67174,0.06815
2140.60021,0.06821
2142.52868,0.06991
2144.45715,0.06989
2146.38562,0.06799
2148.31409,0.06821
2150.24255,0.06963
2152.17102,0.06919
2154.09949,0.06792
2156.02796,0.06687
2157.95643,0.06616
2159.88490,0.06641
2161.81337,0.06714
2163.74184,0.06731
2165.67030,0.06677
2167.59877,0.06577
2169.52724,0.06496
2171.45571,0.06509
2173.38418,0.06625
2175.31265,0.06763
2177.24112,0.06916
2179.16958,0.07129
2181.09805,0.07151
2183.02652,0.06961
2184.95499,0.06911
2186.88346,0.06919
2188.81193,0.06839
2190.74040,0.06850
2192.66887,0.06943
2194.59733,0.07027
2196.52580,0.07124
2198.45427,0.07128
2200.38274,0.06951
2202.31121,0.06712
2204.23968,0.06576
2206.16815,0.06501
2208.09661,0.06346
2210.02508,0.06200
2211.95355,0.06206
2213.88202,0.06379
2215.81049,0.06595
2217.73896,0.06732
2219.66743,0.06879
2221.59590,0.07088
2223.52436,0.07166
2225.45283,0.06979
2227.38130,0.06746
2229.30977,0.06665
2231.23824,0.06578
2233.16671,0.06416
2235.09518,0.06432
2237.02364,0.06704
2238.95211,0.07018
2240.88058,0.07262
2242.80905,0.07447
2244.73752,0.07424
2246.66599,0.07065
2248.59446,0.06741
2250.52293,0.06759
2252.45139,0.06847
2254.37986,0.06864
2256.30833,0.06935
2258.23680,0.06943
2260.16527,0.06745
2262.09374,0.06517
2264.02221,0.06495
2265.95067,0.06623
2267.87914,0.06732
2269.80761,0.06811
2271.73608,0.06918
2273.66455,0.07046
2275.59302,0.07062
2277.52149,0.06980
2279.44996,0.07010
2281.37842,0.07112
2283.30689,0.07114
2285.23536,0.06973
2287.16383,0.06738
2289.09230,0.06585
2291.02077,0.06614
2292.94924,0.06803
2294.87770,0.06986
2296.80617,0.06947
2298.73464,0.06855
2300.66311,0.06880
2302.59158,0.06897
2304.52005,0.06959
2306.44852,0.07017
2308.37699,0.06734
2310.30545,0.06122
2312.23392,0.05657
2314.16239,0.05638
2316.09086,0.05841
2318.01933,0.06208
2319.94780,0.06843
2321.87627,0.07213
2323.80473,0.06826
2325.73320,0.06127
2327.66167,0.05604
2329.59014,0.05108
2331.51861,0.04835
2333.44708,0.05331
2335.37555,0.06137
2337.30401,0.06564
2339.23248,0.06690
2341.16095,0.06731
2343.08942,0.06448
2345.01789,0.06102
2346.94636,0.06302
2348.87483,0.06522
2350.80330,0.06378
2352.73176,0.06196
2354.66023,0.06257
2356.58870,0.06349
2358.51717,0.06102
2360.44564,0.05710
2362.37411,0.06142
2364.30258,0.06686
2366.23104,0.06382
2368.15951,0.05942
2370.08798,0.05826
2372.01645,0.05939
2373.94492,0.06231
2375.87339,0.06402
2377.80186,0.06407
2379.73033,0.06595
2381.65879,0.06878
2383.58726,0.06984
2385.51573,0.06986
2387.44420,0.06893
2389.37267,0.06637
2391.30114,0.06489
2393.22961,0.06680
2395.15807,0.06960
2397.08654,0.06922
2399.01501,0.06725
2400.94348,0.06878
2402.87195,0.07208
2404.80042,0.07268
2406.72889,0.07190
2408.65736,0.07134
2410.58582,0.06955
2412.51429,0.06764
2414.44276,0.06821
2416.37123,0.07075
2418.29970,0.07288
2420.22817,0.07198
2422.15664,0.06842
2424.08510,0.06634
2426.01357,0.06676
2427.94204,0.06756
2429.87051,0.06865
2431.79898,0.06983
2433.72745,0.07008
2435.65592,0.06930
2437.58439,0.06928
2439.51285,0.07159
2441.44132,0.07336
2443.36979,0.07211
2445.29826,0.06985
2447.22673,0.06934
2449.15520,0.07118
2451.08367,0.07407
2453.01213,0.07611
2454.94060,0.07657
2456.86907,0.07585
2458.79754,0.07314
2460.72601,0.07034
2462.65448,0.07010
2464.58295,0.06975
2466.51142,0.06842
2468.43988,0.06812
2470.36835,0.06906
2472.29682,0.07092
2474.22529,0.07205
2476.15376,0.07033
2478.08223,0.06776
2480.01070,0.06794
2481.93916,0.06912
2483.86763,0.06816
2485.79610,0.06693
2487.72457,0.06771
2489.65304,0.06997
2491.58151,0.07209
2493.50998,0.07255
2495.43844,0.07183
2497.36691,0.07085
2499.29538,0.06898
2501.22385,0.06655
2503.15232,0.06552
2505.08079,0.06693
2507.00926,0.06853
2508.93773,0.06792
2510.86619,0.06719
2512.79466,0.06843
2514.72313,0.06934
2516.65160,0.06950
2518.58007,0.07123
2520.50854,0.07237
2522.43701,0.07066
2524.36547,0.06881
2526.29394,0.06820
2528.22241,0.06754
2530.15088,0.06737
2532.07935,0.06905
2534.00782,0.07122
2535.93629,0.07171
2537.86476,0.07045
2539.79322,0.06861
2541.72169,0.06739
2543.65016,0.06654
2545.57863,0.06572
2547.50710,0.06570
2549.43557,0.06632
2551.36404,0.06774
2553.29250,0.06955
2555.22097,0.07029
2557.14944,0.07014
2559.07791,0.06982
2561.00638,0.06937
2562.93485,0.06896
2564.86332,0.06910
2566.79179,0.06926
2568.72025,0.06923
2570.64872,0.07034
2572.57719,0.07208
2574.50566,0.07307
2576.43413,0.07293
2578.36260,0.07175
2580.29107,0.07097
2582.21953,0.07191
2584.14800,0.07287
2586.07647,0.07279
2588.00494,0.07360
2589.93341,0.07446
2591.86188,0.07363
2593.79035,0.07281
2595.71882,0.07221
2597.64728,0.06958
2599.57575,0.06729
2601.50422,0.06842
2603.43269,0.06980
2605.36116,0.06949
2607.28963,0.06926
2609.21810,0.07029
2611.14656,0.07289
2613.07503,0.07436
2615.00350,0.07207
2616.93197,0.06969
2618.86044,0.07010
2620.78891,0.06961
2622.71738,0.06681
2624.64585,0.06500
2626.57431,0.06589
2628.50278,0.06805
2630.43125,0.06938
2632.35972,0.06991
2634.28819,0.07037
2636.21666,0.07006
2638.14513,0.06895
2640.07359,0.06800
2642.00206,0.06758
2643.93053,0.06860
2645.85900,0.07045
2647.78747,0.07053
2649.71594,0.06977
2651.64441,0.06945
2653.57288,0.06857
2655.50134,0.06878
2657.42981,0.07136
2659.35828,0.07350
2661.28675,0.07346
2663.21522,0.07258
2665.14369,0.07200
2667.07216,0.07172
2669.00062,0.06995
2670.92909,0.06718
2672.85756,0.06754
2674.78603,0.06969
2676.71450,0.06994
2678.64297,0.07081
2680.57144,0.07334
2682.49990,0.07367
2684.42837,0.07145
2686.35684,0.07028
2688.28531,0.07092
2690.21378,0.07129
2692.14225,0.07076
2694.07072,0.06986
2695.99919,0.06911
2697.92765,0.06966
2699.85612,0.07140
2701.78459,0.07247
2703.71306,0.07218
2705.64153,0.07246
2707.57000,0.07432
2709.49847,0.07488
2711.42693,0.07275
2713.35540,0.07019
2715.28387,0.06835
2717.21234,0.06815
2719.14081,0.07066
2721.06928,0.07392
2722.99775,0.07461
2724.92622,0.07233
2726.85468,0.07032
2728.78315,0.07056
2730.71162,0.07064
2732.64009,0.06849
2734.56856,0.06576
2736.49703,0.06624
2738.42550,0.07038
2740.35396,0.07299
2742.28243,0.07274
2744.21090,0.07244
2746.13937,0.07221
2748.06784,0.07183
2749.99631,0.07156
2751.92478,0.07091
2753.85325,0.07087
2755.78171,0.07308
2757.71018,0.07566
2759.63865,0.07670
2761.56712,0.07713
2763.49559,0.07642
2765.42406,0.07447
2767.35253,0.07319
2769.28099,0.07320
2771.20946,0.07345
2773.13793,0.07289
2775.06640,0.07203
2776.99487,0.07249
2778.92334,0.07424
2780.85181,0.07616
2782.78028,0.07796
2784.70874,0.07820
2786.63721,0.07681
2788.56568,0.07613
2790.49415,0.07480
2792.42262,0.07195
2794.35109,0.07154
2796.27956,0.07453
2798.20802,0.07690
2800.13649,0.07679
2802.06496,0.07642
2803.99343,0.07707
2805.92190,0.07654
2807.85037,0.07512
2809.77884,0.07603
2811.70731,0.07746
2813.63577,0.07632
2815.56424,0.07350
2817.49271,0.07091
2819.42118,0.07072
2821.34965,0.07263
2823.27812,0.07372
2825.20659,0.07324
2827.13505,0.07283
2829.06352,0.07405
2830.99199,0.07558
2832.92046,0.07595
2834.84893,0.07611
2836.77740,0.07562
2838.70587,0.07423
2840.63433,0.07237
2842.56280,0.07010
2844.49127,0.06875
2846.41974,0.06931
2848.34821,0.07195
2850.27668,0.07469
2852.20515,0.07477
2854.13362,0.07386
2856.06208,0.07524
2857.99055,0.07766
2859.91902,0.07825
2861.84749,0.07800
2863.77596,0.07784
2865.70443,0.07709
2867.63290,0.07524
2869.56136,0.07347
2871.48983,0.07466
2873.41830,0.07675
2875.34677,0.07711
2877.27524,0.07726
2879.20371,0.07729
2881.13218,0.07699
2883.06065,0.07558
2884.98911,0.07264
2886.91758,0.07086
2888.84605,0.07102
2890.77452,0.07189
2892.70299,0.07451
2894.63146,0.07690
2896.55993,0.07487
2898.48839,0.07119
2900.41686,0.06901
2902.34533,0.06781
2904.27380,0.06912
2906.20227,0.07277
2908.13074,0.07529
2910.05921,0.07572
2911.98768,0.07591
2913.91614,0.07642
2915.84461,0.07530
2917.77308,0.07304
2919.70155,0.07337
2921.63002,0.07535
2923.55849,0.07525
2925.48696,0.07301
2927.41542,0.06982
2929.34389,0.06799
2931.27236,0.06971
2933.20083,0.07212
2935.12930,0.07144
2937.05777,0.07008
2938.98624,0.07039
2940.91471,0.07060
2942.84317,0.07308
2944.77164,0.07812
2946.70011,0.07847
2948.62858,0.07411
2950.55705,0.07113
2952.48552,0.07060
2954.41399,0.07141
2956.34245,0.07190
2958.27092,0.07048
2960.19939,0.06894
2962.12786,0.07045
2964.05633,0.07502
2965.98480,0.07815
2967.91327,0.07669
2969.84174,0.07390
2971.77020,0.07334
2973.69867,0.07437
2975.62714,0.07575
2977.55561,0.07614
2979.48408,0.07507
2981.41255,0.07456
2983.34102,0.07492
2985.26948,0.07451
2987.19795,0.07391
2989.12642,0.07469
2991.05489,0.07671
2992.98336,0.07890
2994.91183,0.08037
2996.84030,0.08131
2998.76877,0.08167
3000.69723,0.08048
3002.62570,0.07768
3004.55417,0.07444
3006.48264,0.07341
3008.41111,0.07492
3010.33958,0.07493
3012.26805,0.07097
3014.19651,0.06334
3016.12498,0.05588
3018.05345,0.05607
3019.98192,0.06314
3021.91039,0.06892
3023.83886,0.07233
3025.76733,0.07495
3027.69579,0.07565
3029.62426,0.07517
3031.55273,0.07552
3033.48120,0.07851
3035.40967,0.08219
3037.33814,0.08229
3039.26661,0.07962
3041.19508,0.07661
3043.12354,0.07308
3045.05201,0.07048
3046.98048,0.07094
3048.90895,0.07413
3050.83742,0.07862
3052.76589,0.08191
3054.69436,0.08176
3056.62282,0.07861
3058.55129,0.07592
3060.47976,0.07697
3062.40823,0.07991
3064.33670,0.07908
3066.26517,0.07439
3068.19364,0.07182
3070.12211,0.07249
3072.05057,0.07447
3073.97904,0.07546
3075.90751,0.07239
3077.83598,0.06925
3079.76445,0.07025
3081.69292,0.07259
3083.62139,0.07229
3085.54985,0.07042
3087.47832,0.07335
3089.40679,0.08015
3091.33526,0.08244
3093.26373,0.07742
3095.19220,0.06950
3097.12067,0.06477
3099.04914,0.06542
3100.97760,0.06912
3102.90607,0.07300
3104.83454,0.07669
3106.76301,0.07901
3108.69148,0.07717
3110.61995,0.07203
3112.54842,0.06761
3114.47688,0.06719
3116.40535,0.06928
3118.33382,0.07066
3120.26229,0.07243
3122.19076,0.07505
3124.11923,0.07604
3126.04770,0.07458
3127.97617,0.07205
3129.90463,0.07048
3131.83310,0.06988
3133.76157,0.06948
3135.69004,0.07067
3137.61851,0.07282
3139.54698,0.07414
3141.47545,0.07526
3143.40391,0.07743
3145.33238,0.07975
3147.26085,0.07984
3149.18932,0.07810
3151.11779,0.07728
3153.04626,0.07949
3154.97473,0.08252
3156.90320,0.08254
3158.83166,0.08000
3160.76013,0.07643
3162.68860,0.07472
3164.61707,0.07713
3166.54554,0.08081
3168.47401,0.08292
3170.40248,0.08291
3172.33094,0.07997
3174.25941,0.07536
3176.18788,0.07314
3178.11635,0.07451
3180.04482,0.07661
3181.97329,0.07769
3183.90176,0.07830
3185.83022,0.07893
3187.75869,0.07931
3189.68716,0.07912
3191.61563,0.07843
3193.54410,0.07754
3195.47257,0.07665
3197.40104,0.07718
3199.32951,0.07980
3201.25797,0.08134
3203.18644,0.08029
3205.11491,0.07890
3207.04338,0.07857
3208.97185,0.07769
3210.90032,0.07568
3212.82879,0.07558
3214.75725,0.07641
3216.68572,0.07626
3218.61419,0.07733
3220.54266,0.07692
3222.47113,0.07219
3224.39960,0.06966
3226.32807,0.07433
3228.25654,0.07973
3230.18500,0.08073
3232.11347,0.08063
3234.04194,0.08063
3235.97041,0.07932
3237.89888,0.07763
3239.82735,0.07727
3241.75582,0.07635
3243.68428,0.07212
3245.61275,0.06848
3247.54122,0.06993
3249.46969,0.07458
3251.39816,0.07862
3253.32663,0.07976
3255.25510,0.07780
3257.18357,0.07560
3259.11203,0.07550
3261.04050,0.07552
3262.96897,0.07449
3264.89744,0.07401
3266.82591,0.07437
3268.75438,0.07550
3270.68285,0.07656
3272.61131,0.07692
3274.53978,0.07642
3276.46825,0.07445
3278.39672,0.07489
3280.32519,0.07836
3282.25366,0.08005
3284.18213,0.07983
3286.11060,0.07793
3288.03906,0.07616
3289.96753,0.07841
3291.89600,0.07961
3293.82447,0.07508
3295.75294,0.07216
3297.68141,0.07536
3299.60988,0.07789
3301.53834,0.07665
3303.46681,0.07694
3305.39528,0.07990
3307.32375,0.08082
3309.25222,0.07984
3311.18069,0.08129
3313.10916,0.08303
3315.03763,0.08096
3316.96609,0.07730
3318.89456,0.07571
3320.82303,0.07735
3322.75150,0.08075
3324.67997,0.08182
3326.60844,0.07810
3328.53691,0.07306
3330.46537,0.07258
3332.39384,0.07687
3334.32231,0.07979
3336.25078,0.07819
3338.17925,0.07707
3340.10772,0.07922
3342.03619,0.08041
3343.96466,0.07940
3345.89312,0.07975
3347.82159,0.08312
3349.75006,0.08496
3351.67853,0.08071
3353.60700,0.07618
3355.53547,0.07787
3357.46394,0.08017
3359.39240,0.07743
3361.32087,0.07233
3363.24934,0.06789
3365.17781,0.06735
3367.10628,0.07120
3369.03475,0.07470
3370.96322,0.07707
3372.89168,0.07984
3374.82015,0.08032
3376.74862,0.07760
3378.67709,0.07665
3380.60556,0.07899
3382.53403,0.07989
3384.46250,0.07769
3386.39097,0.07503
3388.31943,0.07399
3390.24790,0.07465
3392.17637,0.07568
3394.10484,0.07634
3396.03331,0.07700
3397.96178,0.07713
3399.89025,0.07576
3401.81871,0.07369
3403.74718,0.07297
3405.67565,0.07231
3407.60412,0.07093
3409.53259,0.07242
3411.46106,0.07559
3413.38953,0.07813
3415.31800,0.08085
3417.24646,0.08136
3419.17493,0.07829
3421.10340,0.07443
3423.03187,0.07092
3424.96034,0.06644
3426.88881,0.06540
3428.81728,0.07002
3430.74574,0.07263
3432.67421,0.07154
3434.60268,0.07093
3436.53115,0.06989
3438.45962,0.06742
3440.38809,0.06555
3442.31656,0.06773
3444.24503,0.07481
3446.17349,0.07912
3448.10196,0.07486
3450.03043,0.07100
3451.95890,0.07240
3453.88737,0.07335
3455.81584,0.07383
3457.74431,0.07494
3459.67277,0.07382
3461.60124,0.07244
3463.52971,0.07241
3465.45818,0.07109
3467.38665,0.06904
3469.31512,0.06637
3471.24359,0.06308
3473.17206,0.06355
3475.10052,0.06801
3477.02899,0.07205
3478.95746,0.07348
3480.88593,0.07223
3482.81440,0.07015
3484.74287,0.06917
3486.67134,0.06911
3488.59980,0.06811
3490.52827,0.06623
3492.45674,0.06677
3494.38521,0.06986
3496.31368,0.07158
3498.24215,0.07109
3500.17062,0.07147
3502.09909,0.07239
3504.02755,0.07098
3505.95602,0.06903
3507.88449,0.06898
3509.81296,0.06926
3511.74143,0.06917
3513.66990,0.06983
3515.59837,0.06847
3517.52683,0.06301
3519.45530,0.05931
3521.38377,0.06238
3523.31224,0.06658
3525.24071,0.06617
3527.16918,0.06500
3529.09765,0.06436
3531.02611,0.06104
3532.95458,0.05773
3534.88305,0.05951
3536.81152,0.06528
3538.73999,0.06947
3540.66846,0.07122
3542.59693,0.07192
3544.52540,0.07223
3546.45386,0.07342
3548.38233,0.07284
3550.31080,0.06769
3552.23927,0.06066
3554.16774,0.05531
3556.09621,0.05381
3558.02468,0.05748
3559.95314,0.06374
3561.88161,0.06880
3563.81008,0.07308
3565.73855,0.07549
3567.66702,0.06991
3569.59549,0.06139
3571.52396,0.05781
3573.45243,0.05656
3575.38089,0.05649
3577.30936,0.05768
3579.23783,0.05819
3581.16630,0.06013
3583.09477,0.06608
3585.02324,0.07254
3586.95171,0.07400
3588.88017,0.06943
3590.80864,0.06505
3592.73711,0.06298
3594.66558,0.06100
3596.59405,0.05803
3598.52252,0.05615
3600.45099,0.05667
3602.37946,0.05799
3604.30792,0.05879
3606.23639,0.06028
3608.16486,0.06218
3610.09333,0.06202
3612.02180,0.06112
3613.95027,0.06127
3615.87874,0.06242
3617.80720,0.06559
3619.73567,0.06631
3621.66414,0.06043
3623.59261,0.05678
3625.52108,0.05939
3627.44955,0.06519
3629.37802,0.06751
3631.30649,0.06432
3633.23495,0.05990
3635.16342,0.05472
3637.09189,0.05258
3639.02036,0.05312
3640.94883,0.05188
3642.87730,0.05147
3644.80577,0.05656
3646.73423,0.06641
3648.66270,0.07373
3650.59117,0.06619
3652.51964,0.05437
3654.44811,0.04981
3656.37658,0.05025
3658.30505,0.04822
3660.23352,0.04390
3662.16198,0.04102
3664.09045,0.04058
3666.01892,0.04330
3667.94739,0.04963
3669.87586,0.05664
3671.80433,0.05791
3673.73280,0.05816
3675.66126,0.06159
3677.58973,0.06072
3679.51820,0.05318
3681.44667,0.04629
3683.37514,0.04674
3685.30361,0.05212
3687.23208,0.05601
3689.16055,0.05665
3691.08901,0.05598
3693.01748,0.05448
3694.94595,0.05241
3696.87442,0.05023
3698.80289,0.04901
3700.73136,0.05018
3702.65983,0.05236
3704.58829,0.05287
3706.51676,0.05131
3708.44523,0.04789
3710.37370,0.04584
3712.30217,0.04771
3714.23064,0.04885
3716.15911,0.04993
3718.08757,0.05273
3720.01604,0.05511
3721.94451,0.05680
3723.87298,0.05903
3725.80145,0.05729
3727.72992,0.05159
3729.65839,0.05169
3731.58686,0.06286
3733.51532,0.07655
3735.44379,0.07386
3737.37226,0.06046
3739.30073,0.05268
3741.22920,0.05054
3743.15767,0.05435
3745.08614,0.06046
3747.01460,0.05887
3748.94307,0.05767
3750.87154,0.06210
3752.80001,0.06068
3754.72848,0.05639
3756.65695,0.05645
3758.58542,0.05593
3760.51389,0.05028
3762.44235,0.04594
3764.37082,0.04562
3766.29929,0.04722
3768.22776,0.04910
3770.15623,0.04652
3772.08470,0.03963
3774.01317,0.03718
3775.94163,0.04053
3777.87010,0.04613
3779.79857,0.05054
3781.72704,0.05117
3783.65551,0.05018
3785.58398,0.05040
3787.51245,0.05023
3789.44092,0.04724
3791.36938,0.04411
3793.29785,0.04411
3795.22632,0.04669
3797.15479,0.04871
3799.08326,0.04984
3801.01173,0.05673
3802.94020,0.06407
3804.86866,0.06208
3806.79713,0.05687
3808.72560,0.05149
3810.65407,0.04659
3812.58254,0.04589
3814.51101,0.05100
3816.43948,0.05418
3818.36795,0.05304
3820.29641,0.05494
3822.22488,0.05348
3824.15335,0.04774
3826.08182,0.04542
3828.01029,0.04716
3829.93876,0.04977
3831.86723,0.04985
3833.79569,0.04707
3835.72416,0.04712
3837.65263,0.05437
3839.58110,0.05938
3841.50957,0.05241
3843.43804,0.04129
3845.36651,0.03589
3847.29498,0.03603
3849.22344,0.03789
3851.15191,0.04090
3853.08038,0.04669
3855.00885,0.05069
3856.93732,0.04833
3858.86579,0.04654
3860.79426,0.04938
3862.72272,0.05441
3864.65119,0.05327
3866.57966,0.04602
3868.50813,0.04182
3870.43660,0.04446
3872.36507,0.04922
3874.29354,0.05015
3876.22200,0.04893
3878.15047,0.04909
3880.07894,0.04805
3882.00741,0.04364
3883.93588,0.04240
3885.86435,0.04599
3887.79282,0.04809
3889.72129,0.04582
3891.64975,0.04081
3893.57822,0.03748
3895.50669,0.03874
3897.43516,0.04421
3899.36363,0.04951
3901.29210,0.05043
3903.22057,0.05127
3905.14903,0.05096
3907.07750,0.04763
3909.00597,0.04534
3910.93444,0.04512
3912.86291,0.04473
3914.79138,0.04357
3916.71985,0.04318
3918.64832,0.04317
3920.57678,0.04329
3922.50525,0.04498
3924.43372,0.04736
3926.36219,0.04756
3928.29066,0.04690
3930.21913,0.04687
3932.14760,0.04409
3934.07606,0.03948
3936.00453,0.03832
3937.93300,0.03971
3939.86147,0.04072
3941.78994,0.04033
3943.71841,0.03833
3945.64688,0.03655
3947.57535,0.03549
3949.50381,0.03550
3951.43228,0.03866
3953.36075,0.04358
3955.28922,0.04643
3957.21769,0.04501
3959.14616,0.04116
3961.07463,0.03821
3963.00309,0.03654
3964.93156,0.03519
3966.86003,0.03631
3968.78850,0.04041
3970.71697,0.04333
3972.64544,0.04362
3974.57391,0.04263
3976.50238,0.04231
3978.43084,0.04357
3980.35931,0.04366
3982.28778,0.04061
3984.21625,0.03817
3986.14472,0.04013
3988.07319,0.04351
3990.00166,0.04303
3991.93012,0.03807
3993.85859,0.03399
3995.78706,0.03273
3997.71553,0.03209
3999.64400,0.03384
4001.57247,0.03764
4003.50094,0.03880
4005.42941,0.03568
4007.35787,0.03311
4009.28634,0.03505
4011.21481,0.03598
4013.14328,0.03309
4015.07175,0.03249
4017.00022,0.03369
4018.92869,0.03145
4020.85715,0.02925
4022.78562,0.03047
4024.71409,0.03187
4026.64256,0.03275
4028.57103,0.03460
4030.49950,0.03596
4032.42797,0.03476
4034.35644,0.03244
4036.28490,0.03267
4038.21337,0.03449
4040.14184,0.03456
4042.07031,0.03517
4043.99878,0.03732
4045.92725,0.03747
4047.85572,0.03670
4049.78418,0.03790
4051.71265,0.03793
4053.64112,0.03572
4055.56959,0.03536
4057.49806,0.03519
4059.42653,0.03268
4061.35500,0.03175
4063.28346,0.03306
4065.21193,0.03363
4067.14040,0.03358
4069.06887,0.03369
4070.99734,0.03341
4072.92581,0.03291
4074.85428,0.03331
4076.78275,0.03359
4078.71121,0.03203
4080.63968,0.03066
4082.56815,0.03112
4084.49662,0.03338
4086.42509,0.03677
4088.35356,0.03847
4090.28203,0.03697
4092.21049,0.03381
4094.13896,0.03311
4096.06743,0.03524
4097.99590,0.03550
4099.92437,0.03447
4101.85284,0.03574
4103.78131,0.03860
4105.70978,0.03971
4107.63824,0.03723
4109.56671,0.03152
4111.49518,0.02633
4113.42365,0.02511
4115.35212,0.02558
4117.28059,0.02682
4119.20906,0.02934
4121.13752,0.03091
4123.06599,0.03268
4124.99446,0.03709
4126.92293,0.04178
4128.85140,0.04264
4130.77987,0.03798
4132.70834,0.03032
4134.63681,0.02559
4136.56527,0.02821
4138.49374,0.03399
4140.42221,0.03599
4142.35068,0.03526
4144.27915,0.03219
4146.20762,0.02663
4148.13609,0.02366
4150.06455,0.02413
4151.99302,0.02742
4153.92149,0.03114
4155.84996,0.03120
4157.77843,0.03034
4159.70690,0.03044
4161.63537,0.02967
4163.56384,0.02952
4165.49230,0.02924
4167.42077,0.02849
4169.34924,0.03147
4171.27771,0.03311
4173.20618,0.02973
4175.13465,0.02988
4177.06312,0.03260
4178.99158,0.03178
4180.92005,0.03119
4182.84852,0.03192
4184.77699,0.03004
4186.70546,0.02567
4188.63393,0.02152
4190.56240,0.01999
4192.49087,0.02234
4194.41933,0.02480
4196.34780,0.02204
4198.27627,0.01765
4200.20474,0.01888
4202.13321,0.02328
4204.06168,0.02492
4205.99015,0.02468
4207.91861,0.02757
4209.84708,0.03229
4211.77555,0.03261
4213.70402,0.03057
4215.63249,0.02859
4217.56096,0.02371
4219.48943,0.01997
4221.41789,0.02132
4223.34636,0.02534
4225.27483,0.02913
4227.20330,0.02744
4229.13177,0.02161
4231.06024,0.02061
4232.98871,0.02230
4234.91718,0.01827
4236.84564,0.01256
4238.77411,0.01383
4240.70258,0.02033
4242.63105,0.02564
4244.55952,0.02713
4246.48799,0.02533
4248.41646,0.02492
4250.34492,0.03009
4252.27339,0.03468
4254.20186,0.03190
4256.13033,0.02660
4258.05880,0.02537
4259.98727,0.02839
4261.91574,0.03112
4263.84421,0.02876
4265.77267,0.02365
4267.70114,0.02158
4269.62961,0.02125
4271.55808,0.02060
4273.48655,0.02062
4275.41502,0.02102
4277.34349,0.02320
4279.27195,0.02374
4281.20042,0.01954
4283.12889,0.01516
4285.05736,0.01438
4286.98583,0.01867
4288.91430,0.02418
4290.84277,0.02690
4292.77124,0.02656
4294.69970,0.02352
4296.62817,0.02214
4298.55664,0.02321
4300.48511,0.02180
4302.41358,0.01834
4304.34205,0.01710
4306.27052,0.01893
4308.19898,0.02051
4310.12745,0.01648
4312.05592,0.00951
4313.98439,0.00878
4315.91286,0.01343
4317.84133,0.01692
4319.76980,0.01866
4321.69827,0.01682
4323.62673,0.01129
4325.55520,0.01001
4327.48367,0.01433
4329.41214,0.01929
4331.34061,0.02130
4333.26908,0.01928
4335.19755,0.01789
4337.12601,0.01742
4339.05448,0.01440
4340.98295,0.01101
4342.91142,0.01160
4344.83989,0.01341
4346.76836,0.01156
4348.69683,0.01025
4350.62530,0.01250
4352.55376,0.01548
4354.48223,0.01881
4356.41070,0.02262
4358.33917,0.02146
4360.26764,0.01418
4362.19611,0.00938
4364.12458,0.00799
4366.05304,0.00544
4367.98151,0.00565
4369.90998,0.01032
4371.83845,0.01345
4373.76692,0.01389
4375.69539,0.01252
4377.62386,0.00661
4379.55232,0.00040
4381.48079,0.00023
4383.40926,0.00533
4385.33773,0.01222
4387.26620,0.01768
4389.19467,0.02058
4391.12314,0.02049
4393.05161,0.01718
4394.98007,0.01176
4396.90854,0.00696
4398.83701,0.00651
4400.76548,0.01039
4402.69395,0.01579
4404.62242,0.01806
4406.55089,0.01446
4408.47935,0.01178
4410.40782,0.01505
4412.33629,0.01787
4414.26476,0.01505
4416.19323,0.01207
4418.12170,0.01323
4420.05017,0.01448
4421.97864,0.01397
4423.90710,0.01221
4425.83557,0.01039
4427.76404,0.01281
4429.69251,0.01961
4431.62098,0.02328
4433.54945,0.01943
4435.47792,0.01533
4437.40638,0.01493
4439.33485,0.01212
4441.26332,0.00884
4443.19179,0.01062
4445.12026,0.01019
4447.04873,0.00495
4448.97720,0.00271
4450.90567,0.00333
4452.83413,0.00399
4454.76260,0.00619
4456.69107,0.01016
4458.61954,0.01323
4460.54801,0.01420
4462.47648,0.01363
4464.40495,0.01155
4466.33341,0.00966
4468.26188,0.00681
4470.19035,0.00287
4472.11882,0.00229
4474.04729,0.00539
4475.97576,0.00740
4477.90423,0.00468
4479.83270,-0.00011
4481.76116,-0.00212
4483.68963,0.00164
4485.61810,0.00807
4487.54657,0.01217
4489.47504,0.01461
4491.40351,0.01358
4493.33198,0.01240
4495.26044,0.01699
4497.18891,0.01833
4499.11738,0.01392
4501.04585,0.01114
4502.97432,0.00644
4504.90279,-0.00146
4506.83126,-0.00693
4508.75973,-0.00563
4510.68819,0.00201
4512.61666,0.00656
4514.54513,0.00532
4516.47360,0.00670
4518.40207,0.01080
4520.33054,0.01127
4522.25901,0.00839
4524.18747,0.00528
4526.11594,0.00397
4528.04441,0.00540
4529.97288,0.00451
4531.90135,0.00153
4533.82982,0.00473
4535.75829,0.01260
4537.68676,0.01656
4539.61522,0.01192
4541.54369,0.00268
4543.47216,-0.00185
4545.40063,-0.00196
4547.32910,-0.00294
4549.25757,-0.00017
4551.18604,0.00672
4553.11450,0.00751
4555.04297,0.00286
4556.97144,0.00144
4558.89991,0.00411
4560.82838,0.00637
4562.75685,0.00590
4564.68532,0.00519
4566.61378,0.00354
4568.54225,-0.00121
4570.47072,-0.00281
4572.39919,0.00121
4574.32766,0.00356
4576.25613,0.00073
4578.18460,-0.00413
4580.11307,-0.00430
4582.04153,0.00222
4583.97000,0.00807
4585.89847,0.00992
4587.82694,0.00973
4589.75541,0.00790
4591.68388,0.00467
4593.61235,0.00219
4595.54081,0.00208
4597.46928,0.00254
4599.39775,0.00213
4601.32622,0.00087
4603.25469,0.00037
4605.18316,0.00284
4607.11163,0.00512
4609.04010,0.00287
4610.96856,-0.00272
4612.89703,-0.00688
4614.82550,-0.00504
4616.75397,0.00277
4618.68244,0.00780
4620.61091,0.00514
4622.53938,0.00039
4624.46784,-0.00198
4626.39631,0.00138
4628.32478,0.00972
4630.25325,0.01276
4632.18172,0.00907
4634.11019,0.00838
4636.03866,0.01040
4637.96713,0.01026
4639.89559,0.01027
4641.82406,0.01268
4643.75253,0.01168
4645.68100,0.00254
4647.60947,-0.00669
4649.53794,-0.00715
4651.46641,-0.00140
4653.39487,0.00227
4655.32334,0.00130
4657.25181,0.00151
4659.18028,0.00571
4661.10875,0.00884
4663.03722,0.00807
4664.96569,0.00617
4666.89416,0.00770
4668.82262,0.01327
4670.75109,0.01634
4672.67956,0.01720
4674.60803,0.01862
4676.53650,0.01567
4678.46497,0.01025
4680.39344,0.00813
4682.32190,0.00494
4684.25037,-0.00222
4686.17884,-0.00926
4688.10731,-0.01320
4690.03578,-0.01133
4691.96425,-0.00753
4693.89272,-0.00598
4695.82119,-0.00332
4697.74965,0.00019
4699.67812,0.00343
4701.60659,0.00687
4703.53506,0.00624
4705.46353,-0.00166
4707.39200,-0.00928
4709.32047,-0.00693
4711.24893,0.00322
4713.17740,0.01121
4715.10587,0.01174
4717.03434,0.00922
4718.96281,0.00832
4720.89128,0.00697
4722.81975,0.00609
4724.74821,0.00927
4726.67668,0.01168
4728.60515,0.00902
4730.53362,0.00567
4732.46209,0.00415
4734.39056,0.00628
4736.31903,0.01214
4738.24750,0.01469
4740.17596,0.01187
4742.10443,0.01056
4744.03290,0.01289
4745.96137,0.01251
4747.88984,0.00743
4749.81831,0.00544
4751.74678,0.01132
4753.67524,0.01585
4755.60371,0.01050
4757.53218,0.00368
4759.46065,0.00688
4761.38912,0.01073
4763.31759,0.00309
4765.24606,-0.00434
4767.17453,-0.00255
4769.10299,0.00035
4771.03146,0.00172
4772.95993,0.00222
4774.88840,0.00065
4776.81687,-0.00078
4778.74534,0.00077
4780.67381,0.00577
4782.60227,0.00981
4784.53074,0.00811
4786.45921,0.00381
4788.38768,0.00230
4790.31615,0.00076
4792.24462,-0.00414
4794.17309,-0.00507
4796.10156,0.00679
4798.03002,0.01757
4799.95849,0.01313
4801.88696,0.00165
4803.81543,-0.00464
4805.74390,0.00045
4807.67237,0.01040
4809.60084,0.01162
4811.52930,0.00725
4813.45777,0.01090
4815.38624,0.01993
4817.31471,0.02002
4819.24318,0.01355
4821.17165,0.01359
4823.10012,0.01614
4825.02859,0.01227
4826.95705,0.00727
4828.88552,0.00623
4830.81399,0.00605
4832.74246,0.00461
4834.67093,0.00169
4836.59940,-0.00478
4838.52787,-0.00978
4840.45633,-0.00317
4842.38480,0.01124
4844.31327,0.01775
4846.24174,0.01447
4848.17021,0.01127
4850.09868,0.00634
4852.02715,0.00128
4853.95562,0.00371
4855.88408,0.00554
4857.81255,0.00495
4859.74102,0.01208
4861.66949,0.02138
4863.59796,0.02398
4865.52643,0.01937
4867.45490,0.00802
4869.38336,-0.00071
4871.31183,-0.00194
4873.24030,-0.00220
4875.16877,-0.00151
4877.09724,0.00328
4879.02571,0.00737
4880.95418,0.00912
4882.88265,0.01181
4884.81111,0.00854
4886.73958,-0.00172
4888.66805,-0.00641
4890.59652,-0.00594
4892.52499,-0.00785
4894.45346,-0.00763
4896.38193,-0.00001
4898.31039,0.01063
4900.23886,0.01431
4902.16733,0.00546
4904.09580,-0.00719
4906.02427,-0.00827
4907.95274,-0.00011
4909.88121,0.00530
4911.80967,0.00385
4913.73814,-0.00318
4915.66661,-0.00832
4917.59508,0.00016
4919.52355,0.01748
4921.45202,0.02195
4923.38049,0.00963
4925.30896,0.00140
4927.23742,0.00521
4929.16589,0.00666
4931.09436,-0.00108
4933.02283,-0.00952
4934.95130,-0.01061
4936.87977,-0.00226
4938.80824,0.00952
4940.73670,0.01528
4942.66517,0.01413
4944.59364,0.00891
4946.52211,0.00304
4948.45058,-0.00207
4950.37905,-0.00337
4952.30752,0.00444
4954.23599,0.01244
4956.16445,0.00804
4958.09292,-0.00409
4960.02139,-0.01165
4961.94986,-0.00737
4963.87833,0.00375
4965.80680,0.00570
4967.73527,-0.00269
4969.66373,-0.00506
4971.59220,-0.00175
4973.52067,-0.00048
4975.44914,0.00251
4977.37761,0.00442
4979.30608,0.00168
4981.23455,-0.00070
4983.16302,-0.00011
4985.09148,0.00244
4987.01995,0.00337
4988.94842,0.00242
4990.87689,0.00434
4992.80536,0.00782
4994.73383,0.01257
4996.66230,0.01833
4998.59076,0.01677
5000.51923,0.00980
5002.44770,0.00356
5004.37617,0.00270
5006.30464,0.00952
5008.23311,0.01279
5010.16158,0.00981
5012.09005,0.00918
5014.01851,0.01043
5015.94698,0.01129
5017.87545,0.01203
5019.80392,0.00934
5021.73239,0.00311
5023.66086,0.00108
5025.58933,0.00697
5027.51779,0.01630
5029.44626,0.02205
5031.37473,0.02240
5033.30320,0.02286
5035.23167,0.02365
5037.16014,0.02013
5039.08861,0.01809
5041.01708,0.02263
5042.94554,0.02325
5044.87401,0.01309
5046.80248,0.00012
5048.73095,-0.00305
5050.65942,0.00224
5052.58789,0.00333
5054.51636,0.00118
5056.44482,0.00480
5058.37329,0.01289
5060.30176,0.01681
5062.23023,0.01744
5064.15870,0.02128
5066.08717,0.02200
5068.01564,0.01466
5069.94410,0.00826
5071.87257,0.00598
5073.80104,0.00275
5075.72951,-0.00030
5077.65798,-0.00432
5079.58645,-0.01159
5081.51492,-0.01342
5083.44339,-0.00620
5085.37185,0.00003
5087.30032,0.00117
5089.22879,0.00503
5091.15726,0.00624
5093.08573,-0.00410
5095.01420,-0.01131
5096.94267,-0.00257
5098.87113,0.00887
5100.79960,0.00828
5102.72807,0.00083
5104.65654,-0.00354
5106.58501,-0.00217
5108.51348,0.00059
5110.44195,0.00523
5112.37042,0.01466
5114.29888,0.01903
5116.22735,0.01721
5118.15582,0.01758
5120.08429,0.01877
5122.01276,0.01578
5123.94123,0.00807
5125.86970,0.00223
5127.79816,0.00455
5129.72663,0.01003
5131.65510,0.00910
5133.58357,0.00767
5135.51204,0.01339
5137.44051,0.01762
5139.36898,0.01467
5141.29745,0.01350
5143.22591,0.01718
5145.15438,0.01526
5147.08285,0.01051
5149.01132,0.00865
5150.93979,0.00470
5152.86826,0.00155
5154.79673,0.00205
5156.72519,0.00073
5158.65366,-0.00479
5160.58213,-0.01038
5162.51060,-0.01379
5164.43907,-0.01017
5166.36754,0.00479
5168.29601,0.02119
5170.22448,0.02219
5172.15294,0.00739
5174.08141,0.00061
5176.00988,0.01057
5177.93835,0.01690
5179.86682,0.00885
5181.79529,0.00050
5183.72376,0.00218
5185.65222,0.00842
5187.58069,0.01084
5189.50916,0.01190
5191.43763,0.02111
5193.36610,0.03247
5195.29457,0.03096
5197.22304,0.01846
5199.15151,0.00928
5201.07997,0.00779
5203.00844,0.00977
5204.93691,0.01212
5206.86538,0.01106
5208.79385,0.00983
5210.72232,0.01038
5212.65079,0.01423
5214.57925,0.02253
5216.50772,0.02147
5218.43619,0.00636
5220.36466,-0.00822
5222.29313,-0.01691
5224.22160,-0.02138
5226.15007,-0.01587
5228.07854,-0.00583
5230.00700,-0.00421
5231.93547,-0.00981
5233.86394,-0.01307
5235.79241,-0.00899
5237.72088,-0.00024
5239.64935,0.00912
5241.57782,0.01821
5243.50628,0.02644
5245.43475,0.02602
5247.36322,0.01484
5249.29169,0.00455
5251.22016,0.00142
5253.14863,0.00774
5255.07710,0.01660
5257.00556,0.00851
5258.93403,-0.00713
5260.86250,-0.00132
5262.79097,0.02225
5264.71944,0.02939
5266.64791,0.01553
5268.57638,0.00482
5270.50485,0.00627
5272.43331,0.01103
5274.36178,0.00778
5276.29025,-0.00220
5278.21872,-0.00679
5280.14719,0.00286
5282.07566,0.02160
5284.00413,0.03646
5285.93259,0.03909
5287.86106,0.03503
5289.78953,0.02945
5291.71800,0.01425
5293.64647,0.00388
5295.57494,0.01802
5297.50341,0.03730
5299.43188,0.03860
5301.36034,0.02609
5303.28881,0.01182
5305.21728,0.00201
5307.14575,-0.00445
5309.07422,-0.00706
5311.00269,-0.00151
5312.93116,0.00886
5314.85962,0.01679
5316.78809,0.01952
5318.71656,0.01425
5320.64503,0.00281
5322.57350,0.00221
5324.50197,0.01946
5326.43044,0.03304
5328.35891,0.03001
5330.28737,0.02542
5332.21584,0.02483
5334.14431,0.01810
5336.07278,0.01017
5338.00125,0.01408
5339.92972,0.01999
5341.85819,0.01299
5343.78665,-0.00075
5345.71512,-0.00395
5347.64359,0.00307
5349.57206,0.00305
5351.50053,-0.00167
5353.42900,0.00249
5355.35747,0.00780
5357.28594,0.00863
5359.21440,0.01990
5361.14287,0.03615
5363.07134,0.03234
5364.99981,0.01457
5366.92828,0.00564
5368.85675,0.00555
5370.78522,0.00828
5372.71368,0.00737
5374.64215,0.00598
5376.57062,0.00903
5378.49909,0.00454
5380.42756,0.00099
5382.35603,0.01466
5384.28450,0.03656
5386.21297,0.03798
5388.14143,0.02255
5390.06990,0.01513
5391.99837,0.01163
5393.92684,0.01463
5395.85531,0.03553
5397.78378,0.04790
5399.71225,0.03401
5401.64071,0.02178
5403.56918,0.02413
5405.49765,0.02172
5407.42612,0.01242
5409.35459,0.00949
5411.28306,0.01752
5413.21153,0.02463
5415.13999,0.02047
5417.06846,0.01842
5418.99693,0.02860
5420.92540,0.03152
5422.85387,0.01484
5424.78234,0.00583
5426.71081,0.01676
5428.63928,0.02908
5430.56774,0.02763
5432.49621,0.01562
5434.42468,0.00156
5436.35315,-0.00043
5438.28162,0.01170
5440.21009,0.01650
5442.13856,0.01292
5444.06702,0.01471
5445.99549,0.01747
5447.92396,0.01383
5449.85243,0.00351
5451.78090,0.00250
5453.70937,0.01686
5455.63784,0.02713
5457.56631,0.02241
5459.49477,0.02400
5461.42324,0.03754
5463.35171,0.03947
5465.28018,0.02943
5467.20865,0.02208
5469.13712,0.02004
5471.06559,0.02042
5472.99405,0.01936
5474.92252,0.02255
5476.85099,0.03640
5478.77946,0.04100
5480.70793,0.02859
5482.63640,0.02630
5484.56487,0.04143
5486.49334,0.04622
5488.42180,0.03096
5490.35027,0.01230
5492.27874,0.00881
5494.20721,0.02563
5496.13568,0.03374
5498.06415,0.01836
5499.99262,0.01048
5501.92108,0.02005
5503.84955,0.02026
5505.77802,0.01785
5507.70649,0.03313
5509.63496,0.04052
5511.56343,0.01617
5513.49190,-0.00986
5515.42037,-0.00045
5517.34883,0.03323
5519.27730,0.04976
5521.20577,0.04182
5523.13424,0.02983
5525.06271,0.01996
5526.99118,0.01302
5528.91965,-0.00477
5530.84811,-0.02979
5532.77658,-0.02391
5534.70505,0.00831
5536.63352,0.03015
5538.56199,0.02626
5540.49046,0.00982
5542.41893,0.00749
5544.34740,0.02652
5546.27586,0.04295
5548.20433,0.03715
5550.13280,0.02898
5552.06127,0.03478
5553.98974,0.03633
5555.91821,0.02576
5557.84668,0.01599
5559.77514,0.01259
5561.70361,0.01067
5563.63208,0.01819
5565.56055,0.04386
5567.48902,0.05647
5569.41749,0.03628
5571.34596,0.01776
5573.27443,0.02115
5575.20289,0.02385
5577.13136,0.02074
5579.05983,0.03013
5580.98830,0.04599
5582.91677,0.05037
5584.84524,0.04138
5586.77371,0.02989
5588.70217,0.01968
5590.63064,0.00993
5592.55911,0.01569
5594.48758,0.03275
5596.41605,0.03577
5598.34452,0.02122
5600.27299,0.00621
5602.20145,0.00187
5604.12992,0.00289
5606.05839,0.00522
5607.98686,0.00708
5609.91533,0.01312
5611.84380,0.03398
5613.77227,0.04476
5615.70074,0.02527
5617.62920,0.00814
5619.55767,0.01663
5621.48614,0.04627
5623.41461,0.07570
5625.34308,0.07426
5627.27155,0.04880
5629.20002,0.02842
5631.12848,0.02267
5633.05695,0.02220
5634.98542,0.01866
5636.91389,0.02620
5638.84236,0.04409
5640.77083,0.04484
5642.69930,0.02641
5644.62777,0.00956
5646.55623,0.00448
5648.48470,0.01664
5650.41317,0.03948
5652.34164,0.04342
5654.27011,0.02781
5656.19858,0.02481
5658.12705,0.03832
5660.05551,0.04177
5661.98398,0.03303
5663.91245,0.02886
5665.84092,0.02451
5667.76939,0.02373
5669.69786,0.03584
5671.62633,0.04488
5673.55480,0.03963
5675.48326,0.02427
5677.41173,0.01390
5679.34020,0.02894
5681.26867,0.04871
5683.19714,0.04189
5685.12561,0.02432
5687.05408,0.01578
5688.98254,0.00402
5690.91101,-0.01042
5692.83948,-0.00459
5694.76795,0.01784
5696.69642,0.03009
5698.62489,0.02016
5700.55336,0.00305
5702.48183,-0.00334
5704.41029,0.00661
5706.33876,0.02296
5708.26723,0.02451
5710.19570,0.01543
5712.12417,0.01584
5714.05264,0.02898
5715.98111,0.04287
5717.90957,0.04107
5719.83804,0.02428
5721.76651,0.01327
5723.69498,0.01662
5725.62345,0.02172
5727.55192,0.02712
5729.48039,0.02511
5731.40886,0.00390
5733.33732,-0.01087
5735.26579,0.00180
5737.19426,0.02681
5739.12273,0.04414
5741.05120,0.05052
5742.97967,0.04312
5744.90814,0.02338
5746.83660,0.00988
5748.76507,0.00930
5750.69354,0.01434
5752.62201,0.02706
5754.55048,0.03673
5756.47895,0.03770
5758.40742,0.04798
5760.33588,0.05516
5762.26435,0.03938
5764.19282,0.01984
5766.12129,0.00614
5768.04976,0.00292
5769.97823,0.02468
5771.90670,0.05178
5773.83517,0.05699
5775.76363,0.05209
5777.69210,0.05711
5779.62057,0.06487
5781.54904,0.04980
5783.47751,0.01622
5785.40598,0.01132
5787.33445,0.04328
5789.26291,0.06266
5791.19138,0.04618
5793.11985,0.01190
5795.04832,-0.00339
5796.97679,0.01845
5798.90526,0.04882
5800.83373,0.06921
5802.76220,0.08611
5804.69066,0.07799
5806.61913,0.03255
5808.54760,0.00620
5810.47607,0.03579
5812.40454,0.08070
5814.33301,0.09544
5816.26148,0.08188
5818.18994,0.06738
5820.11841,0.06800
5822.04688,0.06547
5823.97535,0.05287
5825.90382,0.05630
5827.83229,0.07144
5829.76076,0.05826
5831.68923,0.02745
5833.61769,0.02439
5835.54616,0.04836
5837.47463,0.07550
5839.40310,0.09062
5841.33157,0.08042
5843.26004,0.05089
5845.18851,0.03143
5847.11697,0.03915
5849.04544,0.05410
5850.97391,0.04971
5852.90238,0.04279
5854.83085,0.04352
5856.75932,0.02565
5858.68779,0.00152
5860.61626,-0.00085
5862.54472,0.01546
5864.47319,0.04403
5866.40166,0.05845
5868.33013,0.04638
5870.25860,0.03289
5872.18707,0.03215
5874.11554,0.03882
5876.04400,0.04181
5877.97247,0.03274
5879.90094,0.03442
5881.82941,0.07516
5883.75788,0.11000
5885.68635,0.08992
5887.61482,0.03645
5889.54329,-0.01252
5891.47175,-0.03231
5893.40022,-0.01370
5895.32869,0.02294
5897.25716,0.04619
5899.18563,0.05269
5901.11410,0.05077
5903.04257,0.04173
5904.97103,0.03854
5906.89950,0.04572
5908.82797,0.05485
5910.75644,0.05596
5912.68491,0.04158
5914.61338,0.02692
5916.54185,0.02597
5918.47032,0.02000
5920.39878,-0.00013
5922.32725,-0.01259
5924.25572,0.00059
5926.18419,0.02716
5928.11266,0.03343
5930.04113,0.01531
5931.96960,0.00508
5933.89806,0.01098
5935.82653,0.01217
5937.75500,0.00959
5939.68347,0.00578
5941.61194,-0.00208
5943.54041,0.00597
5945.46888,0.02788
5947.39734,0.04840
5949.32581,0.07043
5951.25428,0.07372
5953.18275,0.05045
5955.11122,0.03938
5957.03969,0.05950
5958.96816,0.08993
5960.89663,0.10055
5962.82509,0.08897
5964.75356,0.06675
5966.68203,0.04717
5968.61050,0.05320
5970.53897,0.06592
5972.46744,0.05807
5974.39591,0.04876
5976.32437,0.03921
5978.25284,0.01963
5980.18131,0.00973
5982.10978,0.02299
5984.03825,0.03681
5985.96672,0.02589
5987.89519,0.01169
5989.82366,0.01292
5991.75212,0.01103
5993.68059,0.00777
5995.60906,0.01923
5997.53753,0.03837
5999.46600,0.04332
6001.39447,0.02842
6003.32294,0.00915
6005.25140,-0.01461
6007.17987,-0.03062
6009.10834,-0.00301
6011.03681,0.04939
6012.96528,0.08302
6014.89375,0.09693
6016.82222,0.09899
6018.75069,0.09041
6020.67915,0.08449
6022.60762,0.07841
6024.53609,0.06342
6026.46456,0.03398
6028.39303,-0.01068
6030.32150,-0.03336
6032.24997,-0.01112
6034.17843,0.03867
6036.10690,0.08355
6038.03537,0.09160
6039.96384,0.07193
6041.89231,0.04852
6043.82078,0.03375
6045.74925,0.02571
6047.67772,0.00485
6049.60618,-0.02573
6051.53465,-0.02837
6053.46312,0.00793
6055.39159,0.03880
6057.32006,0.02052
6059.24853,-0.01744
6061.17700,-0.02153
6063.10546,0.00356
6065.03393,0.02102
6066.96240,0.02325
6068.89087,0.00955
6070.81934,-0.01142
6072.74781,-0.01539
6074.67628,0.00783
6076.60475,0.03258
6078.53321,0.03374
6080.46168,0.03486
6082.39015,0.04422
6084.31862,0.04228
6086.24709,0.03318
6088.17556,0.02684
6090.10403,0.02474
6092.03249,0.02672
6093.96096,0.04032
6095.88943,0.07511
6097.81790,0.10861
6099.74637,0.10346
6101.67484,0.06958
6103.60331,0.04260
6105.53177,0.02379
6107.46024,0.01032
6109.38871,0.01256
6111.31718,0.00731
6113.24565,-0.03121
6115.17412,-0.05522
6117.10259,-0.01590
6119.03106,0.05320
6120.95952,0.08566
6122.88799,0.07623
6124.81646,0.05875
6126.74493,0.04902
6128.67340,0.03693
6130.60187,0.01719
6132.53034,0.01620
6134.45880,0.04154
6136.38727,0.05040
6138.31574,0.03098
6140.24421,0.01919
6142.17268,0.02506
6144.10115,0.02487
6146.02962,0.01735
6147.95809,0.03273
6149.88655,0.06168
6151.81502,0.05582
6153.74349,0.02036
6155.67196,0.00914
6157.60043,0.04249
6159.52890,0.06713
6161.45737,0.03688
6163.38583,0.01560
6165.31430,0.04463
6167.24277,0.08227
6169.17124,0.09726
6171.09971,0.06734
6173.02818,0.00870
6174.95665,-0.01734
6176.88512,0.00564
6178.81358,0.02987
6180.74205,0.01932
6182.67052,-0.00592
6184.59899,0.00066
6186.52746,0.04082
6188.45593,0.07265
6190.38440,0.08362
6192.31286,0.07566
6194.24133,0.05798
6196.16980,0.05321
6198.09827,0.06372
6200.02674,0.07088
6201.95521,0.05045
6203.88368,0.01875
6205.81215,0.01925
6207.74061,0.05277
6209.66908,0.08058
6211.59755,0.07356
6213.52602,0.06057
6215.45449,0.05660
6217.38296,0.04336
6219.31143,0.03192
6221.23989,0.03089
6223.16836,0.01627
6225.09683,-0.00962
6227.02530,-0.01397
6228.95377,-0.00595
6230.88224,0.00241
6232.81071,0.03513
6234.73918,0.06885
6236.66764,0.06518
6238.59611,0.04702
6240.52458,0.03283
6242.45305,0.02002
6244.38152,0.01349
6246.30999,0.00708
6248.23846,-0.00260
6250.16692,-0.00137
6252.09539,0.01924
6254.02386,0.03967
6255.95233,0.03479
6257.88080,0.01612
6259.80927,0.02739
6261.73774,0.06104
6263.66621,0.06006
6265.59467,0.02936
6267.52314,0.02462
6269.45161,0.04938
6271.38008,0.08134
6273.30855,0.10038
6275.23702,0.08524
6277.16549,0.05238
6279.09395,0.04243
6281.02242,0.04868
6282.95089,0.03747
6284.87936,0.02034
6286.80783,0.02405
6288.73630,0.03073
6290.66477,0.01130
6292.59323,-0.00399
6294.52170,0.01663
6296.45017,0.02668
6298.37864,0.00940
6300.30711,-0.00192
6302.23558,-0.01334
6304.16405,-0.02474
6306.09252,-0.00701
6308.02098,0.03045
6309.94945,0.05436
6311.87792,0.05100
6313.80639,0.02949
6315.73486,0.02340
6317.66333,0.03907
6319.59180,0.02946
6321.52026,-0.00313
6323.44873,0.00815
6325.37720,0.05823
6327.30567,0.08133
6329.23414,0.07739
6331.16261,0.07626
6333.09108,0.05213
6335.01955,0.01563
6336.94801,0.00281
6338.87648,0.00125
6340.80495,0.00972
6342.73342,0.03787
6344.66189,0.06270
6346.59036,0.06811
6348.51883,0.07514
6350.44729,0.06861
6352.37576,0.03662
6354.30423,0.03107
6356.23270,0.03410
6358.16117,0.00105
6360.08964,-0.03160
6362.01811,-0.03524
6363.94658,-0.04215
6365.87504,-0.04482
6367.80351,-0.01482
6369.73198,-0.01021
6371.66045,-0.03690
6373.58892,-0.01258
6375.51739,0.02951
6377.44586,0.03106
6379.37432,0.02752
6381.30279,0.03185
6383.23126,0.01419
6385.15973,-0.01715
6387.08820,-0.02952
6389.01667,-0.02409
6390.94514,-0.00858
6392.87361,0.01210
6394.80207,0.03117
6396.73054,0.04810
6398.65901,0.07189
6400.58748,0.10031
6402.51595,0.10396
6404.44442,0.07823
6406.37289,0.04657
6408.30135,0.02414
6410.22982,0.02613
6412.15829,0.03699
6414.08676,0.02782
6416.01523,0.03107
6417.94370,0.06787
6419.87217,0.06761
6421.80064,0.01413
6423.72910,-0.01155
6425.65757,-0.00271
6427.58604,-0.02406
6429.51451,-0.05383
6431.44298,-0.03057
6433.37145,0.01961
6435.29992,0.06035
6437.22838,0.08321
6439.15685,0.06350
6441.08532,0.01299
6443.01379,-0.04680
6444.94226,-0.08205
6446.87073,-0.05604
6448.79920,0.00100
6450.72766,0.03524
6452.65613,0.03472
6454.58460,0.02841
6456.51307,0.04411
6458.44154,0.07670
6460.37001,0.10293
6462.29848,0.10284
6464.22695,0.07355
6466.15541,0.05578
6468.08388,0.07813
6470.01235,0.10630
6471.94082,0.10902
6473.86929,0.07088
6475.79776,0.01406
6477.72623,-0.00131
6479.65469,0.01818
6481.58316,0.07440
6483.51163,0.12796
6485.44010,0.10051
6487.36857,0.03496
6489.29704,-0.00080
6491.22551,0.00823
6493.15398,0.04268
6495.08244,0.05320
6497.01091,0.03201
6498.93938,0.01779
6500.86785,0.02397
6502.79632,0.02570
6504.72479,0.02003
6506.65326,0.03435
6508.58172,0.07463
6510.51019,0.10678
6512.43866,0.11189
6514.36713,0.09941
6516.29560,0.06278
6518.22407,0.02946
6520.15254,0.03643
6522.08101,0.05709
6524.00947,0.05824
6525.93794,0.04245
6527.86641,0.01455
6529.79488,-0.01602
6531.72335,-0.00467
6533.65182,0.04658
6535.58029,0.06877
6537.50875,0.05909
6539.43722,0.03782
6541.36569,-0.02854
6543.29416,-0.10589
6545.22263,-0.10577
6547.15110,-0.05678
6549.07957,-0.03237
6551.00804,-0.02644
6552.93650,-0.00521
6554.86497,0.01450
6556.79344,0.01742
6558.72191,0.00717
6560.65038,-0.00898
6562.57885,-0.00838
6564.50732,0.04552
6566.43578,0.11201
6568.36425,0.10903
6570.29272,0.04598
6572.22119,-0.01830
6574.14966,-0.00721
6576.07813,0.04767
6578.00660,0.04855
6579.93507,0.01861
6581.86353,0.02147
6583.79200,0.02710
6585.72047,0.00605
6587.64894,-0.02198
6589.57741,-0.04682
6591.50588,-0.03862
6593.43435,0.02184
6595.36281,0.07114
6597.29128,0.07066
6599.21975,0.03349
6601.14822,-0.01586
6603.07669,-0.02560
6605.00516,-0.00435
6606.93363,-0.00027
6608.86210,-0.02650
6610.79056,-0.04933
6612.71903,-0.03720
6614.64750,0.00296
6616.57597,0.03897
6618.50444,0.03116
6620.43291,-0.00055
6622.36138,0.00536
6624.28984,0.03995
6626.21831,0.03891
6628.14678,0.01061
6630.07525,0.00057
6632.00372,0.01215
6633.93219,0.05156
6635.86066,0.09002
6637.78912,0.08050
6639.71759,0.06020
6641.64606,0.05019
6643.57453,0.05074
6645.50300,0.06563
6647.43147,0.04828
6649.35994,0.00934
6651.28841,0.00703
6653.21687,-0.00073
6655.14534,-0.05738
6657.07381,-0.05159
6659.00228,0.06746
6660.93075,0.11484
6662.85922,0.05088
6664.78769,0.00360
6666.71615,0.01581
6668.64462,0.06210
6670.57309,0.11147
6672.50156,0.13967
6674.43003,0.09670
6676.35850,0.00055
6678.28697,-0.04523
6680.21544,-0.00620
6682.14390,0.04098
6684.07237,0.02823
6686.00084,-0.01820
6687.92931,-0.04838
6689.85778,-0.02605
6691.78625,0.02516
6693.71472,0.04174
6695.64318,0.02858
6697.57165,0.03188
6699.50012,0.03246
6701.42859,-0.01485
6703.35706,-0.04817
6705.28553,-0.03727
6707.21400,-0.00800
6709.14247,0.04882
6711.07093,0.06611
6712.99940,0.02883
6714.92787,0.00632
6716.85634,-0.00076
6718.78481,-0.02884
6720.71328,-0.07948
6722.64175,-0.10765
6724.57021,-0.06527
6726.49868,-0.01268
6728.42715,0.01643
6730.35562,0.07174
6732.28409,0.11884
6734.21256,0.09996
6736.14103,0.03992
6738.06950,0.01674
6739.99796,0.05685
6741.92643,0.06986
6743.85490,0.00475
6745.78337,-0.04288
6747.71184,-0.01392
6749.64031,0.03578
6751.56878,0.05661
6753.49724,0.05443
6755.42571,0.03151
6757.35418,0.02440
6759.28265,0.06213
6761.21112,0.09312
6763.13959,0.06444
6765.06806,0.02240
6766.99653,0.02509
6768.92499,0.04250
6770.85346,0.02782
6772.78193,0.01632
6774.71040,0.01102
6776.63887,-0.02483
6778.56734,-0.06134
6780.49581,-0.07189
6782.42427,-0.04568
6784.35274,0.01069
6786.28121,0.03939
6788.20968,0.00721
6790.13815,-0.04671
6792.06662,-0.06198
6793.99509,-0.04043
6795.92355,-0.00438
6797.85202,0.04467
6799.78049,0.05190
6801.70896,-0.00286
6803.63743,-0.01945
6805.56590,0.04052
6807.49437,0.11248
6809.42284,0.12443
6811.35130,0.05071
6813.27977,-0.01856
6815.20824,-0.01777
6817.13671,0.01799
6819.06518,0.03290
6820.99365,0.01572
6822.92212,0.00994
6824.85058,0.04986
6826.77905,0.09359
6828.70752,0.10337
6830.63599,0.08512
6832.56446,0.08172
6834.49293,0.11781
6836.42140,0.13730
6838.34987,0.09112
6840.27833,0.01790
6842.20680,-0.03137
6844.13527,-0.03290
6846.06374,-0.02359
6847.99221,-0.01870
6849.92068,0.02138
6851.84915,0.06255
6853.77761,0.06832
6855.70608,0.10115
6857.63455,0.16796
6859.56302,0.18289
6861.49149,0.14640
6863.41996,0.10688
6865.34843,0.09419
6867.27690,0.08675
6869.20536,0.06806
6871.13383,0.08343
6873.06230,0.11831
6874.99077,0.12450
6876.91924,0.14051
6878.84771,0.16273
6880.77618,0.10040
6882.70464,-0.00640
6884.63311,-0.03471
6886.56158,-0.01304
6888.49005,-0.02992
6890.41852,-0.05570
6892.34699,0.01983
6894.27546,0.13795
6896.20393,0.15119
6898.13239,0.07729
6900.06086,0.00797
6901.98933,-0.05460
6903.91780,-0.06580
6905.84627,0.03482
6907.77474,0.11673
6909.70321,0.06634
6911.63167,-0.03714
6913.56014,-0.07688
6915.48861,-0.01521
6917.41708,0.06634
6919.34555,0.07933
6921.27402,0.04326
6923.20249,0.05036
6925.13096,0.10542
6927.05942,0.10989
6928.98789,0.04831
6930.91636,0.04755
6932.84483,0.08333
6934.77330,0.03862
6936.70177,-0.02103
6938.63024,-0.05473
6940.55870,-0.07303
6942.48717,-0.01385
6944.41564,0.08579
6946.34411,0.08172
6948.27258,0.00402
6950.20105,0.00028
6952.12952,0.03353
6954.05799,0.01370
6955.98645,-0.03817
6957.91492,-0.05682
6959.84339,-0.06626
6961.77186,-0.08317
6963.70033,-0.07297
6965.62880,-0.04667
6967.55727,-0.01105
6969.48573,0.05891
6971.41420,0.10791
6973.34267,0.07442
6975.27114,0.03195
6977.19961,0.01668
6979.12808,0.01974
6981.05655,0.05769
6982.98501,0.08021
6984.91348,0.09151
6986.84195,0.13924
6988.77042,0.15695
6990.69889,0.14316
6992.62736,0.14161
6994.55583,0.11928
6996.48430,0.08283
6998.41276,0.06189
7000.34123,0.04826
7002.26970,0.02553
7004.19817,-0.02574
7006.12664,-0.04591
7008.05511,0.02157
7009.98358,0.07205
7011.91204,0.05224
7013.84051,0.02295
7015.76898,-0.00519
7017.69745,-0.05239
7019.62592,-0.08544
7021.55439,-0.11642
7023.48286,-0.15217
7025.41133,-0.12782
7027.33979,-0.04776
7029.26826,0.00606
7031.19673,0.02378
7033.12520,0.03222
7035.05367,0.00772
7036.98214,0.00118
7038.91061,0.01978
7040.83907,0.00529
7042.76754,-0.03585
7044.69601,-0.06663
7046.62448,-0.09138
7048.55295,-0.04955
7050.48142,0.05207
7052.40989,0.07151
7054.33836,-0.00964
7056.26682,-0.08773
7058.19529,-0.12717
7060.12376,-0.14060
7062.05223,-0.14607
7063.98070,-0.11680
7065.90917,-0.02230
7067.83764,0.09089
7069.76610,0.12258
7071.69457,0.02020
7073.62304,-0.08612
7075.55151,-0.09664
7077.47998,-0.04802
7079.40845,0.01588
7081.33692,0.06661
7083.26539,0.08884
7085.19385,0.08523
7087.12232,0.04560
7089.05079,0.02859
7090.97926,0.06948
7092.90773,0.09044
7094.83620,0.09231
7096.76467,0.16266
7098.69313,0.23413
7100.62160,0.19498
7102.55007,0.13866
7104.47854,0.10494
7106.40701,0.06665
7108.33548,0.06928
7110.26395,0.10750
7112.19242,0.10234
7114.12088,0.02560
7116.04935,-0.09698
7117.97782,-0.19230
7119.90629,-0.12634
7121.83476,0.00146
7123.76323,0.04387
7125.69170,0.06773
7127.62016,0.13487
7129.54863,0.13737
7131.47710,0.05743
7133.40557,0.02838
7135.33404,0.05226
7137.26251,0.08040
7139.19098,0.15006
7141.11944,0.22706
7143.04791,0.22019
7144.97638,0.12464
7146.90485,0.07000
7148.83332,0.04597
7150.76179,-0.03240
7152.69026,-0.08729
7154.61873,-0.07658
7156.54719,-0.03938
7158.47566,0.01953
7160.40413,0.08500
7162.33260,0.09267
7164.26107,0.02434
7166.18954,0.02680
7168.11801,0.12068
7170.04647,0.10808
7171.97494,0.02287
7173.90341,0.04274
7175.83188,0.16724
7177.76035,0.25637
7179.68882,0.22648
7181.61729,0.14811
7183.54576,0.08664
7185.47422,0.01965
7187.40269,-0.08672
7189.33116,-0.14154
7191.25963,-0.06274
7193.18810,0.03224
7195.11657,0.09048
7197.04504,0.12252
7198.97350,0.05960
7200.90197,-0.02694
7202.83044,-0.00889
7204.75891,0.07896
7206.68738,0.09752
7208.61585,0.09128
7210.54432,0.11770
7212.47279,0.14335
7214.40125,0.09458
7216.32972,-0.02803
7218.25819,-0.09337
7220.18666,-0.06113
7222.11513,-0.03519
7224.04360,-0.03244
7225.97207,-0.00683
7227.90053,0.05246
7229.82900,0.09687
7231.75747,0.08561
7233.68594,0.07478
7235.61441,0.10957
7237.54288,0.07923
7239.47135,-0.06916
7241.39982,-0.19558
7243.32828,-0.19462
7245.25675,-0.08887
7247.18522,0.04595
7249.11369,0.09473
7251.04216,0.03772
7252.97063,0.01038
7254.89910,0.03244
7256.82756,0.05857
7258.75603,0.07040
7260.68450,-0.00419
7262.61297,-0.09087
7264.54144,-0.03528
7266.46991,0.05027
7268.39838,0.07279
7270.32685,0.10518
7272.25531,0.13082
7274.18378,0.03466
7276.11225,-0.10164
7278.04072,-0.18211
7279.96919,-0.14298
7281.89766,-0.00061
7283.82613,0.11908
7285.75459,0.17252
7287.68306,0.16563
7289.61153,0.13870
7291.54000,0.11590
7293.46847,0.09333
7295.39694,0.08618
7297.32541,0.09592
7299.25387,0.13492
7301.18234,0.21955
7303.11081,0.26895
7305.03928,0.18609
7306.96775,0.00458
7308.89622,-0.17732
7310.82469,-0.24708
7312.75316,-0.16759
7314.68162,-0.02245
7316.61009,0.02903
7318.53856,-0.02237
7320.46703,-0.01999
7322.39550,0.02137
7324.32397,0.03840
7326.25244,0.04894
7328.18090,0.10244
7330.10937,0.13361
7332.03784,0.08745
7333.96631,0.06970
7335.89478,0.06145
7337.82325,0.00492
7339.75172,-0.02004
7341.68019,0.01601
7343.60865,-0.07238
7345.53712,-0.22405
7347.46559,-0.28061
7349.39406,-0.24756
7351.32253,-0.20234
7353.25100,-0.16786
7355.17947,-0.09388
7357.10793,0.06047
7359.03640,0.15993
7360.96487,0.09802
7362.89334,-0.00483
7364.82181,-0.02572
7366.75028,0.03855
7368.67875,0.06218
7370.60722,0.03529
7372.53568,0.09352
7374.46415,0.25189
7376.39262,0.30372
7378.32109,0.22793
7380.24956,0.19275
7382.17803,0.20854
7384.10650,0.20840
7386.03496,0.19924
7387.96343,0.20251
7389.89190,0.17606
7391.82037,0.13907
7393.74884,0.13966
7395.67731,0.15495
7397.60578,0.17685
7399.53425,0.22870
7401.46271,0.25067
7403.39118,0.18927
7405.31965,0.08239
7407.24812,-0.02355
7409.17659,-0.07320
7411.10506,-0.00820
7413.03353,0.07736
7414.96199,0.07405
7416.89046,0.02510
7418.81893,0.05634
7420.74740,0.12802
7422.67587,0.13764
7424.60434,0.10713
7426.53281,0.03427
7428.46128,-0.09616
7430.38974,-0.24568
7432.31821,-0.29613
7434.24668,-0.25156
7436.17515,-0.18846
7438.10362,-0.11208
7440.03209,-0.01505
7441.96056,0.04504
7443.88902,0.05470
7445.81749,0.08314
7447.74596,0.16402
7449.67443,0.22749
7451.60290,0.15855
7453.53137,0.05416
7455.45984,0.02229
7457.38831,0.00670
7459.31677,-0.00141
7461.24524,-0.02494
7463.17371,-0.11425
7465.10218,-0.18669
7467.03065,-0.14271
7468.95912,-0.05061
7470.88759,0.05477
7472.81605,0.18690
7474.74452,0.27035
7476.67299,0.21271
7478.60146,-0.00377
7480.52993,-0.13128
7482.45840,-0.08702
7484.38687,-0.17061
7486.31533,-0.31186
7488.24380,-0.25366
7490.17227,-0.02726
7492.10074,0.10046
7494.02921,0.04682
7495.95768,0.00158
7497.88615,0.06466
