399.19301,0.71806
401.12148,0.26608
403.04995,0.23840
404.97842,0.23320
406.90689,0.18451
408.83536,0.11777
410.76382,0.03766
412.69229,-0.01574
414.62076,-0.04051
416.54923,-0.01524
418.47770,0.09993
420.40617,0.14282
422.33464,0.10544
424.26311,0.12103
426.19157,0.12568
428.12004,0.06067
430.04851,-0.01768
431.97698,-0.01978
433.90545,0.01031
435.83392,-0.00045
437.76239,-0.01647
439.69085,-0.03778
441.61932,-0.06593
443.54779,-0.05366
445.47626,-0.01968
447.40473,0.00776
449.33320,0.03549
451.26167,0.06862
453.19013,0.07808
455.11860,0.04940
457.04707,0.01117
458.97554,-0.04221
460.90401,-0.08415
462.83248,-0.06903
464.76095,-0.03006
466.68942,-0.00949
468.61788,-0.00371
470.54635,0.04248
472.47482,0.40201
474.40329,0.89698
476.33176,0.60353
478.26023,0.18233
480.18870,0.06100
482.11716,0.08143
484.04563,0.09261
485.97410,0.08218
487.90257,0.06860
489.83104,0.05437
491.75951,0.03970
493.68798,0.03146
495.61645,0.02044
497.54491,0.02005
499.47338,0.04912
501.40185,0.07272
503.33032,0.06216
505.25879,0.04122
507.18726,0.02809
509.11573,0.02615
511.04419,0.03489
512.97266,0.04453
514.90113,0.05260
516.82960,0.05576
518.75807,0.03271
520.68654,0.00566
522.61501,0.00746
524.54348,0.02772
526.47194,0.04605
528.40041,0.06044
530.32888,0.07023
532.25735,0.05751
534.18582,0.02857
536.11429,0.00865
538.04276,0.00298
539.97122,0.00857
541.89969,0.01774
543.82816,0.03051
545.75663,0.05522
547.68510,0.07816
549.61357,0.08568
551.54204,0.08522
553.47051,0.07599
555.39897,0.06311
557.32744,0.06024
559.25591,0.05952
561.18438,0.05401
563.11285,0.05178
565.04132,0.04792
566.96979,0.03243
568.89825,0.01668
570.82672,0.00947
572.75519,0.00636
574.68366,0.01211
576.61213,0.02351
578.54060,0.02366
580.46907,0.02096
582.39754,0.03456
584.32600,0.04676
586.25447,0.04129
588.18294,0.03170
590.11141,0.02076
592.03988,0.00679
593.96835,0.00691
595.89682,0.01354
597.82528,0.01302
599.75375,0.02175
601.68222,0.02777
603.61069,0.01879
605.53916,0.02358
607.46763,0.03647
609.39610,0.03490
611.32456,0.02815
613.25303,0.02641
615.18150,0.02643
617.10997,0.02983
619.03844,0.03628
620.96691,0.03626
622.89538,0.02736
624.82385,0.01585
626.75231,0.01520
628.68078,0.03189
630.60925,0.04683
632.53772,0.04255
634.46619,0.03120
636.39466,0.03003
638.32313,0.04021
640.25159,0.05004
642.18006,0.04503
644.10853,0.03665
646.03700,0.03603
647.96547,0.03061
649.89394,0.02687
651.82241,0.03811
653.75088,0.04741
655.67934,0.04131
657.60781,0.03077
659.53628,0.03240
661.46475,0.03846
663.39322,0.02969
665.32169,0.01545
667.25016,0.01816
669.17862,0.05069
671.10709,0.07299
673.03556,0.06911
674.96403,0.04980
676.89250,0.02806
678.82097,0.01860
680.74944,0.02594
682.67791,0.03808
684.60637,0.04390
686.53484,0.04467
688.46331,0.04812
690.39178,0.06134
692.32025,0.07189
694.24872,0.05992
696.17719,0.04044
698.10565,0.03388
700.03412,0.03321
701.96259,0.03397
703.89106,0.04179
705.81953,0.05143
707.74800,0.04577
709.67647,0.03046
711.60494,0.02815
713.53340,0.03488
715.46187,0.03821
717.39034,0.04330
719.31881,0.05069
721.24728,0.05144
723.17575,0.04537
725.10422,0.03725
727.03268,0.02858
728.96115,0.02347
730.88962,0.02466
732.81809,0.02791
734.74656,0.03321
736.67503,0.03975
738.60350,0.04026
740.53197,0.04159
742.46043,0.04866
744.38890,0.04838
746.31737,0.03995
748.24584,0.03352
750.17431,0.03121
752.10278,0.03071
754.03125,0.03045
755.95971,0.03252
757.88818,0.03604
759.81665,0.04002
761.74512,0.04516
763.67359,0.04780
765.60206,0.05022
767.53053,0.05179
769.45900,0.04164
771.38746,0.02491
773.31593,0.01954
775.24440,0.02631
777.17287,0.03417
779.10134,0.03930
781.02981,0.04313
782.95828,0.04527
784.88674,0.04571
786.81521,0.04561
788.74368,0.04147
790.67215,0.03673
792.60062,0.03884
794.52909,0.04246
796.45756,0.04656
798.38602,0.05352
800.31449,0.05293
802.24296,0.04623
804.17143,0.04964
806.09990,0.05744
808.02837,0.05353
809.95684,0.04511
811.88531,0.04400
813.81377,0.04468
815.74224,0.04084
817.67071,0.03838
819.59918,0.04312
821.52765,0.04967
823.45612,0.05170
825.38459,0.05196
827.31305,0.05121
829.24152,0.04807
831.16999,0.04619
833.09846,0.04814
835.02693,0.05404
836.95540,0.05529
838.88387,0.04499
840.81234,0.03476
842.74080,0.03749
844.66927,0.04814
846.59774,0.05333
848.52621,0.05304
850.45468,0.05275
852.38315,0.05100
854.31162,0.04738
856.24008,0.04534
858.16855,0.04522
860.09702,0.04447
862.02549,0.04222
863.95396,0.03873
865.88243,0.03906
867.81090,0.05734
869.73937,0.09128
871.66783,0.10240
873.59630,0.07532
875.52477,0.04435
877.45324,0.03119
879.38171,0.02952
881.31018,0.03175
883.23865,0.03577
885.16711,0.04167
887.09558,0.04615
889.02405,0.04629
890.95252,0.04449
892.88099,0.04447
894.80946,0.04480
896.73793,0.04165
898.66640,0.03769
900.59486,0.04000
902.52333,0.04833
904.45180,0.05698
906.38027,0.06300
908.30874,0.06344
910.23721,0.05970
912.16568,0.05432
914.09414,0.04516
916.02261,0.03678
917.95108,0.03512
919.87955,0.03794
921.80802,0.04403
923.73649,0.05147
925.66496,0.05450
927.59343,0.05171
929.52189,0.04855
931.45036,0.04989
933.37883,0.05164
935.30730,0.04869
937.23577,0.04484
939.16424,0.04326
941.09271,0.04223
943.02117,0.04330
944.94964,0.04516
946.87811,0.04347
948.80658,0.04259
950.73505,0.04324
952.66352,0.04008
954.59199,0.03975
956.52045,0.04837
958.44892,0.05574
960.37739,0.05274
962.30586,0.04132
964.23433,0.03160
966.16280,0.03265
968.09127,0.03954
970.01974,0.04576
971.94820,0.04831
973.87667,0.04405
975.80514,0.04128
977.73361,0.04604
979.66208,0.05155
981.59055,0.05426
983.51902,0.05554
985.44748,0.05531
987.37595,0.05467
989.30442,0.05299
991.23289,0.04751
993.16136,0.04243
995.08983,0.04243
997.01830,0.04331
998.94677,0.04156
1000.87523,0.04182
1002.80370,0.04721
1004.73217,0.05266
1006.66064,0.05429
1008.58911,0.05348
1010.51758,0.05259
1012.44605,0.05212
1014.37451,0.05201
1016.30298,0.05120
1018.23145,0.04805
1020.15992,0.04672
1022.08839,0.04900
1024.01686,0.04997
1025.94533,0.04683
1027.87380,0.04038
1029.80226,0.03748
1031.73073,0.04415
1033.65920,0.05447
1035.58767,0.05905
1037.51614,0.05430
1039.44461,0.04503
1041.37308,0.04150
1043.30154,0.04793
1045.23001,0.05651
1047.15848,0.05520
1049.08695,0.04485
1051.01542,0.03870
1052.94389,0.04120
1054.87236,0.04584
1056.80083,0.04845
1058.72929,0.04965
1060.65776,0.05316
1062.58623,0.06082
1064.51470,0.06260
1066.44317,0.05353
1068.37164,0.04868
1070.30011,0.05339
1072.22857,0.05540
1074.15704,0.05257
1076.08551,0.05402
1078.01398,0.05750
1079.94245,0.05229
1081.87092,0.04429
1083.79939,0.04562
1085.72786,0.05087
1087.65632,0.05173
1089.58479,0.04962
1091.51326,0.04814
1093.44173,0.04799
1095.37020,0.04448
1097.29867,0.04001
1099.22714,0.04364
1101.15560,0.05147
1103.08407,0.05368
1105.01254,0.04926
1106.94101,0.04503
1108.86948,0.04558
1110.79795,0.04604
1112.72642,0.04519
1114.65489,0.04812
1116.58335,0.05154
1118.51182,0.05159
1120.44029,0.04930
1122.36876,0.04546
1124.29723,0.04637
1126.22570,0.05153
1128.15417,0.04977
1130.08263,0.04387
1132.01110,0.04242
1133.93957,0.04282
1135.86804,0.04324
1137.79651,0.04436
1139.72498,0.04592
1141.65345,0.04950
1143.58191,0.05412
1145.51038,0.05651
1147.43885,0.05525
1149.36732,0.05219
1151.29579,0.05190
1153.22426,0.05419
1155.15273,0.05450
1157.08120,0.05369
1159.00966,0.05400
1160.93813,0.05521
1162.86660,0.05703
1164.79507,0.05637
1166.72354,0.05303
1168.65201,0.05110
1170.58048,0.05247
1172.50894,0.05611
1174.43741,0.05922
1176.36588,0.05991
1178.29435,0.05872
1180.22282,0.05768
1182.15129,0.05778
1184.07976,0.05798
1186.00823,0.05771
1187.93669,0.05683
1189.86516,0.05517
1191.79363,0.05382
1193.72210,0.05447
1195.65057,0.05552
1197.57904,0.05370
1199.50751,0.05023
1201.43597,0.04791
1203.36444,0.04711
1205.29291,0.04825
1207.22138,0.05155
1209.14985,0.05471
1211.07832,0.05517
1213.00679,0.05432
1214.93526,0.05334
1216.86372,0.05191
1218.79219,0.05137
1220.72066,0.05130
1222.64913,0.05221
1224.57760,0.05551
1226.50607,0.05785
1228.43454,0.05677
1230.36300,0.05499
1232.29147,0.05377
1234.21994,0.05201
1236.14841,0.05137
1238.07688,0.05347
1240.00535,0.05713
1241.93382,0.05793
1243.86229,0.05421
1245.79075,0.05204
1247.71922,0.05254
1249.64769,0.05159
1251.57616,0.05081
1253.50463,0.05203
1255.43310,0.05387
1257.36157,0.05565
1259.29003,0.05607
1261.21850,0.05342
1263.14697,0.04901
1265.07544,0.04747
1267.00391,0.05075
1268.93238,0.05438
1270.86085,0.05582
1272.78932,0.05591
1274.71778,0.05451
1276.64625,0.05366
1278.57472,0.05519
1280.50319,0.05704
1282.43166,0.05754
1284.36013,0.05856
1286.28860,0.06052
1288.21706,0.05945
1290.14553,0.05494
1292.07400,0.05235
1294.00247,0.05357
1295.93094,0.05573
1297.85941,0.05632
1299.78788,0.05380
1301.71634,0.04907
1303.64481,0.04652
1305.57328,0.04995
1307.50175,0.05653
1309.43022,0.06055
1311.35869,0.06086
1313.28716,0.05869
1315.21563,0.05788
1317.14409,0.06018
1319.07256,0.06051
1321.00103,0.05881
1322.92950,0.05915
1324.85797,0.05976
1326.78644,0.05893
1328.71491,0.05828
1330.64337,0.05721
1332.57184,0.05433
1334.50031,0.05221
1336.42878,0.05376
1338.35725,0.05646
1340.28572,0.05484
1342.21419,0.05084
1344.14266,0.04970
1346.07112,0.05136
1347.99959,0.05322
1349.92806,0.05253
1351.85653,0.05083
1353.78500,0.05229
1355.71347,0.05617
1357.64194,0.05905
1359.57040,0.05988
1361.49887,0.05931
1363.42734,0.05795
1365.35581,0.05724
1367.28428,0.05578
1369.21275,0.05212
1371.14122,0.05156
1373.06969,0.05594
1374.99815,0.05893
1376.92662,0.05831
1378.85509,0.05717
1380.78356,0.05640
1382.71203,0.05685
1384.64050,0.05912
1386.56897,0.06192
1388.49743,0.06342
1390.42590,0.06359
1392.35437,0.06423
1394.28284,0.06618
1396.21131,0.06778
1398.13978,0.06732
1400.06825,0.06506
1401.99672,0.06397
1403.92518,0.06435
1405.85365,0.06262
1407.78212,0.05957
1409.71059,0.05765
1411.63906,0.05588
1413.56753,0.05567
1415.49600,0.05911
1417.42446,0.06259
1419.35293,0.06180
1421.28140,0.06158
1423.20987,0.06211
1425.13834,0.06000
1427.06681,0.05908
1428.99528,0.06091
1430.92375,0.06107
1432.85221,0.06028
1434.78068,0.06342
1436.70915,0.06769
1438.63762,0.06583
1440.56609,0.06210
1442.49456,0.05926
1444.42303,0.05786
1446.35149,0.05964
1448.27996,0.06139
1450.20843,0.06001
1452.13690,0.05922
1454.06537,0.06164
1455.99384,0.06971
1457.92231,0.07777
1459.85077,0.07335
1461.77924,0.06853
1463.70771,0.06801
1465.63618,0.06714
1467.56465,0.06335
1469.49312,0.06215
1471.42159,0.06900
1473.35006,0.07903
1475.27852,0.07680
1477.20699,0.06947
1479.13546,0.06705
1481.06393,0.06825
1482.99240,0.06815
1484.92087,0.06735
1486.84934,0.07014
1488.77780,0.07517
1490.70627,0.07425
1492.63474,0.07152
1494.56321,0.07363
1496.49168,0.07668
1498.42015,0.07212
1500.34862,0.06412
1502.27709,0.05949
1504.20555,0.05950
1506.13402,0.07004
1508.06249,0.08265
1509.99096,0.08014
1511.91943,0.07924
1513.84790,0.08335
1515.77637,0.08619
1517.70483,0.08398
1519.63330,0.08539
1521.56177,0.09096
1523.49024,0.08734
1525.41871,0.08045
1527.34718,0.07663
1529.27565,0.07466
1531.20412,0.07564
1533.13258,0.07825
1535.06105,0.07703
1536.98952,0.07672
1538.91799,0.08320
1540.84646,0.09143
1542.77493,0.09105
1544.70340,0.08465
1546.63186,0.07619
1548.56033,0.06988
1550.48880,0.06717
1552.41727,0.06944
1554.34574,0.07459
1556.27421,0.08125
1558.20268,0.09061
1560.13115,0.08352
1562.05961,0.07183
1563.98808,0.06744
1565.91655,0.06664
1567.84502,0.06882
1569.77349,0.07080
1571.70196,0.07049
1573.63043,0.07199
1575.55889,0.07229
1577.48736,0.06568
1579.41583,0.06006
1581.34430,0.05933
1583.27277,0.06083
1585.20124,0.06098
1587.12971,0.05985
1589.05818,0.05962
1590.98664,0.06001
1592.91511,0.06004
1594.84358,0.05873
1596.77205,0.05693
1598.70052,0.05768
1600.62899,0.05969
1602.55746,0.06045
1604.48592,0.06157
1606.41439,0.06237
1608.34286,0.06128
1610.27133,0.06159
1612.19980,0.06424
1614.12827,0.06697
1616.05674,0.06912
1617.98521,0.06872
1619.91367,0.06829
1621.84214,0.07002
1623.77061,0.06924
1625.69908,0.06616
1627.62755,0.06561
1629.55602,0.06506
1631.48449,0.06472
1633.41295,0.06979
1635.34142,0.08044
1637.26989,0.08062
1639.19836,0.07240
1641.12683,0.06738
1643.05530,0.06646
1644.98377,0.07016
1646.91223,0.07715
1648.84070,0.07878
1650.76917,0.07999
1652.69764,0.08516
1654.62611,0.07844
1656.55458,0.06885
1658.48305,0.06698
1660.41152,0.07087
1662.33998,0.07397
1664.26845,0.07029
1666.19692,0.06767
1668.12539,0.07278
1670.05386,0.08009
1671.98233,0.07878
1673.91080,0.07503
1675.83926,0.07304
1677.76773,0.07036
1679.69620,0.06877
1681.62467,0.07363
1683.55314,0.08356
1685.48161,0.08054
1687.41008,0.07206
1689.33855,0.06932
1691.26701,0.06926
1693.19548,0.07183
1695.12395,0.08040
1697.05242,0.09159
1698.98089,0.09601
1700.90936,0.08899
1702.83783,0.07890
1704.76629,0.07539
1706.69476,0.07482
1708.62323,0.07179
1710.55170,0.06790
1712.48017,0.06671
1714.40864,0.06977
1716.33711,0.07426
1718.26558,0.07428
1720.19404,0.07150
1722.12251,0.06989
1724.05098,0.06877
1725.97945,0.06640
1727.90792,0.06548
1729.83639,0.06814
1731.76486,0.07202
1733.69332,0.07518
1735.62179,0.07477
1737.55026,0.07408
1739.47873,0.07499
1741.40720,0.07356
1743.33567,0.07040
1745.26414,0.06991
1747.19261,0.07256
1749.12107,0.07604
1751.04954,0.07713
1752.97801,0.07436
1754.90648,0.07100
1756.83495,0.06869
1758.76342,0.06785
1760.69189,0.06951
1762.62035,0.07035
1764.54882,0.06931
1766.47729,0.07017
1768.40576,0.07241
1770.33423,0.07512
1772.26270,0.07741
1774.19117,0.07553
1776.11964,0.07228
1778.04810,0.07052
1779.97657,0.06907
1781.90504,0.06785
1783.83351,0.06875
1785.76198,0.07051
1787.69045,0.07138
1789.61892,0.07244
1791.54738,0.07235
1793.47585,0.06922
1795.40432,0.06814
1797.33279,0.07095
1799.26126,0.07395
1801.18973,0.07307
1803.11820,0.06879
1805.04666,0.06535
1806.97513,0.06511
1808.90360,0.06756
1810.83207,0.06981
1812.76054,0.06906
1814.68901,0.06695
1816.61748,0.06610
1818.54595,0.06548
1820.47441,0.06473
1822.40288,0.06694
1824.33135,0.07138
1826.25982,0.07366
1828.18829,0.07475
1830.11676,0.07515
1832.04523,0.07182
1833.97369,0.06768
1835.90216,0.06540
1837.83063,0.06418
1839.75910,0.06445
1841.68757,0.06770
1843.61604,0.07094
1845.54451,0.06875
1847.47298,0.06646
1849.40144,0.06708
1851.32991,0.06635
1853.25838,0.06464
1855.18685,0.06426
1857.11532,0.06485
1859.04379,0.06539
1860.97226,0.06463
1862.90072,0.06360
1864.82919,0.06496
1866.75766,0.06980
1868.68613,0.07402
1870.61460,0.07185
1872.54307,0.06759
1874.47154,0.06686
1876.40001,0.06897
1878.32847,0.06892
1880.25694,0.06644
1882.18541,0.06576
1884.11388,0.06661
1886.04235,0.06667
1887.97082,0.06650
1889.89929,0.06678
1891.82775,0.06737
1893.75622,0.06851
1895.68469,0.06899
1897.61316,0.06805
1899.54163,0.06709
1901.47010,0.06630
1903.39857,0.06529
1905.32704,0.06456
1907.25550,0.06528
1909.18397,0.06754
1911.11244,0.06969
1913.04091,0.07142
1914.96938,0.07267
1916.89785,0.07214
1918.82632,0.07023
1920.75478,0.06935
1922.68325,0.06932
1924.61172,0.06762
1926.54019,0.06490
1928.46866,0.06541
1930.39713,0.06909
1932.32560,0.07004
1934.25407,0.06679
1936.18253,0.06369
1938.11100,0.06320
1940.03947,0.06488
1941.96794,0.06694
1943.89641,0.06649
1945.82488,0.06401
1947.75335,0.06348
1949.68181,0.06569
1951.61028,0.06720
1953.53875,0.06646
1955.46722,0.06616
1957.39569,0.06730
1959.32416,0.06838
1961.25263,0.06960
1963.18110,0.07097
1965.10956,0.07210
1967.03803,0.07243
1968.96650,0.07062
1970.89497,0.06866
1972.82344,0.06865
1974.75191,0.06933
1976.68038,0.07026
1978.60884,0.07171
1980.53731,0.07126
1982.46578,0.06804
1984.39425,0.06551
1986.32272,0.06555
1988.25119,0.06728
1990.17966,0.06914
1992.10812,0.06929
1994.03659,0.06734
1995.96506,0.06564
1997.89353,0.06615
1999.82200,0.06691
2001.75047,0.06606
2003.67894,0.06553
2005.60741,0.06640
2007.53587,0.06732
2009.46434,0.06748
2011.39281,0.06695
2013.32128,0.06606
2015.24975,0.06613
2017.17822,0.06664
2019.10669,0.06509
2021.03515,0.06303
2022.96362,0.06280
2024.89209,0.06340
2026.82056,0.06449
2028.74903,0.06606
2030.67750,0.06693
2032.60597,0.06663
2034.53444,0.06599
2036.46290,0.06604
2038.39137,0.06648
2040.31984,0.06664
2042.24831,0.06700
2044.17678,0.06795
2046.10525,0.06932
2048.03372,0.07041
2049.96218,0.07018
2051.89065,0.06955
2053.81912,0.06995
2055.74759,0.07024
2057.67606,0.06971
2059.60453,0.06903
2061.53300,0.06812
2063.46147,0.06708
2065.38993,0.06627
2067.31840,0.06607
2069.24687,0.06636
2071.17534,0.06599
2073.10381,0.06519
2075.03228,0.06544
2076.96075,0.06627
2078.88921,0.06596
2080.81768,0.06549
2082.74615,0.06700
2084.67462,0.06933
2086.60309,0.07013
2088.53156,0.06910
2090.46003,0.06764
2092.38850,0.06728
2094.31696,0.06763
2096.24543,0.06721
2098.17390,0.06640
2100.10237,0.06702
2102.03084,0.06892
2103.95931,0.06947
2105.88778,0.06709
2107.81624,0.06404
2109.74471,0.06405
2111.67318,0.06697
2113.60165,0.06906
2115.53012,0.06847
2117.45859,0.06757
2119.38706,0.06812
2121.31553,0.06766
2123.24399,0.06463
2125.17246,0.06200
2127.10093,0.06235
2129.02940,0.06396
2130.95787,0.06526
2132.88634,0.06693
2134.81481,0.06942
2136.74327,0.07262
2138.67174,0.07342
2140.60021,0.07034
2142.52868,0.06818
2144.45715,0.06863
2146.38562,0.06842
2148.31409,0.06791
2150.24255,0.06882
2152.17102,0.07027
2154.09949,0.07099
2156.02796,0.07006
2157.95643,0.06894
2159.88490,0.06930
2161.81337,0.06977
2163.74184,0.06938
2165.67030,0.06780
2167.59877,0.06605
2169.52724,0.06623
2171.45571,0.06731
2173.38418,0.06778
2175.31265,0.06754
2177.24112,0.06677
2179.16958,0.06733
2181.09805,0.06958
2183.02652,0.07076
2184.95499,0.06970
2186.88346,0.06885
2188.81193,0.07059
2190.74040,0.07305
2192.66887,0.07321
2194.59733,0.07126
2196.52580,0.06881
2198.45427,0.06659
2200.38274,0.06496
2202.31121,0.06469
2204.23968,0.06575
2206.16815,0.06715
2208.09661,0.06738
2210.02508,0.06578
2211.95355,0.06465
2213.88202,0.06578
2215.81049,0.06772
2217.73896,0.06844
2219.66743,0.06746
2221.59590,0.06607
2223.52436,0.06566
2225.45283,0.06653
2227.38130,0.06838
2229.30977,0.06993
2231.23824,0.06986
2233.16671,0.06953
2235.09518,0.07081
2237.02364,0.07231
2238.95211,0.07237
2240.88058,0.07150
2242.80905,0.07008
2244.73752,0.06872
2246.66599,0.06905
2248.59446,0.07043
2250.52293,0.07001
2252.45139,0.06814
2254.37986,0.06762
2256.30833,0.06866
2258.23680,0.06880
2260.16527,0.06740
2262.09374,0.06768
2264.02221,0.07020
2265.95067,0.07114
2267.87914,0.06980
2269.80761,0.06832
2271.73608,0.06772
2273.66455,0.06821
2275.59302,0.06901
2277.52149,0.06904
2279.44996,0.06850
2281.37842,0.06774
2283.30689,0.06634
2285.23536,0.06443
2287.16383,0.06397
2289.09230,0.06635
2291.02077,0.06952
2292.94924,0.07190
2294.87770,0.07355
2296.80617,0.07301
2298.73464,0.07056
2300.66311,0.06815
2302.59158,0.06569
2304.52005,0.06415
2306.44852,0.06474
2308.37699,0.06580
2310.30545,0.06636
2312.23392,0.06663
2314.16239,0.06676
2316.09086,0.06677
2318.01933,0.06588
2319.94780,0.06356
2321.87627,0.05834
2323.80473,0.05154
2325.73320,0.04979
2327.66167,0.05481
2329.59014,0.06329
2331.51861,0.06738
2333.44708,0.05615
2335.37555,0.03842
2337.30401,0.03628
2339.23248,0.04912
2341.16095,0.05705
2343.08942,0.05676
2345.01789,0.05823
2346.94636,0.06341
2348.87483,0.07000
2350.80330,0.07625
2352.73176,0.07714
2354.66023,0.07165
2356.58870,0.07536
2358.51717,0.08581
2360.44564,0.07351
2362.37411,0.04837
2364.30258,0.04435
2366.23104,0.05812
2368.15951,0.06672
2370.08798,0.06729
2372.01645,0.06754
2373.94492,0.06607
2375.87339,0.06209
2377.80186,0.06139
2379.73033,0.06554
2381.65879,0.06994
2383.58726,0.07234
2385.51573,0.07365
2387.44420,0.07332
2389.37267,0.07023
2391.30114,0.06615
2393.22961,0.06532
2395.15807,0.06789
2397.08654,0.06931
2399.01501,0.06892
2400.94348,0.06836
2402.87195,0.06713
2404.80042,0.06604
2406.72889,0.06614
2408.65736,0.06754
2410.58582,0.07052
2412.51429,0.07297
2414.44276,0.07226
2416.37123,0.07051
2418.29970,0.07113
2420.22817,0.07215
2422.15664,0.07125
2424.08510,0.07077
2426.01357,0.07132
2427.94204,0.07056
2429.87051,0.06817
2431.79898,0.06545
2433.72745,0.06405
2435.65592,0.06424
2437.58439,0.06473
2439.51285,0.06569
2441.44132,0.06736
2443.36979,0.06845
2445.29826,0.06823
2447.22673,0.06731
2449.15520,0.06699
2451.08367,0.06503
2453.01213,0.05879
2454.94060,0.05532
2456.86907,0.06076
2458.79754,0.06747
2460.72601,0.06837
2462.65448,0.06669
2464.58295,0.06651
2466.51142,0.06758
2468.43988,0.06870
2470.36835,0.06962
2472.29682,0.07094
2474.22529,0.07309
2476.15376,0.07399
2478.08223,0.07204
2480.01070,0.07012
2481.93916,0.06936
2483.86763,0.06749
2485.79610,0.06589
2487.72457,0.06691
2489.65304,0.06900
2491.58151,0.07030
2493.50998,0.07004
2495.43844,0.06937
2497.36691,0.07012
2499.29538,0.07128
2501.22385,0.07168
2503.15232,0.07169
2505.08079,0.07086
2507.00926,0.06917
2508.93773,0.06769
2510.86619,0.06694
2512.79466,0.06710
2514.72313,0.06821
2516.65160,0.06955
2518.58007,0.07065
2520.50854,0.07220
2522.43701,0.07319
2524.36547,0.07159
2526.29394,0.06891
2528.22241,0.06761
2530.15088,0.06820
2532.07935,0.06961
2534.00782,0.06999
2535.93629,0.06903
2537.86476,0.06856
2539.79322,0.06938
2541.72169,0.06907
2543.65016,0.06786
2545.57863,0.06910
2547.50710,0.07172
2549.43557,0.07308
2551.36404,0.07301
2553.29250,0.07148
2555.22097,0.06872
2557.14944,0.06666
2559.07791,0.06652
2561.00638,0.06782
2562.93485,0.06951
2564.86332,0.07039
2566.79179,0.07025
2568.72025,0.06972
2570.64872,0.06910
2572.57719,0.06815
2574.50566,0.06716
2576.43413,0.06783
2578.36260,0.07028
2580.29107,0.07196
2582.21953,0.07210
2584.14800,0.07162
2586.07647,0.07078
2588.00494,0.07068
2589.93341,0.07172
2591.86188,0.07196
2593.79035,0.07059
2595.71882,0.06927
2597.64728,0.06908
2599.57575,0.06929
2601.50422,0.06941
2603.43269,0.06968
2605.36116,0.07044
2607.28963,0.07087
2609.21810,0.06934
2611.14656,0.06773
2613.07503,0.06866
2615.00350,0.06996
2616.93197,0.06986
2618.86044,0.07014
2620.78891,0.07115
2622.71738,0.07170
2624.64585,0.07105
2626.57431,0.06996
2628.50278,0.06956
2630.43125,0.06910
2632.35972,0.06870
2634.28819,0.06943
2636.21666,0.07075
2638.14513,0.07072
2640.07359,0.06860
2642.00206,0.06709
2643.93053,0.06813
2645.85900,0.07027
2647.78747,0.07165
2649.71594,0.07172
2651.64441,0.07171
2653.57288,0.07185
2655.50134,0.07062
2657.42981,0.06919
2659.35828,0.06889
2661.28675,0.06854
2663.21522,0.06780
2665.14369,0.06797
2667.07216,0.07000
2669.00062,0.07236
2670.92909,0.07291
2672.85756,0.07159
2674.78603,0.07021
2676.71450,0.07041
2678.64297,0.07094
2680.57144,0.07100
2682.49990,0.07214
2684.42837,0.07330
2686.35684,0.07237
2688.28531,0.07103
2690.21378,0.07120
2692.14225,0.07142
2694.07072,0.07031
2695.99919,0.06816
2697.92765,0.06636
2699.85612,0.06655
2701.78459,0.06792
2703.71306,0.06851
2705.64153,0.06840
2707.57000,0.06855
2709.49847,0.06884
2711.42693,0.06923
2713.35540,0.06982
2715.28387,0.06914
2717.21234,0.06752
2719.14081,0.06778
2721.06928,0.07023
2722.99775,0.07332
2724.92622,0.07453
2726.85468,0.07321
2728.78315,0.07182
2730.71162,0.07026
2732.64009,0.07012
2734.56856,0.07312
2736.49703,0.07512
2738.42550,0.07533
2740.35396,0.07527
2742.28243,0.07375
2744.21090,0.07205
2746.13937,0.07213
2748.06784,0.07268
2749.99631,0.07228
2751.92478,0.07202
2753.85325,0.07249
2755.78171,0.07378
2757.71018,0.07605
2759.63865,0.07655
2761.56712,0.07402
2763.49559,0.07158
2765.42406,0.07141
2767.35253,0.07327
2769.28099,0.07593
2771.20946,0.07808
2773.13793,0.07785
2775.06640,0.07486
2776.99487,0.07262
2778.92334,0.07257
2780.85181,0.07238
2782.78028,0.07239
2784.70874,0.07339
2786.63721,0.07382
2788.56568,0.07414
2790.49415,0.07466
2792.42262,0.07360
2794.35109,0.07200
2796.27956,0.07215
2798.20802,0.07312
2800.13649,0.07352
2802.06496,0.07423
2803.99343,0.07568
2805.92190,0.07691
2807.85037,0.07708
2809.77884,0.07673
2811.70731,0.07712
2813.63577,0.07783
2815.56424,0.07789
2817.49271,0.07733
2819.42118,0.07666
2821.34965,0.07618
2823.27812,0.07599
2825.20659,0.07568
2827.13505,0.07411
2829.06352,0.07177
2830.99199,0.07091
2832.92046,0.07174
2834.84893,0.07227
2836.77740,0.07195
2838.70587,0.07165
2840.63433,0.07173
2842.56280,0.07226
2844.49127,0.07372
2846.41974,0.07407
2848.34821,0.07126
2850.27668,0.06890
2852.20515,0.06854
2854.13362,0.06909
2856.06208,0.07068
2857.99055,0.07200
2859.91902,0.07280
2861.84749,0.07313
2863.77596,0.07390
2865.70443,0.07528
2867.63290,0.07446
2869.56136,0.07158
2871.48983,0.06991
2873.41830,0.07045
2875.34677,0.07076
2877.27524,0.06964
2879.20371,0.06865
2881.13218,0.06862
2883.06065,0.06938
2884.98911,0.07114
2886.91758,0.07222
2888.84605,0.07140
2890.77452,0.07174
2892.70299,0.07361
2894.63146,0.07379
2896.55993,0.07245
2898.48839,0.07274
2900.41686,0.07561
2902.34533,0.07800
2904.27380,0.07753
2906.20227,0.07573
2908.13074,0.07488
2910.05921,0.07556
2911.98768,0.07626
2913.91614,0.07531
2915.84461,0.07374
2917.77308,0.07206
2919.70155,0.06960
2921.63002,0.06806
2923.55849,0.06721
2925.48696,0.06406
2927.41542,0.05939
2929.34389,0.05849
2931.27236,0.06351
2933.20083,0.06978
2935.12930,0.07337
2937.05777,0.07410
2938.98624,0.07337
2940.91471,0.07360
2942.84317,0.07406
2944.77164,0.07240
2946.70011,0.06959
2948.62858,0.06790
2950.55705,0.06879
2952.48552,0.07132
2954.41399,0.07285
2956.34245,0.07265
2958.27092,0.07233
2960.19939,0.07277
2962.12786,0.07202
2964.05633,0.06961
2965.98480,0.06888
2967.91327,0.07133
2969.84174,0.07428
2971.77020,0.07504
2973.69867,0.07423
2975.62714,0.07271
2977.55561,0.07059
2979.48408,0.06903
2981.41255,0.06890
2983.34102,0.07097
2985.26948,0.07417
2987.19795,0.07626
2989.12642,0.07803
2991.05489,0.07828
2992.98336,0.07515
2994.91183,0.07345
2996.84030,0.07576
2998.76877,0.07750
3000.69723,0.07695
3002.62570,0.07629
3004.55417,0.07570
3006.48264,0.07389
3008.41111,0.07072
3010.33958,0.06818
3012.26805,0.06710
3014.19651,0.06396
3016.12498,0.05878
3018.05345,0.05919
3019.98192,0.06751
3021.91039,0.07618
3023.83886,0.07882
3025.76733,0.07715
3027.69579,0.07723
3029.62426,0.08065
3031.55273,0.08478
3033.48120,0.08613
3035.40967,0.08220
3037.33814,0.07644
3039.26661,0.07324
3041.19508,0.07368
3043.12354,0.07797
3045.05201,0.08190
3046.98048,0.08115
3048.90895,0.07755
3050.83742,0.07405
3052.76589,0.07219
3054.69436,0.07170
3056.62282,0.07159
3058.55129,0.07326
3060.47976,0.07564
3062.40823,0.07572
3064.33670,0.07354
3066.26517,0.07161
3068.19364,0.07312
3070.12211,0.07642
3072.05057,0.07734
3073.97904,0.07597
3075.90751,0.07438
3077.83598,0.07334
3079.76445,0.07363
3081.69292,0.07467
3083.62139,0.07218
3085.54985,0.06879
3087.47832,0.07084
3089.40679,0.07469
3091.33526,0.07619
3093.26373,0.07462
3095.19220,0.07132
3097.12067,0.07113
3099.04914,0.07437
3100.97760,0.07680
3102.90607,0.07602
3104.83454,0.07417
3106.76301,0.07417
3108.69148,0.07523
3110.61995,0.07444
3112.54842,0.07220
3114.47688,0.07266
3116.40535,0.07511
3118.33382,0.07679
3120.26229,0.07797
3122.19076,0.07821
3124.11923,0.07779
3126.04770,0.07741
3127.97617,0.07701
3129.90463,0.07694
3131.83310,0.07727
3133.76157,0.07740
3135.69004,0.07576
3137.61851,0.07234
3139.54698,0.06980
3141.47545,0.06991
3143.40391,0.07128
3145.33238,0.07204
3147.26085,0.07379
3149.18932,0.07770
3151.11779,0.08088
3153.04626,0.08142
3154.97473,0.08003
3156.90320,0.07790
3158.83166,0.07583
3160.76013,0.07417
3162.68860,0.07273
3164.61707,0.07114
3166.54554,0.07161
3168.47401,0.07666
3170.40248,0.08349
3172.33094,0.08654
3174.25941,0.08448
3176.18788,0.08143
3178.11635,0.07946
3180.04482,0.07802
3181.97329,0.07960
3183.90176,0.08304
3185.83022,0.08334
3187.75869,0.08140
3189.68716,0.08074
3191.61563,0.08140
3193.54410,0.08123
3195.47257,0.08035
3197.40104,0.07954
3199.32951,0.07732
3201.25797,0.07386
3203.18644,0.07266
3205.11491,0.07506
3207.04338,0.07730
3208.97185,0.07646
3210.90032,0.07386
3212.82879,0.07506
3214.75725,0.08051
3216.68572,0.08180
3218.61419,0.07966
3220.54266,0.07872
3222.47113,0.07561
3224.39960,0.07120
3226.32807,0.07173
3228.25654,0.07605
3230.18500,0.07813
3232.11347,0.07910
3234.04194,0.08133
3235.97041,0.08094
3237.89888,0.07750
3239.82735,0.07541
3241.75582,0.07474
3243.68428,0.07383
3245.61275,0.07379
3247.54122,0.07404
3249.46969,0.07335
3251.39816,0.07344
3253.32663,0.07639
3255.25510,0.07986
3257.18357,0.08033
3259.11203,0.07875
3261.04050,0.07705
3262.96897,0.07649
3264.89744,0.07752
3266.82591,0.07783
3268.75438,0.07640
3270.68285,0.07629
3272.61131,0.07749
3274.53978,0.07816
3276.46825,0.07883
3278.39672,0.07786
3280.32519,0.07470
3282.25366,0.07102
3284.18213,0.07017
3286.11060,0.07368
3288.03906,0.07625
3289.96753,0.07636
3291.89600,0.07632
3293.82447,0.07519
3295.75294,0.07314
3297.68141,0.07174
3299.60988,0.07177
3301.53834,0.07308
3303.46681,0.07402
3305.39528,0.07506
3307.32375,0.07799
3309.25222,0.07846
3311.18069,0.07370
3313.10916,0.06954
3315.03763,0.06979
3316.96609,0.07333
3318.89456,0.07867
3320.82303,0.08173
3322.75150,0.07914
3324.67997,0.07722
3326.60844,0.08032
3328.53691,0.08286
3330.46537,0.08214
3332.39384,0.08042
3334.32231,0.08006
3336.25078,0.07975
3338.17925,0.07663
3340.10772,0.07370
3342.03619,0.07381
3343.96466,0.07476
3345.89312,0.07504
3347.82159,0.07606
3349.75006,0.07808
3351.67853,0.07881
3353.60700,0.07780
3355.53547,0.07612
3357.46394,0.07585
3359.39240,0.07901
3361.32087,0.08161
3363.24934,0.08047
3365.17781,0.07929
3367.10628,0.07933
3369.03475,0.07832
3370.96322,0.07676
3372.89168,0.07682
3374.82015,0.07891
3376.74862,0.08106
3378.67709,0.08065
3380.60556,0.07881
3382.53403,0.07814
3384.46250,0.07939
3386.39097,0.08321
3388.31943,0.08609
3390.24790,0.08439
3392.17637,0.08131
3394.10484,0.07881
3396.03331,0.07587
3397.96178,0.07489
3399.89025,0.07664
3401.81871,0.07813
3403.74718,0.07868
3405.67565,0.07866
3407.60412,0.07633
3409.53259,0.07203
3411.46106,0.06986
3413.38953,0.07107
3415.31800,0.07275
3417.24646,0.07416
3419.17493,0.07637
3421.10340,0.07751
3423.03187,0.07535
3424.96034,0.07313
3426.88881,0.07399
3428.81728,0.07435
3430.74574,0.07081
3432.67421,0.06743
3434.60268,0.06743
3436.53115,0.06935
3438.45962,0.07324
3440.38809,0.07611
3442.31656,0.07467
3444.24503,0.07268
3446.17349,0.07272
3448.10196,0.07448
3450.03043,0.07706
3451.95890,0.07687
3453.88737,0.07382
3455.81584,0.07158
3457.74431,0.06944
3459.67277,0.06769
3461.60124,0.06825
3463.52971,0.06766
3465.45818,0.06636
3467.38665,0.06707
3469.31512,0.06695
3471.24359,0.06758
3473.17206,0.07092
3475.10052,0.07075
3477.02899,0.06742
3478.95746,0.06791
3480.88593,0.06936
3482.81440,0.06600
3484.74287,0.06300
3486.67134,0.06611
3488.59980,0.07098
3490.52827,0.07066
3492.45674,0.06728
3494.38521,0.06788
3496.31368,0.07075
3498.24215,0.06962
3500.17062,0.06706
3502.09909,0.06629
3504.02755,0.06555
3505.95602,0.06444
3507.88449,0.06378
3509.81296,0.06462
3511.74143,0.06633
3513.66990,0.06582
3515.59837,0.06377
3517.52683,0.06292
3519.45530,0.06219
3521.38377,0.05934
3523.31224,0.05728
3525.24071,0.06059
3527.16918,0.06584
3529.09765,0.06689
3531.02611,0.06452
3532.95458,0.06253
3534.88305,0.06157
3536.81152,0.06036
3538.73999,0.05975
3540.66846,0.06138
3542.59693,0.06310
3544.52540,0.06257
3546.45386,0.06214
3548.38233,0.06322
3550.31080,0.06425
3552.23927,0.06390
3554.16774,0.06104
3556.09621,0.05781
3558.02468,0.05780
3559.95314,0.06135
3561.88161,0.06460
3563.81008,0.06678
3565.73855,0.06986
3567.66702,0.07009
3569.59549,0.06651
3571.52396,0.06202
3573.45243,0.05780
3575.38089,0.05661
3577.30936,0.05773
3579.23783,0.05802
3581.16630,0.05619
3583.09477,0.05328
3585.02324,0.05238
3586.95171,0.05519
3588.88017,0.05731
3590.80864,0.05597
3592.73711,0.05550
3594.66558,0.05690
3596.59405,0.05701
3598.52252,0.05668
3600.45099,0.05677
3602.37946,0.05550
3604.30792,0.05410
3606.23639,0.05464
3608.16486,0.05767
3610.09333,0.06120
3612.02180,0.06285
3613.95027,0.06210
3615.87874,0.06230
3617.80720,0.06613
3619.73567,0.06648
3621.66414,0.06101
3623.59261,0.05796
3625.52108,0.05961
3627.44955,0.06448
3629.37802,0.06426
3631.30649,0.05869
3633.23495,0.05826
3635.16342,0.06134
3637.09189,0.06323
3639.02036,0.06241
3640.94883,0.05978
3642.87730,0.05730
3644.80577,0.05717
3646.73423,0.05932
3648.66270,0.06092
3650.59117,0.06006
3652.51964,0.05813
3654.44811,0.05599
3656.37658,0.05277
3658.30505,0.04997
3660.23352,0.05035
3662.16198,0.05198
3664.09045,0.05191
3666.01892,0.05131
3667.94739,0.05446
3669.87586,0.05965
3671.80433,0.05827
3673.73280,0.05657
3675.66126,0.06125
3677.58973,0.06541
3679.51820,0.06244
3681.44667,0.05440
3683.37514,0.04802
3685.30361,0.04744
3687.23208,0.05008
3689.16055,0.05194
3691.08901,0.05094
3693.01748,0.04949
3694.94595,0.04832
3696.87442,0.04674
3698.80289,0.04720
3700.73136,0.05080
3702.65983,0.05111
3704.58829,0.04644
3706.51676,0.04481
3708.44523,0.04815
3710.37370,0.04929
3712.30217,0.04464
3714.23064,0.04250
3716.15911,0.04377
3718.08757,0.04768
3720.01604,0.05303
3721.94451,0.05565
3723.87298,0.05651
3725.80145,0.05591
3727.72992,0.05137
3729.65839,0.04779
3731.58686,0.04849
3733.51532,0.05166
3735.44379,0.05476
3737.37226,0.05530
3739.30073,0.05367
3741.22920,0.05179
3743.15767,0.05234
3745.08614,0.05754
3747.01460,0.06066
3748.94307,0.06167
3750.87154,0.06165
3752.80001,0.05562
3754.72848,0.05083
3756.65695,0.05243
3758.58542,0.05814
3760.51389,0.05803
3762.44235,0.05080
3764.37082,0.04765
3766.29929,0.05217
3768.22776,0.05684
3770.15623,0.05723
3772.08470,0.05510
3774.01317,0.05178
3775.94163,0.04795
3777.87010,0.04498
3779.79857,0.04416
3781.72704,0.04664
3783.65551,0.04854
3785.58398,0.04695
3787.51245,0.04515
3789.44092,0.04333
3791.36938,0.03978
3793.29785,0.03717
3795.22632,0.03898
3797.15479,0.04324
3799.08326,0.04656
3801.01173,0.05108
3802.94020,0.05267
3804.86866,0.05041
3806.79713,0.04899
3808.72560,0.04791
3810.65407,0.04769
3812.58254,0.05075
3814.51101,0.05630
3816.43948,0.05740
3818.36795,0.05453
3820.29641,0.05442
3822.22488,0.05444
3824.15335,0.05282
3826.08182,0.04929
3828.01029,0.04623
3829.93876,0.04785
3831.86723,0.05102
3833.79569,0.05208
3835.72416,0.05285
3837.65263,0.05497
3839.58110,0.05469
3841.50957,0.05022
3843.43804,0.04473
3845.36651,0.04002
3847.29498,0.03798
3849.22344,0.04126
3851.15191,0.04989
3853.08038,0.05376
3855.00885,0.04437
3856.93732,0.04167
3858.86579,0.04508
3860.79426,0.04811
3862.72272,0.04839
3864.65119,0.04743
3866.57966,0.04843
3868.50813,0.05157
3870.43660,0.05356
3872.36507,0.05021
3874.29354,0.04324
3876.22200,0.03912
3878.15047,0.04049
3880.07894,0.04197
3882.00741,0.04060
3883.93588,0.04090
3885.86435,0.04107
3887.79282,0.03902
3889.72129,0.03799
3891.64975,0.03658
3893.57822,0.03460
3895.50669,0.03522
3897.43516,0.03858
3899.36363,0.04297
3901.29210,0.04464
3903.22057,0.04406
3905.14903,0.04148
3907.07750,0.03729
3909.00597,0.03639
3910.93444,0.03883
3912.86291,0.04076
3914.79138,0.04112
3916.71985,0.04217
3918.64832,0.04411
3920.57678,0.04461
3922.50525,0.04372
3924.43372,0.04240
3926.36219,0.04129
3928.29066,0.04095
3930.21913,0.04203
3932.14760,0.04466
3934.07606,0.04728
3936.00453,0.04773
3937.93300,0.04557
3939.86147,0.04172
3941.78994,0.03661
3943.71841,0.03478
3945.64688,0.04013
3947.57535,0.04639
3949.50381,0.04798
3951.43228,0.04588
3953.36075,0.04198
3955.28922,0.03895
3957.21769,0.03770
3959.14616,0.03683
3961.07463,0.03655
3963.00309,0.03561
3964.93156,0.03398
3966.86003,0.03605
3968.78850,0.04278
3970.71697,0.04711
3972.64544,0.04458
3974.57391,0.03960
3976.50238,0.03691
3978.43084,0.03625
3980.35931,0.03466
3982.28778,0.03188
3984.21625,0.03037
3986.14472,0.03117
3988.07319,0.03302
3990.00166,0.03502
3991.93012,0.03757
3993.85859,0.03900
3995.78706,0.03812
3997.71553,0.03678
3999.64400,0.03576
4001.57247,0.03596
4003.50094,0.03870
4005.42941,0.04146
4007.35787,0.04224
4009.28634,0.04100
4011.21481,0.03693
4013.14328,0.03270
4015.07175,0.03206
4017.00022,0.03541
4018.92869,0.03938
4020.85715,0.04059
4022.78562,0.04139
4024.71409,0.04224
4026.64256,0.03932
4028.57103,0.03478
4030.49950,0.03369
4032.42797,0.03454
4034.35644,0.03497
4036.28490,0.03565
4038.21337,0.03500
4040.14184,0.03279
4042.07031,0.03249
4043.99878,0.03346
4045.92725,0.03076
4047.85572,0.02676
4049.78418,0.02914
4051.71265,0.03600
4053.64112,0.03908
4055.56959,0.03740
4057.49806,0.03582
4059.42653,0.03607
4061.35500,0.03744
4063.28346,0.03806
4065.21193,0.03527
4067.14040,0.03128
4069.06887,0.03005
4070.99734,0.03183
4072.92581,0.03394
4074.85428,0.03310
4076.78275,0.02989
4078.71121,0.02753
4080.63968,0.02913
4082.56815,0.03260
4084.49662,0.03123
4086.42509,0.02862
4088.35356,0.03215
4090.28203,0.03732
4092.21049,0.03780
4094.13896,0.03509
4096.06743,0.03434
4097.99590,0.03691
4099.92437,0.03994
4101.85284,0.04065
4103.78131,0.03797
4105.70978,0.03500
4107.63824,0.03405
4109.56671,0.03247
4111.49518,0.02979
4113.42365,0.03000
4115.35212,0.03253
4117.28059,0.03125
4119.20906,0.02696
4121.13752,0.02634
4123.06599,0.02997
4124.99446,0.03359
4126.92293,0.03377
4128.85140,0.03128
4130.77987,0.03058
4132.70834,0.03227
4134.63681,0.03264
4136.56527,0.02987
4138.49374,0.02488
4140.42221,0.02128
4142.35068,0.02386
4144.27915,0.03017
4146.20762,0.03264
4148.13609,0.03089
4150.06455,0.02826
4151.99302,0.02528
4153.92149,0.02545
4155.84996,0.02939
4157.77843,0.03058
4159.70690,0.02842
4161.63537,0.02681
4163.56384,0.02560
4165.49230,0.02628
4167.42077,0.02991
4169.34924,0.03222
4171.27771,0.03267
4173.20618,0.03455
4175.13465,0.03553
4177.06312,0.03248
4178.99158,0.02758
4180.92005,0.02427
4182.84852,0.02437
4184.77699,0.02769
4186.70546,0.03033
4188.63393,0.03014
4190.56240,0.03029
4192.49087,0.03117
4194.41933,0.03174
4196.34780,0.03149
4198.27627,0.02865
4200.20474,0.02617
4202.13321,0.02651
4204.06168,0.02682
4205.99015,0.02662
4207.91861,0.02666
4209.84708,0.02476
4211.77555,0.02133
4213.70402,0.02091
4215.63249,0.02438
4217.56096,0.02662
4219.48943,0.02541
4221.41789,0.02524
4223.34636,0.02718
4225.27483,0.02471
4227.20330,0.01849
4229.13177,0.01823
4231.06024,0.02437
4232.98871,0.02930
4234.91718,0.02857
4236.84564,0.02321
4238.77411,0.01798
4240.70258,0.01478
4242.63105,0.01535
4244.55952,0.01944
4246.48799,0.02157
4248.41646,0.02112
4250.34492,0.02088
4252.27339,0.02037
4254.20186,0.01880
4256.13033,0.01822
4258.05880,0.02095
4259.98727,0.02477
4261.91574,0.02465
4263.84421,0.02011
4265.77267,0.01671
4267.70114,0.01733
4269.62961,0.01992
4271.55808,0.02367
4273.48655,0.02786
4275.41502,0.02895
4277.34349,0.02585
4279.27195,0.02375
4281.20042,0.02423
4283.12889,0.02083
4285.05736,0.01292
4286.98583,0.00836
4288.91430,0.01000
4290.84277,0.01472
4292.77124,0.02043
4294.69970,0.02318
4296.62817,0.02131
4298.55664,0.01924
4300.48511,0.01683
4302.41358,0.01173
4304.34205,0.00783
4306.27052,0.01007
4308.19898,0.01566
4310.12745,0.01774
4312.05592,0.01611
4313.98439,0.01486
4315.91286,0.01780
4317.84133,0.02238
4319.76980,0.02246
4321.69827,0.02089
4323.62673,0.02073
4325.55520,0.02104
4327.48367,0.02466
4329.41214,0.03036
4331.34061,0.03272
4333.26908,0.03069
4335.19755,0.02566
4337.12601,0.02061
4339.05448,0.01834
4340.98295,0.01745
4342.91142,0.01631
4344.83989,0.01572
4346.76836,0.01673
4348.69683,0.02032
4350.62530,0.02443
4352.55376,0.02240
4354.48223,0.01405
4356.41070,0.00757
4358.33917,0.00816
4360.26764,0.01540
4362.19611,0.02231
4364.12458,0.02048
4366.05304,0.01265
4367.98151,0.00844
4369.90998,0.01059
4371.83845,0.01536
4373.76692,0.01965
4375.69539,0.02183
4377.62386,0.02141
4379.55232,0.01760
4381.48079,0.00987
4383.40926,0.00365
4385.33773,0.00595
4387.26620,0.01333
4389.19467,0.01698
4391.12314,0.01485
4393.05161,0.00929
4394.98007,0.00471
4396.90854,0.00673
4398.83701,0.01343
4400.76548,0.01623
4402.69395,0.01379
4404.62242,0.01173
4406.55089,0.01032
4408.47935,0.00835
4410.40782,0.00648
4412.33629,0.00563
4414.26476,0.00782
4416.19323,0.01127
4418.12170,0.01313
4420.05017,0.01276
4421.97864,0.00948
4423.90710,0.00529
4425.83557,0.00494
4427.76404,0.00955
4429.69251,0.01420
4431.62098,0.01348
4433.54945,0.00657
4435.47792,0.00188
4437.40638,0.00571
4439.33485,0.00923
4441.26332,0.00782
4443.19179,0.00873
4445.12026,0.00833
4447.04873,0.00058
4448.97720,-0.00292
4450.90567,0.00270
4452.83413,0.00664
4454.76260,0.00775
4456.69107,0.00996
4458.61954,0.00908
4460.54801,0.00270
4462.47648,-0.00287
4464.40495,-0.00437
4466.33341,-0.00377
4468.26188,-0.00034
4470.19035,0.00273
4472.11882,0.00294
4474.04729,0.00141
4475.97576,-0.00071
4477.90423,0.00166
4479.83270,0.00493
4481.76116,0.00083
4483.68963,-0.00362
4485.61810,0.00185
4487.54657,0.01216
4489.47504,0.01855
4491.40351,0.01831
4493.33198,0.01122
4495.26044,0.00631
4497.18891,0.01073
4499.11738,0.01474
4501.04585,0.00954
4502.97432,0.00365
4504.90279,0.00613
4506.83126,0.00982
4508.75973,0.00717
4510.68819,0.00505
4512.61666,0.00820
4514.54513,0.00960
4516.47360,0.00723
4518.40207,0.00531
4520.33054,0.00353
4522.25901,0.00395
4524.18747,0.01077
4526.11594,0.02056
4528.04441,0.02431
4529.97288,0.02083
4531.90135,0.01822
4533.82982,0.01595
4535.75829,0.00868
4537.68676,0.00329
4539.61522,0.00822
4541.54369,0.01600
4543.47216,0.01276
4545.40063,0.00067
4547.32910,-0.00672
4549.25757,-0.00629
4551.18604,-0.00405
4553.11450,-0.00355
4555.04297,-0.00229
4556.97144,0.00210
4558.89991,0.00339
4560.82838,0.00031
4562.75685,-0.00136
4564.68532,-0.00222
4566.61378,-0.00102
4568.54225,0.00471
4570.47072,0.00904
4572.39919,0.00890
4574.32766,0.00711
4576.25613,0.00515
4578.18460,0.00260
4580.11307,-0.00121
4582.04153,-0.00448
4583.97000,-0.00675
4585.89847,-0.00867
4587.82694,-0.00627
4589.75541,0.00097
4591.68388,0.00645
4593.61235,0.00534
4595.54081,0.00030
4597.46928,-0.00371
4599.39775,-0.00548
4601.32622,-0.00369
4603.25469,0.00182
4605.18316,0.00533
4607.11163,0.00203
4609.04010,-0.00458
4610.96856,-0.00541
4612.89703,0.00229
4614.82550,0.00989
4616.75397,0.00828
4618.68244,0.00449
4620.61091,0.00629
4622.53938,0.00604
4624.46784,0.00678
4626.39631,0.01484
4628.32478,0.01706
4630.25325,0.00755
4632.18172,-0.00150
4634.11019,-0.00459
4636.03866,-0.00896
4637.96713,-0.00895
4639.89559,0.00156
4641.82406,0.01000
4643.75253,0.00910
4645.68100,0.00653
4647.60947,0.00633
4649.53794,0.00528
4651.46641,0.00121
4653.39487,-0.00455
4655.32334,-0.00643
4657.25181,-0.00275
4659.18028,-0.00172
4661.10875,-0.00371
4663.03722,-0.00304
4664.96569,-0.00079
4666.89416,0.00222
4668.82262,0.00165
4670.75109,-0.00266
4672.67956,-0.00373
4674.60803,-0.00247
4676.53650,-0.00231
4678.46497,-0.00213
4680.39344,0.00214
4682.32190,0.00831
4684.25037,0.00936
4686.17884,0.00839
4688.10731,0.00991
4690.03578,0.01022
4691.96425,0.00635
4693.89272,0.00316
4695.82119,0.00621
4697.74965,0.01063
4699.67812,0.01342
4701.60659,0.01524
4703.53506,0.01012
4705.46353,0.00178
4707.39200,-0.00078
4709.32047,-0.00037
4711.24893,-0.00054
4713.17740,-0.00166
4715.10587,-0.00069
4717.03434,0.00491
4718.96281,0.01181
4720.89128,0.01764
4722.81975,0.01884
4724.74821,0.01699
4726.67668,0.01797
4728.60515,0.01699
4730.53362,0.01113
4732.46209,0.00700
4734.39056,0.00429
4736.31903,-0.00378
4738.24750,-0.01136
4740.17596,-0.00626
4742.10443,0.00472
4744.03290,0.00526
4745.96137,-0.00404
4747.88984,-0.00916
4749.81831,-0.00108
4751.74678,0.01319
4753.67524,0.01857
4755.60371,0.01371
4757.53218,0.01280
4759.46065,0.01726
4761.38912,0.01429
4763.31759,0.00542
4765.24606,0.00024
4767.17453,0.00058
4769.10299,0.00524
4771.03146,0.00875
4772.95993,0.00761
4774.88840,0.00749
4776.81687,0.00957
4778.74534,0.01105
4780.67381,0.01286
4782.60227,0.01313
4784.53074,0.00973
4786.45921,0.00261
4788.38768,-0.00315
4790.31615,0.00062
4792.24462,0.01070
4794.17309,0.01654
4796.10156,0.01212
4798.03002,0.00369
4799.95849,0.00175
4801.88696,0.00517
4803.81543,0.00870
4805.74390,0.01103
4807.67237,0.01002
4809.60084,0.00512
4811.52930,-0.00287
4813.45777,-0.01071
4815.38624,-0.01138
4817.31471,-0.00519
4819.24318,0.00103
4821.17165,0.00702
4823.10012,0.01319
4825.02859,0.01264
4826.95705,0.00756
4828.88552,0.00587
4830.81399,0.00425
4832.74246,0.00437
4834.67093,0.00954
4836.59940,0.01442
4838.52787,0.01830
4840.45633,0.01798
4842.38480,0.00864
4844.31327,-0.00321
4846.24174,-0.00845
4848.17021,-0.00654
4850.09868,-0.00462
4852.02715,-0.00703
4853.95562,-0.01137
4855.88408,-0.01324
4857.81255,-0.01165
4859.74102,-0.01104
4861.66949,-0.00863
4863.59796,-0.00032
4865.52643,0.00455
4867.45490,0.00065
4869.38336,-0.00398
4871.31183,-0.00297
4873.24030,0.00309
4875.16877,0.01289
4877.09724,0.02034
4879.02571,0.01656
4880.95418,0.00507
4882.88265,-0.00263
4884.81111,-0.00013
4886.73958,0.01041
4888.66805,0.01903
4890.59652,0.01995
4892.52499,0.01514
4894.45346,0.00512
4896.38193,-0.00376
4898.31039,-0.00004
4900.23886,0.00862
4902.16733,0.00955
4904.09580,0.00952
4906.02427,0.01536
4907.95274,0.02063
4909.88121,0.01608
4911.80967,0.00816
4913.73814,0.01120
4915.66661,0.01986
4917.59508,0.02153
4919.52355,0.01773
4921.45202,0.01764
4923.38049,0.01944
4925.30896,0.01544
4927.23742,0.00683
4929.16589,0.00008
4931.09436,0.00045
4933.02283,0.00265
4934.95130,0.00110
4936.87977,0.00198
4938.80824,0.00668
4940.73670,0.00948
4942.66517,0.01486
4944.59364,0.02653
4946.52211,0.02785
4948.45058,0.01210
4950.37905,-0.00391
4952.30752,-0.01210
4954.23599,-0.01188
4956.16445,-0.00244
4958.09292,0.00741
4960.02139,0.01055
4961.94986,0.00963
4963.87833,0.00807
4965.80680,0.00717
4967.73527,0.00560
4969.66373,0.00415
4971.59220,0.00926
4973.52067,0.01737
4975.44914,0.01564
4977.37761,0.00435
4979.30608,-0.00347
4981.23455,-0.00161
4983.16302,0.00620
4985.09148,0.01450
4987.01995,0.01937
4988.94842,0.01990
4990.87689,0.01619
4992.80536,0.00870
4994.73383,0.00295
4996.66230,0.00526
4998.59076,0.01160
5000.51923,0.01397
5002.44770,0.01512
5004.37617,0.01643
5006.30464,0.00910
5008.23311,-0.00351
5010.16158,-0.00788
5012.09005,-0.00155
5014.01851,0.01073
5015.94698,0.02139
5017.87545,0.02076
5019.80392,0.01258
5021.73239,0.01168
5023.66086,0.01748
5025.58933,0.01290
5027.51779,0.00186
5029.44626,0.00624
5031.37473,0.01835
5033.30320,0.01867
5035.23167,0.01098
5037.16014,0.00270
5039.08861,-0.00183
5041.01708,0.00526
5042.94554,0.01835
5044.87401,0.01841
5046.80248,0.00439
5048.73095,-0.00444
5050.65942,0.00333
5052.58789,0.01501
5054.51636,0.00810
5056.44482,-0.00706
5058.37329,-0.00428
5060.30176,0.00832
5062.23023,0.00636
5064.15870,-0.00333
5066.08717,-0.00366
5068.01564,-0.00371
5069.94410,-0.00487
5071.87257,-0.00069
5073.80104,0.00367
5075.72951,0.00906
5077.65798,0.01177
5079.58645,0.00537
5081.51492,-0.00242
5083.44339,-0.00285
5085.37185,-0.00110
5087.30032,-0.00348
5089.22879,-0.00545
5091.15726,-0.00602
5093.08573,-0.00414
5095.01420,0.00477
5096.94267,0.00949
5098.87113,-0.00111
5100.79960,-0.01111
5102.72807,-0.00375
5104.65654,0.01090
5106.58501,0.01527
5108.51348,0.00827
5110.44195,0.00243
5112.37042,-0.00262
5114.29888,-0.01297
5116.22735,-0.01024
5118.15582,0.01122
5120.08429,0.02487
5122.01276,0.01931
5123.94123,0.00516
5125.86970,-0.00575
5127.79816,-0.00712
5129.72663,-0.00295
5131.65510,-0.00570
5133.58357,-0.01778
5135.51204,-0.01914
5137.44051,-0.00369
5139.36898,0.00771
5141.29745,0.01228
5143.22591,0.01900
5145.15438,0.01826
5147.08285,0.00699
5149.01132,-0.00328
5150.93979,-0.00962
5152.86826,-0.01371
5154.79673,-0.01361
5156.72519,-0.00944
5158.65366,-0.00520
5160.58213,-0.00106
5162.51060,-0.00122
5164.43907,-0.00579
5166.36754,-0.00077
5168.29601,0.00896
5170.22448,0.01357
5172.15294,0.01728
5174.08141,0.01420
5176.00988,0.00218
5177.93835,-0.00247
5179.86682,0.00998
5181.79529,0.02423
5183.72376,0.02310
5185.65222,0.01285
5187.58069,0.00677
5189.50916,0.00184
5191.43763,-0.00507
5193.36610,-0.00134
5195.29457,0.01668
5197.22304,0.03220
5199.15151,0.02832
5201.07997,0.01526
5203.00844,0.01614
5204.93691,0.02758
5206.86538,0.03952
5208.79385,0.05391
5210.72232,0.05572
5212.65079,0.03650
5214.57925,0.01517
5216.50772,0.00949
5218.43619,0.01728
5220.36466,0.02060
5222.29313,0.01343
5224.22160,0.01489
5226.15007,0.03377
5228.07854,0.04894
5230.00700,0.04622
5231.93547,0.03178
5233.86394,0.01762
5235.79241,0.01090
5237.72088,0.00895
5239.64935,0.00677
5241.57782,0.00845
5243.50628,0.01573
5245.43475,0.01828
5247.36322,0.01469
5249.29169,0.01576
5251.22016,0.02521
5253.14863,0.03370
5255.07710,0.03393
5257.00556,0.03226
5258.93403,0.03378
5260.86250,0.03226
5262.79097,0.02402
5264.71944,0.01333
5266.64791,-0.00080
5268.57638,-0.01263
5270.50485,-0.00709
5272.43331,0.00367
5274.36178,0.00199
5276.29025,0.00321
5278.21872,0.01669
5280.14719,0.02340
5282.07566,0.01643
5284.00413,0.01513
5285.93259,0.03005
5287.86106,0.03875
5289.78953,0.02611
5291.71800,0.01272
5293.64647,0.00653
5295.57494,-0.00651
5297.50341,-0.02126
5299.43188,-0.02167
5301.36034,-0.00526
5303.28881,0.01432
5305.21728,0.02465
5307.14575,0.02305
5309.07422,0.01039
5311.00269,-0.00386
5312.93116,-0.00663
5314.85962,0.00131
5316.78809,0.00732
5318.71656,0.00930
5320.64503,0.01399
5322.57350,0.02115
5324.50197,0.02593
5326.43044,0.02719
5328.35891,0.02850
5330.28737,0.03093
5332.21584,0.03151
5334.14431,0.02711
5336.07278,0.02021
5338.00125,0.01470
5339.92972,0.00897
5341.85819,0.01125
5343.78665,0.02864
5345.71512,0.04021
5347.64359,0.03239
5349.57206,0.02364
5351.50053,0.02042
5353.42900,0.02173
5355.35747,0.03529
5357.28594,0.04917
5359.21440,0.04341
5361.14287,0.02253
5363.07134,0.00926
5364.99981,0.01263
5366.92828,0.01755
5368.85675,0.01729
5370.78522,0.01945
5372.71368,0.02665
5374.64215,0.03144
5376.57062,0.02468
5378.49909,0.01737
5380.42756,0.01923
5382.35603,0.02290
5384.28450,0.02176
5386.21297,0.01531
5388.14143,0.01505
5390.06990,0.02588
5391.99837,0.03292
5393.92684,0.02394
5395.85531,0.01192
5397.78378,0.01582
5399.71225,0.03615
5401.64071,0.05896
5403.56918,0.06712
5405.49765,0.05528
5407.42612,0.03442
5409.35459,0.02001
5411.28306,0.00992
5413.21153,-0.00308
5415.13999,-0.00413
5417.06846,0.00792
5418.99693,0.02180
5420.92540,0.03349
5422.85387,0.03226
5424.78234,0.01797
5426.71081,0.00851
5428.63928,0.01075
5430.56774,0.01669
5432.49621,0.01983
5434.42468,0.01680
5436.35315,0.01326
5438.28162,0.01386
5440.21009,0.01106
5442.13856,0.01076
5444.06702,0.01742
5445.99549,0.01977
5447.92396,0.02568
5449.85243,0.03649
5451.78090,0.03748
5453.70937,0.03461
5455.63784,0.04012
5457.56631,0.05828
5459.49477,0.06508
5461.42324,0.04343
5463.35171,0.02682
5465.28018,0.03015
5467.20865,0.03364
5469.13712,0.03137
5471.06559,0.03043
5472.99405,0.04214
5474.92252,0.06450
5476.85099,0.07402
5478.77946,0.06598
5480.70793,0.05036
5482.63640,0.02989
5484.56487,0.01510
5486.49334,0.00932
5488.42180,0.00335
5490.35027,0.00604
5492.27874,0.02628
5494.20721,0.03740
5496.13568,0.02692
5498.06415,0.01681
5499.99262,0.02161
5501.92108,0.03380
5503.84955,0.02727
5505.77802,0.00438
5507.70649,0.00161
5509.63496,0.01068
5511.56343,0.00600
5513.49190,0.00471
5515.42037,0.01286
5517.34883,0.01886
5519.27730,0.02667
5521.20577,0.03166
5523.13424,0.03658
5525.06271,0.05170
5526.99118,0.05600
5528.91965,0.04054
5530.84811,0.02190
5532.77658,0.01016
5534.70505,0.01144
5536.63352,0.01959
5538.56199,0.02542
5540.49046,0.02762
5542.41893,0.02569
5544.34740,0.02703
5546.27586,0.03066
5548.20433,0.03233
5550.13280,0.04372
5552.06127,0.05757
5553.98974,0.05624
5555.91821,0.05051
5557.84668,0.04832
5559.77514,0.03883
5561.70361,0.02767
5563.63208,0.02844
5565.56055,0.03693
5567.48902,0.04152
5569.41749,0.03353
5571.34596,0.01880
5573.27443,0.00943
5575.20289,0.00440
5577.13136,0.01091
5579.05983,0.02754
5580.98830,0.02857
5582.91677,0.01743
5584.84524,0.01212
5586.77371,0.00637
5588.70217,0.00224
5590.63064,0.00808
5592.55911,0.01446
5594.48758,0.01109
5596.41605,0.00586
5598.34452,0.00018
5600.27299,-0.01099
5602.20145,-0.00747
5604.12992,0.01119
5606.05839,0.01924
5607.98686,0.02299
5609.91533,0.03301
5611.84380,0.03411
5613.77227,0.02372
5615.70074,0.01921
5617.62920,0.02381
5619.55767,0.02163
5621.48614,0.00787
5623.41461,0.00508
5625.34308,0.02697
5627.27155,0.04914
5629.20002,0.05501
5631.12848,0.05588
5633.05695,0.04131
5634.98542,0.01501
5636.91389,0.01310
5638.84236,0.02445
5640.77083,0.01869
5642.69930,0.00405
5644.62777,-0.00242
5646.55623,0.00135
5648.48470,0.00585
5650.41317,0.02175
5652.34164,0.05103
5654.27011,0.05444
5656.19858,0.02990
5658.12705,0.01974
5660.05551,0.02928
5661.98398,0.03395
5663.91245,0.03004
5665.84092,0.02326
5667.76939,0.02398
5669.69786,0.03562
5671.62633,0.04101
5673.55480,0.04075
5675.48326,0.03738
5677.41173,0.02405
5679.34020,0.01435
5681.26867,0.01186
5683.19714,0.00674
5685.12561,0.00820
5687.05408,0.02135
5688.98254,0.02264
5690.91101,0.00806
5692.83948,0.00066
5694.76795,0.00760
5696.69642,0.02756
5698.62489,0.03558
5700.55336,0.01049
5702.48183,-0.01549
5704.41029,-0.02137
5706.33876,-0.01467
5708.26723,0.00691
5710.19570,0.02778
5712.12417,0.03072
5714.05264,0.03548
5715.98111,0.05067
5717.90957,0.05640
5719.83804,0.04446
5721.76651,0.02397
5723.69498,0.01204
5725.62345,0.01529
5727.55192,0.02298
5729.48039,0.03661
5731.40886,0.05718
5733.33732,0.06424
5735.26579,0.05564
5737.19426,0.04656
5739.12273,0.03958
5741.05120,0.03695
5742.97967,0.03619
5744.90814,0.03262
5746.83660,0.03647
5748.76507,0.05499
5750.69354,0.06508
5752.62201,0.05299
5754.55048,0.04890
5756.47895,0.05383
5758.40742,0.04680
5760.33588,0.03376
5762.26435,0.01559
5764.19282,-0.00250
5766.12129,-0.00217
5768.04976,0.00653
5769.97823,0.01214
5771.90670,0.01863
5773.83517,0.02881
5775.76363,0.03880
5777.69210,0.02976
5779.62057,0.00743
5781.54904,-0.00283
5783.47751,-0.00974
5785.40598,-0.01039
5787.33445,0.01258
5789.26291,0.02816
5791.19138,0.01573
5793.11985,0.00306
5795.04832,0.00581
5796.97679,0.02329
5798.90526,0.04003
5800.83373,0.03015
5802.76220,0.00871
5804.69066,0.00965
5806.61913,0.02261
5808.54760,0.03081
5810.47607,0.04131
5812.40454,0.05032
5814.33301,0.05022
5816.26148,0.02917
5818.18994,-0.01442
5820.11841,-0.02687
5822.04688,0.01494
5823.97535,0.04250
5825.90382,0.02793
5827.83229,0.00909
5829.76076,0.00267
5831.68923,0.00239
5833.61769,0.01090
5835.54616,0.02492
5837.47463,0.03402
5839.40310,0.03502
5841.33157,0.02629
5843.26004,0.01827
5845.18851,0.02863
5847.11697,0.04801
5849.04544,0.04129
5850.97391,0.01708
5852.90238,0.01049
5854.83085,0.01135
5856.75932,0.02381
5858.68779,0.04614
5860.61626,0.03720
5862.54472,0.00438
5864.47319,-0.00112
5866.40166,0.03208
5868.33013,0.06275
5870.25860,0.06006
5872.18707,0.05095
5874.11554,0.06928
5876.04400,0.08033
5877.97247,0.04865
5879.90094,0.02371
5881.82941,0.02719
5883.75788,0.01927
5885.68635,-0.00505
5887.61482,-0.01631
5889.54329,-0.00529
5891.47175,0.01929
5893.40022,0.04677
5895.32869,0.05294
5897.25716,0.03215
5899.18563,0.01594
5901.11410,0.01923
5903.04257,0.01784
5904.97103,0.00935
5906.89950,0.02157
5908.82797,0.04050
5910.75644,0.03405
5912.68491,0.01751
5914.61338,0.01717
5916.54185,0.03135
5918.47032,0.04389
5920.39878,0.04658
5922.32725,0.03389
5924.25572,0.00791
5926.18419,0.00226
5928.11266,0.01649
5930.04113,0.01289
5931.96960,-0.00795
5933.89806,-0.03150
5935.82653,-0.04256
5937.75500,-0.03269
5939.68347,-0.00325
5941.61194,0.03535
5943.54041,0.05185
5945.46888,0.04273
5947.39734,0.03906
5949.32581,0.05733
5951.25428,0.06966
5953.18275,0.06295
5955.11122,0.06787
5957.03969,0.07495
5958.96816,0.06753
5960.89663,0.06815
5962.82509,0.06662
5964.75356,0.05021
5966.68203,0.04533
5968.61050,0.05148
5970.53897,0.04950
5972.46744,0.04437
5974.39591,0.04618
5976.32437,0.04516
5978.25284,0.02643
5980.18131,0.00192
5982.10978,-0.00318
5984.03825,0.02934
5985.96672,0.06799
5987.89519,0.06274
5989.82366,0.04316
5991.75212,0.05730
5993.68059,0.08955
5995.60906,0.08813
5997.53753,0.04069
5999.46600,-0.00363
6001.39447,-0.01253
6003.32294,0.00402
6005.25140,0.03883
6007.17987,0.08625
6009.10834,0.10990
6011.03681,0.09720
6012.96528,0.07307
6014.89375,0.05388
6016.82222,0.04096
6018.75069,0.02517
6020.67915,0.01883
6022.60762,0.03834
6024.53609,0.05517
6026.46456,0.04376
6028.39303,0.01901
6030.32150,0.01707
6032.24997,0.04395
6034.17843,0.05661
6036.10690,0.02528
6038.03537,-0.01339
6039.96384,-0.00946
6041.89231,0.01983
6043.82078,0.02488
6045.74925,0.01539
6047.67772,0.03278
6049.60618,0.06816
6051.53465,0.07463
6053.46312,0.05300
6055.39159,0.05768
6057.32006,0.08974
6059.24853,0.07524
6061.17700,0.01243
6063.10546,-0.01573
6065.03393,0.01225
6066.96240,0.03326
6068.89087,0.02623
6070.81934,0.02883
6072.74781,0.04460
6074.67628,0.03171
6076.60475,0.01169
6078.53321,0.04440
6080.46168,0.08785
6082.39015,0.07726
6084.31862,0.04018
6086.24709,0.03204
6088.17556,0.06797
6090.10403,0.10637
6092.03249,0.11638
6093.96096,0.11797
6095.88943,0.10964
6097.81790,0.06803
6099.74637,0.01985
6101.67484,-0.01403
6103.60331,-0.03291
6105.53177,-0.01226
6107.46024,0.01659
6109.38871,0.00795
6111.31718,0.00183
6113.24565,0.02126
6115.17412,0.03460
6117.10259,0.02681
6119.03106,0.02582
6120.95952,0.04874
6122.88799,0.04549
6124.81646,0.01043
6126.74493,0.01674
6128.67340,0.07082
6130.60187,0.09450
6132.53034,0.07643
6134.45880,0.05893
6136.38727,0.04749
6138.31574,0.03617
6140.24421,0.04119
6142.17268,0.06287
6144.10115,0.09062
6146.02962,0.10975
6147.95809,0.09463
6149.88655,0.05330
6151.81502,0.02650
6153.74349,0.03845
6155.67196,0.05605
6157.60043,0.05306
6159.52890,0.05708
6161.45737,0.05980
6163.38583,0.02927
6165.31430,0.00117
6167.24277,0.00025
6169.17124,0.00440
6171.09971,0.01347
6173.02818,0.03169
6174.95665,0.05002
6176.88512,0.07125
6178.81358,0.10111
6180.74205,0.12136
6182.67052,0.08814
6184.59899,0.01593
6186.52746,-0.01872
6188.45593,-0.00903
6190.38440,-0.00621
6192.31286,0.00112
6194.24133,0.02150
6196.16980,0.04300
6198.09827,0.05766
6200.02674,0.04317
6201.95521,0.01678
6203.88368,0.02189
6205.81215,0.03961
6207.74061,0.03092
6209.66908,0.02678
6211.59755,0.04666
6213.52602,0.05064
6215.45449,0.03977
6217.38296,0.03966
6219.31143,0.04685
6221.23989,0.05712
6223.16836,0.07775
6225.09683,0.08052
6227.02530,0.04447
6228.95377,0.00894
6230.88224,-0.00546
6232.81071,0.00699
6234.73918,0.04422
6236.66764,0.06302
6238.59611,0.04715
6240.52458,0.03446
6242.45305,0.04868
6244.38152,0.06505
6246.30999,0.07297
6248.23846,0.07647
6250.16692,0.06748
6252.09539,0.05610
6254.02386,0.06086
6255.95233,0.09516
6257.88080,0.11738
6259.80927,0.07269
6261.73774,0.02332
6263.66621,0.02202
6265.59467,0.02215
6267.52314,0.01109
6269.45161,-0.00097
6271.38008,-0.01911
6273.30855,-0.01062
6275.23702,0.01606
6277.16549,0.02322
6279.09395,0.03644
6281.02242,0.05089
6282.95089,0.03447
6284.87936,-0.00952
6286.80783,-0.04205
6288.73630,-0.01629
6290.66477,0.02428
6292.59323,0.00098
6294.52170,-0.03156
6296.45017,-0.00867
6298.37864,0.02549
6300.30711,0.03058
6302.23558,0.03000
6304.16405,0.04765
6306.09252,0.06942
6308.02098,0.06537
6309.94945,0.03227
6311.87792,-0.00673
6313.80639,-0.01235
6315.73486,0.02122
6317.66333,0.04821
6319.59180,0.06541
6321.52026,0.08591
6323.44873,0.09619
6325.37720,0.08843
6327.30567,0.05254
6329.23414,0.03480
6331.16261,0.06140
6333.09108,0.04318
6335.01955,-0.01062
6336.94801,-0.01132
6338.87648,0.01380
6340.80495,0.03657
6342.73342,0.06436
6344.66189,0.06691
6346.59036,0.03489
6348.51883,-0.00891
6350.44729,-0.03643
6352.37576,-0.03167
6354.30423,-0.00714
6356.23270,0.02719
6358.16117,0.06007
6360.08964,0.06208
6362.01811,0.02136
6363.94658,-0.00736
6365.87504,0.01247
6367.80351,0.02697
6369.73198,0.01633
6371.66045,0.01282
6373.58892,0.01724
6375.51739,0.02372
6377.44586,0.01775
6379.37432,-0.00965
6381.30279,-0.02343
6383.23126,0.00223
6385.15973,0.02285
6387.08820,0.01136
6389.01667,0.00601
6390.94514,0.00777
6392.87361,0.01615
6394.80207,0.06628
6396.73054,0.09979
6398.65901,0.08341
6400.58748,0.05737
6402.51595,0.03616
6404.44442,0.02568
6406.37289,0.02267
6408.30135,0.01083
6410.22982,0.00985
6412.15829,0.03012
6414.08676,0.04825
6416.01523,0.04686
6417.94370,0.03863
6419.87217,0.05639
6421.80064,0.07364
6423.72910,0.04995
6425.65757,0.00425
6427.58604,-0.01478
6429.51451,0.00391
6431.44298,0.02562
6433.37145,0.02353
6435.29992,-0.00310
6437.22838,-0.01755
6439.15685,0.01185
6441.08532,0.04145
6443.01379,0.06548
6444.94226,0.10027
6446.87073,0.10694
6448.79920,0.08170
6450.72766,0.05926
6452.65613,0.03795
6454.58460,0.00731
6456.51307,-0.01323
6458.44154,-0.00255
6460.37001,0.03238
6462.29848,0.05354
6464.22695,0.04637
6466.15541,0.05856
6468.08388,0.08944
6470.01235,0.06377
6471.94082,-0.01688
6473.86929,-0.07721
6475.79776,-0.06832
6477.72623,-0.00150
6479.65469,0.04273
6481.58316,0.05479
6483.51163,0.09156
6485.44010,0.12783
6487.36857,0.10768
6489.29704,0.04259
6491.22551,-0.00016
6493.15398,0.03077
6495.08244,0.08604
6497.01091,0.08134
6498.93938,0.02309
6500.86785,-0.04141
6502.79632,-0.06667
6504.72479,-0.03159
6506.65326,0.02664
6508.58172,0.05036
6510.51019,0.02807
6512.43866,0.01840
6514.36713,0.05578
6516.29560,0.08556
6518.22407,0.07086
6520.15254,0.06563
6522.08101,0.06802
6524.00947,0.01998
6525.93794,-0.02112
6527.86641,-0.01200
6529.79488,-0.00947
6531.72335,0.00080
6533.65182,0.04529
6535.58029,0.06665
6537.50875,0.02011
6539.43722,-0.02652
6541.36569,-0.01979
6543.29416,-0.00692
6545.22263,0.01307
6547.15110,0.04826
6549.07957,0.06244
6551.00804,0.06328
6552.93650,0.06042
6554.86497,0.04047
6556.79344,0.01909
6558.72191,0.01244
6560.65038,0.02506
6562.57885,0.04152
6564.50732,0.03779
6566.43578,0.00598
6568.36425,-0.00779
6570.29272,0.03351
6572.22119,0.06676
6574.14966,0.06287
6576.07813,0.07716
6578.00660,0.11684
6579.93507,0.13318
6581.86353,0.11121
6583.79200,0.07427
6585.72047,0.04299
6587.64894,0.03757
6589.57741,0.04113
6591.50588,0.02555
6593.43435,0.00844
6595.36281,0.01097
6597.29128,0.01740
6599.21975,0.00365
6601.14822,-0.01150
6603.07669,-0.00269
6605.00516,0.02234
6606.93363,0.06149
6608.86210,0.09196
6610.79056,0.08336
6612.71903,0.03074
6614.64750,-0.01334
6616.57597,-0.00078
6618.50444,0.01173
6620.43291,-0.01157
6622.36138,-0.01793
6624.28984,0.00206
6626.21831,-0.00269
6628.14678,-0.04532
6630.07525,-0.06056
6632.00372,0.00183
6633.93219,0.08288
6635.86066,0.12854
6637.78912,0.12438
6639.71759,0.05626
6641.64606,-0.01794
6643.57453,-0.02772
6645.50300,-0.02352
6647.43147,-0.06007
6649.35994,-0.10028
6651.28841,-0.11536
6653.21687,-0.09044
6655.14534,-0.02602
6657.07381,0.02431
6659.00228,0.03841
6660.93075,0.05519
6662.85922,0.06088
6664.78769,0.04242
6666.71615,0.04467
6668.64462,0.09595
6670.57309,0.15472
6672.50156,0.15722
6674.43003,0.09029
6676.35850,0.01387
6678.28697,-0.03838
6680.21544,-0.05914
6682.14390,-0.03170
6684.07237,0.02638
6686.00084,0.05976
6687.92931,0.02450
6689.85778,-0.04117
6691.78625,-0.06128
6693.71472,-0.04399
6695.64318,-0.01449
6697.57165,0.00223
6699.50012,-0.01723
6701.42859,-0.04723
6703.35706,-0.04192
6705.28553,0.00057
6707.21400,0.04412
6709.14247,0.04535
6711.07093,0.02354
6712.99940,0.03977
6714.92787,0.06801
6716.85634,0.04152
6718.78481,-0.02725
6720.71328,-0.07133
6722.64175,-0.06252
6724.57021,-0.03675
6726.49868,-0.02008
6728.42715,-0.02887
6730.35562,-0.04825
6732.28409,-0.02361
6734.21256,0.04690
6736.14103,0.08768
6738.06950,0.07169
6739.99796,0.05011
6741.92643,0.05989
6743.85490,0.09969
6745.78337,0.12208
6747.71184,0.09198
6749.64031,0.05102
6751.56878,0.02407
6753.49724,0.00890
6755.42571,0.03908
6757.35418,0.10229
6759.28265,0.13049
6761.21112,0.09074
6763.13959,0.03213
6765.06806,-0.02841
6766.99653,-0.07369
6768.92499,-0.06240
6770.85346,-0.02123
6772.78193,0.00520
6774.71040,0.03017
6776.63887,0.05580
6778.56734,0.06055
6780.49581,0.06035
6782.42427,0.06114
6784.35274,0.05973
6786.28121,0.07041
6788.20968,0.08974
6790.13815,0.10645
6792.06662,0.12466
6793.99509,0.13850
6795.92355,0.14248
6797.85202,0.15202
6799.78049,0.16174
6801.70896,0.14173
6803.63743,0.09875
6805.56590,0.06798
6807.49437,0.01938
6809.42284,-0.05125
6811.35130,-0.07028
6813.27977,-0.02534
6815.20824,0.02699
6817.13671,0.04357
6819.06518,0.02449
6820.99365,-0.00835
6822.92212,-0.06221
6824.85058,-0.05936
6826.77905,0.05747
6828.70752,0.17416
6830.63599,0.17118
6832.56446,0.11702
6834.49293,0.08792
6836.42140,0.05975
6838.34987,0.03845
6840.27833,0.02685
6842.20680,0.00807
6844.13527,-0.00092
6846.06374,-0.02536
6847.99221,-0.08454
6849.92068,-0.12012
6851.84915,-0.09590
6853.77761,-0.00436
6855.70608,0.10711
6857.63455,0.12653
6859.56302,0.09585
6861.49149,0.10273
6863.41996,0.12173
6865.34843,0.11359
6867.27690,0.10154
6869.20536,0.06868
6871.13383,0.01186
6873.06230,-0.03196
6874.99077,-0.06849
6876.91924,-0.08951
6878.84771,-0.05145
6880.77618,0.04482
6882.70464,0.11706
6884.63311,0.13094
6886.56158,0.14084
6888.49005,0.15584
6890.41852,0.10185
6892.34699,0.01744
6894.27546,-0.00250
6896.20393,0.02654
6898.13239,0.05809
6900.06086,0.01569
6901.98933,-0.07680
6903.91780,-0.10253
6905.84627,-0.04640
6907.77474,0.01559
6909.70321,0.03929
6911.63167,0.03388
6913.56014,0.04837
6915.48861,0.09698
6917.41708,0.16366
6919.34555,0.19756
6921.27402,0.13769
6923.20249,0.06870
6925.13096,0.09900
6927.05942,0.16446
6928.98789,0.12254
6930.91636,0.00411
6932.84483,-0.01253
6934.77330,0.05951
6936.70177,0.11331
6938.63024,0.15672
6940.55870,0.17276
6942.48717,0.11929
6944.41564,0.05627
6946.34411,0.03253
6948.27258,0.02446
6950.20105,0.00197
6952.12952,-0.00868
6954.05799,-0.02123
6955.98645,-0.05083
6957.91492,-0.05783
6959.84339,-0.04245
6961.77186,0.00626
6963.70033,0.05608
6965.62880,0.06024
6967.55727,0.05667
6969.48573,0.12590
6971.41420,0.21510
6973.34267,0.13992
6975.27114,-0.03690
6977.19961,-0.05808
6979.12808,0.01291
6981.05655,0.03412
6982.98501,0.02435
6984.91348,0.02154
6986.84195,0.03535
6988.77042,0.06335
6990.69889,0.07986
6992.62736,0.08991
6994.55583,0.08555
6996.48430,0.08153
6998.41276,0.11625
7000.34123,0.13356
7002.26970,0.10254
7004.19817,0.05220
7006.12664,-0.00514
7008.05511,-0.02159
7009.98358,-0.01122
7011.91204,-0.01942
7013.84051,-0.03099
7015.76898,-0.01602
7017.69745,0.02908
7019.62592,0.06372
7021.55439,0.07735
7023.48286,0.09567
7025.41133,0.07080
7027.33979,-0.00616
7029.26826,-0.04797
7031.19673,-0.05253
7033.12520,-0.06664
7035.05367,-0.02278
7036.98214,0.05186
7038.91061,0.06281
7040.83907,0.06624
7042.76754,0.10561
7044.69601,0.11767
7046.62448,0.08999
7048.55295,0.06404
7050.48142,0.08620
7052.40989,0.14704
7054.33836,0.17227
7056.26682,0.13604
7058.19529,0.08780
7060.12376,0.08730
7062.05223,0.10157
7063.98070,0.03842
7065.90917,-0.04801
7067.83764,-0.03116
7069.76610,0.05834
7071.69457,0.09848
7073.62304,0.05841
7075.55151,0.03303
7077.47998,0.04955
7079.40845,0.05428
7081.33692,0.04747
7083.26539,0.06607
7085.19385,0.04257
7087.12232,-0.03492
7089.05079,-0.06617
7090.97926,-0.08191
7092.90773,-0.13052
7094.83620,-0.09944
7096.76467,0.00489
7098.69313,0.02995
7100.62160,-0.02113
7102.55007,0.01021
7104.47854,0.12610
7106.40701,0.18586
7108.33548,0.14568
7110.26395,0.11379
7112.19242,0.09802
7114.12088,0.05034
7116.04935,-0.00399
7117.97782,-0.02964
7119.90629,-0.07062
7121.83476,-0.10812
7123.76323,-0.05724
7125.69170,-0.00943
7127.62016,-0.05045
7129.54863,-0.04927
7131.47710,0.07111
7133.40557,0.20702
7135.33404,0.25226
7137.26251,0.21262
7139.19098,0.18391
7141.11944,0.22447
7143.04791,0.18828
7144.97638,0.02517
7146.90485,-0.02758
7148.83332,0.04092
7150.76179,0.06531
7152.69026,0.03309
7154.61873,0.00515
7156.54719,0.00182
7158.47566,0.01927
7160.40413,0.05650
7162.33260,0.08610
7164.26107,0.10541
7166.18954,0.15683
7168.11801,0.20282
7170.04647,0.18195
7171.97494,0.13898
7173.90341,0.10720
7175.83188,0.05571
7177.76035,0.00932
7179.68882,-0.01521
7181.61729,-0.04180
7183.54576,-0.02997
7185.47422,0.06037
7187.40269,0.16227
7189.33116,0.20710
7191.25963,0.15558
7193.18810,0.03319
7195.11657,-0.03700
7197.04504,-0.01945
7198.97350,-0.01652
7200.90197,-0.05391
7202.83044,-0.08736
7204.75891,-0.07047
7206.68738,-0.00175
7208.61585,0.02053
7210.54432,-0.00471
7212.47279,-0.01701
7214.40125,0.01427
7216.32972,0.03950
7218.25819,-0.04704
7220.18666,-0.13746
7222.11513,-0.14233
7224.04360,-0.12770
7225.97207,-0.09748
7227.90053,-0.03641
7229.82900,0.05734
7231.75747,0.17199
7233.68594,0.22819
7235.61441,0.23105
7237.54288,0.20303
7239.47135,0.15730
7241.39982,0.12938
7243.32828,0.12016
7245.25675,0.08114
7247.18522,0.02814
7249.11369,0.01209
7251.04216,0.03673
7252.97063,0.11034
7254.89910,0.18634
7256.82756,0.18660
7258.75603,0.11163
7260.68450,0.03765
7262.61297,0.06246
7264.54144,0.07206
7266.46991,0.03400
7268.39838,0.03733
7270.32685,0.03389
7272.25531,-0.04904
7274.18378,-0.07115
7276.11225,0.03330
7278.04072,0.14749
7279.96919,0.18998
7281.89766,0.17066
7283.82613,0.13721
7285.75459,0.08003
7287.68306,0.02164
7289.61153,-0.02024
7291.54000,-0.04393
7293.46847,0.01234
7295.39694,0.11748
7297.32541,0.13714
7299.25387,0.08620
7301.18234,0.07679
7303.11081,0.12314
7305.03928,0.18342
7306.96775,0.23100
7308.89622,0.17990
7310.82469,0.04325
7312.75316,-0.01467
7314.68162,-0.01166
7316.61009,-0.09270
7318.53856,-0.11699
7320.46703,0.10434
7322.39550,0.30170
7324.32397,0.25065
7326.25244,0.13278
7328.18090,0.09009
7330.10937,0.06059
7332.03784,-0.03716
7333.96631,-0.12113
7335.89478,-0.13852
7337.82325,-0.14318
7339.75172,-0.12811
7341.68019,-0.03260
7343.60865,0.03986
7345.53712,0.01421
7347.46559,-0.04772
7349.39406,-0.04710
7351.32253,0.02209
7353.25100,0.06671
7355.17947,0.11345
7357.10793,0.23828
7359.03640,0.28981
7360.96487,0.22753
7362.89334,0.17023
7364.82181,0.08157
7366.75028,-0.00881
7368.67875,-0.05832
7370.60722,-0.07440
7372.53568,-0.04753
7374.46415,-0.01466
7376.39262,-0.03173
7378.32109,-0.00116
7380.24956,-0.01198
7382.17803,-0.15868
7384.10650,-0.21248
7386.03496,-0.07244
7387.96343,0.05094
7389.89190,0.05042
7391.82037,0.02796
7393.74884,0.02582
7395.67731,-0.02071
7397.60578,-0.05338
7399.53425,-0.02809
7401.46271,-0.05652
7403.39118,-0.07597
7405.31965,0.11058
7407.24812,0.32944
7409.17659,0.33750
7411.10506,0.22453
7413.03353,0.15392
7414.96199,0.07905
7416.89046,-0.01554
7418.81893,-0.02749
7420.74740,-0.01811
7422.67587,0.01535
7424.60434,0.15110
7426.53281,0.27745
7428.46128,0.28030
7430.38974,0.13458
7432.31821,-0.00207
7434.24668,0.01058
7436.17515,0.09203
7438.10362,0.11243
7440.03209,0.07206
7441.96056,-0.02967
7443.88902,-0.14126
7445.81749,-0.14722
7447.74596,-0.05412
7449.67443,0.05889
7451.60290,0.11285
7453.53137,0.09088
7455.45984,0.05706
7457.38831,0.07117
7459.31677,0.10401
7461.24524,0.04941
7463.17371,-0.05984
7465.10218,-0.10891
7467.03065,-0.07735
7468.95912,-0.06701
7470.88759,-0.07071
7472.81605,0.01912
7474.74452,0.15326
7476.67299,0.21756
7478.60146,0.18829
7480.52993,0.11342
7482.45840,0.01871
7484.38687,-0.06643
7486.31533,-0.06459
7488.24380,0.03251
7490.17227,0.07256
7492.10074,0.00621
7494.02921,-0.05628
7495.95768,-0.05795
7497.88615,0.00470
