399.19301,1.19222
401.12148,0.49438
403.04995,0.11411
404.97842,0.00502
406.90689,0.03433
408.83536,0.02760
410.76382,-0.00949
412.69229,0.02570
414.62076,0.04557
416.54923,-0.01956
418.47770,-0.14078
420.40617,-0.20009
422.33464,-0.10027
424.26311,0.05325
426.19157,0.11250
428.12004,0.07132
430.04851,0.00492
431.97698,-0.01516
433.90545,0.01845
435.83392,0.04250
437.76239,0.04703
439.69085,0.07571
441.61932,0.11329
443.54779,0.07048
445.47626,-0.02350
447.40473,-0.08833
449.33320,-0.07999
451.26167,-0.02268
453.19013,0.01633
455.11860,0.02346
457.04707,0.01506
458.97554,0.03133
460.90401,0.06773
462.83248,0.05420
464.76095,-0.01560
466.68942,-0.03321
468.61788,0.02207
470.54635,0.04366
472.47482,-0.01562
474.40329,-0.07298
476.33176,-0.03289
478.26023,0.02191
480.18870,0.05711
482.11716,0.10402
484.04563,0.15701
485.97410,0.14483
487.90257,0.06506
489.83104,-0.00195
491.75951,-0.02013
493.68798,-0.00362
495.61645,0.03415
497.54491,0.06553
499.47338,0.06586
501.40185,0.04776
503.33032,0.03127
505.25879,0.01043
507.18726,-0.01090
509.11573,0.00580
511.04419,0.04804
512.97266,0.07267
514.90113,0.06393
516.82960,0.02969
518.75807,0.01731
520.68654,0.04656
522.61501,0.05953
524.54348,0.03664
526.47194,0.03092
528.40041,0.04937
530.32888,0.05192
532.25735,0.03150
534.18582,0.01945
536.11429,0.03249
538.04276,0.04052
539.97122,0.03743
541.89969,0.04782
543.82816,0.06325
545.75663,0.05569
547.68510,0.02627
549.61357,-0.00763
551.54204,-0.04135
553.47051,-0.06092
555.39897,-0.04080
557.32744,0.01109
559.25591,0.05148
561.18438,0.05824
563.11285,0.05317
565.04132,0.05061
566.96979,0.03175
568.89825,0.00430
570.82672,-0.00237
572.75519,0.01323
574.68366,0.03578
576.61213,0.04477
578.54060,0.02456
580.46907,-0.00214
582.39754,0.00703
584.32600,0.02909
586.25447,0.02996
588.18294,0.03291
590.11141,0.04493
592.03988,0.04983
593.96835,0.04440
595.89682,0.02864
597.82528,0.01091
599.75375,-0.00173
601.68222,0.00050
603.61069,0.02304
605.53916,0.03392
607.46763,0.02348
609.39610,0.02507
611.32456,0.03758
613.25303,0.04007
615.18150,0.03807
617.10997,0.03290
619.03844,0.02307
620.96691,0.03079
622.89538,0.05303
624.82385,0.05404
626.75231,0.03530
628.68078,0.02513
630.60925,0.01457
632.53772,-0.00533
634.46619,-0.00413
636.39466,0.01929
638.32313,0.03518
640.25159,0.03670
642.18006,0.03752
644.10853,0.04441
646.03700,0.05222
647.96547,0.05762
649.89394,0.05578
651.82241,0.04819
653.75088,0.04274
655.67934,0.03584
657.60781,0.02596
659.53628,0.02496
661.46475,0.03406
663.39322,0.03749
665.32169,0.03653
667.25016,0.05387
669.17862,0.08204
671.10709,0.06795
673.03556,0.03645
674.96403,0.01966
676.89250,0.02541
678.82097,0.04001
680.74944,0.04942
682.67791,0.04814
684.60637,0.04180
686.53484,0.03976
688.46331,0.04198
690.39178,0.04306
692.32025,0.03962
694.24872,0.03230
696.17719,0.03043
698.10565,0.03941
700.03412,0.04848
701.96259,0.04595
703.89106,0.03595
705.81953,0.03221
707.74800,0.03608
709.67647,0.03601
711.60494,0.03279
713.53340,0.03634
715.46187,0.04456
717.39034,0.05209
719.31881,0.05338
721.24728,0.04277
723.17575,0.02985
725.10422,0.02434
727.03268,0.02392
728.96115,0.03104
730.88962,0.04477
732.81809,0.05217
734.74656,0.05056
736.67503,0.04690
738.60350,0.04507
740.53197,0.04422
742.46043,0.04098
744.38890,0.04413
746.31737,0.05770
748.24584,0.06419
750.17431,0.05391
752.10278,0.03888
754.03125,0.03309
755.95971,0.03758
757.88818,0.04500
759.81665,0.05154
761.74512,0.05472
763.67359,0.04840
765.60206,0.03631
767.53053,0.03072
769.45900,0.03499
771.38746,0.04179
773.31593,0.04157
775.24440,0.03414
777.17287,0.02997
779.10134,0.03325
781.02981,0.03582
782.95828,0.03362
784.88674,0.03268
786.81521,0.03564
788.74368,0.03569
790.67215,0.03222
792.60062,0.03635
794.52909,0.04863
796.45756,0.05585
798.38602,0.05398
800.31449,0.04558
802.24296,0.03372
804.17143,0.03031
806.09990,0.04366
808.02837,0.05845
809.95684,0.05464
811.88531,0.03964
813.81377,0.03017
815.74224,0.02966
817.67071,0.03284
819.59918,0.03350
821.52765,0.03297
823.45612,0.03550
825.38459,0.03762
827.31305,0.03239
829.24152,0.02738
831.16999,0.03245
833.09846,0.03847
835.02693,0.03759
836.95540,0.03326
838.88387,0.03110
840.81234,0.03272
842.74080,0.03383
844.66927,0.03515
846.59774,0.03535
848.52621,0.02834
850.45468,0.02080
852.38315,0.02209
854.31162,0.03161
856.24008,0.04236
858.16855,0.04561
860.09702,0.04417
862.02549,0.04375
863.95396,0.04148
865.88243,0.04074
867.81090,0.05991
869.73937,0.09636
871.66783,0.10227
873.59630,0.06867
875.52477,0.04200
877.45324,0.03492
879.38171,0.03473
881.31018,0.03872
883.23865,0.04396
885.16711,0.04749
887.09558,0.05002
889.02405,0.05055
890.95252,0.04710
892.88099,0.04659
894.80946,0.05053
896.73793,0.05050
898.66640,0.04780
900.59486,0.04888
902.52333,0.05122
904.45180,0.05173
906.38027,0.05192
908.30874,0.04734
910.23721,0.03775
912.16568,0.03258
914.09414,0.03357
916.02261,0.03637
917.95108,0.03890
919.87955,0.04047
921.80802,0.04044
923.73649,0.03802
925.66496,0.03631
927.59343,0.03904
929.52189,0.04342
931.45036,0.04363
933.37883,0.04181
935.30730,0.04461
937.23577,0.04952
939.16424,0.05214
941.09271,0.05414
943.02117,0.05555
944.94964,0.05247
946.87811,0.04440
948.80658,0.03946
950.73505,0.04213
952.66352,0.04687
954.59199,0.04817
956.52045,0.04694
958.44892,0.04497
960.37739,0.04256
962.30586,0.04434
964.23433,0.04938
966.16280,0.04959
968.09127,0.04651
970.01974,0.04468
971.94820,0.04436
973.87667,0.04824
975.80514,0.05463
977.73361,0.05725
979.66208,0.05424
981.59055,0.04953
983.51902,0.04952
985.44748,0.05170
987.37595,0.05057
989.30442,0.04870
991.23289,0.04634
993.16136,0.04153
995.08983,0.03957
997.01830,0.04528
998.94677,0.05339
1000.87523,0.05780
1002.80370,0.05860
1004.73217,0.05503
1006.66064,0.04786
1008.58911,0.04243
1010.51758,0.03925
1012.44605,0.03562
1014.37451,0.03506
1016.30298,0.03854
1018.23145,0.04271
1020.15992,0.04870
1022.08839,0.05357
1024.01686,0.05302
1025.94533,0.04923
1027.87380,0.04464
1029.80226,0.04292
1031.73073,0.04329
1033.65920,0.04481
1035.58767,0.04992
1037.51614,0.05080
1039.44461,0.04590
1041.37308,0.04652
1043.30154,0.05102
1045.23001,0.05219
1047.15848,0.05225
1049.08695,0.05123
1051.01542,0.04944
1052.94389,0.05149
1054.87236,0.05503
1056.80083,0.05407
1058.72929,0.05049
1060.65776,0.05253
1062.58623,0.05918
1064.51470,0.06324
1066.44317,0.06748
1068.37164,0.07223
1070.30011,0.07161
1072.22857,0.06707
1074.15704,0.06347
1076.08551,0.06125
1078.01398,0.05685
1079.94245,0.04966
1081.87092,0.04681
1083.79939,0.05051
1085.72786,0.05397
1087.65632,0.05455
1089.58479,0.05233
1091.51326,0.05092
1093.44173,0.05592
1095.37020,0.06234
1097.29867,0.06300
1099.22714,0.06047
1101.15560,0.06008
1103.08407,0.05869
1105.01254,0.05036
1106.94101,0.04150
1108.86948,0.04175
1110.79795,0.04561
1112.72642,0.04603
1114.65489,0.04782
1116.58335,0.05314
1118.51182,0.05813
1120.44029,0.06247
1122.36876,0.06474
1124.29723,0.06022
1126.22570,0.05261
1128.15417,0.04926
1130.08263,0.04948
1132.01110,0.05080
1133.93957,0.05366
1135.86804,0.05744
1137.79651,0.05998
1139.72498,0.05981
1141.65345,0.05686
1143.58191,0.05526
1145.51038,0.05677
1147.43885,0.05605
1149.36732,0.05250
1151.29579,0.05146
1153.22426,0.05413
1155.15273,0.05736
1157.08120,0.05959
1159.00966,0.05998
1160.93813,0.05669
1162.86660,0.05073
1164.79507,0.04761
1166.72354,0.05018
1168.65201,0.05217
1170.58048,0.04902
1172.50894,0.04534
1174.43741,0.04675
1176.36588,0.05202
1178.29435,0.05561
1180.22282,0.05622
1182.15129,0.05621
1184.07976,0.05745
1186.00823,0.05926
1187.93669,0.06029
1189.86516,0.05934
1191.79363,0.05514
1193.72210,0.04992
1195.65057,0.04688
1197.57904,0.04693
1199.50751,0.04944
1201.43597,0.05301
1203.36444,0.05565
1205.29291,0.05591
1207.22138,0.05438
1209.14985,0.05232
1211.07832,0.05177
1213.00679,0.05250
1214.93526,0.05179
1216.86372,0.05103
1218.79219,0.05132
1220.72066,0.05057
1222.64913,0.05048
1224.57760,0.05293
1226.50607,0.05469
1228.43454,0.05256
1230.36300,0.05011
1232.29147,0.05250
1234.21994,0.05695
1236.14841,0.05885
1238.07688,0.05762
1240.00535,0.05459
1241.93382,0.05217
1243.86229,0.05139
1245.79075,0.05216
1247.71922,0.05281
1249.64769,0.05164
1251.57616,0.04969
1253.50463,0.04865
1255.43310,0.04968
1257.36157,0.05180
1259.29003,0.05325
1261.21850,0.05514
1263.14697,0.05742
1265.07544,0.05782
1267.00391,0.05566
1268.93238,0.05287
1270.86085,0.05319
1272.78932,0.05556
1274.71778,0.05594
1276.64625,0.05463
1278.57472,0.05306
1280.50319,0.05170
1282.43166,0.05056
1284.36013,0.04964
1286.28860,0.04976
1288.21706,0.05150
1290.14553,0.05457
1292.07400,0.05709
1294.00247,0.05590
1295.93094,0.05183
1297.85941,0.05005
1299.78788,0.05149
1301.71634,0.05271
1303.64481,0.05157
1305.57328,0.05056
1307.50175,0.05219
1309.43022,0.05394
1311.35869,0.05553
1313.28716,0.05736
1315.21563,0.05734
1317.14409,0.05772
1319.07256,0.05968
1321.00103,0.06000
1322.92950,0.05902
1324.85797,0.05863
1326.78644,0.05828
1328.71491,0.05713
1330.64337,0.05434
1332.57184,0.05217
1334.50031,0.05411
1336.42878,0.05883
1338.35725,0.06218
1340.28572,0.05951
1342.21419,0.05217
1344.14266,0.04819
1346.07112,0.05114
1347.99959,0.05663
1349.92806,0.05865
1351.85653,0.05624
1353.78500,0.05285
1355.71347,0.05097
1357.64194,0.05036
1359.57040,0.05280
1361.49887,0.05943
1363.42734,0.06317
1365.35581,0.06108
1367.28428,0.05988
1369.21275,0.05930
1371.14122,0.05771
1373.06969,0.05845
1374.99815,0.05933
1376.92662,0.05792
1378.85509,0.05799
1380.78356,0.05824
1382.71203,0.05663
1384.64050,0.05737
1386.56897,0.06177
1388.49743,0.06375
1390.42590,0.06373
1392.35437,0.06629
1394.28284,0.06808
1396.21131,0.06356
1398.13978,0.05610
1400.06825,0.05156
1401.99672,0.05219
1403.92518,0.05530
1405.85365,0.05485
1407.78212,0.05189
1409.71059,0.05265
1411.63906,0.05543
1413.56753,0.05697
1415.49600,0.05997
1417.42446,0.06558
1419.35293,0.06832
1421.28140,0.06482
1423.20987,0.06000
1425.13834,0.05775
1427.06681,0.05871
1428.99528,0.06030
1430.92375,0.06042
1432.85221,0.06035
1434.78068,0.06180
1436.70915,0.06289
1438.63762,0.06319
1440.56609,0.06332
1442.49456,0.06108
1444.42303,0.06007
1446.35149,0.06261
1448.27996,0.06138
1450.20843,0.05673
1452.13690,0.05612
1454.06537,0.06123
1455.99384,0.07156
1457.92231,0.07434
1459.85077,0.06633
1461.77924,0.06193
1463.70771,0.06125
1465.63618,0.06425
1467.56465,0.06793
1469.49312,0.06981
1471.42159,0.07070
1473.35006,0.06999
1475.27852,0.06817
1477.20699,0.06589
1479.13546,0.06321
1481.06393,0.06150
1482.99240,0.06074
1484.92087,0.06011
1486.84934,0.06157
1488.77780,0.06652
1490.70627,0.06916
1492.63474,0.06814
1494.56321,0.06853
1496.49168,0.07104
1498.42015,0.07269
1500.34862,0.07077
1502.27709,0.06710
1504.20555,0.06683
1506.13402,0.07554
1508.06249,0.08215
1509.99096,0.07557
1511.91943,0.06959
1513.84790,0.07000
1515.77637,0.07702
1517.70483,0.08493
1519.63330,0.08986
1521.56177,0.08909
1523.49024,0.08073
1525.41871,0.07325
1527.34718,0.06753
1529.27565,0.06513
1531.20412,0.06906
1533.13258,0.07493
1535.06105,0.07453
1536.98952,0.07489
1538.91799,0.08436
1540.84646,0.09313
1542.77493,0.08521
1544.70340,0.07432
1546.63186,0.06756
1548.56033,0.06665
1550.48880,0.06774
1552.41727,0.06795
1554.34574,0.06971
1556.27421,0.07491
1558.20268,0.08512
1560.13115,0.08318
1562.05961,0.07118
1563.98808,0.06409
1565.91655,0.06297
1567.84502,0.06739
1569.77349,0.07102
1571.70196,0.07009
1573.63043,0.07218
1575.55889,0.07738
1577.48736,0.07430
1579.41583,0.06596
1581.34430,0.06170
1583.27277,0.06193
1585.20124,0.06351
1587.12971,0.06321
1589.05818,0.06185
1590.98664,0.06151
1592.91511,0.06136
1594.84358,0.06066
1596.77205,0.06003
1598.70052,0.05981
1600.62899,0.06052
1602.55746,0.06237
1604.48592,0.06419
1606.41439,0.06437
1608.34286,0.06242
1610.27133,0.05940
1612.19980,0.05783
1614.12827,0.06032
1616.05674,0.06595
1617.98521,0.06671
1619.91367,0.06391
1621.84214,0.06380
1623.77061,0.06467
1625.69908,0.06354
1627.62755,0.06237
1629.55602,0.06240
1631.48449,0.06407
1633.41295,0.06940
1635.34142,0.07788
1637.26989,0.07788
1639.19836,0.07069
1641.12683,0.06666
1643.05530,0.06862
1644.98377,0.07524
1646.91223,0.08036
1648.84070,0.07683
1650.76917,0.07406
1652.69764,0.07721
1654.62611,0.07613
1656.55458,0.07108
1658.48305,0.07077
1660.41152,0.07465
1662.33998,0.07643
1664.26845,0.07331
1666.19692,0.07176
1668.12539,0.07335
1670.05386,0.07407
1671.98233,0.07259
1673.91080,0.07217
1675.83926,0.07049
1677.76773,0.06818
1679.69620,0.06868
1681.62467,0.07205
1683.55314,0.07745
1685.48161,0.07700
1687.41008,0.07193
1689.33855,0.06845
1691.26701,0.06769
1693.19548,0.07235
1695.12395,0.08179
1697.05242,0.08749
1698.98089,0.08742
1700.90936,0.08374
1702.83783,0.07799
1704.76629,0.07413
1706.69476,0.06981
1708.62323,0.06600
1710.55170,0.06528
1712.48017,0.06662
1714.40864,0.06843
1716.33711,0.07024
1718.26558,0.06953
1720.19404,0.06587
1722.12251,0.06364
1724.05098,0.06301
1725.97945,0.06318
1727.90792,0.06578
1729.83639,0.07039
1731.76486,0.07534
1733.69332,0.08015
1735.62179,0.07835
1737.55026,0.07194
1739.47873,0.06745
1741.40720,0.06753
1743.33567,0.06875
1745.26414,0.06932
1747.19261,0.07197
1749.12107,0.07563
1751.04954,0.07514
1752.97801,0.07005
1754.90648,0.06589
1756.83495,0.06654
1758.76342,0.07094
1760.69189,0.07523
1762.62035,0.07474
1764.54882,0.07020
1766.47729,0.06849
1768.40576,0.07167
1770.33423,0.07772
1772.26270,0.08075
1774.19117,0.07539
1776.11964,0.06899
1778.04810,0.06693
1779.97657,0.06858
1781.90504,0.07087
1783.83351,0.07205
1785.76198,0.07209
1787.69045,0.07082
1789.61892,0.06966
1791.54738,0.07075
1793.47585,0.07186
1795.40432,0.06985
1797.33279,0.06764
1799.26126,0.06729
1801.18973,0.06763
1803.11820,0.06736
1805.04666,0.06682
1806.97513,0.06704
1808.90360,0.06858
1810.83207,0.06913
1812.76054,0.06810
1814.68901,0.06915
1816.61748,0.07309
1818.54595,0.07735
1820.47441,0.07835
1822.40288,0.07596
1824.33135,0.07245
1826.25982,0.06880
1828.18829,0.06692
1830.11676,0.06695
1832.04523,0.06655
1833.97369,0.06598
1835.90216,0.06642
1837.83063,0.06706
1839.75910,0.06742
1841.68757,0.06940
1843.61604,0.07184
1845.54451,0.07052
1847.47298,0.06857
1849.40144,0.06792
1851.32991,0.06618
1853.25838,0.06353
1855.18685,0.06132
1857.11532,0.06118
1859.04379,0.06320
1860.97226,0.06402
1862.90072,0.06314
1864.82919,0.06375
1866.75766,0.06723
1868.68613,0.07140
1870.61460,0.07186
1872.54307,0.06968
1874.47154,0.06860
1876.40001,0.06886
1878.32847,0.06903
1880.25694,0.06908
1882.18541,0.06912
1884.11388,0.06858
1886.04235,0.06831
1887.97082,0.06926
1889.89929,0.06965
1891.82775,0.06958
1893.75622,0.07039
1895.68469,0.07026
1897.61316,0.06851
1899.54163,0.06604
1901.47010,0.06496
1903.39857,0.06629
1905.32704,0.06699
1907.25550,0.06728
1909.18397,0.06812
1911.11244,0.06725
1913.04091,0.06590
1914.96938,0.06599
1916.89785,0.06657
1918.82632,0.06653
1920.75478,0.06710
1922.68325,0.06889
1924.61172,0.06881
1926.54019,0.06654
1928.46866,0.06511
1930.39713,0.06522
1932.32560,0.06583
1934.25407,0.06605
1936.18253,0.06637
1938.11100,0.06792
1940.03947,0.07010
1941.96794,0.07077
1943.89641,0.06896
1945.82488,0.06623
1947.75335,0.06371
1949.68181,0.06184
1951.61028,0.06080
1953.53875,0.06035
1955.46722,0.06087
1957.39569,0.06240
1959.32416,0.06394
1961.25263,0.06434
1963.18110,0.06395
1965.10956,0.06520
1967.03803,0.06781
1968.96650,0.06848
1970.89497,0.06746
1972.82344,0.06699
1974.75191,0.06634
1976.68038,0.06430
1978.60884,0.06424
1980.53731,0.06679
1982.46578,0.06721
1984.39425,0.06644
1986.32272,0.06749
1988.25119,0.06845
1990.17966,0.06817
1992.10812,0.06727
1994.03659,0.06618
1995.96506,0.06605
1997.89353,0.06709
1999.82200,0.06849
2001.75047,0.06888
2003.67894,0.06708
2005.60741,0.06465
2007.53587,0.06397
2009.46434,0.06531
2011.39281,0.06665
2013.32128,0.06680
2015.24975,0.06728
2017.17822,0.06859
2019.10669,0.06943
2021.03515,0.06983
2022.96362,0.07020
2024.89209,0.06926
2026.82056,0.06698
2028.74903,0.06503
2030.67750,0.06406
2032.60597,0.06297
2034.53444,0.06153
2036.46290,0.06241
2038.39137,0.06543
2040.31984,0.06684
2042.24831,0.06569
2044.17678,0.06361
2046.10525,0.06212
2048.03372,0.06242
2049.96218,0.06418
2051.89065,0.06469
2053.81912,0.06324
2055.74759,0.06306
2057.67606,0.06526
2059.60453,0.06739
2061.53300,0.06882
2063.46147,0.06936
2065.38993,0.06845
2067.31840,0.06826
2069.24687,0.06852
2071.17534,0.06779
2073.10381,0.06833
2075.03228,0.07010
2076.96075,0.07069
2078.88921,0.06944
2080.81768,0.06794
2082.74615,0.06940
2084.67462,0.07199
2086.60309,0.07164
2088.53156,0.06989
2090.46003,0.06860
2092.38850,0.06820
2094.31696,0.06861
2096.24543,0.06825
2098.17390,0.06742
2100.10237,0.06729
2102.03084,0.06743
2103.95931,0.06672
2105.88778,0.06551
2107.81624,0.06513
2109.74471,0.06611
2111.67318,0.06817
2113.60165,0.06964
2115.53012,0.06885
2117.45859,0.06711
2119.38706,0.06725
2121.31553,0.06874
2123.24399,0.06956
2125.17246,0.06975
2127.10093,0.06940
2129.02940,0.06877
2130.95787,0.06816
2132.88634,0.06693
2134.81481,0.06511
2136.74327,0.06488
2138.67174,0.06723
2140.60021,0.06968
2142.52868,0.07060
2144.45715,0.06998
2146.38562,0.06763
2148.31409,0.06535
2150.24255,0.06479
2152.17102,0.06487
2154.09949,0.06538
2156.02796,0.06610
2157.95643,0.06568
2159.88490,0.06612
2161.81337,0.06872
2163.74184,0.07018
2165.67030,0.06968
2167.59877,0.06932
2169.52724,0.06848
2171.45571,0.06638
2173.38418,0.06507
2175.31265,0.06515
2177.24112,0.06537
2179.16958,0.06599
2181.09805,0.06683
2183.02652,0.06707
2184.95499,0.06708
2186.88346,0.06680
2188.81193,0.06727
2190.74040,0.06905
2192.66887,0.07009
2194.59733,0.07029
2196.52580,0.07076
2198.45427,0.07073
2200.38274,0.06960
2202.31121,0.06796
2204.23968,0.06702
2206.16815,0.06682
2208.09661,0.06673
2210.02508,0.06695
2211.95355,0.06738
2213.88202,0.06747
2215.81049,0.06701
2217.73896,0.06672
2219.66743,0.06716
2221.59590,0.06801
2223.52436,0.06922
2225.45283,0.07025
2227.38130,0.07015
2229.30977,0.06981
2231.23824,0.06978
2233.16671,0.06881
2235.09518,0.06793
2237.02364,0.06822
2238.95211,0.06839
2240.88058,0.06849
2242.80905,0.06886
2244.73752,0.06844
2246.66599,0.06672
2248.59446,0.06489
2250.52293,0.06496
2252.45139,0.06724
2254.37986,0.06972
2256.30833,0.07085
2258.23680,0.07025
2260.16527,0.06867
2262.09374,0.06733
2264.02221,0.06605
2265.95067,0.06431
2267.87914,0.06313
2269.80761,0.06398
2271.73608,0.06603
2273.66455,0.06803
2275.59302,0.06966
2277.52149,0.06947
2279.44996,0.06754
2281.37842,0.06658
2283.30689,0.06763
2285.23536,0.06774
2287.16383,0.06565
2289.09230,0.06456
2291.02077,0.06553
2292.94924,0.06612
2294.87770,0.06493
2296.80617,0.06422
2298.73464,0.06544
2300.66311,0.06651
2302.59158,0.06603
2304.52005,0.06424
2306.44852,0.06333
2308.37699,0.06461
2310.30545,0.06667
2312.23392,0.06804
2314.16239,0.06720
2316.09086,0.06449
2318.01933,0.06244
2319.94780,0.06108
2321.87627,0.05748
2323.80473,0.05386
2325.73320,0.05185
2327.66167,0.04890
2329.59014,0.05021
2331.51861,0.05499
2333.44708,0.05639
2335.37555,0.05785
2337.30401,0.05773
2339.23248,0.05340
2341.16095,0.05227
2343.08942,0.05346
2345.01789,0.05173
2346.94636,0.05295
2348.87483,0.05759
2350.80330,0.06221
2352.73176,0.06554
2354.66023,0.06471
2356.58870,0.06082
2358.51717,0.05754
2360.44564,0.05210
2362.37411,0.04697
2364.30258,0.04642
2366.23104,0.05166
2368.15951,0.05592
2370.08798,0.05454
2372.01645,0.05486
2373.94492,0.05785
2375.87339,0.05980
2377.80186,0.06134
2379.73033,0.06320
2381.65879,0.06544
2383.58726,0.06785
2385.51573,0.06935
2387.44420,0.06991
2389.37267,0.06991
2391.30114,0.06939
2393.22961,0.06916
2395.15807,0.06884
2397.08654,0.06860
2399.01501,0.06978
2400.94348,0.07026
2402.87195,0.06945
2404.80042,0.07023
2406.72889,0.07162
2408.65736,0.07068
2410.58582,0.06848
2412.51429,0.06807
2414.44276,0.06899
2416.37123,0.06899
2418.29970,0.06835
2420.22817,0.06751
2422.15664,0.06671
2424.08510,0.06723
2426.01357,0.06794
2427.94204,0.06790
2429.87051,0.06889
2431.79898,0.07022
2433.72745,0.06965
2435.65592,0.06805
2437.58439,0.06781
2439.51285,0.06939
2441.44132,0.07065
2443.36979,0.07065
2445.29826,0.07002
2447.22673,0.06822
2449.15520,0.06699
2451.08367,0.06902
2453.01213,0.07157
2454.94060,0.07152
2456.86907,0.07056
2458.79754,0.07028
2460.72601,0.07044
2462.65448,0.07001
2464.58295,0.06746
2466.51142,0.06483
2468.43988,0.06544
2470.36835,0.06785
2472.29682,0.06843
2474.22529,0.06714
2476.15376,0.06713
2478.08223,0.06794
2480.01070,0.06805
2481.93916,0.06904
2483.86763,0.07032
2485.79610,0.07099
2487.72457,0.07107
2489.65304,0.07079
2491.58151,0.07199
2493.50998,0.07307
2495.43844,0.07135
2497.36691,0.06846
2499.29538,0.06660
2501.22385,0.06683
2503.15232,0.06853
2505.08079,0.06895
2507.00926,0.06696
2508.93773,0.06535
2510.86619,0.06607
2512.79466,0.06752
2514.72313,0.06859
2516.65160,0.06803
2518.58007,0.06529
2520.50854,0.06411
2522.43701,0.06658
2524.36547,0.06946
2526.29394,0.06999
2528.22241,0.06885
2530.15088,0.06748
2532.07935,0.06714
2534.00782,0.06748
2535.93629,0.06688
2537.86476,0.06644
2539.79322,0.06723
2541.72169,0.06853
2543.65016,0.07006
2545.57863,0.07023
2547.50710,0.06906
2549.43557,0.06908
2551.36404,0.06952
2553.29250,0.06888
2555.22097,0.06852
2557.14944,0.06849
2559.07791,0.06829
2561.00638,0.06921
2562.93485,0.07018
2564.86332,0.06914
2566.79179,0.06825
2568.72025,0.06862
2570.64872,0.06816
2572.57719,0.06803
2574.50566,0.06932
2576.43413,0.07027
2578.36260,0.07127
2580.29107,0.07270
2582.21953,0.07169
2584.14800,0.06802
2586.07647,0.06559
2588.00494,0.06638
2589.93341,0.06890
2591.86188,0.07032
2593.79035,0.07099
2595.71882,0.07270
2597.64728,0.07320
2599.57575,0.07081
2601.50422,0.06788
2603.43269,0.06692
2605.36116,0.06833
2607.28963,0.07060
2609.21810,0.07142
2611.14656,0.06992
2613.07503,0.06854
2615.00350,0.06859
2616.93197,0.06847
2618.86044,0.06904
2620.78891,0.07080
2622.71738,0.07176
2624.64585,0.07206
2626.57431,0.07228
2628.50278,0.07197
2630.43125,0.07072
2632.35972,0.06954
2634.28819,0.07060
2636.21666,0.07248
2638.14513,0.07180
2640.07359,0.06921
2642.00206,0.06776
2643.93053,0.06869
2645.85900,0.07006
2647.78747,0.06972
2649.71594,0.06974
2651.64441,0.07142
2653.57288,0.07109
2655.50134,0.06881
2657.42981,0.06878
2659.35828,0.07128
2661.28675,0.07363
2663.21522,0.07334
2665.14369,0.06993
2667.07216,0.06699
2669.00062,0.06751
2670.92909,0.06934
2672.85756,0.06965
2674.78603,0.06891
2676.71450,0.06945
2678.64297,0.07063
2680.57144,0.06938
2682.49990,0.06698
2684.42837,0.06695
2686.35684,0.06895
2688.28531,0.07055
2690.21378,0.07140
2692.14225,0.07267
2694.07072,0.07423
2695.99919,0.07488
2697.92765,0.07368
2699.85612,0.07158
2701.78459,0.07059
2703.71306,0.07063
2705.64153,0.07134
2707.57000,0.07344
2709.49847,0.07525
2711.42693,0.07544
2713.35540,0.07493
2715.28387,0.07289
2717.21234,0.07000
2719.14081,0.06952
2721.06928,0.07096
2722.99775,0.07162
2724.92622,0.07114
2726.85468,0.07083
2728.78315,0.07137
2730.71162,0.07168
2732.64009,0.07197
2734.56856,0.07345
2736.49703,0.07455
2738.42550,0.07367
2740.35396,0.07180
2742.28243,0.07091
2744.21090,0.07205
2746.13937,0.07415
2748.06784,0.07459
2749.99631,0.07255
2751.92478,0.07116
2753.85325,0.07171
2755.78171,0.07215
2757.71018,0.07306
2759.63865,0.07504
2761.56712,0.07572
2763.49559,0.07435
2765.42406,0.07310
2767.35253,0.07307
2769.28099,0.07337
2771.20946,0.07329
2773.13793,0.07177
2775.06640,0.06891
2776.99487,0.06789
2778.92334,0.07047
2780.85181,0.07265
2782.78028,0.07124
2784.70874,0.07044
2786.63721,0.07372
2788.56568,0.07736
2790.49415,0.07774
2792.42262,0.07631
2794.35109,0.07516
2796.27956,0.07485
2798.20802,0.07441
2800.13649,0.07265
2802.06496,0.07060
2803.99343,0.07002
2805.92190,0.07130
2807.85037,0.07256
2809.77884,0.07255
2811.70731,0.07383
2813.63577,0.07740
2815.56424,0.07910
2817.49271,0.07737
2819.42118,0.07654
2821.34965,0.07809
2823.27812,0.07896
2825.20659,0.07774
2827.13505,0.07492
2829.06352,0.07309
2830.99199,0.07518
2832.92046,0.07927
2834.84893,0.08088
2836.77740,0.07825
2838.70587,0.07406
2840.63433,0.07202
2842.56280,0.07174
2844.49127,0.07167
2846.41974,0.07230
2848.34821,0.07353
2850.27668,0.07353
2852.20515,0.07123
2854.13362,0.07016
2856.06208,0.07331
2857.99055,0.07670
2859.91902,0.07674
2861.84749,0.07557
2863.77596,0.07462
2865.70443,0.07403
2867.63290,0.07522
2869.56136,0.07581
2871.48983,0.07274
2873.41830,0.06962
2875.34677,0.07026
2877.27524,0.07260
2879.20371,0.07417
2881.13218,0.07456
2883.06065,0.07397
2884.98911,0.07453
2886.91758,0.07636
2888.84605,0.07681
2890.77452,0.07595
2892.70299,0.07452
2894.63146,0.07247
2896.55993,0.07196
2898.48839,0.07371
2900.41686,0.07566
2902.34533,0.07606
2904.27380,0.07467
2906.20227,0.07380
2908.13074,0.07412
2910.05921,0.07344
2911.98768,0.07195
2913.91614,0.07059
2915.84461,0.06916
2917.77308,0.06908
2919.70155,0.07165
2921.63002,0.07545
2923.55849,0.07709
2925.48696,0.07500
2927.41542,0.07271
2929.34389,0.07231
2931.27236,0.07141
2933.20083,0.06950
2935.12930,0.06765
2937.05777,0.06635
2938.98624,0.06863
2940.91471,0.07394
2942.84317,0.07706
2944.77164,0.07687
2946.70011,0.07402
2948.62858,0.07150
2950.55705,0.07229
2952.48552,0.07384
2954.41399,0.07458
2956.34245,0.07263
2958.27092,0.06830
2960.19939,0.06809
2962.12786,0.07209
2964.05633,0.07414
2965.98480,0.07264
2967.91327,0.07027
2969.84174,0.07052
2971.77020,0.07347
2973.69867,0.07678
2975.62714,0.07874
2977.55561,0.07830
2979.48408,0.07890
2981.41255,0.08287
2983.34102,0.08381
2985.26948,0.07729
2987.19795,0.06950
2989.12642,0.06711
2991.05489,0.06901
2992.98336,0.07274
2994.91183,0.07581
2996.84030,0.07397
2998.76877,0.06944
3000.69723,0.07000
3002.62570,0.07502
3004.55417,0.07790
3006.48264,0.07782
3008.41111,0.07610
3010.33958,0.07327
3012.26805,0.06848
3014.19651,0.05855
3016.12498,0.04920
3018.05345,0.05301
3019.98192,0.06758
3021.91039,0.07804
3023.83886,0.07988
3025.76733,0.07947
3027.69579,0.08187
3029.62426,0.08527
3031.55273,0.08485
3033.48120,0.08096
3035.40967,0.07706
3037.33814,0.07478
3039.26661,0.07486
3041.19508,0.07587
3043.12354,0.07572
3045.05201,0.07488
3046.98048,0.07336
3048.90895,0.07144
3050.83742,0.07224
3052.76589,0.07471
3054.69436,0.07251
3056.62282,0.06825
3058.55129,0.07148
3060.47976,0.07833
3062.40823,0.07868
3064.33670,0.07417
3066.26517,0.07133
3068.19364,0.07120
3070.12211,0.07047
3072.05057,0.06844
3073.97904,0.06751
3075.90751,0.06804
3077.83598,0.07085
3079.76445,0.07519
3081.69292,0.07545
3083.62139,0.07066
3085.54985,0.06740
3087.47832,0.06923
3089.40679,0.07254
3091.33526,0.07384
3093.26373,0.07283
3095.19220,0.07105
3097.12067,0.07097
3099.04914,0.07189
3100.97760,0.07151
3102.90607,0.07122
3104.83454,0.07232
3106.76301,0.07213
3108.69148,0.07012
3110.61995,0.06806
3112.54842,0.06795
3114.47688,0.07242
3116.40535,0.07700
3118.33382,0.07756
3120.26229,0.07769
3122.19076,0.07881
3124.11923,0.07949
3126.04770,0.07875
3127.97617,0.07565
3129.90463,0.07227
3131.83310,0.07283
3133.76157,0.07508
3135.69004,0.07385
3137.61851,0.07103
3139.54698,0.07077
3141.47545,0.07336
3143.40391,0.07434
3145.33238,0.07195
3147.26085,0.07228
3149.18932,0.07665
3151.11779,0.07836
3153.04626,0.07705
3154.97473,0.07740
3156.90320,0.07783
3158.83166,0.07557
3160.76013,0.07385
3162.68860,0.07506
3164.61707,0.07655
3166.54554,0.07664
3168.47401,0.07661
3170.40248,0.07731
3172.33094,0.07843
3174.25941,0.07798
3176.18788,0.07587
3178.11635,0.07620
3180.04482,0.07824
3181.97329,0.07770
3183.90176,0.07740
3185.83022,0.08026
3187.75869,0.08224
3189.68716,0.08124
3191.61563,0.07899
3193.54410,0.07672
3195.47257,0.07720
3197.40104,0.07999
3199.32951,0.08056
3201.25797,0.07954
3203.18644,0.07782
3205.11491,0.07540
3207.04338,0.07472
3208.97185,0.07513
3210.90032,0.07576
3212.82879,0.07757
3214.75725,0.07907
3216.68572,0.07807
3218.61419,0.07519
3220.54266,0.07367
3222.47113,0.07455
3224.39960,0.07412
3226.32807,0.07139
3228.25654,0.07039
3230.18500,0.07246
3232.11347,0.07610
3234.04194,0.07913
3235.97041,0.07981
3237.89888,0.07832
3239.82735,0.07521
3241.75582,0.07291
3243.68428,0.07262
3245.61275,0.07193
3247.54122,0.07123
3249.46969,0.07118
3251.39816,0.07229
3253.32663,0.07644
3255.25510,0.08012
3257.18357,0.08073
3259.11203,0.07929
3261.04050,0.07456
3262.96897,0.06991
3264.89744,0.06906
3266.82591,0.07028
3268.75438,0.07233
3270.68285,0.07375
3272.61131,0.07295
3274.53978,0.07093
3276.46825,0.07063
3278.39672,0.07224
3280.32519,0.07295
3282.25366,0.07196
3284.18213,0.06942
3286.11060,0.06665
3288.03906,0.06754
3289.96753,0.07108
3291.89600,0.07089
3293.82447,0.06719
3295.75294,0.06522
3297.68141,0.06656
3299.60988,0.06953
3301.53834,0.07265
3303.46681,0.07479
3305.39528,0.07490
3307.32375,0.07606
3309.25222,0.07944
3311.18069,0.08084
3313.10916,0.07959
3315.03763,0.07867
3316.96609,0.07843
3318.89456,0.07776
3320.82303,0.07698
3322.75150,0.07557
3324.67997,0.07478
3326.60844,0.07882
3328.53691,0.08611
3330.46537,0.08818
3332.39384,0.08347
3334.32231,0.07740
3336.25078,0.07196
3338.17925,0.07086
3340.10772,0.07451
3342.03619,0.07660
3343.96466,0.07649
3345.89312,0.07708
3347.82159,0.07703
3349.75006,0.07396
3351.67853,0.07112
3353.60700,0.07236
3355.53547,0.07619
3357.46394,0.07920
3359.39240,0.07923
3361.32087,0.07628
3363.24934,0.07191
3365.17781,0.07016
3367.10628,0.07318
3369.03475,0.07611
3370.96322,0.07488
3372.89168,0.07291
3374.82015,0.07409
3376.74862,0.07796
3378.67709,0.08122
3380.60556,0.08017
3382.53403,0.07631
3384.46250,0.07466
3386.39097,0.07639
3388.31943,0.07829
3390.24790,0.07848
3392.17637,0.07672
3394.10484,0.07371
3396.03331,0.07202
3397.96178,0.07270
3399.89025,0.07475
3401.81871,0.07665
3403.74718,0.07780
3405.67565,0.07757
3407.60412,0.07656
3409.53259,0.07675
3411.46106,0.07734
3413.38953,0.07662
3415.31800,0.07488
3417.24646,0.07542
3419.17493,0.07869
3421.10340,0.07896
3423.03187,0.07449
3424.96034,0.07002
3426.88881,0.06982
3428.81728,0.07341
3430.74574,0.07444
3432.67421,0.07072
3434.60268,0.06876
3436.53115,0.07043
3438.45962,0.07262
3440.38809,0.07471
3442.31656,0.07479
3444.24503,0.07295
3446.17349,0.07323
3448.10196,0.07460
3450.03043,0.07444
3451.95890,0.07461
3453.88737,0.07409
3455.81584,0.07112
3457.74431,0.06946
3459.67277,0.07052
3461.60124,0.07176
3463.52971,0.07406
3465.45818,0.07567
3467.38665,0.07226
3469.31512,0.06728
3471.24359,0.06627
3473.17206,0.06922
3475.10052,0.07246
3477.02899,0.07262
3478.95746,0.06994
3480.88593,0.06719
3482.81440,0.06681
3484.74287,0.06714
3486.67134,0.06623
3488.59980,0.06629
3490.52827,0.06769
3492.45674,0.06870
3494.38521,0.07041
3496.31368,0.07151
3498.24215,0.06889
3500.17062,0.06611
3502.09909,0.06713
3504.02755,0.06852
3505.95602,0.06766
3507.88449,0.06738
3509.81296,0.06657
3511.74143,0.06299
3513.66990,0.06075
3515.59837,0.06262
3517.52683,0.06485
3519.45530,0.06365
3521.38377,0.06165
3523.31224,0.06200
3525.24071,0.06359
3527.16918,0.06403
3529.09765,0.06221
3531.02611,0.06092
3532.95458,0.06109
3534.88305,0.06123
3536.81152,0.06199
3538.73999,0.06292
3540.66846,0.06330
3542.59693,0.06508
3544.52540,0.06894
3546.45386,0.07187
3548.38233,0.06986
3550.31080,0.06484
3552.23927,0.06302
3554.16774,0.06444
3556.09621,0.06485
3558.02468,0.06359
3559.95314,0.06067
3561.88161,0.05931
3563.81008,0.06385
3565.73855,0.07046
3567.66702,0.07032
3569.59549,0.06693
3571.52396,0.06540
3573.45243,0.06293
3575.38089,0.05960
3577.30936,0.05629
3579.23783,0.05409
3581.16630,0.05526
3583.09477,0.06021
3585.02324,0.06737
3586.95171,0.07047
3588.88017,0.06407
3590.80864,0.05781
3592.73711,0.05901
3594.66558,0.06385
3596.59405,0.06567
3598.52252,0.06622
3600.45099,0.06532
3602.37946,0.06089
3604.30792,0.05837
3606.23639,0.05950
3608.16486,0.06011
3610.09333,0.06218
3612.02180,0.06580
3613.95027,0.06313
3615.87874,0.05822
3617.80720,0.05734
3619.73567,0.05544
3621.66414,0.05403
3623.59261,0.05647
3625.52108,0.05881
3627.44955,0.05852
3629.37802,0.05382
3631.30649,0.05004
3633.23495,0.05269
3635.16342,0.05725
3637.09189,0.05843
3639.02036,0.05521
3640.94883,0.04982
3642.87730,0.04818
3644.80577,0.05255
3646.73423,0.06204
3648.66270,0.07397
3650.59117,0.07197
3652.51964,0.06345
3654.44811,0.06121
3656.37658,0.05891
3658.30505,0.05246
3660.23352,0.04916
3662.16198,0.04954
3664.09045,0.04889
3666.01892,0.04906
3667.94739,0.05483
3669.87586,0.06151
3671.80433,0.06131
3673.73280,0.06252
3675.66126,0.06485
3677.58973,0.05875
3679.51820,0.05153
3681.44667,0.04885
3683.37514,0.04964
3685.30361,0.05149
3687.23208,0.05557
3689.16055,0.06245
3691.08901,0.06369
3693.01748,0.05909
3694.94595,0.05417
3696.87442,0.05102
3698.80289,0.05220
3700.73136,0.05569
3702.65983,0.05451
3704.58829,0.05019
3706.51676,0.04902
3708.44523,0.05038
3710.37370,0.05048
3712.30217,0.04775
3714.23064,0.04675
3716.15911,0.04946
3718.08757,0.05309
3720.01604,0.05437
3721.94451,0.05253
3723.87298,0.04970
3725.80145,0.04887
3727.72992,0.04901
3729.65839,0.04739
3731.58686,0.04554
3733.51532,0.04854
3735.44379,0.05736
3737.37226,0.06042
3739.30073,0.05616
3741.22920,0.05332
3743.15767,0.05371
3745.08614,0.05373
3747.01460,0.05386
3748.94307,0.05772
3750.87154,0.06375
3752.80001,0.06423
3754.72848,0.06156
3756.65695,0.05941
3758.58542,0.05689
3760.51389,0.05349
3762.44235,0.05094
3764.37082,0.05020
3766.29929,0.04950
3768.22776,0.04764
3770.15623,0.04644
3772.08470,0.04588
3774.01317,0.04476
3775.94163,0.04421
3777.87010,0.04519
3779.79857,0.04556
3781.72704,0.04344
3783.65551,0.04224
3785.58398,0.04482
3787.51245,0.04786
3789.44092,0.04837
3791.36938,0.04922
3793.29785,0.05295
3795.22632,0.05635
3797.15479,0.05380
3799.08326,0.05062
3801.01173,0.05519
3802.94020,0.05837
3804.86866,0.05373
3806.79713,0.04855
3808.72560,0.04610
3810.65407,0.04695
3812.58254,0.05017
3814.51101,0.05215
3816.43948,0.04903
3818.36795,0.04639
3820.29641,0.04977
3822.22488,0.05406
3824.15335,0.05385
3826.08182,0.05121
3828.01029,0.04950
3829.93876,0.05140
3831.86723,0.05501
3833.79569,0.05835
3835.72416,0.06108
3837.65263,0.06266
3839.58110,0.05979
3841.50957,0.05417
3843.43804,0.05028
3845.36651,0.04565
3847.29498,0.04203
3849.22344,0.04523
3851.15191,0.05477
3853.08038,0.06073
3855.00885,0.05325
3856.93732,0.04677
3858.86579,0.04574
3860.79426,0.04767
3862.72272,0.04819
3864.65119,0.04522
3866.57966,0.04310
3868.50813,0.04347
3870.43660,0.04292
3872.36507,0.04214
3874.29354,0.04361
3876.22200,0.04419
3878.15047,0.04621
3880.07894,0.05023
3882.00741,0.04871
3883.93588,0.04561
3885.86435,0.04595
3887.79282,0.04716
3889.72129,0.05079
3891.64975,0.05435
3893.57822,0.05073
3895.50669,0.04524
3897.43516,0.04303
3899.36363,0.04249
3901.29210,0.04263
3903.22057,0.04547
3905.14903,0.04692
3907.07750,0.04345
3909.00597,0.03907
3910.93444,0.03627
3912.86291,0.03543
3914.79138,0.03587
3916.71985,0.03624
3918.64832,0.03482
3920.57678,0.03303
3922.50525,0.03506
3924.43372,0.03976
3926.36219,0.04185
3928.29066,0.04012
3930.21913,0.03772
3932.14760,0.03755
3934.07606,0.03727
3936.00453,0.03579
3937.93300,0.03682
3939.86147,0.04068
3941.78994,0.04430
3943.71841,0.04517
3945.64688,0.04301
3947.57535,0.04081
3949.50381,0.04138
3951.43228,0.04231
3953.36075,0.04083
3955.28922,0.03972
3957.21769,0.04029
3959.14616,0.03866
3961.07463,0.03537
3963.00309,0.03619
3964.93156,0.03978
3966.86003,0.04007
3968.78850,0.03746
3970.71697,0.03480
3972.64544,0.03315
3974.57391,0.03526
3976.50238,0.04044
3978.43084,0.04372
3980.35931,0.04461
3982.28778,0.04378
3984.21625,0.04079
3986.14472,0.03725
3988.07319,0.03570
3990.00166,0.03699
3991.93012,0.03674
3993.85859,0.03276
3995.78706,0.02965
3997.71553,0.03042
3999.64400,0.03398
4001.57247,0.03740
4003.50094,0.03770
4005.42941,0.03545
4007.35787,0.03544
4009.28634,0.03817
4011.21481,0.03988
4013.14328,0.03960
4015.07175,0.03722
4017.00022,0.03551
4018.92869,0.03649
4020.85715,0.03612
4022.78562,0.03316
4024.71409,0.03166
4026.64256,0.03228
4028.57103,0.03266
4030.49950,0.03369
4032.42797,0.03381
4034.35644,0.03149
4036.28490,0.03178
4038.21337,0.03454
4040.14184,0.03411
4042.07031,0.03258
4043.99878,0.03436
4045.92725,0.03721
4047.85572,0.03871
4049.78418,0.03939
4051.71265,0.03883
4053.64112,0.03736
4055.56959,0.03714
4057.49806,0.03958
4059.42653,0.04144
4061.35500,0.03834
4063.28346,0.03556
4065.21193,0.03707
4067.14040,0.03650
4069.06887,0.03442
4070.99734,0.03458
4072.92581,0.03294
4074.85428,0.03020
4076.78275,0.03033
4078.71121,0.03107
4080.63968,0.03200
4082.56815,0.03494
4084.49662,0.03660
4086.42509,0.03559
4088.35356,0.03401
4090.28203,0.03280
4092.21049,0.03262
4094.13896,0.03207
4096.06743,0.03099
4097.99590,0.03230
4099.92437,0.03388
4101.85284,0.03172
4103.78131,0.03015
4105.70978,0.03349
4107.63824,0.03810
4109.56671,0.04027
4111.49518,0.03825
4113.42365,0.03483
4115.35212,0.03402
4117.28059,0.03272
4119.20906,0.02894
4121.13752,0.02578
4123.06599,0.02404
4124.99446,0.02269
4126.92293,0.02460
4128.85140,0.02975
4130.77987,0.03082
4132.70834,0.02631
4134.63681,0.02337
4136.56527,0.02570
4138.49374,0.02892
4140.42221,0.02898
4142.35068,0.02834
4144.27915,0.03022
4146.20762,0.03128
4148.13609,0.02978
4150.06455,0.02975
4151.99302,0.03070
4153.92149,0.02989
4155.84996,0.02711
4157.77843,0.02406
4159.70690,0.02362
4161.63537,0.02700
4163.56384,0.03276
4165.49230,0.03684
4167.42077,0.03735
4169.34924,0.03519
4171.27771,0.03139
4173.20618,0.02813
4175.13465,0.02778
4177.06312,0.03044
4178.99158,0.03205
4180.92005,0.03120
4182.84852,0.03040
4184.77699,0.02796
4186.70546,0.02348
4188.63393,0.02144
4190.56240,0.02324
4192.49087,0.02836
4194.41933,0.03635
4196.34780,0.04219
4198.27627,0.03824
4200.20474,0.02857
4202.13321,0.02587
4204.06168,0.02769
4205.99015,0.02660
4207.91861,0.02406
4209.84708,0.02053
4211.77555,0.01780
4213.70402,0.01832
4215.63249,0.01919
4217.56096,0.01968
4219.48943,0.02425
4221.41789,0.03031
4223.34636,0.03081
4225.27483,0.02839
4227.20330,0.02678
4229.13177,0.02520
4231.06024,0.02396
4232.98871,0.02347
4234.91718,0.02394
4236.84564,0.02418
4238.77411,0.02367
4240.70258,0.02447
4242.63105,0.02620
4244.55952,0.02652
4246.48799,0.02378
4248.41646,0.01921
4250.34492,0.01763
4252.27339,0.01979
4254.20186,0.02227
4256.13033,0.02205
4258.05880,0.01882
4259.98727,0.01801
4261.91574,0.02369
4263.84421,0.03108
4265.77267,0.03301
4267.70114,0.02919
4269.62961,0.02320
4271.55808,0.01777
4273.48655,0.01723
4275.41502,0.02049
4277.34349,0.02065
4279.27195,0.01869
4281.20042,0.01857
4283.12889,0.01785
4285.05736,0.01699
4286.98583,0.01913
4288.91430,0.02162
4290.84277,0.02386
4292.77124,0.02711
4294.69970,0.02654
4296.62817,0.02237
4298.55664,0.02050
4300.48511,0.01954
4302.41358,0.01580
4304.34205,0.01064
4306.27052,0.00930
4308.19898,0.01294
4310.12745,0.01536
4312.05592,0.01381
4313.98439,0.01214
4315.91286,0.01353
4317.84133,0.01682
4319.76980,0.01874
4321.69827,0.01686
4323.62673,0.01349
4325.55520,0.01146
4327.48367,0.00959
4329.41214,0.00913
4331.34061,0.01094
4333.26908,0.01392
4335.19755,0.01748
4337.12601,0.01904
4339.05448,0.01991
4340.98295,0.02184
4342.91142,0.02036
4344.83989,0.01453
4346.76836,0.01048
4348.69683,0.01097
4350.62530,0.01279
4352.55376,0.01485
4354.48223,0.01765
4356.41070,0.01825
4358.33917,0.01586
4360.26764,0.01336
4362.19611,0.01188
4364.12458,0.01080
4366.05304,0.01100
4367.98151,0.01418
4369.90998,0.01767
4371.83845,0.01628
4373.76692,0.01081
4375.69539,0.00754
4377.62386,0.00718
4379.55232,0.00607
4381.48079,0.00707
4383.40926,0.01108
4385.33773,0.01147
4387.26620,0.00742
4389.19467,0.00644
4391.12314,0.01135
4393.05161,0.01539
4394.98007,0.01365
4396.90854,0.01025
4398.83701,0.00891
4400.76548,0.00841
4402.69395,0.01049
4404.62242,0.01696
4406.55089,0.02195
4408.47935,0.01984
4410.40782,0.01405
4412.33629,0.01016
4414.26476,0.00924
4416.19323,0.00872
4418.12170,0.00463
4420.05017,0.00025
4421.97864,0.00132
4423.90710,0.00343
4425.83557,0.00328
4427.76404,0.00523
4429.69251,0.00877
4431.62098,0.01049
4433.54945,0.01041
4435.47792,0.00783
4437.40638,0.00430
4439.33485,0.00506
4441.26332,0.00984
4443.19179,0.01153
4445.12026,0.00788
4447.04873,0.00398
4448.97720,0.00357
4450.90567,0.00750
4452.83413,0.01371
4454.76260,0.01746
4456.69107,0.01530
4458.61954,0.00761
4460.54801,-0.00146
4462.47648,-0.00545
4464.40495,-0.00289
4466.33341,-0.00100
4468.26188,-0.00133
4470.19035,0.00031
4472.11882,0.00330
4474.04729,0.00712
4475.97576,0.01150
4477.90423,0.01183
4479.83270,0.00686
4481.76116,0.00381
4483.68963,0.00664
4485.61810,0.00982
4487.54657,0.00941
4489.47504,0.00638
4491.40351,0.00326
4493.33198,0.00157
4495.26044,-0.00215
4497.18891,-0.00717
4499.11738,-0.00577
4501.04585,0.00077
4502.97432,0.00589
4504.90279,0.00972
4506.83126,0.01273
4508.75973,0.01345
4510.68819,0.01006
4512.61666,0.00110
4514.54513,-0.00679
4516.47360,-0.00734
4518.40207,-0.00379
4520.33054,-0.00033
4522.25901,0.00028
4524.18747,-0.00152
4526.11594,-0.00024
4528.04441,0.00669
4529.97288,0.01593
4531.90135,0.02053
4533.82982,0.01702
4535.75829,0.01105
4537.68676,0.00951
4539.61522,0.01145
4541.54369,0.01040
4543.47216,0.00462
4545.40063,-0.00046
4547.32910,0.00286
4549.25757,0.01220
4551.18604,0.01309
4553.11450,0.00216
4555.04297,-0.00626
4556.97144,-0.00276
4558.89991,0.00571
4560.82838,0.01043
4562.75685,0.01149
4564.68532,0.01238
4566.61378,0.01473
4568.54225,0.01531
4570.47072,0.00974
4572.39919,-0.00117
4574.32766,-0.00880
4576.25613,-0.00869
4578.18460,-0.00495
4580.11307,-0.00442
4582.04153,-0.00659
4583.97000,-0.00585
4585.89847,-0.00361
4587.82694,-0.00287
4589.75541,0.00176
4591.68388,0.01170
4593.61235,0.01503
4595.54081,0.00697
4597.46928,-0.00021
4599.39775,0.00121
4601.32622,0.00323
4603.25469,0.00074
4605.18316,0.00006
4607.11163,0.00602
4609.04010,0.01353
4610.96856,0.01459
4612.89703,0.00937
4614.82550,0.00196
4616.75397,-0.00113
4618.68244,0.00516
4620.61091,0.01183
4622.53938,0.01209
4624.46784,0.00890
4626.39631,0.00337
4628.32478,-0.00141
4630.25325,-0.00356
4632.18172,-0.00358
4634.11019,-0.00106
4636.03866,0.00013
4637.96713,0.00172
4639.89559,0.00883
4641.82406,0.01366
4643.75253,0.01233
4645.68100,0.01146
4647.60947,0.00946
4649.53794,0.00432
4651.46641,-0.00050
4653.39487,-0.00158
4655.32334,0.00404
4657.25181,0.01072
4659.18028,0.01064
4661.10875,0.00577
4663.03722,0.00404
4664.96569,0.00824
4666.89416,0.00881
4668.82262,0.00470
4670.75109,0.00650
4672.67956,0.01100
4674.60803,0.00794
4676.53650,-0.00116
4678.46497,-0.00809
4680.39344,-0.00905
4682.32190,-0.00603
4684.25037,-0.00202
4686.17884,-0.00178
4688.10731,-0.00641
4690.03578,-0.00888
4691.96425,-0.00674
4693.89272,-0.00367
4695.82119,0.00152
4697.74965,0.01120
4699.67812,0.01843
4701.60659,0.01674
4703.53506,0.01263
4705.46353,0.01212
4707.39200,0.00973
4709.32047,0.00150
4711.24893,-0.00443
4713.17740,-0.00184
4715.10587,0.00198
4717.03434,-0.00012
4718.96281,-0.00462
4720.89128,-0.00452
4722.81975,0.00342
4724.74821,0.01305
4726.67668,0.01336
4728.60515,0.00791
4730.53362,0.00598
4732.46209,0.00637
4734.39056,0.00657
4736.31903,0.00504
4738.24750,0.00077
4740.17596,-0.00265
4742.10443,-0.00019
4744.03290,0.00767
4745.96137,0.01320
4747.88984,0.01087
4749.81831,0.00441
4751.74678,0.00231
4753.67524,0.01015
4755.60371,0.02028
4757.53218,0.01604
4759.46065,0.00052
4761.38912,-0.00770
4763.31759,-0.00476
4765.24606,0.00305
4767.17453,0.00716
4769.10299,0.00218
4771.03146,-0.00210
4772.95993,0.00007
4774.88840,-0.00152
4776.81687,-0.00786
4778.74534,-0.00539
4780.67381,0.00590
4782.60227,0.01197
4784.53074,0.00965
4786.45921,0.00235
4788.38768,-0.00303
4790.31615,-0.00000
4792.24462,0.00589
4794.17309,0.01129
4796.10156,0.01609
4798.03002,0.01431
4799.95849,0.00589
4801.88696,0.00002
4803.81543,0.00092
4805.74390,0.00582
4807.67237,0.01326
4809.60084,0.01941
4811.52930,0.01789
4813.45777,0.01009
4815.38624,0.00329
4817.31471,-0.00113
4819.24318,-0.00119
4821.17165,0.00614
4823.10012,0.01025
4825.02859,0.00418
4826.95705,-0.00326
4828.88552,-0.00530
4830.81399,-0.00077
4832.74246,0.00767
4834.67093,0.00975
4836.59940,0.00359
4838.52787,-0.00018
4840.45633,0.00051
4842.38480,0.00305
4844.31327,0.00755
4846.24174,0.00944
4848.17021,0.00287
4850.09868,-0.00763
4852.02715,-0.00807
4853.95562,-0.00025
4855.88408,0.00149
4857.81255,-0.00129
4859.74102,-0.00003
4861.66949,0.00288
4863.59796,-0.00017
4865.52643,-0.00684
4867.45490,-0.00419
4869.38336,0.00700
4871.31183,0.01448
4873.24030,0.01995
4875.16877,0.02730
4877.09724,0.02873
4879.02571,0.01966
4880.95418,0.00976
4882.88265,0.00665
4884.81111,0.00533
4886.73958,0.00621
4888.66805,0.01101
4890.59652,0.01603
4892.52499,0.01869
4894.45346,0.01300
4896.38193,-0.00128
4898.31039,-0.01263
4900.23886,-0.01001
4902.16733,0.00294
4904.09580,0.01291
4906.02427,0.01475
4907.95274,0.00953
4909.88121,0.00150
4911.80967,-0.00562
4913.73814,-0.01031
4915.66661,-0.00681
4917.59508,0.00076
4919.52355,0.00734
4921.45202,0.01360
4923.38049,0.01439
4925.30896,0.01251
4927.23742,0.01254
4929.16589,0.00772
4931.09436,-0.00298
4933.02283,-0.00663
4934.95130,-0.00020
4936.87977,0.00287
4938.80824,-0.00049
4940.73670,-0.00304
4942.66517,-0.00259
4944.59364,-0.00118
4946.52211,0.00058
4948.45058,0.00552
4950.37905,0.01228
4952.30752,0.01476
4954.23599,0.01139
4956.16445,0.00665
4958.09292,0.00308
4960.02139,-0.00079
4961.94986,-0.00063
4963.87833,0.00189
4965.80680,-0.00519
4967.73527,-0.01102
4969.66373,-0.00411
4971.59220,0.00050
4973.52067,0.00159
4975.44914,0.00658
4977.37761,0.00410
4979.30608,-0.00613
4981.23455,-0.01182
4983.16302,-0.01423
4985.09148,-0.01931
4987.01995,-0.02172
4988.94842,-0.01572
4990.87689,-0.00632
4992.80536,0.00575
4994.73383,0.01684
4996.66230,0.01298
4998.59076,0.00049
5000.51923,-0.00214
5002.44770,0.00613
5004.37617,0.01215
5006.30464,0.01205
5008.23311,0.01518
5010.16158,0.02144
5012.09005,0.02023
5014.01851,0.00934
5015.94698,0.00463
5017.87545,0.01578
5019.80392,0.02677
5021.73239,0.02486
5023.66086,0.01917
5025.58933,0.01780
5027.51779,0.01810
5029.44626,0.02044
5031.37473,0.02082
5033.30320,0.01424
5035.23167,0.01125
5037.16014,0.01766
5039.08861,0.02058
5041.01708,0.01411
5042.94554,0.01318
5044.87401,0.02014
5046.80248,0.01911
5048.73095,0.01186
5050.65942,0.00907
5052.58789,0.00588
5054.51636,0.00054
5056.44482,0.00171
5058.37329,0.00628
5060.30176,0.00364
5062.23023,-0.00087
5064.15870,0.00223
5066.08717,0.00396
5068.01564,-0.00332
5069.94410,-0.00673
5071.87257,0.00273
5073.80104,0.01780
5075.72951,0.02752
5077.65798,0.02436
5079.58645,0.01883
5081.51492,0.02253
5083.44339,0.02423
5085.37185,0.02108
5087.30032,0.02100
5089.22879,0.02387
5091.15726,0.03159
5093.08573,0.03645
5095.01420,0.02672
5096.94267,0.01271
5098.87113,0.00450
5100.79960,0.00198
5102.72807,0.00933
5104.65654,0.02035
5106.58501,0.02330
5108.51348,0.01978
5110.44195,0.01647
5112.37042,0.02061
5114.29888,0.02885
5116.22735,0.02424
5118.15582,0.01381
5120.08429,0.01285
5122.01276,0.01078
5123.94123,0.00696
5125.86970,0.01219
5127.79816,0.01848
5129.72663,0.01887
5131.65510,0.01944
5133.58357,0.01822
5135.51204,0.01373
5137.44051,0.01526
5139.36898,0.02196
5141.29745,0.02277
5143.22591,0.01124
5145.15438,-0.00131
5147.08285,0.00351
5149.01132,0.01618
5150.93979,0.01545
5152.86826,0.00295
5154.79673,-0.00243
5156.72519,0.00430
5158.65366,0.00279
5160.58213,-0.00739
5162.51060,-0.00454
5164.43907,0.00839
5166.36754,0.01039
5168.29601,-0.00330
5170.22448,-0.01650
5172.15294,-0.01372
5174.08141,0.00002
5176.00988,0.01127
5177.93835,0.01151
5179.86682,0.00815
5181.79529,0.00930
5183.72376,0.00765
5185.65222,0.00013
5187.58069,-0.00628
5189.50916,-0.00339
5191.43763,0.00636
5193.36610,0.01082
5195.29457,0.00861
5197.22304,0.00244
5199.15151,-0.00551
5201.07997,-0.00456
5203.00844,0.00495
5204.93691,0.01198
5206.86538,0.01480
5208.79385,0.01347
5210.72232,0.01001
5212.65079,0.01446
5214.57925,0.02245
5216.50772,0.02165
5218.43619,0.01636
5220.36466,0.01319
5222.29313,0.01382
5224.22160,0.02256
5226.15007,0.02951
5228.07854,0.02028
5230.00700,0.00709
5231.93547,0.00245
5233.86394,-0.00049
5235.79241,0.00024
5237.72088,0.01210
5239.64935,0.02451
5241.57782,0.03043
5243.50628,0.03185
5245.43475,0.02705
5247.36322,0.02128
5249.29169,0.02062
5251.22016,0.01964
5253.14863,0.01427
5255.07710,0.00615
5257.00556,0.00009
5258.93403,-0.00080
5260.86250,0.00437
5262.79097,0.01999
5264.71944,0.03356
5266.64791,0.02799
5268.57638,0.01814
5270.50485,0.01297
5272.43331,0.00683
5274.36178,0.00637
5276.29025,0.01701
5278.21872,0.02851
5280.14719,0.02374
5282.07566,0.00545
5284.00413,-0.00302
5285.93259,0.00071
5287.86106,0.00113
5289.78953,0.00328
5291.71800,0.01631
5293.64647,0.02510
5295.57494,0.01482
5297.50341,-0.00213
5299.43188,-0.00297
5301.36034,0.00727
5303.28881,0.01414
5305.21728,0.02406
5307.14575,0.03734
5309.07422,0.03907
5311.00269,0.02678
5312.93116,0.01292
5314.85962,0.00365
5316.78809,-0.00175
5318.71656,0.00209
5320.64503,0.01450
5322.57350,0.02506
5324.50197,0.02863
5326.43044,0.02980
5328.35891,0.03385
5330.28737,0.04076
5332.21584,0.04818
5334.14431,0.04768
5336.07278,0.03396
5338.00125,0.01427
5339.92972,0.01098
5341.85819,0.03278
5343.78665,0.04978
5345.71512,0.03633
5347.64359,0.02077
5349.57206,0.01986
5351.50053,0.02495
5353.42900,0.02797
5355.35747,0.01440
5357.28594,-0.00280
5359.21440,0.00092
5361.14287,0.02399
5363.07134,0.04272
5364.99981,0.04076
5366.92828,0.02807
5368.85675,0.02335
5370.78522,0.03654
5372.71368,0.05164
5374.64215,0.05145
5376.57062,0.04574
5378.49909,0.03828
5380.42756,0.02836
5382.35603,0.02298
5384.28450,0.01732
5386.21297,0.00261
5388.14143,-0.00028
5390.06990,0.01746
5391.99837,0.02779
5393.92684,0.02159
5395.85531,0.01588
5397.78378,0.01105
5399.71225,0.00719
5401.64071,0.01102
5403.56918,0.01675
5405.49765,0.02255
5407.42612,0.03369
5409.35459,0.04253
5411.28306,0.04712
5413.21153,0.04900
5415.13999,0.03381
5417.06846,0.01361
5418.99693,0.01385
5420.92540,0.02862
5422.85387,0.03023
5424.78234,0.01632
5426.71081,0.00985
5428.63928,0.01766
5430.56774,0.02226
5432.49621,0.01350
5434.42468,0.00768
5436.35315,0.01395
5438.28162,0.02444
5440.21009,0.04355
5442.13856,0.05132
5444.06702,0.02957
5445.99549,0.01633
5447.92396,0.03293
5449.85243,0.04912
5451.78090,0.04742
5453.70937,0.03006
5455.63784,0.01071
5457.56631,0.01528
5459.49477,0.03705
5461.42324,0.05606
5463.35171,0.06397
5465.28018,0.05063
5467.20865,0.02248
5469.13712,-0.00402
5471.06559,-0.01388
5472.99405,0.00014
5474.92252,0.02866
5476.85099,0.04592
5478.77946,0.04375
5480.70793,0.03500
5482.63640,0.03029
5484.56487,0.03026
5486.49334,0.02786
5488.42180,0.02911
5490.35027,0.04034
5492.27874,0.04439
5494.20721,0.03139
5496.13568,0.02397
5498.06415,0.03136
5499.99262,0.04421
5501.92108,0.05380
5503.84955,0.04590
5505.77802,0.02699
5507.70649,0.02768
5509.63496,0.04455
5511.56343,0.04794
5513.49190,0.04359
5515.42037,0.05057
5517.34883,0.05197
5519.27730,0.03484
5521.20577,0.02170
5523.13424,0.02229
5525.06271,0.01928
5526.99118,0.01269
5528.91965,0.01416
5530.84811,0.02466
5532.77658,0.04229
5534.70505,0.05374
5536.63352,0.04904
5538.56199,0.03798
5540.49046,0.02941
5542.41893,0.01930
5544.34740,0.01038
5546.27586,0.01687
5548.20433,0.03799
5550.13280,0.05529
5552.06127,0.05105
5553.98974,0.03294
5555.91821,0.02198
5557.84668,0.01130
5559.77514,-0.00459
5561.70361,-0.01471
5563.63208,-0.01526
5565.56055,-0.00603
5567.48902,0.00237
5569.41749,0.00201
5571.34596,0.00117
5573.27443,0.00400
5575.20289,0.01769
5577.13136,0.03842
5579.05983,0.04772
5580.98830,0.04541
5582.91677,0.03695
5584.84524,0.02743
5586.77371,0.02744
5588.70217,0.04096
5590.63064,0.05944
5592.55911,0.05938
5594.48758,0.03800
5596.41605,0.01592
5598.34452,-0.00276
5600.27299,-0.01667
5602.20145,-0.01640
5604.12992,0.00144
5606.05839,0.03960
5607.98686,0.07566
5609.91533,0.06977
5611.84380,0.03649
5613.77227,0.01652
5615.70074,0.01423
5617.62920,0.02420
5619.55767,0.02819
5621.48614,0.01795
5623.41461,0.01907
5625.34308,0.03650
5627.27155,0.04783
5629.20002,0.03804
5631.12848,0.01241
5633.05695,-0.01141
5634.98542,-0.01587
5636.91389,0.00841
5638.84236,0.04257
5640.77083,0.04546
5642.69930,0.01938
5644.62777,0.01219
5646.55623,0.02873
5648.48470,0.03015
5650.41317,0.01825
5652.34164,0.01713
5654.27011,0.02474
5656.19858,0.02918
5658.12705,0.02422
5660.05551,0.01407
5661.98398,0.01036
5663.91245,0.00800
5665.84092,-0.00498
5667.76939,-0.01403
5669.69786,-0.00389
5671.62633,0.01516
5673.55480,0.03693
5675.48326,0.06281
5677.41173,0.07205
5679.34020,0.05383
5681.26867,0.03512
5683.19714,0.03087
5685.12561,0.02652
5687.05408,0.01812
5688.98254,0.01857
5690.91101,0.02334
5692.83948,0.02634
5694.76795,0.04131
5696.69642,0.05685
5698.62489,0.04474
5700.55336,0.02020
5702.48183,0.01532
5704.41029,0.02516
5706.33876,0.03809
5708.26723,0.05483
5710.19570,0.06115
5712.12417,0.04979
5714.05264,0.02864
5715.98111,0.00198
5717.90957,-0.01184
5719.83804,0.00639
5721.76651,0.03047
5723.69498,0.01536
5725.62345,-0.02146
5727.55192,-0.02236
5729.48039,0.00171
5731.40886,0.01044
5733.33732,0.02232
5735.26579,0.03925
5737.19426,0.03661
5739.12273,0.02175
5741.05120,0.00849
5742.97967,0.01206
5744.90814,0.03898
5746.83660,0.06512
5748.76507,0.06084
5750.69354,0.02811
5752.62201,0.00296
5754.55048,0.01421
5756.47895,0.04011
5758.40742,0.03849
5760.33588,0.01129
5762.26435,-0.00508
5764.19282,0.01277
5766.12129,0.04825
5768.04976,0.07270
5769.97823,0.07126
5771.90670,0.04639
5773.83517,0.02526
5775.76363,0.01582
5777.69210,0.01212
5779.62057,0.02217
5781.54904,0.04154
5783.47751,0.04672
5785.40598,0.03966
5787.33445,0.05045
5789.26291,0.06368
5791.19138,0.04528
5793.11985,0.01516
5795.04832,0.01099
5796.97679,0.02673
5798.90526,0.02974
5800.83373,0.02864
5802.76220,0.04125
5804.69066,0.04604
5806.61913,0.03714
5808.54760,0.03232
5810.47607,0.02862
5812.40454,0.03674
5814.33301,0.06206
5816.26148,0.06996
5818.18994,0.04644
5820.11841,0.01892
5822.04688,0.01679
5823.97535,0.02764
5825.90382,0.01933
5827.83229,0.00942
5829.76076,0.02843
5831.68923,0.04273
5833.61769,0.01888
5835.54616,-0.01074
5837.47463,-0.01463
5839.40310,0.00190
5841.33157,0.03486
5843.26004,0.07203
5845.18851,0.08363
5847.11697,0.06639
5849.04544,0.03226
5850.97391,0.00153
5852.90238,0.00221
5854.83085,0.02272
5856.75932,0.04103
5858.68779,0.05140
5860.61626,0.04403
5862.54472,0.02148
5864.47319,0.00268
5866.40166,-0.00444
5868.33013,-0.01299
5870.25860,-0.02913
5872.18707,-0.03565
5874.11554,-0.02187
5876.04400,0.01132
5877.97247,0.05459
5879.90094,0.06782
5881.82941,0.04776
5883.75788,0.04085
5885.68635,0.05292
5887.61482,0.06952
5889.54329,0.07764
5891.47175,0.06334
5893.40022,0.03817
5895.32869,0.02320
5897.25716,0.01741
5899.18563,0.00691
5901.11410,-0.00617
5903.04257,-0.00491
5904.97103,0.01709
5906.89950,0.04893
5908.82797,0.08056
5910.75644,0.09307
5912.68491,0.06761
5914.61338,0.02640
5916.54185,0.00325
5918.47032,-0.01532
5920.39878,-0.03158
5922.32725,-0.02626
5924.25572,-0.01852
5926.18419,-0.01126
5928.11266,0.00038
5930.04113,0.00044
5931.96960,0.00408
5933.89806,0.02339
5935.82653,0.04353
5937.75500,0.05930
5939.68347,0.07091
5941.61194,0.06713
5943.54041,0.05778
5945.46888,0.05599
5947.39734,0.04876
5949.32581,0.03807
5951.25428,0.02676
5953.18275,0.00864
5955.11122,-0.00579
5957.03969,-0.01085
5958.96816,-0.00599
5960.89663,0.01700
5962.82509,0.04805
5964.75356,0.06375
5966.68203,0.05598
5968.61050,0.02982
5970.53897,0.00971
5972.46744,0.00978
5974.39591,0.00234
5976.32437,-0.02219
5978.25284,-0.03036
5980.18131,0.00082
5982.10978,0.05055
5984.03825,0.07213
5985.96672,0.05355
5987.89519,0.03908
5989.82366,0.05973
5991.75212,0.07019
5993.68059,0.03810
5995.60906,0.02383
5997.53753,0.05176
5999.46600,0.06697
6001.39447,0.05311
6003.32294,0.03852
6005.25140,0.03292
6007.17987,0.01376
6009.10834,-0.00066
6011.03681,0.01570
6012.96528,0.04499
6014.89375,0.06359
6016.82222,0.06453
6018.75069,0.06270
6020.67915,0.06381
6022.60762,0.06325
6024.53609,0.05913
6026.46456,0.04564
6028.39303,0.03121
6030.32150,0.01924
6032.24997,0.00692
6034.17843,0.01382
6036.10690,0.03304
6038.03537,0.02914
6039.96384,0.01578
6041.89231,0.01484
6043.82078,0.01505
6045.74925,0.01922
6047.67772,0.04716
6049.60618,0.07761
6051.53465,0.06560
6053.46312,0.03670
6055.39159,0.03744
6057.32006,0.03957
6059.24853,0.02593
6061.17700,0.03253
6063.10546,0.04281
6065.03393,0.03917
6066.96240,0.03971
6068.89087,0.03349
6070.81934,0.01768
6072.74781,0.01718
6074.67628,0.04700
6076.60475,0.08524
6078.53321,0.10482
6080.46168,0.10006
6082.39015,0.06989
6084.31862,0.03987
6086.24709,0.04714
6088.17556,0.05941
6090.10403,0.03037
6092.03249,-0.00071
6093.96096,0.00445
6095.88943,0.02147
6097.81790,0.01977
6099.74637,0.00128
6101.67484,0.00583
6103.60331,0.04052
6105.53177,0.05064
6107.46024,0.02554
6109.38871,0.01386
6111.31718,0.02038
6113.24565,0.03385
6115.17412,0.05961
6117.10259,0.07430
6119.03106,0.05337
6120.95952,0.01366
6122.88799,-0.00475
6124.81646,0.00468
6126.74493,0.00814
6128.67340,-0.00908
6130.60187,-0.01060
6132.53034,0.02046
6134.45880,0.04656
6136.38727,0.03813
6138.31574,0.01076
6140.24421,-0.00751
6142.17268,-0.00621
6144.10115,0.01702
6146.02962,0.03951
6147.95809,0.03948
6149.88655,0.03372
6151.81502,0.03376
6153.74349,0.03017
6155.67196,0.02549
6157.60043,0.03083
6159.52890,0.03393
6161.45737,0.02787
6163.38583,0.03410
6165.31430,0.04036
6167.24277,0.02931
6169.17124,0.01557
6171.09971,-0.00157
6173.02818,-0.01728
6174.95665,-0.01334
6176.88512,0.00227
6178.81358,0.02482
6180.74205,0.06293
6182.67052,0.08521
6184.59899,0.05955
6186.52746,0.02413
6188.45593,0.02128
6190.38440,0.02467
6192.31286,0.02083
6194.24133,0.02988
6196.16980,0.04190
6198.09827,0.03847
6200.02674,0.02837
6201.95521,0.01369
6203.88368,-0.00456
6205.81215,-0.00001
6207.74061,0.02760
6209.66908,0.04195
6211.59755,0.01061
6213.52602,-0.03934
6215.45449,-0.05851
6217.38296,-0.05599
6219.31143,-0.05106
6221.23989,-0.02305
6223.16836,0.02540
6225.09683,0.05533
6227.02530,0.04911
6228.95377,0.02668
6230.88224,0.01194
6232.81071,0.01573
6234.73918,0.04006
6236.66764,0.07747
6238.59611,0.09888
6240.52458,0.06338
6242.45305,-0.00860
6244.38152,-0.04777
6246.30999,-0.04963
6248.23846,-0.03618
6250.16692,-0.00457
6252.09539,0.01215
6254.02386,-0.00185
6255.95233,-0.01150
6257.88080,-0.00804
6259.80927,-0.01006
6261.73774,-0.02253
6263.66621,-0.02725
6265.59467,-0.02422
6267.52314,-0.03793
6269.45161,-0.04349
6271.38008,-0.00920
6273.30855,0.05940
6275.23702,0.12103
6277.16549,0.11815
6279.09395,0.07037
6281.02242,0.02959
6282.95089,-0.00439
6284.87936,-0.02639
6286.80783,-0.02285
6288.73630,-0.00541
6290.66477,0.01312
6292.59323,0.03329
6294.52170,0.05517
6296.45017,0.06182
6298.37864,0.06266
6300.30711,0.07682
6302.23558,0.08915
6304.16405,0.09137
6306.09252,0.07636
6308.02098,0.03294
6309.94945,-0.00665
6311.87792,-0.02631
6313.80639,-0.04478
6315.73486,-0.05184
6317.66333,-0.02852
6319.59180,0.02632
6321.52026,0.08135
6323.44873,0.07604
6325.37720,0.02639
6327.30567,0.00601
6329.23414,0.02394
6331.16261,0.03069
6333.09108,0.02155
6335.01955,0.01593
6336.94801,0.00798
6338.87648,0.01749
6340.80495,0.05508
6342.73342,0.07564
6344.66189,0.06821
6346.59036,0.07150
6348.51883,0.08734
6350.44729,0.09847
6352.37576,0.10146
6354.30423,0.08449
6356.23270,0.06910
6358.16117,0.07925
6360.08964,0.07576
6362.01811,0.03820
6363.94658,0.01485
6365.87504,0.01965
6367.80351,0.01815
6369.73198,0.00477
6371.66045,0.01386
6373.58892,0.06198
6375.51739,0.08521
6377.44586,0.05396
6379.37432,0.03117
6381.30279,0.03350
6383.23126,0.02180
6385.15973,0.00463
6387.08820,0.00350
6389.01667,0.00119
6390.94514,0.00153
6392.87361,0.01500
6394.80207,0.01926
6396.73054,-0.01886
6398.65901,-0.06081
6400.58748,-0.04876
6402.51595,0.00753
6404.44442,0.04482
6406.37289,0.02645
6408.30135,-0.00951
6410.22982,-0.03800
6412.15829,-0.05569
6414.08676,-0.03226
6416.01523,-0.00284
6417.94370,0.02301
6419.87217,0.04414
6421.80064,0.04113
6423.72910,0.03698
6425.65757,0.03898
6427.58604,0.02766
6429.51451,0.02534
6431.44298,0.04653
6433.37145,0.05475
6435.29992,0.03549
6437.22838,-0.00693
6439.15685,-0.05063
6441.08532,-0.05043
6443.01379,-0.00486
6444.94226,0.04125
6446.87073,0.05961
6448.79920,0.05372
6450.72766,0.03161
6452.65613,-0.00363
6454.58460,-0.04724
6456.51307,-0.06677
6458.44154,-0.04659
6460.37001,-0.04195
6462.29848,-0.06494
6464.22695,-0.03160
6466.15541,0.06751
6468.08388,0.11941
6470.01235,0.07912
6471.94082,0.03392
6473.86929,0.04328
6475.79776,0.06643
6477.72623,0.04788
6479.65469,0.00557
6481.58316,-0.01317
6483.51163,-0.00719
6485.44010,-0.01520
6487.36857,-0.03938
6489.29704,-0.03341
6491.22551,-0.00705
6493.15398,-0.02219
6495.08244,-0.04560
6497.01091,-0.00459
6498.93938,0.05998
6500.86785,0.08806
6502.79632,0.09294
6504.72479,0.07914
6506.65326,0.05384
6508.58172,0.03271
6510.51019,0.01716
6512.43866,0.02611
6514.36713,0.04020
6516.29560,0.03115
6518.22407,0.01811
6520.15254,0.00881
6522.08101,0.01354
6524.00947,0.05226
6525.93794,0.07671
6527.86641,0.03593
6529.79488,-0.00431
6531.72335,0.02214
6533.65182,0.06191
6535.58029,0.07503
6537.50875,0.07163
6539.43722,0.02921
6541.36569,0.01249
6543.29416,0.05821
6545.22263,0.06988
6547.15110,0.03438
6549.07957,0.00462
6551.00804,0.01516
6552.93650,0.05319
6554.86497,0.07381
6556.79344,0.05805
6558.72191,0.02839
6560.65038,0.02647
6562.57885,0.04925
6564.50732,0.07091
6566.43578,0.07406
6568.36425,0.05310
6570.29272,0.03332
6572.22119,0.04673
6574.14966,0.09789
6576.07813,0.13117
6578.00660,0.08357
6579.93507,0.00851
6581.86353,-0.00849
6583.79200,0.00513
6585.72047,0.00115
6587.64894,0.00122
6589.57741,0.03485
6591.50588,0.05705
6593.43435,0.01466
6595.36281,-0.02162
6597.29128,-0.00424
6599.21975,0.01713
6601.14822,0.03282
6603.07669,0.05299
6605.00516,0.05547
6606.93363,0.02628
6608.86210,0.00025
6610.79056,0.01920
6612.71903,0.03341
6614.64750,-0.02269
6616.57597,-0.03735
6618.50444,0.02949
6620.43291,0.05227
6622.36138,0.01128
6624.28984,-0.02041
6626.21831,-0.00479
6628.14678,0.00439
6630.07525,-0.00221
6632.00372,0.04992
6633.93219,0.12489
6635.86066,0.17883
6637.78912,0.20778
6639.71759,0.17350
6641.64606,0.08382
6643.57453,0.00077
6645.50300,-0.05125
6647.43147,-0.07515
6649.35994,-0.09761
6651.28841,-0.12653
6653.21687,-0.09997
6655.14534,-0.02062
6657.07381,0.03607
6659.00228,0.09060
6660.93075,0.16016
6662.85922,0.17300
6664.78769,0.12884
6666.71615,0.09043
6668.64462,0.07501
6670.57309,0.04027
6672.50156,-0.01232
6674.43003,-0.04597
6676.35850,-0.06601
6678.28697,-0.06769
6680.21544,-0.04833
6682.14390,-0.01383
6684.07237,0.02770
6686.00084,0.04043
6687.92931,0.01336
6689.85778,-0.01874
6691.78625,-0.01117
6693.71472,0.00987
6695.64318,-0.01317
6697.57165,-0.04639
6699.50012,-0.03597
6701.42859,0.01046
6703.35706,0.09062
6705.28553,0.12726
6707.21400,0.05173
6709.14247,-0.03673
6711.07093,-0.03756
6712.99940,0.00531
6714.92787,0.03487
6716.85634,0.05063
6718.78481,0.05707
6720.71328,0.07733
6722.64175,0.12088
6724.57021,0.11209
6726.49868,0.06882
6728.42715,0.07960
6730.35562,0.11021
6732.28409,0.08930
6734.21256,0.02062
6736.14103,-0.03706
6738.06950,-0.00396
6739.99796,0.07824
6741.92643,0.09863
6743.85490,0.08250
6745.78337,0.08572
6747.71184,0.07861
6749.64031,0.05498
6751.56878,0.05773
6753.49724,0.07514
6755.42571,0.04501
6757.35418,-0.02197
6759.28265,-0.08272
6761.21112,-0.09817
6763.13959,-0.02938
6765.06806,0.07265
6766.99653,0.09687
6768.92499,0.04431
6770.85346,0.02082
6772.78193,0.06750
6774.71040,0.12766
6776.63887,0.11607
6778.56734,0.04121
6780.49581,-0.01933
6782.42427,-0.03182
6784.35274,-0.04030
6786.28121,-0.05473
6788.20968,-0.00335
6790.13815,0.07684
6792.06662,0.05147
6793.99509,-0.04437
6795.92355,-0.07330
6797.85202,-0.02091
6799.78049,0.01117
6801.70896,-0.01914
6803.63743,-0.02686
6805.56590,0.02432
6807.49437,0.04574
6809.42284,0.01536
6811.35130,-0.00293
6813.27977,0.00416
6815.20824,-0.00040
6817.13671,-0.00017
6819.06518,0.01090
6820.99365,0.00838
6822.92212,-0.01145
6824.85058,-0.03821
6826.77905,-0.07411
6828.70752,-0.11166
6830.63599,-0.09312
6832.56446,-0.00437
6834.49293,0.07259
6836.42140,0.06601
6838.34987,0.02764
6840.27833,0.02526
6842.20680,0.02165
6844.13527,-0.01354
6846.06374,-0.05067
6847.99221,-0.03739
6849.92068,0.03595
6851.84915,0.07643
6853.77761,0.04411
6855.70608,-0.01430
6857.63455,-0.04590
6859.56302,-0.06811
6861.49149,-0.06576
6863.41996,-0.02757
6865.34843,0.01634
6867.27690,0.05524
6869.20536,0.05416
6871.13383,0.01844
6873.06230,-0.01202
6874.99077,-0.03361
6876.91924,-0.04025
6878.84771,-0.00199
6880.77618,0.06389
6882.70464,0.08944
6884.63311,0.06354
6886.56158,0.01164
6888.49005,-0.01110
6890.41852,0.03372
6892.34699,0.07761
6894.27546,0.07490
6896.20393,0.08064
6898.13239,0.08461
6900.06086,0.04137
6901.98933,0.02103
6903.91780,0.08061
6905.84627,0.13716
6907.77474,0.11779
6909.70321,0.10092
6911.63167,0.11909
6913.56014,0.10713
6915.48861,0.07095
6917.41708,0.02275
6919.34555,-0.06344
6921.27402,-0.07931
6923.20249,0.02764
6925.13096,0.13493
6927.05942,0.15204
6928.98789,0.10447
6930.91636,0.03554
6932.84483,-0.03839
6934.77330,-0.06216
6936.70177,-0.07263
6938.63024,-0.11791
6940.55870,-0.09190
6942.48717,0.03652
6944.41564,0.09973
6946.34411,0.08878
6948.27258,0.10784
6950.20105,0.12718
6952.12952,0.10089
6954.05799,0.07524
6955.98645,0.09942
6957.91492,0.17541
6959.84339,0.22049
6961.77186,0.18252
6963.70033,0.15091
6965.62880,0.16379
6967.55727,0.17330
6969.48573,0.17370
6971.41420,0.14719
6973.34267,0.09225
6975.27114,0.06054
6977.19961,0.01476
6979.12808,-0.05794
6981.05655,-0.12769
6982.98501,-0.18455
6984.91348,-0.15153
6986.84195,-0.01203
6988.77042,0.11653
6990.69889,0.15585
6992.62736,0.13040
6994.55583,0.10021
6996.48430,0.08886
6998.41276,0.07812
7000.34123,0.07869
7002.26970,0.08581
7004.19817,0.07695
7006.12664,0.08592
7008.05511,0.09974
7009.98358,0.05399
7011.91204,-0.01326
7013.84051,-0.03550
7015.76898,-0.00621
7017.69745,0.03786
7019.62592,0.03021
7021.55439,-0.02494
7023.48286,-0.06126
7025.41133,-0.06087
7027.33979,0.02488
7029.26826,0.15329
7031.19673,0.13349
7033.12520,0.02424
7035.05367,-0.02467
7036.98214,-0.01358
7038.91061,0.01694
7040.83907,0.07523
7042.76754,0.11511
7044.69601,0.05934
7046.62448,0.01329
7048.55295,0.02770
7050.48142,0.00533
7052.40989,-0.04262
7054.33836,-0.05033
7056.26682,-0.00919
7058.19529,0.03925
7060.12376,0.06475
7062.05223,0.10188
7063.98070,0.13227
7065.90917,0.10391
7067.83764,0.06558
7069.76610,0.03995
7071.69457,-0.01939
7073.62304,-0.05365
7075.55151,-0.03983
7077.47998,-0.01567
7079.40845,0.02710
7081.33692,0.08101
7083.26539,0.10321
7085.19385,0.10599
7087.12232,0.10945
7089.05079,0.08803
7090.97926,0.05770
7092.90773,0.06510
7094.83620,0.12697
7096.76467,0.21349
7098.69313,0.21701
7100.62160,0.11259
7102.55007,0.01546
7104.47854,-0.02429
7106.40701,-0.01594
7108.33548,0.03804
7110.26395,0.12304
7112.19242,0.17283
7114.12088,0.08088
7116.04935,-0.13148
7117.97782,-0.21615
7119.90629,-0.10878
7121.83476,-0.05693
7123.76323,-0.06187
7125.69170,-0.03879
7127.62016,-0.03737
7129.54863,-0.12623
7131.47710,-0.20559
7133.40557,-0.14901
7135.33404,-0.01927
7137.26251,0.07419
7139.19098,0.13579
7141.11944,0.19604
7143.04791,0.21202
7144.97638,0.15679
7146.90485,0.10939
7148.83332,0.09160
7150.76179,0.08467
7152.69026,0.10490
7154.61873,0.10842
7156.54719,0.06667
7158.47566,0.03353
7160.40413,0.05907
7162.33260,0.10620
7164.26107,0.07717
7166.18954,-0.00179
7168.11801,-0.02605
7170.04647,0.01736
7171.97494,0.07973
7173.90341,0.12954
7175.83188,0.14110
7177.76035,0.09979
7179.68882,0.04031
7181.61729,-0.00432
7183.54576,0.01679
7185.47422,0.08451
7187.40269,0.10312
7189.33116,0.07064
7191.25963,0.07756
7193.18810,0.11525
7195.11657,0.07446
7197.04504,0.02511
7198.97350,0.02056
7200.90197,0.00632
7202.83044,-0.01547
7204.75891,-0.03180
7206.68738,-0.06842
7208.61585,-0.07413
7210.54432,-0.04354
7212.47279,-0.03089
7214.40125,-0.02036
7216.32972,0.02358
7218.25819,0.05974
7220.18666,0.03576
7222.11513,-0.00074
7224.04360,0.00945
7225.97207,0.07477
7227.90053,0.09807
7229.82900,0.03773
7231.75747,-0.03454
7233.68594,-0.08252
7235.61441,-0.06513
7237.54288,0.01651
7239.47135,0.04096
7241.39982,-0.00386
7243.32828,-0.03687
7245.25675,-0.04251
7247.18522,-0.01183
7249.11369,0.04020
7251.04216,0.06003
7252.97063,0.09367
7254.89910,0.18479
7256.82756,0.21988
7258.75603,0.14607
7260.68450,0.02576
7262.61297,0.01461
7264.54144,0.03953
7266.46991,0.00244
7268.39838,0.00229
7270.32685,0.04064
7272.25531,-0.00267
7274.18378,-0.05213
7276.11225,0.00267
7278.04072,0.04482
7279.96919,-0.04266
7281.89766,-0.14747
7283.82613,-0.14710
7285.75459,-0.14743
7287.68306,-0.18279
7289.61153,-0.13180
7291.54000,0.06953
7293.46847,0.22469
7295.39694,0.15712
7297.32541,-0.00580
7299.25387,-0.07712
7301.18234,-0.04003
7303.11081,0.05451
7305.03928,0.11293
7306.96775,0.08372
7308.89622,0.06576
7310.82469,0.10768
7312.75316,0.10840
7314.68162,0.10321
7316.61009,0.11990
7318.53856,0.07002
7320.46703,0.01525
7322.39550,0.02201
7324.32397,0.02322
7326.25244,-0.02842
7328.18090,-0.06315
7330.10937,0.02173
7332.03784,0.11616
7333.96631,0.12745
7335.89478,0.07745
7337.82325,-0.01678
7339.75172,-0.06203
7341.68019,-0.00595
7343.60865,0.00719
7345.53712,-0.01337
7347.46559,-0.01724
7349.39406,0.04458
7351.32253,0.18793
7353.25100,0.31857
7355.17947,0.35701
7357.10793,0.26154
7359.03640,0.03673
7360.96487,-0.05718
7362.89334,0.09590
7364.82181,0.17342
7366.75028,0.06786
7368.67875,0.01533
7370.60722,0.06966
7372.53568,0.14353
7374.46415,0.22199
7376.39262,0.29738
7378.32109,0.37835
7380.24956,0.42755
7382.17803,0.37711
7384.10650,0.22910
7386.03496,0.02316
7387.96343,-0.16331
7389.89190,-0.26027
7391.82037,-0.24619
7393.74884,-0.12703
7395.67731,-0.03488
7397.60578,-0.05301
7399.53425,-0.08067
7401.46271,-0.07055
7403.39118,-0.03472
7405.31965,0.01332
7407.24812,0.02497
7409.17659,0.05363
7411.10506,0.14712
7413.03353,0.17425
7414.96199,0.05797
7416.89046,-0.09809
7418.81893,-0.13586
7420.74740,-0.08293
7422.67587,-0.07061
7424.60434,-0.05917
7426.53281,-0.04008
7428.46128,-0.05229
7430.38974,-0.03838
7432.31821,0.09589
7434.24668,0.24506
7436.17515,0.24104
7438.10362,0.07867
7440.03209,-0.11784
7441.96056,-0.20305
7443.88902,-0.12106
7445.81749,0.02923
7447.74596,0.11760
7449.67443,0.12001
7451.60290,0.03795
7453.53137,-0.08197
7455.45984,-0.14043
7457.38831,-0.12925
7459.31677,-0.04031
7461.24524,0.03284
7463.17371,0.03165
7465.10218,0.03765
7467.03065,0.04027
7468.95912,0.04071
7470.88759,0.02119
7472.81605,0.02181
7474.74452,0.09897
7476.67299,0.15203
7478.60146,0.04655
7480.52993,-0.10617
7482.45840,-0.13057
7484.38687,-0.13360
7486.31533,-0.15038
7488.24380,-0.07042
7490.17227,0.07514
7492.10074,0.09494
7494.02921,0.02070
7495.95768,0.03660
7497.88615,0.12859
