399.19301,0.31095
401.12148,0.32392
403.04995,0.37240
404.97842,0.33612
406.90689,0.24473
408.83536,0.12267
410.76382,0.00199
412.69229,-0.03625
414.62076,-0.00589
416.54923,0.02321
418.47770,0.08974
420.40617,0.14955
422.33464,0.08689
424.26311,-0.03091
426.19157,-0.07766
428.12004,0.02353
430.04851,0.21974
431.97698,0.32032
433.90545,0.22519
435.83392,0.08610
437.76239,0.03087
439.69085,0.02670
441.61932,0.02456
443.54779,0.03549
445.47626,-0.00140
447.40473,-0.08361
449.33320,-0.09747
451.26167,-0.02618
453.19013,0.03598
455.11860,0.03951
457.04707,0.02175
458.97554,0.02660
460.90401,0.05201
462.83248,0.05244
464.76095,0.02382
466.68942,0.01353
468.61788,0.02398
470.54635,0.02361
472.47482,-0.05825
474.40329,-0.12581
476.33176,0.01391
478.26023,0.11654
480.18870,0.11995
482.11716,0.08991
484.04563,0.05163
485.97410,0.03156
487.90257,0.05326
489.83104,0.07639
491.75951,0.06099
493.68798,0.02385
495.61645,0.00530
497.54491,0.03135
499.47338,0.08004
501.40185,0.11051
503.33032,0.11010
505.25879,0.09305
507.18726,0.05917
509.11573,0.03717
511.04419,0.06836
512.97266,0.10048
514.90113,0.07641
516.82960,0.04628
518.75807,0.06644
520.68654,0.09382
522.61501,0.08727
524.54348,0.06899
526.47194,0.06219
528.40041,0.04766
530.32888,0.02301
532.25735,0.01323
534.18582,0.01604
536.11429,0.01483
538.04276,0.02069
539.97122,0.02896
541.89969,0.02045
543.82816,0.00716
545.75663,0.01529
547.68510,0.03223
549.61357,0.02676
551.54204,0.01138
553.47051,0.00698
555.39897,0.01392
557.32744,0.02765
559.25591,0.03359
561.18438,0.02889
563.11285,0.01704
565.04132,0.00784
566.96979,0.02620
568.89825,0.04797
570.82672,0.05304
572.75519,0.06737
574.68366,0.06549
576.61213,0.03453
578.54060,0.02090
580.46907,0.02841
582.39754,0.03759
584.32600,0.05284
586.25447,0.06578
588.18294,0.05242
590.11141,0.03248
592.03988,0.04319
593.96835,0.07253
595.89682,0.08496
597.82528,0.07366
599.75375,0.05398
601.68222,0.03734
603.61069,0.03027
605.53916,0.03415
607.46763,0.04648
609.39610,0.05578
611.32456,0.05284
613.25303,0.05182
615.18150,0.05051
617.10997,0.03242
619.03844,0.01595
620.96691,0.01433
622.89538,0.01184
624.82385,0.00735
626.75231,0.01253
628.68078,0.02124
630.60925,0.00695
632.53772,-0.02008
634.46619,-0.01074
636.39466,0.02696
638.32313,0.05295
640.25159,0.05616
642.18006,0.04629
644.10853,0.03665
646.03700,0.02938
647.96547,0.02938
649.89394,0.03859
651.82241,0.04230
653.75088,0.03534
655.67934,0.03023
657.60781,0.03396
659.53628,0.04155
661.46475,0.04439
663.39322,0.04121
665.32169,0.05037
667.25016,0.08020
669.17862,0.08725
671.10709,0.06755
673.03556,0.05970
674.96403,0.05261
676.89250,0.04220
678.82097,0.04185
680.74944,0.05161
682.67791,0.06051
684.60637,0.06246
686.53484,0.05758
688.46331,0.04930
690.39178,0.04181
692.32025,0.03963
694.24872,0.03651
696.17719,0.02613
698.10565,0.02083
700.03412,0.02903
701.96259,0.04087
703.89106,0.04957
705.81953,0.05438
707.74800,0.05103
709.67647,0.04721
711.60494,0.05091
713.53340,0.04889
715.46187,0.03944
717.39034,0.03761
719.31881,0.03990
721.24728,0.03437
723.17575,0.02406
725.10422,0.01928
727.03268,0.02247
728.96115,0.02481
730.88962,0.02169
732.81809,0.02510
734.74656,0.04170
736.67503,0.05857
738.60350,0.06481
740.53197,0.06072
742.46043,0.04875
744.38890,0.03152
746.31737,0.02182
748.24584,0.02999
750.17431,0.04254
752.10278,0.04442
754.03125,0.04067
755.95971,0.04060
757.88818,0.04359
759.81665,0.04205
761.74512,0.03598
763.67359,0.03471
765.60206,0.03629
767.53053,0.03169
769.45900,0.02541
771.38746,0.02447
773.31593,0.02500
775.24440,0.02337
777.17287,0.02427
779.10134,0.02919
781.02981,0.03310
782.95828,0.03283
784.88674,0.02889
786.81521,0.02893
788.74368,0.03787
790.67215,0.04457
792.60062,0.04418
794.52909,0.04741
796.45756,0.05218
798.38602,0.04798
800.31449,0.04361
802.24296,0.04797
804.17143,0.05011
806.09990,0.04758
808.02837,0.05054
809.95684,0.05539
811.88531,0.05542
813.81377,0.05372
815.74224,0.05101
817.67071,0.04775
819.59918,0.04637
821.52765,0.04148
823.45612,0.03498
825.38459,0.03550
827.31305,0.03934
829.24152,0.04288
831.16999,0.04226
833.09846,0.03914
835.02693,0.04508
836.95540,0.05433
838.88387,0.05561
840.81234,0.05184
842.74080,0.04647
844.66927,0.03984
846.59774,0.03884
848.52621,0.04356
850.45468,0.04372
852.38315,0.04162
854.31162,0.04268
856.24008,0.04643
858.16855,0.05341
860.09702,0.05807
862.02549,0.05337
863.95396,0.04491
865.88243,0.03899
867.81090,0.03046
869.73937,0.02359
871.66783,0.02634
873.59630,0.03206
875.52477,0.03733
877.45324,0.04269
879.38171,0.04240
881.31018,0.03834
883.23865,0.03982
885.16711,0.04744
887.09558,0.05420
889.02405,0.05446
890.95252,0.05226
892.88099,0.05148
894.80946,0.04622
896.73793,0.03952
898.66640,0.04000
900.59486,0.04607
902.52333,0.05216
904.45180,0.05108
906.38027,0.04385
908.30874,0.04357
910.23721,0.05165
912.16568,0.05678
914.09414,0.05541
916.02261,0.05024
917.95108,0.04632
919.87955,0.04624
921.80802,0.04709
923.73649,0.05046
925.66496,0.05442
927.59343,0.05238
929.52189,0.04692
931.45036,0.04318
933.37883,0.04114
935.30730,0.03890
937.23577,0.03861
939.16424,0.04031
941.09271,0.04032
943.02117,0.04377
944.94964,0.04900
946.87811,0.04683
948.80658,0.04519
950.73505,0.04693
952.66352,0.04175
954.59199,0.03656
956.52045,0.04120
958.44892,0.05010
960.37739,0.05749
962.30586,0.05763
964.23433,0.04913
966.16280,0.03971
968.09127,0.03762
970.01974,0.04459
971.94820,0.05111
973.87667,0.04956
975.80514,0.04271
977.73361,0.03809
979.66208,0.04159
981.59055,0.04818
983.51902,0.05195
985.44748,0.05402
987.37595,0.05421
989.30442,0.05333
991.23289,0.05325
993.16136,0.05521
995.08983,0.05863
997.01830,0.05688
998.94677,0.05283
1000.87523,0.05738
1002.80370,0.06500
1004.73217,0.06637
1006.66064,0.06002
1008.58911,0.04532
1010.51758,0.03514
1012.44605,0.04063
1014.37451,0.05141
1016.30298,0.06041
1018.23145,0.06786
1020.15992,0.06813
1022.08839,0.05820
1024.01686,0.04828
1025.94533,0.04823
1027.87380,0.04762
1029.80226,0.03895
1031.73073,0.03495
1033.65920,0.04092
1035.58767,0.04770
1037.51614,0.04807
1039.44461,0.04410
1041.37308,0.04284
1043.30154,0.04474
1045.23001,0.04300
1047.15848,0.03758
1049.08695,0.03726
1051.01542,0.04354
1052.94389,0.04835
1054.87236,0.04632
1056.80083,0.04099
1058.72929,0.03741
1060.65776,0.03519
1062.58623,0.03760
1064.51470,0.04832
1066.44317,0.06069
1068.37164,0.06780
1070.30011,0.06605
1072.22857,0.05674
1074.15704,0.04936
1076.08551,0.04818
1078.01398,0.05236
1079.94245,0.05863
1081.87092,0.05883
1083.79939,0.05417
1085.72786,0.05127
1087.65632,0.05220
1089.58479,0.05728
1091.51326,0.05956
1093.44173,0.05580
1095.37020,0.05239
1097.29867,0.05001
1099.22714,0.04820
1101.15560,0.04948
1103.08407,0.05026
1105.01254,0.04787
1106.94101,0.04778
1108.86948,0.05428
1110.79795,0.05968
1112.72642,0.05571
1114.65489,0.05161
1116.58335,0.05347
1118.51182,0.05188
1120.44029,0.04658
1122.36876,0.04592
1124.29723,0.05041
1126.22570,0.05604
1128.15417,0.05815
1130.08263,0.05478
1132.01110,0.05226
1133.93957,0.05264
1135.86804,0.04895
1137.79651,0.04339
1139.72498,0.04746
1141.65345,0.05999
1143.58191,0.06463
1145.51038,0.05627
1147.43885,0.05010
1149.36732,0.05283
1151.29579,0.05347
1153.22426,0.05097
1155.15273,0.05410
1157.08120,0.05833
1159.00966,0.05605
1160.93813,0.05119
1162.86660,0.04961
1164.79507,0.05293
1166.72354,0.05584
1168.65201,0.05134
1170.58048,0.04721
1172.50894,0.05166
1174.43741,0.05463
1176.36588,0.05159
1178.29435,0.05251
1180.22282,0.05706
1182.15129,0.05487
1184.07976,0.04831
1186.00823,0.04759
1187.93669,0.04959
1189.86516,0.04767
1191.79363,0.04709
1193.72210,0.05049
1195.65057,0.05241
1197.57904,0.05240
1199.50751,0.05286
1201.43597,0.05561
1203.36444,0.06047
1205.29291,0.06164
1207.22138,0.05828
1209.14985,0.05584
1211.07832,0.05582
1213.00679,0.05625
1214.93526,0.05656
1216.86372,0.05661
1218.79219,0.05518
1220.72066,0.05371
1222.64913,0.05426
1224.57760,0.05549
1226.50607,0.05581
1228.43454,0.05588
1230.36300,0.05565
1232.29147,0.05448
1234.21994,0.05355
1236.14841,0.05310
1238.07688,0.05282
1240.00535,0.05255
1241.93382,0.05268
1243.86229,0.05406
1245.79075,0.05449
1247.71922,0.05268
1249.64769,0.04993
1251.57616,0.04594
1253.50463,0.04282
1255.43310,0.04527
1257.36157,0.05094
1259.29003,0.05297
1261.21850,0.05122
1263.14697,0.05036
1265.07544,0.05109
1267.00391,0.05122
1268.93238,0.05175
1270.86085,0.05492
1272.78932,0.05952
1274.71778,0.06317
1276.64625,0.06382
1278.57472,0.06128
1280.50319,0.05841
1282.43166,0.05690
1284.36013,0.05670
1286.28860,0.05670
1288.21706,0.05518
1290.14553,0.05370
1292.07400,0.05438
1294.00247,0.05534
1295.93094,0.05356
1297.85941,0.04987
1299.78788,0.04625
1301.71634,0.04282
1303.64481,0.04162
1305.57328,0.04501
1307.50175,0.05131
1309.43022,0.05594
1311.35869,0.05739
1313.28716,0.05802
1315.21563,0.05833
1317.14409,0.05744
1319.07256,0.05534
1321.00103,0.05383
1322.92950,0.05375
1324.85797,0.05284
1326.78644,0.05149
1328.71491,0.05232
1330.64337,0.05455
1332.57184,0.05598
1334.50031,0.05615
1336.42878,0.05670
1338.35725,0.05899
1340.28572,0.05910
1342.21419,0.05681
1344.14266,0.05669
1346.07112,0.05599
1347.99959,0.05481
1349.92806,0.05721
1351.85653,0.05861
1353.78500,0.05687
1355.71347,0.05734
1357.64194,0.05861
1359.57040,0.05701
1361.49887,0.05537
1363.42734,0.05553
1365.35581,0.05661
1367.28428,0.05899
1369.21275,0.06146
1371.14122,0.06222
1373.06969,0.06009
1374.99815,0.05535
1376.92662,0.05352
1378.85509,0.05659
1380.78356,0.06037
1382.71203,0.06193
1384.64050,0.06292
1386.56897,0.06521
1388.49743,0.06452
1390.42590,0.06042
1392.35437,0.05912
1394.28284,0.06149
1396.21131,0.06544
1398.13978,0.06791
1400.06825,0.06536
1401.99672,0.06148
1403.92518,0.06016
1405.85365,0.05914
1407.78212,0.05782
1409.71059,0.05860
1411.63906,0.05948
1413.56753,0.05898
1415.49600,0.06170
1417.42446,0.06930
1419.35293,0.07307
1421.28140,0.06867
1423.20987,0.06396
1425.13834,0.06162
1427.06681,0.06275
1428.99528,0.06465
1430.92375,0.06290
1432.85221,0.06253
1434.78068,0.06937
1436.70915,0.07489
1438.63762,0.06763
1440.56609,0.05910
1442.49456,0.05574
1444.42303,0.05606
1446.35149,0.05823
1448.27996,0.05864
1450.20843,0.05699
1452.13690,0.05825
1454.06537,0.06498
1455.99384,0.07676
1457.92231,0.08064
1459.85077,0.07024
1461.77924,0.06321
1463.70771,0.06331
1465.63618,0.06832
1467.56465,0.07221
1469.49312,0.07412
1471.42159,0.07535
1473.35006,0.07261
1475.27852,0.06639
1477.20699,0.06170
1479.13546,0.05983
1481.06393,0.06005
1482.99240,0.05909
1484.92087,0.05847
1486.84934,0.06376
1488.77780,0.07154
1490.70627,0.06987
1492.63474,0.06565
1494.56321,0.06765
1496.49168,0.07175
1498.42015,0.07350
1500.34862,0.07966
1502.27709,0.09040
1504.20555,0.09974
1506.13402,0.10175
1508.06249,0.08677
1509.99096,0.07330
1511.91943,0.06974
1513.84790,0.07228
1515.77637,0.07507
1517.70483,0.07513
1519.63330,0.07765
1521.56177,0.08152
1523.49024,0.07741
1525.41871,0.07230
1527.34718,0.07160
1529.27565,0.07149
1531.20412,0.07021
1533.13258,0.06926
1535.06105,0.07092
1536.98952,0.07536
1538.91799,0.08334
1540.84646,0.09344
1542.77493,0.09496
1544.70340,0.08674
1546.63186,0.07621
1548.56033,0.07100
1550.48880,0.07167
1552.41727,0.07482
1554.34574,0.07670
1556.27421,0.07668
1558.20268,0.07760
1560.13115,0.07306
1562.05961,0.06772
1563.98808,0.06660
1565.91655,0.06739
1567.84502,0.06955
1569.77349,0.06996
1571.70196,0.06633
1573.63043,0.06507
1575.55889,0.06707
1577.48736,0.06698
1579.41583,0.06456
1581.34430,0.06142
1583.27277,0.05789
1585.20124,0.05697
1587.12971,0.05864
1589.05818,0.05957
1590.98664,0.06022
1592.91511,0.06285
1594.84358,0.06577
1596.77205,0.06624
1598.70052,0.06584
1600.62899,0.06501
1602.55746,0.06237
1604.48592,0.06134
1606.41439,0.06305
1608.34286,0.06411
1610.27133,0.06459
1612.19980,0.06512
1614.12827,0.06598
1616.05674,0.06906
1617.98521,0.07157
1619.91367,0.07171
1621.84214,0.07218
1623.77061,0.07128
1625.69908,0.07015
1627.62755,0.07011
1629.55602,0.06671
1631.48449,0.06193
1633.41295,0.06220
1635.34142,0.07041
1637.26989,0.07642
1639.19836,0.07398
1641.12683,0.07164
1643.05530,0.07374
1644.98377,0.07994
1646.91223,0.08369
1648.84070,0.07877
1650.76917,0.07556
1652.69764,0.08276
1654.62611,0.08865
1656.55458,0.08237
1658.48305,0.07731
1660.41152,0.07625
1662.33998,0.07485
1664.26845,0.06961
1666.19692,0.06815
1668.12539,0.07538
1670.05386,0.08308
1671.98233,0.07917
1673.91080,0.07285
1675.83926,0.07002
1677.76773,0.06936
1679.69620,0.07156
1681.62467,0.07823
1683.55314,0.08665
1685.48161,0.08479
1687.41008,0.07672
1689.33855,0.06912
1691.26701,0.06363
1693.19548,0.06463
1695.12395,0.07392
1697.05242,0.08631
1698.98089,0.08736
1700.90936,0.07431
1702.83783,0.06767
1704.76629,0.07063
1706.69476,0.07222
1708.62323,0.06865
1710.55170,0.06455
1712.48017,0.06441
1714.40864,0.06935
1716.33711,0.07409
1718.26558,0.07166
1720.19404,0.06707
1722.12251,0.06366
1724.05098,0.06101
1725.97945,0.06157
1727.90792,0.06567
1729.83639,0.07041
1731.76486,0.07478
1733.69332,0.07820
1735.62179,0.07558
1737.55026,0.07119
1739.47873,0.06984
1741.40720,0.07067
1743.33567,0.07067
1745.26414,0.06976
1747.19261,0.07050
1749.12107,0.07308
1751.04954,0.07255
1752.97801,0.06913
1754.90648,0.06780
1756.83495,0.06884
1758.76342,0.06971
1760.69189,0.06905
1762.62035,0.06584
1764.54882,0.06252
1766.47729,0.06352
1768.40576,0.06880
1770.33423,0.07484
1772.26270,0.07667
1774.19117,0.07256
1776.11964,0.07011
1778.04810,0.07162
1779.97657,0.07258
1781.90504,0.07044
1783.83351,0.06830
1785.76198,0.06708
1787.69045,0.06621
1789.61892,0.06689
1791.54738,0.06853
1793.47585,0.06954
1795.40432,0.07114
1797.33279,0.07305
1799.26126,0.07354
1801.18973,0.07122
1803.11820,0.06636
1805.04666,0.06184
1806.97513,0.06051
1808.90360,0.06399
1810.83207,0.06845
1812.76054,0.06843
1814.68901,0.06826
1816.61748,0.06964
1818.54595,0.06733
1820.47441,0.06436
1822.40288,0.06728
1824.33135,0.07283
1826.25982,0.07460
1828.18829,0.07400
1830.11676,0.07329
1832.04523,0.07152
1833.97369,0.06964
1835.90216,0.06788
1837.83063,0.06484
1839.75910,0.06235
1841.68757,0.06453
1843.61604,0.07052
1845.54451,0.07229
1847.47298,0.06891
1849.40144,0.06584
1851.32991,0.06460
1853.25838,0.06504
1855.18685,0.06624
1857.11532,0.06696
1859.04379,0.06646
1860.97226,0.06587
1862.90072,0.06725
1864.82919,0.07038
1866.75766,0.07396
1868.68613,0.07505
1870.61460,0.07062
1872.54307,0.06510
1874.47154,0.06296
1876.40001,0.06411
1878.32847,0.06561
1880.25694,0.06598
1882.18541,0.06691
1884.11388,0.06852
1886.04235,0.06853
1887.97082,0.06730
1889.89929,0.06666
1891.82775,0.06666
1893.75622,0.06759
1895.68469,0.06906
1897.61316,0.06870
1899.54163,0.06680
1901.47010,0.06549
1903.39857,0.06460
1905.32704,0.06366
1907.25550,0.06417
1909.18397,0.06650
1911.11244,0.06758
1913.04091,0.06626
1914.96938,0.06666
1916.89785,0.07033
1918.82632,0.07250
1920.75478,0.07065
1922.68325,0.06723
1924.61172,0.06433
1926.54019,0.06284
1928.46866,0.06206
1930.39713,0.06195
1932.32560,0.06379
1934.25407,0.06650
1936.18253,0.06769
1938.11100,0.06791
1940.03947,0.06941
1941.96794,0.07169
1943.89641,0.07123
1945.82488,0.06778
1947.75335,0.06474
1949.68181,0.06414
1951.61028,0.06564
1953.53875,0.06772
1955.46722,0.06871
1957.39569,0.06773
1959.32416,0.06635
1961.25263,0.06643
1963.18110,0.06644
1965.10956,0.06552
1967.03803,0.06442
1968.96650,0.06228
1970.89497,0.06063
1972.82344,0.06109
1974.75191,0.06272
1976.68038,0.06616
1978.60884,0.06884
1980.53731,0.06761
1982.46578,0.06709
1984.39425,0.06932
1986.32272,0.07005
1988.25119,0.06852
1990.17966,0.06715
1992.10812,0.06700
1994.03659,0.06749
1995.96506,0.06842
1997.89353,0.06903
1999.82200,0.06739
2001.75047,0.06573
2003.67894,0.06651
2005.60741,0.06754
2007.53587,0.06859
2009.46434,0.07013
2011.39281,0.07060
2013.32128,0.07047
2015.24975,0.07031
2017.17822,0.06958
2019.10669,0.06838
2021.03515,0.06662
2022.96362,0.06546
2024.89209,0.06660
2026.82056,0.06841
2028.74903,0.06908
2030.67750,0.06930
2032.60597,0.06886
2034.53444,0.06754
2036.46290,0.06697
2038.39137,0.06718
2040.31984,0.06649
2042.24831,0.06557
2044.17678,0.06630
2046.10525,0.06751
2048.03372,0.06752
2049.96218,0.06777
2051.89065,0.06792
2053.81912,0.06557
2055.74759,0.06287
2057.67606,0.06273
2059.60453,0.06450
2061.53300,0.06669
2063.46147,0.06782
2065.38993,0.06790
2067.31840,0.06747
2069.24687,0.06632
2071.17534,0.06617
2073.10381,0.06765
2075.03228,0.06869
2076.96075,0.06888
2078.88921,0.06850
2080.81768,0.06715
2082.74615,0.06580
2084.67462,0.06578
2086.60309,0.06720
2088.53156,0.06888
2090.46003,0.06905
2092.38850,0.06793
2094.31696,0.06852
2096.24543,0.07126
2098.17390,0.07257
2100.10237,0.07158
2102.03084,0.06950
2103.95931,0.06664
2105.88778,0.06560
2107.81624,0.06816
2109.74471,0.07079
2111.67318,0.07052
2113.60165,0.06891
2115.53012,0.06760
2117.45859,0.06743
2119.38706,0.06840
2121.31553,0.06800
2123.24399,0.06547
2125.17246,0.06313
2127.10093,0.06321
2129.02940,0.06525
2130.95787,0.06686
2132.88634,0.06879
2134.81481,0.07219
2136.74327,0.07421
2138.67174,0.07209
2140.60021,0.06801
2142.52868,0.06621
2144.45715,0.06627
2146.38562,0.06608
2148.31409,0.06636
2150.24255,0.06711
2152.17102,0.06770
2154.09949,0.06883
2156.02796,0.06980
2157.95643,0.06909
2159.88490,0.06869
2161.81337,0.06964
2163.74184,0.06855
2165.67030,0.06565
2167.59877,0.06441
2169.52724,0.06421
2171.45571,0.06394
2173.38418,0.06537
2175.31265,0.06876
2177.24112,0.07141
2179.16958,0.07122
2181.09805,0.06927
2183.02652,0.06770
2184.95499,0.06715
2186.88346,0.06714
2188.81193,0.06703
2190.74040,0.06674
2192.66887,0.06616
2194.59733,0.06592
2196.52580,0.06757
2198.45427,0.06994
2200.38274,0.07064
2202.31121,0.06942
2204.23968,0.06700
2206.16815,0.06541
2208.09661,0.06665
2210.02508,0.06886
2211.95355,0.06876
2213.88202,0.06684
2215.81049,0.06524
2217.73896,0.06532
2219.66743,0.06778
2221.59590,0.07093
2223.52436,0.07263
2225.45283,0.07249
2227.38130,0.07149
2229.30977,0.07073
2231.23824,0.07018
2233.16671,0.06919
2235.09518,0.06746
2237.02364,0.06644
2238.95211,0.06758
2240.88058,0.06975
2242.80905,0.07087
2244.73752,0.06986
2246.66599,0.06766
2248.59446,0.06622
2250.52293,0.06619
2252.45139,0.06769
2254.37986,0.07007
2256.30833,0.07082
2258.23680,0.06945
2260.16527,0.06797
2262.09374,0.06778
2264.02221,0.06844
2265.95067,0.06811
2267.87914,0.06702
2269.80761,0.06657
2271.73608,0.06673
2273.66455,0.06662
2275.59302,0.06519
2277.52149,0.06393
2279.44996,0.06507
2281.37842,0.06666
2283.30689,0.06669
2285.23536,0.06753
2287.16383,0.06896
2289.09230,0.06710
2291.02077,0.06356
2292.94924,0.06306
2294.87770,0.06395
2296.80617,0.06349
2298.73464,0.06457
2300.66311,0.06753
2302.59158,0.06877
2304.52005,0.06836
2306.44852,0.06781
2308.37699,0.06596
2310.30545,0.06261
2312.23392,0.05948
2314.16239,0.05744
2316.09086,0.05888
2318.01933,0.06447
2319.94780,0.06949
2321.87627,0.06930
2323.80473,0.06570
2325.73320,0.06547
2327.66167,0.06807
2329.59014,0.06690
2331.51861,0.06054
2333.44708,0.05285
2335.37555,0.05257
2337.30401,0.06113
2339.23248,0.06536
2341.16095,0.06101
2343.08942,0.05711
2345.01789,0.05490
2346.94636,0.05208
2348.87483,0.05196
2350.80330,0.05452
2352.73176,0.05698
2354.66023,0.06039
2356.58870,0.05942
2358.51717,0.04792
2360.44564,0.04248
2362.37411,0.04861
2364.30258,0.05711
2366.23104,0.06344
2368.15951,0.06439
2370.08798,0.06091
2372.01645,0.05971
2373.94492,0.06214
2375.87339,0.06483
2377.80186,0.06719
2379.73033,0.06887
2381.65879,0.06834
2383.58726,0.06564
2385.51573,0.06370
2387.44420,0.06403
2389.37267,0.06493
2391.30114,0.06578
2393.22961,0.06671
2395.15807,0.06690
2397.08654,0.06640
2399.01501,0.06731
2400.94348,0.06942
2402.87195,0.06888
2404.80042,0.06621
2406.72889,0.06558
2408.65736,0.06647
2410.58582,0.06635
2412.51429,0.06591
2414.44276,0.06586
2416.37123,0.06589
2418.29970,0.06685
2420.22817,0.06841
2422.15664,0.06840
2424.08510,0.06757
2426.01357,0.06849
2427.94204,0.06906
2429.87051,0.06681
2431.79898,0.06502
2433.72745,0.06590
2435.65592,0.06706
2437.58439,0.06749
2439.51285,0.06738
2441.44132,0.06597
2443.36979,0.06409
2445.29826,0.06376
2447.22673,0.06526
2449.15520,0.06638
2451.08367,0.06540
2453.01213,0.06490
2454.94060,0.06659
2456.86907,0.06756
2458.79754,0.06744
2460.72601,0.06867
2462.65448,0.07019
2464.58295,0.07027
2466.51142,0.07003
2468.43988,0.06999
2470.36835,0.06995
2472.29682,0.07013
2474.22529,0.06975
2476.15376,0.06906
2478.08223,0.06902
2480.01070,0.06943
2481.93916,0.07028
2483.86763,0.07065
2485.79610,0.06959
2487.72457,0.06808
2489.65304,0.06675
2491.58151,0.06544
2493.50998,0.06392
2495.43844,0.06284
2497.36691,0.06352
2499.29538,0.06521
2501.22385,0.06661
2503.15232,0.06872
2505.08079,0.07049
2507.00926,0.06913
2508.93773,0.06814
2510.86619,0.07045
2512.79466,0.07116
2514.72313,0.06949
2516.65160,0.06951
2518.58007,0.07094
2520.50854,0.07161
2522.43701,0.07102
2524.36547,0.06973
2526.29394,0.06792
2528.22241,0.06723
2530.15088,0.06931
2532.07935,0.07123
2534.00782,0.07057
2535.93629,0.06886
2537.86476,0.06771
2539.79322,0.06786
2541.72169,0.06872
2543.65016,0.06946
2545.57863,0.06994
2547.50710,0.06961
2549.43557,0.06890
2551.36404,0.06838
2553.29250,0.06767
2555.22097,0.06626
2557.14944,0.06529
2559.07791,0.06670
2561.00638,0.06865
2562.93485,0.07003
2564.86332,0.07167
2566.79179,0.07179
2568.72025,0.07100
2570.64872,0.07172
2572.57719,0.07266
2574.50566,0.07126
2576.43413,0.06878
2578.36260,0.06822
2580.29107,0.06932
2582.21953,0.07098
2584.14800,0.07182
2586.07647,0.07140
2588.00494,0.07285
2589.93341,0.07569
2591.86188,0.07498
2593.79035,0.07097
2595.71882,0.06747
2597.64728,0.06662
2599.57575,0.06840
2601.50422,0.06950
2603.43269,0.06943
2605.36116,0.07051
2607.28963,0.07034
2609.21810,0.06829
2611.14656,0.06871
2613.07503,0.07149
2615.00350,0.07161
2616.93197,0.06847
2618.86044,0.06726
2620.78891,0.06952
2622.71738,0.07126
2624.64585,0.07105
2626.57431,0.07042
2628.50278,0.06964
2630.43125,0.06845
2632.35972,0.06783
2634.28819,0.06935
2636.21666,0.07211
2638.14513,0.07272
2640.07359,0.07093
2642.00206,0.06982
2643.93053,0.07017
2645.85900,0.07048
2647.78747,0.07027
2649.71594,0.07114
2651.64441,0.07292
2653.57288,0.07209
2655.50134,0.06911
2657.42981,0.06877
2659.35828,0.07264
2661.28675,0.07652
2663.21522,0.07599
2665.14369,0.07299
2667.07216,0.07113
2669.00062,0.07005
2670.92909,0.06919
2672.85756,0.06999
2674.78603,0.07207
2676.71450,0.07269
2678.64297,0.07187
2680.57144,0.07202
2682.49990,0.07310
2684.42837,0.07303
2686.35684,0.07126
2688.28531,0.06884
2690.21378,0.06733
2692.14225,0.06916
2694.07072,0.07205
2695.99919,0.07198
2697.92765,0.07050
2699.85612,0.06856
2701.78459,0.06654
2703.71306,0.06592
2705.64153,0.06566
2707.57000,0.06542
2709.49847,0.06604
2711.42693,0.06821
2713.35540,0.07041
2715.28387,0.07050
2717.21234,0.06990
2719.14081,0.06971
2721.06928,0.06954
2722.99775,0.07036
2724.92622,0.07167
2726.85468,0.07064
2728.78315,0.06887
2730.71162,0.06908
2732.64009,0.06911
2734.56856,0.06906
2736.49703,0.07063
2738.42550,0.07319
2740.35396,0.07656
2742.28243,0.07754
2744.21090,0.07347
2746.13937,0.06962
2748.06784,0.06964
2749.99631,0.07032
2751.92478,0.07040
2753.85325,0.07028
2755.78171,0.07056
2757.71018,0.07194
2759.63865,0.07255
2761.56712,0.07329
2763.49559,0.07527
2765.42406,0.07504
2767.35253,0.07270
2769.28099,0.07247
2771.20946,0.07462
2773.13793,0.07567
2775.06640,0.07407
2776.99487,0.07159
2778.92334,0.07147
2780.85181,0.07436
2782.78028,0.07472
2784.70874,0.07089
2786.63721,0.06973
2788.56568,0.07239
2790.49415,0.07250
2792.42262,0.07016
2794.35109,0.07132
2796.27956,0.07578
2798.20802,0.07839
2800.13649,0.07754
2802.06496,0.07574
2803.99343,0.07443
2805.92190,0.07359
2807.85037,0.07447
2809.77884,0.07682
2811.70731,0.07847
2813.63577,0.07869
2815.56424,0.07764
2817.49271,0.07642
2819.42118,0.07637
2821.34965,0.07728
2823.27812,0.07867
2825.20659,0.07842
2827.13505,0.07514
2829.06352,0.07321
2830.99199,0.07458
2832.92046,0.07443
2834.84893,0.07137
2836.77740,0.06893
2838.70587,0.06857
2840.63433,0.07023
2842.56280,0.07380
2844.49127,0.07650
2846.41974,0.07629
2848.34821,0.07473
2850.27668,0.07348
2852.20515,0.07268
2854.13362,0.07160
2856.06208,0.07050
2857.99055,0.07003
2859.91902,0.07066
2861.84749,0.07324
2863.77596,0.07569
2865.70443,0.07521
2867.63290,0.07368
2869.56136,0.07390
2871.48983,0.07470
2873.41830,0.07384
2875.34677,0.07117
2877.27524,0.06858
2879.20371,0.06882
2881.13218,0.07062
2883.06065,0.07103
2884.98911,0.07221
2886.91758,0.07437
2888.84605,0.07482
2890.77452,0.07510
2892.70299,0.07576
2894.63146,0.07606
2896.55993,0.07661
2898.48839,0.07681
2900.41686,0.07681
2902.34533,0.07632
2904.27380,0.07490
2906.20227,0.07324
2908.13074,0.07091
2910.05921,0.06935
2911.98768,0.06969
2913.91614,0.06919
2915.84461,0.06761
2917.77308,0.06729
2919.70155,0.06737
2921.63002,0.06615
2923.55849,0.06497
2925.48696,0.06549
2927.41542,0.06733
2929.34389,0.07082
2931.27236,0.07579
2933.20083,0.07757
2935.12930,0.07288
2937.05777,0.06779
2938.98624,0.06836
2940.91471,0.07125
2942.84317,0.07264
2944.77164,0.07244
2946.70011,0.07139
2948.62858,0.07229
2950.55705,0.07477
2952.48552,0.07545
2954.41399,0.07406
2956.34245,0.06904
2958.27092,0.06345
2960.19939,0.06472
2962.12786,0.06903
2964.05633,0.07200
2965.98480,0.07571
2967.91327,0.07796
2969.84174,0.07761
2971.77020,0.07736
2973.69867,0.07763
2975.62714,0.07693
2977.55561,0.07455
2979.48408,0.07163
2981.41255,0.07056
2983.34102,0.07254
2985.26948,0.07558
2987.19795,0.07683
2989.12642,0.07708
2991.05489,0.07855
2992.98336,0.07998
2994.91183,0.07792
2996.84030,0.07174
2998.76877,0.06749
3000.69723,0.06824
3002.62570,0.06837
3004.55417,0.06733
3006.48264,0.07013
3008.41111,0.07505
3010.33958,0.07397
3012.26805,0.06463
3014.19651,0.05247
3016.12498,0.04347
3018.05345,0.04666
3019.98192,0.06234
3021.91039,0.07555
3023.83886,0.07846
3025.76733,0.07571
3027.69579,0.07188
3029.62426,0.07037
3031.55273,0.07220
3033.48120,0.07475
3035.40967,0.07646
3037.33814,0.07457
3039.26661,0.06961
3041.19508,0.06787
3043.12354,0.07017
3045.05201,0.07285
3046.98048,0.07299
3048.90895,0.07056
3050.83742,0.06961
3052.76589,0.07201
3054.69436,0.07456
3056.62282,0.07414
3058.55129,0.07375
3060.47976,0.07626
3062.40823,0.07820
3064.33670,0.07701
3066.26517,0.07429
3068.19364,0.07376
3070.12211,0.07631
3072.05057,0.07728
3073.97904,0.07284
3075.90751,0.06716
3077.83598,0.06886
3079.76445,0.07556
3081.69292,0.07679
3083.62139,0.07171
3085.54985,0.06809
3087.47832,0.07064
3089.40679,0.07452
3091.33526,0.07301
3093.26373,0.06746
3095.19220,0.06566
3097.12067,0.07027
3099.04914,0.07438
3100.97760,0.07472
3102.90607,0.07411
3104.83454,0.07548
3106.76301,0.07888
3108.69148,0.08131
3110.61995,0.08112
3112.54842,0.07707
3114.47688,0.07093
3116.40535,0.06788
3118.33382,0.06960
3120.26229,0.07272
3122.19076,0.07460
3124.11923,0.07678
3126.04770,0.07902
3127.97617,0.07848
3129.90463,0.07628
3131.83310,0.07582
3133.76157,0.07598
3135.69004,0.07383
3137.61851,0.06968
3139.54698,0.06697
3141.47545,0.06991
3143.40391,0.07654
3145.33238,0.08053
3147.26085,0.07942
3149.18932,0.07519
3151.11779,0.07188
3153.04626,0.07183
3154.97473,0.07427
3156.90320,0.07891
3158.83166,0.08356
3160.76013,0.08304
3162.68860,0.07935
3164.61707,0.07703
3166.54554,0.07506
3168.47401,0.07377
3170.40248,0.07448
3172.33094,0.07653
3174.25941,0.07940
3176.18788,0.08068
3178.11635,0.07876
3180.04482,0.07714
3181.97329,0.07679
3183.90176,0.07523
3185.83022,0.07527
3187.75869,0.07845
3189.68716,0.08002
3191.61563,0.07814
3193.54410,0.07674
3195.47257,0.07837
3197.40104,0.08001
3199.32951,0.07856
3201.25797,0.07683
3203.18644,0.07792
3205.11491,0.07994
3207.04338,0.08098
3208.97185,0.08113
3210.90032,0.08018
3212.82879,0.07937
3214.75725,0.08082
3216.68572,0.08286
3218.61419,0.08173
3220.54266,0.07784
3222.47113,0.07540
3224.39960,0.07667
3226.32807,0.07938
3228.25654,0.08112
3230.18500,0.08117
3232.11347,0.07924
3234.04194,0.07789
3235.97041,0.07962
3237.89888,0.08144
3239.82735,0.08012
3241.75582,0.07857
3243.68428,0.07893
3245.61275,0.07797
3247.54122,0.07503
3249.46969,0.07281
3251.39816,0.07380
3253.32663,0.07846
3255.25510,0.08298
3257.18357,0.08235
3259.11203,0.07641
3261.04050,0.07103
3262.96897,0.07118
3264.89744,0.07577
3266.82591,0.07884
3268.75438,0.07856
3270.68285,0.07939
3272.61131,0.08008
3274.53978,0.07805
3276.46825,0.07623
3278.39672,0.07562
3280.32519,0.07530
3282.25366,0.07684
3284.18213,0.08070
3286.11060,0.08205
3288.03906,0.07958
3289.96753,0.07651
3291.89600,0.07362
3293.82447,0.07329
3295.75294,0.07590
3297.68141,0.07835
3299.60988,0.07983
3301.53834,0.08043
3303.46681,0.07960
3305.39528,0.07678
3307.32375,0.07402
3309.25222,0.07364
3311.18069,0.07423
3313.10916,0.07368
3315.03763,0.07302
3316.96609,0.07394
3318.89456,0.07417
3320.82303,0.07292
3322.75150,0.07477
3324.67997,0.07982
3326.60844,0.08194
3328.53691,0.07954
3330.46537,0.07713
3332.39384,0.07754
3334.32231,0.07842
3336.25078,0.07729
3338.17925,0.07699
3340.10772,0.07859
3342.03619,0.07818
3343.96466,0.07648
3345.89312,0.07762
3347.82159,0.07902
3349.75006,0.07703
3351.67853,0.07419
3353.60700,0.07181
3355.53547,0.07130
3357.46394,0.07694
3359.39240,0.08434
3361.32087,0.08348
3363.24934,0.07631
3365.17781,0.07479
3367.10628,0.07913
3369.03475,0.07799
3370.96322,0.07144
3372.89168,0.06974
3374.82015,0.07221
3376.74862,0.07391
3378.67709,0.07690
3380.60556,0.07805
3382.53403,0.07555
3384.46250,0.07604
3386.39097,0.07892
3388.31943,0.07919
3390.24790,0.07840
3392.17637,0.07825
3394.10484,0.07826
3396.03331,0.08061
3397.96178,0.08603
3399.89025,0.08815
3401.81871,0.08279
3403.74718,0.07699
3405.67565,0.07748
3407.60412,0.07871
3409.53259,0.07486
3411.46106,0.07176
3413.38953,0.07288
3415.31800,0.07319
3417.24646,0.07355
3419.17493,0.07619
3421.10340,0.07716
3423.03187,0.07666
3424.96034,0.07666
3426.88881,0.07675
3428.81728,0.07727
3430.74574,0.07589
3432.67421,0.07175
3434.60268,0.06979
3436.53115,0.07179
3438.45962,0.07338
3440.38809,0.07133
3442.31656,0.06811
3444.24503,0.06946
3446.17349,0.07479
3448.10196,0.07834
3450.03043,0.08016
3451.95890,0.08070
3453.88737,0.07763
3455.81584,0.07469
3457.74431,0.07601
3459.67277,0.07601
3461.60124,0.07051
3463.52971,0.06718
3465.45818,0.07107
3467.38665,0.07626
3469.31512,0.07698
3471.24359,0.07499
3473.17206,0.07328
3475.10052,0.07077
3477.02899,0.06830
3478.95746,0.06875
3480.88593,0.07051
3482.81440,0.06862
3484.74287,0.06476
3486.67134,0.06586
3488.59980,0.07012
3490.52827,0.07114
3492.45674,0.07012
3494.38521,0.07147
3496.31368,0.07516
3498.24215,0.07467
3500.17062,0.06761
3502.09909,0.06255
3504.02755,0.06387
3505.95602,0.06731
3507.88449,0.07203
3509.81296,0.07511
3511.74143,0.07138
3513.66990,0.06429
3515.59837,0.06087
3517.52683,0.06190
3519.45530,0.06436
3521.38377,0.06705
3523.31224,0.06908
3525.24071,0.07017
3527.16918,0.06957
3529.09765,0.06743
3531.02611,0.06640
3532.95458,0.06655
3534.88305,0.06586
3536.81152,0.06298
3538.73999,0.05859
3540.66846,0.05680
3542.59693,0.06031
3544.52540,0.06522
3546.45386,0.06703
3548.38233,0.06761
3550.31080,0.06798
3552.23927,0.06556
3554.16774,0.06323
3556.09621,0.06425
3558.02468,0.06450
3559.95314,0.06355
3561.88161,0.06416
3563.81008,0.06761
3565.73855,0.07336
3567.66702,0.07265
3569.59549,0.06474
3571.52396,0.06060
3573.45243,0.06166
3575.38089,0.06352
3577.30936,0.06192
3579.23783,0.05598
3581.16630,0.05115
3583.09477,0.05288
3585.02324,0.05839
3586.95171,0.06243
3588.88017,0.06282
3590.80864,0.06217
3592.73711,0.05955
3594.66558,0.05388
3596.59405,0.05086
3598.52252,0.05333
3600.45099,0.05736
3602.37946,0.05926
3604.30792,0.05999
3606.23639,0.06004
3608.16486,0.05999
3610.09333,0.06205
3612.02180,0.06310
3613.95027,0.06120
3615.87874,0.06084
3617.80720,0.06360
3619.73567,0.06328
3621.66414,0.05928
3623.59261,0.05663
3625.52108,0.05368
3627.44955,0.05016
3629.37802,0.05131
3631.30649,0.05582
3633.23495,0.05742
3635.16342,0.05515
3637.09189,0.05146
3639.02036,0.05169
3640.94883,0.05528
3642.87730,0.05781
3644.80577,0.06230
3646.73423,0.07144
3648.66270,0.07657
3650.59117,0.06596
3652.51964,0.05579
3654.44811,0.05597
3656.37658,0.06053
3658.30505,0.05943
3660.23352,0.05457
3662.16198,0.05126
3664.09045,0.05014
3666.01892,0.05083
3667.94739,0.05255
3669.87586,0.05150
3671.80433,0.04995
3673.73280,0.05882
3675.66126,0.07190
3677.58973,0.06751
3679.51820,0.05735
3681.44667,0.05120
3683.37514,0.04828
3685.30361,0.04843
3687.23208,0.05055
3689.16055,0.05324
3691.08901,0.05345
3693.01748,0.05111
3694.94595,0.05194
3696.87442,0.05780
3698.80289,0.06258
3700.73136,0.05931
3702.65983,0.04987
3704.58829,0.04456
3706.51676,0.04528
3708.44523,0.04791
3710.37370,0.05356
3712.30217,0.06141
3714.23064,0.05858
3716.15911,0.04897
3718.08757,0.04470
3720.01604,0.04955
3721.94451,0.05648
3723.87298,0.05943
3725.80145,0.05701
3727.72992,0.05248
3729.65839,0.05346
3731.58686,0.06046
3733.51532,0.06598
3735.44379,0.06616
3737.37226,0.06488
3739.30073,0.06209
3741.22920,0.05842
3743.15767,0.05701
3745.08614,0.06121
3747.01460,0.06779
3748.94307,0.07206
3750.87154,0.06640
3752.80001,0.05217
3754.72848,0.04529
3756.65695,0.04470
3758.58542,0.04664
3760.51389,0.04866
3762.44235,0.04781
3764.37082,0.04544
3766.29929,0.04564
3768.22776,0.04912
3770.15623,0.05014
3772.08470,0.04717
3774.01317,0.04682
3775.94163,0.04832
3777.87010,0.04708
3779.79857,0.04487
3781.72704,0.04580
3783.65551,0.04768
3785.58398,0.04812
3787.51245,0.04770
3789.44092,0.04687
3791.36938,0.04601
3793.29785,0.04565
3795.22632,0.04583
3797.15479,0.04648
3799.08326,0.04675
3801.01173,0.04668
3802.94020,0.04730
3804.86866,0.04981
3806.79713,0.05164
3808.72560,0.04840
3810.65407,0.04463
3812.58254,0.04409
3814.51101,0.04587
3816.43948,0.04969
3818.36795,0.05395
3820.29641,0.05666
3822.22488,0.05659
3824.15335,0.05441
3826.08182,0.05197
3828.01029,0.05065
3829.93876,0.05076
3831.86723,0.05173
3833.79569,0.05538
3835.72416,0.06368
3837.65263,0.07208
3839.58110,0.07054
3841.50957,0.06257
3843.43804,0.05637
3845.36651,0.05195
3847.29498,0.04997
3849.22344,0.05320
3851.15191,0.06048
3853.08038,0.06397
3855.00885,0.05653
3856.93732,0.04890
3858.86579,0.04484
3860.79426,0.04524
3862.72272,0.05016
3864.65119,0.05501
3866.57966,0.05412
3868.50813,0.04760
3870.43660,0.03962
3872.36507,0.03845
3874.29354,0.04253
3876.22200,0.04618
3878.15047,0.04737
3880.07894,0.04577
3882.00741,0.04392
3883.93588,0.04249
3885.86435,0.04029
3887.79282,0.04069
3889.72129,0.04284
3891.64975,0.04462
3893.57822,0.04516
3895.50669,0.04444
3897.43516,0.04426
3899.36363,0.04508
3901.29210,0.04473
3903.22057,0.04683
3905.14903,0.04969
3907.07750,0.04405
3909.00597,0.03741
3910.93444,0.03580
3912.86291,0.03634
3914.79138,0.03982
3916.71985,0.04464
3918.64832,0.04300
3920.57678,0.03750
3922.50525,0.03641
3924.43372,0.03907
3926.36219,0.03985
3928.29066,0.03787
3930.21913,0.03775
3932.14760,0.04064
3934.07606,0.03924
3936.00453,0.03436
3937.93300,0.03305
3939.86147,0.03587
3941.78994,0.03870
3943.71841,0.03796
3945.64688,0.03619
3947.57535,0.03673
3949.50381,0.03740
3951.43228,0.03708
3953.36075,0.03754
3955.28922,0.03697
3957.21769,0.03401
3959.14616,0.03206
3961.07463,0.03258
3963.00309,0.03359
3964.93156,0.03641
3966.86003,0.04138
3968.78850,0.04218
3970.71697,0.03639
3972.64544,0.03225
3974.57391,0.03614
3976.50238,0.04212
3978.43084,0.04395
3980.35931,0.04327
3982.28778,0.04091
3984.21625,0.03737
3986.14472,0.03561
3988.07319,0.03754
3990.00166,0.04073
3991.93012,0.04170
3993.85859,0.04103
3995.78706,0.04105
3997.71553,0.04210
3999.64400,0.04259
4001.57247,0.04379
4003.50094,0.04460
4005.42941,0.04037
4007.35787,0.03473
4009.28634,0.03376
4011.21481,0.03481
4013.14328,0.03336
4015.07175,0.03278
4017.00022,0.03716
4018.92869,0.04137
4020.85715,0.04056
4022.78562,0.03860
4024.71409,0.03833
4026.64256,0.03833
4028.57103,0.03790
4030.49950,0.03643
4032.42797,0.03509
4034.35644,0.03487
4036.28490,0.03482
4038.21337,0.03652
4040.14184,0.03966
4042.07031,0.03994
4043.99878,0.03635
4045.92725,0.03338
4047.85572,0.03452
4049.78418,0.03620
4051.71265,0.03526
4053.64112,0.03547
4055.56959,0.03757
4057.49806,0.03667
4059.42653,0.03294
4061.35500,0.03171
4063.28346,0.03547
4065.21193,0.03975
4067.14040,0.03888
4069.06887,0.03543
4070.99734,0.03298
4072.92581,0.02954
4074.85428,0.02752
4076.78275,0.03018
4078.71121,0.03258
4080.63968,0.03196
4082.56815,0.03189
4084.49662,0.03427
4086.42509,0.03848
4088.35356,0.04222
4090.28203,0.04159
4092.21049,0.03676
4094.13896,0.03163
4096.06743,0.02887
4097.99590,0.02821
4099.92437,0.02698
4101.85284,0.02756
4103.78131,0.03238
4105.70978,0.03507
4107.63824,0.03392
4109.56671,0.03503
4111.49518,0.03611
4113.42365,0.03349
4115.35212,0.03431
4117.28059,0.03906
4119.20906,0.04032
4121.13752,0.03836
4123.06599,0.03498
4124.99446,0.03127
4126.92293,0.02952
4128.85140,0.03047
4130.77987,0.03159
4132.70834,0.03004
4134.63681,0.02903
4136.56527,0.02953
4138.49374,0.02772
4140.42221,0.02845
4142.35068,0.03457
4144.27915,0.03544
4146.20762,0.02910
4148.13609,0.02613
4150.06455,0.02860
4151.99302,0.02996
4153.92149,0.02793
4155.84996,0.02781
4157.77843,0.03117
4159.70690,0.03263
4161.63537,0.02947
4163.56384,0.02451
4165.49230,0.02229
4167.42077,0.02418
4169.34924,0.02811
4171.27771,0.03150
4173.20618,0.03201
4175.13465,0.02823
4177.06312,0.02431
4178.99158,0.02660
4180.92005,0.03105
4182.84852,0.03216
4184.77699,0.03236
4186.70546,0.03353
4188.63393,0.03584
4190.56240,0.03586
4192.49087,0.03093
4194.41933,0.02552
4196.34780,0.02433
4198.27627,0.02856
4200.20474,0.03373
4202.13321,0.03352
4204.06168,0.02837
4205.99015,0.02554
4207.91861,0.02669
4209.84708,0.02531
4211.77555,0.02362
4213.70402,0.02621
4215.63249,0.02801
4217.56096,0.02640
4219.48943,0.02551
4221.41789,0.02738
4223.34636,0.02760
4225.27483,0.02136
4227.20330,0.01314
4229.13177,0.01137
4231.06024,0.01599
4232.98871,0.02187
4234.91718,0.02754
4236.84564,0.03137
4238.77411,0.02993
4240.70258,0.02551
4242.63105,0.02344
4244.55952,0.02459
4246.48799,0.02798
4248.41646,0.03120
4250.34492,0.03193
4252.27339,0.03008
4254.20186,0.02574
4256.13033,0.02039
4258.05880,0.01630
4259.98727,0.01594
4261.91574,0.01809
4263.84421,0.01703
4265.77267,0.01610
4267.70114,0.02038
4269.62961,0.02301
4271.55808,0.02241
4273.48655,0.02400
4275.41502,0.02653
4277.34349,0.02659
4279.27195,0.02301
4281.20042,0.01984
4283.12889,0.02079
4285.05736,0.02307
4286.98583,0.02287
4288.91430,0.01782
4290.84277,0.01231
4292.77124,0.01307
4294.69970,0.01684
4296.62817,0.01787
4298.55664,0.01790
4300.48511,0.02110
4302.41358,0.02520
4304.34205,0.02433
4306.27052,0.01967
4308.19898,0.01637
4310.12745,0.01545
4312.05592,0.01626
4313.98439,0.01757
4315.91286,0.01845
4317.84133,0.01767
4319.76980,0.01455
4321.69827,0.01395
4323.62673,0.01634
4325.55520,0.01821
4327.48367,0.02345
4329.41214,0.02937
4331.34061,0.02500
4333.26908,0.01481
4335.19755,0.01104
4337.12601,0.01319
4339.05448,0.01732
4340.98295,0.01948
4342.91142,0.01625
4344.83989,0.01333
4346.76836,0.01509
4348.69683,0.01828
4350.62530,0.02194
4352.55376,0.02790
4354.48223,0.03068
4356.41070,0.02382
4358.33917,0.01525
4360.26764,0.01317
4362.19611,0.01645
4364.12458,0.01881
4366.05304,0.01171
4367.98151,0.00038
4369.90998,-0.00159
4371.83845,0.00677
4373.76692,0.01517
4375.69539,0.01636
4377.62386,0.01369
4379.55232,0.01135
4381.48079,0.00820
4383.40926,0.00782
4385.33773,0.01566
4387.26620,0.02272
4389.19467,0.01680
4391.12314,0.00561
4393.05161,0.00163
4394.98007,0.00398
4396.90854,0.00740
4398.83701,0.01071
4400.76548,0.01299
4402.69395,0.01240
4404.62242,0.01227
4406.55089,0.01486
4408.47935,0.01708
4410.40782,0.01526
4412.33629,0.00915
4414.26476,0.00429
4416.19323,0.00472
4418.12170,0.00983
4420.05017,0.01407
4421.97864,0.01147
4423.90710,0.00649
4425.83557,0.00730
4427.76404,0.01383
4429.69251,0.01837
4431.62098,0.01303
4433.54945,0.00082
4435.47792,-0.00343
4437.40638,0.00360
4439.33485,0.00819
4441.26332,0.00592
4443.19179,0.00479
4445.12026,0.00625
4447.04873,0.00642
4448.97720,0.00777
4450.90567,0.01289
4452.83413,0.01682
4454.76260,0.01492
4456.69107,0.01028
4458.61954,0.00863
4460.54801,0.00930
4462.47648,0.00959
4464.40495,0.00641
4466.33341,-0.00116
4468.26188,-0.00326
4470.19035,0.00331
4472.11882,0.00682
4474.04729,0.00277
4475.97576,0.00122
4477.90423,0.00638
4479.83270,0.00659
4481.76116,-0.00089
4483.68963,-0.00615
4485.61810,-0.00845
4487.54657,-0.00992
4489.47504,-0.00420
4491.40351,0.00825
4493.33198,0.01385
4495.26044,0.00807
4497.18891,0.00112
4499.11738,-0.00021
4501.04585,0.00232
4502.97432,0.00512
4504.90279,0.00717
4506.83126,0.00841
4508.75973,0.00905
4510.68819,0.01119
4512.61666,0.01272
4514.54513,0.00954
4516.47360,0.00418
4518.40207,-0.00096
4520.33054,-0.00609
4522.25901,-0.00884
4524.18747,-0.00738
4526.11594,-0.00266
4528.04441,0.00247
4529.97288,0.00578
4531.90135,0.00679
4533.82982,0.00607
4535.75829,0.00601
4537.68676,0.00694
4539.61522,0.00698
4541.54369,0.00425
4543.47216,-0.00025
4545.40063,-0.00323
4547.32910,-0.00541
4549.25757,-0.00440
4551.18604,0.00396
4553.11450,0.01270
4555.04297,0.01276
4556.97144,0.00718
4558.89991,0.00368
4560.82838,0.00120
4562.75685,-0.00438
4564.68532,-0.00868
4566.61378,-0.00454
4568.54225,0.00412
4570.47072,0.00734
4572.39919,0.00463
4574.32766,0.00437
4576.25613,0.00843
4578.18460,0.00898
4580.11307,0.00884
4582.04153,0.01273
4583.97000,0.01082
4585.89847,0.00241
4587.82694,-0.00447
4589.75541,-0.00639
4591.68388,-0.00229
4593.61235,0.00278
4595.54081,0.00293
4597.46928,0.00161
4599.39775,0.00357
4601.32622,0.00984
4603.25469,0.01545
4605.18316,0.01550
4607.11163,0.01447
4609.04010,0.01439
4610.96856,0.00871
4612.89703,-0.00151
4614.82550,-0.00892
4616.75397,-0.00942
4618.68244,-0.00109
4620.61091,0.01165
4622.53938,0.01635
4624.46784,0.00868
4626.39631,-0.00034
4628.32478,-0.00415
4630.25325,-0.00635
4632.18172,-0.00600
4634.11019,-0.00155
4636.03866,0.00420
4637.96713,0.00774
4639.89559,0.00290
4641.82406,-0.00695
4643.75253,-0.00688
4645.68100,0.00339
4647.60947,0.01103
4649.53794,0.01117
4651.46641,0.00737
4653.39487,0.00536
4655.32334,0.00877
4657.25181,0.01215
4659.18028,0.00639
4661.10875,-0.00451
4663.03722,-0.00833
4664.96569,0.00034
4666.89416,0.01235
4668.82262,0.01194
4670.75109,0.00383
4672.67956,0.00188
4674.60803,0.00208
4676.53650,0.00135
4678.46497,0.00818
4680.39344,0.01532
4682.32190,0.01000
4684.25037,0.00375
4686.17884,0.00791
4688.10731,0.01303
4690.03578,0.01029
4691.96425,0.00663
4693.89272,0.00825
4695.82119,0.00950
4697.74965,0.00785
4699.67812,0.00564
4701.60659,0.00337
4703.53506,0.00182
4705.46353,0.00136
4707.39200,-0.00085
4709.32047,-0.00410
4711.24893,0.00022
4713.17740,0.00869
4715.10587,0.00733
4717.03434,-0.00019
4718.96281,-0.00369
4720.89128,-0.00296
4722.81975,0.00106
4724.74821,0.00405
4726.67668,0.00695
4728.60515,0.01363
4730.53362,0.01454
4732.46209,0.00579
4734.39056,-0.00055
4736.31903,0.00112
4738.24750,0.00134
4740.17596,-0.00658
4742.10443,-0.01048
4744.03290,-0.00105
4745.96137,0.00828
4747.88984,0.00779
4749.81831,0.00618
4751.74678,0.01064
4753.67524,0.01569
4755.60371,0.01281
4757.53218,-0.00012
4759.46065,-0.01215
4761.38912,-0.00863
4763.31759,0.00108
4765.24606,-0.00160
4767.17453,-0.00691
4769.10299,0.00208
4771.03146,0.01542
4772.95993,0.01555
4774.88840,0.00445
4776.81687,-0.00661
4778.74534,-0.00810
4780.67381,-0.00219
4782.60227,0.00050
4784.53074,0.00092
4786.45921,0.00655
4788.38768,0.01773
4790.31615,0.02284
4792.24462,0.01950
4794.17309,0.02165
4796.10156,0.02747
4798.03002,0.02646
4799.95849,0.02011
4801.88696,0.01110
4803.81543,0.00287
4805.74390,0.00205
4807.67237,0.00541
4809.60084,0.00722
4811.52930,0.01013
4813.45777,0.01042
4815.38624,0.00285
4817.31471,-0.00476
4819.24318,-0.00765
4821.17165,-0.00745
4823.10012,-0.00200
4825.02859,0.00363
4826.95705,0.00105
4828.88552,-0.00642
4830.81399,-0.01577
4832.74246,-0.02076
4834.67093,-0.01443
4836.59940,-0.00299
4838.52787,0.00315
4840.45633,-0.00079
4842.38480,-0.00489
4844.31327,-0.00252
4846.24174,-0.00487
4848.17021,-0.01188
4850.09868,-0.00758
4852.02715,0.00383
4853.95562,0.00399
4855.88408,-0.00298
4857.81255,-0.00421
4859.74102,-0.00662
4861.66949,-0.01452
4863.59796,-0.01493
4865.52643,-0.00866
4867.45490,-0.00165
4869.38336,0.00425
4871.31183,0.00055
4873.24030,-0.00985
4875.16877,-0.01284
4877.09724,-0.00474
4879.02571,0.00818
4880.95418,0.02007
4882.88265,0.02438
4884.81111,0.02277
4886.73958,0.01525
4888.66805,0.00090
4890.59652,-0.00937
4892.52499,-0.00897
4894.45346,-0.00462
4896.38193,-0.00228
4898.31039,-0.00422
4900.23886,-0.00948
4902.16733,-0.00845
4904.09580,-0.00010
4906.02427,0.00398
4907.95274,0.00608
4909.88121,0.01369
4911.80967,0.01677
4913.73814,0.01037
4915.66661,0.00931
4917.59508,0.01642
4919.52355,0.01681
4921.45202,0.00849
4923.38049,0.00360
4925.30896,0.00932
4927.23742,0.02289
4929.16589,0.03274
4931.09436,0.02964
4933.02283,0.01966
4934.95130,0.00738
4936.87977,-0.00608
4938.80824,-0.00811
4940.73670,0.00125
4942.66517,0.00413
4944.59364,-0.00315
4946.52211,-0.01050
4948.45058,-0.01355
4950.37905,-0.01275
4952.30752,-0.00740
4954.23599,-0.00328
4956.16445,-0.00657
4958.09292,-0.00626
4960.02139,0.00178
4961.94986,-0.00028
4963.87833,-0.00887
4965.80680,-0.00117
4967.73527,0.01343
4969.66373,0.01517
4971.59220,0.01311
4973.52067,0.01414
4975.44914,0.01026
4977.37761,0.00344
4979.30608,0.00258
4981.23455,0.00656
4983.16302,0.00782
4985.09148,0.00363
4987.01995,-0.00565
4988.94842,-0.01721
4990.87689,-0.02347
4992.80536,-0.01768
4994.73383,-0.00161
4996.66230,0.01492
4998.59076,0.02143
5000.51923,0.01916
5002.44770,0.02074
5004.37617,0.02222
5006.30464,0.01314
5008.23311,-0.00124
5010.16158,-0.01295
5012.09005,-0.01054
5014.01851,0.00707
5015.94698,0.01961
5017.87545,0.01431
5019.80392,0.00593
5021.73239,0.00652
5023.66086,0.00615
5025.58933,0.00378
5027.51779,0.00741
5029.44626,0.01245
5031.37473,0.00951
5033.30320,0.00107
5035.23167,-0.00229
5037.16014,0.00093
5039.08861,0.00420
5041.01708,0.00240
5042.94554,0.00058
5044.87401,0.00486
5046.80248,0.01168
5048.73095,0.01527
5050.65942,0.01648
5052.58789,0.01925
5054.51636,0.02117
5056.44482,0.01891
5058.37329,0.01030
5060.30176,-0.00184
5062.23023,-0.01101
5064.15870,-0.01711
5066.08717,-0.01639
5068.01564,-0.00623
5069.94410,0.00563
5071.87257,0.00883
5073.80104,0.00212
5075.72951,-0.00126
5077.65798,0.00527
5079.58645,0.01208
5081.51492,0.01296
5083.44339,0.01010
5085.37185,0.00618
5087.30032,0.00676
5089.22879,0.01257
5091.15726,0.01905
5093.08573,0.02745
5095.01420,0.02998
5096.94267,0.01720
5098.87113,0.00536
5100.79960,0.00634
5102.72807,0.00407
5104.65654,-0.00349
5106.58501,-0.00202
5108.51348,0.00357
5110.44195,0.00202
5112.37042,0.00025
5114.29888,0.01324
5116.22735,0.03252
5118.15582,0.03049
5120.08429,0.01026
5122.01276,0.00092
5123.94123,0.00254
5125.86970,0.00343
5127.79816,0.00953
5129.72663,0.00945
5131.65510,-0.00384
5133.58357,-0.00402
5135.51204,0.01351
5137.44051,0.02368
5139.36898,0.01485
5141.29745,0.00376
5143.22591,0.01029
5145.15438,0.01781
5147.08285,0.00225
5149.01132,-0.01814
5150.93979,-0.01320
5152.86826,0.00812
5154.79673,0.01694
5156.72519,0.00982
5158.65366,0.00130
5160.58213,-0.00029
5162.51060,0.00701
5164.43907,0.01593
5166.36754,0.01650
5168.29601,0.00836
5170.22448,-0.00148
5172.15294,0.00038
5174.08141,0.01612
5176.00988,0.02846
5177.93835,0.02786
5179.86682,0.02672
5181.79529,0.03289
5183.72376,0.03330
5185.65222,0.02220
5187.58069,0.01320
5189.50916,0.01132
5191.43763,0.00698
5193.36610,0.00081
5195.29457,0.01202
5197.22304,0.03756
5199.15151,0.04149
5201.07997,0.02109
5203.00844,0.00689
5204.93691,0.01099
5206.86538,0.02719
5208.79385,0.03346
5210.72232,0.01607
5212.65079,-0.00906
5214.57925,-0.02252
5216.50772,-0.01886
5218.43619,-0.00188
5220.36466,0.01798
5222.29313,0.03318
5224.22160,0.04458
5226.15007,0.04268
5228.07854,0.01990
5230.00700,-0.00458
5231.93547,-0.01311
5233.86394,-0.00601
5235.79241,0.00155
5237.72088,-0.00539
5239.64935,-0.01830
5241.57782,-0.02558
5243.50628,-0.02908
5245.43475,-0.01842
5247.36322,0.00511
5249.29169,0.01647
5251.22016,0.02556
5253.14863,0.04383
5255.07710,0.04301
5257.00556,0.02922
5258.93403,0.02933
5260.86250,0.02819
5262.79097,0.01222
5264.71944,-0.00220
5266.64791,-0.00545
5268.57638,-0.00671
5270.50485,-0.00339
5272.43331,0.00999
5274.36178,0.02374
5276.29025,0.03252
5278.21872,0.03209
5280.14719,0.01728
5282.07566,0.00627
5284.00413,0.01691
5285.93259,0.03562
5287.86106,0.04232
5289.78953,0.03210
5291.71800,0.01242
5293.64647,0.00122
5295.57494,0.01020
5297.50341,0.03081
5299.43188,0.04395
5301.36034,0.04749
5303.28881,0.04187
5305.21728,0.03084
5307.14575,0.02550
5309.07422,0.02020
5311.00269,0.01969
5312.93116,0.03191
5314.85962,0.04200
5316.78809,0.04084
5318.71656,0.03708
5320.64503,0.03453
5322.57350,0.02744
5324.50197,0.01755
5326.43044,0.00885
5328.35891,0.00548
5330.28737,0.00899
5332.21584,0.01724
5334.14431,0.03000
5336.07278,0.03729
5338.00125,0.03339
5339.92972,0.01973
5341.85819,0.00110
5343.78665,-0.00723
5345.71512,-0.00465
5347.64359,-0.00535
5349.57206,0.00469
5351.50053,0.02450
5353.42900,0.02589
5355.35747,0.00924
5357.28594,-0.00882
5359.21440,-0.01717
5361.14287,-0.00752
5363.07134,0.00461
5364.99981,0.00191
5366.92828,-0.00513
5368.85675,-0.00152
5370.78522,0.00180
5372.71368,-0.00397
5374.64215,-0.00947
5376.57062,-0.01364
5378.49909,-0.01590
5380.42756,-0.00745
5382.35603,0.00258
5384.28450,0.00233
5386.21297,0.01333
5388.14143,0.03458
5390.06990,0.03967
5391.99837,0.04299
5393.92684,0.06089
5395.85531,0.07272
5397.78378,0.05328
5399.71225,0.02268
5401.64071,0.00999
5403.56918,0.00538
5405.49765,0.00246
5407.42612,0.01701
5409.35459,0.04256
5411.28306,0.04552
5413.21153,0.01214
5415.13999,-0.01454
5417.06846,-0.00500
5418.99693,0.01257
5420.92540,0.02024
5422.85387,0.02814
5424.78234,0.03130
5426.71081,0.02163
5428.63928,0.00506
5430.56774,-0.00180
5432.49621,0.00661
5434.42468,0.01369
5436.35315,0.02500
5438.28162,0.04774
5440.21009,0.04805
5442.13856,0.01628
5444.06702,-0.00219
5445.99549,0.00446
5447.92396,0.00821
5449.85243,0.00369
5451.78090,0.00660
5453.70937,0.01913
5455.63784,0.02729
5457.56631,0.03196
5459.49477,0.04918
5461.42324,0.06378
5463.35171,0.04855
5465.28018,0.01578
5467.20865,0.00348
5469.13712,0.02193
5471.06559,0.04252
5472.99405,0.04628
5474.92252,0.03725
5476.85099,0.02637
5478.77946,0.02662
5480.70793,0.03694
5482.63640,0.04545
5484.56487,0.04506
5486.49334,0.04030
5488.42180,0.03737
5490.35027,0.03602
5492.27874,0.03954
5494.20721,0.03825
5496.13568,0.02708
5498.06415,0.02707
5499.99262,0.03268
5501.92108,0.02206
5503.84955,0.00669
5505.77802,0.00950
5507.70649,0.03003
5509.63496,0.04024
5511.56343,0.03252
5513.49190,0.02720
5515.42037,0.03417
5517.34883,0.04163
5519.27730,0.03227
5521.20577,0.01826
5523.13424,0.02375
5525.06271,0.03317
5526.99118,0.03147
5528.91965,0.02864
5530.84811,0.02169
5532.77658,0.01868
5534.70505,0.02651
5536.63352,0.02820
5538.56199,0.01918
5540.49046,0.01478
5542.41893,0.02239
5544.34740,0.02178
5546.27586,0.00299
5548.20433,-0.01049
5550.13280,-0.00879
5552.06127,0.00187
5553.98974,0.01517
5555.91821,0.02444
5557.84668,0.03287
5559.77514,0.03297
5561.70361,0.01822
5563.63208,0.00386
5565.56055,-0.00262
5567.48902,0.00243
5569.41749,0.01986
5571.34596,0.03460
5573.27443,0.03859
5575.20289,0.03527
5577.13136,0.02529
5579.05983,0.01323
5580.98830,0.00974
5582.91677,0.01646
5584.84524,0.02732
5586.77371,0.02793
5588.70217,0.02150
5590.63064,0.03656
5592.55911,0.05953
5594.48758,0.05575
5596.41605,0.03118
5598.34452,0.02034
5600.27299,0.03170
5602.20145,0.03260
5604.12992,0.02527
5606.05839,0.03852
5607.98686,0.05388
5609.91533,0.04545
5611.84380,0.02762
5613.77227,0.02719
5615.70074,0.04189
5617.62920,0.04087
5619.55767,0.02919
5621.48614,0.04802
5623.41461,0.07976
5625.34308,0.07640
5627.27155,0.04505
5629.20002,0.01625
5631.12848,0.00672
5633.05695,0.02209
5634.98542,0.04054
5636.91389,0.03618
5638.84236,0.01651
5640.77083,0.00008
5642.69930,-0.00561
5644.62777,0.00155
5646.55623,0.01828
5648.48470,0.02941
5650.41317,0.02369
5652.34164,0.01261
5654.27011,0.01140
5656.19858,0.01784
5658.12705,0.02860
5660.05551,0.04801
5661.98398,0.06803
5663.91245,0.06500
5665.84092,0.03807
5667.76939,0.02193
5669.69786,0.02865
5671.62633,0.03489
5673.55480,0.03465
5675.48326,0.04115
5677.41173,0.06297
5679.34020,0.08620
5681.26867,0.08228
5683.19714,0.05772
5685.12561,0.03884
5687.05408,0.02219
5688.98254,0.00473
5690.91101,-0.00047
5692.83948,0.00612
5694.76795,0.02212
5696.69642,0.03442
5698.62489,0.02256
5700.55336,0.00650
5702.48183,0.01386
5704.41029,0.04281
5706.33876,0.06710
5708.26723,0.05756
5710.19570,0.02908
5712.12417,0.01893
5714.05264,0.03844
5715.98111,0.05700
5717.90957,0.04125
5719.83804,0.03341
5721.76651,0.06513
5723.69498,0.08132
5725.62345,0.06917
5727.55192,0.06001
5729.48039,0.04412
5731.40886,0.02363
5733.33732,0.02686
5735.26579,0.05650
5737.19426,0.08167
5739.12273,0.06545
5741.05120,0.02261
5742.97967,0.01977
5744.90814,0.06579
5746.83660,0.10135
5748.76507,0.09939
5750.69354,0.07102
5752.62201,0.04015
5754.55048,0.03687
5756.47895,0.04360
5758.40742,0.03430
5760.33588,0.01506
5762.26435,-0.00144
5764.19282,0.00706
5766.12129,0.03513
5768.04976,0.05048
5769.97823,0.05038
5771.90670,0.05491
5773.83517,0.06711
5775.76363,0.06943
5777.69210,0.06581
5779.62057,0.06119
5781.54904,0.04462
5783.47751,0.02684
5785.40598,0.02511
5787.33445,0.03696
5789.26291,0.04966
5791.19138,0.04821
5793.11985,0.03305
5795.04832,0.01891
5796.97679,0.00345
5798.90526,-0.00907
5800.83373,-0.01317
5802.76220,-0.00912
5804.69066,0.01745
5806.61913,0.03501
5808.54760,0.00840
5810.47607,-0.01371
5812.40454,0.01641
5814.33301,0.05575
5816.26148,0.05085
5818.18994,0.02111
5820.11841,0.00522
5822.04688,0.01598
5823.97535,0.02941
5825.90382,0.02132
5827.83229,0.00939
5829.76076,0.01240
5831.68923,0.02793
5833.61769,0.04396
5835.54616,0.05353
5837.47463,0.06466
5839.40310,0.07088
5841.33157,0.04300
5843.26004,-0.00283
5845.18851,-0.00599
5847.11697,0.01937
5849.04544,0.02371
5850.97391,0.02501
5852.90238,0.03075
5854.83085,0.02445
5856.75932,0.02722
5858.68779,0.03815
5860.61626,0.03332
5862.54472,0.04450
5864.47319,0.08943
5866.40166,0.10621
5868.33013,0.07217
5870.25860,0.03618
5872.18707,0.02939
5874.11554,0.04356
5876.04400,0.05118
5877.97247,0.04538
5879.90094,0.04683
5881.82941,0.05245
5883.75788,0.05167
5885.68635,0.05012
5887.61482,0.03847
5889.54329,0.02850
5891.47175,0.04003
5893.40022,0.04744
5895.32869,0.03705
5897.25716,0.02140
5899.18563,0.01343
5901.11410,0.02112
5903.04257,0.03975
5904.97103,0.05534
5906.89950,0.04180
5908.82797,-0.00329
5910.75644,-0.02668
5912.68491,0.00031
5914.61338,0.03611
5916.54185,0.04380
5918.47032,0.03926
5920.39878,0.04905
5922.32725,0.06538
5924.25572,0.06205
5926.18419,0.04939
5928.11266,0.05464
5930.04113,0.07061
5931.96960,0.07893
5933.89806,0.05083
5935.82653,-0.00051
5937.75500,0.00317
5939.68347,0.03700
5941.61194,0.02760
5943.54041,0.01155
5945.46888,0.02477
5947.39734,0.02250
5949.32581,-0.00098
5951.25428,0.01120
5953.18275,0.04294
5955.11122,0.03893
5957.03969,0.01514
5958.96816,0.00088
5960.89663,-0.01286
5962.82509,-0.03285
5964.75356,-0.04425
5966.68203,-0.04502
5968.61050,-0.03566
5970.53897,-0.00762
5972.46744,0.02578
5974.39591,0.02788
5976.32437,-0.00216
5978.25284,-0.01058
5980.18131,0.00697
5982.10978,0.00719
5984.03825,-0.01169
5985.96672,-0.01203
5987.89519,0.01914
5989.82366,0.04539
5991.75212,0.04990
5993.68059,0.03308
5995.60906,-0.00158
5997.53753,-0.01320
5999.46600,-0.00107
6001.39447,0.00874
6003.32294,0.03367
6005.25140,0.07497
6007.17987,0.08642
6009.10834,0.05993
6011.03681,0.03852
6012.96528,0.02714
6014.89375,-0.00066
6016.82222,-0.03181
6018.75069,-0.03767
6020.67915,-0.00325
6022.60762,0.05265
6024.53609,0.08480
6026.46456,0.09214
6028.39303,0.09078
6030.32150,0.08137
6032.24997,0.08813
6034.17843,0.11210
6036.10690,0.11140
6038.03537,0.07766
6039.96384,0.04738
6041.89231,0.03163
6043.82078,0.01174
6045.74925,-0.00425
6047.67772,0.00809
6049.60618,0.03344
6051.53465,0.02852
6053.46312,-0.01253
6055.39159,-0.04479
6057.32006,-0.03394
6059.24853,-0.01891
6061.17700,-0.01585
6063.10546,0.00558
6065.03393,0.01707
6066.96240,-0.00788
6068.89087,-0.02651
6070.81934,-0.01672
6072.74781,0.00198
6074.67628,0.03303
6076.60475,0.08636
6078.53321,0.12697
6080.46168,0.10997
6082.39015,0.07441
6084.31862,0.07538
6086.24709,0.07428
6088.17556,0.04161
6090.10403,0.01873
6092.03249,0.01468
6093.96096,-0.00519
6095.88943,-0.03823
6097.81790,-0.03151
6099.74637,0.01764
6101.67484,0.05228
6103.60331,0.06645
6105.53177,0.08711
6107.46024,0.09995
6109.38871,0.08075
6111.31718,0.03759
6113.24565,0.00684
6115.17412,0.00374
6117.10259,0.01144
6119.03106,0.03022
6120.95952,0.04889
6122.88799,0.03120
6124.81646,0.00682
6126.74493,0.02230
6128.67340,0.03333
6130.60187,0.01644
6132.53034,0.02015
6134.45880,0.02837
6136.38727,0.00856
6138.31574,-0.01670
6140.24421,-0.03259
6142.17268,-0.03716
6144.10115,-0.01468
6146.02962,0.01598
6147.95809,0.03288
6149.88655,0.04628
6151.81502,0.04892
6153.74349,0.01929
6155.67196,-0.01150
6157.60043,-0.00920
6159.52890,0.00721
6161.45737,0.04039
6163.38583,0.08417
6165.31430,0.09828
6167.24277,0.09224
6169.17124,0.06473
6171.09971,0.02760
6173.02818,0.04561
6174.95665,0.09377
6176.88512,0.09255
6178.81358,0.05039
6180.74205,0.01581
6182.67052,0.01121
6184.59899,0.02918
6186.52746,0.03955
6188.45593,0.03246
6190.38440,0.00891
6192.31286,-0.03006
6194.24133,-0.04180
6196.16980,-0.00817
6198.09827,0.00154
6200.02674,-0.03687
6201.95521,-0.04879
6203.88368,-0.01005
6205.81215,0.01241
6207.74061,0.00398
6209.66908,0.00893
6211.59755,0.02139
6213.52602,0.02666
6215.45449,0.03731
6217.38296,0.05350
6219.31143,0.08607
6221.23989,0.14297
6223.16836,0.18428
6225.09683,0.15665
6227.02530,0.09398
6228.95377,0.06230
6230.88224,0.06347
6232.81071,0.06716
6234.73918,0.05095
6236.66764,0.01892
6238.59611,-0.00860
6240.52458,0.00040
6242.45305,0.04427
6244.38152,0.08150
6246.30999,0.08532
6248.23846,0.06498
6250.16692,0.05137
6252.09539,0.04847
6254.02386,0.04465
6255.95233,0.04112
6257.88080,0.03328
6259.80927,0.01932
6261.73774,0.01379
6263.66621,0.02183
6265.59467,0.02613
6267.52314,0.00570
6269.45161,-0.02569
6271.38008,-0.01923
6273.30855,0.00560
6275.23702,-0.01258
6277.16549,-0.03848
6279.09395,-0.01826
6281.02242,0.03275
6282.95089,0.05677
6284.87936,0.03252
6286.80783,0.01318
6288.73630,0.01217
6290.66477,-0.00875
6292.59323,-0.02772
6294.52170,-0.01603
6296.45017,0.00980
6298.37864,0.05895
6300.30711,0.07702
6302.23558,0.03501
6304.16405,0.02965
6306.09252,0.05091
6308.02098,0.04000
6309.94945,0.02403
6311.87792,0.01592
6313.80639,0.00124
6315.73486,-0.00012
6317.66333,0.01122
6319.59180,0.00875
6321.52026,0.01434
6323.44873,0.03660
6325.37720,0.04302
6327.30567,0.01508
6329.23414,-0.01888
6331.16261,-0.02446
6333.09108,-0.02735
6335.01955,-0.00835
6336.94801,0.05188
6338.87648,0.06642
6340.80495,0.01979
6342.73342,0.01110
6344.66189,0.04949
6346.59036,0.06282
6348.51883,0.03248
6350.44729,-0.00999
6352.37576,-0.01417
6354.30423,0.01671
6356.23270,0.02505
6358.16117,0.01888
6360.08964,0.04885
6362.01811,0.10017
6363.94658,0.11667
6365.87504,0.09812
6367.80351,0.09165
6369.73198,0.09504
6371.66045,0.08087
6373.58892,0.08271
6375.51739,0.10575
6377.44586,0.10203
6379.37432,0.09558
6381.30279,0.12714
6383.23126,0.15747
6385.15973,0.10591
6387.08820,0.00468
6389.01667,-0.03839
6390.94514,-0.00238
6392.87361,0.05599
6394.80207,0.10348
6396.73054,0.10566
6398.65901,0.03784
6400.58748,-0.02654
6402.51595,-0.00343
6404.44442,0.03767
6406.37289,0.01912
6408.30135,-0.02054
6410.22982,-0.03500
6412.15829,-0.02127
6414.08676,0.00830
6416.01523,0.03511
6417.94370,0.05248
6419.87217,0.06244
6421.80064,0.06995
6423.72910,0.06083
6425.65757,0.01646
6427.58604,-0.00466
6429.51451,0.04983
6431.44298,0.10825
6433.37145,0.10876
6435.29992,0.07301
6437.22838,0.01227
6439.15685,-0.03238
6441.08532,-0.01712
6443.01379,0.03732
6444.94226,0.07393
6446.87073,0.07300
6448.79920,0.06742
6450.72766,0.08424
6452.65613,0.09697
6454.58460,0.07593
6456.51307,0.06652
6458.44154,0.08251
6460.37001,0.07326
6462.29848,0.06164
6464.22695,0.08165
6466.15541,0.10371
6468.08388,0.10023
6470.01235,0.09935
6471.94082,0.12860
6473.86929,0.12062
6475.79776,0.05710
6477.72623,-0.01918
6479.65469,-0.09125
6481.58316,-0.09575
6483.51163,-0.01841
6485.44010,0.05752
6487.36857,0.08564
6489.29704,0.07703
6491.22551,0.03745
6493.15398,-0.03851
6495.08244,-0.08848
6497.01091,-0.08128
6498.93938,-0.08017
6500.86785,-0.10693
6502.79632,-0.08694
6504.72479,-0.03115
6506.65326,-0.00759
6508.58172,0.04398
6510.51019,0.15199
6512.43866,0.19402
6514.36713,0.13806
6516.29560,0.06344
6518.22407,0.01553
6520.15254,0.01347
6522.08101,0.02873
6524.00947,0.01461
6525.93794,-0.00090
6527.86641,-0.00325
6529.79488,-0.04656
6531.72335,-0.09145
6533.65182,-0.04555
6535.58029,0.04305
6537.50875,0.05854
6539.43722,0.00643
6541.36569,-0.03054
6543.29416,-0.01056
6545.22263,0.03555
6547.15110,0.06705
6549.07957,0.08937
6551.00804,0.09115
6552.93650,0.06285
6554.86497,0.02983
6556.79344,0.02736
6558.72191,0.04451
6560.65038,0.03481
6562.57885,0.00749
6564.50732,-0.01124
6566.43578,-0.01529
6568.36425,-0.01674
6570.29272,-0.01536
6572.22119,0.00299
6574.14966,-0.00017
6576.07813,-0.04233
6578.00660,-0.08203
6579.93507,-0.07006
6581.86353,-0.00603
6583.79200,0.05411
6585.72047,0.08277
6587.64894,0.09402
6589.57741,0.09554
6591.50588,0.10784
6593.43435,0.11770
6595.36281,0.10460
6597.29128,0.08345
6599.21975,0.04124
6601.14822,0.00737
6603.07669,0.02798
6605.00516,0.08226
6606.93363,0.13219
6608.86210,0.13327
6610.79056,0.10298
6612.71903,0.07756
6614.64750,0.03673
6616.57597,0.02302
6618.50444,0.09058
6620.43291,0.11960
6622.36138,0.00212
6624.28984,-0.13193
6626.21831,-0.12210
6628.14678,-0.03106
6630.07525,0.02024
6632.00372,0.04862
6633.93219,0.08001
6635.86066,0.06012
6637.78912,0.02513
6639.71759,0.04373
6641.64606,0.07059
6643.57453,0.07441
6645.50300,0.07326
6647.43147,0.04424
6649.35994,0.00159
6651.28841,-0.01636
6653.21687,-0.04857
6655.14534,-0.08779
6657.07381,-0.03980
6659.00228,0.05186
6660.93075,0.09134
6662.85922,0.09586
6664.78769,0.03510
6666.71615,-0.06616
6668.64462,-0.03530
6670.57309,0.14904
6672.50156,0.26643
6674.43003,0.20479
6676.35850,0.08793
6678.28697,0.03436
6680.21544,0.05212
6682.14390,0.04906
6684.07237,-0.00721
6686.00084,-0.05053
6687.92931,-0.05593
6689.85778,-0.03616
6691.78625,-0.02808
6693.71472,-0.04368
6695.64318,-0.02757
6697.57165,0.04498
6699.50012,0.09430
6701.42859,0.06262
6703.35706,0.02330
6705.28553,0.05633
6707.21400,0.11881
6709.14247,0.11833
6711.07093,0.04087
6712.99940,-0.01456
6714.92787,0.02668
6716.85634,0.10636
6718.78481,0.13568
6720.71328,0.10504
6722.64175,0.04054
6724.57021,-0.01394
6726.49868,0.00451
6728.42715,0.05621
6730.35562,0.03361
6732.28409,-0.03550
6734.21256,-0.05282
6736.14103,-0.01615
6738.06950,0.02000
6739.99796,0.02138
6741.92643,0.00053
6743.85490,-0.01000
6745.78337,-0.01274
6747.71184,-0.01713
6749.64031,-0.01814
6751.56878,-0.02590
6753.49724,-0.05196
6755.42571,-0.09243
6757.35418,-0.13362
6759.28265,-0.12771
6761.21112,-0.06522
6763.13959,-0.03096
6765.06806,-0.03721
6766.99653,-0.01174
6768.92499,0.05946
6770.85346,0.08598
6772.78193,0.05096
6774.71040,0.04909
6776.63887,0.07593
6778.56734,0.08669
6780.49581,0.11293
6782.42427,0.13446
6784.35274,0.13041
6786.28121,0.11085
6788.20968,0.05467
6790.13815,-0.01238
6792.06662,-0.03207
6793.99509,-0.03556
6795.92355,-0.06849
6797.85202,-0.11083
6799.78049,-0.11703
6801.70896,-0.03785
6803.63743,0.11484
6805.56590,0.20316
6807.49437,0.16889
6809.42284,0.12945
6811.35130,0.13123
6813.27977,0.10952
6815.20824,0.06105
6817.13671,0.01825
6819.06518,-0.00161
6820.99365,-0.00272
6822.92212,0.02601
6824.85058,0.07395
6826.77905,0.05932
6828.70752,0.00359
6830.63599,0.00043
6832.56446,0.03710
6834.49293,0.06383
6836.42140,0.07227
6838.34987,0.09846
6840.27833,0.14577
6842.20680,0.14839
6844.13527,0.10579
6846.06374,0.07313
6847.99221,0.03242
6849.92068,-0.01293
6851.84915,0.01934
6853.77761,0.08332
6855.70608,0.04147
6857.63455,-0.09020
6859.56302,-0.14540
6861.49149,-0.13720
6863.41996,-0.16139
6865.34843,-0.13836
6867.27690,-0.02665
6869.20536,0.03430
6871.13383,0.01428
6873.06230,-0.02227
6874.99077,-0.05374
6876.91924,-0.07346
6878.84771,-0.06480
6880.77618,-0.00470
6882.70464,0.08895
6884.63311,0.14762
6886.56158,0.12342
6888.49005,0.07099
6890.41852,0.06957
6892.34699,0.08002
6894.27546,0.06065
6896.20393,0.03332
6898.13239,-0.00768
6900.06086,-0.02722
6901.98933,-0.00010
6903.91780,0.00192
6905.84627,-0.02614
6907.77474,0.01210
6909.70321,0.11078
6911.63167,0.16635
6913.56014,0.11404
6915.48861,0.04888
6917.41708,0.03803
6919.34555,0.02454
6921.27402,0.00344
6923.20249,0.00859
6925.13096,0.03115
6927.05942,0.03656
6928.98789,0.01857
6930.91636,0.00510
6932.84483,0.01830
6934.77330,0.09702
6936.70177,0.20935
6938.63024,0.25664
6940.55870,0.20003
6942.48717,0.10260
6944.41564,0.04141
6946.34411,0.06547
6948.27258,0.10920
6950.20105,0.11930
6952.12952,0.15347
6954.05799,0.22801
6955.98645,0.27073
6957.91492,0.18411
6959.84339,0.03816
6961.77186,-0.03349
6963.70033,-0.03060
6965.62880,0.00262
6967.55727,0.03929
6969.48573,0.01474
6971.41420,-0.03759
6973.34267,-0.00530
6975.27114,0.04355
6977.19961,0.00220
6979.12808,-0.06989
6981.05655,-0.08621
6982.98501,-0.01003
6984.91348,0.07501
6986.84195,0.07123
6988.77042,-0.02656
6990.69889,-0.12091
6992.62736,-0.09363
6994.55583,0.00005
6996.48430,0.05112
6998.41276,0.04784
7000.34123,0.01485
7002.26970,0.01656
7004.19817,0.06107
7006.12664,0.06612
7008.05511,0.03647
7009.98358,0.04257
7011.91204,0.08439
7013.84051,0.12416
7015.76898,0.12426
7017.69745,0.08247
7019.62592,0.04257
7021.55439,0.06332
7023.48286,0.13227
7025.41133,0.17755
7027.33979,0.15610
7029.26826,0.12557
7031.19673,0.13265
7033.12520,0.14211
7035.05367,0.14548
7036.98214,0.08675
7038.91061,0.01219
7040.83907,0.02037
7042.76754,0.07023
7044.69601,0.07720
7046.62448,0.04619
7048.55295,-0.01350
7050.48142,-0.05773
7052.40989,-0.04010
7054.33836,-0.01949
7056.26682,-0.06929
7058.19529,-0.08095
7060.12376,-0.01691
7062.05223,0.01763
7063.98070,0.06095
7065.90917,0.13146
7067.83764,0.14220
7069.76610,0.08241
7071.69457,0.01110
7073.62304,-0.03562
7075.55151,-0.02155
7077.47998,0.05135
7079.40845,0.14339
7081.33692,0.19367
7083.26539,0.17442
7085.19385,0.15062
7087.12232,0.15415
7089.05079,0.13665
7090.97926,0.03804
7092.90773,-0.05530
7094.83620,-0.04248
7096.76467,0.03417
7098.69313,0.10049
7100.62160,0.09930
7102.55007,0.09637
7104.47854,0.16592
7106.40701,0.20130
7108.33548,0.13636
7110.26395,0.06702
7112.19242,0.01327
7114.12088,-0.03419
7116.04935,-0.07309
7117.97782,-0.08986
7119.90629,-0.05122
7121.83476,-0.00079
7123.76323,-0.02116
7125.69170,-0.11255
7127.62016,-0.15136
7129.54863,-0.05517
7131.47710,0.05765
7133.40557,0.05767
7135.33404,0.03621
7137.26251,0.08805
7139.19098,0.12035
7141.11944,0.08275
7143.04791,0.09440
7144.97638,0.18994
7146.90485,0.20702
7148.83332,0.16702
7150.76179,0.18026
7152.69026,0.16203
7154.61873,0.12072
7156.54719,0.15183
7158.47566,0.17724
7160.40413,0.14922
7162.33260,0.08996
7164.26107,0.04620
7166.18954,0.10997
7168.11801,0.26037
7170.04647,0.27606
7171.97494,0.09785
7173.90341,-0.05085
7175.83188,-0.13822
7177.76035,-0.24743
7179.68882,-0.31018
7181.61729,-0.20094
7183.54576,0.02813
7185.47422,0.06268
7187.40269,-0.04728
7189.33116,-0.01815
7191.25963,0.05837
7193.18810,-0.02519
7195.11657,-0.08037
7197.04504,-0.04722
7198.97350,-0.04614
7200.90197,-0.01613
7202.83044,0.12011
7204.75891,0.22044
7206.68738,0.07708
7208.61585,-0.09265
7210.54432,-0.11239
7212.47279,-0.04339
7214.40125,0.00936
7216.32972,0.04166
7218.25819,0.08404
7220.18666,0.10128
7222.11513,0.07857
7224.04360,0.07114
7225.97207,0.15178
7227.90053,0.30506
7229.82900,0.39636
7231.75747,0.21878
7233.68594,-0.02822
7235.61441,-0.02866
7237.54288,0.10070
7239.47135,0.15916
7241.39982,0.13647
7243.32828,0.05577
7245.25675,-0.01651
7247.18522,-0.03516
7249.11369,-0.07932
7251.04216,-0.12082
7252.97063,-0.01047
7254.89910,0.08126
7256.82756,0.00762
7258.75603,-0.11164
7260.68450,-0.16403
7262.61297,-0.14263
7264.54144,-0.10954
7266.46991,0.01319
7268.39838,0.14506
7270.32685,0.02640
7272.25531,-0.29202
7274.18378,-0.35561
7276.11225,-0.25637
7278.04072,-0.17209
7279.96919,-0.00591
7281.89766,0.16705
7283.82613,0.15542
7285.75459,0.02441
7287.68306,-0.05362
7289.61153,-0.01621
7291.54000,0.04736
7293.46847,0.07783
7295.39694,0.11675
7297.32541,0.17402
7299.25387,0.23584
7301.18234,0.28474
7303.11081,0.31029
7305.03928,0.27620
7306.96775,0.17850
7308.89622,0.07648
7310.82469,-0.08076
7312.75316,-0.18828
7314.68162,-0.14320
7316.61009,-0.05022
7318.53856,0.04778
7320.46703,0.09154
7322.39550,0.02552
7324.32397,-0.01249
7326.25244,0.04320
7328.18090,0.15015
7330.10937,0.22363
7332.03784,0.16991
7333.96631,0.06166
7335.89478,-0.00694
7337.82325,-0.00715
7339.75172,0.00865
7341.68019,-0.00418
7343.60865,0.05898
7345.53712,0.14443
7347.46559,0.14304
7349.39406,0.10569
7351.32253,0.04031
7353.25100,-0.01071
7355.17947,0.12426
7357.10793,0.41943
7359.03640,0.53244
7360.96487,0.30843
7362.89334,0.06125
7364.82181,0.00595
7366.75028,0.05699
7368.67875,0.07124
7370.60722,0.02923
7372.53568,0.00779
7374.46415,0.05500
7376.39262,0.09836
7378.32109,0.12233
7380.24956,0.22142
7382.17803,0.31114
7384.10650,0.23239
7386.03496,0.04735
7387.96343,-0.08178
7389.89190,-0.05930
7391.82037,0.01816
7393.74884,-0.00718
7395.67731,-0.07995
7397.60578,-0.06936
7399.53425,0.02820
7401.46271,0.15990
7403.39118,0.19762
7405.31965,0.12012
7407.24812,0.09163
7409.17659,0.12161
7411.10506,0.17907
7413.03353,0.23955
7414.96199,0.23217
7416.89046,0.11916
7418.81893,-0.04390
7420.74740,-0.04091
7422.67587,0.10895
7424.60434,0.18127
7426.53281,0.14911
7428.46128,0.09739
7430.38974,0.02045
7432.31821,-0.09076
7434.24668,-0.11176
7436.17515,0.00064
7438.10362,0.09867
7440.03209,0.10524
7441.96056,0.07385
7443.88902,0.02544
7445.81749,-0.00345
7447.74596,-0.00585
7449.67443,-0.00977
7451.60290,0.04151
7453.53137,0.10672
7455.45984,0.10380
7457.38831,0.08728
7459.31677,0.07809
7461.24524,0.07043
7463.17371,0.09752
7465.10218,0.15311
7467.03065,0.14558
7468.95912,0.09321
7470.88759,0.10134
7472.81605,0.18382
7474.74452,0.24224
7476.67299,0.15126
7478.60146,-0.00642
7480.52993,-0.01311
7482.45840,0.06395
7484.38687,0.13985
7486.31533,0.15923
7488.24380,0.06595
7490.17227,0.01663
7492.10074,0.11673
7494.02921,0.28610
7495.95768,0.38780
7497.88615,0.36156
