399.19301,7.43233
401.12148,0.28641
403.04995,-0.46059
404.97842,-0.27609
406.90689,-0.05467
408.83536,-0.05864
410.76382,-0.20967
412.69229,-0.18317
414.62076,0.06227
416.54923,0.19975
418.47770,0.12148
420.40617,0.00409
422.33464,-0.04067
424.26311,-0.07467
426.19157,-0.07334
428.12004,-0.06018
430.04851,-0.07811
431.97698,-0.11398
433.90545,-0.14895
435.83392,-0.15396
437.76239,-0.12084
439.69085,-0.06125
441.61932,-0.00060
443.54779,0.06706
445.47626,0.13019
447.40473,0.12617
449.33320,0.10147
451.26167,0.11038
453.19013,0.07984
455.11860,0.01155
457.04707,0.02171
458.97554,0.06272
460.90401,0.01473
462.83248,-0.02977
464.76095,0.02891
466.68942,0.11319
468.61788,0.12302
470.54635,0.11248
472.47482,0.22849
474.40329,0.31268
476.33176,0.10538
478.26023,-0.02431
480.18870,-0.03808
482.11716,-0.02098
484.04563,0.06620
485.97410,0.15134
487.90257,0.09562
489.83104,-0.01465
491.75951,-0.02253
493.68798,0.04434
495.61645,0.09247
497.54491,0.10632
499.47338,0.10893
501.40185,0.10181
503.33032,0.08329
505.25879,0.09786
507.18726,0.12622
509.11573,0.08823
511.04419,0.01940
512.97266,-0.00419
514.90113,0.02530
516.82960,0.06267
518.75807,0.07563
520.68654,0.07839
522.61501,0.07182
524.54348,0.06207
526.47194,0.06222
528.40041,0.05582
530.32888,0.06394
532.25735,0.11395
534.18582,0.14918
536.11429,0.11970
538.04276,0.09546
539.97122,0.13049
541.89969,0.15507
543.82816,0.12875
545.75663,0.11471
547.68510,0.11858
549.61357,0.04390
551.54204,-0.20010
553.47051,-0.41586
555.39897,-0.29492
557.32744,-0.02198
559.25591,0.09031
561.18438,0.09957
563.11285,0.08165
565.04132,0.06327
566.96979,0.07951
568.89825,0.09356
570.82672,0.08304
572.75519,0.06548
574.68366,0.05538
576.61213,0.05459
578.54060,0.06346
580.46907,0.07860
582.39754,0.08251
584.32600,0.08743
586.25447,0.10912
588.18294,0.11592
590.11141,0.10393
592.03988,0.09086
593.96835,0.07915
595.89682,0.07766
597.82528,0.07419
599.75375,0.05696
601.68222,0.04758
603.61069,0.06496
605.53916,0.08309
607.46763,0.08323
609.39610,0.07807
611.32456,0.06501
613.25303,0.05348
615.18150,0.06142
617.10997,0.07203
619.03844,0.06935
620.96691,0.06342
622.89538,0.06859
624.82385,0.08411
626.75231,0.09864
628.68078,0.10813
630.60925,0.10277
632.53772,0.07550
634.46619,0.05702
636.39466,0.06090
638.32313,0.05679
640.25159,0.05262
642.18006,0.06966
644.10853,0.07941
646.03700,0.07341
647.96547,0.07398
649.89394,0.08038
651.82241,0.07847
653.75088,0.06553
655.67934,0.05049
657.60781,0.05740
659.53628,0.09357
661.46475,0.11612
663.39322,0.11291
665.32169,0.11789
667.25016,0.13798
669.17862,0.14778
671.10709,0.13608
673.03556,0.11665
674.96403,0.09672
676.89250,0.07434
678.82097,0.06119
680.74944,0.08207
682.67791,0.10859
684.60637,0.10860
686.53484,0.09565
688.46331,0.08816
690.39178,0.09738
692.32025,0.11558
694.24872,0.11756
696.17719,0.10463
698.10565,0.10208
700.03412,0.11082
701.96259,0.11257
703.89106,0.10498
705.81953,0.10160
707.74800,0.10395
709.67647,0.11853
711.60494,0.15024
713.53340,0.15521
715.46187,0.12053
717.39034,0.09532
719.31881,0.09475
721.24728,0.10065
723.17575,0.10317
725.10422,0.09468
727.03268,0.07700
728.96115,0.07499
730.88962,0.08833
732.81809,0.08759
734.74656,0.07652
736.67503,0.07603
738.60350,0.08696
740.53197,0.09876
742.46043,0.10010
744.38890,0.09111
746.31737,0.08294
748.24584,0.09106
750.17431,0.11582
752.10278,0.12520
754.03125,0.10485
755.95971,0.08525
757.88818,0.08329
759.81665,0.08834
761.74512,0.09663
763.67359,0.10917
765.60206,0.11671
767.53053,0.10985
769.45900,0.09428
771.38746,0.08295
773.31593,0.08265
775.24440,0.09390
777.17287,0.11278
779.10134,0.12558
781.02981,0.12256
782.95828,0.11625
784.88674,0.11592
786.81521,0.11429
788.74368,0.11422
790.67215,0.11884
792.60062,0.12257
794.52909,0.12200
796.45756,0.10931
798.38602,0.08741
800.31449,0.07600
802.24296,0.08558
804.17143,0.10001
806.09990,0.10370
808.02837,0.10867
809.95684,0.12085
811.88531,0.12596
813.81377,0.11887
815.74224,0.10884
817.67071,0.09912
819.59918,0.08807
821.52765,0.08802
823.45612,0.10579
825.38459,0.12380
827.31305,0.12276
829.24152,0.11314
831.16999,0.10908
833.09846,0.10407
835.02693,0.09973
836.95540,0.10142
838.88387,0.10749
840.81234,0.11286
842.74080,0.11010
844.66927,0.10392
846.59774,0.09868
848.52621,0.09123
850.45468,0.09303
852.38315,0.10932
854.31162,0.11602
856.24008,0.10644
858.16855,0.09925
860.09702,0.10017
862.02549,0.10349
863.95396,0.10042
865.88243,0.08984
867.81090,0.07271
869.73937,0.05347
871.66783,0.05881
873.59630,0.08745
875.52477,0.10168
877.45324,0.10155
879.38171,0.10584
881.31018,0.10832
883.23865,0.10645
885.16711,0.10830
887.09558,0.11623
889.02405,0.12097
890.95252,0.11073
892.88099,0.09476
894.80946,0.09269
896.73793,0.10208
898.66640,0.11044
900.59486,0.11270
902.52333,0.11200
904.45180,0.11536
906.38027,0.11284
908.30874,0.10440
910.23721,0.10584
912.16568,0.11103
914.09414,0.11131
916.02261,0.11407
917.95108,0.12680
919.87955,0.13839
921.80802,0.13110
923.73649,0.11797
925.66496,0.12080
927.59343,0.12850
929.52189,0.12394
931.45036,0.11229
933.37883,0.10428
935.30730,0.10515
937.23577,0.11145
939.16424,0.11726
941.09271,0.12247
943.02117,0.12592
944.94964,0.12466
946.87811,0.12487
948.80658,0.13374
950.73505,0.14086
952.66352,0.13804
954.59199,0.13120
956.52045,0.12397
958.44892,0.11662
960.37739,0.11372
962.30586,0.11721
964.23433,0.11793
966.16280,0.11510
968.09127,0.11705
970.01974,0.11939
971.94820,0.11824
973.87667,0.11465
975.80514,0.10995
977.73361,0.11042
979.66208,0.11533
981.59055,0.12057
983.51902,0.12717
985.44748,0.13100
987.37595,0.12756
989.30442,0.12092
991.23289,0.11802
993.16136,0.12012
995.08983,0.12310
997.01830,0.12682
998.94677,0.13023
1000.87523,0.12823
1002.80370,0.12721
1004.73217,0.13363
1006.66064,0.13540
1008.58911,0.12837
1010.51758,0.13004
1012.44605,0.14106
1014.37451,0.13898
1016.30298,0.12561
1018.23145,0.12200
1020.15992,0.12309
1022.08839,0.11743
1024.01686,0.11009
1025.94533,0.08292
1027.87380,0.03255
1029.80226,0.02355
1031.73073,0.07112
1033.65920,0.10870
1035.58767,0.11969
1037.51614,0.12894
1039.44461,0.13742
1041.37308,0.13859
1043.30154,0.13112
1045.23001,0.11914
1047.15848,0.11781
1049.08695,0.13222
1051.01542,0.14233
1052.94389,0.14192
1054.87236,0.14226
1056.80083,0.14151
1058.72929,0.13801
1060.65776,0.13518
1062.58623,0.13201
1064.51470,0.12954
1066.44317,0.13287
1068.37164,0.14145
1070.30011,0.14634
1072.22857,0.14194
1074.15704,0.13036
1076.08551,0.12051
1078.01398,0.12510
1079.94245,0.14198
1081.87092,0.15034
1083.79939,0.14440
1085.72786,0.14219
1087.65632,0.14734
1089.58479,0.14925
1091.51326,0.14765
1093.44173,0.14291
1095.37020,0.13628
1097.29867,0.13446
1099.22714,0.14042
1101.15560,0.14521
1103.08407,0.13715
1105.01254,0.13028
1106.94101,0.13862
1108.86948,0.14071
1110.79795,0.12522
1112.72642,0.11270
1114.65489,0.11311
1116.58335,0.12328
1118.51182,0.14009
1120.44029,0.15161
1122.36876,0.15233
1124.29723,0.14970
1126.22570,0.14553
1128.15417,0.14353
1130.08263,0.14863
1132.01110,0.15019
1133.93957,0.14098
1135.86804,0.12939
1137.79651,0.12709
1139.72498,0.13646
1141.65345,0.14569
1143.58191,0.14602
1145.51038,0.14092
1147.43885,0.13756
1149.36732,0.13788
1151.29579,0.13678
1153.22426,0.13314
1155.15273,0.13401
1157.08120,0.13980
1159.00966,0.14172
1160.93813,0.14295
1162.86660,0.14989
1164.79507,0.15690
1166.72354,0.15905
1168.65201,0.15526
1170.58048,0.15143
1172.50894,0.15293
1174.43741,0.15460
1176.36588,0.15443
1178.29435,0.15327
1180.22282,0.14955
1182.15129,0.14477
1184.07976,0.14577
1186.00823,0.15878
1187.93669,0.17014
1189.86516,0.16195
1191.79363,0.14527
1193.72210,0.13730
1195.65057,0.13690
1197.57904,0.13807
1199.50751,0.13929
1201.43597,0.14050
1203.36444,0.14044
1205.29291,0.13705
1207.22138,0.12998
1209.14985,0.12712
1211.07832,0.13520
1213.00679,0.14717
1214.93526,0.15494
1216.86372,0.15680
1218.79219,0.15427
1220.72066,0.14913
1222.64913,0.14028
1224.57760,0.13296
1226.50607,0.13386
1228.43454,0.13715
1230.36300,0.13824
1232.29147,0.14080
1234.21994,0.14431
1236.14841,0.14653
1238.07688,0.14852
1240.00535,0.15048
1241.93382,0.15143
1243.86229,0.15171
1245.79075,0.15167
1247.71922,0.15045
1249.64769,0.14819
1251.57616,0.14597
1253.50463,0.14566
1255.43310,0.14835
1257.36157,0.15233
1259.29003,0.15438
1261.21850,0.15158
1263.14697,0.14585
1265.07544,0.14210
1267.00391,0.14190
1268.93238,0.14483
1270.86085,0.15056
1272.78932,0.15583
1274.71778,0.15702
1276.64625,0.15501
1278.57472,0.15293
1280.50319,0.15225
1282.43166,0.15384
1284.36013,0.15700
1286.28860,0.15539
1288.21706,0.15082
1290.14553,0.15437
1292.07400,0.16155
1294.00247,0.15976
1295.93094,0.15091
1297.85941,0.14561
1299.78788,0.14670
1301.71634,0.14714
1303.64481,0.14260
1305.57328,0.14122
1307.50175,0.14884
1309.43022,0.15635
1311.35869,0.15833
1313.28716,0.15844
1315.21563,0.15831
1317.14409,0.15951
1319.07256,0.16199
1321.00103,0.16302
1322.92950,0.16057
1324.85797,0.15317
1326.78644,0.14662
1328.71491,0.14846
1330.64337,0.15359
1332.57184,0.15772
1334.50031,0.16277
1336.42878,0.16616
1338.35725,0.16500
1340.28572,0.15813
1342.21419,0.14456
1344.14266,0.12488
1346.07112,0.11631
1347.99959,0.13389
1349.92806,0.15415
1351.85653,0.15839
1353.78500,0.15806
1355.71347,0.16029
1357.64194,0.16445
1359.57040,0.16905
1361.49887,0.16935
1363.42734,0.16247
1365.35581,0.15712
1367.28428,0.15854
1369.21275,0.16040
1371.14122,0.15934
1373.06969,0.16184
1374.99815,0.16843
1376.92662,0.16877
1378.85509,0.16474
1380.78356,0.16362
1382.71203,0.16647
1384.64050,0.17351
1386.56897,0.18058
1388.49743,0.17853
1390.42590,0.17104
1392.35437,0.16592
1394.28284,0.16569
1396.21131,0.17018
1398.13978,0.16942
1400.06825,0.16258
1401.99672,0.16269
1403.92518,0.16981
1405.85365,0.17527
1407.78212,0.17896
1409.71059,0.17949
1411.63906,0.17083
1413.56753,0.16245
1415.49600,0.16737
1417.42446,0.18019
1419.35293,0.18198
1421.28140,0.17475
1423.20987,0.17149
1425.13834,0.16902
1427.06681,0.17024
1428.99528,0.17861
1430.92375,0.18280
1432.85221,0.17636
1434.78068,0.17173
1436.70915,0.17234
1438.63762,0.17056
1440.56609,0.16931
1442.49456,0.17091
1444.42303,0.17437
1446.35149,0.17940
1448.27996,0.18421
1450.20843,0.18359
1452.13690,0.17896
1454.06537,0.18179
1455.99384,0.20183
1457.92231,0.21391
1459.85077,0.19425
1461.77924,0.18229
1463.70771,0.18618
1465.63618,0.18899
1467.56465,0.18283
1469.49312,0.18379
1471.42159,0.19526
1473.35006,0.20069
1475.27852,0.19385
1477.20699,0.18842
1479.13546,0.18510
1481.06393,0.18147
1482.99240,0.17978
1484.92087,0.18530
1486.84934,0.19807
1488.77780,0.20636
1490.70627,0.19947
1492.63474,0.19195
1494.56321,0.19241
1496.49168,0.19713
1498.42015,0.19738
1500.34862,0.19348
1502.27709,0.19473
1504.20555,0.20616
1506.13402,0.22883
1508.06249,0.22967
1509.99096,0.20905
1511.91943,0.19935
1513.84790,0.20302
1515.77637,0.21488
1517.70483,0.22597
1519.63330,0.23472
1521.56177,0.23250
1523.49024,0.21341
1525.41871,0.20061
1527.34718,0.19368
1529.27565,0.18931
1531.20412,0.19535
1533.13258,0.20867
1535.06105,0.21082
1536.98952,0.21314
1538.91799,0.23945
1540.84646,0.26731
1542.77493,0.24659
1544.70340,0.21657
1546.63186,0.19795
1548.56033,0.19208
1550.48880,0.19358
1552.41727,0.20065
1554.34574,0.21115
1556.27421,0.22652
1558.20268,0.25106
1560.13115,0.23214
1562.05961,0.20040
1563.98808,0.19101
1565.91655,0.19401
1567.84502,0.20213
1569.77349,0.20339
1571.70196,0.19646
1573.63043,0.19882
1575.55889,0.20788
1577.48736,0.20495
1579.41583,0.19617
1581.34430,0.19207
1583.27277,0.18903
1585.20124,0.18541
1587.12971,0.18475
1589.05818,0.18652
1590.98664,0.18675
1592.91511,0.18671
1594.84358,0.18692
1596.77205,0.18375
1598.70052,0.17959
1600.62899,0.17957
1602.55746,0.18320
1604.48592,0.18486
1606.41439,0.18377
1608.34286,0.18394
1610.27133,0.18271
1612.19980,0.18151
1614.12827,0.19015
1616.05674,0.20385
1617.98521,0.19873
1619.91367,0.19033
1621.84214,0.19691
1623.77061,0.20471
1625.69908,0.20398
1627.62755,0.20239
1629.55602,0.19743
1631.48449,0.19430
1633.41295,0.20501
1635.34142,0.22635
1637.26989,0.22345
1639.19836,0.20443
1641.12683,0.19445
1643.05530,0.19771
1644.98377,0.21541
1646.91223,0.23543
1648.84070,0.23310
1650.76917,0.22973
1652.69764,0.23834
1654.62611,0.23054
1656.55458,0.21123
1658.48305,0.20041
1660.41152,0.19548
1662.33998,0.19041
1664.26845,0.18811
1666.19692,0.19264
1668.12539,0.20579
1670.05386,0.22001
1671.98233,0.21687
1673.91080,0.20922
1675.83926,0.20571
1677.76773,0.20275
1679.69620,0.20324
1681.62467,0.21352
1683.55314,0.23033
1685.48161,0.22548
1687.41008,0.20775
1689.33855,0.19744
1691.26701,0.19561
1693.19548,0.20034
1695.12395,0.20958
1697.05242,0.22066
1698.98089,0.22985
1700.90936,0.22544
1702.83783,0.21729
1704.76629,0.21876
1706.69476,0.21526
1708.62323,0.20232
1710.55170,0.19254
1712.48017,0.19285
1714.40864,0.20365
1716.33711,0.21904
1718.26558,0.21957
1720.19404,0.20459
1722.12251,0.19543
1724.05098,0.19334
1725.97945,0.19129
1727.90792,0.18944
1729.83639,0.19166
1731.76486,0.19942
1733.69332,0.20561
1735.62179,0.19921
1737.55026,0.19593
1739.47873,0.20103
1741.40720,0.20365
1743.33567,0.19908
1745.26414,0.19430
1747.19261,0.19758
1749.12107,0.20552
1751.04954,0.20129
1752.97801,0.19095
1754.90648,0.18830
1756.83495,0.18978
1758.76342,0.19181
1760.69189,0.19545
1762.62035,0.19454
1764.54882,0.19127
1766.47729,0.19647
1768.40576,0.20654
1770.33423,0.21333
1772.26270,0.21380
1774.19117,0.20595
1776.11964,0.19729
1778.04810,0.19230
1779.97657,0.19251
1781.90504,0.19537
1783.83351,0.19516
1785.76198,0.19264
1787.69045,0.19234
1789.61892,0.19677
1791.54738,0.20014
1793.47585,0.19390
1795.40432,0.18935
1797.33279,0.19236
1799.26126,0.19649
1801.18973,0.19763
1803.11820,0.19420
1805.04666,0.18857
1806.97513,0.18564
1808.90360,0.18635
1810.83207,0.18733
1812.76054,0.18487
1814.68901,0.18043
1816.61748,0.18433
1818.54595,0.20599
1820.47441,0.22682
1822.40288,0.22109
1824.33135,0.20006
1826.25982,0.19192
1828.18829,0.19671
1830.11676,0.19716
1832.04523,0.18904
1833.97369,0.18439
1835.90216,0.18633
1837.83063,0.18919
1839.75910,0.18970
1841.68757,0.19075
1843.61604,0.19491
1845.54451,0.19573
1847.47298,0.19064
1849.40144,0.18625
1851.32991,0.18563
1853.25838,0.18764
1855.18685,0.18953
1857.11532,0.19006
1859.04379,0.18910
1860.97226,0.18646
1862.90072,0.18351
1864.82919,0.18505
1866.75766,0.19537
1868.68613,0.20460
1870.61460,0.19872
1872.54307,0.18955
1874.47154,0.18664
1876.40001,0.18746
1878.32847,0.18809
1880.25694,0.18599
1882.18541,0.18332
1884.11388,0.18235
1886.04235,0.18264
1887.97082,0.18754
1889.89929,0.19485
1891.82775,0.19746
1893.75622,0.19816
1895.68469,0.19663
1897.61316,0.19301
1899.54163,0.19170
1901.47010,0.18987
1903.39857,0.18761
1905.32704,0.18803
1907.25550,0.18872
1909.18397,0.18738
1911.11244,0.18663
1913.04091,0.18762
1914.96938,0.18814
1916.89785,0.18884
1918.82632,0.18991
1920.75478,0.19077
1922.68325,0.19065
1924.61172,0.18874
1926.54019,0.18881
1928.46866,0.19082
1930.39713,0.19060
1932.32560,0.18873
1934.25407,0.18816
1936.18253,0.18904
1938.11100,0.19131
1940.03947,0.19478
1941.96794,0.19576
1943.89641,0.19257
1945.82488,0.18906
1947.75335,0.18716
1949.68181,0.18735
1951.61028,0.18912
1953.53875,0.18882
1955.46722,0.18513
1957.39569,0.18240
1959.32416,0.18381
1961.25263,0.18619
1963.18110,0.18658
1965.10956,0.18766
1967.03803,0.19052
1968.96650,0.19222
1970.89497,0.19134
1972.82344,0.18876
1974.75191,0.18733
1976.68038,0.19019
1978.60884,0.19638
1980.53731,0.19900
1982.46578,0.19370
1984.39425,0.18843
1986.32272,0.18919
1988.25119,0.19042
1990.17966,0.19060
1992.10812,0.19188
1994.03659,0.19071
1995.96506,0.18806
1997.89353,0.18862
1999.82200,0.19072
2001.75047,0.19155
2003.67894,0.19342
2005.60741,0.19622
2007.53587,0.19463
2009.46434,0.18959
2011.39281,0.18790
2013.32128,0.18905
2015.24975,0.18992
2017.17822,0.19082
2019.10669,0.18962
2021.03515,0.18686
2022.96362,0.18666
2024.89209,0.18787
2026.82056,0.18761
2028.74903,0.18708
2030.67750,0.18746
2032.60597,0.18831
2034.53444,0.18895
2036.46290,0.18888
2038.39137,0.18879
2040.31984,0.18906
2042.24831,0.18904
2044.17678,0.18835
2046.10525,0.18746
2048.03372,0.18779
2049.96218,0.18899
2051.89065,0.18916
2053.81912,0.18856
2055.74759,0.18912
2057.67606,0.19095
2059.60453,0.19147
2061.53300,0.18997
2063.46147,0.18975
2065.38993,0.19181
2067.31840,0.19335
2069.24687,0.19394
2071.17534,0.19516
2073.10381,0.19620
2075.03228,0.19588
2076.96075,0.19481
2078.88921,0.19307
2080.81768,0.19018
2082.74615,0.18770
2084.67462,0.18774
2086.60309,0.18906
2088.53156,0.18913
2090.46003,0.18786
2092.38850,0.18649
2094.31696,0.18658
2096.24543,0.19053
2098.17390,0.19662
2100.10237,0.19890
2102.03084,0.19675
2103.95931,0.19431
2105.88778,0.19368
2107.81624,0.19344
2109.74471,0.19294
2111.67318,0.19412
2113.60165,0.19581
2115.53012,0.19597
2117.45859,0.19609
2119.38706,0.19585
2121.31553,0.19363
2123.24399,0.19160
2125.17246,0.19054
2127.10093,0.18822
2129.02940,0.18637
2130.95787,0.18681
2132.88634,0.19051
2134.81481,0.19722
2136.74327,0.20083
2138.67174,0.20057
2140.60021,0.19916
2142.52868,0.19560
2144.45715,0.19259
2146.38562,0.19150
2148.31409,0.19063
2150.24255,0.19073
2152.17102,0.19348
2154.09949,0.19771
2156.02796,0.19970
2157.95643,0.19799
2159.88490,0.19482
2161.81337,0.19426
2163.74184,0.19596
2165.67030,0.19541
2167.59877,0.19249
2169.52724,0.19050
2171.45571,0.19064
2173.38418,0.19194
2175.31265,0.19325
2177.24112,0.19462
2179.16958,0.19654
2181.09805,0.19655
2183.02652,0.19263
2184.95499,0.18910
2186.88346,0.18958
2188.81193,0.19054
2190.74040,0.18891
2192.66887,0.18768
2194.59733,0.18911
2196.52580,0.19101
2198.45427,0.19162
2200.38274,0.19340
2202.31121,0.19683
2204.23968,0.19633
2206.16815,0.19131
2208.09661,0.18856
2210.02508,0.19105
2211.95355,0.19550
2213.88202,0.19651
2215.81049,0.19243
2217.73896,0.18811
2219.66743,0.18743
2221.59590,0.18870
2223.52436,0.18978
2225.45283,0.19141
2227.38130,0.19448
2229.30977,0.19754
2231.23824,0.20070
2233.16671,0.20313
2235.09518,0.20100
2237.02364,0.19672
2238.95211,0.19515
2240.88058,0.19463
2242.80905,0.19356
2244.73752,0.19410
2246.66599,0.19587
2248.59446,0.19581
2250.52293,0.19536
2252.45139,0.19678
2254.37986,0.19677
2256.30833,0.19488
2258.23680,0.19481
2260.16527,0.19578
2262.09374,0.19549
2264.02221,0.19383
2265.95067,0.19164
2267.87914,0.19025
2269.80761,0.18950
2271.73608,0.18883
2273.66455,0.18986
2275.59302,0.19255
2277.52149,0.19309
2279.44996,0.18959
2281.37842,0.18588
2283.30689,0.18720
2285.23536,0.19130
2287.16383,0.19205
2289.09230,0.19133
2291.02077,0.19613
2292.94924,0.20798
2294.87770,0.21811
2296.80617,0.21514
2298.73464,0.20179
2300.66311,0.19283
2302.59158,0.19433
2304.52005,0.19950
2306.44852,0.20182
2308.37699,0.19989
2310.30545,0.19750
2312.23392,0.20017
2314.16239,0.20387
2316.09086,0.20076
2318.01933,0.19788
2319.94780,0.20553
2321.87627,0.21077
2323.80473,0.20375
2325.73320,0.19850
2327.66167,0.20162
2329.59014,0.21274
2331.51861,0.21807
2333.44708,0.20222
2335.37555,0.18825
2337.30401,0.19933
2339.23248,0.21823
2341.16095,0.21691
2343.08942,0.19808
2345.01789,0.18749
2346.94636,0.19193
2348.87483,0.19431
2350.80330,0.18816
2352.73176,0.18391
2354.66023,0.20242
2356.58870,0.23277
2358.51717,0.22869
2360.44564,0.20051
2362.37411,0.18788
2364.30258,0.18149
2366.23104,0.17259
2368.15951,0.17172
2370.08798,0.18312
2372.01645,0.19827
2373.94492,0.20353
2375.87339,0.19756
2377.80186,0.19085
2379.73033,0.18929
2381.65879,0.19239
2383.58726,0.19651
2385.51573,0.19771
2387.44420,0.19670
2389.37267,0.19615
2391.30114,0.19527
2393.22961,0.19283
2395.15807,0.19157
2397.08654,0.19310
2399.01501,0.19489
2400.94348,0.19565
2402.87195,0.19714
2404.80042,0.20009
2406.72889,0.20100
2408.65736,0.19827
2410.58582,0.19514
2412.51429,0.19416
2414.44276,0.19481
2416.37123,0.19541
2418.29970,0.19582
2420.22817,0.19420
2422.15664,0.18969
2424.08510,0.18792
2426.01357,0.19056
2427.94204,0.19377
2429.87051,0.19732
2431.79898,0.19954
2433.72745,0.19720
2435.65592,0.19298
2437.58439,0.19299
2439.51285,0.19742
2441.44132,0.20032
2443.36979,0.19820
2445.29826,0.19378
2447.22673,0.19176
2449.15520,0.18551
2451.08367,0.17375
2453.01213,0.17780
2454.94060,0.19659
2456.86907,0.20331
2458.79754,0.19693
2460.72601,0.19316
2462.65448,0.19429
2464.58295,0.19600
2466.51142,0.19649
2468.43988,0.19513
2470.36835,0.19299
2472.29682,0.19186
2474.22529,0.19247
2476.15376,0.19541
2478.08223,0.20052
2480.01070,0.20521
2481.93916,0.20691
2483.86763,0.20632
2485.79610,0.20452
2487.72457,0.20247
2489.65304,0.20155
2491.58151,0.20038
2493.50998,0.19878
2495.43844,0.19914
2497.36691,0.20047
2499.29538,0.20168
2501.22385,0.20438
2503.15232,0.20673
2505.08079,0.20515
2507.00926,0.19972
2508.93773,0.19464
2510.86619,0.19508
2512.79466,0.19928
2514.72313,0.20024
2516.65160,0.19786
2518.58007,0.19668
2520.50854,0.19519
2522.43701,0.19282
2524.36547,0.19341
2526.29394,0.19649
2528.22241,0.19975
2530.15088,0.19994
2532.07935,0.19685
2534.00782,0.19723
2535.93629,0.20130
2537.86476,0.20368
2539.79322,0.20437
2541.72169,0.20427
2543.65016,0.20201
2545.57863,0.19885
2547.50710,0.19683
2549.43557,0.19595
2551.36404,0.19654
2553.29250,0.19827
2555.22097,0.19911
2557.14944,0.19646
2559.07791,0.19364
2561.00638,0.19564
2562.93485,0.19859
2564.86332,0.19931
2566.79179,0.19951
2568.72025,0.19900
2570.64872,0.19785
2572.57719,0.19771
2574.50566,0.19903
2576.43413,0.20101
2578.36260,0.20203
2580.29107,0.20050
2582.21953,0.19764
2584.14800,0.19649
2586.07647,0.19843
2588.00494,0.20156
2589.93341,0.20289
2591.86188,0.20136
2593.79035,0.19909
2595.71882,0.19975
2597.64728,0.20091
2599.57575,0.19925
2601.50422,0.19966
2603.43269,0.20337
2605.36116,0.20498
2607.28963,0.20253
2609.21810,0.19253
2611.14656,0.17649
2613.07503,0.17276
2615.00350,0.18741
2616.93197,0.20078
2618.86044,0.20296
2620.78891,0.20181
2622.71738,0.20126
2624.64585,0.20027
2626.57431,0.19912
2628.50278,0.19928
2630.43125,0.19947
2632.35972,0.19737
2634.28819,0.19654
2636.21666,0.19724
2638.14513,0.19601
2640.07359,0.19718
2642.00206,0.20411
2643.93053,0.21008
2645.85900,0.21007
2647.78747,0.20740
2649.71594,0.20445
2651.64441,0.20181
2653.57288,0.20128
2655.50134,0.20414
2657.42981,0.20742
2659.35828,0.20665
2661.28675,0.20422
2663.21522,0.20393
2665.14369,0.20648
2667.07216,0.20986
2669.00062,0.21000
2670.92909,0.20839
2672.85756,0.20778
2674.78603,0.20570
2676.71450,0.20328
2678.64297,0.20457
2680.57144,0.20777
2682.49990,0.21020
2684.42837,0.21096
2686.35684,0.20893
2688.28531,0.20631
2690.21378,0.20577
2692.14225,0.20638
2694.07072,0.20584
2695.99919,0.20340
2697.92765,0.20098
2699.85612,0.20106
2701.78459,0.20445
2703.71306,0.20730
2705.64153,0.20616
2707.57000,0.20612
2709.49847,0.20870
2711.42693,0.20744
2713.35540,0.20342
2715.28387,0.20242
2717.21234,0.20434
2719.14081,0.20623
2721.06928,0.20686
2722.99775,0.20609
2724.92622,0.20628
2726.85468,0.20927
2728.78315,0.21092
2730.71162,0.20973
2732.64009,0.20982
2734.56856,0.21201
2736.49703,0.21431
2738.42550,0.21553
2740.35396,0.21441
2742.28243,0.21143
2744.21090,0.21054
2746.13937,0.21312
2748.06784,0.21602
2749.99631,0.21611
2751.92478,0.21324
2753.85325,0.20961
2755.78171,0.20688
2757.71018,0.20708
2759.63865,0.21102
2761.56712,0.21384
2763.49559,0.21370
2765.42406,0.21542
2767.35253,0.21466
2769.28099,0.20417
2771.20946,0.19640
2773.13793,0.20265
2775.06640,0.21289
2776.99487,0.21983
2778.92334,0.22424
2780.85181,0.22365
2782.78028,0.21960
2784.70874,0.21570
2786.63721,0.21168
2788.56568,0.20919
2790.49415,0.20991
2792.42262,0.21181
2794.35109,0.21321
2796.27956,0.21304
2798.20802,0.21115
2800.13649,0.21043
2802.06496,0.21168
2803.99343,0.21218
2805.92190,0.21209
2807.85037,0.21221
2809.77884,0.21198
2811.70731,0.21177
2813.63577,0.21013
2815.56424,0.20939
2817.49271,0.21328
2819.42118,0.21652
2821.34965,0.21578
2823.27812,0.21509
2825.20659,0.21620
2827.13505,0.21788
2829.06352,0.21817
2830.99199,0.21651
2832.92046,0.21500
2834.84893,0.21531
2836.77740,0.21774
2838.70587,0.22102
2840.63433,0.22237
2842.56280,0.22077
2844.49127,0.21840
2846.41974,0.21552
2848.34821,0.21259
2850.27668,0.21531
2852.20515,0.22150
2854.13362,0.22298
2856.06208,0.22168
2857.99055,0.22119
2859.91902,0.21849
2861.84749,0.21235
2863.77596,0.20891
2865.70443,0.21396
2867.63290,0.22153
2869.56136,0.22247
2871.48983,0.21944
2873.41830,0.21824
2875.34677,0.21984
2877.27524,0.22348
2879.20371,0.22291
2881.13218,0.21752
2883.06065,0.21302
2884.98911,0.21009
2886.91758,0.21011
2888.84605,0.21085
2890.77452,0.21092
2892.70299,0.21472
2894.63146,0.22014
2896.55993,0.22245
2898.48839,0.22273
2900.41686,0.22241
2902.34533,0.21962
2904.27380,0.21408
2906.20227,0.20897
2908.13074,0.20683
2910.05921,0.20687
2911.98768,0.20738
2913.91614,0.20728
2915.84461,0.20739
2917.77308,0.20807
2919.70155,0.20758
2921.63002,0.20946
2923.55849,0.21643
2925.48696,0.22912
2927.41542,0.24880
2929.34389,0.26128
2931.27236,0.24850
2933.20083,0.22351
2935.12930,0.21158
2937.05777,0.21034
2938.98624,0.21121
2940.91471,0.21472
2942.84317,0.21693
2944.77164,0.21651
2946.70011,0.21600
2948.62858,0.21768
2950.55705,0.21978
2952.48552,0.21788
2954.41399,0.21363
2956.34245,0.20934
2958.27092,0.20727
2960.19939,0.21099
2962.12786,0.21609
2964.05633,0.21671
2965.98480,0.21310
2967.91327,0.20686
2969.84174,0.20320
2971.77020,0.20620
2973.69867,0.21358
2975.62714,0.21853
2977.55561,0.21788
2979.48408,0.21879
2981.41255,0.22468
2983.34102,0.22982
2985.26948,0.22786
2987.19795,0.21930
2989.12642,0.21232
2991.05489,0.21155
2992.98336,0.21368
2994.91183,0.21600
2996.84030,0.21758
2998.76877,0.21844
3000.69723,0.22208
3002.62570,0.22483
3004.55417,0.22089
3006.48264,0.21718
3008.41111,0.21854
3010.33958,0.21647
3012.26805,0.20620
3014.19651,0.19028
3016.12498,0.17359
3018.05345,0.17354
3019.98192,0.19543
3021.91039,0.21748
3023.83886,0.22561
3025.76733,0.22319
3027.69579,0.21937
3029.62426,0.21981
3031.55273,0.22092
3033.48120,0.22002
3035.40967,0.22017
3037.33814,0.22297
3039.26661,0.22780
3041.19508,0.22930
3043.12354,0.22430
3045.05201,0.21903
3046.98048,0.21625
3048.90895,0.21338
3050.83742,0.21131
3052.76589,0.21489
3054.69436,0.22034
3056.62282,0.21796
3058.55129,0.21254
3060.47976,0.21129
3062.40823,0.21156
3064.33670,0.21336
3066.26517,0.21759
3068.19364,0.22075
3070.12211,0.22184
3072.05057,0.22257
3073.97904,0.22100
3075.90751,0.21528
3077.83598,0.20999
3079.76445,0.20931
3081.69292,0.21131
3083.62139,0.21239
3085.54985,0.21473
3087.47832,0.21524
3089.40679,0.20513
3091.33526,0.20192
3093.26373,0.21590
3095.19220,0.22380
3097.12067,0.22290
3099.04914,0.22594
3100.97760,0.22716
3102.90607,0.22140
3104.83454,0.21951
3106.76301,0.22553
3108.69148,0.22804
3110.61995,0.22284
3112.54842,0.21723
3114.47688,0.21962
3116.40535,0.22768
3118.33382,0.23112
3120.26229,0.22629
3122.19076,0.21989
3124.11923,0.22185
3126.04770,0.23021
3127.97617,0.23424
3129.90463,0.23164
3131.83310,0.22945
3133.76157,0.22852
3135.69004,0.22598
3137.61851,0.22535
3139.54698,0.22577
3141.47545,0.22353
3143.40391,0.22230
3145.33238,0.22571
3147.26085,0.22846
3149.18932,0.22560
3151.11779,0.22311
3153.04626,0.22762
3154.97473,0.23377
3156.90320,0.23333
3158.83166,0.23002
3160.76013,0.23000
3162.68860,0.22928
3164.61707,0.22438
3166.54554,0.22188
3168.47401,0.22935
3170.40248,0.24276
3172.33094,0.24580
3174.25941,0.23332
3176.18788,0.22303
3178.11635,0.22577
3180.04482,0.23027
3181.97329,0.22590
3183.90176,0.21985
3185.83022,0.21993
3187.75869,0.22058
3189.68716,0.22035
3191.61563,0.22316
3193.54410,0.22460
3195.47257,0.22254
3197.40104,0.22378
3199.32951,0.22861
3201.25797,0.22992
3203.18644,0.22573
3205.11491,0.21834
3207.04338,0.21295
3208.97185,0.21583
3210.90032,0.22481
3212.82879,0.23225
3214.75725,0.23437
3216.68572,0.23116
3218.61419,0.22698
3220.54266,0.22763
3222.47113,0.23269
3224.39960,0.23529
3226.32807,0.22849
3228.25654,0.21600
3230.18500,0.21288
3232.11347,0.22300
3234.04194,0.23126
3235.97041,0.22927
3237.89888,0.22658
3239.82735,0.22891
3241.75582,0.22677
3243.68428,0.21784
3245.61275,0.21151
3247.54122,0.21355
3249.46969,0.22028
3251.39816,0.22037
3253.32663,0.21712
3255.25510,0.22120
3257.18357,0.22621
3259.11203,0.22463
3261.04050,0.21789
3262.96897,0.21139
3264.89744,0.21011
3266.82591,0.21207
3268.75438,0.21328
3270.68285,0.21710
3272.61131,0.22399
3274.53978,0.22793
3276.46825,0.22716
3278.39672,0.21972
3280.32519,0.21181
3282.25366,0.21437
3284.18213,0.22109
3286.11060,0.22262
3288.03906,0.22281
3289.96753,0.22626
3291.89600,0.22798
3293.82447,0.22352
3295.75294,0.21779
3297.68141,0.21487
3299.60988,0.21603
3301.53834,0.21826
3303.46681,0.21349
3305.39528,0.20750
3307.32375,0.21074
3309.25222,0.21659
3311.18069,0.21677
3313.10916,0.21266
3315.03763,0.21208
3316.96609,0.22032
3318.89456,0.23000
3320.82303,0.23416
3322.75150,0.23447
3324.67997,0.23078
3326.60844,0.22390
3328.53691,0.22085
3330.46537,0.22348
3332.39384,0.22596
3334.32231,0.22615
3336.25078,0.22507
3338.17925,0.22245
3340.10772,0.22163
3342.03619,0.22595
3343.96466,0.23109
3345.89312,0.23285
3347.82159,0.23077
3349.75006,0.22433
3351.67853,0.21716
3353.60700,0.21413
3355.53547,0.21505
3357.46394,0.21831
3359.39240,0.22284
3361.32087,0.22604
3363.24934,0.22711
3365.17781,0.22704
3367.10628,0.22635
3369.03475,0.22817
3370.96322,0.23042
3372.89168,0.22949
3374.82015,0.22811
3376.74862,0.22456
3378.67709,0.22049
3380.60556,0.22407
3382.53403,0.22955
3384.46250,0.22623
3386.39097,0.22018
3388.31943,0.21734
3390.24790,0.21254
3392.17637,0.20884
3394.10484,0.21378
3396.03331,0.22219
3397.96178,0.22713
3399.89025,0.23004
3401.81871,0.22877
3403.74718,0.22133
3405.67565,0.21633
3407.60412,0.22088
3409.53259,0.22989
3411.46106,0.23351
3413.38953,0.23092
3415.31800,0.22952
3417.24646,0.23443
3419.17493,0.23972
3421.10340,0.23655
3423.03187,0.22831
3424.96034,0.22195
3426.88881,0.22184
3428.81728,0.22761
3430.74574,0.22789
3432.67421,0.21812
3434.60268,0.20976
3436.53115,0.20930
3438.45962,0.21412
3440.38809,0.22100
3442.31656,0.22454
3444.24503,0.22392
3446.17349,0.22322
3448.10196,0.21980
3450.03043,0.21327
3451.95890,0.21049
3453.88737,0.20919
3455.81584,0.20411
3457.74431,0.20080
3459.67277,0.20390
3461.60124,0.20743
3463.52971,0.20709
3465.45818,0.20622
3467.38665,0.20444
3469.31512,0.19997
3471.24359,0.19506
3473.17206,0.19320
3475.10052,0.19586
3477.02899,0.19883
3478.95746,0.20217
3480.88593,0.20885
3482.81440,0.21179
3484.74287,0.20593
3486.67134,0.19755
3488.59980,0.19239
3490.52827,0.19075
3492.45674,0.19098
3494.38521,0.19089
3496.31368,0.19040
3498.24215,0.19193
3500.17062,0.19557
3502.09909,0.19716
3504.02755,0.19474
3505.95602,0.19372
3507.88449,0.19466
3509.81296,0.19235
3511.74143,0.18923
3513.66990,0.19029
3515.59837,0.19372
3517.52683,0.19561
3519.45530,0.19415
3521.38377,0.19369
3523.31224,0.19762
3525.24071,0.20134
3527.16918,0.20143
3529.09765,0.19758
3531.02611,0.19265
3532.95458,0.18953
3534.88305,0.18570
3536.81152,0.18137
3538.73999,0.18025
3540.66846,0.18318
3542.59693,0.18834
3544.52540,0.19040
3546.45386,0.18688
3548.38233,0.18278
3550.31080,0.18065
3552.23927,0.17998
3554.16774,0.17781
3556.09621,0.17318
3558.02468,0.17152
3559.95314,0.17376
3561.88161,0.17581
3563.81008,0.17974
3565.73855,0.18938
3567.66702,0.19602
3569.59549,0.19047
3571.52396,0.18227
3573.45243,0.17781
3575.38089,0.17382
3577.30936,0.16543
3579.23783,0.15785
3581.16630,0.15682
3583.09477,0.16062
3585.02324,0.17101
3586.95171,0.18461
3588.88017,0.18254
3590.80864,0.17106
3592.73711,0.16773
3594.66558,0.17011
3596.59405,0.16798
3598.52252,0.16473
3600.45099,0.16618
3602.37946,0.16681
3604.30792,0.16510
3606.23639,0.16599
3608.16486,0.16737
3610.09333,0.16669
3612.02180,0.16978
3613.95027,0.17257
3615.87874,0.17050
3617.80720,0.17135
3619.73567,0.16953
3621.66414,0.15866
3623.59261,0.15436
3625.52108,0.16289
3627.44955,0.17642
3629.37802,0.17365
3631.30649,0.15676
3633.23495,0.14896
3635.16342,0.14851
3637.09189,0.15079
3639.02036,0.15487
3640.94883,0.15769
3642.87730,0.15737
3644.80577,0.15888
3646.73423,0.16750
3648.66270,0.18497
3650.59117,0.19121
3652.51964,0.17627
3654.44811,0.16131
3656.37658,0.15054
3658.30505,0.14284
3660.23352,0.14109
3662.16198,0.13954
3664.09045,0.13551
3666.01892,0.13548
3667.94739,0.14047
3669.87586,0.14678
3671.80433,0.15451
3673.73280,0.16729
3675.66126,0.17269
3677.58973,0.16015
3679.51820,0.15066
3681.44667,0.14221
3683.37514,0.13340
3685.30361,0.13113
3687.23208,0.13692
3689.16055,0.14722
3691.08901,0.14632
3693.01748,0.13652
3694.94595,0.13236
3696.87442,0.13211
3698.80289,0.13251
3700.73136,0.13486
3702.65983,0.13675
3704.58829,0.13792
3706.51676,0.14182
3708.44523,0.15007
3710.37370,0.15795
3712.30217,0.15048
3714.23064,0.13648
3716.15911,0.13799
3718.08757,0.15591
3720.01604,0.16597
3721.94451,0.15192
3723.87298,0.14037
3725.80145,0.14271
3727.72992,0.14275
3729.65839,0.14374
3731.58686,0.14782
3733.51532,0.14692
3735.44379,0.14996
3737.37226,0.15625
3739.30073,0.15078
3741.22920,0.14409
3743.15767,0.14581
3745.08614,0.15323
3747.01460,0.15800
3748.94307,0.16336
3750.87154,0.16737
3752.80001,0.16008
3754.72848,0.15052
3756.65695,0.14709
3758.58542,0.14863
3760.51389,0.14534
3762.44235,0.13904
3764.37082,0.13581
3766.29929,0.13281
3768.22776,0.13272
3770.15623,0.13222
3772.08470,0.12448
3774.01317,0.12008
3775.94163,0.12378
3777.87010,0.12872
3779.79857,0.12862
3781.72704,0.12961
3783.65551,0.13599
3785.58398,0.13770
3787.51245,0.12973
3789.44092,0.12306
3791.36938,0.12395
3793.29785,0.12808
3795.22632,0.13072
3797.15479,0.12839
3799.08326,0.12708
3801.01173,0.13788
3802.94020,0.15079
3804.86866,0.15287
3806.79713,0.14672
3808.72560,0.13630
3810.65407,0.13239
3812.58254,0.13559
3814.51101,0.14146
3816.43948,0.14547
3818.36795,0.15257
3820.29641,0.16542
3822.22488,0.15868
3824.15335,0.13648
3826.08182,0.12478
3828.01029,0.12343
3829.93876,0.12429
3831.86723,0.12374
3833.79569,0.12424
3835.72416,0.13505
3837.65263,0.15377
3839.58110,0.15592
3841.50957,0.14129
3843.43804,0.12636
3845.36651,0.11734
3847.29498,0.11736
3849.22344,0.12562
3851.15191,0.14138
3853.08038,0.15855
3855.00885,0.15461
3856.93732,0.14442
3858.86579,0.14164
3860.79426,0.14513
3862.72272,0.14887
3864.65119,0.14471
3866.57966,0.14035
3868.50813,0.14217
3870.43660,0.14080
3872.36507,0.13366
3874.29354,0.12822
3876.22200,0.12726
3878.15047,0.13047
3880.07894,0.12982
3882.00741,0.12319
3883.93588,0.12162
3885.86435,0.12132
3887.79282,0.11825
3889.72129,0.11763
3891.64975,0.11710
3893.57822,0.11336
3895.50669,0.11209
3897.43516,0.11585
3899.36363,0.12000
3901.29210,0.12097
3903.22057,0.12365
3905.14903,0.12506
3907.07750,0.12057
3909.00597,0.11691
3910.93444,0.11621
3912.86291,0.11668
3914.79138,0.11860
3916.71985,0.11917
3918.64832,0.11895
3920.57678,0.12125
3922.50525,0.11774
3924.43372,0.10458
3926.36219,0.09510
3928.29066,0.09901
3930.21913,0.11236
3932.14760,0.12197
3934.07606,0.11902
3936.00453,0.11320
3937.93300,0.10864
3939.86147,0.10246
3941.78994,0.09765
3943.71841,0.10034
3945.64688,0.10867
3947.57535,0.11070
3949.50381,0.10369
3951.43228,0.09844
3953.36075,0.09888
3955.28922,0.09941
3957.21769,0.09547
3959.14616,0.09219
3961.07463,0.09533
3963.00309,0.09916
3964.93156,0.09953
3966.86003,0.10206
3968.78850,0.10530
3970.71697,0.10262
3972.64544,0.09879
3974.57391,0.09741
3976.50238,0.09629
3978.43084,0.09740
3980.35931,0.09710
3982.28778,0.09339
3984.21625,0.09609
3986.14472,0.10604
3988.07319,0.11251
3990.00166,0.11198
3991.93012,0.10770
3993.85859,0.10309
3995.78706,0.10209
3997.71553,0.10648
3999.64400,0.11199
4001.57247,0.11170
4003.50094,0.10396
4005.42941,0.09681
4007.35787,0.09896
4009.28634,0.10553
4011.21481,0.10646
4013.14328,0.10011
4015.07175,0.09200
4017.00022,0.08964
4018.92869,0.09140
4020.85715,0.09281
4022.78562,0.09636
4024.71409,0.09998
4026.64256,0.10013
4028.57103,0.09781
4030.49950,0.09262
4032.42797,0.08703
4034.35644,0.08719
4036.28490,0.09481
4038.21337,0.10184
4040.14184,0.09936
4042.07031,0.09199
4043.99878,0.08879
4045.92725,0.09248
4047.85572,0.09822
4049.78418,0.09754
4051.71265,0.09299
4053.64112,0.09145
4055.56959,0.09339
4057.49806,0.09659
4059.42653,0.09430
4061.35500,0.08918
4063.28346,0.09368
4065.21193,0.10297
4067.14040,0.10398
4069.06887,0.09776
4070.99734,0.09222
4072.92581,0.08928
4074.85428,0.08638
4076.78275,0.08396
4078.71121,0.08392
4080.63968,0.08494
4082.56815,0.08649
4084.49662,0.08962
4086.42509,0.09086
4088.35356,0.08944
4090.28203,0.09051
4092.21049,0.09080
4094.13896,0.08787
4096.06743,0.08677
4097.99590,0.08650
4099.92437,0.08676
4101.85284,0.08652
4103.78131,0.08302
4105.70978,0.08172
4107.63824,0.08223
4109.56671,0.08068
4111.49518,0.07930
4113.42365,0.07922
4115.35212,0.08198
4117.28059,0.08579
4119.20906,0.08650
4121.13752,0.08451
4123.06599,0.08384
4124.99446,0.08809
4126.92293,0.09301
4128.85140,0.09000
4130.77987,0.08052
4132.70834,0.07738
4134.63681,0.08293
4136.56527,0.08509
4138.49374,0.08283
4140.42221,0.08386
4142.35068,0.08631
4144.27915,0.08302
4146.20762,0.07476
4148.13609,0.07037
4150.06455,0.07193
4151.99302,0.07520
4153.92149,0.08003
4155.84996,0.08437
4157.77843,0.08220
4159.70690,0.07329
4161.63537,0.06418
4163.56384,0.06034
4165.49230,0.06321
4167.42077,0.06885
4169.34924,0.06955
4171.27771,0.06698
4173.20618,0.06974
4175.13465,0.07360
4177.06312,0.06957
4178.99158,0.06275
4180.92005,0.06303
4182.84852,0.06667
4184.77699,0.06437
4186.70546,0.06043
4188.63393,0.06331
4190.56240,0.07036
4192.49087,0.07125
4194.41933,0.06159
4196.34780,0.05249
4198.27627,0.05240
4200.20474,0.05542
4202.13321,0.05419
4204.06168,0.04917
4205.99015,0.04870
4207.91861,0.05460
4209.84708,0.05782
4211.77555,0.05691
4213.70402,0.05998
4215.63249,0.06535
4217.56096,0.06443
4219.48943,0.05988
4221.41789,0.05982
4223.34636,0.06342
4225.27483,0.06317
4227.20330,0.05889
4229.13177,0.05576
4231.06024,0.05555
4232.98871,0.05810
4234.91718,0.06139
4236.84564,0.06288
4238.77411,0.06318
4240.70258,0.06292
4242.63105,0.06014
4244.55952,0.05810
4246.48799,0.05867
4248.41646,0.05763
4250.34492,0.05675
4252.27339,0.05724
4254.20186,0.05680
4256.13033,0.05773
4258.05880,0.06136
4259.98727,0.06181
4261.91574,0.05719
4263.84421,0.05443
4265.77267,0.05246
4267.70114,0.04438
4269.62961,0.03828
4271.55808,0.04536
4273.48655,0.05069
4275.41502,0.04147
4277.34349,0.03560
4279.27195,0.04051
4281.20042,0.04441
4283.12889,0.04732
4285.05736,0.05149
4286.98583,0.05330
4288.91430,0.05479
4290.84277,0.05444
4292.77124,0.04520
4294.69970,0.03451
4296.62817,0.03505
4298.55664,0.04344
4300.48511,0.05058
4302.41358,0.05235
4304.34205,0.04840
4306.27052,0.04123
4308.19898,0.03620
4310.12745,0.03885
4312.05592,0.04332
4313.98439,0.04240
4315.91286,0.04097
4317.84133,0.04198
4319.76980,0.04347
4321.69827,0.04540
4323.62673,0.04355
4325.55520,0.03540
4327.48367,0.02627
4329.41214,0.01789
4331.34061,0.01060
4333.26908,0.00989
4335.19755,0.01891
4337.12601,0.03143
4339.05448,0.03747
4340.98295,0.03410
4342.91142,0.02702
4344.83989,0.02638
4346.76836,0.02809
4348.69683,0.02285
4350.62530,0.02168
4352.55376,0.02794
4354.48223,0.03182
4356.41070,0.03780
4358.33917,0.04578
4360.26764,0.04433
4362.19611,0.03522
4364.12458,0.03092
4366.05304,0.03912
4367.98151,0.04820
4369.90998,0.04072
4371.83845,0.02766
4373.76692,0.02474
4375.69539,0.02457
4377.62386,0.02379
4379.55232,0.02436
4381.48079,0.02262
4383.40926,0.02388
4385.33773,0.02982
4387.26620,0.03119
4389.19467,0.02502
4391.12314,0.01769
4393.05161,0.01498
4394.98007,0.01230
4396.90854,0.00963
4398.83701,0.01349
4400.76548,0.01825
4402.69395,0.01692
4404.62242,0.01497
4406.55089,0.02007
4408.47935,0.02693
4410.40782,0.02796
4412.33629,0.02530
4414.26476,0.01975
4416.19323,0.01217
4418.12170,0.00949
4420.05017,0.01472
4421.97864,0.02057
4423.90710,0.02183
4425.83557,0.02294
4427.76404,0.02514
4429.69251,0.02344
4431.62098,0.01881
4433.54945,0.01636
4435.47792,0.01528
4437.40638,0.01407
4439.33485,0.01261
4441.26332,0.01008
4443.19179,0.00673
4445.12026,0.00316
4447.04873,0.00337
4448.97720,0.00812
4450.90567,0.01231
4452.83413,0.01296
4454.76260,0.01253
4456.69107,0.01611
4458.61954,0.02181
4460.54801,0.02410
4462.47648,0.01771
4464.40495,0.00246
4466.33341,-0.00695
4468.26188,-0.00065
4470.19035,0.01099
4472.11882,0.01267
4474.04729,0.00497
4475.97576,0.00003
4477.90423,0.00105
4479.83270,0.00507
4481.76116,0.00668
4483.68963,0.00445
4485.61810,0.00491
4487.54657,0.00357
4489.47504,0.00077
4491.40351,0.00240
4493.33198,-0.00130
4495.26044,-0.00771
4497.18891,-0.00614
4499.11738,-0.00218
4501.04585,-0.00053
4502.97432,-0.00133
4504.90279,-0.00567
4506.83126,-0.00612
4508.75973,0.00242
4510.68819,0.00472
4512.61666,-0.00417
4514.54513,-0.00574
4516.47360,0.00235
4518.40207,0.00844
4520.33054,0.00965
4522.25901,0.00874
4524.18747,0.01172
4526.11594,0.01738
4528.04441,0.01886
4529.97288,0.01388
4531.90135,0.00197
4533.82982,-0.01031
4535.75829,-0.01364
4537.68676,-0.01116
4539.61522,-0.00717
4541.54369,-0.00247
4543.47216,-0.00079
4545.40063,-0.00076
4547.32910,0.00838
4549.25757,0.02284
4551.18604,0.02358
4553.11450,0.01181
4555.04297,0.00363
4556.97144,0.00037
4558.89991,-0.00469
4560.82838,-0.00724
4562.75685,0.00120
4564.68532,0.01341
4566.61378,0.01694
4568.54225,0.01081
4570.47072,0.00420
4572.39919,0.00289
4574.32766,0.00492
4576.25613,0.00076
4578.18460,-0.01292
4580.11307,-0.02212
4582.04153,-0.01568
4583.97000,-0.00044
4585.89847,0.01335
4587.82694,0.02023
4589.75541,0.01847
4591.68388,0.00922
4593.61235,0.00040
4595.54081,0.00073
4597.46928,0.00364
4599.39775,0.00157
4601.32622,0.00363
4603.25469,0.01462
4605.18316,0.02224
4607.11163,0.01803
4609.04010,0.00868
4610.96856,0.00166
4612.89703,-0.00484
4614.82550,-0.00715
4616.75397,0.00501
4618.68244,0.02058
4620.61091,0.01585
4622.53938,-0.00133
4624.46784,-0.01027
4626.39631,-0.01372
4628.32478,-0.01423
4630.25325,-0.00503
4632.18172,0.01093
4634.11019,0.02118
4636.03866,0.01772
4637.96713,0.00553
4639.89559,-0.00109
4641.82406,0.00501
4643.75253,0.01296
4645.68100,0.01101
4647.60947,0.00121
4649.53794,-0.00633
4651.46641,-0.00671
4653.39487,-0.00544
4655.32334,-0.00949
4657.25181,-0.01394
4659.18028,-0.01197
4661.10875,-0.00886
4663.03722,-0.00462
4664.96569,0.00427
4666.89416,0.02235
4668.82262,0.04691
4670.75109,0.05456
4672.67956,0.04166
4674.60803,0.02770
4676.53650,0.02019
4678.46497,0.01692
4680.39344,0.01384
4682.32190,0.00901
4684.25037,0.00058
4686.17884,-0.00974
4688.10731,-0.01107
4690.03578,-0.00517
4691.96425,-0.00658
4693.89272,-0.01373
4695.82119,-0.01496
4697.74965,-0.00688
4699.67812,0.00644
4701.60659,0.01799
4703.53506,0.02263
4705.46353,0.02583
4707.39200,0.03512
4709.32047,0.03734
4711.24893,0.02234
4713.17740,0.00771
4715.10587,0.00606
4717.03434,0.00596
4718.96281,-0.00462
4720.89128,-0.01615
4722.81975,-0.01344
4724.74821,-0.00195
4726.67668,0.00520
4728.60515,0.00474
4730.53362,0.00406
4732.46209,0.00815
4734.39056,0.00955
4736.31903,0.00668
4738.24750,0.00165
4740.17596,-0.00548
4742.10443,-0.00537
4744.03290,0.00190
4745.96137,0.00649
4747.88984,0.00667
4749.81831,0.01283
4751.74678,0.02481
4753.67524,0.02109
4755.60371,0.00456
4757.53218,-0.00517
4759.46065,-0.01057
4761.38912,-0.01095
4763.31759,0.00249
4765.24606,0.01425
4767.17453,0.00971
4769.10299,0.00355
4771.03146,-0.00222
4772.95993,-0.01436
4774.88840,-0.01949
4776.81687,-0.01175
4778.74534,0.00254
4780.67381,0.01591
4782.60227,0.01771
4784.53074,0.00649
4786.45921,-0.00478
4788.38768,-0.00845
4790.31615,-0.00529
4792.24462,0.00291
4794.17309,0.01133
4796.10156,0.01592
4798.03002,0.01598
4799.95849,0.01382
4801.88696,0.01300
4803.81543,0.01042
4805.74390,0.00351
4807.67237,0.00041
4809.60084,0.00434
4811.52930,0.00756
4813.45777,0.00641
4815.38624,0.00610
4817.31471,0.01183
4819.24318,0.01736
4821.17165,0.01764
4823.10012,0.01833
4825.02859,0.02352
4826.95705,0.02818
4828.88552,0.02323
4830.81399,0.01537
4832.74246,0.01266
4834.67093,0.00437
4836.59940,-0.00420
4838.52787,-0.00079
4840.45633,-0.00045
4842.38480,-0.00438
4844.31327,0.00340
4846.24174,0.01335
4848.17021,0.01016
4850.09868,0.00110
4852.02715,-0.00100
4853.95562,-0.00186
4855.88408,-0.01233
4857.81255,-0.02225
4859.74102,-0.01473
4861.66949,0.00260
4863.59796,0.01173
4865.52643,0.01824
4867.45490,0.03273
4869.38336,0.03998
4871.31183,0.02869
4873.24030,0.01504
4875.16877,0.00939
4877.09724,0.00494
4879.02571,-0.00117
4880.95418,-0.00133
4882.88265,0.00292
4884.81111,-0.00112
4886.73958,-0.00937
4888.66805,-0.00564
4890.59652,0.01398
4892.52499,0.02875
4894.45346,0.02609
4896.38193,0.02011
4898.31039,0.02042
4900.23886,0.02492
4902.16733,0.01527
4904.09580,-0.00994
4906.02427,-0.01213
4907.95274,0.01365
4909.88121,0.03010
4911.80967,0.02557
4913.73814,0.01805
4915.66661,0.01361
4917.59508,0.00864
4919.52355,0.00767
4921.45202,0.01661
4923.38049,0.02916
4925.30896,0.03070
4927.23742,0.02173
4929.16589,0.00858
4931.09436,-0.00709
4933.02283,-0.00881
4934.95130,0.00633
4936.87977,0.01259
4938.80824,-0.00282
4940.73670,-0.01742
4942.66517,-0.01396
4944.59364,-0.00470
4946.52211,-0.00031
4948.45058,0.00455
4950.37905,0.00093
4952.30752,-0.01615
4954.23599,-0.02618
4956.16445,-0.01758
4958.09292,-0.00191
4960.02139,0.00686
4961.94986,0.00177
4963.87833,-0.01785
4965.80680,-0.03813
4967.73527,-0.04041
4969.66373,-0.03096
4971.59220,-0.02062
4973.52067,0.00268
4975.44914,0.03125
4977.37761,0.04013
4979.30608,0.03333
4981.23455,0.02429
4983.16302,0.01008
4985.09148,-0.00796
4987.01995,-0.01835
4988.94842,-0.01530
4990.87689,0.00612
4992.80536,0.03412
4994.73383,0.03962
4996.66230,0.03020
4998.59076,0.03146
5000.51923,0.04280
5002.44770,0.05271
5004.37617,0.04596
5006.30464,0.02474
5008.23311,0.01712
5010.16158,0.03205
5012.09005,0.04362
5014.01851,0.03936
5015.94698,0.03091
5017.87545,0.01817
5019.80392,-0.00323
5021.73239,-0.01501
5023.66086,0.00226
5025.58933,0.02627
5027.51779,0.02860
5029.44626,0.01935
5031.37473,0.00789
5033.30320,-0.00488
5035.23167,-0.00676
5037.16014,0.00656
5039.08861,0.01724
5041.01708,0.00848
5042.94554,-0.00938
5044.87401,-0.01993
5046.80248,-0.01671
5048.73095,-0.00477
5050.65942,0.00310
5052.58789,0.00515
5054.51636,0.00397
5056.44482,0.00308
5058.37329,0.00324
5060.30176,-0.00444
5062.23023,-0.01465
5064.15870,-0.01299
5066.08717,0.00186
5068.01564,0.01571
5069.94410,0.01089
5071.87257,-0.00468
5073.80104,-0.01276
5075.72951,-0.02109
5077.65798,-0.02946
5079.58645,-0.01288
5081.51492,0.01969
5083.44339,0.03819
5085.37185,0.04102
5087.30032,0.03201
5089.22879,0.01799
5091.15726,0.01489
5093.08573,0.01795
5095.01420,0.02060
5096.94267,0.02966
5098.87113,0.02903
5100.79960,0.00731
5102.72807,-0.00901
5104.65654,-0.00784
5106.58501,-0.00753
5108.51348,-0.01190
5110.44195,-0.00742
5112.37042,0.00777
5114.29888,0.02651
5116.22735,0.03347
5118.15582,0.02001
5120.08429,0.00827
5122.01276,0.01249
5123.94123,0.02230
5125.86970,0.02902
5127.79816,0.02588
5129.72663,0.01793
5131.65510,0.01965
5133.58357,0.03296
5135.51204,0.04606
5137.44051,0.05244
5139.36898,0.05958
5141.29745,0.04832
5143.22591,-0.00078
5145.15438,-0.04259
5147.08285,-0.03556
5149.01132,-0.00193
5150.93979,0.01617
5152.86826,0.01408
5154.79673,0.00933
5156.72519,-0.00292
5158.65366,-0.01205
5160.58213,-0.00756
5162.51060,-0.00411
5164.43907,0.01076
5166.36754,0.04154
5168.29601,0.05444
5170.22448,0.04318
5172.15294,0.03444
5174.08141,0.03545
5176.00988,0.03365
5177.93835,0.02129
5179.86682,0.00907
5181.79529,0.01024
5183.72376,0.02002
5185.65222,0.03703
5187.58069,0.05661
5189.50916,0.06466
5191.43763,0.05603
5193.36610,0.03506
5195.29457,0.01663
5197.22304,0.01313
5199.15151,0.01766
5201.07997,0.01120
5203.00844,-0.00051
5204.93691,0.00636
5206.86538,0.02300
5208.79385,0.02693
5210.72232,0.02431
5212.65079,0.01817
5214.57925,0.01515
5216.50772,0.03074
5218.43619,0.05049
5220.36466,0.04865
5222.29313,0.04273
5224.22160,0.04222
5226.15007,0.02815
5228.07854,0.01120
5230.00700,-0.00009
5231.93547,-0.01211
5233.86394,-0.01470
5235.79241,-0.00588
5237.72088,0.01271
5239.64935,0.04180
5241.57782,0.06065
5243.50628,0.04286
5245.43475,0.00840
5247.36322,0.00580
5249.29169,0.02721
5251.22016,0.03536
5253.14863,0.02337
5255.07710,0.00073
5257.00556,-0.01453
5258.93403,-0.01871
5260.86250,-0.01369
5262.79097,0.01644
5264.71944,0.05236
5266.64791,0.04406
5268.57638,0.01477
5270.50485,0.01112
5272.43331,0.02235
5274.36178,0.03151
5276.29025,0.03405
5278.21872,0.02066
5280.14719,0.01281
5282.07566,0.02388
5284.00413,0.02949
5285.93259,0.03239
5287.86106,0.04929
5289.78953,0.06672
5291.71800,0.07905
5293.64647,0.09240
5295.57494,0.08850
5297.50341,0.05845
5299.43188,0.02530
5301.36034,0.00133
5303.28881,-0.00802
5305.21728,-0.00031
5307.14575,0.00787
5309.07422,0.01563
5311.00269,0.02568
5312.93116,0.03404
5314.85962,0.04103
5316.78809,0.04846
5318.71656,0.05602
5320.64503,0.04563
5322.57350,0.01860
5324.50197,-0.00215
5326.43044,-0.01626
5328.35891,-0.02151
5330.28737,-0.00179
5332.21584,0.02555
5334.14431,0.02074
5336.07278,-0.00005
5338.00125,0.00487
5339.92972,0.02235
5341.85819,0.03263
5343.78665,0.04428
5345.71512,0.05089
5347.64359,0.05269
5349.57206,0.05886
5351.50053,0.06202
5353.42900,0.04834
5355.35747,0.02126
5357.28594,0.01850
5359.21440,0.04109
5361.14287,0.04916
5363.07134,0.02980
5364.99981,0.00578
5366.92828,0.00955
5368.85675,0.03756
5370.78522,0.06001
5372.71368,0.07830
5374.64215,0.10253
5376.57062,0.10858
5378.49909,0.08420
5380.42756,0.05559
5382.35603,0.04424
5384.28450,0.06679
5386.21297,0.09368
5388.14143,0.07912
5390.06990,0.05603
5391.99837,0.04648
5393.92684,0.03339
5395.85531,0.02335
5397.78378,0.03343
5399.71225,0.05377
5401.64071,0.06221
5403.56918,0.05303
5405.49765,0.03800
5407.42612,0.03745
5409.35459,0.06898
5411.28306,0.09914
5413.21153,0.09268
5415.13999,0.08444
5417.06846,0.07931
5418.99693,0.05328
5420.92540,0.02486
5422.85387,0.02550
5424.78234,0.05088
5426.71081,0.06969
5428.63928,0.07225
5430.56774,0.07653
5432.49621,0.07680
5434.42468,0.06307
5436.35315,0.05888
5438.28162,0.06668
5440.21009,0.06141
5442.13856,0.04783
5444.06702,0.04268
5445.99549,0.03613
5447.92396,0.03276
5449.85243,0.05375
5451.78090,0.07615
5453.70937,0.07139
5455.63784,0.04890
5457.56631,0.03465
5459.49477,0.04547
5461.42324,0.06182
5463.35171,0.06301
5465.28018,0.06160
5467.20865,0.05367
5469.13712,0.02920
5471.06559,0.01069
5472.99405,0.01411
5474.92252,0.03217
5476.85099,0.04930
5478.77946,0.06210
5480.70793,0.07442
5482.63640,0.08332
5484.56487,0.08007
5486.49334,0.05928
5488.42180,0.03899
5490.35027,0.04548
5492.27874,0.07652
5494.20721,0.09512
5496.13568,0.10162
5498.06415,0.11284
5499.99262,0.09192
5501.92108,0.04242
5503.84955,0.01914
5505.77802,0.01774
5507.70649,0.01478
5509.63496,0.02167
5511.56343,0.03772
5513.49190,0.04253
5515.42037,0.03933
5517.34883,0.05354
5519.27730,0.08737
5521.20577,0.10825
5523.13424,0.09615
5525.06271,0.07194
5526.99118,0.05180
5528.91965,0.03132
5530.84811,0.02038
5532.77658,0.01722
5534.70505,0.01898
5536.63352,0.04073
5538.56199,0.06197
5540.49046,0.06113
5542.41893,0.05856
5544.34740,0.06767
5546.27586,0.07836
5548.20433,0.07223
5550.13280,0.05130
5552.06127,0.04483
5553.98974,0.05813
5555.91821,0.07958
5557.84668,0.10373
5559.77514,0.10534
5561.70361,0.09008
5563.63208,0.09167
5565.56055,0.09454
5567.48902,0.08479
5569.41749,0.08893
5571.34596,0.09913
5573.27443,0.08763
5575.20289,0.06412
5577.13136,0.03239
5579.05983,-0.00351
5580.98830,-0.00572
5582.91677,0.02326
5584.84524,0.04005
5586.77371,0.04240
5588.70217,0.04824
5590.63064,0.06185
5592.55911,0.08020
5594.48758,0.08670
5596.41605,0.08027
5598.34452,0.09027
5600.27299,0.10487
5602.20145,0.08453
5604.12992,0.04851
5606.05839,0.03867
5607.98686,0.05088
5609.91533,0.06075
5611.84380,0.06262
5613.77227,0.06535
5615.70074,0.06628
5617.62920,0.04489
5619.55767,0.01426
5621.48614,0.02415
5623.41461,0.08357
5625.34308,0.13156
5627.27155,0.11156
5629.20002,0.05646
5631.12848,0.02366
5633.05695,0.00525
5634.98542,-0.01544
5636.91389,-0.01641
5638.84236,0.00847
5640.77083,0.03981
5642.69930,0.06337
5644.62777,0.06485
5646.55623,0.05600
5648.48470,0.06025
5650.41317,0.06329
5652.34164,0.06079
5654.27011,0.07649
5656.19858,0.09290
5658.12705,0.07302
5660.05551,0.02717
5661.98398,-0.00786
5663.91245,-0.00758
5665.84092,0.01588
5667.76939,0.02979
5669.69786,0.03673
5671.62633,0.04591
5673.55480,0.04782
5675.48326,0.04414
5677.41173,0.03778
5679.34020,0.03286
5681.26867,0.04412
5683.19714,0.06187
5685.12561,0.05621
5687.05408,0.04686
5688.98254,0.06512
5690.91101,0.07465
5692.83948,0.04893
5694.76795,0.02224
5696.69642,0.02336
5698.62489,0.03281
5700.55336,0.04020
5702.48183,0.07398
5704.41029,0.12050
5706.33876,0.13022
5708.26723,0.08616
5710.19570,0.02451
5712.12417,-0.00261
5714.05264,0.01314
5715.98111,0.03838
5717.90957,0.04663
5719.83804,0.05946
5721.76651,0.10214
5723.69498,0.13613
5725.62345,0.13118
5727.55192,0.11548
5729.48039,0.10376
5731.40886,0.07972
5733.33732,0.05836
5735.26579,0.05949
5737.19426,0.05788
5739.12273,0.05048
5741.05120,0.06479
5742.97967,0.07554
5744.90814,0.06152
5746.83660,0.05690
5748.76507,0.06144
5750.69354,0.05411
5752.62201,0.06732
5754.55048,0.09240
5756.47895,0.09487
5758.40742,0.09837
5760.33588,0.10723
5762.26435,0.10452
5764.19282,0.09810
5766.12129,0.08499
5768.04976,0.06294
5769.97823,0.05569
5771.90670,0.08508
5773.83517,0.12069
5775.76363,0.09633
5777.69210,0.02185
5779.62057,-0.02693
5781.54904,-0.01362
5783.47751,0.04914
5785.40598,0.10385
5787.33445,0.09475
5789.26291,0.05045
5791.19138,0.03134
5793.11985,0.05237
5795.04832,0.08357
5796.97679,0.08992
5798.90526,0.07061
5800.83373,0.06242
5802.76220,0.09077
5804.69066,0.12623
5806.61913,0.13668
5808.54760,0.12378
5810.47607,0.08988
5812.40454,0.06035
5814.33301,0.05968
5816.26148,0.07148
5818.18994,0.09458
5820.11841,0.13891
5822.04688,0.18288
5823.97535,0.19007
5825.90382,0.16178
5827.83229,0.13692
5829.76076,0.12528
5831.68923,0.11425
5833.61769,0.10661
5835.54616,0.09707
5837.47463,0.07236
5839.40310,0.03651
5841.33157,0.01270
5843.26004,0.02065
5845.18851,0.06781
5847.11697,0.11744
5849.04544,0.09318
5850.97391,0.02361
5852.90238,0.00011
5854.83085,0.01295
5856.75932,0.02960
5858.68779,0.04097
5860.61626,0.05249
5862.54472,0.08646
5864.47319,0.14180
5866.40166,0.15684
5868.33013,0.10821
5870.25860,0.08306
5872.18707,0.09823
5874.11554,0.08362
5876.04400,0.03033
5877.97247,-0.00208
5879.90094,0.01882
5881.82941,0.03481
5883.75788,0.00972
5885.68635,-0.01626
5887.61482,-0.02556
5889.54329,-0.03042
5891.47175,-0.01475
5893.40022,0.03264
5895.32869,0.07734
5897.25716,0.11097
5899.18563,0.12107
5901.11410,0.06999
5903.04257,0.02880
5904.97103,0.06660
5906.89950,0.10052
5908.82797,0.09721
5910.75644,0.11190
5912.68491,0.12963
5914.61338,0.12388
5916.54185,0.09240
5918.47032,0.05798
5920.39878,0.08192
5922.32725,0.11582
5924.25572,0.08141
5926.18419,0.02873
5928.11266,0.00977
5930.04113,0.02009
5931.96960,0.04227
5933.89806,0.04758
5935.82653,0.07982
5937.75500,0.18366
5939.68347,0.24781
5941.61194,0.18389
5943.54041,0.08798
5945.46888,0.05796
5947.39734,0.07117
5949.32581,0.09433
5951.25428,0.10089
5953.18275,0.07420
5955.11122,0.05013
5957.03969,0.04334
5958.96816,0.04202
5960.89663,0.05007
5962.82509,0.05928
5964.75356,0.06294
5966.68203,0.03764
5968.61050,-0.01730
5970.53897,-0.03302
5972.46744,-0.00363
5974.39591,0.02251
5976.32437,0.04152
5978.25284,0.05796
5980.18131,0.07303
5982.10978,0.07412
5984.03825,0.06641
5985.96672,0.09536
5987.89519,0.12815
5989.82366,0.09962
5991.75212,0.05268
5993.68059,0.02177
5995.60906,-0.02153
5997.53753,-0.03624
5999.46600,0.01459
6001.39447,0.04970
6003.32294,0.01330
6005.25140,-0.02495
6007.17987,-0.00084
6009.10834,0.05191
6011.03681,0.07882
6012.96528,0.08229
6014.89375,0.09115
6016.82222,0.09686
6018.75069,0.08487
6020.67915,0.06817
6022.60762,0.05628
6024.53609,0.04927
6026.46456,0.04247
6028.39303,0.03909
6030.32150,0.07722
6032.24997,0.13682
6034.17843,0.12865
6036.10690,0.08148
6038.03537,0.08078
6039.96384,0.09160
6041.89231,0.07550
6043.82078,0.04141
6045.74925,0.00656
6047.67772,-0.00953
6049.60618,0.01000
6051.53465,0.05908
6053.46312,0.07736
6055.39159,0.05576
6057.32006,0.06764
6059.24853,0.09879
6061.17700,0.09920
6063.10546,0.10513
6065.03393,0.15443
6066.96240,0.18306
6068.89087,0.12428
6070.81934,0.04252
6072.74781,0.01060
6074.67628,0.00024
6076.60475,-0.01767
6078.53321,-0.02381
6080.46168,-0.00624
6082.39015,-0.00330
6084.31862,-0.03926
6086.24709,-0.05514
6088.17556,-0.01629
6090.10403,0.02452
6092.03249,0.06869
6093.96096,0.11183
6095.88943,0.10396
6097.81790,0.05767
6099.74637,0.01560
6101.67484,0.02955
6103.60331,0.07784
6105.53177,0.09904
6107.46024,0.09802
6109.38871,0.07467
6111.31718,0.05732
6113.24565,0.05489
6115.17412,0.03466
6117.10259,0.04666
6119.03106,0.11869
6120.95952,0.18043
6122.88799,0.18010
6124.81646,0.13094
6126.74493,0.09147
6128.67340,0.08717
6130.60187,0.08536
6132.53034,0.08969
6134.45880,0.12266
6136.38727,0.15824
6138.31574,0.17188
6140.24421,0.16733
6142.17268,0.13506
6144.10115,0.08592
6146.02962,0.07648
6147.95809,0.09313
6149.88655,0.06448
6151.81502,0.00682
6153.74349,-0.02220
6155.67196,0.00183
6157.60043,0.07453
6159.52890,0.12261
6161.45737,0.09743
6163.38583,0.01941
6165.31430,-0.02657
6167.24277,0.03936
6169.17124,0.12505
6171.09971,0.11124
6173.02818,0.04651
6174.95665,0.03630
6176.88512,0.07753
6178.81358,0.11385
6180.74205,0.11145
6182.67052,0.09051
6184.59899,0.09715
6186.52746,0.13866
6188.45593,0.15516
6190.38440,0.09468
6192.31286,0.03029
6194.24133,-0.00492
6196.16980,-0.05363
6198.09827,-0.09058
6200.02674,-0.09057
6201.95521,-0.07746
6203.88368,-0.06662
6205.81215,-0.03772
6207.74061,0.01867
6209.66908,0.05892
6211.59755,0.03616
6213.52602,-0.02419
6215.45449,-0.06209
6217.38296,-0.06511
6219.31143,-0.04098
6221.23989,0.00324
6223.16836,0.03835
6225.09683,0.05462
6227.02530,0.03816
6228.95377,-0.01044
6230.88224,-0.03933
6232.81071,-0.03453
6234.73918,-0.00710
6236.66764,0.02024
6238.59611,0.01765
6240.52458,0.01233
6242.45305,0.01553
6244.38152,-0.00447
6246.30999,-0.02617
6248.23846,-0.01976
6250.16692,0.01356
6252.09539,0.06703
6254.02386,0.08992
6255.95233,0.06777
6257.88080,0.06218
6259.80927,0.09424
6261.73774,0.12383
6263.66621,0.11186
6265.59467,0.08677
6267.52314,0.07226
6269.45161,0.03913
6271.38008,0.01310
6273.30855,0.02099
6275.23702,0.06579
6277.16549,0.09228
6279.09395,0.06492
6281.02242,0.06627
6282.95089,0.11343
6284.87936,0.09877
6286.80783,-0.01746
6288.73630,-0.10344
6290.66477,-0.05186
6292.59323,0.06098
6294.52170,0.13037
6296.45017,0.13691
6298.37864,0.10636
6300.30711,0.06625
6302.23558,0.05419
6304.16405,0.04848
6306.09252,0.03516
6308.02098,0.07069
6309.94945,0.09998
6311.87792,0.05756
6313.80639,0.00116
6315.73486,0.00746
6317.66333,0.06445
6319.59180,0.07197
6321.52026,0.02557
6323.44873,0.00726
6325.37720,0.01580
6327.30567,0.01919
6329.23414,0.02058
6331.16261,0.01057
6333.09108,-0.00176
6335.01955,0.03110
6336.94801,0.07362
6338.87648,0.03635
6340.80495,-0.04550
6342.73342,-0.02357
6344.66189,0.10524
6346.59036,0.14165
6348.51883,0.04753
6350.44729,0.00346
6352.37576,0.01754
6354.30423,0.02114
6356.23270,0.04919
6358.16117,0.08801
6360.08964,0.10666
6362.01811,0.11929
6363.94658,0.12090
6365.87504,0.10200
6367.80351,0.09915
6369.73198,0.12518
6371.66045,0.12991
6373.58892,0.11711
6375.51739,0.11583
6377.44586,0.09640
6379.37432,0.05085
6381.30279,0.02103
6383.23126,0.05262
6385.15973,0.11470
6387.08820,0.12225
6389.01667,0.07602
6390.94514,0.04682
6392.87361,0.06826
6394.80207,0.09898
6396.73054,0.11604
6398.65901,0.10482
6400.58748,0.03388
6402.51595,-0.03077
6404.44442,0.00164
6406.37289,0.08948
6408.30135,0.10711
6410.22982,-0.01114
6412.15829,-0.11811
6414.08676,-0.06736
6416.01523,0.03137
6417.94370,0.08263
6419.87217,0.10422
6421.80064,0.10587
6423.72910,0.10185
6425.65757,0.10337
6427.58604,0.10023
6429.51451,0.12852
6431.44298,0.16018
6433.37145,0.11228
6435.29992,0.05539
6437.22838,0.04003
6439.15685,0.02510
6441.08532,-0.02696
6443.01379,-0.08421
6444.94226,-0.04904
6446.87073,0.02610
6448.79920,0.06388
6450.72766,0.09824
6452.65613,0.13283
6454.58460,0.13981
6456.51307,0.13950
6458.44154,0.16645
6460.37001,0.16722
6462.29848,0.07021
6464.22695,-0.05332
6466.15541,-0.07211
6468.08388,-0.01188
6470.01235,-0.02423
6471.94082,-0.07289
6473.86929,-0.01844
6475.79776,0.05793
6477.72623,0.05547
6479.65469,0.05392
6481.58316,0.08565
6483.51163,0.08509
6485.44010,0.08314
6487.36857,0.11561
6489.29704,0.09529
6491.22551,-0.00030
6493.15398,-0.01559
6495.08244,0.07491
6497.01091,0.11477
6498.93938,0.09481
6500.86785,0.11147
6502.79632,0.16182
6504.72479,0.16164
6506.65326,0.06679
6508.58172,-0.02543
6510.51019,-0.00625
6512.43866,0.03474
6514.36713,0.03580
6516.29560,0.03578
6518.22407,0.03961
6520.15254,0.04599
6522.08101,0.04853
6524.00947,0.06806
6525.93794,0.03826
6527.86641,-0.08917
6529.79488,-0.13213
6531.72335,-0.03283
6533.65182,0.05635
6535.58029,0.05859
6537.50875,0.02682
6539.43722,0.01682
6541.36569,-0.00800
6543.29416,-0.04979
6545.22263,-0.02115
6547.15110,0.07993
6549.07957,0.14140
6551.00804,0.10929
6552.93650,0.08972
6554.86497,0.12499
6556.79344,0.18137
6558.72191,0.22898
6560.65038,0.22307
6562.57885,0.19371
6564.50732,0.21909
6566.43578,0.27276
6568.36425,0.26023
6570.29272,0.19293
6572.22119,0.12454
6574.14966,0.08796
6576.07813,0.11018
6578.00660,0.16671
6579.93507,0.18327
6581.86353,0.14012
6583.79200,0.09035
6585.72047,0.04188
6587.64894,-0.01091
6589.57741,-0.03747
6591.50588,-0.05567
6593.43435,-0.07518
6595.36281,-0.03140
6597.29128,0.05107
6599.21975,0.09093
6601.14822,0.11653
6603.07669,0.13967
6605.00516,0.10317
6606.93363,0.03180
6608.86210,-0.01128
6610.79056,-0.00998
6612.71903,0.03072
6614.64750,0.08311
6616.57597,0.08891
6618.50444,0.02380
6620.43291,-0.07403
6622.36138,-0.13546
6624.28984,-0.11454
6626.21831,-0.07498
6628.14678,-0.06725
6630.07525,-0.06677
6632.00372,-0.05177
6633.93219,-0.01383
6635.86066,0.01341
6637.78912,0.00968
6639.71759,0.04662
6641.64606,0.11275
6643.57453,0.09939
6645.50300,0.01252
6647.43147,-0.02452
6649.35994,-0.01945
6651.28841,-0.05321
6653.21687,-0.05426
6655.14534,0.04219
6657.07381,0.11233
6659.00228,0.09685
6660.93075,0.05914
6662.85922,0.02138
6664.78769,0.02490
6666.71615,0.06841
6668.64462,0.11964
6670.57309,0.14876
6672.50156,0.14296
6674.43003,0.10639
6676.35850,0.02655
6678.28697,-0.05870
6680.21544,-0.07953
6682.14390,-0.02636
6684.07237,0.03269
6686.00084,0.05916
6687.92931,0.10204
6689.85778,0.15957
6691.78625,0.14315
6693.71472,0.04272
6695.64318,-0.01897
6697.57165,0.01896
6699.50012,0.04040
6701.42859,0.00030
6703.35706,-0.04592
6705.28553,-0.01224
6707.21400,0.12010
6709.14247,0.21940
6711.07093,0.23065
6712.99940,0.20631
6714.92787,0.15010
6716.85634,0.05462
6718.78481,-0.01598
6720.71328,0.00856
6722.64175,0.02796
6724.57021,-0.02040
6726.49868,0.01686
6728.42715,0.13643
6730.35562,0.15796
6732.28409,0.06035
6734.21256,-0.02155
6736.14103,-0.04663
6738.06950,-0.10528
6739.99796,-0.19150
6741.92643,-0.13490
6743.85490,0.02805
6745.78337,0.11049
6747.71184,0.14076
6749.64031,0.17592
6751.56878,0.15468
6753.49724,0.08952
6755.42571,0.06809
6757.35418,0.04745
6759.28265,-0.04459
6761.21112,-0.11137
6763.13959,-0.08264
6765.06806,-0.03713
6766.99653,0.00793
6768.92499,0.08404
6770.85346,0.15340
6772.78193,0.15867
6774.71040,0.13753
6776.63887,0.12092
6778.56734,0.09685
6780.49581,0.10191
6782.42427,0.12905
6784.35274,0.08982
6786.28121,0.03664
6788.20968,0.12514
6790.13815,0.25734
6792.06662,0.21388
6793.99509,0.11581
6795.92355,0.10497
6797.85202,0.09289
6799.78049,0.04196
6801.70896,0.06774
6803.63743,0.17628
6805.56590,0.16716
6807.49437,0.08143
6809.42284,0.11512
6811.35130,0.21119
6813.27977,0.13673
6815.20824,-0.04857
6817.13671,-0.07075
6819.06518,0.04599
6820.99365,0.10726
6822.92212,0.11487
6824.85058,0.17746
6826.77905,0.23348
6828.70752,0.19140
6830.63599,0.10619
6832.56446,0.10561
6834.49293,0.16413
6836.42140,0.14342
6838.34987,0.06892
6840.27833,0.03645
6842.20680,0.03136
6844.13527,0.03923
6846.06374,0.03175
6847.99221,0.00630
6849.92068,-0.02355
6851.84915,-0.07988
6853.77761,-0.11247
6855.70608,-0.05268
6857.63455,0.03375
6859.56302,0.06842
6861.49149,0.05334
6863.41996,-0.01098
6865.34843,-0.04440
6867.27690,0.03555
6869.20536,0.12751
6871.13383,0.11553
6873.06230,0.05273
6874.99077,0.03650
6876.91924,0.04520
6878.84771,0.04742
6880.77618,0.03992
6882.70464,0.02821
6884.63311,0.09166
6886.56158,0.24099
6888.49005,0.31344
6890.41852,0.24277
6892.34699,0.18143
6894.27546,0.20417
6896.20393,0.22589
6898.13239,0.19379
6900.06086,0.16609
6901.98933,0.20825
6903.91780,0.28174
6905.84627,0.29847
6907.77474,0.23254
6909.70321,0.11752
6911.63167,0.03284
6913.56014,0.04345
6915.48861,0.11684
6917.41708,0.18292
6919.34555,0.12046
6921.27402,-0.06047
6923.20249,-0.14470
6925.13096,-0.05779
6927.05942,0.02313
6928.98789,-0.07014
6930.91636,-0.19870
6932.84483,-0.15298
6934.77330,0.00709
6936.70177,0.19809
6938.63024,0.31970
6940.55870,0.24993
6942.48717,0.14226
6944.41564,0.11754
6946.34411,0.04113
6948.27258,-0.10481
6950.20105,-0.15336
6952.12952,-0.03158
6954.05799,0.19806
6955.98645,0.37725
6957.91492,0.27441
6959.84339,0.03343
6961.77186,-0.03842
6963.70033,0.01595
6965.62880,0.04994
6967.55727,0.07895
6969.48573,0.10213
6971.41420,0.03820
6973.34267,-0.04054
6975.27114,0.05985
6977.19961,0.13508
6979.12808,0.06837
6981.05655,-0.03188
6982.98501,-0.03746
6984.91348,0.12304
6986.84195,0.25746
6988.77042,0.20689
6990.69889,0.14330
6992.62736,0.16438
6994.55583,0.17111
6996.48430,0.17563
6998.41276,0.25873
7000.34123,0.30364
7002.26970,0.22653
7004.19817,0.15071
7006.12664,0.10194
7008.05511,0.13676
7009.98358,0.19925
7011.91204,0.20248
7013.84051,0.13001
7015.76898,0.06401
7017.69745,0.03102
7019.62592,-0.01385
7021.55439,-0.05348
7023.48286,-0.08736
7025.41133,-0.11404
7027.33979,-0.05126
7029.26826,0.07859
7031.19673,0.17194
7033.12520,0.26190
7035.05367,0.24837
7036.98214,0.05759
7038.91061,-0.01162
7040.83907,0.19650
7042.76754,0.42147
7044.69601,0.42012
7046.62448,0.32376
7048.55295,0.19588
7050.48142,0.05362
7052.40989,-0.06092
7054.33836,-0.09439
7056.26682,0.00922
7058.19529,0.19713
7060.12376,0.29019
7062.05223,0.21956
7063.98070,0.09678
7065.90917,0.06407
7067.83764,0.11970
7069.76610,0.22301
7071.69457,0.28388
7073.62304,0.19833
7075.55151,-0.00200
7077.47998,-0.17640
7079.40845,-0.16352
7081.33692,0.02963
7083.26539,0.10072
7085.19385,-0.00045
7087.12232,-0.04590
7089.05079,0.08659
7090.97926,0.19627
7092.90773,0.09648
7094.83620,-0.08826
7096.76467,-0.08896
7098.69313,0.12965
7100.62160,0.25180
7102.55007,0.18494
7104.47854,0.04322
7106.40701,-0.13028
7108.33548,-0.23109
7110.26395,-0.19709
7112.19242,-0.06426
7114.12088,0.09627
7116.04935,0.20761
7117.97782,0.20359
7119.90629,0.20767
7121.83476,0.39110
7123.76323,0.57022
7125.69170,0.54072
7127.62016,0.39887
7129.54863,0.30936
7131.47710,0.20230
7133.40557,0.01466
7135.33404,-0.05820
7137.26251,0.07005
7139.19098,0.14269
7141.11944,0.03674
7143.04791,-0.05557
7144.97638,-0.06255
7146.90485,-0.04840
7148.83332,-0.08835
7150.76179,-0.14912
7152.69026,-0.08973
7154.61873,0.00650
7156.54719,-0.01859
7158.47566,-0.06894
7160.40413,-0.08859
7162.33260,0.00081
7164.26107,0.17641
7166.18954,0.21177
7168.11801,0.12974
7170.04647,0.08088
7171.97494,0.00848
7173.90341,-0.06524
7175.83188,-0.05223
7177.76035,-0.01059
7179.68882,-0.02928
7181.61729,-0.01434
7183.54576,0.06889
7185.47422,0.05193
7187.40269,0.00738
7189.33116,0.05429
7191.25963,0.11116
7193.18810,0.09878
7195.11657,0.09460
7197.04504,0.12589
7198.97350,0.13461
7200.90197,0.12333
7202.83044,0.04501
7204.75891,-0.13248
7206.68738,-0.13816
7208.61585,0.01625
7210.54432,0.05588
7212.47279,-0.01675
7214.40125,0.02005
7216.32972,0.18682
7218.25819,0.17805
7220.18666,0.04305
7222.11513,0.09374
7224.04360,0.21764
7225.97207,0.23398
7227.90053,0.13933
7229.82900,-0.01141
7231.75747,-0.02667
7233.68594,0.12462
7235.61441,0.15929
7237.54288,0.03445
7239.47135,-0.05795
7241.39982,-0.02523
7243.32828,0.02756
7245.25675,0.07352
7247.18522,0.13825
7249.11369,0.10691
7251.04216,-0.04518
7252.97063,-0.08903
7254.89910,0.04712
7256.82756,0.10850
7258.75603,0.10602
7260.68450,0.16021
7262.61297,0.23820
7264.54144,0.20349
7266.46991,0.16546
7268.39838,0.19232
7270.32685,0.23224
7272.25531,0.38063
7274.18378,0.49537
7276.11225,0.44186
7278.04072,0.37331
7279.96919,0.29038
7281.89766,0.21636
7283.82613,0.19291
7285.75459,0.14815
7287.68306,0.09420
7289.61153,0.07546
7291.54000,0.11223
7293.46847,0.16979
7295.39694,0.21325
7297.32541,0.18608
7299.25387,0.07612
7301.18234,0.00517
7303.11081,0.01009
7305.03928,0.01427
7306.96775,0.06235
7308.89622,0.14551
7310.82469,0.07770
7312.75316,0.02788
7314.68162,0.16355
7316.61009,0.30208
7318.53856,0.21530
7320.46703,0.07832
7322.39550,0.03252
7324.32397,-0.05497
7326.25244,-0.16843
7328.18090,-0.12236
7330.10937,0.05462
7332.03784,0.17757
7333.96631,0.22692
7335.89478,0.20032
7337.82325,0.07918
7339.75172,-0.07202
7341.68019,0.05626
7343.60865,0.41942
7345.53712,0.70293
7347.46559,0.70613
7349.39406,0.54214
7351.32253,0.39690
7353.25100,0.32678
7355.17947,0.25241
7357.10793,0.02276
7359.03640,-0.33876
7360.96487,-0.50454
7362.89334,-0.40709
7364.82181,-0.16868
7366.75028,0.14780
7368.67875,0.26927
7370.60722,0.16546
7372.53568,0.15392
7374.46415,0.22348
7376.39262,0.14754
7378.32109,0.10048
7380.24956,0.22873
7382.17803,0.36247
7384.10650,0.38773
7386.03496,0.39000
7387.96343,0.29110
7389.89190,0.12367
7391.82037,0.05589
7393.74884,0.01773
7395.67731,-0.04226
7397.60578,-0.00983
7399.53425,0.11762
7401.46271,0.21195
7403.39118,0.13446
7405.31965,-0.00296
7407.24812,-0.00631
7409.17659,-0.03787
7411.10506,-0.13725
7413.03353,-0.13509
7414.96199,-0.02272
7416.89046,0.13553
7418.81893,0.17900
7420.74740,-0.05316
7422.67587,-0.25808
7424.60434,-0.22290
7426.53281,-0.09712
7428.46128,-0.04296
7430.38974,-0.02029
7432.31821,0.03211
7434.24668,0.07079
7436.17515,0.10566
7438.10362,0.09387
7440.03209,0.00909
7441.96056,-0.00472
7443.88902,0.07699
7445.81749,0.15855
7447.74596,0.19097
7449.67443,0.11284
7451.60290,-0.06332
7453.53137,-0.20789
7455.45984,-0.16949
7457.38831,-0.01925
7459.31677,-0.03776
7461.24524,-0.16229
7463.17371,0.02947
7465.10218,0.29542
7467.03065,0.27718
7468.95912,0.24041
7470.88759,0.35246
7472.81605,0.41158
7474.74452,0.27454
7476.67299,-0.13750
7478.60146,-0.59099
7480.52993,-0.59441
7482.45840,-0.29766
7484.38687,-0.14739
7486.31533,-0.05803
7488.24380,0.17885
7490.17227,0.36280
7492.10074,0.27270
7494.02921,0.15572
7495.95768,0.14061
7497.88615,0.16327
