399.19301,2.01417
401.12148,0.78909
403.04995,0.17152
404.97842,-0.12442
406.90689,-0.19544
408.83536,-0.25023
410.76382,-0.17765
412.69229,0.03335
414.62076,0.18780
416.54923,0.33401
418.47770,0.55303
420.40617,0.57056
422.33464,0.30167
424.26311,0.01975
426.19157,-0.06309
428.12004,-0.00110
430.04851,0.10223
431.97698,0.19072
433.90545,0.20440
435.83392,0.16682
437.76239,0.08739
439.69085,0.00139
441.61932,0.00091
443.54779,0.07283
445.47626,0.11175
447.40473,0.11105
449.33320,0.06336
451.26167,0.01184
453.19013,0.01501
455.11860,0.01808
457.04707,-0.01161
458.97554,-0.02905
460.90401,-0.03899
462.83248,-0.03201
464.76095,0.01538
466.68942,0.04610
468.61788,0.02731
470.54635,0.01145
472.47482,0.08501
474.40329,0.22576
476.33176,0.23200
478.26023,0.15308
480.18870,0.06532
482.11716,0.02448
484.04563,0.08986
485.97410,0.20092
487.90257,0.21992
489.83104,0.14341
491.75951,0.07818
493.68798,0.04159
495.61645,0.00801
497.54491,0.00213
499.47338,0.01311
501.40185,0.02133
503.33032,0.05404
505.25879,0.07952
507.18726,0.05591
509.11573,0.02869
511.04419,0.03050
512.97266,0.03650
514.90113,0.04126
516.82960,0.05875
518.75807,0.06835
520.68654,0.06767
522.61501,0.08515
524.54348,0.10498
526.47194,0.08538
528.40041,0.05523
530.32888,0.06092
532.25735,0.08174
534.18582,0.09484
536.11429,0.10202
538.04276,0.10685
539.97122,0.11322
541.89969,0.11108
543.82816,0.10100
545.75663,0.09145
547.68510,0.07837
549.61357,0.12226
551.54204,0.29072
553.47051,0.42105
555.39897,0.32329
557.32744,0.13416
559.25591,0.06526
561.18438,0.07494
563.11285,0.07827
565.04132,0.09117
566.96979,0.11562
568.89825,0.10487
570.82672,0.05834
572.75519,0.02169
574.68366,0.01764
576.61213,0.04535
578.54060,0.08803
580.46907,0.12636
582.39754,0.14424
584.32600,0.13885
586.25447,0.13111
588.18294,0.13465
590.11141,0.13283
592.03988,0.10813
593.96835,0.08940
595.89682,0.09354
597.82528,0.08507
599.75375,0.06458
601.68222,0.07525
603.61069,0.11538
605.53916,0.13416
607.46763,0.12139
609.39610,0.10487
611.32456,0.08327
613.25303,0.05435
615.18150,0.04673
617.10997,0.06054
619.03844,0.05949
620.96691,0.04314
622.89538,0.03911
624.82385,0.05255
626.75231,0.06072
628.68078,0.04390
630.60925,0.02737
632.53772,0.03874
634.46619,0.06395
636.39466,0.07453
638.32313,0.06171
640.25159,0.06600
642.18006,0.10490
644.10853,0.12062
646.03700,0.09263
647.96547,0.05990
649.89394,0.05687
651.82241,0.07824
653.75088,0.09173
655.67934,0.08475
657.60781,0.07423
659.53628,0.07680
661.46475,0.08304
663.39322,0.07891
665.32169,0.06522
667.25016,0.04543
669.17862,0.03890
671.10709,0.06603
673.03556,0.10163
674.96403,0.11848
676.89250,0.11455
678.82097,0.10317
680.74944,0.08669
682.67791,0.07685
684.60637,0.07563
686.53484,0.07666
688.46331,0.08404
690.39178,0.10181
692.32025,0.11519
694.24872,0.10576
696.17719,0.09067
698.10565,0.09008
700.03412,0.09932
701.96259,0.11181
703.89106,0.11053
705.81953,0.09214
707.74800,0.05284
709.67647,-0.05780
711.60494,-0.16491
713.53340,-0.10434
715.46187,0.03856
717.39034,0.09392
719.31881,0.08886
721.24728,0.09055
723.17575,0.09831
725.10422,0.09069
727.03268,0.07492
728.96115,0.07412
730.88962,0.08532
732.81809,0.09468
734.74656,0.09301
736.67503,0.08109
738.60350,0.07324
740.53197,0.07929
742.46043,0.09128
744.38890,0.09318
746.31737,0.08111
748.24584,0.06968
750.17431,0.06530
752.10278,0.06884
754.03125,0.08741
755.95971,0.10799
757.88818,0.11372
759.81665,0.11279
761.74512,0.11668
763.67359,0.12401
765.60206,0.12649
767.53053,0.11474
769.45900,0.09831
771.38746,0.09914
773.31593,0.11052
775.24440,0.11339
777.17287,0.10804
779.10134,0.10065
781.02981,0.09121
782.95828,0.08361
784.88674,0.08318
786.81521,0.08450
788.74368,0.08462
790.67215,0.08827
792.60062,0.08993
794.52909,0.08639
796.45756,0.08991
798.38602,0.09764
800.31449,0.10158
802.24296,0.10883
804.17143,0.11444
806.09990,0.10854
808.02837,0.09793
809.95684,0.09629
811.88531,0.10052
813.81377,0.10121
815.74224,0.10742
817.67071,0.12111
819.59918,0.13000
821.52765,0.12878
823.45612,0.11607
825.38459,0.10242
827.31305,0.10326
829.24152,0.11331
831.16999,0.11957
833.09846,0.11812
835.02693,0.11082
836.95540,0.10203
838.88387,0.09321
840.81234,0.08885
842.74080,0.09522
844.66927,0.10460
846.59774,0.10818
848.52621,0.10357
850.45468,0.08828
852.38315,0.07565
854.31162,0.08025
856.24008,0.09551
858.16855,0.10931
860.09702,0.11577
862.02549,0.11832
863.95396,0.12133
865.88243,0.12083
867.81090,0.12135
869.73937,0.12881
871.66783,0.13353
873.59630,0.12586
875.52477,0.10949
877.45324,0.10131
879.38171,0.10511
881.31018,0.10939
883.23865,0.11459
885.16711,0.11793
887.09558,0.11389
889.02405,0.11153
890.95252,0.11773
892.88099,0.12429
894.80946,0.11930
896.73793,0.10907
898.66640,0.10580
900.59486,0.10763
902.52333,0.11312
904.45180,0.12015
906.38027,0.11976
908.30874,0.11604
910.23721,0.12232
912.16568,0.13348
914.09414,0.13559
916.02261,0.12884
917.95108,0.12362
919.87955,0.12598
921.80802,0.12686
923.73649,0.11754
925.66496,0.10570
927.59343,0.09926
929.52189,0.10058
931.45036,0.11041
933.37883,0.11867
935.30730,0.11991
937.23577,0.12382
939.16424,0.13051
941.09271,0.13080
943.02117,0.12411
944.94964,0.11699
946.87811,0.11128
948.80658,0.10781
950.73505,0.11078
952.66352,0.11750
954.59199,0.12006
956.52045,0.11610
958.44892,0.11418
960.37739,0.11649
962.30586,0.11659
964.23433,0.11917
966.16280,0.12773
968.09127,0.13128
970.01974,0.12430
971.94820,0.11701
973.87667,0.11446
975.80514,0.11597
977.73361,0.12046
979.66208,0.12164
981.59055,0.12204
983.51902,0.12538
985.44748,0.12764
987.37595,0.12768
989.30442,0.12790
991.23289,0.12928
993.16136,0.12846
995.08983,0.12427
997.01830,0.11943
998.94677,0.11616
1000.87523,0.11515
1002.80370,0.11403
1004.73217,0.11315
1006.66064,0.11773
1008.58911,0.12459
1010.51758,0.12642
1012.44605,0.12388
1014.37451,0.12074
1016.30298,0.11935
1018.23145,0.11673
1020.15992,0.11150
1022.08839,0.11213
1024.01686,0.11813
1025.94533,0.10939
1027.87380,0.08858
1029.80226,0.08660
1031.73073,0.10175
1033.65920,0.11124
1035.58767,0.11243
1037.51614,0.10839
1039.44461,0.10283
1041.37308,0.10132
1043.30154,0.10556
1045.23001,0.11093
1047.15848,0.11273
1049.08695,0.11743
1051.01542,0.12861
1052.94389,0.13668
1054.87236,0.13487
1056.80083,0.13173
1058.72929,0.13819
1060.65776,0.14661
1062.58623,0.14887
1064.51470,0.14863
1066.44317,0.14275
1068.37164,0.13198
1070.30011,0.12640
1072.22857,0.13048
1074.15704,0.14280
1076.08551,0.15630
1078.01398,0.15833
1079.94245,0.14679
1081.87092,0.13622
1083.79939,0.13384
1085.72786,0.13384
1087.65632,0.13103
1089.58479,0.12376
1091.51326,0.11763
1093.44173,0.11736
1095.37020,0.12194
1097.29867,0.13315
1099.22714,0.14371
1101.15560,0.14682
1103.08407,0.14486
1105.01254,0.13566
1106.94101,0.13176
1108.86948,0.13909
1110.79795,0.13976
1112.72642,0.13548
1114.65489,0.13489
1116.58335,0.13635
1118.51182,0.14157
1120.44029,0.14548
1122.36876,0.13998
1124.29723,0.12866
1126.22570,0.11825
1128.15417,0.11252
1130.08263,0.11756
1132.01110,0.13019
1133.93957,0.13754
1135.86804,0.13500
1137.79651,0.13002
1139.72498,0.12800
1141.65345,0.12504
1143.58191,0.12182
1145.51038,0.12445
1147.43885,0.13219
1149.36732,0.13984
1151.29579,0.14494
1153.22426,0.14590
1155.15273,0.14380
1157.08120,0.14349
1159.00966,0.14374
1160.93813,0.14193
1162.86660,0.14155
1164.79507,0.14310
1166.72354,0.14412
1168.65201,0.14423
1170.58048,0.14337
1172.50894,0.14130
1174.43741,0.13474
1176.36588,0.12598
1178.29435,0.12658
1180.22282,0.13620
1182.15129,0.14028
1184.07976,0.13036
1186.00823,0.11413
1187.93669,0.10963
1189.86516,0.12534
1191.79363,0.14519
1193.72210,0.15251
1195.65057,0.15283
1197.57904,0.15201
1199.50751,0.14895
1201.43597,0.14671
1203.36444,0.14825
1205.29291,0.15134
1207.22138,0.15046
1209.14985,0.14709
1211.07832,0.14636
1213.00679,0.14770
1214.93526,0.14713
1216.86372,0.14282
1218.79219,0.14117
1220.72066,0.14513
1222.64913,0.14792
1224.57760,0.14880
1226.50607,0.14985
1228.43454,0.15034
1230.36300,0.15133
1232.29147,0.14984
1234.21994,0.14484
1236.14841,0.14278
1238.07688,0.14487
1240.00535,0.14568
1241.93382,0.14490
1243.86229,0.14403
1245.79075,0.14278
1247.71922,0.14627
1249.64769,0.15185
1251.57616,0.14962
1253.50463,0.14353
1255.43310,0.14104
1257.36157,0.14068
1259.29003,0.14022
1261.21850,0.14056
1263.14697,0.14354
1265.07544,0.14957
1267.00391,0.15425
1268.93238,0.15385
1270.86085,0.15435
1272.78932,0.15836
1274.71778,0.15800
1276.64625,0.15204
1278.57472,0.14751
1280.50319,0.14644
1282.43166,0.14720
1284.36013,0.14824
1286.28860,0.14667
1288.21706,0.14532
1290.14553,0.14802
1292.07400,0.15051
1294.00247,0.14991
1295.93094,0.14728
1297.85941,0.14347
1299.78788,0.13820
1301.71634,0.12876
1303.64481,0.11848
1305.57328,0.11911
1307.50175,0.13271
1309.43022,0.14762
1311.35869,0.15652
1313.28716,0.16000
1315.21563,0.15985
1317.14409,0.15990
1319.07256,0.16194
1321.00103,0.16236
1322.92950,0.15956
1324.85797,0.15505
1326.78644,0.15139
1328.71491,0.14963
1330.64337,0.14819
1332.57184,0.15038
1334.50031,0.15653
1336.42878,0.16112
1338.35725,0.16585
1340.28572,0.15130
1342.21419,0.07502
1344.14266,-0.01239
1346.07112,0.00047
1347.99959,0.09355
1349.92806,0.14813
1351.85653,0.15275
1353.78500,0.15227
1355.71347,0.15119
1357.64194,0.14925
1359.57040,0.15316
1361.49887,0.16346
1363.42734,0.17009
1365.35581,0.16766
1367.28428,0.16366
1369.21275,0.16209
1371.14122,0.16368
1373.06969,0.16804
1374.99815,0.16965
1376.92662,0.16602
1378.85509,0.16350
1380.78356,0.16542
1382.71203,0.17005
1384.64050,0.17370
1386.56897,0.17383
1388.49743,0.17160
1390.42590,0.17083
1392.35437,0.17280
1394.28284,0.17734
1396.21131,0.18101
1398.13978,0.17808
1400.06825,0.17218
1401.99672,0.17118
1403.92518,0.17301
1405.85365,0.17320
1407.78212,0.17038
1409.71059,0.16440
1411.63906,0.15903
1413.56753,0.15868
1415.49600,0.16331
1417.42446,0.17137
1419.35293,0.17698
1421.28140,0.17449
1423.20987,0.17000
1425.13834,0.16916
1427.06681,0.17434
1428.99528,0.18162
1430.92375,0.18047
1432.85221,0.17577
1434.78068,0.18261
1436.70915,0.19191
1438.63762,0.18205
1440.56609,0.16847
1442.49456,0.16541
1444.42303,0.16969
1446.35149,0.17384
1448.27996,0.17408
1450.20843,0.17231
1452.13690,0.17486
1454.06537,0.18445
1455.99384,0.19893
1457.92231,0.20003
1459.85077,0.18518
1461.77924,0.17837
1463.70771,0.18181
1465.63618,0.18686
1467.56465,0.18505
1469.49312,0.18563
1471.42159,0.19867
1473.35006,0.21330
1475.27852,0.20402
1477.20699,0.18436
1479.13546,0.17504
1481.06393,0.17770
1482.99240,0.18281
1484.92087,0.18761
1486.84934,0.19410
1488.77780,0.19963
1490.70627,0.19827
1492.63474,0.19378
1494.56321,0.19484
1496.49168,0.19996
1498.42015,0.20025
1500.34862,0.19566
1502.27709,0.19215
1504.20555,0.19787
1506.13402,0.21799
1508.06249,0.21854
1509.99096,0.19979
1511.91943,0.19252
1513.84790,0.19655
1515.77637,0.20592
1517.70483,0.21188
1519.63330,0.21924
1521.56177,0.22973
1523.49024,0.22316
1525.41871,0.20812
1527.34718,0.19804
1529.27565,0.19632
1531.20412,0.20070
1533.13258,0.20052
1535.06105,0.19477
1536.98952,0.20271
1538.91799,0.23099
1540.84646,0.25128
1542.77493,0.23239
1544.70340,0.20812
1546.63186,0.19118
1548.56033,0.18670
1550.48880,0.19114
1552.41727,0.19609
1554.34574,0.20221
1556.27421,0.21812
1558.20268,0.24242
1560.13115,0.22624
1562.05961,0.20015
1563.98808,0.19141
1565.91655,0.19032
1567.84502,0.19506
1569.77349,0.20321
1571.70196,0.20461
1573.63043,0.20511
1575.55889,0.20780
1577.48736,0.19919
1579.41583,0.18566
1581.34430,0.17950
1583.27277,0.17895
1585.20124,0.17916
1587.12971,0.17971
1589.05818,0.18055
1590.98664,0.18007
1592.91511,0.17991
1594.84358,0.18022
1596.77205,0.17761
1598.70052,0.17463
1600.62899,0.17753
1602.55746,0.18484
1604.48592,0.18919
1606.41439,0.18774
1608.34286,0.18423
1610.27133,0.18309
1612.19980,0.18342
1614.12827,0.18640
1616.05674,0.19670
1617.98521,0.20376
1619.91367,0.20319
1621.84214,0.20469
1623.77061,0.20350
1625.69908,0.20070
1627.62755,0.20074
1629.55602,0.19765
1631.48449,0.19590
1633.41295,0.20239
1635.34142,0.21420
1637.26989,0.21243
1639.19836,0.20207
1641.12683,0.19851
1643.05530,0.20246
1644.98377,0.21268
1646.91223,0.22316
1648.84070,0.22219
1650.76917,0.22502
1652.69764,0.23735
1654.62611,0.22568
1656.55458,0.20673
1658.48305,0.19930
1660.41152,0.19970
1662.33998,0.20439
1664.26845,0.20702
1666.19692,0.20946
1668.12539,0.21626
1670.05386,0.21911
1671.98233,0.21473
1673.91080,0.21234
1675.83926,0.20568
1677.76773,0.19679
1679.69620,0.19857
1681.62467,0.21465
1683.55314,0.23663
1685.48161,0.23111
1687.41008,0.21277
1689.33855,0.20315
1691.26701,0.19758
1693.19548,0.19968
1695.12395,0.21492
1697.05242,0.23020
1698.98089,0.23191
1700.90936,0.22392
1702.83783,0.21306
1704.76629,0.20597
1706.69476,0.19985
1708.62323,0.19210
1710.55170,0.18644
1712.48017,0.19044
1714.40864,0.20625
1716.33711,0.21948
1718.26558,0.21052
1720.19404,0.19695
1722.12251,0.19169
1724.05098,0.18898
1725.97945,0.18493
1727.90792,0.18500
1729.83639,0.19262
1731.76486,0.20178
1733.69332,0.20534
1735.62179,0.20242
1737.55026,0.20282
1739.47873,0.20452
1741.40720,0.20111
1743.33567,0.19807
1745.26414,0.20263
1747.19261,0.21388
1749.12107,0.22013
1751.04954,0.20867
1752.97801,0.19454
1754.90648,0.19083
1756.83495,0.19202
1758.76342,0.19483
1760.69189,0.20057
1762.62035,0.20240
1764.54882,0.19782
1766.47729,0.19508
1768.40576,0.19653
1770.33423,0.20213
1772.26270,0.20826
1774.19117,0.20336
1776.11964,0.19265
1778.04810,0.18878
1779.97657,0.19196
1781.90504,0.19328
1783.83351,0.19103
1785.76198,0.18838
1787.69045,0.18937
1789.61892,0.19726
1791.54738,0.20729
1793.47585,0.20684
1795.40432,0.19777
1797.33279,0.19095
1799.26126,0.18965
1801.18973,0.19069
1803.11820,0.18889
1805.04666,0.18702
1806.97513,0.18801
1808.90360,0.18936
1810.83207,0.18804
1812.76054,0.18468
1814.68901,0.18234
1816.61748,0.18427
1818.54595,0.19237
1820.47441,0.19454
1822.40288,0.18727
1824.33135,0.18578
1826.25982,0.19099
1828.18829,0.19719
1830.11676,0.20013
1832.04523,0.19315
1833.97369,0.18656
1835.90216,0.18570
1837.83063,0.18636
1839.75910,0.18813
1841.68757,0.19342
1843.61604,0.19845
1845.54451,0.19645
1847.47298,0.19086
1849.40144,0.18689
1851.32991,0.18568
1853.25838,0.18481
1855.18685,0.18217
1857.11532,0.18059
1859.04379,0.18358
1860.97226,0.18907
1862.90072,0.19187
1864.82919,0.19349
1866.75766,0.20018
1868.68613,0.20751
1870.61460,0.20388
1872.54307,0.19476
1874.47154,0.18765
1876.40001,0.18344
1878.32847,0.18358
1880.25694,0.18658
1882.18541,0.18586
1884.11388,0.18237
1886.04235,0.18315
1887.97082,0.18838
1889.89929,0.19221
1891.82775,0.19252
1893.75622,0.19267
1895.68469,0.19028
1897.61316,0.18569
1899.54163,0.18494
1901.47010,0.18661
1903.39857,0.18832
1905.32704,0.19115
1907.25550,0.19348
1909.18397,0.19162
1911.11244,0.18514
1913.04091,0.18081
1914.96938,0.18399
1916.89785,0.19004
1918.82632,0.19335
1920.75478,0.19658
1922.68325,0.19964
1924.61172,0.19728
1926.54019,0.19134
1928.46866,0.18680
1930.39713,0.18439
1932.32560,0.18464
1934.25407,0.18722
1936.18253,0.18817
1938.11100,0.18582
1940.03947,0.18473
1941.96794,0.18858
1943.89641,0.19306
1945.82488,0.19253
1947.75335,0.18805
1949.68181,0.18459
1951.61028,0.18413
1953.53875,0.18516
1955.46722,0.18746
1957.39569,0.18938
1959.32416,0.18883
1961.25263,0.18692
1963.18110,0.18729
1965.10956,0.19071
1967.03803,0.19246
1968.96650,0.19085
1970.89497,0.19055
1972.82344,0.19155
1974.75191,0.18727
1976.68038,0.17903
1978.60884,0.17666
1980.53731,0.18354
1982.46578,0.19116
1984.39425,0.19173
1986.32272,0.18893
1988.25119,0.18787
1990.17966,0.18985
1992.10812,0.19303
1994.03659,0.19367
1995.96506,0.19275
1997.89353,0.19137
1999.82200,0.18975
2001.75047,0.19031
2003.67894,0.19224
2005.60741,0.19188
2007.53587,0.18995
2009.46434,0.18899
2011.39281,0.18773
2013.32128,0.18582
2015.24975,0.18625
2017.17822,0.18862
2019.10669,0.18944
2021.03515,0.18936
2022.96362,0.18919
2024.89209,0.18905
2026.82056,0.19006
2028.74903,0.19123
2030.67750,0.19297
2032.60597,0.19481
2034.53444,0.19274
2036.46290,0.18977
2038.39137,0.19199
2040.31984,0.19460
2042.24831,0.19259
2044.17678,0.19062
2046.10525,0.19075
2048.03372,0.19015
2049.96218,0.18931
2051.89065,0.19065
2053.81912,0.19172
2055.74759,0.19003
2057.67606,0.18808
2059.60453,0.18628
2061.53300,0.18525
2063.46147,0.18724
2065.38993,0.18985
2067.31840,0.19195
2069.24687,0.19430
2071.17534,0.19520
2073.10381,0.19558
2075.03228,0.19707
2076.96075,0.19639
2078.88921,0.19282
2080.81768,0.19129
2082.74615,0.19108
2084.67462,0.18858
2086.60309,0.18724
2088.53156,0.18907
2090.46003,0.18960
2092.38850,0.18745
2094.31696,0.18610
2096.24543,0.18699
2098.17390,0.18962
2100.10237,0.19311
2102.03084,0.19576
2103.95931,0.19646
2105.88778,0.19532
2107.81624,0.19307
2109.74471,0.19151
2111.67318,0.19322
2113.60165,0.19648
2115.53012,0.19760
2117.45859,0.19823
2119.38706,0.19844
2121.31553,0.19592
2123.24399,0.19356
2125.17246,0.19368
2127.10093,0.19359
2129.02940,0.19168
2130.95787,0.19089
2132.88634,0.19442
2134.81481,0.19943
2136.74327,0.19926
2138.67174,0.19404
2140.60021,0.19046
2142.52868,0.18993
2144.45715,0.18988
2146.38562,0.18995
2148.31409,0.18962
2150.24255,0.18983
2152.17102,0.19158
2154.09949,0.19326
2156.02796,0.19485
2157.95643,0.19721
2159.88490,0.19923
2161.81337,0.19958
2163.74184,0.19739
2165.67030,0.19348
2167.59877,0.19091
2169.52724,0.19020
2171.45571,0.18980
2173.38418,0.18979
2175.31265,0.19080
2177.24112,0.19444
2179.16958,0.19963
2181.09805,0.20100
2183.02652,0.19654
2184.95499,0.19072
2186.88346,0.18847
2188.81193,0.18888
2190.74040,0.18940
2192.66887,0.19057
2194.59733,0.19261
2196.52580,0.19394
2198.45427,0.19485
2200.38274,0.19730
2202.31121,0.19857
2204.23968,0.19676
2206.16815,0.19584
2208.09661,0.19682
2210.02508,0.19750
2211.95355,0.19859
2213.88202,0.19969
2215.81049,0.19769
2217.73896,0.19426
2219.66743,0.19305
2221.59590,0.19308
2223.52436,0.19385
2225.45283,0.19670
2227.38130,0.19891
2229.30977,0.19673
2231.23824,0.19412
2233.16671,0.19641
2235.09518,0.20046
2237.02364,0.20090
2238.95211,0.19794
2240.88058,0.19505
2242.80905,0.19306
2244.73752,0.19019
2246.66599,0.18766
2248.59446,0.18900
2250.52293,0.19304
2252.45139,0.19515
2254.37986,0.19345
2256.30833,0.19040
2258.23680,0.18906
2260.16527,0.18997
2262.09374,0.19280
2264.02221,0.19576
2265.95067,0.19607
2267.87914,0.19428
2269.80761,0.19461
2271.73608,0.19686
2273.66455,0.19745
2275.59302,0.19753
2277.52149,0.19759
2279.44996,0.19644
2281.37842,0.19533
2283.30689,0.19505
2285.23536,0.19491
2287.16383,0.19403
2289.09230,0.19422
2291.02077,0.19579
2292.94924,0.19446
2294.87770,0.19181
2296.80617,0.19234
2298.73464,0.19217
2300.66311,0.18903
2302.59158,0.18870
2304.52005,0.19300
2306.44852,0.19790
2308.37699,0.20174
2310.30545,0.20333
2312.23392,0.20244
2314.16239,0.20203
2316.09086,0.20134
2318.01933,0.20339
2319.94780,0.21118
2321.87627,0.21363
2323.80473,0.20728
2325.73320,0.20451
2327.66167,0.20926
2329.59014,0.21702
2331.51861,0.21891
2333.44708,0.20894
2335.37555,0.19721
2337.30401,0.19328
2339.23248,0.20601
2341.16095,0.23024
2343.08942,0.23426
2345.01789,0.21803
2346.94636,0.20631
2348.87483,0.20475
2350.80330,0.21218
2352.73176,0.21781
2354.66023,0.20386
2356.58870,0.18555
2358.51717,0.18842
2360.44564,0.20341
2362.37411,0.22413
2364.30258,0.24114
2366.23104,0.22863
2368.15951,0.19765
2370.08798,0.18236
2372.01645,0.18656
2373.94492,0.19169
2375.87339,0.19141
2377.80186,0.19210
2379.73033,0.19323
2381.65879,0.19206
2383.58726,0.19030
2385.51573,0.18951
2387.44420,0.19087
2389.37267,0.19422
2391.30114,0.19765
2393.22961,0.19939
2395.15807,0.19909
2397.08654,0.19851
2399.01501,0.19884
2400.94348,0.19897
2402.87195,0.19794
2404.80042,0.19701
2406.72889,0.19717
2408.65736,0.19837
2410.58582,0.20001
2412.51429,0.19980
2414.44276,0.19644
2416.37123,0.19244
2418.29970,0.19110
2420.22817,0.19143
2422.15664,0.19060
2424.08510,0.19010
2426.01357,0.19276
2427.94204,0.19624
2429.87051,0.19686
2431.79898,0.19586
2433.72745,0.19575
2435.65592,0.19774
2437.58439,0.20085
2439.51285,0.20128
2441.44132,0.19889
2443.36979,0.19775
2445.29826,0.20063
2447.22673,0.20357
2449.15520,0.19649
2451.08367,0.18198
2453.01213,0.17583
2454.94060,0.18181
2456.86907,0.19084
2458.79754,0.19606
2460.72601,0.19780
2462.65448,0.19863
2464.58295,0.19807
2466.51142,0.19496
2468.43988,0.19043
2470.36835,0.18909
2472.29682,0.19142
2474.22529,0.19302
2476.15376,0.19231
2478.08223,0.19130
2480.01070,0.19361
2481.93916,0.19694
2483.86763,0.19817
2485.79610,0.19975
2487.72457,0.20109
2489.65304,0.19990
2491.58151,0.19605
2493.50998,0.19245
2495.43844,0.19295
2497.36691,0.19534
2499.29538,0.19515
2501.22385,0.19267
2503.15232,0.19203
2505.08079,0.19486
2507.00926,0.19913
2508.93773,0.20203
2510.86619,0.20130
2512.79466,0.19925
2514.72313,0.19758
2516.65160,0.19459
2518.58007,0.19297
2520.50854,0.19383
2522.43701,0.19325
2524.36547,0.19191
2526.29394,0.19392
2528.22241,0.19924
2530.15088,0.20427
2532.07935,0.20580
2534.00782,0.20437
2535.93629,0.20303
2537.86476,0.20281
2539.79322,0.20384
2541.72169,0.20476
2543.65016,0.20286
2545.57863,0.19933
2547.50710,0.19739
2549.43557,0.19857
2551.36404,0.20232
2553.29250,0.20371
2555.22097,0.20021
2557.14944,0.19842
2559.07791,0.20058
2561.00638,0.20117
2562.93485,0.20084
2564.86332,0.20274
2566.79179,0.20487
2568.72025,0.20565
2570.64872,0.20500
2572.57719,0.20280
2574.50566,0.20185
2576.43413,0.20301
2578.36260,0.20199
2580.29107,0.19894
2582.21953,0.19776
2584.14800,0.19807
2586.07647,0.19959
2588.00494,0.20229
2589.93341,0.20224
2591.86188,0.19848
2593.79035,0.19540
2595.71882,0.19648
2597.64728,0.20035
2599.57575,0.20296
2601.50422,0.20330
2603.43269,0.20236
2605.36116,0.19958
2607.28963,0.19764
2609.21810,0.20228
2611.14656,0.20633
2613.07503,0.20118
2615.00350,0.19703
2616.93197,0.19919
2618.86044,0.20112
2620.78891,0.20118
2622.71738,0.19997
2624.64585,0.19947
2626.57431,0.20189
2628.50278,0.20432
2630.43125,0.20433
2632.35972,0.20471
2634.28819,0.20566
2636.21666,0.20380
2638.14513,0.20126
2640.07359,0.20229
2642.00206,0.20510
2643.93053,0.20590
2645.85900,0.20517
2647.78747,0.20516
2649.71594,0.20554
2651.64441,0.20398
2653.57288,0.19993
2655.50134,0.19633
2657.42981,0.19712
2659.35828,0.20192
2661.28675,0.20535
2663.21522,0.20550
2665.14369,0.20652
2667.07216,0.21051
2669.00062,0.21328
2670.92909,0.21081
2672.85756,0.20612
2674.78603,0.20348
2676.71450,0.20311
2678.64297,0.20446
2680.57144,0.20638
2682.49990,0.20655
2684.42837,0.20536
2686.35684,0.20538
2688.28531,0.20664
2690.21378,0.20718
2692.14225,0.20652
2694.07072,0.20500
2695.99919,0.20325
2697.92765,0.20387
2699.85612,0.20667
2701.78459,0.20801
2703.71306,0.20751
2705.64153,0.20626
2707.57000,0.20399
2709.49847,0.20143
2711.42693,0.19958
2713.35540,0.19917
2715.28387,0.20253
2717.21234,0.20920
2719.14081,0.21404
2721.06928,0.21454
2722.99775,0.21199
2724.92622,0.20999
2726.85468,0.21107
2728.78315,0.21196
2730.71162,0.21110
2732.64009,0.21064
2734.56856,0.21124
2736.49703,0.21265
2738.42550,0.21307
2740.35396,0.21266
2742.28243,0.21354
2744.21090,0.21350
2746.13937,0.21107
2748.06784,0.21019
2749.99631,0.21192
2751.92478,0.21316
2753.85325,0.21223
2755.78171,0.20867
2757.71018,0.20684
2759.63865,0.21112
2761.56712,0.21548
2763.49559,0.21455
2765.42406,0.21114
2767.35253,0.20873
2769.28099,0.20890
2771.20946,0.20992
2773.13793,0.20795
2775.06640,0.20492
2776.99487,0.20674
2778.92334,0.21246
2780.85181,0.21544
2782.78028,0.21345
2784.70874,0.21113
2786.63721,0.21248
2788.56568,0.21522
2790.49415,0.21469
2792.42262,0.21044
2794.35109,0.20733
2796.27956,0.20767
2798.20802,0.20656
2800.13649,0.20251
2802.06496,0.20123
2803.99343,0.20403
2805.92190,0.20767
2807.85037,0.20955
2809.77884,0.21137
2811.70731,0.21780
2813.63577,0.22438
2815.56424,0.22334
2817.49271,0.21662
2819.42118,0.21191
2821.34965,0.21162
2823.27812,0.21240
2825.20659,0.21394
2827.13505,0.21552
2829.06352,0.21541
2830.99199,0.21376
2832.92046,0.21233
2834.84893,0.21496
2836.77740,0.21991
2838.70587,0.22210
2840.63433,0.22111
2842.56280,0.21819
2844.49127,0.21553
2846.41974,0.21570
2848.34821,0.21486
2850.27668,0.21152
2852.20515,0.21160
2854.13362,0.21326
2856.06208,0.21389
2857.99055,0.21680
2859.91902,0.22076
2861.84749,0.22214
2863.77596,0.22088
2865.70443,0.22045
2867.63290,0.22180
2869.56136,0.22091
2871.48983,0.21554
2873.41830,0.21021
2875.34677,0.21063
2877.27524,0.21515
2879.20371,0.21807
2881.13218,0.21683
2883.06065,0.21269
2884.98911,0.20988
2886.91758,0.21013
2888.84605,0.20911
2890.77452,0.20546
2892.70299,0.20347
2894.63146,0.20553
2896.55993,0.20991
2898.48839,0.21401
2900.41686,0.21534
2902.34533,0.21208
2904.27380,0.20651
2906.20227,0.20148
2908.13074,0.19943
2910.05921,0.20185
2911.98768,0.20527
2913.91614,0.20723
2915.84461,0.20721
2917.77308,0.20509
2919.70155,0.20437
2921.63002,0.20748
2923.55849,0.20885
2925.48696,0.20248
2927.41542,0.19791
2929.34389,0.20475
2931.27236,0.21373
2933.20083,0.21631
2935.12930,0.21398
2937.05777,0.21044
2938.98624,0.21251
2940.91471,0.21826
2942.84317,0.21834
2944.77164,0.20997
2946.70011,0.19862
2948.62858,0.19678
2950.55705,0.20560
2952.48552,0.21289
2954.41399,0.21163
2956.34245,0.20130
2958.27092,0.19418
2960.19939,0.20213
2962.12786,0.21440
2964.05633,0.21725
2965.98480,0.21085
2967.91327,0.20430
2969.84174,0.20721
2971.77020,0.21590
2973.69867,0.22025
2975.62714,0.21680
2977.55561,0.20759
2979.48408,0.20324
2981.41255,0.21052
2983.34102,0.21944
2985.26948,0.22027
2987.19795,0.21641
2989.12642,0.21717
2991.05489,0.22104
2992.98336,0.21938
2994.91183,0.21641
2996.84030,0.21749
2998.76877,0.22228
3000.69723,0.22981
3002.62570,0.23197
3004.55417,0.22654
3006.48264,0.21987
3008.41111,0.21185
3010.33958,0.19850
3012.26805,0.17795
3014.19651,0.14858
3016.12498,0.12374
3018.05345,0.13468
3019.98192,0.18015
3021.91039,0.21907
3023.83886,0.22962
3025.76733,0.22427
3027.69579,0.21964
3029.62426,0.21765
3031.55273,0.21532
3033.48120,0.21781
3035.40967,0.22686
3037.33814,0.23218
3039.26661,0.22922
3041.19508,0.22473
3043.12354,0.22463
3045.05201,0.22579
3046.98048,0.22122
3048.90895,0.21714
3050.83742,0.22281
3052.76589,0.22976
3054.69436,0.22479
3056.62282,0.21190
3058.55129,0.20892
3060.47976,0.21860
3062.40823,0.22594
3064.33670,0.22081
3066.26517,0.20835
3068.19364,0.20532
3070.12211,0.21442
3072.05057,0.21971
3073.97904,0.21326
3075.90751,0.20493
3077.83598,0.20889
3079.76445,0.22042
3081.69292,0.22168
3083.62139,0.20714
3085.54985,0.19181
3087.47832,0.19395
3089.40679,0.20897
3091.33526,0.21800
3093.26373,0.21155
3095.19220,0.20116
3097.12067,0.20188
3099.04914,0.20837
3100.97760,0.20924
3102.90607,0.20097
3104.83454,0.19606
3106.76301,0.20626
3108.69148,0.21787
3110.61995,0.21658
3112.54842,0.21107
3114.47688,0.21354
3116.40535,0.21864
3118.33382,0.21656
3120.26229,0.20841
3122.19076,0.20300
3124.11923,0.20541
3126.04770,0.20861
3127.97617,0.20858
3129.90463,0.20892
3131.83310,0.21121
3133.76157,0.21528
3135.69004,0.21778
3137.61851,0.21568
3139.54698,0.21417
3141.47545,0.21958
3143.40391,0.22776
3145.33238,0.23067
3147.26085,0.22721
3149.18932,0.22436
3151.11779,0.22663
3153.04626,0.22773
3154.97473,0.22616
3156.90320,0.22820
3158.83166,0.23054
3160.76013,0.22585
3162.68860,0.21630
3164.61707,0.21084
3166.54554,0.21468
3168.47401,0.22247
3170.40248,0.22666
3172.33094,0.22501
3174.25941,0.22136
3176.18788,0.22468
3178.11635,0.23206
3180.04482,0.23260
3181.97329,0.23038
3183.90176,0.23292
3185.83022,0.23751
3187.75869,0.23855
3189.68716,0.23530
3191.61563,0.23264
3193.54410,0.23312
3195.47257,0.23386
3197.40104,0.23196
3199.32951,0.22672
3201.25797,0.21961
3203.18644,0.21407
3205.11491,0.21042
3207.04338,0.20826
3208.97185,0.20944
3210.90032,0.21432
3212.82879,0.22305
3214.75725,0.22959
3216.68572,0.22823
3218.61419,0.22425
3220.54266,0.21993
3222.47113,0.21657
3224.39960,0.21906
3226.32807,0.22200
3228.25654,0.21938
3230.18500,0.22011
3232.11347,0.22628
3234.04194,0.22766
3235.97041,0.22514
3237.89888,0.22411
3239.82735,0.22264
3241.75582,0.21906
3243.68428,0.21513
3245.61275,0.21444
3247.54122,0.21863
3249.46969,0.22444
3251.39816,0.22685
3253.32663,0.22484
3255.25510,0.22189
3257.18357,0.22095
3259.11203,0.22319
3261.04050,0.22646
3262.96897,0.22565
3264.89744,0.22122
3266.82591,0.21999
3268.75438,0.22478
3270.68285,0.22883
3272.61131,0.22661
3274.53978,0.22124
3276.46825,0.21569
3278.39672,0.21279
3280.32519,0.21343
3282.25366,0.21254
3284.18213,0.21063
3286.11060,0.21261
3288.03906,0.21497
3289.96753,0.21564
3291.89600,0.21662
3293.82447,0.21495
3295.75294,0.21361
3297.68141,0.21692
3299.60988,0.22158
3301.53834,0.22363
3303.46681,0.22174
3305.39528,0.21744
3307.32375,0.21458
3309.25222,0.21827
3311.18069,0.22353
3313.10916,0.22227
3315.03763,0.21983
3316.96609,0.22192
3318.89456,0.22413
3320.82303,0.21868
3322.75150,0.20960
3324.67997,0.20723
3326.60844,0.21067
3328.53691,0.21785
3330.46537,0.22784
3332.39384,0.23122
3334.32231,0.22721
3336.25078,0.22568
3338.17925,0.22585
3340.10772,0.22588
3342.03619,0.22696
3343.96466,0.22630
3345.89312,0.22779
3347.82159,0.23312
3349.75006,0.23712
3351.67853,0.23811
3353.60700,0.23536
3355.53547,0.22887
3357.46394,0.22503
3359.39240,0.22965
3361.32087,0.23573
3363.24934,0.23369
3365.17781,0.22687
3367.10628,0.22398
3369.03475,0.22542
3370.96322,0.22657
3372.89168,0.22690
3374.82015,0.22702
3376.74862,0.22818
3378.67709,0.22956
3380.60556,0.22600
3382.53403,0.21791
3384.46250,0.21223
3386.39097,0.21247
3388.31943,0.21416
3390.24790,0.21411
3392.17637,0.21412
3394.10484,0.21434
3396.03331,0.21744
3397.96178,0.23052
3399.89025,0.25012
3401.81871,0.26037
3403.74718,0.25080
3405.67565,0.22959
3407.60412,0.21880
3409.53259,0.22244
3411.46106,0.22449
3413.38953,0.22172
3415.31800,0.22063
3417.24646,0.22429
3419.17493,0.22924
3421.10340,0.22940
3423.03187,0.22508
3424.96034,0.21903
3426.88881,0.21233
3428.81728,0.20749
3430.74574,0.21101
3432.67421,0.22155
3434.60268,0.22590
3436.53115,0.22066
3438.45962,0.21568
3440.38809,0.21490
3442.31656,0.21584
3444.24503,0.21909
3446.17349,0.22359
3448.10196,0.22467
3450.03043,0.21862
3451.95890,0.21166
3453.88737,0.21120
3455.81584,0.20898
3457.74431,0.20339
3459.67277,0.20520
3461.60124,0.20898
3463.52971,0.20545
3465.45818,0.20077
3467.38665,0.20099
3469.31512,0.20485
3471.24359,0.20941
3473.17206,0.21276
3475.10052,0.21333
3477.02899,0.20901
3478.95746,0.20258
3480.88593,0.19759
3482.81440,0.19347
3484.74287,0.19404
3486.67134,0.19859
3488.59980,0.19945
3490.52827,0.19973
3492.45674,0.20330
3494.38521,0.20388
3496.31368,0.20096
3498.24215,0.20239
3500.17062,0.21029
3502.09909,0.21640
3504.02755,0.21045
3505.95602,0.19789
3507.88449,0.19459
3509.81296,0.20117
3511.74143,0.20348
3513.66990,0.19755
3515.59837,0.19289
3517.52683,0.19665
3519.45530,0.20244
3521.38377,0.19892
3523.31224,0.18855
3525.24071,0.18280
3527.16918,0.18319
3529.09765,0.18144
3531.02611,0.17634
3532.95458,0.17445
3534.88305,0.17664
3536.81152,0.17909
3538.73999,0.17705
3540.66846,0.17256
3542.59693,0.17443
3544.52540,0.18172
3546.45386,0.18403
3548.38233,0.18042
3550.31080,0.17830
3552.23927,0.17782
3554.16774,0.17608
3556.09621,0.17553
3558.02468,0.17684
3559.95314,0.17857
3561.88161,0.17964
3563.81008,0.18004
3565.73855,0.18309
3567.66702,0.18477
3569.59549,0.17824
3571.52396,0.17055
3573.45243,0.16607
3575.38089,0.16493
3577.30936,0.16672
3579.23783,0.16834
3581.16630,0.16850
3583.09477,0.17152
3585.02324,0.17834
3586.95171,0.17988
3588.88017,0.17069
3590.80864,0.16592
3592.73711,0.16992
3594.66558,0.17355
3596.59405,0.17121
3598.52252,0.16743
3600.45099,0.16569
3602.37946,0.16455
3604.30792,0.16520
3606.23639,0.17273
3608.16486,0.18474
3610.09333,0.18879
3612.02180,0.18376
3613.95027,0.17543
3615.87874,0.17057
3617.80720,0.17305
3619.73567,0.17252
3621.66414,0.16309
3623.59261,0.15655
3625.52108,0.15770
3627.44955,0.16304
3629.37802,0.16135
3631.30649,0.15233
3633.23495,0.14865
3635.16342,0.14978
3637.09189,0.14964
3639.02036,0.14745
3640.94883,0.14744
3642.87730,0.15041
3644.80577,0.15597
3646.73423,0.16703
3648.66270,0.18012
3650.59117,0.17110
3652.51964,0.15227
3654.44811,0.14597
3656.37658,0.14883
3658.30505,0.14916
3660.23352,0.14446
3662.16198,0.13925
3664.09045,0.13726
3666.01892,0.13845
3667.94739,0.14258
3669.87586,0.14686
3671.80433,0.14330
3673.73280,0.14264
3675.66126,0.15007
3677.58973,0.14933
3679.51820,0.14328
3681.44667,0.14091
3683.37514,0.14244
3685.30361,0.14569
3687.23208,0.15130
3689.16055,0.15810
3691.08901,0.15397
3693.01748,0.14403
3694.94595,0.13972
3696.87442,0.13662
3698.80289,0.13210
3700.73136,0.13419
3702.65983,0.13888
3704.58829,0.13542
3706.51676,0.13213
3708.44523,0.13808
3710.37370,0.15094
3712.30217,0.15497
3714.23064,0.14658
3716.15911,0.13703
3718.08757,0.13173
3720.01604,0.13452
3721.94451,0.14486
3723.87298,0.15417
3725.80145,0.15178
3727.72992,0.14409
3729.65839,0.14567
3731.58686,0.15514
3733.51532,0.16239
3735.44379,0.16154
3737.37226,0.15335
3739.30073,0.14695
3741.22920,0.15001
3743.15767,0.15915
3745.08614,0.16406
3747.01460,0.16901
3748.94307,0.17815
3750.87154,0.17415
3752.80001,0.15618
3754.72848,0.14835
3756.65695,0.15007
3758.58542,0.15065
3760.51389,0.14145
3762.44235,0.13285
3764.37082,0.13533
3766.29929,0.14479
3768.22776,0.15079
3770.15623,0.14857
3772.08470,0.14053
3774.01317,0.13489
3775.94163,0.13366
3777.87010,0.13570
3779.79857,0.13788
3781.72704,0.13567
3783.65551,0.13391
3785.58398,0.13481
3787.51245,0.13336
3789.44092,0.12985
3791.36938,0.12848
3793.29785,0.13225
3795.22632,0.13840
3797.15479,0.13799
3799.08326,0.13884
3801.01173,0.15097
3802.94020,0.15291
3804.86866,0.14760
3806.79713,0.14507
3808.72560,0.13417
3810.65407,0.12599
3812.58254,0.12887
3814.51101,0.13751
3816.43948,0.14632
3818.36795,0.15322
3820.29641,0.15948
3822.22488,0.15725
3824.15335,0.14639
3826.08182,0.13632
3828.01029,0.12990
3829.93876,0.12519
3831.86723,0.12357
3833.79569,0.12818
3835.72416,0.13368
3837.65263,0.13973
3839.58110,0.14423
3841.50957,0.13860
3843.43804,0.13136
3845.36651,0.12827
3847.29498,0.12548
3849.22344,0.12550
3851.15191,0.13108
3853.08038,0.13234
3855.00885,0.12461
3856.93732,0.12240
3858.86579,0.12206
3860.79426,0.12393
3862.72272,0.13191
3864.65119,0.13764
3866.57966,0.13234
3868.50813,0.12691
3870.43660,0.12813
3872.36507,0.13092
3874.29354,0.12872
3876.22200,0.12097
3878.15047,0.11802
3880.07894,0.12445
3882.00741,0.13180
3883.93588,0.13598
3885.86435,0.13331
3887.79282,0.12514
3889.72129,0.12509
3891.64975,0.13034
3893.57822,0.12655
3895.50669,0.11894
3897.43516,0.11802
3899.36363,0.12677
3901.29210,0.13857
3903.22057,0.13963
3905.14903,0.13156
3907.07750,0.12642
3909.00597,0.12504
3910.93444,0.12383
3912.86291,0.12315
3914.79138,0.12584
3916.71985,0.12827
3918.64832,0.12553
3920.57678,0.12169
3922.50525,0.11644
3924.43372,0.10968
3926.36219,0.10744
3928.29066,0.10527
3930.21913,0.09929
3932.14760,0.09890
3934.07606,0.10494
3936.00453,0.10807
3937.93300,0.10884
3939.86147,0.10967
3941.78994,0.11012
3943.71841,0.11150
3945.64688,0.11314
3947.57535,0.11221
3949.50381,0.10974
3951.43228,0.10983
3953.36075,0.11184
3955.28922,0.11361
3957.21769,0.11550
3959.14616,0.11449
3961.07463,0.10974
3963.00309,0.10386
3964.93156,0.09631
3966.86003,0.09256
3968.78850,0.09606
3970.71697,0.10184
3972.64544,0.10940
3974.57391,0.11500
3976.50238,0.11320
3978.43084,0.10729
3980.35931,0.10414
3982.28778,0.10757
3984.21625,0.10867
3986.14472,0.10063
3988.07319,0.09174
3990.00166,0.08824
3991.93012,0.09046
3993.85859,0.09698
3995.78706,0.10429
3997.71553,0.10898
3999.64400,0.10763
4001.57247,0.10226
4003.50094,0.10109
4005.42941,0.10472
4007.35787,0.10688
4009.28634,0.10807
4011.21481,0.11027
4013.14328,0.10650
4015.07175,0.09479
4017.00022,0.08856
4018.92869,0.09359
4020.85715,0.09632
4022.78562,0.09045
4024.71409,0.08761
4026.64256,0.09464
4028.57103,0.10310
4030.49950,0.10115
4032.42797,0.09125
4034.35644,0.08846
4036.28490,0.09273
4038.21337,0.09590
4040.14184,0.09952
4042.07031,0.10390
4043.99878,0.10660
4045.92725,0.10218
4047.85572,0.09364
4049.78418,0.09304
4051.71265,0.09638
4053.64112,0.09489
4055.56959,0.09276
4057.49806,0.09551
4059.42653,0.09848
4061.35500,0.09518
4063.28346,0.09254
4065.21193,0.09635
4067.14040,0.09671
4069.06887,0.08839
4070.99734,0.08092
4072.92581,0.08031
4074.85428,0.08180
4076.78275,0.08188
4078.71121,0.08150
4080.63968,0.08142
4082.56815,0.08487
4084.49662,0.09277
4086.42509,0.09862
4088.35356,0.09984
4090.28203,0.09759
4092.21049,0.08979
4094.13896,0.08169
4096.06743,0.08081
4097.99590,0.08192
4099.92437,0.07945
4101.85284,0.07610
4103.78131,0.07492
4105.70978,0.07830
4107.63824,0.08197
4109.56671,0.07930
4111.49518,0.07647
4113.42365,0.07617
4115.35212,0.07125
4117.28059,0.06854
4119.20906,0.07537
4121.13752,0.07996
4123.06599,0.07857
4124.99446,0.08016
4126.92293,0.08227
4128.85140,0.08340
4130.77987,0.08762
4132.70834,0.09075
4134.63681,0.08962
4136.56527,0.08843
4138.49374,0.09154
4140.42221,0.09273
4142.35068,0.08617
4144.27915,0.07985
4146.20762,0.07695
4148.13609,0.07510
4150.06455,0.07451
4151.99302,0.07382
4153.92149,0.07447
4155.84996,0.07613
4157.77843,0.07605
4159.70690,0.07613
4161.63537,0.07630
4163.56384,0.07453
4165.49230,0.07125
4167.42077,0.06656
4169.34924,0.06519
4171.27771,0.06995
4173.20618,0.07327
4175.13465,0.07149
4177.06312,0.07110
4178.99158,0.07718
4180.92005,0.08270
4182.84852,0.08133
4184.77699,0.07619
4186.70546,0.07033
4188.63393,0.06866
4190.56240,0.06782
4192.49087,0.05974
4194.41933,0.05412
4196.34780,0.06026
4198.27627,0.06919
4200.20474,0.07107
4202.13321,0.07086
4204.06168,0.07166
4205.99015,0.06495
4207.91861,0.05543
4209.84708,0.05671
4211.77555,0.06188
4213.70402,0.05936
4215.63249,0.05536
4217.56096,0.05544
4219.48943,0.05383
4221.41789,0.05060
4223.34636,0.05292
4225.27483,0.05844
4227.20330,0.05771
4229.13177,0.04734
4231.06024,0.03523
4232.98871,0.03360
4234.91718,0.04221
4236.84564,0.05271
4238.77411,0.06064
4240.70258,0.06291
4242.63105,0.06091
4244.55952,0.05815
4246.48799,0.05205
4248.41646,0.04523
4250.34492,0.04505
4252.27339,0.04668
4254.20186,0.04533
4256.13033,0.04470
4258.05880,0.04201
4259.98727,0.03526
4261.91574,0.03129
4263.84421,0.03312
4265.77267,0.04052
4267.70114,0.05113
4269.62961,0.05730
4271.55808,0.05495
4273.48655,0.04781
4275.41502,0.04364
4277.34349,0.04309
4279.27195,0.04036
4281.20042,0.03684
4283.12889,0.03512
4285.05736,0.03266
4286.98583,0.03132
4288.91430,0.03665
4290.84277,0.04500
4292.77124,0.04748
4294.69970,0.04657
4296.62817,0.04709
4298.55664,0.04469
4300.48511,0.04287
4302.41358,0.05172
4304.34205,0.06260
4306.27052,0.05980
4308.19898,0.05002
4310.12745,0.04435
4312.05592,0.03990
4313.98439,0.04051
4315.91286,0.05037
4317.84133,0.06020
4319.76980,0.06183
4321.69827,0.05157
4323.62673,0.03420
4325.55520,0.02563
4327.48367,0.03154
4329.41214,0.03751
4331.34061,0.03256
4333.26908,0.02959
4335.19755,0.03743
4337.12601,0.03918
4339.05448,0.03161
4340.98295,0.03058
4342.91142,0.03421
4344.83989,0.03120
4346.76836,0.02301
4348.69683,0.01749
4350.62530,0.01909
4352.55376,0.02639
4354.48223,0.02964
4356.41070,0.02362
4358.33917,0.02064
4360.26764,0.02922
4362.19611,0.03764
4364.12458,0.03443
4366.05304,0.02593
4367.98151,0.01915
4369.90998,0.01171
4371.83845,0.00281
4373.76692,-0.00395
4375.69539,-0.00362
4377.62386,0.00611
4379.55232,0.02167
4381.48079,0.03207
4383.40926,0.03244
4385.33773,0.03374
4387.26620,0.03952
4389.19467,0.04285
4391.12314,0.04458
4393.05161,0.04442
4394.98007,0.04036
4396.90854,0.03559
4398.83701,0.02599
4400.76548,0.01005
4402.69395,-0.00041
4404.62242,0.00175
4406.55089,0.00929
4408.47935,0.01622
4410.40782,0.02345
4412.33629,0.02563
4414.26476,0.02279
4416.19323,0.02252
4418.12170,0.02444
4420.05017,0.02452
4421.97864,0.01895
4423.90710,0.01281
4425.83557,0.01691
4427.76404,0.02624
4429.69251,0.02917
4431.62098,0.02825
4433.54945,0.02719
4435.47792,0.02111
4437.40638,0.00805
4439.33485,-0.00702
4441.26332,-0.01262
4443.19179,-0.00368
4445.12026,0.00948
4447.04873,0.01601
4448.97720,0.01404
4450.90567,0.00922
4452.83413,0.00840
4454.76260,0.00845
4456.69107,0.00464
4458.61954,0.00324
4460.54801,0.01137
4462.47648,0.02204
4464.40495,0.02287
4466.33341,0.01697
4468.26188,0.01224
4470.19035,0.00683
4472.11882,0.00142
4474.04729,0.00265
4475.97576,0.00983
4477.90423,0.01148
4479.83270,0.00383
4481.76116,-0.00281
4483.68963,-0.00350
4485.61810,-0.00385
4487.54657,-0.00377
4489.47504,-0.00177
4491.40351,0.00130
4493.33198,0.00837
4495.26044,0.01359
4497.18891,0.01002
4499.11738,-0.00010
4501.04585,-0.00865
4502.97432,-0.00530
4504.90279,0.00305
4506.83126,0.00544
4508.75973,0.00737
4510.68819,0.00850
4512.61666,0.00329
4514.54513,0.00074
4516.47360,0.00946
4518.40207,0.01700
4520.33054,0.00957
4522.25901,-0.00257
4524.18747,-0.00740
4526.11594,-0.00564
4528.04441,0.00172
4529.97288,0.01124
4531.90135,0.01792
4533.82982,0.01588
4535.75829,0.00515
4537.68676,-0.00348
4539.61522,-0.00216
4541.54369,0.00724
4543.47216,0.01351
4545.40063,0.00841
4547.32910,-0.00328
4549.25757,-0.01434
4551.18604,-0.01819
4553.11450,-0.00834
4555.04297,0.00604
4556.97144,0.01065
4558.89991,0.00940
4560.82838,0.01269
4562.75685,0.01608
4564.68532,0.00649
4566.61378,-0.00626
4568.54225,-0.00311
4570.47072,0.00997
4572.39919,0.01828
4574.32766,0.01531
4576.25613,0.01027
4578.18460,0.01393
4580.11307,0.01756
4582.04153,0.01439
4583.97000,0.01120
4585.89847,0.01225
4587.82694,0.01208
4589.75541,0.00889
4591.68388,0.01075
4593.61235,0.01417
4595.54081,0.01309
4597.46928,0.01218
4599.39775,0.00919
4601.32622,0.00219
4603.25469,-0.00373
4605.18316,-0.00529
4607.11163,-0.00626
4609.04010,-0.01019
4610.96856,-0.00842
4612.89703,-0.00243
4614.82550,-0.00134
4616.75397,0.00124
4618.68244,0.00517
4620.61091,0.00670
4622.53938,0.00882
4624.46784,0.00813
4626.39631,0.00578
4628.32478,0.00564
4630.25325,0.00798
4632.18172,0.01176
4634.11019,0.01339
4636.03866,0.01660
4637.96713,0.02141
4639.89559,0.01717
4641.82406,0.00517
4643.75253,-0.00117
4645.68100,0.00134
4647.60947,0.00644
4649.53794,0.00958
4651.46641,0.01025
4653.39487,0.01210
4655.32334,0.01151
4657.25181,0.00180
4659.18028,-0.00398
4661.10875,0.00052
4663.03722,-0.00603
4664.96569,-0.01362
4666.89416,0.00222
4668.82262,0.01428
4670.75109,0.00184
4672.67956,-0.00235
4674.60803,0.01435
4676.53650,0.01912
4678.46497,0.00689
4680.39344,0.00593
4682.32190,0.01308
4684.25037,0.01065
4686.17884,0.00582
4688.10731,0.01056
4690.03578,0.01894
4691.96425,0.01896
4693.89272,0.01385
4695.82119,0.01084
4697.74965,0.00244
4699.67812,-0.00865
4701.60659,-0.00722
4703.53506,0.00145
4705.46353,-0.00048
4707.39200,-0.00982
4709.32047,-0.01056
4711.24893,0.00034
4713.17740,0.00859
4715.10587,0.00591
4717.03434,0.00726
4718.96281,0.01795
4720.89128,0.02394
4722.81975,0.02337
4724.74821,0.02043
4726.67668,0.01775
4728.60515,0.01674
4730.53362,0.01387
4732.46209,0.00728
4734.39056,0.00345
4736.31903,-0.00374
4738.24750,-0.01697
4740.17596,-0.01648
4742.10443,-0.00101
4744.03290,0.00978
4745.96137,0.00833
4747.88984,0.00206
4749.81831,-0.00145
4751.74678,-0.00013
4753.67524,0.00675
4755.60371,0.01812
4757.53218,0.02875
4759.46065,0.03072
4761.38912,0.02198
4763.31759,0.01381
4765.24606,0.01503
4767.17453,0.02008
4769.10299,0.02367
4771.03146,0.02680
4772.95993,0.02610
4774.88840,0.01940
4776.81687,0.01484
4778.74534,0.01945
4780.67381,0.02629
4782.60227,0.02341
4784.53074,0.00874
4786.45921,-0.00708
4788.38768,-0.01570
4790.31615,-0.01689
4792.24462,-0.01084
4794.17309,-0.00583
4796.10156,-0.00891
4798.03002,-0.00591
4799.95849,0.01197
4801.88696,0.02560
4803.81543,0.02547
4805.74390,0.02634
4807.67237,0.03485
4809.60084,0.04262
4811.52930,0.04172
4813.45777,0.03480
4815.38624,0.02861
4817.31471,0.02227
4819.24318,0.00876
4821.17165,-0.00659
4823.10012,-0.00587
4825.02859,0.01130
4826.95705,0.02610
4828.88552,0.02233
4830.81399,0.00225
4832.74246,-0.00770
4834.67093,0.00256
4836.59940,0.00431
4838.52787,-0.00487
4840.45633,0.00177
4842.38480,0.01987
4844.31327,0.02914
4846.24174,0.02437
4848.17021,0.01166
4850.09868,-0.00007
4852.02715,-0.00208
4853.95562,0.00545
4855.88408,0.01656
4857.81255,0.02307
4859.74102,0.02226
4861.66949,0.02267
4863.59796,0.02225
4865.52643,0.01445
4867.45490,0.00535
4869.38336,0.00425
4871.31183,0.00755
4873.24030,0.00798
4875.16877,0.00727
4877.09724,0.00378
4879.02571,-0.00635
4880.95418,-0.01974
4882.88265,-0.02149
4884.81111,-0.00294
4886.73958,0.02194
4888.66805,0.02935
4890.59652,0.01702
4892.52499,0.00571
4894.45346,-0.00441
4896.38193,-0.01211
4898.31039,-0.00180
4900.23886,0.01538
4902.16733,0.01941
4904.09580,0.00966
4906.02427,-0.00270
4907.95274,-0.00772
4909.88121,-0.00832
4911.80967,-0.01471
4913.73814,-0.01768
4915.66661,-0.00444
4917.59508,0.01516
4919.52355,0.03011
4921.45202,0.03317
4923.38049,0.02224
4925.30896,0.01399
4927.23742,0.01812
4929.16589,0.02290
4931.09436,0.02638
4933.02283,0.02621
4934.95130,0.01494
4936.87977,0.00717
4938.80824,0.01218
4940.73670,0.01603
4942.66517,0.01189
4944.59364,0.00566
4946.52211,0.00420
4948.45058,0.01211
4950.37905,0.01673
4952.30752,0.00445
4954.23599,-0.00425
4956.16445,0.00366
4958.09292,0.01145
4960.02139,0.01236
4961.94986,0.00974
4963.87833,0.00846
4965.80680,0.00833
4967.73527,-0.00236
4969.66373,-0.01356
4971.59220,-0.00884
4973.52067,-0.00273
4975.44914,-0.00642
4977.37761,-0.01103
4979.30608,-0.01017
4981.23455,-0.00178
4983.16302,0.00848
4985.09148,0.01517
4987.01995,0.01781
4988.94842,0.01321
4990.87689,0.00283
4992.80536,-0.00701
4994.73383,-0.00636
4996.66230,0.00732
4998.59076,0.01971
5000.51923,0.02367
5002.44770,0.02003
5004.37617,0.01268
5006.30464,0.01300
5008.23311,0.02350
5010.16158,0.02887
5012.09005,0.02271
5014.01851,0.01643
5015.94698,0.01772
5017.87545,0.01119
5019.80392,-0.01154
5021.73239,-0.02768
5023.66086,-0.02196
5025.58933,-0.00429
5027.51779,0.00796
5029.44626,0.01403
5031.37473,0.02541
5033.30320,0.03594
5035.23167,0.03472
5037.16014,0.02758
5039.08861,0.02006
5041.01708,0.01994
5042.94554,0.03259
5044.87401,0.03853
5046.80248,0.02900
5048.73095,0.02146
5050.65942,0.02165
5052.58789,0.01990
5054.51636,0.01176
5056.44482,0.00339
5058.37329,0.00164
5060.30176,0.00637
5062.23023,0.00718
5064.15870,0.00331
5066.08717,0.00575
5068.01564,0.01006
5069.94410,0.00756
5071.87257,-0.00077
5073.80104,-0.00751
5075.72951,-0.01195
5077.65798,-0.01912
5079.58645,-0.01329
5081.51492,0.01343
5083.44339,0.03702
5085.37185,0.03152
5087.30032,-0.00211
5089.22879,-0.02584
5091.15726,-0.02352
5093.08573,-0.01380
5095.01420,-0.00071
5096.94267,0.01717
5098.87113,0.02268
5100.79960,0.01425
5102.72807,0.00855
5104.65654,0.01116
5106.58501,0.02410
5108.51348,0.03576
5110.44195,0.01979
5112.37042,-0.01342
5114.29888,-0.02242
5116.22735,-0.00241
5118.15582,0.01729
5120.08429,0.01994
5122.01276,0.01102
5123.94123,-0.00122
5125.86970,-0.00933
5127.79816,-0.00178
5129.72663,0.00925
5131.65510,0.01132
5133.58357,0.02077
5135.51204,0.03137
5137.44051,0.03425
5139.36898,0.05324
5141.29745,0.07415
5143.22591,0.06325
5145.15438,0.04048
5147.08285,0.02194
5149.01132,0.00395
5150.93979,-0.00159
5152.86826,0.00270
5154.79673,0.01114
5156.72519,0.02129
5158.65366,0.01500
5160.58213,-0.00479
5162.51060,-0.01186
5164.43907,0.00230
5166.36754,0.02043
5168.29601,0.02018
5170.22448,0.00355
5172.15294,-0.00518
5174.08141,0.00064
5176.00988,0.01038
5177.93835,0.01252
5179.86682,0.01400
5181.79529,0.02763
5183.72376,0.03807
5185.65222,0.03819
5187.58069,0.03796
5189.50916,0.03218
5191.43763,0.02105
5193.36610,0.01402
5195.29457,0.00842
5197.22304,0.00807
5199.15151,0.02306
5201.07997,0.03996
5203.00844,0.04208
5204.93691,0.02810
5206.86538,0.01926
5208.79385,0.03122
5210.72232,0.03795
5212.65079,0.03030
5214.57925,0.02160
5216.50772,0.02137
5218.43619,0.02379
5220.36466,0.01857
5222.29313,0.02960
5224.22160,0.06677
5226.15007,0.09029
5228.07854,0.08437
5230.00700,0.07479
5231.93547,0.07144
5233.86394,0.07362
5235.79241,0.06725
5237.72088,0.04649
5239.64935,0.04396
5241.57782,0.05700
5243.50628,0.04923
5245.43475,0.04127
5247.36322,0.05711
5249.29169,0.07298
5251.22016,0.08523
5253.14863,0.09155
5255.07710,0.07487
5257.00556,0.05622
5258.93403,0.05609
5260.86250,0.05839
5262.79097,0.04987
5264.71944,0.03522
5266.64791,0.01920
5268.57638,0.01369
5270.50485,0.03245
5272.43331,0.05175
5274.36178,0.04692
5276.29025,0.03800
5278.21872,0.04262
5280.14719,0.03711
5282.07566,0.00579
5284.00413,-0.02001
5285.93259,-0.01279
5287.86106,0.00874
5289.78953,0.03291
5291.71800,0.06673
5293.64647,0.08355
5295.57494,0.07975
5297.50341,0.08146
5299.43188,0.08599
5301.36034,0.08932
5303.28881,0.08409
5305.21728,0.04665
5307.14575,0.00403
5309.07422,0.00652
5311.00269,0.03630
5312.93116,0.06116
5314.85962,0.07001
5316.78809,0.05631
5318.71656,0.03811
5320.64503,0.03967
5322.57350,0.05729
5324.50197,0.06160
5326.43044,0.05137
5328.35891,0.05147
5330.28737,0.06107
5332.21584,0.06599
5334.14431,0.05238
5336.07278,0.02443
5338.00125,-0.00094
5339.92972,-0.00111
5341.85819,0.02408
5343.78665,0.03659
5345.71512,0.02444
5347.64359,0.01807
5349.57206,0.02278
5351.50053,0.04798
5353.42900,0.09282
5355.35747,0.10279
5357.28594,0.08286
5359.21440,0.08097
5361.14287,0.08498
5363.07134,0.07643
5364.99981,0.07282
5366.92828,0.07656
5368.85675,0.07326
5370.78522,0.06082
5372.71368,0.05052
5374.64215,0.05048
5376.57062,0.05158
5378.49909,0.05278
5380.42756,0.05469
5382.35603,0.05154
5384.28450,0.04312
5386.21297,0.03007
5388.14143,0.02379
5390.06990,0.02386
5391.99837,0.02887
5393.92684,0.04145
5395.85531,0.04106
5397.78378,0.03470
5399.71225,0.04797
5401.64071,0.06310
5403.56918,0.05908
5405.49765,0.05963
5407.42612,0.07356
5409.35459,0.07695
5411.28306,0.07781
5413.21153,0.10034
5415.13999,0.11986
5417.06846,0.10578
5418.99693,0.08348
5420.92540,0.08132
5422.85387,0.08644
5424.78234,0.08136
5426.71081,0.05946
5428.63928,0.02134
5430.56774,-0.01492
5432.49621,-0.03315
5434.42468,-0.02603
5436.35315,-0.00168
5438.28162,0.02666
5440.21009,0.05141
5442.13856,0.05173
5444.06702,0.03574
5445.99549,0.03011
5447.92396,0.01147
5449.85243,-0.02850
5451.78090,-0.03240
5453.70937,0.01345
5455.63784,0.07197
5457.56631,0.10107
5459.49477,0.09265
5461.42324,0.08088
5463.35171,0.06426
5465.28018,0.03859
5467.20865,0.04062
5469.13712,0.06651
5471.06559,0.07792
5472.99405,0.07362
5474.92252,0.05746
5476.85099,0.02118
5478.77946,-0.00236
5480.70793,0.02031
5482.63640,0.06320
5484.56487,0.08388
5486.49334,0.06902
5488.42180,0.03842
5490.35027,0.03735
5492.27874,0.07160
5494.20721,0.10742
5496.13568,0.12975
5498.06415,0.13467
5499.99262,0.11419
5501.92108,0.07514
5503.84955,0.05367
5505.77802,0.06563
5507.70649,0.08196
5509.63496,0.07888
5511.56343,0.06535
5513.49190,0.06626
5515.42037,0.07189
5517.34883,0.05938
5519.27730,0.04961
5521.20577,0.05234
5523.13424,0.05150
5525.06271,0.05508
5526.99118,0.07342
5528.91965,0.07031
5530.84811,0.03599
5532.77658,0.02089
5534.70505,0.02548
5536.63352,0.02015
5538.56199,0.00857
5540.49046,0.00714
5542.41893,0.04004
5544.34740,0.10420
5546.27586,0.14539
5548.20433,0.13921
5550.13280,0.11613
5552.06127,0.08775
5553.98974,0.06000
5555.91821,0.03790
5557.84668,0.00888
5559.77514,-0.00345
5561.70361,0.02911
5563.63208,0.07946
5565.56055,0.11090
5567.48902,0.11948
5569.41749,0.10876
5571.34596,0.08145
5573.27443,0.06265
5575.20289,0.06820
5577.13136,0.07441
5579.05983,0.07122
5580.98830,0.06689
5582.91677,0.06410
5584.84524,0.05829
5586.77371,0.04698
5588.70217,0.03838
5590.63064,0.03473
5592.55911,0.04888
5594.48758,0.08104
5596.41605,0.09701
5598.34452,0.08980
5600.27299,0.08242
5602.20145,0.08980
5604.12992,0.09484
5606.05839,0.07751
5607.98686,0.05357
5609.91533,0.04343
5611.84380,0.05666
5613.77227,0.07986
5615.70074,0.07787
5617.62920,0.04354
5619.55767,0.01802
5621.48614,0.03378
5623.41461,0.07615
5625.34308,0.11626
5627.27155,0.12173
5629.20002,0.09869
5631.12848,0.07991
5633.05695,0.07162
5634.98542,0.07047
5636.91389,0.06121
5638.84236,0.04212
5640.77083,0.02408
5642.69930,0.00497
5644.62777,-0.00477
5646.55623,0.00323
5648.48470,0.02149
5650.41317,0.04215
5652.34164,0.05748
5654.27011,0.06225
5656.19858,0.06064
5658.12705,0.07119
5660.05551,0.09334
5661.98398,0.09827
5663.91245,0.08286
5665.84092,0.07325
5667.76939,0.07400
5669.69786,0.07825
5671.62633,0.08410
5673.55480,0.07718
5675.48326,0.05873
5677.41173,0.05927
5679.34020,0.08970
5681.26867,0.10137
5683.19714,0.08094
5685.12561,0.08463
5687.05408,0.10396
5688.98254,0.10582
5690.91101,0.11511
5692.83948,0.13312
5694.76795,0.13043
5696.69642,0.12676
5698.62489,0.13395
5700.55336,0.10641
5702.48183,0.04972
5704.41029,0.01478
5706.33876,0.02280
5708.26723,0.03990
5710.19570,0.03157
5712.12417,0.01570
5714.05264,0.01790
5715.98111,0.05771
5717.90957,0.10951
5719.83804,0.12337
5721.76651,0.11448
5723.69498,0.10480
5725.62345,0.08203
5727.55192,0.05445
5729.48039,0.03426
5731.40886,0.02594
5733.33732,0.04400
5735.26579,0.06558
5737.19426,0.05067
5739.12273,0.01015
5741.05120,-0.00228
5742.97967,0.01881
5744.90814,0.02795
5746.83660,0.04172
5748.76507,0.07317
5750.69354,0.07757
5752.62201,0.06961
5754.55048,0.07773
5756.47895,0.05239
5758.40742,0.00965
5760.33588,0.02281
5762.26435,0.07594
5764.19282,0.10260
5766.12129,0.08497
5768.04976,0.06497
5769.97823,0.07801
5771.90670,0.10269
5773.83517,0.11561
5775.76363,0.12994
5777.69210,0.13706
5779.62057,0.11798
5781.54904,0.09320
5783.47751,0.08953
5785.40598,0.10942
5787.33445,0.13434
5789.26291,0.13995
5791.19138,0.10831
5793.11985,0.07262
5795.04832,0.06505
5796.97679,0.06554
5798.90526,0.09523
5800.83373,0.14976
5802.76220,0.15086
5804.69066,0.10197
5806.61913,0.09428
5808.54760,0.12450
5810.47607,0.12337
5812.40454,0.10329
5814.33301,0.10226
5816.26148,0.07614
5818.18994,0.01394
5820.11841,-0.00520
5822.04688,0.01195
5823.97535,0.01983
5825.90382,0.04157
5827.83229,0.06414
5829.76076,0.06771
5831.68923,0.07451
5833.61769,0.08402
5835.54616,0.08078
5837.47463,0.07319
5839.40310,0.05572
5841.33157,0.03324
5843.26004,0.03853
5845.18851,0.05430
5847.11697,0.04043
5849.04544,0.01637
5850.97391,0.02558
5852.90238,0.04230
5854.83085,0.03588
5856.75932,0.04085
5858.68779,0.05623
5860.61626,0.05065
5862.54472,0.07910
5864.47319,0.14892
5866.40166,0.18719
5868.33013,0.19235
5870.25860,0.17036
5872.18707,0.13491
5874.11554,0.09964
5876.04400,0.04120
5877.97247,0.00144
5879.90094,0.01806
5881.82941,0.04530
5883.75788,0.04217
5885.68635,0.00667
5887.61482,-0.01566
5889.54329,0.01706
5891.47175,0.06071
5893.40022,0.07211
5895.32869,0.07935
5897.25716,0.09382
5899.18563,0.09146
5901.11410,0.07987
5903.04257,0.07530
5904.97103,0.07261
5906.89950,0.07058
5908.82797,0.05320
5910.75644,0.01958
5912.68491,0.02412
5914.61338,0.08462
5916.54185,0.12253
5918.47032,0.07204
5920.39878,-0.00043
5922.32725,-0.01220
5924.25572,0.01473
5926.18419,0.05359
5928.11266,0.08649
5930.04113,0.08518
5931.96960,0.06753
5933.89806,0.05948
5935.82653,0.06081
5937.75500,0.06475
5939.68347,0.07306
5941.61194,0.08491
5943.54041,0.08688
5945.46888,0.07888
5947.39734,0.06435
5949.32581,0.08863
5951.25428,0.19332
5953.18275,0.25410
5955.11122,0.18400
5957.03969,0.08676
5958.96816,0.03954
5960.89663,0.02160
5962.82509,0.02387
5964.75356,0.05406
5966.68203,0.08047
5968.61050,0.09099
5970.53897,0.10865
5972.46744,0.10889
5974.39591,0.07949
5976.32437,0.05778
5978.25284,0.05054
5980.18131,0.06829
5982.10978,0.11186
5984.03825,0.12266
5985.96672,0.08708
5987.89519,0.05854
5989.82366,0.07273
5991.75212,0.10030
5993.68059,0.09508
5995.60906,0.09655
5997.53753,0.10446
5999.46600,0.06919
6001.39447,0.03614
6003.32294,0.05182
6005.25140,0.09854
6007.17987,0.11856
6009.10834,0.09777
6011.03681,0.08470
6012.96528,0.08372
6014.89375,0.09081
6016.82222,0.11043
6018.75069,0.10556
6020.67915,0.08610
6022.60762,0.08626
6024.53609,0.07907
6026.46456,0.05618
6028.39303,0.04455
6030.32150,0.04002
6032.24997,0.01781
6034.17843,-0.00184
6036.10690,0.01488
6038.03537,0.04401
6039.96384,0.06516
6041.89231,0.10266
6043.82078,0.14273
6045.74925,0.12880
6047.67772,0.06430
6049.60618,0.03061
6051.53465,0.04625
6053.46312,0.05300
6055.39159,0.04038
6057.32006,0.01824
6059.24853,0.01208
6061.17700,0.01587
6063.10546,-0.00213
6065.03393,-0.02110
6066.96240,-0.02491
6068.89087,0.02794
6070.81934,0.13519
6072.74781,0.19964
6074.67628,0.15445
6076.60475,0.04232
6078.53321,-0.00551
6080.46168,0.02701
6082.39015,0.05156
6084.31862,0.08278
6086.24709,0.17360
6088.17556,0.26598
6090.10403,0.26028
6092.03249,0.20462
6093.96096,0.18971
6095.88943,0.16643
6097.81790,0.12152
6099.74637,0.11452
6101.67484,0.11354
6103.60331,0.09887
6105.53177,0.09289
6107.46024,0.06502
6109.38871,0.03698
6111.31718,0.03895
6113.24565,0.02124
6115.17412,0.01457
6117.10259,0.04661
6119.03106,0.06583
6120.95952,0.08014
6122.88799,0.10344
6124.81646,0.10720
6126.74493,0.08566
6128.67340,0.06146
6130.60187,0.06939
6132.53034,0.11425
6134.45880,0.15325
6136.38727,0.11171
6138.31574,-0.01234
6140.24421,-0.09064
6142.17268,-0.01716
6144.10115,0.13277
6146.02962,0.18805
6147.95809,0.12614
6149.88655,0.05219
6151.81502,0.01907
6153.74349,-0.00011
6155.67196,-0.01584
6157.60043,-0.00082
6159.52890,0.03973
6161.45737,0.08347
6163.38583,0.12850
6165.31430,0.13795
6167.24277,0.11699
6169.17124,0.11064
6171.09971,0.10201
6173.02818,0.07444
6174.95665,0.04590
6176.88512,0.03142
6178.81358,0.06339
6180.74205,0.12879
6182.67052,0.12261
6184.59899,0.02633
6186.52746,-0.03127
6188.45593,0.03174
6190.38440,0.09355
6192.31286,0.06571
6194.24133,0.02408
6196.16980,0.00985
6198.09827,0.03131
6200.02674,0.06690
6201.95521,0.05140
6203.88368,0.00724
6205.81215,0.00690
6207.74061,0.02059
6209.66908,-0.00637
6211.59755,-0.00363
6213.52602,0.06756
6215.45449,0.10772
6217.38296,0.07693
6219.31143,0.07044
6221.23989,0.13282
6223.16836,0.16772
6225.09683,0.11278
6227.02530,0.02952
6228.95377,-0.00428
6230.88224,0.02147
6232.81071,0.05249
6234.73918,0.05593
6236.66764,0.04903
6238.59611,0.05990
6240.52458,0.07090
6242.45305,0.04468
6244.38152,0.02311
6246.30999,0.05787
6248.23846,0.09986
6250.16692,0.10744
6252.09539,0.12456
6254.02386,0.16653
6255.95233,0.16947
6257.88080,0.06891
6259.80927,-0.05106
6261.73774,-0.04506
6263.66621,0.05318
6265.59467,0.10370
6267.52314,0.07113
6269.45161,0.04493
6271.38008,0.12169
6273.30855,0.24445
6275.23702,0.26087
6277.16549,0.19996
6279.09395,0.14838
6281.02242,0.12051
6282.95089,0.10017
6284.87936,0.06023
6286.80783,0.04575
6288.73630,0.07130
6290.66477,0.08380
6292.59323,0.06575
6294.52170,0.05315
6296.45017,0.06260
6298.37864,0.07984
6300.30711,0.10577
6302.23558,0.13932
6304.16405,0.16994
6306.09252,0.20182
6308.02098,0.23441
6309.94945,0.23092
6311.87792,0.14700
6313.80639,0.06531
6315.73486,0.10564
6317.66333,0.17072
6319.59180,0.12543
6321.52026,0.05384
6323.44873,0.06587
6325.37720,0.10716
6327.30567,0.11290
6329.23414,0.11574
6331.16261,0.10426
6333.09108,0.02843
6335.01955,-0.05499
6336.94801,-0.07261
6338.87648,-0.02600
6340.80495,0.02681
6342.73342,0.06102
6344.66189,0.08194
6346.59036,0.05111
6348.51883,-0.00438
6350.44729,0.01768
6352.37576,0.10356
6354.30423,0.13532
6356.23270,0.10572
6358.16117,0.06424
6360.08964,0.04354
6362.01811,0.08416
6363.94658,0.13171
6365.87504,0.08913
6367.80351,0.01578
6369.73198,0.00007
6371.66045,0.01362
6373.58892,0.01778
6375.51739,0.03778
6377.44586,0.08136
6379.37432,0.07288
6381.30279,0.00117
6383.23126,0.01238
6385.15973,0.13901
6387.08820,0.18783
6389.01667,0.15926
6390.94514,0.14720
6392.87361,0.13020
6394.80207,0.12383
6396.73054,0.15484
6398.65901,0.16306
6400.58748,0.11021
6402.51595,0.04503
6404.44442,0.02713
6406.37289,0.02527
6408.30135,-0.00630
6410.22982,-0.04007
6412.15829,-0.02812
6414.08676,0.01581
6416.01523,0.04461
6417.94370,0.03669
6419.87217,0.00433
6421.80064,-0.00118
6423.72910,0.00902
6425.65757,-0.01702
6427.58604,-0.04981
6429.51451,-0.06429
6431.44298,-0.07470
6433.37145,-0.08543
6435.29992,-0.07405
6437.22838,0.00780
6439.15685,0.08329
6441.08532,0.09511
6443.01379,0.11053
6444.94226,0.11087
6446.87073,0.07144
6448.79920,0.03513
6450.72766,0.01532
6452.65613,0.01838
6454.58460,0.08907
6456.51307,0.18951
6458.44154,0.21213
6460.37001,0.20811
6462.29848,0.22069
6464.22695,0.17473
6466.15541,0.08371
6468.08388,0.06102
6470.01235,0.12367
6471.94082,0.11107
6473.86929,0.04937
6475.79776,0.13033
6477.72623,0.25484
6479.65469,0.22114
6481.58316,0.11338
6483.51163,0.09227
6485.44010,0.10819
6487.36857,0.09254
6489.29704,0.09663
6491.22551,0.13104
6493.15398,0.14757
6495.08244,0.14582
6497.01091,0.12870
6498.93938,0.09447
6500.86785,0.06571
6502.79632,0.07088
6504.72479,0.12684
6506.65326,0.16913
6508.58172,0.11077
6510.51019,0.00186
6512.43866,-0.04197
6514.36713,0.00357
6516.29560,0.03771
6518.22407,0.01129
6520.15254,0.01182
6522.08101,0.05499
6524.00947,0.07507
6525.93794,0.05393
6527.86641,0.02139
6529.79488,-0.00989
6531.72335,-0.03639
6533.65182,-0.03208
6535.58029,0.02094
6537.50875,0.09022
6539.43722,0.10486
6541.36569,0.06210
6543.29416,0.04041
6545.22263,0.01056
6547.15110,-0.07115
6549.07957,-0.11923
6551.00804,-0.08899
6552.93650,-0.06217
6554.86497,-0.08512
6556.79344,-0.09303
6558.72191,-0.02407
6560.65038,0.02206
6562.57885,-0.01226
6564.50732,-0.01025
6566.43578,0.06811
6568.36425,0.10433
6570.29272,0.05249
6572.22119,0.00053
6574.14966,0.01480
6576.07813,0.05216
6578.00660,0.08331
6579.93507,0.15144
6581.86353,0.16111
6583.79200,0.05825
6585.72047,0.02505
6587.64894,0.04819
6589.57741,0.02066
6591.50588,-0.01344
6593.43435,-0.00412
6595.36281,0.02572
6597.29128,0.03204
6599.21975,0.04337
6601.14822,0.06989
6603.07669,0.01912
6605.00516,-0.07195
6606.93363,-0.06404
6608.86210,0.02104
6610.79056,0.06733
6612.71903,0.04380
6614.64750,0.00886
6616.57597,0.04299
6618.50444,0.14891
6620.43291,0.25187
6622.36138,0.28429
6624.28984,0.20038
6626.21831,0.03756
6628.14678,-0.06941
6630.07525,-0.02919
6632.00372,0.04596
6633.93219,0.04807
6635.86066,0.00451
6637.78912,-0.01021
6639.71759,0.03794
6641.64606,0.10843
6643.57453,0.12986
6645.50300,0.09307
6647.43147,0.04651
6649.35994,0.03115
6651.28841,0.04229
6653.21687,0.02867
6655.14534,-0.02705
6657.07381,-0.02085
6659.00228,0.10270
6660.93075,0.17835
6662.85922,0.16780
6664.78769,0.13561
6666.71615,0.07397
6668.64462,0.01365
6670.57309,-0.03322
6672.50156,-0.07071
6674.43003,-0.08677
6676.35850,-0.05373
6678.28697,0.04895
6680.21544,0.10807
6682.14390,0.07972
6684.07237,0.04597
6686.00084,-0.00518
6687.92931,-0.05139
6689.85778,-0.00233
6691.78625,0.04341
6693.71472,0.02880
6695.64318,0.03911
6697.57165,0.13102
6699.50012,0.23946
6701.42859,0.23964
6703.35706,0.14497
6705.28553,0.07459
6707.21400,0.03435
6709.14247,0.01902
6711.07093,0.05080
6712.99940,0.04630
6714.92787,-0.01026
6716.85634,-0.01435
6718.78481,0.02198
6720.71328,0.00689
6722.64175,-0.02118
6724.57021,-0.03445
6726.49868,-0.09143
6728.42715,-0.09618
6730.35562,0.07236
6732.28409,0.23604
6734.21256,0.15600
6736.14103,-0.04997
6738.06950,-0.11285
6739.99796,-0.04528
6741.92643,0.01567
6743.85490,0.02962
6745.78337,0.02226
6747.71184,-0.00966
6749.64031,-0.02452
6751.56878,0.06064
6753.49724,0.19867
6755.42571,0.25753
6757.35418,0.18235
6759.28265,0.04060
6761.21112,-0.04194
6763.13959,-0.04371
6765.06806,-0.04964
6766.99653,-0.09531
6768.92499,-0.07358
6770.85346,0.04526
6772.78193,0.08238
6774.71040,0.01286
6776.63887,0.03521
6778.56734,0.15151
6780.49581,0.20914
6782.42427,0.17814
6784.35274,0.11146
6786.28121,0.04079
6788.20968,0.01670
6790.13815,0.11005
6792.06662,0.16785
6793.99509,0.05691
6795.92355,-0.04731
6797.85202,-0.07570
6799.78049,-0.07003
6801.70896,0.00652
6803.63743,0.14981
6805.56590,0.27168
6807.49437,0.27569
6809.42284,0.15382
6811.35130,0.02162
6813.27977,-0.02495
6815.20824,-0.06253
6817.13671,-0.14572
6819.06518,-0.16702
6820.99365,-0.09129
6822.92212,-0.02223
6824.85058,-0.02051
6826.77905,-0.01080
6828.70752,0.05171
6830.63599,0.07454
6832.56446,0.07614
6834.49293,0.15907
6836.42140,0.20631
6838.34987,0.17788
6840.27833,0.17302
6842.20680,0.15108
6844.13527,0.08302
6846.06374,0.08286
6847.99221,0.20191
6849.92068,0.23707
6851.84915,0.18081
6853.77761,0.18802
6855.70608,0.19841
6857.63455,0.16813
6859.56302,0.15441
6861.49149,0.14269
6863.41996,0.07164
6865.34843,-0.05531
6867.27690,-0.12466
6869.20536,-0.08457
6871.13383,-0.00796
6873.06230,0.12983
6874.99077,0.27164
6876.91924,0.26453
6878.84771,0.06068
6880.77618,-0.15927
6882.70464,-0.12240
6884.63311,0.03511
6886.56158,0.08427
6888.49005,0.03067
6890.41852,0.00023
6892.34699,0.08012
6894.27546,0.18185
6896.20393,0.16490
6898.13239,0.07921
6900.06086,0.12263
6901.98933,0.25765
6903.91780,0.31608
6905.84627,0.21760
6907.77474,0.01149
6909.70321,-0.15134
6911.63167,-0.14531
6913.56014,0.01259
6915.48861,0.13780
6917.41708,0.12642
6919.34555,0.12002
6921.27402,0.16428
6923.20249,0.10148
6925.13096,0.03310
6927.05942,0.10135
6928.98789,0.16885
6930.91636,0.09817
6932.84483,0.02382
6934.77330,0.04568
6936.70177,0.05699
6938.63024,-0.01259
6940.55870,-0.13244
6942.48717,-0.16106
6944.41564,-0.07274
6946.34411,0.02776
6948.27258,0.06300
6950.20105,0.00521
6952.12952,-0.07282
6954.05799,-0.04786
6955.98645,0.06016
6957.91492,0.14145
6959.84339,0.14608
6961.77186,0.06251
6963.70033,-0.01312
6965.62880,-0.04018
6967.55727,-0.06633
6969.48573,-0.12205
6971.41420,-0.19952
6973.34267,-0.12992
6975.27114,0.11634
6977.19961,0.20961
6979.12808,0.12586
6981.05655,0.07546
6982.98501,0.12191
6984.91348,0.17255
6986.84195,0.12385
6988.77042,0.06632
6990.69889,0.13350
6992.62736,0.20828
6994.55583,0.17380
6996.48430,0.09424
6998.41276,0.02392
7000.34123,-0.05762
7002.26970,-0.11349
7004.19817,-0.11461
7006.12664,-0.04527
7008.05511,0.04856
7009.98358,0.04676
7011.91204,-0.00006
7013.84051,-0.01776
7015.76898,-0.06467
7017.69745,-0.12028
7019.62592,-0.13300
7021.55439,-0.17027
7023.48286,-0.18959
7025.41133,-0.03981
7027.33979,0.16160
7029.26826,0.15577
7031.19673,0.05768
7033.12520,0.09340
7035.05367,0.11689
7036.98214,0.00687
7038.91061,-0.03753
7040.83907,0.03581
7042.76754,0.12706
7044.69601,0.21001
7046.62448,0.27144
7048.55295,0.31766
7050.48142,0.31425
7052.40989,0.17415
7054.33836,0.04253
7056.26682,0.07255
7058.19529,0.08379
7060.12376,0.00728
7062.05223,0.02982
7063.98070,0.12058
7065.90917,0.08208
7067.83764,-0.06653
7069.76610,-0.13614
7071.69457,-0.01240
7073.62304,0.07267
7075.55151,-0.03369
7077.47998,-0.12775
7079.40845,-0.04442
7081.33692,0.06131
7083.26539,-0.06942
7085.19385,-0.30420
7087.12232,-0.40197
7089.05079,-0.33519
7090.97926,-0.27221
7092.90773,-0.17644
7094.83620,-0.04403
7096.76467,0.07001
7098.69313,0.20089
7100.62160,0.25425
7102.55007,0.24266
7104.47854,0.28393
7106.40701,0.32908
7108.33548,0.21664
7110.26395,0.03946
7112.19242,0.04281
7114.12088,0.23785
7116.04935,0.34169
7117.97782,0.12668
7119.90629,-0.06225
7121.83476,0.00450
7123.76323,0.05278
7125.69170,0.03752
7127.62016,0.06483
7129.54863,0.13518
7131.47710,0.21219
7133.40557,0.20308
7135.33404,0.09712
7137.26251,-0.00316
7139.19098,-0.05156
7141.11944,-0.00173
7143.04791,0.13046
7144.97638,0.15996
7146.90485,0.03293
7148.83332,-0.03796
7150.76179,0.05103
7152.69026,0.25642
7154.61873,0.35224
7156.54719,0.22249
7158.47566,0.07424
7160.40413,0.02570
7162.33260,0.09979
7164.26107,0.24326
7166.18954,0.28841
7168.11801,0.23225
7170.04647,0.25927
7171.97494,0.31875
7173.90341,0.21930
7175.83188,0.00248
7177.76035,-0.11704
7179.68882,-0.07634
7181.61729,-0.02138
7183.54576,-0.00193
7185.47422,0.02331
7187.40269,0.02270
7189.33116,0.03934
7191.25963,0.03322
7193.18810,-0.06916
7195.11657,-0.10092
7197.04504,0.01460
7198.97350,0.09252
7200.90197,0.03311
7202.83044,-0.07695
7204.75891,-0.02702
7206.68738,0.10210
7208.61585,0.07705
7210.54432,0.10093
7212.47279,0.17396
7214.40125,0.10953
7216.32972,0.04207
7218.25819,0.10896
7220.18666,0.13797
7222.11513,0.17376
7224.04360,0.23738
7225.97207,0.24099
7227.90053,0.22968
7229.82900,0.34252
7231.75747,0.38651
7233.68594,0.10492
7235.61441,-0.20764
7237.54288,-0.29208
7239.47135,-0.26624
7241.39982,-0.23291
7243.32828,-0.09103
7245.25675,0.00121
7247.18522,-0.00448
7249.11369,0.05912
7251.04216,0.24585
7252.97063,0.37163
7254.89910,0.27419
7256.82756,0.21615
7258.75603,0.32993
7260.68450,0.55556
7262.61297,0.61194
7264.54144,0.40499
7266.46991,0.20862
7268.39838,0.13019
7270.32685,0.13089
7272.25531,0.10959
7274.18378,0.01298
7276.11225,-0.00541
7278.04072,0.11085
7279.96919,0.26550
7281.89766,0.27596
7283.82613,0.22298
7285.75459,0.17774
7287.68306,0.09263
7289.61153,0.00400
7291.54000,0.01985
7293.46847,0.09739
7295.39694,0.08536
7297.32541,0.05100
7299.25387,0.10835
7301.18234,0.14162
7303.11081,0.05016
7305.03928,-0.08519
7306.96775,-0.13880
7308.89622,-0.01905
7310.82469,0.08432
7312.75316,-0.01364
7314.68162,-0.05569
7316.61009,0.10728
7318.53856,0.20532
7320.46703,0.14642
7322.39550,0.17715
7324.32397,0.29922
7326.25244,0.40967
7328.18090,0.46642
7330.10937,0.25764
7332.03784,-0.11730
7333.96631,-0.28382
7335.89478,-0.21133
7337.82325,-0.08076
7339.75172,-0.03801
7341.68019,-0.01221
7343.60865,0.05045
7345.53712,0.01101
7347.46559,0.01305
7349.39406,0.17630
7351.32253,0.25319
7353.25100,0.17964
7355.17947,0.06149
7357.10793,-0.12124
7359.03640,-0.24335
7360.96487,-0.10553
7362.89334,0.03428
7364.82181,0.01585
7366.75028,-0.05068
7368.67875,-0.14549
7370.60722,-0.16995
7372.53568,-0.04452
7374.46415,0.13865
7376.39262,0.22533
7378.32109,0.20947
7380.24956,0.09340
7382.17803,-0.07599
7384.10650,-0.09965
7386.03496,-0.00584
7387.96343,-0.02727
7389.89190,-0.20810
7391.82037,-0.32511
7393.74884,-0.16859
7395.67731,0.09613
7397.60578,0.14486
7399.53425,0.04261
7401.46271,-0.00297
7403.39118,0.13206
7405.31965,0.32773
7407.24812,0.37167
7409.17659,0.30427
7411.10506,0.16021
7413.03353,0.03858
7414.96199,0.01114
7416.89046,0.10282
7418.81893,0.29569
7420.74740,0.24830
7422.67587,0.12456
7424.60434,0.27933
7426.53281,0.40137
7428.46128,0.20501
7430.38974,-0.10221
7432.31821,-0.27804
7434.24668,-0.37550
7436.17515,-0.27710
7438.10362,0.01068
7440.03209,0.22093
7441.96056,0.23173
7443.88902,0.19665
7445.81749,0.22625
7447.74596,0.27689
7449.67443,0.23716
7451.60290,0.12890
7453.53137,0.07591
7455.45984,0.05772
7457.38831,0.08952
7459.31677,0.17721
7461.24524,0.18667
7463.17371,0.11307
7465.10218,0.13287
7467.03065,0.23824
7468.95912,0.25767
7470.88759,0.20397
7472.81605,0.19926
7474.74452,0.20912
7476.67299,0.11727
7478.60146,-0.05209
7480.52993,-0.15348
7482.45840,-0.04914
7484.38687,0.14701
7486.31533,0.24748
7488.24380,0.26933
7490.17227,0.26102
7492.10074,0.22845
7494.02921,0.21550
7495.95768,0.30265
7497.88615,0.54068
