399.19301,11.54247
401.12148,1.04235
403.04995,0.62777
404.97842,0.32873
406.90689,-0.13773
408.83536,-0.44022
410.76382,-0.39881
412.69229,-0.22441
414.62076,-0.10891
416.54923,-0.03662
418.47770,-0.02372
420.40617,-0.10787
422.33464,-0.15138
424.26311,-0.13176
426.19157,-0.03912
428.12004,0.09371
430.04851,0.15514
431.97698,0.08571
433.90545,0.04672
435.83392,0.10297
437.76239,0.10070
439.69085,-0.00436
441.61932,-0.09589
443.54779,-0.07296
445.47626,-0.03213
447.40473,0.00494
449.33320,0.08926
451.26167,0.11616
453.19013,0.03094
455.11860,-0.09828
457.04707,-0.15353
458.97554,-0.10600
460.90401,-0.06164
462.83248,-0.06378
464.76095,-0.08064
466.68942,-0.06263
468.61788,-0.00857
470.54635,0.02411
472.47482,-0.05049
474.40329,-0.20271
476.33176,-0.17172
478.26023,-0.04222
480.18870,0.02716
482.11716,-0.00198
484.04563,-0.04683
485.97410,-0.02854
487.90257,0.00323
489.83104,0.02284
491.75951,0.04844
493.68798,0.04246
495.61645,0.04370
497.54491,0.11131
499.47338,0.17316
501.40185,0.14767
503.33032,0.08200
505.25879,0.04532
507.18726,-0.00582
509.11573,-0.07246
511.04419,-0.08583
512.97266,-0.04878
514.90113,0.00593
516.82960,0.04456
518.75807,0.05479
520.68654,0.07424
522.61501,0.09337
524.54348,0.07912
526.47194,0.04614
528.40041,0.04075
530.32888,0.06570
532.25735,0.07186
534.18582,0.05610
536.11429,0.06615
538.04276,0.09942
539.97122,0.10516
541.89969,0.07485
543.82816,0.04297
545.75663,0.02688
547.68510,0.03760
549.61357,0.07012
551.54204,0.06933
553.47051,0.03099
555.39897,0.01867
557.32744,0.03621
559.25591,0.04744
561.18438,0.05453
563.11285,0.06202
565.04132,0.06125
566.96979,0.04892
568.89825,0.04581
570.82672,0.05442
572.75519,0.04515
574.68366,0.02901
576.61213,0.03946
578.54060,0.06915
580.46907,0.09505
582.39754,0.10737
584.32600,0.11291
586.25447,0.12146
588.18294,0.13462
590.11141,0.13867
592.03988,0.09921
593.96835,0.02929
595.89682,-0.00219
597.82528,0.01883
599.75375,0.04834
601.68222,0.06881
603.61069,0.08058
605.53916,0.06433
607.46763,0.03922
609.39610,0.04436
611.32456,0.07240
613.25303,0.09090
615.18150,0.08727
617.10997,0.08430
619.03844,0.09468
620.96691,0.09862
622.89538,0.10079
624.82385,0.11287
626.75231,0.11434
628.68078,0.11005
630.60925,0.10979
632.53772,0.09172
634.46619,0.07648
636.39466,0.08675
638.32313,0.09042
640.25159,0.07307
642.18006,0.06630
644.10853,0.07863
646.03700,0.07667
647.96547,0.05566
649.89394,0.04245
651.82241,0.03851
653.75088,0.02511
655.67934,0.00845
657.60781,0.01729
659.53628,0.04590
661.46475,0.06380
663.39322,0.06600
665.32169,0.05610
667.25016,0.05499
669.17862,0.09444
671.10709,0.11773
673.03556,0.11263
674.96403,0.10285
676.89250,0.09412
678.82097,0.08387
680.74944,0.07521
682.67791,0.07688
684.60637,0.08620
686.53484,0.08465
688.46331,0.07648
690.39178,0.08068
692.32025,0.07775
694.24872,0.06385
696.17719,0.06984
698.10565,0.09571
700.03412,0.11560
701.96259,0.12091
703.89106,0.11933
705.81953,0.11240
707.74800,0.10206
709.67647,0.09658
711.60494,0.09508
713.53340,0.09902
715.46187,0.10583
717.39034,0.10302
719.31881,0.09729
721.24728,0.09600
723.17575,0.08431
725.10422,0.06839
727.03268,0.07588
728.96115,0.10138
730.88962,0.11786
732.81809,0.11732
734.74656,0.10486
736.67503,0.09391
738.60350,0.09477
740.53197,0.10006
742.46043,0.10357
744.38890,0.10500
746.31737,0.10205
748.24584,0.09664
750.17431,0.09399
752.10278,0.09872
754.03125,0.10577
755.95971,0.10744
757.88818,0.10405
759.81665,0.10023
761.74512,0.10333
763.67359,0.10714
765.60206,0.10347
767.53053,0.09517
769.45900,0.08272
771.38746,0.07727
773.31593,0.08633
775.24440,0.10017
777.17287,0.11575
779.10134,0.13050
781.02981,0.13146
782.95828,0.12094
784.88674,0.11741
786.81521,0.11665
788.74368,0.10799
790.67215,0.10244
792.60062,0.10175
794.52909,0.09812
796.45756,0.09583
798.38602,0.09647
800.31449,0.09378
802.24296,0.08825
804.17143,0.08747
806.09990,0.08986
808.02837,0.08294
809.95684,0.07265
811.88531,0.07685
813.81377,0.09136
815.74224,0.10921
817.67071,0.13033
819.59918,0.13714
821.52765,0.11778
823.45612,0.08985
825.38459,0.07129
827.31305,0.06663
829.24152,0.07786
831.16999,0.09191
833.09846,0.09351
835.02693,0.08884
836.95540,0.08304
838.88387,0.07823
840.81234,0.08289
842.74080,0.09624
844.66927,0.10865
846.59774,0.11356
848.52621,0.11720
850.45468,0.12321
852.38315,0.12199
854.31162,0.10854
856.24008,0.09736
858.16855,0.10897
860.09702,0.12825
862.02549,0.12521
863.95396,0.11030
865.88243,0.10120
867.81090,0.08265
869.73937,0.05156
871.66783,0.04526
873.59630,0.07359
875.52477,0.10043
877.45324,0.11234
879.38171,0.11340
881.31018,0.10410
883.23865,0.09755
885.16711,0.09631
887.09558,0.09525
889.02405,0.09932
890.95252,0.10837
892.88099,0.11585
894.80946,0.11722
896.73793,0.11632
898.66640,0.11433
900.59486,0.10780
902.52333,0.10543
904.45180,0.11110
906.38027,0.11404
908.30874,0.11015
910.23721,0.10727
912.16568,0.10884
914.09414,0.10968
916.02261,0.10912
917.95108,0.11072
919.87955,0.11824
921.80802,0.12809
923.73649,0.12792
925.66496,0.12048
927.59343,0.11840
929.52189,0.11996
931.45036,0.12288
933.37883,0.12717
935.30730,0.12477
937.23577,0.11814
939.16424,0.11436
941.09271,0.11048
943.02117,0.10752
944.94964,0.10663
946.87811,0.10294
948.80658,0.10059
950.73505,0.10526
952.66352,0.11080
954.59199,0.11235
956.52045,0.11155
958.44892,0.11104
960.37739,0.11430
962.30586,0.11914
964.23433,0.11977
966.16280,0.11740
968.09127,0.11772
970.01974,0.12288
971.94820,0.13217
973.87667,0.14125
975.80514,0.14268
977.73361,0.13485
979.66208,0.12542
981.59055,0.12197
983.51902,0.12402
985.44748,0.12982
987.37595,0.13466
989.30442,0.13129
991.23289,0.12659
993.16136,0.13099
995.08983,0.13772
997.01830,0.13711
998.94677,0.13227
1000.87523,0.12533
1002.80370,0.11489
1004.73217,0.11149
1006.66064,0.11851
1008.58911,0.12096
1010.51758,0.11587
1012.44605,0.11467
1014.37451,0.11953
1016.30298,0.12493
1018.23145,0.12672
1020.15992,0.12296
1022.08839,0.11823
1024.01686,0.11725
1025.94533,0.12790
1027.87380,0.15151
1029.80226,0.15491
1031.73073,0.12862
1033.65920,0.11272
1035.58767,0.11802
1037.51614,0.12177
1039.44461,0.11649
1041.37308,0.11153
1043.30154,0.11198
1045.23001,0.11721
1047.15848,0.12404
1049.08695,0.12778
1051.01542,0.12923
1052.94389,0.13002
1054.87236,0.13228
1056.80083,0.13849
1058.72929,0.14307
1060.65776,0.13972
1062.58623,0.13644
1064.51470,0.14134
1066.44317,0.14520
1068.37164,0.14022
1070.30011,0.13224
1072.22857,0.12941
1074.15704,0.13111
1076.08551,0.13177
1078.01398,0.12740
1079.94245,0.12090
1081.87092,0.12105
1083.79939,0.12555
1085.72786,0.12892
1087.65632,0.13176
1089.58479,0.12987
1091.51326,0.12316
1093.44173,0.12225
1095.37020,0.12923
1097.29867,0.13458
1099.22714,0.13796
1101.15560,0.14141
1103.08407,0.14009
1105.01254,0.13807
1106.94101,0.14229
1108.86948,0.14873
1110.79795,0.15350
1112.72642,0.15552
1114.65489,0.14912
1116.58335,0.13764
1118.51182,0.13199
1120.44029,0.13454
1122.36876,0.13780
1124.29723,0.13622
1126.22570,0.13179
1128.15417,0.12245
1130.08263,0.11535
1132.01110,0.12112
1133.93957,0.13247
1135.86804,0.14003
1137.79651,0.14060
1139.72498,0.14024
1141.65345,0.14391
1143.58191,0.14436
1145.51038,0.14000
1147.43885,0.13596
1149.36732,0.13351
1151.29579,0.13578
1153.22426,0.14374
1155.15273,0.14897
1157.08120,0.14654
1159.00966,0.14011
1160.93813,0.13404
1162.86660,0.13286
1164.79507,0.13761
1166.72354,0.14182
1168.65201,0.14232
1170.58048,0.14526
1172.50894,0.14955
1174.43741,0.14912
1176.36588,0.14824
1178.29435,0.15176
1180.22282,0.15418
1182.15129,0.14919
1184.07976,0.14359
1186.00823,0.14491
1187.93669,0.14753
1189.86516,0.14486
1191.79363,0.13897
1193.72210,0.13734
1195.65057,0.14151
1197.57904,0.14594
1199.50751,0.14812
1201.43597,0.14848
1203.36444,0.14639
1205.29291,0.14175
1207.22138,0.13814
1209.14985,0.14064
1211.07832,0.14715
1213.00679,0.14944
1214.93526,0.14747
1216.86372,0.14580
1218.79219,0.14171
1220.72066,0.13758
1222.64913,0.14129
1224.57760,0.14928
1226.50607,0.15334
1228.43454,0.15289
1230.36300,0.15039
1232.29147,0.14686
1234.21994,0.14358
1236.14841,0.14275
1238.07688,0.14319
1240.00535,0.14361
1241.93382,0.14491
1243.86229,0.14266
1245.79075,0.13816
1247.71922,0.14169
1249.64769,0.15118
1251.57616,0.15415
1253.50463,0.15043
1255.43310,0.15101
1257.36157,0.15555
1259.29003,0.15501
1261.21850,0.14928
1263.14697,0.14250
1265.07544,0.13679
1267.00391,0.13503
1268.93238,0.13642
1270.86085,0.13862
1272.78932,0.14196
1274.71778,0.14401
1276.64625,0.14567
1278.57472,0.15046
1280.50319,0.15203
1282.43166,0.14929
1284.36013,0.14991
1286.28860,0.15011
1288.21706,0.14919
1290.14553,0.15511
1292.07400,0.16099
1294.00247,0.15944
1295.93094,0.15586
1297.85941,0.15191
1299.78788,0.14610
1301.71634,0.13377
1303.64481,0.11530
1305.57328,0.11122
1307.50175,0.12862
1309.43022,0.14619
1311.35869,0.15482
1313.28716,0.15994
1315.21563,0.16197
1317.14409,0.16269
1319.07256,0.16144
1321.00103,0.15853
1322.92950,0.15928
1324.85797,0.15638
1326.78644,0.14603
1328.71491,0.14129
1330.64337,0.14311
1332.57184,0.14463
1334.50031,0.14773
1336.42878,0.15190
1338.35725,0.15536
1340.28572,0.15251
1342.21419,0.14876
1344.14266,0.15828
1346.07112,0.16362
1347.99959,0.15222
1349.92806,0.14534
1351.85653,0.14782
1353.78500,0.14951
1355.71347,0.15101
1357.64194,0.15290
1359.57040,0.15663
1361.49887,0.16519
1363.42734,0.17034
1365.35581,0.16412
1367.28428,0.15718
1369.21275,0.15821
1371.14122,0.16536
1373.06969,0.17327
1374.99815,0.17367
1376.92662,0.16550
1378.85509,0.15781
1380.78356,0.15481
1382.71203,0.15771
1384.64050,0.16524
1386.56897,0.17099
1388.49743,0.16980
1390.42590,0.16740
1392.35437,0.16933
1394.28284,0.17189
1396.21131,0.17043
1398.13978,0.16936
1400.06825,0.16888
1401.99672,0.16784
1403.92518,0.17131
1405.85365,0.17688
1407.78212,0.17381
1409.71059,0.16400
1411.63906,0.15924
1413.56753,0.16405
1415.49600,0.17416
1417.42446,0.18346
1419.35293,0.18204
1421.28140,0.17568
1423.20987,0.17475
1425.13834,0.17455
1427.06681,0.17547
1428.99528,0.17871
1430.92375,0.17856
1432.85221,0.17903
1434.78068,0.18521
1436.70915,0.18552
1438.63762,0.17525
1440.56609,0.16933
1442.49456,0.16855
1444.42303,0.16923
1446.35149,0.17273
1448.27996,0.17707
1450.20843,0.17791
1452.13690,0.17982
1454.06537,0.18669
1455.99384,0.19800
1457.92231,0.20089
1459.85077,0.19155
1461.77924,0.19017
1463.70771,0.19545
1465.63618,0.19253
1467.56465,0.18335
1469.49312,0.18621
1471.42159,0.20189
1473.35006,0.20782
1475.27852,0.19654
1477.20699,0.18710
1479.13546,0.18174
1481.06393,0.17905
1482.99240,0.17792
1484.92087,0.17966
1486.84934,0.18984
1488.77780,0.20609
1490.70627,0.20523
1492.63474,0.19015
1494.56321,0.18463
1496.49168,0.19423
1498.42015,0.20085
1500.34862,0.19427
1502.27709,0.19528
1504.20555,0.21546
1506.13402,0.24916
1508.06249,0.24461
1509.99096,0.21270
1511.91943,0.19245
1513.84790,0.18665
1515.77637,0.19705
1517.70483,0.21289
1519.63330,0.22448
1521.56177,0.23526
1523.49024,0.23256
1525.41871,0.21749
1527.34718,0.20015
1529.27565,0.19031
1531.20412,0.19231
1533.13258,0.19882
1535.06105,0.20040
1536.98952,0.20563
1538.91799,0.22632
1540.84646,0.24913
1542.77493,0.23863
1544.70340,0.21623
1546.63186,0.20093
1548.56033,0.19590
1550.48880,0.19553
1552.41727,0.20009
1554.34574,0.21141
1556.27421,0.22760
1558.20268,0.24712
1560.13115,0.22881
1562.05961,0.20000
1563.98808,0.18843
1565.91655,0.18803
1567.84502,0.19827
1569.77349,0.20877
1571.70196,0.20447
1573.63043,0.20133
1575.55889,0.20764
1577.48736,0.20589
1579.41583,0.19319
1581.34430,0.18333
1583.27277,0.18011
1585.20124,0.18133
1587.12971,0.18251
1589.05818,0.18296
1590.98664,0.18308
1592.91511,0.18215
1594.84358,0.18171
1596.77205,0.18252
1598.70052,0.18307
1600.62899,0.18307
1602.55746,0.18287
1604.48592,0.18199
1606.41439,0.18123
1608.34286,0.18213
1610.27133,0.18272
1612.19980,0.18292
1614.12827,0.18863
1616.05674,0.20046
1617.98521,0.20147
1619.91367,0.19415
1621.84214,0.19307
1623.77061,0.19574
1625.69908,0.19697
1627.62755,0.19551
1629.55602,0.18973
1631.48449,0.18726
1633.41295,0.19752
1635.34142,0.21810
1637.26989,0.21912
1639.19836,0.20512
1641.12683,0.19711
1643.05530,0.19741
1644.98377,0.20851
1646.91223,0.22352
1648.84070,0.22080
1650.76917,0.22019
1652.69764,0.23348
1654.62611,0.22346
1656.55458,0.20276
1658.48305,0.19427
1660.41152,0.19048
1662.33998,0.18517
1664.26845,0.18914
1666.19692,0.20376
1668.12539,0.21802
1670.05386,0.22146
1671.98233,0.21557
1673.91080,0.21260
1675.83926,0.20660
1677.76773,0.19972
1679.69620,0.20223
1681.62467,0.21386
1683.55314,0.22635
1685.48161,0.21850
1687.41008,0.20748
1689.33855,0.20556
1691.26701,0.20455
1693.19548,0.20683
1695.12395,0.21697
1697.05242,0.22515
1698.98089,0.22874
1700.90936,0.22524
1702.83783,0.21334
1704.76629,0.20563
1706.69476,0.19685
1708.62323,0.18886
1710.55170,0.18966
1712.48017,0.19646
1714.40864,0.20871
1716.33711,0.22387
1718.26558,0.21738
1720.19404,0.19658
1722.12251,0.18590
1724.05098,0.18339
1725.97945,0.18337
1727.90792,0.18703
1729.83639,0.19504
1731.76486,0.20288
1733.69332,0.20534
1735.62179,0.20170
1737.55026,0.20028
1739.47873,0.20038
1741.40720,0.19961
1743.33567,0.20196
1745.26414,0.20910
1747.19261,0.21727
1749.12107,0.22055
1751.04954,0.21177
1752.97801,0.19648
1754.90648,0.18796
1756.83495,0.18885
1758.76342,0.19367
1760.69189,0.19845
1762.62035,0.19821
1764.54882,0.19177
1766.47729,0.18900
1768.40576,0.19314
1770.33423,0.19863
1772.26270,0.20042
1774.19117,0.19694
1776.11964,0.19223
1778.04810,0.19026
1779.97657,0.19166
1781.90504,0.19368
1783.83351,0.19296
1785.76198,0.18783
1787.69045,0.18368
1789.61892,0.18836
1791.54738,0.19858
1793.47585,0.19939
1795.40432,0.19485
1797.33279,0.19684
1799.26126,0.19957
1801.18973,0.19677
1803.11820,0.19368
1805.04666,0.19225
1806.97513,0.19050
1808.90360,0.18948
1810.83207,0.18874
1812.76054,0.18586
1814.68901,0.18280
1816.61748,0.17546
1818.54595,0.16121
1820.47441,0.15344
1822.40288,0.16222
1824.33135,0.18266
1826.25982,0.19840
1828.18829,0.20339
1830.11676,0.20066
1832.04523,0.19107
1833.97369,0.18604
1835.90216,0.18790
1837.83063,0.18856
1839.75910,0.18620
1841.68757,0.18607
1843.61604,0.18865
1845.54451,0.18829
1847.47298,0.18593
1849.40144,0.18564
1851.32991,0.18672
1853.25838,0.18567
1855.18685,0.18243
1857.11532,0.18166
1859.04379,0.18567
1860.97226,0.18944
1862.90072,0.18873
1864.82919,0.18941
1866.75766,0.19640
1868.68613,0.20249
1870.61460,0.19817
1872.54307,0.19146
1874.47154,0.18813
1876.40001,0.18553
1878.32847,0.18568
1880.25694,0.18873
1882.18541,0.18928
1884.11388,0.18881
1886.04235,0.19286
1887.97082,0.19922
1889.89929,0.20072
1891.82775,0.19763
1893.75622,0.19494
1895.68469,0.19299
1897.61316,0.19176
1899.54163,0.19068
1901.47010,0.18826
1903.39857,0.18700
1905.32704,0.18862
1907.25550,0.18979
1909.18397,0.18809
1911.11244,0.18582
1913.04091,0.18696
1914.96938,0.19092
1916.89785,0.19339
1918.82632,0.19425
1920.75478,0.19520
1922.68325,0.19174
1924.61172,0.18477
1926.54019,0.18257
1928.46866,0.18434
1930.39713,0.18541
1932.32560,0.18667
1934.25407,0.18857
1936.18253,0.18907
1938.11100,0.18913
1940.03947,0.19098
1941.96794,0.19293
1943.89641,0.19161
1945.82488,0.18912
1947.75335,0.18824
1949.68181,0.18843
1951.61028,0.18953
1953.53875,0.19190
1955.46722,0.19304
1957.39569,0.19047
1959.32416,0.18933
1961.25263,0.19328
1963.18110,0.19789
1965.10956,0.20037
1967.03803,0.19835
1968.96650,0.19144
1970.89497,0.18679
1972.82344,0.18599
1974.75191,0.18487
1976.68038,0.18296
1978.60884,0.18076
1980.53731,0.18116
1982.46578,0.18480
1984.39425,0.18817
1986.32272,0.19215
1988.25119,0.19572
1990.17966,0.19612
1992.10812,0.19410
1994.03659,0.19173
1995.96506,0.19135
1997.89353,0.19224
1999.82200,0.19109
2001.75047,0.18722
2003.67894,0.18436
2005.60741,0.18425
2007.53587,0.18628
2009.46434,0.18974
2011.39281,0.19157
2013.32128,0.19247
2015.24975,0.19489
2017.17822,0.19486
2019.10669,0.19177
2021.03515,0.19065
2022.96362,0.19051
2024.89209,0.18968
2026.82056,0.18943
2028.74903,0.18888
2030.67750,0.18785
2032.60597,0.18753
2034.53444,0.18738
2036.46290,0.18762
2038.39137,0.18938
2040.31984,0.19014
2042.24831,0.18793
2044.17678,0.18568
2046.10525,0.18527
2048.03372,0.18584
2049.96218,0.18805
2051.89065,0.19153
2053.81912,0.19285
2055.74759,0.19123
2057.67606,0.18859
2059.60453,0.18725
2061.53300,0.18864
2063.46147,0.19114
2065.38993,0.19246
2067.31840,0.19258
2069.24687,0.19249
2071.17534,0.19177
2073.10381,0.19113
2075.03228,0.19216
2076.96075,0.19351
2078.88921,0.19308
2080.81768,0.19235
2082.74615,0.19273
2084.67462,0.19221
2086.60309,0.19174
2088.53156,0.19320
2090.46003,0.19507
2092.38850,0.19691
2094.31696,0.19679
2096.24543,0.19228
2098.17390,0.18815
2100.10237,0.18806
2102.03084,0.18849
2103.95931,0.18872
2105.88778,0.18969
2107.81624,0.19148
2109.74471,0.19447
2111.67318,0.19629
2113.60165,0.19614
2115.53012,0.19365
2117.45859,0.19098
2119.38706,0.19271
2121.31553,0.19391
2123.24399,0.19176
2125.17246,0.19211
2127.10093,0.19398
2129.02940,0.19405
2130.95787,0.19353
2132.88634,0.19339
2134.81481,0.19852
2136.74327,0.20912
2138.67174,0.21130
2140.60021,0.20196
2142.52868,0.19376
2144.45715,0.19063
2146.38562,0.19164
2148.31409,0.19641
2150.24255,0.19805
2152.17102,0.19334
2154.09949,0.18853
2156.02796,0.18874
2157.95643,0.19184
2159.88490,0.19416
2161.81337,0.19518
2163.74184,0.19520
2165.67030,0.19417
2167.59877,0.19249
2169.52724,0.19062
2171.45571,0.18961
2173.38418,0.19175
2175.31265,0.19481
2177.24112,0.19439
2179.16958,0.19295
2181.09805,0.19292
2183.02652,0.19326
2184.95499,0.19301
2186.88346,0.19084
2188.81193,0.18923
2190.74040,0.19093
2192.66887,0.19353
2194.59733,0.19442
2196.52580,0.19260
2198.45427,0.19040
2200.38274,0.19073
2202.31121,0.19140
2204.23968,0.19129
2206.16815,0.19162
2208.09661,0.19191
2210.02508,0.19153
2211.95355,0.19050
2213.88202,0.19051
2215.81049,0.19259
2217.73896,0.19447
2219.66743,0.19398
2221.59590,0.19164
2223.52436,0.18932
2225.45283,0.18919
2227.38130,0.19181
2229.30977,0.19466
2231.23824,0.19621
2233.16671,0.19716
2235.09518,0.19712
2237.02364,0.19475
2238.95211,0.19190
2240.88058,0.19200
2242.80905,0.19430
2244.73752,0.19613
2246.66599,0.19600
2248.59446,0.19528
2250.52293,0.19585
2252.45139,0.19505
2254.37986,0.19193
2256.30833,0.19106
2258.23680,0.19348
2260.16527,0.19434
2262.09374,0.19300
2264.02221,0.19261
2265.95067,0.19305
2267.87914,0.19363
2269.80761,0.19352
2271.73608,0.19224
2273.66455,0.19265
2275.59302,0.19519
2277.52149,0.19618
2279.44996,0.19529
2281.37842,0.19545
2283.30689,0.19625
2285.23536,0.19465
2287.16383,0.19093
2289.09230,0.18999
2291.02077,0.19615
2292.94924,0.20463
2294.87770,0.20575
2296.80617,0.19985
2298.73464,0.19397
2300.66311,0.19059
2302.59158,0.18971
2304.52005,0.19097
2306.44852,0.19246
2308.37699,0.19337
2310.30545,0.19331
2312.23392,0.19117
2314.16239,0.19193
2316.09086,0.19683
2318.01933,0.19846
2319.94780,0.19693
2321.87627,0.19370
2323.80473,0.18855
2325.73320,0.19147
2327.66167,0.20568
2329.59014,0.21410
2331.51861,0.20832
2333.44708,0.20510
2335.37555,0.20651
2337.30401,0.20019
2339.23248,0.19271
2341.16095,0.19988
2343.08942,0.20873
2345.01789,0.20088
2346.94636,0.19714
2348.87483,0.20397
2350.80330,0.20627
2352.73176,0.19673
2354.66023,0.18623
2356.58870,0.18921
2358.51717,0.19906
2360.44564,0.20669
2362.37411,0.21776
2364.30258,0.22742
2366.23104,0.22497
2368.15951,0.21312
2370.08798,0.20130
2372.01645,0.19721
2373.94492,0.19512
2375.87339,0.19139
2377.80186,0.18898
2379.73033,0.18861
2381.65879,0.19132
2383.58726,0.19431
2385.51573,0.19255
2387.44420,0.18912
2389.37267,0.19170
2391.30114,0.19852
2393.22961,0.20227
2395.15807,0.20117
2397.08654,0.19524
2399.01501,0.18797
2400.94348,0.18593
2402.87195,0.18870
2404.80042,0.19236
2406.72889,0.19571
2408.65736,0.19742
2410.58582,0.19587
2412.51429,0.19345
2414.44276,0.19423
2416.37123,0.19667
2418.29970,0.19733
2420.22817,0.19776
2422.15664,0.19984
2424.08510,0.20209
2426.01357,0.20262
2427.94204,0.20034
2429.87051,0.19645
2431.79898,0.19426
2433.72745,0.19499
2435.65592,0.19549
2437.58439,0.19303
2439.51285,0.19238
2441.44132,0.19546
2443.36979,0.19528
2445.29826,0.19207
2447.22673,0.19188
2449.15520,0.19248
2451.08367,0.18455
2453.01213,0.16833
2454.94060,0.15980
2456.86907,0.17057
2458.79754,0.19002
2460.72601,0.19831
2462.65448,0.19662
2464.58295,0.19598
2466.51142,0.19539
2468.43988,0.19443
2470.36835,0.19497
2472.29682,0.19649
2474.22529,0.19843
2476.15376,0.19955
2478.08223,0.19908
2480.01070,0.19726
2481.93916,0.19528
2483.86763,0.19521
2485.79610,0.19701
2487.72457,0.19809
2489.65304,0.19719
2491.58151,0.19614
2493.50998,0.19800
2495.43844,0.20104
2497.36691,0.20222
2499.29538,0.20221
2501.22385,0.20049
2503.15232,0.19702
2505.08079,0.19557
2507.00926,0.19781
2508.93773,0.20004
2510.86619,0.19909
2512.79466,0.19718
2514.72313,0.19920
2516.65160,0.20236
2518.58007,0.20300
2520.50854,0.20552
2522.43701,0.20668
2524.36547,0.20139
2526.29394,0.19449
2528.22241,0.19110
2530.15088,0.19227
2532.07935,0.19497
2534.00782,0.19711
2535.93629,0.20152
2537.86476,0.20745
2539.79322,0.20717
2541.72169,0.20090
2543.65016,0.19877
2545.57863,0.20154
2547.50710,0.20205
2549.43557,0.20018
2551.36404,0.19951
2553.29250,0.20028
2555.22097,0.20103
2557.14944,0.20093
2559.07791,0.20146
2561.00638,0.20314
2562.93485,0.20452
2564.86332,0.20470
2566.79179,0.20314
2568.72025,0.20261
2570.64872,0.20446
2572.57719,0.20422
2574.50566,0.20164
2576.43413,0.20244
2578.36260,0.20502
2580.29107,0.20356
2582.21953,0.20056
2584.14800,0.19894
2586.07647,0.19725
2588.00494,0.19638
2589.93341,0.19788
2591.86188,0.20234
2593.79035,0.20899
2595.71882,0.21343
2597.64728,0.21242
2599.57575,0.20779
2601.50422,0.20260
2603.43269,0.19911
2605.36116,0.19929
2607.28963,0.20165
2609.21810,0.20111
2611.14656,0.19717
2613.07503,0.19414
2615.00350,0.19661
2616.93197,0.20390
2618.86044,0.20579
2620.78891,0.20028
2622.71738,0.19503
2624.64585,0.19226
2626.57431,0.19310
2628.50278,0.19613
2630.43125,0.19800
2632.35972,0.19873
2634.28819,0.19880
2636.21666,0.19862
2638.14513,0.19754
2640.07359,0.19741
2642.00206,0.20084
2643.93053,0.20447
2645.85900,0.20506
2647.78747,0.20457
2649.71594,0.20573
2651.64441,0.20691
2653.57288,0.20457
2655.50134,0.20039
2657.42981,0.19869
2659.35828,0.19935
2661.28675,0.20057
2663.21522,0.20324
2665.14369,0.20712
2667.07216,0.21048
2669.00062,0.21168
2670.92909,0.20909
2672.85756,0.20551
2674.78603,0.20400
2676.71450,0.20274
2678.64297,0.20093
2680.57144,0.20122
2682.49990,0.20438
2684.42837,0.20718
2686.35684,0.20728
2688.28531,0.20627
2690.21378,0.20578
2692.14225,0.20530
2694.07072,0.20538
2695.99919,0.20450
2697.92765,0.20299
2699.85612,0.20523
2701.78459,0.20801
2703.71306,0.20719
2705.64153,0.20450
2707.57000,0.20151
2709.49847,0.19979
2711.42693,0.19956
2713.35540,0.20017
2715.28387,0.20341
2717.21234,0.20873
2719.14081,0.21099
2721.06928,0.21010
2722.99775,0.20951
2724.92622,0.21043
2726.85468,0.21328
2728.78315,0.21516
2730.71162,0.21315
2732.64009,0.20850
2734.56856,0.20650
2736.49703,0.21042
2738.42550,0.21547
2740.35396,0.21648
2742.28243,0.21347
2744.21090,0.21025
2746.13937,0.21047
2748.06784,0.21234
2749.99631,0.21298
2751.92478,0.21337
2753.85325,0.21344
2755.78171,0.21153
2757.71018,0.20805
2759.63865,0.20529
2761.56712,0.20619
2763.49559,0.20972
2765.42406,0.21371
2767.35253,0.21856
2769.28099,0.21995
2771.20946,0.21617
2773.13793,0.21439
2775.06640,0.21556
2776.99487,0.21606
2778.92334,0.21650
2780.85181,0.21622
2782.78028,0.21545
2784.70874,0.21715
2786.63721,0.21836
2788.56568,0.21525
2790.49415,0.21264
2792.42262,0.21250
2794.35109,0.21235
2796.27956,0.21355
2798.20802,0.21471
2800.13649,0.21387
2802.06496,0.21280
2803.99343,0.21092
2805.92190,0.20947
2807.85037,0.21156
2809.77884,0.21319
2811.70731,0.21311
2813.63577,0.21455
2815.56424,0.21447
2817.49271,0.21362
2819.42118,0.21498
2821.34965,0.21412
2823.27812,0.21111
2825.20659,0.21183
2827.13505,0.21463
2829.06352,0.21562
2830.99199,0.21624
2832.92046,0.21664
2834.84893,0.21685
2836.77740,0.21646
2838.70587,0.21450
2840.63433,0.21358
2842.56280,0.21471
2844.49127,0.21626
2846.41974,0.21788
2848.34821,0.22025
2850.27668,0.22196
2852.20515,0.21943
2854.13362,0.21312
2856.06208,0.21008
2857.99055,0.21265
2859.91902,0.21469
2861.84749,0.21493
2863.77596,0.21584
2865.70443,0.21652
2867.63290,0.21642
2869.56136,0.21694
2871.48983,0.21763
2873.41830,0.21695
2875.34677,0.21591
2877.27524,0.21510
2879.20371,0.21444
2881.13218,0.21192
2883.06065,0.20732
2884.98911,0.20700
2886.91758,0.21256
2888.84605,0.21913
2890.77452,0.22256
2892.70299,0.21997
2894.63146,0.21261
2896.55993,0.20726
2898.48839,0.20739
2900.41686,0.20979
2902.34533,0.21125
2904.27380,0.20999
2906.20227,0.20819
2908.13074,0.21065
2910.05921,0.21500
2911.98768,0.21529
2913.91614,0.21188
2915.84461,0.20718
2917.77308,0.20238
2919.70155,0.20089
2921.63002,0.20400
2923.55849,0.20655
2925.48696,0.20258
2927.41542,0.19700
2929.34389,0.19971
2931.27236,0.20919
2933.20083,0.21601
2935.12930,0.21103
2937.05777,0.20086
2938.98624,0.20412
2940.91471,0.21441
2942.84317,0.21451
2944.77164,0.20650
2946.70011,0.19965
2948.62858,0.20143
2950.55705,0.20761
2952.48552,0.20833
2954.41399,0.20390
2956.34245,0.19737
2958.27092,0.19672
2960.19939,0.20632
2962.12786,0.21614
2964.05633,0.22132
2965.98480,0.22035
2967.91327,0.21213
2969.84174,0.20896
2971.77020,0.21541
2973.69867,0.22229
2975.62714,0.22187
2977.55561,0.21210
2979.48408,0.20449
2981.41255,0.20803
2983.34102,0.21636
2985.26948,0.21970
2987.19795,0.21506
2989.12642,0.21380
2991.05489,0.22161
2992.98336,0.22586
2994.91183,0.22112
2996.84030,0.21270
2998.76877,0.20626
3000.69723,0.20786
3002.62570,0.21469
3004.55417,0.22004
3006.48264,0.22305
3008.41111,0.22061
3010.33958,0.20608
3012.26805,0.17752
3014.19651,0.14042
3016.12498,0.11369
3018.05345,0.12774
3019.98192,0.17753
3021.91039,0.21629
3023.83886,0.22607
3025.76733,0.22475
3027.69579,0.22227
3029.62426,0.21895
3031.55273,0.21635
3033.48120,0.21591
3035.40967,0.21833
3037.33814,0.22111
3039.26661,0.22115
3041.19508,0.22023
3043.12354,0.21942
3045.05201,0.21426
3046.98048,0.20734
3048.90895,0.20957
3050.83742,0.21910
3052.76589,0.22683
3054.69436,0.22535
3056.62282,0.21329
3058.55129,0.20757
3060.47976,0.21487
3062.40823,0.22158
3064.33670,0.21842
3066.26517,0.20911
3068.19364,0.20683
3070.12211,0.21152
3072.05057,0.21213
3073.97904,0.20546
3075.90751,0.19900
3077.83598,0.20412
3079.76445,0.21531
3081.69292,0.21975
3083.62139,0.21222
3085.54985,0.19579
3087.47832,0.18907
3089.40679,0.19919
3091.33526,0.20791
3093.26373,0.20501
3095.19220,0.20239
3097.12067,0.20922
3099.04914,0.21836
3100.97760,0.22050
3102.90607,0.21215
3104.83454,0.20387
3106.76301,0.20707
3108.69148,0.21472
3110.61995,0.21572
3112.54842,0.20939
3114.47688,0.20545
3116.40535,0.20860
3118.33382,0.21120
3120.26229,0.20783
3122.19076,0.20660
3124.11923,0.21676
3126.04770,0.22720
3127.97617,0.22405
3129.90463,0.21371
3131.83310,0.21084
3133.76157,0.21857
3135.69004,0.22779
3137.61851,0.23064
3139.54698,0.22822
3141.47545,0.22867
3143.40391,0.23232
3145.33238,0.23264
3147.26085,0.23170
3149.18932,0.23086
3151.11779,0.22609
3153.04626,0.22132
3154.97473,0.22008
3156.90320,0.21824
3158.83166,0.21740
3160.76013,0.21922
3162.68860,0.21972
3164.61707,0.22033
3166.54554,0.22251
3168.47401,0.22419
3170.40248,0.22804
3172.33094,0.23283
3174.25941,0.23272
3176.18788,0.23079
3178.11635,0.23016
3180.04482,0.22945
3181.97329,0.23092
3183.90176,0.23466
3185.83022,0.23519
3187.75869,0.23030
3189.68716,0.22563
3191.61563,0.22361
3193.54410,0.22194
3195.47257,0.22273
3197.40104,0.22615
3199.32951,0.22930
3201.25797,0.23177
3203.18644,0.23008
3205.11491,0.22539
3207.04338,0.22479
3208.97185,0.22540
3210.90032,0.22539
3212.82879,0.22851
3214.75725,0.22983
3216.68572,0.22712
3218.61419,0.22565
3220.54266,0.22443
3222.47113,0.22203
3224.39960,0.22249
3226.32807,0.22348
3228.25654,0.22358
3230.18500,0.22627
3232.11347,0.22651
3234.04194,0.22534
3235.97041,0.23070
3237.89888,0.23472
3239.82735,0.23020
3241.75582,0.22936
3243.68428,0.23644
3245.61275,0.23738
3247.54122,0.23074
3249.46969,0.22602
3251.39816,0.22719
3253.32663,0.23268
3255.25510,0.23468
3257.18357,0.23152
3259.11203,0.22521
3261.04050,0.21575
3262.96897,0.21249
3264.89744,0.21890
3266.82591,0.22538
3268.75438,0.23050
3270.68285,0.23440
3272.61131,0.23235
3274.53978,0.22797
3276.46825,0.22532
3278.39672,0.22350
3280.32519,0.22164
3282.25366,0.21587
3284.18213,0.20865
3286.11060,0.21038
3288.03906,0.21793
3289.96753,0.21850
3291.89600,0.21206
3293.82447,0.20918
3295.75294,0.21367
3297.68141,0.21691
3299.60988,0.21445
3301.53834,0.21134
3303.46681,0.21174
3305.39528,0.21864
3307.32375,0.22969
3309.25222,0.23717
3311.18069,0.23330
3313.10916,0.22169
3315.03763,0.21784
3316.96609,0.22444
3318.89456,0.23307
3320.82303,0.24033
3322.75150,0.24092
3324.67997,0.23447
3326.60844,0.23025
3328.53691,0.22941
3330.46537,0.22841
3332.39384,0.22528
3334.32231,0.21997
3336.25078,0.21967
3338.17925,0.22321
3340.10772,0.22629
3342.03619,0.23355
3343.96466,0.23781
3345.89312,0.23150
3347.82159,0.22582
3349.75006,0.22843
3351.67853,0.23361
3353.60700,0.23471
3355.53547,0.23204
3357.46394,0.23098
3359.39240,0.23119
3361.32087,0.22987
3363.24934,0.22786
3365.17781,0.22360
3367.10628,0.22033
3369.03475,0.22353
3370.96322,0.22713
3372.89168,0.22818
3374.82015,0.23035
3376.74862,0.22749
3378.67709,0.22011
3380.60556,0.22058
3382.53403,0.22767
3384.46250,0.23122
3386.39097,0.22948
3388.31943,0.22667
3390.24790,0.22435
3392.17637,0.21934
3394.10484,0.21439
3396.03331,0.21751
3397.96178,0.22320
3399.89025,0.22389
3401.81871,0.22440
3403.74718,0.21976
3405.67565,0.20777
3407.60412,0.20552
3409.53259,0.21438
3411.46106,0.22047
3413.38953,0.22078
3415.31800,0.21606
3417.24646,0.21090
3419.17493,0.21375
3421.10340,0.22093
3423.03187,0.22279
3424.96034,0.22039
3426.88881,0.21975
3428.81728,0.21981
3430.74574,0.21759
3432.67421,0.21686
3434.60268,0.21538
3436.53115,0.20875
3438.45962,0.20527
3440.38809,0.20990
3442.31656,0.21718
3444.24503,0.22176
3446.17349,0.22130
3448.10196,0.21514
3450.03043,0.20552
3451.95890,0.19882
3453.88737,0.19514
3455.81584,0.19179
3457.74431,0.19588
3459.67277,0.20440
3461.60124,0.20096
3463.52971,0.18834
3465.45818,0.18485
3467.38665,0.19224
3469.31512,0.19891
3471.24359,0.20333
3473.17206,0.20971
3475.10052,0.21407
3477.02899,0.21193
3478.95746,0.20753
3480.88593,0.20820
3482.81440,0.21211
3484.74287,0.20870
3486.67134,0.19852
3488.59980,0.19337
3490.52827,0.19514
3492.45674,0.19737
3494.38521,0.19644
3496.31368,0.19151
3498.24215,0.18718
3500.17062,0.18997
3502.09909,0.19630
3504.02755,0.19316
3505.95602,0.18529
3507.88449,0.18548
3509.81296,0.18800
3511.74143,0.18706
3513.66990,0.18595
3515.59837,0.18646
3517.52683,0.18760
3519.45530,0.18756
3521.38377,0.18679
3523.31224,0.18535
3525.24071,0.18562
3527.16918,0.18896
3529.09765,0.18689
3531.02611,0.17930
3532.95458,0.17614
3534.88305,0.17710
3536.81152,0.17859
3538.73999,0.17789
3540.66846,0.17352
3542.59693,0.17239
3544.52540,0.17806
3546.45386,0.18164
3548.38233,0.17869
3550.31080,0.17573
3552.23927,0.17071
3554.16774,0.16127
3556.09621,0.15838
3558.02468,0.16374
3559.95314,0.16869
3561.88161,0.17162
3563.81008,0.17907
3565.73855,0.19400
3567.66702,0.20166
3569.59549,0.19272
3571.52396,0.18057
3573.45243,0.17056
3575.38089,0.16357
3577.30936,0.15827
3579.23783,0.15467
3581.16630,0.15532
3583.09477,0.16014
3585.02324,0.16913
3586.95171,0.17549
3588.88017,0.16801
3590.80864,0.16002
3592.73711,0.16239
3594.66558,0.16866
3596.59405,0.17036
3598.52252,0.17011
3600.45099,0.16950
3602.37946,0.16516
3604.30792,0.16361
3606.23639,0.17181
3608.16486,0.17799
3610.09333,0.17116
3612.02180,0.16722
3613.95027,0.17094
3615.87874,0.17236
3617.80720,0.17155
3619.73567,0.16952
3621.66414,0.16439
3623.59261,0.16100
3625.52108,0.16287
3627.44955,0.16573
3629.37802,0.16029
3631.30649,0.15548
3633.23495,0.15559
3635.16342,0.15437
3637.09189,0.15420
3639.02036,0.15475
3640.94883,0.15263
3642.87730,0.15176
3644.80577,0.15908
3646.73423,0.17514
3648.66270,0.18634
3650.59117,0.17459
3652.51964,0.15784
3654.44811,0.15138
3656.37658,0.15249
3658.30505,0.15027
3660.23352,0.14439
3662.16198,0.13955
3664.09045,0.13639
3666.01892,0.13589
3667.94739,0.14096
3669.87586,0.15119
3671.80433,0.15791
3673.73280,0.16512
3675.66126,0.16901
3677.58973,0.15364
3679.51820,0.13959
3681.44667,0.13638
3683.37514,0.13454
3685.30361,0.13093
3687.23208,0.13775
3689.16055,0.15949
3691.08901,0.16360
3693.01748,0.14947
3694.94595,0.14390
3696.87442,0.14597
3698.80289,0.14744
3700.73136,0.14692
3702.65983,0.14014
3704.58829,0.13051
3706.51676,0.13130
3708.44523,0.14632
3710.37370,0.16130
3712.30217,0.15647
3714.23064,0.14685
3716.15911,0.14373
3718.08757,0.13430
3720.01604,0.11193
3721.94451,0.09979
3723.87298,0.11914
3725.80145,0.14409
3727.72992,0.14893
3729.65839,0.15022
3731.58686,0.15848
3733.51532,0.16364
3735.44379,0.16448
3737.37226,0.16018
3739.30073,0.15289
3741.22920,0.15586
3743.15767,0.17056
3745.08614,0.17540
3747.01460,0.16395
3748.94307,0.16438
3750.87154,0.17520
3752.80001,0.16984
3754.72848,0.15605
3756.65695,0.15017
3758.58542,0.15179
3760.51389,0.14803
3762.44235,0.14156
3764.37082,0.14120
3766.29929,0.14118
3768.22776,0.13681
3770.15623,0.13049
3772.08470,0.12617
3774.01317,0.12750
3775.94163,0.13539
3777.87010,0.14738
3779.79857,0.15136
3781.72704,0.14410
3783.65551,0.14029
3785.58398,0.14151
3787.51245,0.14057
3789.44092,0.13762
3791.36938,0.13600
3793.29785,0.13703
3795.22632,0.13945
3797.15479,0.13869
3799.08326,0.13650
3801.01173,0.14059
3802.94020,0.14246
3804.86866,0.13973
3806.79713,0.13970
3808.72560,0.13382
3810.65407,0.12576
3812.58254,0.12551
3814.51101,0.13127
3816.43948,0.13734
3818.36795,0.14481
3820.29641,0.15403
3822.22488,0.15210
3824.15335,0.14479
3826.08182,0.13984
3828.01029,0.13287
3829.93876,0.12807
3831.86723,0.12966
3833.79569,0.13542
3835.72416,0.14309
3837.65263,0.14746
3839.58110,0.13878
3841.50957,0.12928
3843.43804,0.12728
3845.36651,0.12614
3847.29498,0.12709
3849.22344,0.13279
3851.15191,0.14157
3853.08038,0.14690
3855.00885,0.14310
3856.93732,0.13976
3858.86579,0.13553
3860.79426,0.13152
3862.72272,0.13109
3864.65119,0.13237
3866.57966,0.13846
3868.50813,0.15152
3870.43660,0.15854
3872.36507,0.15113
3874.29354,0.13542
3876.22200,0.11890
3878.15047,0.11667
3880.07894,0.12462
3882.00741,0.12337
3883.93588,0.11914
3885.86435,0.12034
3887.79282,0.12117
3889.72129,0.12256
3891.64975,0.12347
3893.57822,0.12263
3895.50669,0.12359
3897.43516,0.12198
3899.36363,0.11618
3901.29210,0.11649
3903.22057,0.12019
3905.14903,0.11421
3907.07750,0.10833
3909.00597,0.11072
3910.93444,0.11365
3912.86291,0.11290
3914.79138,0.11103
3916.71985,0.10968
3918.64832,0.11105
3920.57678,0.11407
3922.50525,0.11593
3924.43372,0.11391
3926.36219,0.11155
3928.29066,0.11480
3930.21913,0.11688
3932.14760,0.11422
3934.07606,0.11390
3936.00453,0.11774
3937.93300,0.12237
3939.86147,0.12309
3941.78994,0.12081
3943.71841,0.11697
3945.64688,0.10820
3947.57535,0.10171
3949.50381,0.10342
3951.43228,0.10552
3953.36075,0.10899
3955.28922,0.11743
3957.21769,0.11796
3959.14616,0.10481
3961.07463,0.09266
3963.00309,0.09183
3964.93156,0.10027
3966.86003,0.11178
3968.78850,0.12057
3970.71697,0.12207
3972.64544,0.11673
3974.57391,0.11171
3976.50238,0.10763
3978.43084,0.10370
3980.35931,0.10386
3982.28778,0.10495
3984.21625,0.10273
3986.14472,0.10018
3988.07319,0.10353
3990.00166,0.10966
3991.93012,0.10804
3993.85859,0.10320
3995.78706,0.10397
3997.71553,0.10367
3999.64400,0.09671
4001.57247,0.08835
4003.50094,0.08571
4005.42941,0.09167
4007.35787,0.09865
4009.28634,0.09870
4011.21481,0.09606
4013.14328,0.09641
4015.07175,0.09873
4017.00022,0.09749
4018.92869,0.08982
4020.85715,0.08232
4022.78562,0.08305
4024.71409,0.08897
4026.64256,0.09031
4028.57103,0.08602
4030.49950,0.08371
4032.42797,0.08776
4034.35644,0.09299
4036.28490,0.09030
4038.21337,0.08206
4040.14184,0.08061
4042.07031,0.08626
4043.99878,0.09088
4045.92725,0.09553
4047.85572,0.09899
4049.78418,0.09634
4051.71265,0.09417
4053.64112,0.09772
4055.56959,0.10005
4057.49806,0.09648
4059.42653,0.09209
4061.35500,0.09080
4063.28346,0.08915
4065.21193,0.08607
4067.14040,0.08367
4069.06887,0.08168
4070.99734,0.08211
4072.92581,0.08668
4074.85428,0.09189
4076.78275,0.09351
4078.71121,0.09050
4080.63968,0.08672
4082.56815,0.08795
4084.49662,0.09364
4086.42509,0.09405
4088.35356,0.08422
4090.28203,0.07661
4092.21049,0.08010
4094.13896,0.08462
4096.06743,0.08510
4097.99590,0.08684
4099.92437,0.08667
4101.85284,0.08314
4103.78131,0.08196
4105.70978,0.08217
4107.63824,0.08326
4109.56671,0.08600
4111.49518,0.08622
4113.42365,0.08661
4115.35212,0.08996
4117.28059,0.08702
4119.20906,0.07383
4121.13752,0.06184
4123.06599,0.06283
4124.99446,0.07465
4126.92293,0.08525
4128.85140,0.08716
4130.77987,0.08472
4132.70834,0.08574
4134.63681,0.08836
4136.56527,0.08746
4138.49374,0.08147
4140.42221,0.07005
4142.35068,0.06516
4144.27915,0.07253
4146.20762,0.07554
4148.13609,0.06939
4150.06455,0.06437
4151.99302,0.06348
4153.92149,0.06726
4155.84996,0.07249
4157.77843,0.07448
4159.70690,0.07618
4161.63537,0.07631
4163.56384,0.07145
4165.49230,0.06796
4167.42077,0.06834
4169.34924,0.07041
4171.27771,0.07687
4173.20618,0.08207
4175.13465,0.07505
4177.06312,0.06206
4178.99158,0.05589
4180.92005,0.05380
4182.84852,0.04944
4184.77699,0.04708
4186.70546,0.05185
4188.63393,0.06070
4190.56240,0.07022
4192.49087,0.07789
4194.41933,0.07558
4196.34780,0.06596
4198.27627,0.06389
4200.20474,0.06651
4202.13321,0.06314
4204.06168,0.06148
4205.99015,0.06526
4207.91861,0.06719
4209.84708,0.06779
4211.77555,0.06723
4213.70402,0.06252
4215.63249,0.06071
4217.56096,0.06601
4219.48943,0.06878
4221.41789,0.06637
4223.34636,0.06626
4225.27483,0.06977
4227.20330,0.07120
4229.13177,0.06776
4231.06024,0.06582
4232.98871,0.07003
4234.91718,0.07340
4236.84564,0.06732
4238.77411,0.05871
4240.70258,0.05947
4242.63105,0.06239
4244.55952,0.06109
4246.48799,0.05903
4248.41646,0.05603
4250.34492,0.05922
4252.27339,0.06777
4254.20186,0.06747
4256.13033,0.05961
4258.05880,0.05338
4259.98727,0.05082
4261.91574,0.05076
4263.84421,0.04673
4265.77267,0.03918
4267.70114,0.04014
4269.62961,0.04616
4271.55808,0.04728
4273.48655,0.04659
4275.41502,0.04317
4277.34349,0.04026
4279.27195,0.04296
4281.20042,0.04462
4283.12889,0.04502
4285.05736,0.04455
4286.98583,0.03823
4288.91430,0.03193
4290.84277,0.02950
4292.77124,0.02616
4294.69970,0.02804
4296.62817,0.03715
4298.55664,0.04328
4300.48511,0.04628
4302.41358,0.04686
4304.34205,0.04146
4306.27052,0.03505
4308.19898,0.03830
4310.12745,0.04900
4312.05592,0.05144
4313.98439,0.04432
4315.91286,0.03825
4317.84133,0.03419
4319.76980,0.02857
4321.69827,0.02628
4323.62673,0.03103
4325.55520,0.03428
4327.48367,0.03012
4329.41214,0.02452
4331.34061,0.02283
4333.26908,0.02181
4335.19755,0.01907
4337.12601,0.01692
4339.05448,0.01852
4340.98295,0.02393
4342.91142,0.02781
4344.83989,0.02886
4346.76836,0.02829
4348.69683,0.02840
4350.62530,0.03788
4352.55376,0.05146
4354.48223,0.05285
4356.41070,0.04320
4358.33917,0.03337
4360.26764,0.02894
4362.19611,0.02663
4364.12458,0.02283
4366.05304,0.02194
4367.98151,0.02193
4369.90998,0.02247
4371.83845,0.02780
4373.76692,0.03641
4375.69539,0.04599
4377.62386,0.04679
4379.55232,0.03496
4381.48079,0.02578
4383.40926,0.02789
4385.33773,0.03154
4387.26620,0.03025
4389.19467,0.02705
4391.12314,0.02194
4393.05161,0.01572
4394.98007,0.01188
4396.90854,0.01111
4398.83701,0.01489
4400.76548,0.01967
4402.69395,0.01419
4404.62242,0.00174
4406.55089,-0.00317
4408.47935,-0.00035
4410.40782,0.00590
4412.33629,0.01302
4414.26476,0.01442
4416.19323,0.01247
4418.12170,0.01257
4420.05017,0.01246
4421.97864,0.01758
4423.90710,0.02751
4425.83557,0.02446
4427.76404,0.00773
4429.69251,-0.00084
4431.62098,0.00684
4433.54945,0.01228
4435.47792,0.00743
4437.40638,0.00562
4439.33485,0.00936
4441.26332,0.01606
4443.19179,0.02274
4445.12026,0.01977
4447.04873,0.01271
4448.97720,0.01203
4450.90567,0.00999
4452.83413,0.00436
4454.76260,-0.00073
4456.69107,-0.00538
4458.61954,0.00052
4460.54801,0.01183
4462.47648,0.01470
4464.40495,0.01643
4466.33341,0.01754
4468.26188,0.01337
4470.19035,0.01264
4472.11882,0.01717
4474.04729,0.01653
4475.97576,0.00957
4477.90423,0.00173
4479.83270,-0.00073
4481.76116,0.01028
4483.68963,0.02378
4485.61810,0.02281
4487.54657,0.01138
4489.47504,0.00026
4491.40351,-0.00438
4493.33198,-0.00142
4495.26044,0.00348
4497.18891,0.00619
4499.11738,0.00430
4501.04585,-0.00260
4502.97432,-0.00600
4504.90279,-0.00532
4506.83126,-0.00392
4508.75973,0.00642
4510.68819,0.02082
4512.61666,0.02245
4514.54513,0.00674
4516.47360,-0.01009
4518.40207,-0.00718
4520.33054,0.00414
4522.25901,0.00494
4524.18747,0.00436
4526.11594,0.00775
4528.04441,0.01432
4529.97288,0.02290
4531.90135,0.02267
4533.82982,0.01936
4535.75829,0.02280
4537.68676,0.02395
4539.61522,0.01806
4541.54369,0.01020
4543.47216,0.00752
4545.40063,0.01222
4547.32910,0.01547
4549.25757,0.01615
4551.18604,0.01697
4553.11450,0.01313
4555.04297,0.01062
4556.97144,0.01190
4558.89991,0.00923
4560.82838,0.00881
4562.75685,0.01376
4564.68532,0.01837
4566.61378,0.02768
4568.54225,0.03845
4570.47072,0.03510
4572.39919,0.01681
4574.32766,-0.00432
4576.25613,-0.01622
4578.18460,-0.01257
4580.11307,-0.00036
4582.04153,0.00823
4583.97000,0.01262
4585.89847,0.01244
4587.82694,0.00390
4589.75541,-0.00506
4591.68388,-0.01146
4593.61235,-0.01446
4595.54081,-0.00522
4597.46928,0.00951
4599.39775,0.01590
4601.32622,0.01081
4603.25469,-0.00096
4605.18316,-0.00562
4607.11163,0.00247
4609.04010,0.01021
4610.96856,0.00655
4612.89703,-0.00487
4614.82550,-0.00920
4616.75397,-0.00037
4618.68244,0.00518
4620.61091,0.00440
4622.53938,0.00862
4624.46784,0.00615
4626.39631,-0.01100
4628.32478,-0.02623
4630.25325,-0.02318
4632.18172,-0.00262
4634.11019,0.01257
4636.03866,0.01249
4637.96713,0.01156
4639.89559,0.01109
4641.82406,0.01086
4643.75253,0.01631
4645.68100,0.01954
4647.60947,0.01488
4649.53794,0.00806
4651.46641,0.00475
4653.39487,0.00280
4655.32334,0.00328
4657.25181,0.01110
4659.18028,0.01634
4661.10875,0.01114
4663.03722,0.00140
4664.96569,-0.01127
4666.89416,-0.02546
4668.82262,-0.02175
4670.75109,0.00637
4672.67956,0.02899
4674.60803,0.02628
4676.53650,0.01248
4678.46497,0.00074
4680.39344,-0.01032
4682.32190,-0.01673
4684.25037,-0.01480
4686.17884,-0.00918
4688.10731,0.00151
4690.03578,0.01154
4691.96425,0.00804
4693.89272,-0.00127
4695.82119,-0.00170
4697.74965,0.00345
4699.67812,0.00370
4701.60659,-0.00096
4703.53506,-0.00701
4705.46353,-0.01359
4707.39200,-0.01437
4709.32047,-0.00150
4711.24893,0.01887
4713.17740,0.02584
4715.10587,0.01550
4717.03434,0.00640
4718.96281,0.00634
4720.89128,0.00633
4722.81975,0.00313
4724.74821,0.00272
4726.67668,0.00258
4728.60515,0.00136
4730.53362,0.00113
4732.46209,0.00363
4734.39056,0.00864
4736.31903,0.01039
4738.24750,0.01079
4740.17596,0.00912
4742.10443,-0.00160
4744.03290,-0.01154
4745.96137,-0.00976
4747.88984,-0.00378
4749.81831,-0.00181
4751.74678,0.00003
4753.67524,0.00187
4755.60371,0.00160
4757.53218,0.00163
4759.46065,0.00348
4761.38912,-0.00256
4763.31759,-0.01095
4765.24606,-0.00047
4767.17453,0.02154
4769.10299,0.02719
4771.03146,0.01739
4772.95993,0.01128
4774.88840,0.01190
4776.81687,0.01617
4778.74534,0.02679
4780.67381,0.03133
4782.60227,0.02394
4784.53074,0.01718
4786.45921,0.01357
4788.38768,0.01045
4790.31615,0.00613
4792.24462,0.00543
4794.17309,0.01598
4796.10156,0.02181
4798.03002,0.01277
4799.95849,0.00171
4801.88696,-0.00588
4803.81543,-0.00282
4805.74390,0.01284
4807.67237,0.02414
4809.60084,0.02380
4811.52930,0.01959
4813.45777,0.01315
4815.38624,0.00040
4817.31471,-0.00773
4819.24318,-0.00140
4821.17165,0.00610
4823.10012,0.00195
4825.02859,-0.00706
4826.95705,-0.01018
4828.88552,-0.00868
4830.81399,-0.00863
4832.74246,-0.00885
4834.67093,-0.00457
4836.59940,-0.00057
4838.52787,-0.00415
4840.45633,-0.01313
4842.38480,-0.02149
4844.31327,-0.01922
4846.24174,-0.00046
4848.17021,0.01469
4850.09868,0.01102
4852.02715,0.00429
4853.95562,-0.00017
4855.88408,-0.00719
4857.81255,-0.01242
4859.74102,-0.01431
4861.66949,-0.00239
4863.59796,0.02457
4865.52643,0.03698
4867.45490,0.02210
4869.38336,0.00175
4871.31183,-0.00280
4873.24030,0.01529
4875.16877,0.03586
4877.09724,0.03644
4879.02571,0.02967
4880.95418,0.02664
4882.88265,0.01961
4884.81111,0.00729
4886.73958,-0.00215
4888.66805,-0.00200
4890.59652,0.00488
4892.52499,0.00656
4894.45346,0.00308
4896.38193,0.00921
4898.31039,0.02313
4900.23886,0.03321
4902.16733,0.03512
4904.09580,0.02656
4906.02427,0.01838
4907.95274,0.01899
4909.88121,0.01695
4911.80967,0.00684
4913.73814,-0.00604
4915.66661,-0.02071
4917.59508,-0.02535
4919.52355,-0.01256
4921.45202,-0.00523
4923.38049,-0.01158
4925.30896,-0.00886
4927.23742,0.00679
4929.16589,0.01718
4931.09436,0.01845
4933.02283,0.02210
4934.95130,0.03261
4936.87977,0.03812
4938.80824,0.03196
4940.73670,0.02495
4942.66517,0.02180
4944.59364,0.00990
4946.52211,-0.01822
4948.45058,-0.04213
4950.37905,-0.04334
4952.30752,-0.02540
4954.23599,-0.00127
4956.16445,0.01794
4958.09292,0.03396
4960.02139,0.03987
4961.94986,0.02323
4963.87833,-0.00290
4965.80680,-0.01617
4967.73527,-0.00922
4969.66373,0.00842
4971.59220,0.01364
4973.52067,0.00024
4975.44914,-0.00936
4977.37761,-0.01189
4979.30608,-0.01392
4981.23455,-0.00828
4983.16302,-0.00480
4985.09148,-0.00983
4987.01995,-0.00514
4988.94842,0.01244
4990.87689,0.02282
4992.80536,0.02395
4994.73383,0.02896
4996.66230,0.03851
4998.59076,0.04442
5000.51923,0.03137
5002.44770,0.00653
5004.37617,0.00324
5006.30464,0.02156
5008.23311,0.03837
5010.16158,0.04233
5012.09005,0.02989
5014.01851,0.01849
5015.94698,0.02306
5017.87545,0.02549
5019.80392,0.01382
5021.73239,0.00267
5023.66086,-0.00121
5025.58933,0.00008
5027.51779,0.00356
5029.44626,0.00225
5031.37473,0.00261
5033.30320,0.01053
5035.23167,0.01394
5037.16014,0.01108
5039.08861,0.01390
5041.01708,0.01327
5042.94554,0.00229
5044.87401,0.00222
5046.80248,0.01358
5048.73095,0.01387
5050.65942,0.00608
5052.58789,0.00421
5054.51636,0.00184
5056.44482,-0.00664
5058.37329,-0.01462
5060.30176,-0.02157
5062.23023,-0.02253
5064.15870,-0.01193
5066.08717,-0.00556
5068.01564,-0.01129
5069.94410,-0.01856
5071.87257,-0.01435
5073.80104,0.01166
5075.72951,0.02986
5077.65798,0.02078
5079.58645,0.01895
5081.51492,0.02847
5083.44339,0.02994
5085.37185,0.02718
5087.30032,0.03173
5089.22879,0.04280
5091.15726,0.03919
5093.08573,0.01594
5095.01420,-0.00290
5096.94267,0.00190
5098.87113,0.01694
5100.79960,0.01811
5102.72807,0.00884
5104.65654,-0.00036
5106.58501,-0.01429
5108.51348,-0.03235
5110.44195,-0.03493
5112.37042,-0.01656
5114.29888,0.00480
5116.22735,0.01930
5118.15582,0.02510
5120.08429,0.02699
5122.01276,0.03512
5123.94123,0.03864
5125.86970,0.02410
5127.79816,0.00846
5129.72663,0.00154
5131.65510,-0.00174
5133.58357,0.00179
5135.51204,0.00580
5137.44051,0.00952
5139.36898,0.02403
5141.29745,0.03936
5143.22591,0.02837
5145.15438,0.00327
5147.08285,-0.00107
5149.01132,0.00060
5150.93979,-0.00386
5152.86826,0.00197
5154.79673,0.01685
5156.72519,0.03238
5158.65366,0.03711
5160.58213,0.02942
5162.51060,0.02146
5164.43907,0.02166
5166.36754,0.02760
5168.29601,0.02202
5170.22448,0.00737
5172.15294,0.00742
5174.08141,0.01706
5176.00988,0.02377
5177.93835,0.02662
5179.86682,0.01549
5181.79529,-0.00025
5183.72376,0.00338
5185.65222,0.00922
5187.58069,-0.00835
5189.50916,-0.02734
5191.43763,-0.02810
5193.36610,-0.01698
5195.29457,0.00293
5197.22304,0.02485
5199.15151,0.04270
5201.07997,0.04815
5203.00844,0.03985
5204.93691,0.04396
5206.86538,0.05559
5208.79385,0.05050
5210.72232,0.04465
5212.65079,0.04725
5214.57925,0.05964
5216.50772,0.07219
5218.43619,0.06217
5220.36466,0.04112
5222.29313,0.03827
5224.22160,0.04736
5226.15007,0.04883
5228.07854,0.03850
5230.00700,0.02883
5231.93547,0.03186
5233.86394,0.03511
5235.79241,0.02670
5237.72088,0.01859
5239.64935,0.01843
5241.57782,0.01682
5243.50628,0.01537
5245.43475,0.02612
5247.36322,0.04485
5249.29169,0.07127
5251.22016,0.08573
5253.14863,0.05879
5255.07710,0.02749
5257.00556,0.03874
5258.93403,0.06907
5260.86250,0.08438
5262.79097,0.07633
5264.71944,0.06003
5266.64791,0.04083
5268.57638,0.01036
5270.50485,-0.00603
5272.43331,-0.00559
5274.36178,-0.01036
5276.29025,0.00421
5278.21872,0.03931
5280.14719,0.05280
5282.07566,0.04750
5284.00413,0.04497
5285.93259,0.03673
5287.86106,0.02675
5289.78953,0.02913
5291.71800,0.03415
5293.64647,0.02904
5295.57494,0.02219
5297.50341,0.02373
5299.43188,0.03472
5301.36034,0.04860
5303.28881,0.04675
5305.21728,0.03507
5307.14575,0.04265
5309.07422,0.05682
5311.00269,0.05249
5312.93116,0.04509
5314.85962,0.04219
5316.78809,0.03865
5318.71656,0.04774
5320.64503,0.06433
5322.57350,0.06510
5324.50197,0.05601
5326.43044,0.05921
5328.35891,0.06538
5330.28737,0.06204
5332.21584,0.06194
5334.14431,0.05325
5336.07278,0.02783
5338.00125,0.01298
5339.92972,0.01612
5341.85819,0.02360
5343.78665,0.03517
5345.71512,0.03734
5347.64359,0.02635
5349.57206,0.02536
5351.50053,0.03236
5353.42900,0.03715
5355.35747,0.03586
5357.28594,0.02723
5359.21440,0.03536
5361.14287,0.06193
5363.07134,0.07262
5364.99981,0.06015
5366.92828,0.04402
5368.85675,0.04375
5370.78522,0.06530
5372.71368,0.08899
5374.64215,0.10823
5376.57062,0.12025
5378.49909,0.09501
5380.42756,0.05172
5382.35603,0.03962
5384.28450,0.06754
5386.21297,0.09844
5388.14143,0.09193
5390.06990,0.05672
5391.99837,0.02998
5393.92684,0.02070
5395.85531,0.02161
5397.78378,0.03632
5399.71225,0.03594
5401.64071,0.02301
5403.56918,0.04145
5405.49765,0.07099
5407.42612,0.06610
5409.35459,0.04326
5411.28306,0.04123
5413.21153,0.04602
5415.13999,0.03101
5417.06846,0.01411
5418.99693,0.00997
5420.92540,0.02112
5422.85387,0.04154
5424.78234,0.06573
5426.71081,0.08585
5428.63928,0.08226
5430.56774,0.06615
5432.49621,0.06213
5434.42468,0.06038
5436.35315,0.05212
5438.28162,0.05408
5440.21009,0.06854
5442.13856,0.07561
5444.06702,0.06232
5445.99549,0.03946
5447.92396,0.03801
5449.85243,0.04498
5451.78090,0.03613
5453.70937,0.04745
5455.63784,0.08797
5457.56631,0.10784
5459.49477,0.09613
5461.42324,0.07530
5463.35171,0.03576
5465.28018,0.00140
5467.20865,0.01882
5469.13712,0.07940
5471.06559,0.12794
5472.99405,0.12956
5474.92252,0.10213
5476.85099,0.07608
5478.77946,0.04731
5480.70793,0.02319
5482.63640,0.03082
5484.56487,0.04331
5486.49334,0.02287
5488.42180,0.01884
5490.35027,0.06185
5492.27874,0.07150
5494.20721,0.02935
5496.13568,0.02448
5498.06415,0.06845
5499.99262,0.10115
5501.92108,0.09151
5503.84955,0.06749
5505.77802,0.05499
5507.70649,0.05230
5509.63496,0.05478
5511.56343,0.05887
5513.49190,0.05915
5515.42037,0.03468
5517.34883,-0.00548
5519.27730,-0.00438
5521.20577,0.03985
5523.13424,0.09130
5525.06271,0.12994
5526.99118,0.13307
5528.91965,0.10074
5530.84811,0.07690
5532.77658,0.08568
5534.70505,0.10433
5536.63352,0.11007
5538.56199,0.08844
5540.49046,0.05526
5542.41893,0.03498
5544.34740,0.02993
5546.27586,0.05304
5548.20433,0.08144
5550.13280,0.07646
5552.06127,0.05046
5553.98974,0.02869
5555.91821,0.03699
5557.84668,0.06086
5559.77514,0.06171
5561.70361,0.06678
5563.63208,0.09780
5565.56055,0.11853
5567.48902,0.10569
5569.41749,0.06968
5571.34596,0.04353
5573.27443,0.05338
5575.20289,0.07606
5577.13136,0.08274
5579.05983,0.07637
5580.98830,0.05705
5582.91677,0.03941
5584.84524,0.04616
5586.77371,0.06408
5588.70217,0.07961
5590.63064,0.09262
5592.55911,0.08700
5594.48758,0.06233
5596.41605,0.05335
5598.34452,0.08888
5600.27299,0.13939
5602.20145,0.13652
5604.12992,0.08553
5606.05839,0.05573
5607.98686,0.06197
5609.91533,0.06872
5611.84380,0.05865
5613.77227,0.04054
5615.70074,0.03405
5617.62920,0.04592
5619.55767,0.05656
5621.48614,0.05476
5623.41461,0.06597
5625.34308,0.09702
5627.27155,0.11162
5629.20002,0.09933
5631.12848,0.09190
5633.05695,0.09681
5634.98542,0.07572
5636.91389,0.02910
5638.84236,0.01897
5640.77083,0.04837
5642.69930,0.07033
5644.62777,0.07234
5646.55623,0.07127
5648.48470,0.06695
5650.41317,0.03828
5652.34164,0.01903
5654.27011,0.04627
5656.19858,0.05865
5658.12705,0.01567
5660.05551,-0.02353
5661.98398,-0.01215
5663.91245,0.02628
5665.84092,0.05463
5667.76939,0.05797
5669.69786,0.04664
5671.62633,0.04528
5673.55480,0.04842
5675.48326,0.03618
5677.41173,0.02694
5679.34020,0.03146
5681.26867,0.03673
5683.19714,0.05194
5685.12561,0.07785
5687.05408,0.09096
5688.98254,0.09782
5690.91101,0.11598
5692.83948,0.12035
5694.76795,0.10379
5696.69642,0.08784
5698.62489,0.07347
5700.55336,0.04931
5702.48183,0.02226
5704.41029,0.02406
5706.33876,0.05795
5708.26723,0.09888
5710.19570,0.12945
5712.12417,0.12699
5714.05264,0.09061
5715.98111,0.05503
5717.90957,0.03824
5719.83804,0.04081
5721.76651,0.05138
5723.69498,0.05348
5725.62345,0.05686
5727.55192,0.05414
5729.48039,0.03460
5731.40886,0.03394
5733.33732,0.04085
5735.26579,0.02720
5737.19426,0.02354
5739.12273,0.03176
5741.05120,0.03810
5742.97967,0.05885
5744.90814,0.09086
5746.83660,0.11662
5748.76507,0.11895
5750.69354,0.09361
5752.62201,0.05614
5754.55048,0.02257
5756.47895,0.00439
5758.40742,0.01812
5760.33588,0.06967
5762.26435,0.12611
5764.19282,0.15506
5766.12129,0.15213
5768.04976,0.11389
5769.97823,0.06880
5771.90670,0.06131
5773.83517,0.06053
5775.76363,0.01751
5777.69210,-0.01585
5779.62057,0.00945
5781.54904,0.04729
5783.47751,0.08157
5785.40598,0.11199
5787.33445,0.09536
5789.26291,0.05421
5791.19138,0.03949
5793.11985,0.04321
5795.04832,0.04457
5796.97679,0.03058
5798.90526,0.01538
5800.83373,0.01558
5802.76220,0.02577
5804.69066,0.05060
5806.61913,0.07405
5808.54760,0.08137
5810.47607,0.08616
5812.40454,0.08560
5814.33301,0.07429
5816.26148,0.04160
5818.18994,-0.00739
5820.11841,-0.02026
5822.04688,0.02044
5823.97535,0.06837
5825.90382,0.10172
5827.83229,0.12247
5829.76076,0.11528
5831.68923,0.09319
5833.61769,0.09031
5835.54616,0.08467
5837.47463,0.04010
5839.40310,-0.00413
5841.33157,0.00056
5843.26004,0.02648
5845.18851,0.03626
5847.11697,0.03951
5849.04544,0.05683
5850.97391,0.07457
5852.90238,0.07931
5854.83085,0.09270
5856.75932,0.11624
5858.68779,0.13606
5860.61626,0.14861
5862.54472,0.12802
5864.47319,0.06637
5866.40166,0.01849
5868.33013,0.00580
5870.25860,0.00288
5872.18707,0.01011
5874.11554,0.01917
5876.04400,0.03301
5877.97247,0.06523
5879.90094,0.07226
5881.82941,0.04572
5883.75788,0.02310
5885.68635,0.00924
5887.61482,0.02141
5889.54329,0.05571
5891.47175,0.07057
5893.40022,0.06845
5895.32869,0.07091
5897.25716,0.07266
5899.18563,0.07508
5901.11410,0.11099
5903.04257,0.15847
5904.97103,0.14110
5906.89950,0.07473
5908.82797,0.01938
5910.75644,-0.00462
5912.68491,0.00430
5914.61338,0.01761
5916.54185,0.01146
5918.47032,0.02313
5920.39878,0.07251
5922.32725,0.09996
5924.25572,0.07708
5926.18419,0.05944
5928.11266,0.06916
5930.04113,0.07085
5931.96960,0.07150
5933.89806,0.08872
5935.82653,0.07115
5937.75500,0.02002
5939.68347,0.01681
5941.61194,0.05287
5943.54041,0.05476
5945.46888,0.03568
5947.39734,0.05060
5949.32581,0.07817
5951.25428,0.08497
5953.18275,0.10740
5955.11122,0.13619
5957.03969,0.11106
5958.96816,0.05626
5960.89663,0.04234
5962.82509,0.06927
5964.75356,0.12227
5966.68203,0.18128
5968.61050,0.19870
5970.53897,0.16547
5972.46744,0.11757
5974.39591,0.09348
5976.32437,0.07509
5978.25284,0.04761
5980.18131,0.04125
5982.10978,0.04927
5984.03825,0.06244
5985.96672,0.08696
5987.89519,0.10618
5989.82366,0.12104
5991.75212,0.11841
5993.68059,0.07036
5995.60906,0.01573
5997.53753,0.01353
5999.46600,0.04654
6001.39447,0.07096
6003.32294,0.08724
6005.25140,0.09988
6007.17987,0.08144
6009.10834,0.06200
6011.03681,0.07039
6012.96528,0.07140
6014.89375,0.07252
6016.82222,0.09161
6018.75069,0.09218
6020.67915,0.06492
6022.60762,0.05156
6024.53609,0.06270
6026.46456,0.08942
6028.39303,0.11832
6030.32150,0.09633
6032.24997,0.03281
6034.17843,0.00080
6036.10690,-0.01006
6038.03537,-0.03812
6039.96384,-0.05209
6041.89231,-0.01803
6043.82078,0.05115
6045.74925,0.11857
6047.67772,0.16799
6049.60618,0.16312
6051.53465,0.09277
6053.46312,0.04029
6055.39159,0.05887
6057.32006,0.09464
6059.24853,0.07857
6061.17700,0.04324
6063.10546,0.08830
6065.03393,0.18251
6066.96240,0.22550
6068.89087,0.22255
6070.81934,0.19686
6072.74781,0.15635
6074.67628,0.13227
6076.60475,0.12823
6078.53321,0.11050
6080.46168,0.08905
6082.39015,0.08943
6084.31862,0.08485
6086.24709,0.04399
6088.17556,0.00071
6090.10403,-0.00153
6092.03249,0.03632
6093.96096,0.11718
6095.88943,0.20189
6097.81790,0.22050
6099.74637,0.15245
6101.67484,0.07441
6103.60331,0.10182
6105.53177,0.15463
6107.46024,0.11167
6109.38871,0.06553
6111.31718,0.09939
6113.24565,0.15010
6115.17412,0.16556
6117.10259,0.15465
6119.03106,0.15500
6120.95952,0.18001
6122.88799,0.18888
6124.81646,0.16288
6126.74493,0.14397
6128.67340,0.12505
6130.60187,0.07485
6132.53034,0.04426
6134.45880,0.05164
6136.38727,0.06052
6138.31574,0.04788
6140.24421,0.00554
6142.17268,-0.02930
6144.10115,0.01387
6146.02962,0.09529
6147.95809,0.10991
6149.88655,0.07509
6151.81502,0.07245
6153.74349,0.08040
6155.67196,0.04830
6157.60043,0.01279
6159.52890,0.02433
6161.45737,0.08247
6163.38583,0.12749
6165.31430,0.11994
6167.24277,0.10579
6169.17124,0.09881
6171.09971,0.06335
6173.02818,0.02444
6174.95665,0.03829
6176.88512,0.07750
6178.81358,0.05847
6180.74205,-0.00111
6182.67052,-0.02957
6184.59899,-0.03177
6186.52746,-0.02826
6188.45593,-0.00974
6190.38440,0.03374
6192.31286,0.06865
6194.24133,0.05439
6196.16980,0.03057
6198.09827,0.05127
6200.02674,0.08619
6201.95521,0.08836
6203.88368,0.05752
6205.81215,0.01177
6207.74061,-0.01581
6209.66908,0.00629
6211.59755,0.05664
6213.52602,0.08702
6215.45449,0.04704
6217.38296,-0.05729
6219.31143,-0.11242
6221.23989,-0.08195
6223.16836,-0.03563
6225.09683,-0.01486
6227.02530,-0.00062
6228.95377,0.00031
6230.88224,-0.03414
6232.81071,-0.04197
6234.73918,0.01987
6236.66764,0.07856
6238.59611,0.09338
6240.52458,0.08439
6242.45305,0.07633
6244.38152,0.06726
6246.30999,0.04286
6248.23846,0.05326
6250.16692,0.11187
6252.09539,0.10517
6254.02386,0.04088
6255.95233,0.02999
6257.88080,0.03321
6259.80927,-0.00516
6261.73774,0.00020
6263.66621,0.09320
6265.59467,0.18753
6267.52314,0.22589
6269.45161,0.22728
6271.38008,0.21262
6273.30855,0.20863
6275.23702,0.17228
6277.16549,0.08324
6279.09395,0.05729
6281.02242,0.10323
6282.95089,0.12450
6284.87936,0.09520
6286.80783,0.07260
6288.73630,0.07856
6290.66477,0.05032
6292.59323,-0.00383
6294.52170,-0.00750
6296.45017,0.03151
6298.37864,0.04502
6300.30711,0.01569
6302.23558,0.01103
6304.16405,0.03042
6306.09252,0.05214
6308.02098,0.10843
6309.94945,0.13422
6311.87792,0.10791
6313.80639,0.09375
6315.73486,0.08981
6317.66333,0.08686
6319.59180,0.06488
6321.52026,0.02289
6323.44873,0.02272
6325.37720,0.07747
6327.30567,0.13747
6329.23414,0.14863
6331.16261,0.14271
6333.09108,0.17796
6335.01955,0.19284
6336.94801,0.17406
6338.87648,0.19789
6340.80495,0.22788
6342.73342,0.17949
6344.66189,0.08832
6346.59036,0.01602
6348.51883,-0.05407
6350.44729,-0.10795
6352.37576,-0.09140
6354.30423,-0.03542
6356.23270,-0.01098
6358.16117,-0.03894
6360.08964,-0.05944
6362.01811,-0.02529
6363.94658,0.03141
6365.87504,0.06105
6367.80351,0.05864
6369.73198,0.03120
6371.66045,0.02595
6373.58892,0.12086
6375.51739,0.19433
6377.44586,0.14478
6379.37432,0.07059
6381.30279,0.04614
6383.23126,0.07192
6385.15973,0.11240
6387.08820,0.14091
6389.01667,0.15356
6390.94514,0.15701
6392.87361,0.16725
6394.80207,0.14712
6396.73054,0.09145
6398.65901,0.06585
6400.58748,0.07022
6402.51595,0.06011
6404.44442,0.08419
6406.37289,0.14761
6408.30135,0.16223
6410.22982,0.18051
6412.15829,0.23550
6414.08676,0.22292
6416.01523,0.17375
6417.94370,0.17370
6419.87217,0.19082
6421.80064,0.16641
6423.72910,0.08324
6425.65757,-0.02588
6427.58604,-0.08376
6429.51451,-0.06543
6431.44298,-0.01859
6433.37145,0.00359
6435.29992,0.02778
6437.22838,0.06242
6439.15685,0.05144
6441.08532,0.02991
6443.01379,0.06922
6444.94226,0.09228
6446.87073,0.03312
6448.79920,0.01899
6450.72766,0.11356
6452.65613,0.17653
6454.58460,0.13433
6456.51307,0.07129
6458.44154,0.05504
6460.37001,0.07628
6462.29848,0.10633
6464.22695,0.11763
6466.15541,0.11431
6468.08388,0.09890
6470.01235,0.07798
6471.94082,0.09090
6473.86929,0.10308
6475.79776,0.05269
6477.72623,-0.01077
6479.65469,0.00684
6481.58316,0.07133
6483.51163,0.07591
6485.44010,0.02814
6487.36857,0.00495
6489.29704,0.04564
6491.22551,0.12354
6493.15398,0.15677
6495.08244,0.11879
6497.01091,0.08513
6498.93938,0.07960
6500.86785,0.05769
6502.79632,0.05237
6504.72479,0.12058
6506.65326,0.19241
6508.58172,0.16578
6510.51019,0.06595
6512.43866,-0.01013
6514.36713,-0.04411
6516.29560,-0.04825
6518.22407,-0.01952
6520.15254,0.01833
6522.08101,0.07625
6524.00947,0.15459
6525.93794,0.14814
6527.86641,0.05946
6529.79488,0.01446
6531.72335,0.03295
6533.65182,0.09177
6535.58029,0.14952
6537.50875,0.13174
6539.43722,0.05675
6541.36569,0.03068
6543.29416,0.06329
6545.22263,0.08615
6547.15110,0.10508
6549.07957,0.10727
6551.00804,0.07108
6552.93650,0.07805
6554.86497,0.14969
6556.79344,0.21270
6558.72191,0.22261
6560.65038,0.17162
6562.57885,0.10964
6564.50732,0.08357
6566.43578,0.05810
6568.36425,0.06504
6570.29272,0.14534
6572.22119,0.19226
6574.14966,0.17349
6576.07813,0.12329
6578.00660,0.05644
6579.93507,0.06631
6581.86353,0.10156
6583.79200,0.04796
6585.72047,0.01821
6587.64894,0.06434
6589.57741,0.12356
6591.50588,0.18670
6593.43435,0.24055
6595.36281,0.23021
6597.29128,0.11273
6599.21975,-0.07343
6601.14822,-0.17939
6603.07669,-0.14378
6605.00516,-0.09917
6606.93363,-0.06763
6608.86210,0.04341
6610.79056,0.19346
6612.71903,0.20020
6614.64750,0.06530
6616.57597,-0.02889
6618.50444,-0.03785
6620.43291,-0.00930
6622.36138,-0.02719
6624.28984,-0.11664
6626.21831,-0.11140
6628.14678,0.04314
6630.07525,0.15308
6632.00372,0.10784
6633.93219,0.07463
6635.86066,0.12390
6637.78912,0.11146
6639.71759,0.02213
6641.64606,-0.04837
6643.57453,-0.03329
6645.50300,0.06314
6647.43147,0.13885
6649.35994,0.13498
6651.28841,0.07509
6653.21687,-0.02000
6655.14534,-0.09688
6657.07381,-0.08719
6659.00228,-0.03207
6660.93075,0.03161
6662.85922,0.08703
6664.78769,0.07975
6666.71615,0.06563
6668.64462,0.07863
6670.57309,0.00972
6672.50156,-0.10866
6674.43003,-0.10242
6676.35850,-0.02241
6678.28697,0.01966
6680.21544,0.07641
6682.14390,0.17140
6684.07237,0.21787
6686.00084,0.20938
6687.92931,0.16497
6689.85778,0.09108
6691.78625,0.04513
6693.71472,-0.00766
6695.64318,-0.07653
6697.57165,-0.08195
6699.50012,-0.02533
6701.42859,0.02044
6703.35706,0.04459
6705.28553,0.07148
6707.21400,0.09944
6709.14247,0.09922
6711.07093,0.07346
6712.99940,0.08145
6714.92787,0.11171
6716.85634,0.10399
6718.78481,0.05124
6720.71328,0.01177
6722.64175,0.05273
6724.57021,0.08556
6726.49868,0.07089
6728.42715,0.10819
6730.35562,0.16823
6732.28409,0.17640
6734.21256,0.21122
6736.14103,0.28104
6738.06950,0.26914
6739.99796,0.17788
6741.92643,0.09106
6743.85490,0.05698
6745.78337,0.06554
6747.71184,0.09175
6749.64031,0.10112
6751.56878,0.07315
6753.49724,0.03671
6755.42571,0.00287
6757.35418,-0.03098
6759.28265,-0.00887
6761.21112,0.09444
6763.13959,0.16153
6765.06806,0.15649
6766.99653,0.13917
6768.92499,0.14002
6770.85346,0.16150
6772.78193,0.16070
6774.71040,0.17713
6776.63887,0.23818
6778.56734,0.19133
6780.49581,0.08988
6782.42427,0.08771
6784.35274,0.09162
6786.28121,0.04110
6788.20968,0.05029
6790.13815,0.10370
6792.06662,0.07503
6793.99509,0.00976
6795.92355,-0.04211
6797.85202,-0.07881
6799.78049,-0.00575
6801.70896,0.09319
6803.63743,0.05014
6805.56590,-0.00557
6807.49437,0.01158
6809.42284,0.04724
6811.35130,0.06329
6813.27977,0.01140
6815.20824,-0.03701
6817.13671,0.00943
6819.06518,0.07095
6820.99365,0.05568
6822.92212,-0.02817
6824.85058,-0.11212
6826.77905,-0.13941
6828.70752,-0.03344
6830.63599,0.12426
6832.56446,0.11815
6834.49293,0.04597
6836.42140,0.05732
6838.34987,0.04792
6840.27833,0.00668
6842.20680,0.00428
6844.13527,0.03451
6846.06374,0.10108
6847.99221,0.11600
6849.92068,0.03015
6851.84915,-0.01059
6853.77761,0.04176
6855.70608,0.12132
6857.63455,0.11962
6859.56302,0.05210
6861.49149,0.05148
6863.41996,0.14417
6865.34843,0.20021
6867.27690,0.17702
6869.20536,0.13740
6871.13383,0.12115
6873.06230,0.16280
6874.99077,0.21196
6876.91924,0.20613
6878.84771,0.19473
6880.77618,0.18637
6882.70464,0.12089
6884.63311,0.07742
6886.56158,0.12312
6888.49005,0.15874
6890.41852,0.13598
6892.34699,0.11859
6894.27546,0.13632
6896.20393,0.13400
6898.13239,0.08656
6900.06086,0.04461
6901.98933,-0.00109
6903.91780,0.00947
6905.84627,0.16761
6907.77474,0.35996
6909.70321,0.40277
6911.63167,0.27636
6913.56014,0.14698
6915.48861,0.09529
6917.41708,0.09074
6919.34555,0.14165
6921.27402,0.12021
6923.20249,0.02396
6925.13096,0.00607
6927.05942,0.05651
6928.98789,0.12200
6930.91636,0.17932
6932.84483,0.17207
6934.77330,0.10454
6936.70177,0.04052
6938.63024,-0.01122
6940.55870,-0.04014
6942.48717,0.02328
6944.41564,0.16091
6946.34411,0.25469
6948.27258,0.16384
6950.20105,-0.03802
6952.12952,-0.12677
6954.05799,-0.03327
6955.98645,0.10919
6957.91492,0.12756
6959.84339,0.08758
6961.77186,0.08046
6963.70033,0.04063
6965.62880,-0.02783
6967.55727,-0.06196
6969.48573,-0.12157
6971.41420,-0.17082
6973.34267,-0.00550
6975.27114,0.22908
6977.19961,0.25772
6979.12808,0.17163
6981.05655,0.16046
6982.98501,0.29958
6984.91348,0.36744
6986.84195,0.17784
6988.77042,-0.05568
6990.69889,-0.09465
6992.62736,-0.03079
6994.55583,0.01992
6996.48430,0.07314
6998.41276,0.04174
7000.34123,-0.12910
7002.26970,-0.20621
7004.19817,-0.09098
7006.12664,0.02345
7008.05511,0.03476
7009.98358,0.04250
7011.91204,0.06485
7013.84051,0.01584
7015.76898,-0.03758
7017.69745,0.02995
7019.62592,0.08185
7021.55439,0.06638
7023.48286,0.13006
7025.41133,0.19172
7027.33979,0.16381
7029.26826,0.16371
7031.19673,0.17050
7033.12520,0.10940
7035.05367,0.06851
7036.98214,0.12687
7038.91061,0.23286
7040.83907,0.28977
7042.76754,0.20565
7044.69601,0.11756
7046.62448,0.23264
7048.55295,0.38290
7050.48142,0.29206
7052.40989,0.06242
7054.33836,-0.05943
7056.26682,-0.05233
7058.19529,-0.02423
7060.12376,-0.01926
7062.05223,-0.01701
7063.98070,0.05020
7065.90917,0.11968
7067.83764,0.08842
7069.76610,0.02819
7071.69457,-0.03773
7073.62304,-0.12761
7075.55151,-0.12549
7077.47998,-0.11006
7079.40845,-0.19438
7081.33692,-0.20572
7083.26539,-0.12012
7085.19385,-0.14244
7087.12232,-0.14219
7089.05079,0.03655
7090.97926,0.20875
7092.90773,0.18637
7094.83620,0.04666
7096.76467,-0.10044
7098.69313,-0.18879
7100.62160,-0.05188
7102.55007,0.21252
7104.47854,0.34764
7106.40701,0.28185
7108.33548,0.17361
7110.26395,0.11369
7112.19242,0.05451
7114.12088,0.01730
7116.04935,0.11218
7117.97782,0.25122
7119.90629,0.21982
7121.83476,0.19045
7123.76323,0.23805
7125.69170,0.24252
7127.62016,0.21759
7129.54863,0.21665
7131.47710,0.24152
7133.40557,0.28682
7135.33404,0.29674
7137.26251,0.20451
7139.19098,0.04660
7141.11944,-0.03824
7143.04791,0.04571
7144.97638,0.27334
7146.90485,0.51017
7148.83332,0.57674
7150.76179,0.36229
7152.69026,-0.02980
7154.61873,-0.24055
7156.54719,-0.15196
7158.47566,0.02681
7160.40413,0.09873
7162.33260,0.00639
7164.26107,-0.06521
7166.18954,-0.00557
7168.11801,0.04946
7170.04647,0.03633
7171.97494,0.04262
7173.90341,0.03650
7175.83188,-0.02594
7177.76035,0.05418
7179.68882,0.26443
7181.61729,0.31995
7183.54576,0.18313
7185.47422,0.09285
7187.40269,0.09504
7189.33116,0.10672
7191.25963,0.07941
7193.18810,-0.01225
7195.11657,-0.12026
7197.04504,-0.18259
7198.97350,-0.09709
7200.90197,0.08870
7202.83044,0.20444
7204.75891,0.22140
7206.68738,0.10174
7208.61585,-0.12605
7210.54432,-0.19424
7212.47279,-0.00995
7214.40125,0.22130
7216.32972,0.35204
7218.25819,0.34908
7220.18666,0.25946
7222.11513,0.28987
7224.04360,0.46332
7225.97207,0.53141
7227.90053,0.33944
7229.82900,0.00211
7231.75747,-0.22647
7233.68594,-0.17557
7235.61441,-0.04308
7237.54288,0.08572
7239.47135,0.23382
7241.39982,0.32079
7243.32828,0.27883
7245.25675,0.22423
7247.18522,0.22271
7249.11369,0.18697
7251.04216,0.09974
7252.97063,0.06415
7254.89910,0.07656
7256.82756,0.06115
7258.75603,0.03642
7260.68450,0.01236
7262.61297,-0.03241
7264.54144,-0.13517
7266.46991,-0.20188
7268.39838,-0.11944
7270.32685,0.04715
7272.25531,0.01773
7274.18378,-0.18587
7276.11225,-0.11596
7278.04072,0.20967
7279.96919,0.38941
7281.89766,0.23398
7283.82613,0.12837
7285.75459,0.17407
7287.68306,0.29063
7289.61153,0.41869
7291.54000,0.39447
7293.46847,0.29843
7295.39694,0.26117
7297.32541,0.12089
7299.25387,-0.00103
7301.18234,0.05356
7303.11081,0.09668
7305.03928,0.04411
7306.96775,0.01778
7308.89622,0.02712
7310.82469,0.08529
7312.75316,0.14468
7314.68162,0.09350
7316.61009,-0.01654
7318.53856,-0.05114
7320.46703,-0.06061
7322.39550,-0.04227
7324.32397,0.02566
7326.25244,0.03563
7328.18090,0.04803
7330.10937,0.26237
7332.03784,0.40880
7333.96631,0.26832
7335.89478,0.08015
7337.82325,-0.02646
7339.75172,-0.07860
7341.68019,-0.09054
7343.60865,-0.02773
7345.53712,0.15854
7347.46559,0.36323
7349.39406,0.31583
7351.32253,0.03269
7353.25100,-0.10395
7355.17947,0.09481
7357.10793,0.54289
7359.03640,0.83810
7360.96487,0.60638
7362.89334,0.24351
7364.82181,0.13045
7366.75028,0.10297
7368.67875,-0.04823
7370.60722,-0.11716
7372.53568,-0.00524
7374.46415,0.08961
7376.39262,0.13757
7378.32109,0.18614
7380.24956,0.14266
7382.17803,0.03777
7384.10650,-0.08726
7386.03496,-0.21380
7387.96343,-0.18642
7389.89190,-0.02139
7391.82037,0.10489
7393.74884,0.17088
7395.67731,0.17880
7397.60578,0.11162
7399.53425,0.02656
7401.46271,-0.00643
7403.39118,0.10748
7405.31965,0.21376
7407.24812,0.18024
7409.17659,0.26353
7411.10506,0.38939
7413.03353,0.39644
7414.96199,0.45570
7416.89046,0.59743
7418.81893,0.58759
7420.74740,0.42904
7422.67587,0.32595
7424.60434,0.22493
7426.53281,0.11700
7428.46128,-0.01688
7430.38974,-0.15830
7432.31821,-0.13941
7434.24668,-0.07259
7436.17515,-0.07940
7438.10362,-0.09919
7440.03209,-0.10509
7441.96056,-0.05837
7443.88902,-0.00877
7445.81749,0.06578
7447.74596,0.25875
7449.67443,0.38954
7451.60290,0.28249
7453.53137,0.11656
7455.45984,0.04510
7457.38831,0.04410
7459.31677,0.10391
7461.24524,0.11705
7463.17371,-0.00288
7465.10218,-0.13548
7467.03065,-0.21364
7468.95912,-0.30166
7470.88759,-0.39689
7472.81605,-0.33651
7474.74452,-0.05677
7476.67299,0.32130
7478.60146,0.56405
7480.52993,0.50675
7482.45840,0.27655
7484.38687,0.08698
7486.31533,0.02260
7488.24380,0.06198
7490.17227,0.09605
7492.10074,0.06693
7494.02921,-0.00473
7495.95768,-0.12870
7497.88615,-0.23821
