399.19301,0.02044
401.12148,-0.08590
403.04995,-0.26982
404.97842,-0.24239
406.90689,-0.12982
408.83536,-0.04449
410.76382,-0.09043
412.69229,-0.24765
414.62076,-0.26625
416.54923,-0.12055
418.47770,0.04796
420.40617,0.04459
422.33464,-0.09036
424.26311,-0.14113
426.19157,-0.02667
428.12004,0.07769
430.04851,0.03685
431.97698,-0.04689
433.90545,-0.04540
435.83392,0.02935
437.76239,0.11551
439.69085,0.13475
441.61932,0.10400
443.54779,0.10976
445.47626,0.10011
447.40473,0.01878
449.33320,-0.01069
451.26167,0.04000
453.19013,0.07232
455.11860,0.05398
457.04707,0.01969
458.97554,0.03140
460.90401,0.08383
462.83248,0.11234
464.76095,0.10746
466.68942,0.11606
468.61788,0.13792
470.54635,0.13078
472.47482,0.07850
474.40329,-0.00782
476.33176,-0.03510
478.26023,0.03187
480.18870,0.11381
482.11716,0.13225
484.04563,0.08583
485.97410,0.05678
487.90257,0.08287
489.83104,0.10435
491.75951,0.08038
493.68798,0.02846
495.61645,0.00480
497.54491,0.07154
499.47338,0.16664
501.40185,0.19371
503.33032,0.16964
505.25879,0.12890
507.18726,0.08189
509.11573,0.08570
511.04419,0.12565
512.97266,0.13542
514.90113,0.09990
516.82960,0.06128
518.75807,0.05798
520.68654,0.06813
522.61501,0.07111
524.54348,0.07757
526.47194,0.09464
528.40041,0.09721
530.32888,0.08205
532.25735,0.07152
534.18582,0.06668
536.11429,0.06468
538.04276,0.07210
539.97122,0.07773
541.89969,0.07180
543.82816,0.06967
545.75663,0.07695
547.68510,0.08725
549.61357,0.10758
551.54204,0.18965
553.47051,0.29432
555.39897,0.26648
557.32744,0.13750
559.25591,0.06142
561.18438,0.05648
563.11285,0.07973
565.04132,0.10179
566.96979,0.11670
568.89825,0.11512
570.82672,0.10017
572.75519,0.10098
574.68366,0.11318
576.61213,0.10841
578.54060,0.09011
580.46907,0.08066
582.39754,0.08662
584.32600,0.09377
586.25447,0.08289
588.18294,0.06684
590.11141,0.06764
592.03988,0.08146
593.96835,0.10434
595.89682,0.11841
597.82528,0.09546
599.75375,0.05662
601.68222,0.05806
603.61069,0.10500
605.53916,0.14252
607.46763,0.13512
609.39610,0.10417
611.32456,0.08888
613.25303,0.09762
615.18150,0.10577
617.10997,0.09885
619.03844,0.08287
620.96691,0.06592
622.89538,0.06803
624.82385,0.08599
626.75231,0.09191
628.68078,0.09131
630.60925,0.10943
632.53772,0.13279
634.46619,0.12714
636.39466,0.10941
638.32313,0.10440
640.25159,0.10582
642.18006,0.11345
644.10853,0.12437
646.03700,0.12496
647.96547,0.11383
649.89394,0.10747
651.82241,0.10889
653.75088,0.10432
655.67934,0.09659
657.60781,0.09710
659.53628,0.09804
661.46475,0.08849
663.39322,0.07802
665.32169,0.07772
667.25016,0.10318
669.17862,0.14184
671.10709,0.12776
673.03556,0.09385
674.96403,0.08252
676.89250,0.10161
678.82097,0.12579
680.74944,0.12991
682.67791,0.11659
684.60637,0.11055
686.53484,0.11895
688.46331,0.12843
690.39178,0.12987
692.32025,0.12093
694.24872,0.10812
696.17719,0.10356
698.10565,0.11107
700.03412,0.11772
701.96259,0.11166
703.89106,0.10132
705.81953,0.10473
707.74800,0.13272
709.67647,0.18721
711.60494,0.22457
713.53340,0.19070
715.46187,0.12978
717.39034,0.10361
719.31881,0.10365
721.24728,0.11186
723.17575,0.11688
725.10422,0.11672
727.03268,0.11885
728.96115,0.12089
730.88962,0.11817
732.81809,0.11258
734.74656,0.10651
736.67503,0.10264
738.60350,0.10114
740.53197,0.09824
742.46043,0.09974
744.38890,0.10877
746.31737,0.11127
748.24584,0.10492
750.17431,0.10626
752.10278,0.11612
754.03125,0.11721
755.95971,0.10389
757.88818,0.09168
759.81665,0.09525
761.74512,0.10802
763.67359,0.11756
765.60206,0.11947
767.53053,0.11337
769.45900,0.10819
771.38746,0.11294
773.31593,0.12024
775.24440,0.12093
777.17287,0.11663
779.10134,0.11364
781.02981,0.11694
782.95828,0.12800
784.88674,0.13780
786.81521,0.13318
788.74368,0.12311
790.67215,0.12396
792.60062,0.13369
794.52909,0.14223
796.45756,0.14194
798.38602,0.13299
800.31449,0.12226
802.24296,0.11974
804.17143,0.12546
806.09990,0.12564
808.02837,0.11352
809.95684,0.10441
811.88531,0.11188
813.81377,0.12255
815.74224,0.12328
817.67071,0.12181
819.59918,0.12476
821.52765,0.12620
823.45612,0.12247
825.38459,0.12003
827.31305,0.12437
829.24152,0.13023
831.16999,0.12862
833.09846,0.12278
835.02693,0.12378
836.95540,0.13174
838.88387,0.13544
840.81234,0.12844
842.74080,0.11813
844.66927,0.11446
846.59774,0.12011
848.52621,0.12952
850.45468,0.12981
852.38315,0.11726
854.31162,0.10743
856.24008,0.11428
858.16855,0.12676
860.09702,0.12678
862.02549,0.11816
863.95396,0.11457
865.88243,0.10902
867.81090,0.07771
869.73937,0.04515
871.66783,0.06130
873.59630,0.09878
875.52477,0.11404
877.45324,0.12149
879.38171,0.13335
881.31018,0.13884
883.23865,0.13531
885.16711,0.13168
887.09558,0.13519
889.02405,0.14201
890.95252,0.14302
892.88099,0.13946
894.80946,0.13699
896.73793,0.13535
898.66640,0.13282
900.59486,0.12770
902.52333,0.12555
904.45180,0.13199
906.38027,0.13595
908.30874,0.12891
910.23721,0.12266
912.16568,0.12752
914.09414,0.13465
916.02261,0.13351
917.95108,0.12787
919.87955,0.12573
921.80802,0.13072
923.73649,0.14152
925.66496,0.14761
927.59343,0.14223
929.52189,0.13381
931.45036,0.13264
933.37883,0.13809
935.30730,0.14007
937.23577,0.13300
939.16424,0.12233
941.09271,0.11995
943.02117,0.13018
944.94964,0.13843
946.87811,0.13291
948.80658,0.12056
950.73505,0.11591
952.66352,0.12608
954.59199,0.14021
956.52045,0.14329
958.44892,0.13720
960.37739,0.13391
962.30586,0.13825
964.23433,0.14368
966.16280,0.14432
968.09127,0.14027
970.01974,0.13574
971.94820,0.13703
973.87667,0.13907
975.80514,0.13310
977.73361,0.12729
979.66208,0.13015
981.59055,0.13488
983.51902,0.13476
985.44748,0.13331
987.37595,0.13515
989.30442,0.13921
991.23289,0.14334
993.16136,0.14560
995.08983,0.14494
997.01830,0.14231
998.94677,0.13872
1000.87523,0.13595
1002.80370,0.13261
1004.73217,0.12821
1006.66064,0.12992
1008.58911,0.13887
1010.51758,0.14641
1012.44605,0.14847
1014.37451,0.14755
1016.30298,0.14729
1018.23145,0.14868
1020.15992,0.14732
1022.08839,0.14034
1024.01686,0.14022
1025.94533,0.15937
1027.87380,0.18016
1029.80226,0.17748
1031.73073,0.15756
1033.65920,0.14418
1035.58767,0.14699
1037.51614,0.15630
1039.44461,0.15718
1041.37308,0.14839
1043.30154,0.14381
1045.23001,0.14830
1047.15848,0.15308
1049.08695,0.15455
1051.01542,0.15495
1052.94389,0.15283
1054.87236,0.14749
1056.80083,0.14661
1058.72929,0.15063
1060.65776,0.15120
1062.58623,0.15089
1064.51470,0.16012
1066.44317,0.17783
1068.37164,0.18515
1070.30011,0.17443
1072.22857,0.15983
1074.15704,0.15186
1076.08551,0.15383
1078.01398,0.16281
1079.94245,0.16618
1081.87092,0.15946
1083.79939,0.15108
1085.72786,0.14758
1087.65632,0.14877
1089.58479,0.15328
1091.51326,0.15973
1093.44173,0.16325
1095.37020,0.16064
1097.29867,0.15589
1099.22714,0.15276
1101.15560,0.14960
1103.08407,0.14833
1105.01254,0.15193
1106.94101,0.15174
1108.86948,0.14520
1110.79795,0.14485
1112.72642,0.15409
1114.65489,0.16090
1116.58335,0.15457
1118.51182,0.14283
1120.44029,0.14144
1122.36876,0.15051
1124.29723,0.15904
1126.22570,0.15908
1128.15417,0.15179
1130.08263,0.14689
1132.01110,0.14999
1133.93957,0.15651
1135.86804,0.15916
1137.79651,0.15501
1139.72498,0.14931
1141.65345,0.15047
1143.58191,0.15772
1145.51038,0.16235
1147.43885,0.16110
1149.36732,0.15765
1151.29579,0.15534
1153.22426,0.15572
1155.15273,0.15845
1157.08120,0.16071
1159.00966,0.16064
1160.93813,0.15838
1162.86660,0.15534
1164.79507,0.15543
1166.72354,0.15936
1168.65201,0.16241
1170.58048,0.16266
1172.50894,0.16060
1174.43741,0.15543
1176.36588,0.15211
1178.29435,0.15665
1180.22282,0.16240
1182.15129,0.16288
1184.07976,0.16196
1186.00823,0.16025
1187.93669,0.15812
1189.86516,0.15965
1191.79363,0.16147
1193.72210,0.15909
1195.65057,0.15822
1197.57904,0.16307
1199.50751,0.16777
1201.43597,0.16703
1203.36444,0.16227
1205.29291,0.15890
1207.22138,0.16147
1209.14985,0.16641
1211.07832,0.16674
1213.00679,0.16216
1214.93526,0.15780
1216.86372,0.15801
1218.79219,0.16154
1220.72066,0.16215
1222.64913,0.15859
1224.57760,0.15870
1226.50607,0.16646
1228.43454,0.17608
1230.36300,0.18049
1232.29147,0.17554
1234.21994,0.16741
1236.14841,0.16724
1238.07688,0.17193
1240.00535,0.17060
1241.93382,0.16368
1243.86229,0.16018
1245.79075,0.16205
1247.71922,0.16482
1249.64769,0.16707
1251.57616,0.16829
1253.50463,0.16627
1255.43310,0.16348
1257.36157,0.16440
1259.29003,0.16626
1261.21850,0.16506
1263.14697,0.16248
1265.07544,0.16240
1267.00391,0.16644
1268.93238,0.17254
1270.86085,0.17693
1272.78932,0.17678
1274.71778,0.17353
1276.64625,0.17121
1278.57472,0.17208
1280.50319,0.17395
1282.43166,0.17430
1284.36013,0.17430
1286.28860,0.17408
1288.21706,0.17383
1290.14553,0.17466
1292.07400,0.17572
1294.00247,0.17523
1295.93094,0.17179
1297.85941,0.16847
1299.78788,0.16909
1301.71634,0.17088
1303.64481,0.17138
1305.57328,0.17262
1307.50175,0.17421
1309.43022,0.17415
1311.35869,0.17414
1313.28716,0.17507
1315.21563,0.17430
1317.14409,0.17309
1319.07256,0.17374
1321.00103,0.17473
1322.92950,0.17555
1324.85797,0.17519
1326.78644,0.17210
1328.71491,0.17000
1330.64337,0.17174
1332.57184,0.17258
1334.50031,0.17070
1336.42878,0.17160
1338.35725,0.17553
1340.28572,0.17604
1342.21419,0.17548
1344.14266,0.17554
1346.07112,0.17222
1347.99959,0.17137
1349.92806,0.17522
1351.85653,0.17614
1353.78500,0.17359
1355.71347,0.17192
1357.64194,0.17380
1359.57040,0.17787
1361.49887,0.17953
1363.42734,0.17606
1365.35581,0.17430
1367.28428,0.17843
1369.21275,0.18327
1371.14122,0.18623
1373.06969,0.18747
1374.99815,0.18585
1376.92662,0.18329
1378.85509,0.18180
1380.78356,0.18130
1382.71203,0.18036
1384.64050,0.17967
1386.56897,0.18227
1388.49743,0.18564
1390.42590,0.18549
1392.35437,0.18402
1394.28284,0.18401
1396.21131,0.18713
1398.13978,0.19042
1400.06825,0.18898
1401.99672,0.18500
1403.92518,0.18403
1405.85365,0.18615
1407.78212,0.18784
1409.71059,0.18845
1411.63906,0.18609
1413.56753,0.18206
1415.49600,0.18270
1417.42446,0.18938
1419.35293,0.19345
1421.28140,0.18867
1423.20987,0.18363
1425.13834,0.18201
1427.06681,0.18293
1428.99528,0.18499
1430.92375,0.18639
1432.85221,0.18858
1434.78068,0.19244
1436.70915,0.19258
1438.63762,0.18800
1440.56609,0.18503
1442.49456,0.18445
1444.42303,0.18646
1446.35149,0.18962
1448.27996,0.19088
1450.20843,0.19121
1452.13690,0.19483
1454.06537,0.20441
1455.99384,0.21764
1457.92231,0.21363
1459.85077,0.19460
1461.77924,0.18649
1463.70771,0.18856
1465.63618,0.19169
1467.56465,0.19030
1469.49312,0.19234
1471.42159,0.20246
1473.35006,0.21070
1475.27852,0.20560
1477.20699,0.19661
1479.13546,0.19193
1481.06393,0.19208
1482.99240,0.19249
1484.92087,0.19221
1486.84934,0.19456
1488.77780,0.19845
1490.70627,0.19822
1492.63474,0.19717
1494.56321,0.20065
1496.49168,0.20577
1498.42015,0.19885
1500.34862,0.18314
1502.27709,0.17779
1504.20555,0.19136
1506.13402,0.22747
1508.06249,0.24174
1509.99096,0.21926
1511.91943,0.20521
1513.84790,0.20449
1515.77637,0.20948
1517.70483,0.21142
1519.63330,0.21502
1521.56177,0.22156
1523.49024,0.21781
1525.41871,0.20992
1527.34718,0.20398
1529.27565,0.20057
1531.20412,0.20359
1533.13258,0.21037
1535.06105,0.21110
1536.98952,0.21422
1538.91799,0.23094
1540.84646,0.24158
1542.77493,0.22564
1544.70340,0.21311
1546.63186,0.20775
1548.56033,0.20625
1550.48880,0.20726
1552.41727,0.21187
1554.34574,0.21948
1556.27421,0.22869
1558.20268,0.24128
1560.13115,0.23158
1562.05961,0.21367
1563.98808,0.20696
1565.91655,0.20630
1567.84502,0.20871
1569.77349,0.20833
1571.70196,0.20248
1573.63043,0.20170
1575.55889,0.20556
1577.48736,0.20285
1579.41583,0.19852
1581.34430,0.19762
1583.27277,0.19471
1585.20124,0.18984
1587.12971,0.18854
1589.05818,0.19085
1590.98664,0.19320
1592.91511,0.19453
1594.84358,0.19589
1596.77205,0.19629
1598.70052,0.19373
1600.62899,0.19095
1602.55746,0.19241
1604.48592,0.19710
1606.41439,0.20018
1608.34286,0.19929
1610.27133,0.19674
1612.19980,0.19696
1614.12827,0.20115
1616.05674,0.20580
1617.98521,0.20404
1619.91367,0.20200
1621.84214,0.20705
1623.77061,0.21226
1625.69908,0.20915
1627.62755,0.20324
1629.55602,0.19875
1631.48449,0.20089
1633.41295,0.21464
1635.34142,0.23315
1637.26989,0.22702
1639.19836,0.20993
1641.12683,0.20350
1643.05530,0.20842
1644.98377,0.22117
1646.91223,0.23097
1648.84070,0.22704
1650.76917,0.22647
1652.69764,0.23262
1654.62611,0.22255
1656.55458,0.21515
1658.48305,0.22505
1660.41152,0.24374
1662.33998,0.24623
1664.26845,0.22292
1666.19692,0.20720
1668.12539,0.20848
1670.05386,0.21348
1671.98233,0.21546
1673.91080,0.21783
1675.83926,0.21530
1677.76773,0.21010
1679.69620,0.21125
1681.62467,0.22093
1683.55314,0.23482
1685.48161,0.22953
1687.41008,0.21414
1689.33855,0.20545
1691.26701,0.20220
1693.19548,0.20488
1695.12395,0.21489
1697.05242,0.22907
1698.98089,0.23807
1700.90936,0.23090
1702.83783,0.21816
1704.76629,0.21315
1706.69476,0.20996
1708.62323,0.20643
1710.55170,0.20631
1712.48017,0.20966
1714.40864,0.21501
1716.33711,0.21772
1718.26558,0.21045
1720.19404,0.20266
1722.12251,0.20056
1724.05098,0.20005
1725.97945,0.19960
1727.90792,0.20263
1729.83639,0.20936
1731.76486,0.21618
1733.69332,0.21690
1735.62179,0.20895
1737.55026,0.20510
1739.47873,0.20605
1741.40720,0.20707
1743.33567,0.20808
1745.26414,0.21074
1747.19261,0.21543
1749.12107,0.21888
1751.04954,0.21212
1752.97801,0.20079
1754.90648,0.19668
1756.83495,0.19787
1758.76342,0.19958
1760.69189,0.20288
1762.62035,0.20490
1764.54882,0.20210
1766.47729,0.20054
1768.40576,0.20383
1770.33423,0.21067
1772.26270,0.21474
1774.19117,0.20910
1776.11964,0.20263
1778.04810,0.20177
1779.97657,0.20272
1781.90504,0.20059
1783.83351,0.19812
1785.76198,0.19720
1787.69045,0.19829
1789.61892,0.20384
1791.54738,0.21044
1793.47585,0.20949
1795.40432,0.20412
1797.33279,0.20128
1799.26126,0.20195
1801.18973,0.20234
1803.11820,0.19895
1805.04666,0.19614
1806.97513,0.19706
1808.90360,0.19937
1810.83207,0.20086
1812.76054,0.19960
1814.68901,0.19319
1816.61748,0.18386
1818.54595,0.18257
1820.47441,0.19068
1822.40288,0.19561
1824.33135,0.19594
1826.25982,0.19815
1828.18829,0.20253
1830.11676,0.20471
1832.04523,0.20199
1833.97369,0.20067
1835.90216,0.20288
1837.83063,0.20328
1839.75910,0.20097
1841.68757,0.20160
1843.61604,0.20534
1845.54451,0.20559
1847.47298,0.20224
1849.40144,0.19893
1851.32991,0.19737
1853.25838,0.19713
1855.18685,0.19590
1857.11532,0.19424
1859.04379,0.19477
1860.97226,0.19693
1862.90072,0.19778
1864.82919,0.19920
1866.75766,0.20436
1868.68613,0.20771
1870.61460,0.20292
1872.54307,0.19640
1874.47154,0.19333
1876.40001,0.19317
1878.32847,0.19353
1880.25694,0.19375
1882.18541,0.19491
1884.11388,0.19620
1886.04235,0.19698
1887.97082,0.19896
1889.89929,0.20018
1891.82775,0.19854
1893.75622,0.19770
1895.68469,0.19764
1897.61316,0.19596
1899.54163,0.19462
1901.47010,0.19465
1903.39857,0.19427
1905.32704,0.19432
1907.25550,0.19663
1909.18397,0.19938
1911.11244,0.19980
1913.04091,0.19895
1914.96938,0.19974
1916.89785,0.20173
1918.82632,0.20224
1920.75478,0.20202
1922.68325,0.20149
1924.61172,0.19881
1926.54019,0.19630
1928.46866,0.19604
1930.39713,0.19571
1932.32560,0.19503
1934.25407,0.19594
1936.18253,0.19741
1938.11100,0.19887
1940.03947,0.20122
1941.96794,0.20307
1943.89641,0.20218
1945.82488,0.19923
1947.75335,0.19676
1949.68181,0.19681
1951.61028,0.19830
1953.53875,0.19808
1955.46722,0.19680
1957.39569,0.19622
1959.32416,0.19599
1961.25263,0.19667
1963.18110,0.19889
1965.10956,0.20214
1967.03803,0.20439
1968.96650,0.20413
1970.89497,0.20311
1972.82344,0.20289
1974.75191,0.20287
1976.68038,0.20260
1978.60884,0.20271
1980.53731,0.20137
1982.46578,0.19811
1984.39425,0.19620
1986.32272,0.19508
1988.25119,0.19402
1990.17966,0.19552
1992.10812,0.19873
1994.03659,0.20056
1995.96506,0.20051
1997.89353,0.19913
1999.82200,0.19705
2001.75047,0.19561
2003.67894,0.19576
2005.60741,0.19725
2007.53587,0.19754
2009.46434,0.19639
2011.39281,0.19728
2013.32128,0.20042
2015.24975,0.20368
2017.17822,0.20521
2019.10669,0.20369
2021.03515,0.20173
2022.96362,0.20172
2024.89209,0.20174
2026.82056,0.19944
2028.74903,0.19603
2030.67750,0.19520
2032.60597,0.19796
2034.53444,0.20082
2036.46290,0.20103
2038.39137,0.19929
2040.31984,0.19747
2042.24831,0.19656
2044.17678,0.19699
2046.10525,0.19873
2048.03372,0.19993
2049.96218,0.19970
2051.89065,0.19905
2053.81912,0.19859
2055.74759,0.19909
2057.67606,0.19993
2059.60453,0.20001
2061.53300,0.20088
2063.46147,0.20236
2065.38993,0.20197
2067.31840,0.20069
2069.24687,0.20016
2071.17534,0.20033
2073.10381,0.20092
2075.03228,0.20057
2076.96075,0.20051
2078.88921,0.20245
2080.81768,0.20334
2082.74615,0.20137
2084.67462,0.19906
2086.60309,0.19882
2088.53156,0.20053
2090.46003,0.20244
2092.38850,0.20343
2094.31696,0.20363
2096.24543,0.20396
2098.17390,0.20387
2100.10237,0.20232
2102.03084,0.20147
2103.95931,0.20208
2105.88778,0.20168
2107.81624,0.20069
2109.74471,0.20084
2111.67318,0.20077
2113.60165,0.20019
2115.53012,0.20101
2117.45859,0.20268
2119.38706,0.20343
2121.31553,0.20286
2123.24399,0.20186
2125.17246,0.20152
2127.10093,0.20239
2129.02940,0.20308
2130.95787,0.20170
2132.88634,0.20133
2134.81481,0.20437
2136.74327,0.20855
2138.67174,0.20964
2140.60021,0.20549
2142.52868,0.20213
2144.45715,0.20240
2146.38562,0.20138
2148.31409,0.19895
2150.24255,0.19800
2152.17102,0.19924
2154.09949,0.20131
2156.02796,0.20212
2157.95643,0.20177
2159.88490,0.20208
2161.81337,0.20334
2163.74184,0.20425
2165.67030,0.20386
2167.59877,0.20203
2169.52724,0.20057
2171.45571,0.20053
2173.38418,0.20049
2175.31265,0.20127
2177.24112,0.20321
2179.16958,0.20364
2181.09805,0.20206
2183.02652,0.19998
2184.95499,0.19827
2186.88346,0.19821
2188.81193,0.20012
2190.74040,0.20223
2192.66887,0.20301
2194.59733,0.20290
2196.52580,0.20305
2198.45427,0.20278
2200.38274,0.20096
2202.31121,0.19931
2204.23968,0.19998
2206.16815,0.20236
2208.09661,0.20457
2210.02508,0.20466
2211.95355,0.20290
2213.88202,0.20210
2215.81049,0.20251
2217.73896,0.20302
2219.66743,0.20328
2221.59590,0.20330
2223.52436,0.20432
2225.45283,0.20604
2227.38130,0.20681
2229.30977,0.20619
2231.23824,0.20398
2233.16671,0.20030
2235.09518,0.19765
2237.02364,0.19884
2238.95211,0.20211
2240.88058,0.20448
2242.80905,0.20548
2244.73752,0.20449
2246.66599,0.20303
2248.59446,0.20343
2250.52293,0.20363
2252.45139,0.20221
2254.37986,0.20146
2256.30833,0.20172
2258.23680,0.20141
2260.16527,0.20093
2262.09374,0.20054
2264.02221,0.20028
2265.95067,0.20223
2267.87914,0.20500
2269.80761,0.20476
2271.73608,0.20273
2273.66455,0.20230
2275.59302,0.20411
2277.52149,0.20612
2279.44996,0.20637
2281.37842,0.20486
2283.30689,0.20259
2285.23536,0.20062
2287.16383,0.19932
2289.09230,0.19852
2291.02077,0.19701
2292.94924,0.19274
2294.87770,0.18954
2296.80617,0.19354
2298.73464,0.19930
2300.66311,0.19862
2302.59158,0.19489
2304.52005,0.19367
2306.44852,0.19437
2308.37699,0.19523
2310.30545,0.19524
2312.23392,0.19243
2314.16239,0.18889
2316.09086,0.18933
2318.01933,0.19200
2319.94780,0.19270
2321.87627,0.19126
2323.80473,0.18950
2325.73320,0.18692
2327.66167,0.18471
2329.59014,0.18856
2331.51861,0.19431
2333.44708,0.19210
2335.37555,0.18552
2337.30401,0.18128
2339.23248,0.18067
2341.16095,0.18130
2343.08942,0.18099
2345.01789,0.18215
2346.94636,0.18690
2348.87483,0.19199
2350.80330,0.19511
2352.73176,0.19768
2354.66023,0.19987
2356.58870,0.19712
2358.51717,0.18725
2360.44564,0.17106
2362.37411,0.15959
2364.30258,0.16482
2366.23104,0.17638
2368.15951,0.18017
2370.08798,0.18181
2372.01645,0.18944
2373.94492,0.19837
2375.87339,0.20199
2377.80186,0.20147
2379.73033,0.19989
2381.65879,0.19968
2383.58726,0.20249
2385.51573,0.20528
2387.44420,0.20481
2389.37267,0.20258
2391.30114,0.20058
2393.22961,0.19877
2395.15807,0.19792
2397.08654,0.19967
2399.01501,0.20150
2400.94348,0.20039
2402.87195,0.19941
2404.80042,0.20161
2406.72889,0.20499
2408.65736,0.20693
2410.58582,0.20727
2412.51429,0.20617
2414.44276,0.20435
2416.37123,0.20291
2418.29970,0.20234
2420.22817,0.20376
2422.15664,0.20540
2424.08510,0.20489
2426.01357,0.20413
2427.94204,0.20495
2429.87051,0.20652
2431.79898,0.20642
2433.72745,0.20339
2435.65592,0.20042
2437.58439,0.20095
2439.51285,0.20345
2441.44132,0.20398
2443.36979,0.20212
2445.29826,0.20127
2447.22673,0.20417
2449.15520,0.20924
2451.08367,0.21485
2453.01213,0.21805
2454.94060,0.21371
2456.86907,0.20761
2458.79754,0.20681
2460.72601,0.20706
2462.65448,0.20605
2464.58295,0.20475
2466.51142,0.20376
2468.43988,0.20446
2470.36835,0.20493
2472.29682,0.20439
2474.22529,0.20514
2476.15376,0.20587
2478.08223,0.20523
2480.01070,0.20546
2481.93916,0.20603
2483.86763,0.20441
2485.79610,0.20161
2487.72457,0.20002
2489.65304,0.20075
2491.58151,0.20305
2493.50998,0.20526
2495.43844,0.20685
2497.36691,0.20731
2499.29538,0.20587
2501.22385,0.20429
2503.15232,0.20487
2505.08079,0.20662
2507.00926,0.20724
2508.93773,0.20587
2510.86619,0.20379
2512.79466,0.20311
2514.72313,0.20422
2516.65160,0.20630
2518.58007,0.20839
2520.50854,0.20946
2522.43701,0.20975
2524.36547,0.20981
2526.29394,0.20910
2528.22241,0.20876
2530.15088,0.20992
2532.07935,0.21063
2534.00782,0.20966
2535.93629,0.20794
2537.86476,0.20679
2539.79322,0.20627
2541.72169,0.20578
2543.65016,0.20599
2545.57863,0.20740
2547.50710,0.20986
2549.43557,0.21230
2551.36404,0.21296
2553.29250,0.21144
2555.22097,0.20923
2557.14944,0.20797
2559.07791,0.20767
2561.00638,0.20831
2562.93485,0.20965
2564.86332,0.20970
2566.79179,0.20824
2568.72025,0.20820
2570.64872,0.20955
2572.57719,0.20949
2574.50566,0.20827
2576.43413,0.20653
2578.36260,0.20479
2580.29107,0.20580
2582.21953,0.20917
2584.14800,0.21053
2586.07647,0.20865
2588.00494,0.20720
2589.93341,0.20855
2591.86188,0.21031
2593.79035,0.21004
2595.71882,0.20968
2597.64728,0.21090
2599.57575,0.21114
2601.50422,0.20931
2603.43269,0.20719
2605.36116,0.20625
2607.28963,0.20606
2609.21810,0.20293
2611.14656,0.19940
2613.07503,0.20317
2615.00350,0.20998
2616.93197,0.21138
2618.86044,0.20992
2620.78891,0.21095
2622.71738,0.21346
2624.64585,0.21400
2626.57431,0.21236
2628.50278,0.21115
2630.43125,0.20990
2632.35972,0.20619
2634.28819,0.20359
2636.21666,0.20575
2638.14513,0.20862
2640.07359,0.20938
2642.00206,0.20964
2643.93053,0.20992
2645.85900,0.21072
2647.78747,0.21266
2649.71594,0.21456
2651.64441,0.21495
2653.57288,0.21359
2655.50134,0.21326
2657.42981,0.21633
2659.35828,0.21874
2661.28675,0.21636
2663.21522,0.21270
2665.14369,0.21184
2667.07216,0.21206
2669.00062,0.21127
2670.92909,0.21075
2672.85756,0.21134
2674.78603,0.21175
2676.71450,0.21241
2678.64297,0.21404
2680.57144,0.21524
2682.49990,0.21560
2684.42837,0.21463
2686.35684,0.21251
2688.28531,0.21148
2690.21378,0.21200
2692.14225,0.21265
2694.07072,0.21240
2695.99919,0.21229
2697.92765,0.21365
2699.85612,0.21477
2701.78459,0.21556
2703.71306,0.21744
2705.64153,0.21753
2707.57000,0.21456
2709.49847,0.21214
2711.42693,0.21232
2713.35540,0.21427
2715.28387,0.21563
2717.21234,0.21493
2719.14081,0.21449
2721.06928,0.21595
2722.99775,0.21675
2724.92622,0.21591
2726.85468,0.21495
2728.78315,0.21427
2730.71162,0.21408
2732.64009,0.21593
2734.56856,0.21930
2736.49703,0.22043
2738.42550,0.21893
2740.35396,0.21773
2742.28243,0.21776
2744.21090,0.21863
2746.13937,0.21975
2748.06784,0.21954
2749.99631,0.21642
2751.92478,0.21351
2753.85325,0.21543
2755.78171,0.22028
2757.71018,0.22322
2759.63865,0.22253
2761.56712,0.22030
2763.49559,0.21984
2765.42406,0.22172
2767.35253,0.22280
2769.28099,0.22162
2771.20946,0.22118
2773.13793,0.22298
2775.06640,0.22433
2776.99487,0.22334
2778.92334,0.22237
2780.85181,0.22265
2782.78028,0.22172
2784.70874,0.22017
2786.63721,0.21999
2788.56568,0.22098
2790.49415,0.22244
2792.42262,0.22272
2794.35109,0.22188
2796.27956,0.22250
2798.20802,0.22342
2800.13649,0.22299
2802.06496,0.22362
2803.99343,0.22481
2805.92190,0.22519
2807.85037,0.22586
2809.77884,0.22647
2811.70731,0.22680
2813.63577,0.22719
2815.56424,0.22750
2817.49271,0.22795
2819.42118,0.22887
2821.34965,0.22934
2823.27812,0.22831
2825.20659,0.22695
2827.13505,0.22570
2829.06352,0.22485
2830.99199,0.22490
2832.92046,0.22541
2834.84893,0.22652
2836.77740,0.22687
2838.70587,0.22513
2840.63433,0.22242
2842.56280,0.21978
2844.49127,0.21868
2846.41974,0.22082
2848.34821,0.22543
2850.27668,0.22874
2852.20515,0.22860
2854.13362,0.22738
2856.06208,0.22675
2857.99055,0.22522
2859.91902,0.22304
2861.84749,0.22294
2863.77596,0.22482
2865.70443,0.22652
2867.63290,0.22684
2869.56136,0.22493
2871.48983,0.22275
2873.41830,0.22387
2875.34677,0.22746
2877.27524,0.22974
2879.20371,0.22914
2881.13218,0.22672
2883.06065,0.22484
2884.98911,0.22547
2886.91758,0.22647
2888.84605,0.22533
2890.77452,0.22396
2892.70299,0.22367
2894.63146,0.22289
2896.55993,0.22131
2898.48839,0.21999
2900.41686,0.21902
2902.34533,0.21989
2904.27380,0.22303
2906.20227,0.22527
2908.13074,0.22551
2910.05921,0.22498
2911.98768,0.22548
2913.91614,0.22886
2915.84461,0.23117
2917.77308,0.22780
2919.70155,0.22304
2921.63002,0.22428
2923.55849,0.23351
2925.48696,0.23747
2927.41542,0.22871
2929.34389,0.22501
2931.27236,0.22854
2933.20083,0.22598
2935.12930,0.22186
2937.05777,0.22237
2938.98624,0.22508
2940.91471,0.22585
2942.84317,0.22491
2944.77164,0.22658
2946.70011,0.22812
2948.62858,0.22751
2950.55705,0.22863
2952.48552,0.23094
2954.41399,0.23095
2956.34245,0.22813
2958.27092,0.22547
2960.19939,0.22563
2962.12786,0.22775
2964.05633,0.23000
2965.98480,0.23117
2967.91327,0.23082
2969.84174,0.23022
2971.77020,0.23062
2973.69867,0.23124
2975.62714,0.23074
2977.55561,0.22937
2979.48408,0.22899
2981.41255,0.22964
2983.34102,0.22907
2985.26948,0.22847
2987.19795,0.22931
2989.12642,0.23016
2991.05489,0.23105
2992.98336,0.23149
2994.91183,0.23131
2996.84030,0.23133
2998.76877,0.23104
3000.69723,0.23181
3002.62570,0.23492
3004.55417,0.23859
3006.48264,0.24048
3008.41111,0.24029
3010.33958,0.23772
3012.26805,0.23203
3014.19651,0.22696
3016.12498,0.22675
3018.05345,0.22941
3019.98192,0.23117
3021.91039,0.23270
3023.83886,0.23492
3025.76733,0.23538
3027.69579,0.23457
3029.62426,0.23511
3031.55273,0.23594
3033.48120,0.23587
3035.40967,0.23501
3037.33814,0.23294
3039.26661,0.23179
3041.19508,0.23220
3043.12354,0.23093
3045.05201,0.22934
3046.98048,0.23036
3048.90895,0.23193
3050.83742,0.23199
3052.76589,0.23082
3054.69436,0.23012
3056.62282,0.23147
3058.55129,0.23300
3060.47976,0.23338
3062.40823,0.23391
3064.33670,0.23479
3066.26517,0.23574
3068.19364,0.23519
3070.12211,0.23277
3072.05057,0.23236
3073.97904,0.23508
3075.90751,0.23602
3077.83598,0.23297
3079.76445,0.23363
3081.69292,0.24423
3083.62139,0.25401
3085.54985,0.24997
3087.47832,0.23842
3089.40679,0.23198
3091.33526,0.23078
3093.26373,0.22991
3095.19220,0.22927
3097.12067,0.22923
3099.04914,0.22908
3100.97760,0.23106
3102.90607,0.23472
3104.83454,0.23568
3106.76301,0.23430
3108.69148,0.23276
3110.61995,0.23167
3112.54842,0.23349
3114.47688,0.23735
3116.40535,0.23935
3118.33382,0.23886
3120.26229,0.23518
3122.19076,0.23015
3124.11923,0.22871
3126.04770,0.23056
3127.97617,0.23257
3129.90463,0.23310
3131.83310,0.23156
3133.76157,0.22985
3135.69004,0.23137
3137.61851,0.23471
3139.54698,0.23489
3141.47545,0.23285
3143.40391,0.23261
3145.33238,0.23478
3147.26085,0.23758
3149.18932,0.23901
3151.11779,0.23981
3153.04626,0.24041
3154.97473,0.23875
3156.90320,0.23647
3158.83166,0.23744
3160.76013,0.23944
3162.68860,0.23760
3164.61707,0.23381
3166.54554,0.23362
3168.47401,0.23787
3170.40248,0.24179
3172.33094,0.24038
3174.25941,0.23590
3176.18788,0.23450
3178.11635,0.23657
3180.04482,0.23875
3181.97329,0.23939
3183.90176,0.23820
3185.83022,0.23596
3187.75869,0.23624
3189.68716,0.23894
3191.61563,0.23956
3193.54410,0.23913
3195.47257,0.23893
3197.40104,0.23540
3199.32951,0.23006
3201.25797,0.22912
3203.18644,0.23246
3205.11491,0.23319
3207.04338,0.22922
3208.97185,0.22581
3210.90032,0.22728
3212.82879,0.23368
3214.75725,0.23971
3216.68572,0.24079
3218.61419,0.23907
3220.54266,0.23751
3222.47113,0.23732
3224.39960,0.23741
3226.32807,0.23693
3228.25654,0.23719
3230.18500,0.23546
3232.11347,0.23073
3234.04194,0.22958
3235.97041,0.23385
3237.89888,0.23507
3239.82735,0.22924
3241.75582,0.22313
3243.68428,0.22403
3245.61275,0.23062
3247.54122,0.23448
3249.46969,0.23480
3251.39816,0.23560
3253.32663,0.23580
3255.25510,0.23632
3257.18357,0.23841
3259.11203,0.23808
3261.04050,0.23329
3262.96897,0.22841
3264.89744,0.22591
3266.82591,0.22438
3268.75438,0.22226
3270.68285,0.22069
3272.61131,0.22524
3274.53978,0.23256
3276.46825,0.23281
3278.39672,0.23071
3280.32519,0.23439
3282.25366,0.23741
3284.18213,0.23447
3286.11060,0.23059
3288.03906,0.22914
3289.96753,0.23020
3291.89600,0.23144
3293.82447,0.22944
3295.75294,0.22809
3297.68141,0.23139
3299.60988,0.23264
3301.53834,0.22850
3303.46681,0.22654
3305.39528,0.23000
3307.32375,0.23395
3309.25222,0.23421
3311.18069,0.23162
3313.10916,0.22836
3315.03763,0.22554
3316.96609,0.22429
3318.89456,0.22637
3320.82303,0.23129
3322.75150,0.23370
3324.67997,0.23194
3326.60844,0.23074
3328.53691,0.23343
3330.46537,0.23723
3332.39384,0.23727
3334.32231,0.23512
3336.25078,0.23493
3338.17925,0.23633
3340.10772,0.23744
3342.03619,0.23654
3343.96466,0.23423
3345.89312,0.23464
3347.82159,0.23801
3349.75006,0.24054
3351.67853,0.24110
3353.60700,0.24106
3355.53547,0.24023
3357.46394,0.23749
3359.39240,0.23494
3361.32087,0.23356
3363.24934,0.23403
3365.17781,0.23846
3367.10628,0.24262
3369.03475,0.24268
3370.96322,0.24083
3372.89168,0.23800
3374.82015,0.23606
3376.74862,0.23748
3378.67709,0.24069
3380.60556,0.24409
3382.53403,0.24630
3384.46250,0.24343
3386.39097,0.23439
3388.31943,0.22651
3390.24790,0.22459
3392.17637,0.22506
3394.10484,0.22868
3396.03331,0.23368
3397.96178,0.23172
3399.89025,0.22683
3401.81871,0.22641
3403.74718,0.22778
3405.67565,0.23045
3407.60412,0.23410
3409.53259,0.23344
3411.46106,0.22882
3413.38953,0.22587
3415.31800,0.22704
3417.24646,0.22984
3419.17493,0.23176
3421.10340,0.23041
3423.03187,0.22468
3424.96034,0.22011
3426.88881,0.21962
3428.81728,0.22083
3430.74574,0.22265
3432.67421,0.22531
3434.60268,0.22834
3436.53115,0.22951
3438.45962,0.22878
3440.38809,0.22734
3442.31656,0.22375
3444.24503,0.22043
3446.17349,0.22259
3448.10196,0.22512
3450.03043,0.22141
3451.95890,0.21767
3453.88737,0.21743
3455.81584,0.21707
3457.74431,0.21695
3459.67277,0.21728
3461.60124,0.21638
3463.52971,0.21629
3465.45818,0.21760
3467.38665,0.21746
3469.31512,0.21478
3471.24359,0.21102
3473.17206,0.20934
3475.10052,0.21100
3477.02899,0.21316
3478.95746,0.21352
3480.88593,0.21230
3482.81440,0.21155
3484.74287,0.21057
3486.67134,0.20666
3488.59980,0.20302
3490.52827,0.20347
3492.45674,0.20590
3494.38521,0.20680
3496.31368,0.20595
3498.24215,0.20752
3500.17062,0.21115
3502.09909,0.20976
3504.02755,0.20368
3505.95602,0.20165
3507.88449,0.20355
3509.81296,0.20267
3511.74143,0.19688
3513.66990,0.19031
3515.59837,0.18650
3517.52683,0.18484
3519.45530,0.18550
3521.38377,0.18998
3523.31224,0.19526
3525.24071,0.19763
3527.16918,0.19846
3529.09765,0.19534
3531.02611,0.18639
3532.95458,0.18027
3534.88305,0.18236
3536.81152,0.18921
3538.73999,0.19310
3540.66846,0.19019
3542.59693,0.18693
3544.52540,0.18946
3546.45386,0.19324
3548.38233,0.19237
3550.31080,0.18985
3552.23927,0.18792
3554.16774,0.18509
3556.09621,0.18263
3558.02468,0.18075
3559.95314,0.17899
3561.88161,0.18143
3563.81008,0.18863
3565.73855,0.19375
3567.66702,0.18973
3569.59549,0.18111
3571.52396,0.17625
3573.45243,0.17625
3575.38089,0.17864
3577.30936,0.17864
3579.23783,0.17544
3581.16630,0.17263
3583.09477,0.17209
3585.02324,0.17551
3586.95171,0.18002
3588.88017,0.17768
3590.80864,0.17589
3592.73711,0.17908
3594.66558,0.18057
3596.59405,0.17823
3598.52252,0.17385
3600.45099,0.16763
3602.37946,0.16355
3604.30792,0.16403
3606.23639,0.16692
3608.16486,0.16839
3610.09333,0.16769
3612.02180,0.16954
3613.95027,0.17336
3615.87874,0.17517
3617.80720,0.17624
3619.73567,0.17564
3621.66414,0.16991
3623.59261,0.16312
3625.52108,0.16137
3627.44955,0.16603
3629.37802,0.16734
3631.30649,0.16291
3633.23495,0.16018
3635.16342,0.15632
3637.09189,0.15248
3639.02036,0.15206
3640.94883,0.15481
3642.87730,0.15837
3644.80577,0.16326
3646.73423,0.17168
3648.66270,0.17965
3650.59117,0.17562
3652.51964,0.16425
3654.44811,0.15534
3656.37658,0.14970
3658.30505,0.14636
3660.23352,0.14469
3662.16198,0.14303
3664.09045,0.14131
3666.01892,0.14216
3667.94739,0.14878
3669.87586,0.15864
3671.80433,0.16190
3673.73280,0.16534
3675.66126,0.17157
3677.58973,0.16722
3679.51820,0.15900
3681.44667,0.15200
3683.37514,0.14480
3685.30361,0.14069
3687.23208,0.14438
3689.16055,0.15437
3691.08901,0.15648
3693.01748,0.15067
3694.94595,0.14671
3696.87442,0.14442
3698.80289,0.14213
3700.73136,0.14157
3702.65983,0.14133
3704.58829,0.13878
3706.51676,0.13767
3708.44523,0.14066
3710.37370,0.14644
3712.30217,0.14938
3714.23064,0.14599
3716.15911,0.14218
3718.08757,0.14189
3720.01604,0.14433
3721.94451,0.14708
3723.87298,0.14905
3725.80145,0.14821
3727.72992,0.14460
3729.65839,0.14315
3731.58686,0.14832
3733.51532,0.16014
3735.44379,0.16703
3737.37226,0.15990
3739.30073,0.14993
3741.22920,0.14641
3743.15767,0.15249
3745.08614,0.16070
3747.01460,0.15795
3748.94307,0.15622
3750.87154,0.16115
3752.80001,0.15969
3754.72848,0.15459
3756.65695,0.15255
3758.58542,0.15063
3760.51389,0.14459
3762.44235,0.13967
3764.37082,0.13972
3766.29929,0.13845
3768.22776,0.13341
3770.15623,0.13085
3772.08470,0.13239
3774.01317,0.13691
3775.94163,0.14389
3777.87010,0.14978
3779.79857,0.14936
3781.72704,0.14500
3783.65551,0.14342
3785.58398,0.14282
3787.51245,0.13958
3789.44092,0.13522
3791.36938,0.13196
3793.29785,0.13214
3795.22632,0.13631
3797.15479,0.14143
3799.08326,0.14503
3801.01173,0.14685
3802.94020,0.14723
3804.86866,0.14867
3806.79713,0.14790
3808.72560,0.14198
3810.65407,0.13826
3812.58254,0.13936
3814.51101,0.14312
3816.43948,0.14734
3818.36795,0.15092
3820.29641,0.15228
3822.22488,0.14659
3824.15335,0.14128
3826.08182,0.13987
3828.01029,0.13871
3829.93876,0.13756
3831.86723,0.13740
3833.79569,0.14114
3835.72416,0.14964
3837.65263,0.15578
3839.58110,0.15255
3841.50957,0.14478
3843.43804,0.13739
3845.36651,0.13289
3847.29498,0.13372
3849.22344,0.14006
3851.15191,0.15085
3853.08038,0.15972
3855.00885,0.15421
3856.93732,0.14668
3858.86579,0.14259
3860.79426,0.13925
3862.72272,0.13783
3864.65119,0.14155
3866.57966,0.14510
3868.50813,0.14608
3870.43660,0.14896
3872.36507,0.14988
3874.29354,0.14263
3876.22200,0.13386
3878.15047,0.13211
3880.07894,0.13310
3882.00741,0.12951
3883.93588,0.12591
3885.86435,0.12691
3887.79282,0.12899
3889.72129,0.12919
3891.64975,0.12724
3893.57822,0.12473
3895.50669,0.12603
3897.43516,0.13027
3899.36363,0.13387
3901.29210,0.13605
3903.22057,0.13531
3905.14903,0.13074
3907.07750,0.12872
3909.00597,0.13002
3910.93444,0.12881
3912.86291,0.12520
3914.79138,0.12347
3916.71985,0.12240
3918.64832,0.12163
3920.57678,0.12392
3922.50525,0.12692
3924.43372,0.12487
3926.36219,0.11943
3928.29066,0.11952
3930.21913,0.12388
3932.14760,0.12494
3934.07606,0.12361
3936.00453,0.12276
3937.93300,0.11967
3939.86147,0.11617
3941.78994,0.11810
3943.71841,0.12117
3945.64688,0.11948
3947.57535,0.11848
3949.50381,0.11826
3951.43228,0.11503
3953.36075,0.11354
3955.28922,0.11604
3957.21769,0.11860
3959.14616,0.11949
3961.07463,0.12039
3963.00309,0.12285
3964.93156,0.12487
3966.86003,0.12270
3968.78850,0.11763
3970.71697,0.11372
3972.64544,0.11198
3974.57391,0.11155
3976.50238,0.11184
3978.43084,0.11276
3980.35931,0.11299
3982.28778,0.11069
3984.21625,0.10810
3986.14472,0.10932
3988.07319,0.11290
3990.00166,0.11291
3991.93012,0.10769
3993.85859,0.10226
3995.78706,0.10193
3997.71553,0.10656
3999.64400,0.11024
4001.57247,0.11109
4003.50094,0.11302
4005.42941,0.11441
4007.35787,0.11324
4009.28634,0.11143
4011.21481,0.10861
4013.14328,0.10561
4015.07175,0.10550
4017.00022,0.10799
4018.92869,0.10954
4020.85715,0.10986
4022.78562,0.10913
4024.71409,0.10658
4026.64256,0.10548
4028.57103,0.10507
4030.49950,0.10084
4032.42797,0.09516
4034.35644,0.09569
4036.28490,0.10167
4038.21337,0.10285
4040.14184,0.09811
4042.07031,0.09422
4043.99878,0.09446
4045.92725,0.09866
4047.85572,0.10252
4049.78418,0.10272
4051.71265,0.10290
4053.64112,0.10495
4055.56959,0.10501
4057.49806,0.10370
4059.42653,0.10443
4061.35500,0.10616
4063.28346,0.10667
4065.21193,0.10527
4067.14040,0.10267
4069.06887,0.10009
4070.99734,0.09782
4072.92581,0.09520
4074.85428,0.09346
4076.78275,0.09343
4078.71121,0.09291
4080.63968,0.09206
4082.56815,0.09321
4084.49662,0.09577
4086.42509,0.09787
4088.35356,0.09793
4090.28203,0.09437
4092.21049,0.08938
4094.13896,0.08740
4096.06743,0.08766
4097.99590,0.08703
4099.92437,0.08857
4101.85284,0.09418
4103.78131,0.09760
4105.70978,0.09621
4107.63824,0.09417
4109.56671,0.09292
4111.49518,0.09255
4113.42365,0.09321
4115.35212,0.09249
4117.28059,0.09079
4119.20906,0.09073
4121.13752,0.09149
4123.06599,0.09125
4124.99446,0.08983
4126.92293,0.08791
4128.85140,0.08629
4130.77987,0.08708
4132.70834,0.09128
4134.63681,0.09439
4136.56527,0.09245
4138.49374,0.08876
4140.42221,0.08755
4142.35068,0.08730
4144.27915,0.08632
4146.20762,0.08584
4148.13609,0.08473
4150.06455,0.08185
4151.99302,0.07994
4153.92149,0.07976
4155.84996,0.08038
4157.77843,0.08231
4159.70690,0.08398
4161.63537,0.08351
4163.56384,0.08090
4165.49230,0.07915
4167.42077,0.08081
4169.34924,0.08209
4171.27771,0.08024
4173.20618,0.07731
4175.13465,0.07385
4177.06312,0.07066
4178.99158,0.07102
4180.92005,0.07338
4182.84852,0.07370
4184.77699,0.07250
4186.70546,0.07280
4188.63393,0.07786
4190.56240,0.08420
4192.49087,0.08370
4194.41933,0.07777
4196.34780,0.07353
4198.27627,0.07068
4200.20474,0.06880
4202.13321,0.07085
4204.06168,0.07314
4205.99015,0.07299
4207.91861,0.07145
4209.84708,0.06986
4211.77555,0.07015
4213.70402,0.06986
4215.63249,0.06837
4217.56096,0.06754
4219.48943,0.06739
4221.41789,0.06790
4223.34636,0.06636
4225.27483,0.06228
4227.20330,0.05977
4229.13177,0.05994
4231.06024,0.06142
4232.98871,0.06420
4234.91718,0.06612
4236.84564,0.06485
4238.77411,0.06417
4240.70258,0.06574
4242.63105,0.06494
4244.55952,0.06195
4246.48799,0.06017
4248.41646,0.06102
4250.34492,0.06603
4252.27339,0.07131
4254.20186,0.06920
4256.13033,0.06359
4258.05880,0.06481
4259.98727,0.06872
4261.91574,0.06613
4263.84421,0.05927
4265.77267,0.05284
4267.70114,0.04995
4269.62961,0.05196
4271.55808,0.05499
4273.48655,0.05605
4275.41502,0.05541
4277.34349,0.05291
4279.27195,0.04941
4281.20042,0.04910
4283.12889,0.05520
4285.05736,0.06270
4286.98583,0.06224
4288.91430,0.05449
4290.84277,0.04839
4292.77124,0.04799
4294.69970,0.05076
4296.62817,0.05383
4298.55664,0.05794
4300.48511,0.05891
4302.41358,0.05136
4304.34205,0.04399
4306.27052,0.04418
4308.19898,0.04527
4310.12745,0.04428
4312.05592,0.04668
4313.98439,0.05033
4315.91286,0.04714
4317.84133,0.03962
4319.76980,0.03677
4321.69827,0.03983
4323.62673,0.04163
4325.55520,0.04070
4327.48367,0.04222
4329.41214,0.04279
4331.34061,0.04006
4333.26908,0.03883
4335.19755,0.03798
4337.12601,0.03578
4339.05448,0.03513
4340.98295,0.03664
4342.91142,0.03849
4344.83989,0.04191
4346.76836,0.04548
4348.69683,0.04163
4350.62530,0.03354
4352.55376,0.03188
4354.48223,0.03449
4356.41070,0.03469
4358.33917,0.03362
4360.26764,0.03445
4362.19611,0.03806
4364.12458,0.04148
4366.05304,0.03956
4367.98151,0.03462
4369.90998,0.03451
4371.83845,0.03701
4373.76692,0.03426
4375.69539,0.03069
4377.62386,0.03432
4379.55232,0.03946
4381.48079,0.03790
4383.40926,0.03268
4385.33773,0.03088
4387.26620,0.03517
4389.19467,0.03986
4391.12314,0.03530
4393.05161,0.02495
4394.98007,0.02167
4396.90854,0.02454
4398.83701,0.02506
4400.76548,0.02298
4402.69395,0.01675
4404.62242,0.00865
4406.55089,0.01023
4408.47935,0.02063
4410.40782,0.02808
4412.33629,0.02821
4414.26476,0.02370
4416.19323,0.02000
4418.12170,0.02054
4420.05017,0.02119
4421.97864,0.01785
4423.90710,0.01418
4425.83557,0.01471
4427.76404,0.01627
4429.69251,0.01477
4431.62098,0.01309
4433.54945,0.01439
4435.47792,0.01790
4437.40638,0.02128
4439.33485,0.02196
4441.26332,0.01925
4443.19179,0.01470
4445.12026,0.00888
4447.04873,0.00295
4448.97720,0.00047
4450.90567,0.00268
4452.83413,0.00869
4454.76260,0.01339
4456.69107,0.01293
4458.61954,0.01367
4460.54801,0.01791
4462.47648,0.02033
4464.40495,0.01810
4466.33341,0.01101
4468.26188,0.00489
4470.19035,0.00483
4472.11882,0.00645
4474.04729,0.00588
4475.97576,0.00296
4477.90423,-0.00120
4479.83270,-0.00175
4481.76116,0.00366
4483.68963,0.00929
4485.61810,0.00941
4487.54657,0.00789
4489.47504,0.00913
4491.40351,0.00984
4493.33198,0.00985
4495.26044,0.01155
4497.18891,0.01122
4499.11738,0.00900
4501.04585,0.01035
4502.97432,0.01163
4504.90279,0.00971
4506.83126,0.00775
4508.75973,0.00407
4510.68819,0.00160
4512.61666,0.00532
4514.54513,0.00988
4516.47360,0.01036
4518.40207,0.00725
4520.33054,0.00276
4522.25901,0.00009
4524.18747,-0.00086
4526.11594,-0.00061
4528.04441,0.00355
4529.97288,0.00993
4531.90135,0.01245
4533.82982,0.00997
4535.75829,0.00609
4537.68676,0.00163
4539.61522,-0.00208
4541.54369,0.00106
4543.47216,0.00857
4545.40063,0.01136
4547.32910,0.01090
4549.25757,0.01148
4551.18604,0.00973
4553.11450,0.00445
4555.04297,-0.00084
4556.97144,-0.00368
4558.89991,-0.00278
4560.82838,-0.00004
4562.75685,0.00175
4564.68532,0.00207
4566.61378,0.00058
4568.54225,-0.00030
4570.47072,0.00146
4572.39919,0.00239
4574.32766,-0.00022
4576.25613,-0.00313
4578.18460,0.00093
4580.11307,0.01245
4582.04153,0.02078
4583.97000,0.02026
4585.89847,0.01633
4587.82694,0.01290
4589.75541,0.00870
4591.68388,0.00513
4593.61235,0.00230
4595.54081,-0.00221
4597.46928,-0.00441
4599.39775,-0.00183
4601.32622,0.00247
4603.25469,0.00427
4605.18316,0.00054
4607.11163,-0.00347
4609.04010,-0.00398
4610.96856,-0.00253
4612.89703,0.00120
4614.82550,0.00156
4616.75397,-0.00352
4618.68244,-0.00698
4620.61091,-0.00713
4622.53938,-0.00404
4624.46784,0.00222
4626.39631,0.00870
4628.32478,0.00882
4630.25325,0.00073
4632.18172,-0.00302
4634.11019,0.00173
4636.03866,0.00729
4637.96713,0.01476
4639.89559,0.02138
4641.82406,0.01774
4643.75253,0.00849
4645.68100,0.00465
4647.60947,0.00694
4649.53794,0.00906
4651.46641,0.00779
4653.39487,0.00628
4655.32334,0.00581
4657.25181,0.00441
4659.18028,0.00325
4661.10875,0.00708
4663.03722,0.01730
4664.96569,0.01985
4666.89416,0.00520
4668.82262,-0.00956
4670.75109,-0.00789
4672.67956,0.00181
4674.60803,0.00431
4676.53650,0.00131
4678.46497,0.00207
4680.39344,0.00676
4682.32190,0.00604
4684.25037,-0.00289
4686.17884,-0.00708
4688.10731,-0.00232
4690.03578,-0.00180
4691.96425,-0.00850
4693.89272,-0.00733
4695.82119,0.00197
4697.74965,0.00815
4699.67812,0.00831
4701.60659,0.00688
4703.53506,0.00683
4705.46353,0.00681
4707.39200,0.00868
4709.32047,0.01327
4711.24893,0.01550
4713.17740,0.01254
4715.10587,0.00498
4717.03434,-0.00440
4718.96281,-0.00914
4720.89128,-0.00351
4722.81975,0.01076
4724.74821,0.01995
4726.67668,0.01202
4728.60515,-0.00171
4730.53362,-0.00195
4732.46209,0.00917
4734.39056,0.01421
4736.31903,0.00745
4738.24750,-0.00036
4740.17596,-0.00117
4742.10443,0.00396
4744.03290,0.00879
4745.96137,0.01000
4747.88984,0.01004
4749.81831,0.00720
4751.74678,0.00428
4753.67524,0.00687
4755.60371,0.00771
4757.53218,0.00255
4759.46065,-0.00206
4761.38912,-0.00251
4763.31759,0.00280
4765.24606,0.00904
4767.17453,0.00671
4769.10299,0.00013
4771.03146,-0.00139
4772.95993,-0.00011
4774.88840,0.00382
4776.81687,0.01151
4778.74534,0.01424
4780.67381,0.01371
4782.60227,0.01514
4784.53074,0.01354
4786.45921,0.01171
4788.38768,0.00897
4790.31615,-0.00118
4792.24462,-0.01288
4794.17309,-0.01665
4796.10156,-0.00834
4798.03002,0.00521
4799.95849,0.00978
4801.88696,0.00556
4803.81543,0.00261
4805.74390,0.00156
4807.67237,0.00185
4809.60084,0.00572
4811.52930,0.00813
4813.45777,0.00231
4815.38624,-0.00581
4817.31471,-0.00525
4819.24318,0.00600
4821.17165,0.02102
4823.10012,0.02421
4825.02859,0.01143
4826.95705,0.00414
4828.88552,0.01254
4830.81399,0.01566
4832.74246,0.00727
4834.67093,0.00339
4836.59940,0.00439
4838.52787,0.00505
4840.45633,0.00467
4842.38480,0.00373
4844.31327,0.00584
4846.24174,0.00561
4848.17021,-0.00133
4850.09868,-0.00789
4852.02715,-0.01038
4853.95562,-0.00851
4855.88408,0.00281
4857.81255,0.01486
4859.74102,0.01118
4861.66949,0.00107
4863.59796,-0.00038
4865.52643,0.00005
4867.45490,-0.00062
4869.38336,0.00746
4871.31183,0.02101
4873.24030,0.02050
4875.16877,0.00457
4877.09724,-0.00497
4879.02571,-0.00298
4880.95418,-0.00032
4882.88265,0.00079
4884.81111,0.00442
4886.73958,0.01091
4888.66805,0.01426
4890.59652,0.01199
4892.52499,0.00944
4894.45346,0.01370
4896.38193,0.01910
4898.31039,0.01171
4900.23886,-0.00242
4902.16733,-0.00809
4904.09580,-0.00430
4906.02427,0.00695
4907.95274,0.02258
4909.88121,0.02958
4911.80967,0.02544
4913.73814,0.01706
4915.66661,0.00361
4917.59508,-0.00566
4919.52355,-0.00162
4921.45202,0.00511
4923.38049,0.00758
4925.30896,0.00924
4927.23742,0.00891
4929.16589,0.00777
4931.09436,0.00821
4933.02283,0.00669
4934.95130,0.00293
4936.87977,0.00295
4938.80824,0.00819
4940.73670,0.00918
4942.66517,0.00380
4944.59364,0.00234
4946.52211,0.00795
4948.45058,0.01378
4950.37905,0.01207
4952.30752,0.00347
4954.23599,-0.00286
4956.16445,-0.00224
4958.09292,0.00293
4960.02139,0.00750
4961.94986,0.00794
4963.87833,0.00724
4965.80680,0.00926
4967.73527,0.01324
4969.66373,0.01421
4971.59220,0.00727
4973.52067,-0.00040
4975.44914,0.00280
4977.37761,0.00832
4979.30608,0.00034
4981.23455,-0.01581
4983.16302,-0.02208
4985.09148,-0.01310
4987.01995,-0.00275
4988.94842,-0.00241
4990.87689,-0.00670
4992.80536,-0.00715
4994.73383,-0.00138
4996.66230,0.00741
4998.59076,0.01172
5000.51923,0.01245
5002.44770,0.01478
5004.37617,0.01484
5006.30464,0.01066
5008.23311,0.00716
5010.16158,0.00897
5012.09005,0.00929
5014.01851,0.00166
5015.94698,-0.00047
5017.87545,0.00802
5019.80392,0.01670
5021.73239,0.02089
5023.66086,0.02302
5025.58933,0.03045
5027.51779,0.03776
5029.44626,0.03400
5031.37473,0.02480
5033.30320,0.01625
5035.23167,0.00899
5037.16014,0.00097
5039.08861,-0.00501
5041.01708,-0.00240
5042.94554,-0.00041
5044.87401,-0.00120
5046.80248,0.00488
5048.73095,0.01275
5050.65942,0.01653
5052.58789,0.01500
5054.51636,0.01177
5056.44482,0.02050
5058.37329,0.03385
5060.30176,0.03026
5062.23023,0.01788
5064.15870,0.01346
5066.08717,0.01349
5068.01564,0.00766
5069.94410,-0.00126
5071.87257,0.00264
5073.80104,0.01737
5075.72951,0.02378
5077.65798,0.01846
5079.58645,0.01789
5081.51492,0.02706
5083.44339,0.03046
5085.37185,0.02417
5087.30032,0.01613
5089.22879,0.01145
5091.15726,0.01285
5093.08573,0.01766
5095.01420,0.02083
5096.94267,0.02199
5098.87113,0.02573
5100.79960,0.02671
5102.72807,0.01790
5104.65654,0.01061
5106.58501,0.01393
5108.51348,0.02425
5110.44195,0.02616
5112.37042,0.00429
5114.29888,-0.01474
5116.22735,0.00284
5118.15582,0.03318
5120.08429,0.04103
5122.01276,0.03229
5123.94123,0.02329
5125.86970,0.01826
5127.79816,0.01318
5129.72663,0.00586
5131.65510,0.00312
5133.58357,0.00621
5135.51204,0.01870
5137.44051,0.04253
5139.36898,0.06476
5141.29745,0.07412
5143.22591,0.05861
5145.15438,0.02465
5147.08285,0.01143
5149.01132,0.02683
5150.93979,0.03743
5152.86826,0.03275
5154.79673,0.02196
5156.72519,0.01091
5158.65366,0.00583
5160.58213,0.00458
5162.51060,0.00735
5164.43907,0.01464
5166.36754,0.02118
5168.29601,0.02670
5170.22448,0.02600
5172.15294,0.01703
5174.08141,0.01805
5176.00988,0.03367
5177.93835,0.04036
5179.86682,0.02954
5181.79529,0.02306
5183.72376,0.03121
5185.65222,0.03360
5187.58069,0.02784
5189.50916,0.03253
5191.43763,0.03983
5193.36610,0.03679
5195.29457,0.02756
5197.22304,0.01698
5199.15151,0.01239
5201.07997,0.01908
5203.00844,0.02732
5204.93691,0.02886
5206.86538,0.02412
5208.79385,0.01618
5210.72232,0.01273
5212.65079,0.02064
5214.57925,0.03917
5216.50772,0.05842
5218.43619,0.06733
5220.36466,0.06296
5222.29313,0.05254
5224.22160,0.04180
5226.15007,0.03448
5228.07854,0.03467
5230.00700,0.04030
5231.93547,0.04805
5233.86394,0.04832
5235.79241,0.03797
5237.72088,0.03002
5239.64935,0.03121
5241.57782,0.03634
5243.50628,0.04231
5245.43475,0.04886
5247.36322,0.05286
5249.29169,0.05160
5251.22016,0.04480
5253.14863,0.03655
5255.07710,0.03251
5257.00556,0.03377
5258.93403,0.03618
5260.86250,0.03419
5262.79097,0.03071
5264.71944,0.03570
5266.64791,0.04200
5268.57638,0.03959
5270.50485,0.03852
5272.43331,0.03792
5274.36178,0.02551
5276.29025,0.01318
5278.21872,0.01853
5280.14719,0.03684
5282.07566,0.05524
5284.00413,0.06369
5285.93259,0.05572
5287.86106,0.04392
5289.78953,0.04143
5291.71800,0.03801
5293.64647,0.02822
5295.57494,0.02758
5297.50341,0.04077
5299.43188,0.05147
5301.36034,0.05097
5303.28881,0.05228
5305.21728,0.06154
5307.14575,0.06257
5309.07422,0.05583
5311.00269,0.06085
5312.93116,0.06925
5314.85962,0.06592
5316.78809,0.05677
5318.71656,0.04856
5320.64503,0.04145
5322.57350,0.03734
5324.50197,0.03781
5326.43044,0.04424
5328.35891,0.05052
5330.28737,0.04973
5332.21584,0.04721
5334.14431,0.04592
5336.07278,0.04468
5338.00125,0.04537
5339.92972,0.04845
5341.85819,0.04879
5343.78665,0.04532
5345.71512,0.04118
5347.64359,0.03604
5349.57206,0.03528
5351.50053,0.04116
5353.42900,0.04398
5355.35747,0.03912
5357.28594,0.03423
5359.21440,0.04004
5361.14287,0.05434
5363.07134,0.05993
5364.99981,0.05636
5366.92828,0.05205
5368.85675,0.04124
5370.78522,0.03128
5372.71368,0.03633
5374.64215,0.05696
5376.57062,0.08688
5378.49909,0.09882
5380.42756,0.08618
5382.35603,0.07266
5384.28450,0.05851
5386.21297,0.04035
5388.14143,0.03910
5390.06990,0.05115
5391.99837,0.05955
5393.92684,0.05692
5395.85531,0.04667
5397.78378,0.04080
5399.71225,0.03717
5401.64071,0.03182
5403.56918,0.03572
5405.49765,0.05125
5407.42612,0.06073
5409.35459,0.05886
5411.28306,0.05793
5413.21153,0.05006
5415.13999,0.03398
5417.06846,0.03292
5418.99693,0.04740
5420.92540,0.06494
5422.85387,0.07365
5424.78234,0.06759
5426.71081,0.05920
5428.63928,0.06449
5430.56774,0.06877
5432.49621,0.05756
5434.42468,0.05186
5436.35315,0.06258
5438.28162,0.07283
5440.21009,0.07141
5442.13856,0.06483
5444.06702,0.06990
5445.99549,0.08203
5447.92396,0.08316
5449.85243,0.07542
5451.78090,0.06147
5453.70937,0.03880
5455.63784,0.03118
5457.56631,0.04945
5459.49477,0.06630
5461.42324,0.08250
5463.35171,0.09945
5465.28018,0.09571
5467.20865,0.07660
5469.13712,0.06085
5471.06559,0.05147
5472.99405,0.05051
5474.92252,0.05913
5476.85099,0.06370
5478.77946,0.05869
5480.70793,0.05819
5482.63640,0.06798
5484.56487,0.07496
5486.49334,0.08067
5488.42180,0.09871
5490.35027,0.11123
5492.27874,0.09240
5494.20721,0.06746
5496.13568,0.06446
5498.06415,0.06576
5499.99262,0.06697
5501.92108,0.07158
5503.84955,0.06819
5505.77802,0.05860
5507.70649,0.05331
5509.63496,0.05708
5511.56343,0.06555
5513.49190,0.07177
5515.42037,0.07778
5517.34883,0.08363
5519.27730,0.07145
5521.20577,0.04685
5523.13424,0.04508
5525.06271,0.06133
5526.99118,0.06474
5528.91965,0.05861
5530.84811,0.05870
5532.77658,0.06975
5534.70505,0.08456
5536.63352,0.08632
5538.56199,0.07267
5540.49046,0.06079
5542.41893,0.06026
5544.34740,0.06344
5546.27586,0.06058
5548.20433,0.05110
5550.13280,0.04953
5552.06127,0.06880
5553.98974,0.08780
5555.91821,0.07988
5557.84668,0.05349
5559.77514,0.03442
5561.70361,0.03832
5563.63208,0.06089
5565.56055,0.08547
5567.48902,0.09736
5569.41749,0.09308
5571.34596,0.08062
5573.27443,0.06704
5575.20289,0.05858
5577.13136,0.05480
5579.05983,0.05404
5580.98830,0.06080
5582.91677,0.06711
5584.84524,0.06623
5586.77371,0.06614
5588.70217,0.07250
5590.63064,0.08284
5592.55911,0.08755
5594.48758,0.09104
5596.41605,0.10512
5598.34452,0.11500
5600.27299,0.10707
5602.20145,0.09798
5604.12992,0.09916
5606.05839,0.09998
5607.98686,0.08775
5609.91533,0.07707
5611.84380,0.08851
5613.77227,0.09732
5615.70074,0.09669
5617.62920,0.11054
5619.55767,0.10933
5621.48614,0.07993
5623.41461,0.08084
5625.34308,0.11072
5627.27155,0.09901
5629.20002,0.05599
5631.12848,0.03120
5633.05695,0.02967
5634.98542,0.04823
5636.91389,0.06841
5638.84236,0.07187
5640.77083,0.06681
5642.69930,0.06931
5644.62777,0.07747
5646.55623,0.08232
5648.48470,0.08413
5650.41317,0.07466
5652.34164,0.05448
5654.27011,0.03824
5656.19858,0.03294
5658.12705,0.03854
5660.05551,0.05530
5661.98398,0.07606
5663.91245,0.08248
5665.84092,0.07743
5667.76939,0.08274
5669.69786,0.09657
5671.62633,0.09239
5673.55480,0.06743
5675.48326,0.05282
5677.41173,0.06209
5679.34020,0.07232
5681.26867,0.07379
5683.19714,0.07151
5685.12561,0.05589
5687.05408,0.03464
5688.98254,0.03723
5690.91101,0.07120
5692.83948,0.10401
5694.76795,0.09686
5696.69642,0.05925
5698.62489,0.03778
5700.55336,0.04412
5702.48183,0.04935
5704.41029,0.04834
5706.33876,0.05612
5708.26723,0.06637
5710.19570,0.06754
5712.12417,0.06843
5714.05264,0.08334
5715.98111,0.09517
5717.90957,0.08392
5719.83804,0.07095
5721.76651,0.07756
5723.69498,0.09604
5725.62345,0.11029
5727.55192,0.10757
5729.48039,0.09428
5731.40886,0.09312
5733.33732,0.10681
5735.26579,0.11460
5737.19426,0.09083
5739.12273,0.04672
5741.05120,0.03626
5742.97967,0.07303
5744.90814,0.11052
5746.83660,0.12359
5748.76507,0.13427
5750.69354,0.15535
5752.62201,0.15931
5754.55048,0.13463
5756.47895,0.10586
5758.40742,0.08787
5760.33588,0.07667
5762.26435,0.06568
5764.19282,0.06067
5766.12129,0.07992
5768.04976,0.10175
5769.97823,0.09372
5771.90670,0.08215
5773.83517,0.08858
5775.76363,0.09466
5777.69210,0.09510
5779.62057,0.08505
5781.54904,0.06042
5783.47751,0.04419
5785.40598,0.05231
5787.33445,0.06378
5789.26291,0.05691
5791.19138,0.04487
5793.11985,0.05186
5795.04832,0.08466
5796.97679,0.12666
5798.90526,0.14461
5800.83373,0.12700
5802.76220,0.10323
5804.69066,0.09983
5806.61913,0.11185
5808.54760,0.12874
5810.47607,0.12805
5812.40454,0.10185
5814.33301,0.08612
5816.26148,0.09042
5818.18994,0.09568
5820.11841,0.10167
5822.04688,0.11010
5823.97535,0.10566
5825.90382,0.09134
5827.83229,0.08975
5829.76076,0.08286
5831.68923,0.05739
5833.61769,0.04737
5835.54616,0.05692
5837.47463,0.05929
5839.40310,0.04493
5841.33157,0.02414
5843.26004,0.02162
5845.18851,0.04529
5847.11697,0.06783
5849.04544,0.06853
5850.97391,0.06505
5852.90238,0.07241
5854.83085,0.08237
5856.75932,0.09257
5858.68779,0.09799
5860.61626,0.08750
5862.54472,0.07986
5864.47319,0.09920
5866.40166,0.11789
5868.33013,0.10698
5870.25860,0.09200
5872.18707,0.09223
5874.11554,0.09546
5876.04400,0.09774
5877.97247,0.10141
5879.90094,0.10228
5881.82941,0.09609
5883.75788,0.09280
5885.68635,0.10195
5887.61482,0.10878
5889.54329,0.10856
5891.47175,0.10912
5893.40022,0.10479
5895.32869,0.09609
5897.25716,0.09221
5899.18563,0.09615
5901.11410,0.10541
5903.04257,0.10130
5904.97103,0.06732
5906.89950,0.04142
5908.82797,0.06194
5910.75644,0.09676
5912.68491,0.10500
5914.61338,0.08910
5916.54185,0.06642
5918.47032,0.04945
5920.39878,0.05234
5922.32725,0.06403
5924.25572,0.05638
5926.18419,0.04139
5928.11266,0.05408
5930.04113,0.08740
5931.96960,0.09208
5933.89806,0.06489
5935.82653,0.04923
5937.75500,0.04130
5939.68347,0.03986
5941.61194,0.07142
5943.54041,0.10622
5945.46888,0.09795
5947.39734,0.06948
5949.32581,0.06286
5951.25428,0.07560
5953.18275,0.08502
5955.11122,0.08587
5957.03969,0.08821
5958.96816,0.09869
5960.89663,0.10869
5962.82509,0.10615
5964.75356,0.08645
5966.68203,0.06323
5968.61050,0.05936
5970.53897,0.06822
5972.46744,0.06467
5974.39591,0.05084
5976.32437,0.04345
5978.25284,0.04109
5980.18131,0.04692
5982.10978,0.06035
5984.03825,0.06882
5985.96672,0.08074
5987.89519,0.09020
5989.82366,0.09390
5991.75212,0.12110
5993.68059,0.14197
5995.60906,0.10630
5997.53753,0.04956
5999.46600,0.03187
6001.39447,0.05476
6003.32294,0.06572
6005.25140,0.04674
6007.17987,0.04548
6009.10834,0.06602
6011.03681,0.07369
6012.96528,0.06427
6014.89375,0.05855
6016.82222,0.07152
6018.75069,0.09457
6020.67915,0.09576
6022.60762,0.05711
6024.53609,0.01546
6026.46456,0.01165
6028.39303,0.03665
6030.32150,0.05692
6032.24997,0.06478
6034.17843,0.08188
6036.10690,0.10409
6038.03537,0.10202
6039.96384,0.08062
6041.89231,0.06412
6043.82078,0.05212
6045.74925,0.05130
6047.67772,0.07401
6049.60618,0.08152
6051.53465,0.06045
6053.46312,0.06182
6055.39159,0.08814
6057.32006,0.09073
6059.24853,0.06827
6061.17700,0.06936
6063.10546,0.09695
6065.03393,0.10314
6066.96240,0.08704
6068.89087,0.06697
6070.81934,0.03978
6072.74781,0.03857
6074.67628,0.08674
6076.60475,0.12886
6078.53321,0.12463
6080.46168,0.10191
6082.39015,0.10464
6084.31862,0.12911
6086.24709,0.12494
6088.17556,0.07287
6090.10403,0.00898
6092.03249,-0.01786
6093.96096,0.02382
6095.88943,0.10075
6097.81790,0.13952
6099.74637,0.13114
6101.67484,0.12132
6103.60331,0.11870
6105.53177,0.09771
6107.46024,0.05291
6109.38871,0.01892
6111.31718,0.02156
6113.24565,0.05057
6115.17412,0.09038
6117.10259,0.11591
6119.03106,0.11340
6120.95952,0.10616
6122.88799,0.10809
6124.81646,0.11241
6126.74493,0.11794
6128.67340,0.11764
6130.60187,0.09670
6132.53034,0.06685
6134.45880,0.05548
6136.38727,0.06953
6138.31574,0.09321
6140.24421,0.10017
6142.17268,0.09448
6144.10115,0.10314
6146.02962,0.10735
6147.95809,0.09642
6149.88655,0.08690
6151.81502,0.06823
6153.74349,0.04632
6155.67196,0.03991
6157.60043,0.04179
6159.52890,0.05523
6161.45737,0.06882
6163.38583,0.06690
6165.31430,0.06279
6167.24277,0.06340
6169.17124,0.07974
6171.09971,0.10974
6173.02818,0.11245
6174.95665,0.07345
6176.88512,0.02608
6178.81358,0.00225
6180.74205,0.01110
6182.67052,0.04614
6184.59899,0.07447
6186.52746,0.06985
6188.45593,0.05055
6190.38440,0.04006
6192.31286,0.03529
6194.24133,0.04374
6196.16980,0.07369
6198.09827,0.10398
6200.02674,0.10455
6201.95521,0.06512
6203.88368,0.02292
6205.81215,0.04054
6207.74061,0.08642
6209.66908,0.08255
6211.59755,0.04144
6213.52602,0.03148
6215.45449,0.04770
6217.38296,0.04506
6219.31143,0.02978
6221.23989,0.03642
6223.16836,0.06533
6225.09683,0.09156
6227.02530,0.08574
6228.95377,0.05865
6230.88224,0.05286
6232.81071,0.06751
6234.73918,0.06627
6236.66764,0.04780
6238.59611,0.03898
6240.52458,0.06506
6242.45305,0.14402
6244.38152,0.22484
6246.30999,0.22631
6248.23846,0.18268
6250.16692,0.15374
6252.09539,0.12304
6254.02386,0.07849
6255.95233,0.03710
6257.88080,0.00902
6259.80927,-0.00613
6261.73774,-0.00286
6263.66621,0.02531
6265.59467,0.05868
6267.52314,0.05924
6269.45161,0.04513
6271.38008,0.05984
6273.30855,0.10190
6275.23702,0.14301
6277.16549,0.14937
6279.09395,0.13240
6281.02242,0.12298
6282.95089,0.11951
6284.87936,0.10693
6286.80783,0.05470
6288.73630,0.00148
6290.66477,0.02458
6292.59323,0.07951
6294.52170,0.10318
6296.45017,0.11386
6298.37864,0.13352
6300.30711,0.15634
6302.23558,0.14911
6304.16405,0.11772
6306.09252,0.11890
6308.02098,0.12715
6309.94945,0.09138
6311.87792,0.07989
6313.80639,0.12416
6315.73486,0.13050
6317.66333,0.08207
6319.59180,0.05385
6321.52026,0.06566
6323.44873,0.08740
6325.37720,0.08290
6327.30567,0.03489
6329.23414,-0.01044
6331.16261,0.00106
6333.09108,0.04389
6335.01955,0.06379
6336.94801,0.06215
6338.87648,0.05246
6340.80495,0.02228
6342.73342,-0.00045
6344.66189,0.01451
6346.59036,0.04710
6348.51883,0.07400
6350.44729,0.09201
6352.37576,0.09086
6354.30423,0.06476
6356.23270,0.03190
6358.16117,0.02342
6360.08964,0.05633
6362.01811,0.09148
6363.94658,0.07766
6365.87504,0.03692
6367.80351,0.02307
6369.73198,0.04092
6371.66045,0.07441
6373.58892,0.09913
6375.51739,0.07768
6377.44586,0.02975
6379.37432,0.01928
6381.30279,0.04992
6383.23126,0.07832
6385.15973,0.09836
6387.08820,0.11148
6389.01667,0.09608
6390.94514,0.06790
6392.87361,0.08804
6394.80207,0.14022
6396.73054,0.13557
6398.65901,0.10446
6400.58748,0.10989
6402.51595,0.13119
6404.44442,0.13290
6406.37289,0.13077
6408.30135,0.13307
6410.22982,0.09732
6412.15829,0.03521
6414.08676,0.02129
6416.01523,0.05201
6417.94370,0.06548
6419.87217,0.05205
6421.80064,0.06311
6423.72910,0.09170
6425.65757,0.08521
6427.58604,0.05175
6429.51451,0.04491
6431.44298,0.04751
6433.37145,0.02407
6435.29992,0.02677
6437.22838,0.07831
6439.15685,0.10964
6441.08532,0.10432
6443.01379,0.09737
6444.94226,0.07567
6446.87073,0.05313
6448.79920,0.05141
6450.72766,0.04255
6452.65613,0.03803
6454.58460,0.05457
6456.51307,0.05922
6458.44154,0.04136
6460.37001,0.03271
6462.29848,0.05484
6464.22695,0.08144
6466.15541,0.06875
6468.08388,0.03517
6470.01235,0.02467
6471.94082,0.01746
6473.86929,0.00963
6475.79776,0.04146
6477.72623,0.11095
6479.65469,0.14147
6481.58316,0.10477
6483.51163,0.08423
6485.44010,0.09433
6487.36857,0.10486
6489.29704,0.11100
6491.22551,0.07824
6493.15398,0.01982
6495.08244,-0.00691
6497.01091,0.00101
6498.93938,0.03475
6500.86785,0.08806
6502.79632,0.14298
6504.72479,0.16999
6506.65326,0.13321
6508.58172,0.06518
6510.51019,0.04088
6512.43866,0.03237
6514.36713,0.00891
6516.29560,0.02976
6518.22407,0.08837
6520.15254,0.11504
6522.08101,0.10520
6524.00947,0.07803
6525.93794,0.05760
6527.86641,0.08240
6529.79488,0.12082
6531.72335,0.13205
6533.65182,0.14481
6535.58029,0.14555
6537.50875,0.10438
6539.43722,0.08096
6541.36569,0.10489
6543.29416,0.10941
6545.22263,0.06450
6547.15110,0.02728
6549.07957,0.03422
6551.00804,0.04737
6552.93650,0.01703
6554.86497,-0.01593
6556.79344,0.01622
6558.72191,0.07963
6560.65038,0.11072
6562.57885,0.12319
6564.50732,0.13874
6566.43578,0.14334
6568.36425,0.13174
6570.29272,0.11812
6572.22119,0.08593
6574.14966,0.04957
6576.07813,0.05202
6578.00660,0.07523
6579.93507,0.10293
6581.86353,0.10649
6583.79200,0.09405
6585.72047,0.11548
6587.64894,0.09971
6589.57741,0.03831
6591.50588,0.00638
6593.43435,0.00204
6595.36281,0.03200
6597.29128,0.10031
6599.21975,0.17756
6601.14822,0.20850
6603.07669,0.15608
6605.00516,0.08308
6606.93363,0.02089
6608.86210,-0.02043
6610.79056,-0.01800
6612.71903,0.00096
6614.64750,0.00181
6616.57597,0.00323
6618.50444,0.04176
6620.43291,0.10450
6622.36138,0.16246
6624.28984,0.18878
6626.21831,0.15404
6628.14678,0.07135
6630.07525,0.00177
6632.00372,-0.03228
6633.93219,-0.05094
6635.86066,-0.01859
6637.78912,0.05181
6639.71759,0.07488
6641.64606,0.07334
6643.57453,0.11399
6645.50300,0.16292
6647.43147,0.14339
6649.35994,0.09597
6651.28841,0.08283
6653.21687,0.09209
6655.14534,0.10384
6657.07381,0.11168
6659.00228,0.09788
6660.93075,0.06147
6662.85922,0.02731
6664.78769,-0.00369
6666.71615,-0.03067
6668.64462,-0.02978
6670.57309,0.00452
6672.50156,0.05527
6674.43003,0.09967
6676.35850,0.13645
6678.28697,0.19055
6680.21544,0.22913
6682.14390,0.19158
6684.07237,0.11965
6686.00084,0.07961
6687.92931,0.05928
6689.85778,0.05487
6691.78625,0.05290
6693.71472,0.02490
6695.64318,-0.00113
6697.57165,-0.00093
6699.50012,-0.02393
6701.42859,-0.07003
6703.35706,-0.09932
6705.28553,-0.10682
6707.21400,-0.03595
6709.14247,0.08175
6711.07093,0.09797
6712.99940,0.02841
6714.92787,-0.01838
6716.85634,0.00356
6718.78481,0.05576
6720.71328,0.07433
6722.64175,0.08232
6724.57021,0.10872
6726.49868,0.10628
6728.42715,0.07262
6730.35562,0.08068
6732.28409,0.14376
6734.21256,0.14448
6736.14103,0.07942
6738.06950,0.05586
6739.99796,0.05490
6741.92643,0.05599
6743.85490,0.08864
6745.78337,0.12796
6747.71184,0.14215
6749.64031,0.12061
6751.56878,0.07845
6753.49724,0.04422
6755.42571,0.05714
6757.35418,0.13914
6759.28265,0.21312
6761.21112,0.17943
6763.13959,0.13359
6765.06806,0.15366
6766.99653,0.17090
6768.92499,0.15758
6770.85346,0.14038
6772.78193,0.12714
6774.71040,0.11576
6776.63887,0.09888
6778.56734,0.08096
6780.49581,0.06689
6782.42427,0.04157
6784.35274,0.00320
6786.28121,-0.02713
6788.20968,-0.03550
6790.13815,-0.04394
6792.06662,-0.05296
6793.99509,-0.01834
6795.92355,0.03284
6797.85202,0.03938
6799.78049,0.01187
6801.70896,-0.00339
6803.63743,0.00837
6805.56590,0.03038
6807.49437,0.04036
6809.42284,0.02813
6811.35130,0.01693
6813.27977,0.00860
6815.20824,-0.00533
6817.13671,0.01509
6819.06518,0.05740
6820.99365,0.07440
6822.92212,0.06247
6824.85058,0.05122
6826.77905,0.05529
6828.70752,0.07030
6830.63599,0.09195
6832.56446,0.10915
6834.49293,0.11037
6836.42140,0.08644
6838.34987,0.05829
6840.27833,0.03096
6842.20680,-0.00390
6844.13527,-0.01415
6846.06374,0.00632
6847.99221,0.04574
6849.92068,0.07333
6851.84915,0.05443
6853.77761,0.05485
6855.70608,0.09921
6857.63455,0.10542
6859.56302,0.07144
6861.49149,0.06870
6863.41996,0.10010
6865.34843,0.10116
6867.27690,0.05526
6869.20536,0.02365
6871.13383,0.04941
6873.06230,0.08272
6874.99077,0.06800
6876.91924,0.04664
6878.84771,0.04551
6880.77618,0.06179
6882.70464,0.07919
6884.63311,0.06440
6886.56158,0.04250
6888.49005,0.05682
6890.41852,0.08660
6892.34699,0.09877
6894.27546,0.08219
6896.20393,0.04284
6898.13239,0.04420
6900.06086,0.10513
6901.98933,0.14343
6903.91780,0.13810
6905.84627,0.11238
6907.77474,0.07050
6909.70321,0.00974
6911.63167,-0.03486
6913.56014,-0.02105
6915.48861,-0.03310
6917.41708,-0.09080
6919.34555,-0.04519
6921.27402,0.07055
6923.20249,0.09549
6925.13096,0.06305
6927.05942,0.04558
6928.98789,0.04151
6930.91636,0.05049
6932.84483,0.06705
6934.77330,0.05892
6936.70177,0.04777
6938.63024,0.06354
6940.55870,0.06935
6942.48717,0.02955
6944.41564,0.01388
6946.34411,0.05233
6948.27258,0.07864
6950.20105,0.03846
6952.12952,0.00437
6954.05799,0.03051
6955.98645,0.04921
6957.91492,0.08925
6959.84339,0.13891
6961.77186,0.07375
6963.70033,-0.01980
6965.62880,-0.04500
6967.55727,-0.04227
6969.48573,-0.06658
6971.41420,-0.11592
6973.34267,-0.08872
6975.27114,0.00013
6977.19961,0.04900
6979.12808,0.05582
6981.05655,0.00098
6982.98501,-0.03853
6984.91348,0.02105
6986.84195,0.05516
6988.77042,0.02996
6990.69889,0.06389
6992.62736,0.10513
6994.55583,0.01156
6996.48430,-0.16577
6998.41276,-0.20356
7000.34123,-0.07311
7002.26970,0.07086
7004.19817,0.14000
7006.12664,0.10746
7008.05511,0.06416
7009.98358,0.08235
7011.91204,0.07428
7013.84051,0.01231
7015.76898,-0.00994
7017.69745,0.03959
7019.62592,0.09625
7021.55439,0.06608
7023.48286,-0.04411
7025.41133,-0.12706
7027.33979,-0.12885
7029.26826,-0.02530
7031.19673,0.13380
7033.12520,0.23617
7035.05367,0.23755
7036.98214,0.18908
7038.91061,0.11131
7040.83907,0.00140
7042.76754,-0.05784
7044.69601,-0.04203
7046.62448,0.00392
7048.55295,0.09367
7050.48142,0.15159
7052.40989,0.13799
7054.33836,0.10886
7056.26682,0.05641
7058.19529,-0.02913
7060.12376,-0.05696
7062.05223,-0.04561
7063.98070,-0.03694
7065.90917,0.00294
7067.83764,0.03780
7069.76610,-0.02093
7071.69457,-0.09504
7073.62304,-0.03769
7075.55151,0.08286
7077.47998,0.14610
7079.40845,0.12268
7081.33692,0.01281
7083.26539,-0.09676
7085.19385,-0.12540
7087.12232,-0.08695
7089.05079,-0.02975
7090.97926,0.00750
7092.90773,0.05904
7094.83620,0.10866
7096.76467,0.10602
7098.69313,0.08947
7100.62160,0.06978
7102.55007,0.04769
7104.47854,0.06740
7106.40701,0.08316
7108.33548,0.02567
7110.26395,-0.05993
7112.19242,-0.11365
7114.12088,-0.11508
7116.04935,-0.07419
7117.97782,-0.01454
7119.90629,0.01225
7121.83476,-0.03170
7123.76323,-0.09734
7125.69170,-0.08951
7127.62016,-0.02609
7129.54863,0.03218
7131.47710,0.09145
7133.40557,0.10981
7135.33404,0.03427
7137.26251,-0.07998
7139.19098,-0.17806
7141.11944,-0.19631
7143.04791,-0.08565
7144.97638,0.03445
7146.90485,0.04570
7148.83332,0.07958
7150.76179,0.18611
7152.69026,0.24035
7154.61873,0.19072
7156.54719,0.09824
7158.47566,0.00423
7160.40413,-0.03188
7162.33260,-0.01068
7164.26107,-0.01237
7166.18954,-0.05045
7168.11801,-0.05231
7170.04647,0.05767
7171.97494,0.16844
7173.90341,0.11257
7175.83188,-0.04608
7177.76035,-0.08188
7179.68882,0.01920
7181.61729,0.04617
7183.54576,-0.03599
7185.47422,-0.03418
7187.40269,-0.00365
7189.33116,-0.04236
7191.25963,-0.02298
7193.18810,0.06055
7195.11657,0.07234
7197.04504,0.06560
7198.97350,0.09604
7200.90197,0.08383
7202.83044,-0.02052
7204.75891,-0.10046
7206.68738,-0.02798
7208.61585,0.07323
7210.54432,0.12381
7212.47279,0.13929
7214.40125,0.12972
7216.32972,0.07058
7218.25819,0.01135
7220.18666,0.01687
7222.11513,0.04703
7224.04360,0.06959
7225.97207,0.03912
7227.90053,-0.02240
7229.82900,-0.02030
7231.75747,0.03705
7233.68594,0.06386
7235.61441,0.11283
7237.54288,0.22508
7239.47135,0.28239
7241.39982,0.19901
7243.32828,0.03790
7245.25675,-0.04171
7247.18522,-0.01059
7249.11369,0.09650
7251.04216,0.19719
7252.97063,0.13084
7254.89910,0.02119
7256.82756,0.03049
7258.75603,0.12166
7260.68450,0.20046
7262.61297,0.17987
7264.54144,0.08582
7266.46991,-0.02299
7268.39838,-0.07529
7270.32685,-0.03376
7272.25531,0.05423
7274.18378,0.14060
7276.11225,0.20695
7278.04072,0.20403
7279.96919,0.13065
7281.89766,0.04173
7283.82613,-0.00085
7285.75459,0.04250
7287.68306,0.05098
7289.61153,-0.06070
7291.54000,-0.17693
7293.46847,-0.13120
7295.39694,-0.00140
7297.32541,0.06628
7299.25387,0.06591
7301.18234,0.05382
7303.11081,0.09527
7305.03928,0.18034
7306.96775,0.25007
7308.89622,0.32883
7310.82469,0.34191
7312.75316,0.20583
7314.68162,-0.01878
7316.61009,-0.15059
7318.53856,-0.04077
7320.46703,0.05932
7322.39550,0.04649
7324.32397,0.05191
7326.25244,0.05788
7328.18090,-0.01235
7330.10937,-0.12133
7332.03784,-0.14690
7333.96631,-0.06295
7335.89478,0.04222
7337.82325,0.14513
7339.75172,0.24950
7341.68019,0.20508
7343.60865,0.10953
7345.53712,0.13100
7347.46559,0.18702
7349.39406,0.13762
7351.32253,0.03965
7353.25100,0.03262
7355.17947,0.15177
7357.10793,0.30676
7359.03640,0.35521
7360.96487,0.31010
7362.89334,0.21036
7364.82181,0.01857
7366.75028,-0.10999
7368.67875,-0.06502
7370.60722,0.04430
7372.53568,0.15482
7374.46415,0.25241
7376.39262,0.17418
7378.32109,-0.02883
7380.24956,-0.11697
7382.17803,-0.01444
7384.10650,0.08762
7386.03496,0.04208
7387.96343,-0.03329
7389.89190,0.00838
7391.82037,0.08104
7393.74884,0.00558
7395.67731,-0.13208
7397.60578,-0.10484
7399.53425,-0.00237
7401.46271,0.05167
7403.39118,0.09423
7405.31965,0.14524
7407.24812,0.18307
7409.17659,0.21050
7411.10506,0.22107
7413.03353,0.20052
7414.96199,0.14511
7416.89046,0.03428
7418.81893,-0.09956
7420.74740,-0.10413
7422.67587,-0.01192
7424.60434,0.02918
7426.53281,0.00486
7428.46128,0.02487
7430.38974,0.08357
7432.31821,0.03203
7434.24668,0.00024
7436.17515,0.09074
7438.10362,0.17278
7440.03209,0.18989
7441.96056,0.16326
7443.88902,0.11261
7445.81749,0.07440
7447.74596,0.07005
7449.67443,0.09866
7451.60290,0.13197
7453.53137,0.12825
7455.45984,0.11047
7457.38831,0.12334
7459.31677,0.13986
7461.24524,0.10531
7463.17371,0.06966
7465.10218,0.06324
7467.03065,0.06421
7468.95912,0.05592
7470.88759,0.02270
7472.81605,0.00739
7474.74452,0.00168
7476.67299,-0.00534
7478.60146,-0.01372
7480.52993,-0.07963
7482.45840,-0.13412
7484.38687,-0.09680
7486.31533,0.02767
7488.24380,0.14222
7490.17227,0.11783
7492.10074,0.03607
7494.02921,0.00228
7495.95768,-0.04447
7497.88615,-0.10609
