399.19301,1.58508
401.12148,0.97734
403.04995,0.42983
404.97842,0.13402
406.90689,0.00076
408.83536,-0.03727
410.76382,-0.08955
412.69229,-0.13920
414.62076,-0.01781
416.54923,0.14173
418.47770,0.16048
420.40617,0.12073
422.33464,0.15410
424.26311,0.11858
426.19157,-0.05933
428.12004,-0.15916
430.04851,-0.10564
431.97698,0.01561
433.90545,0.06376
435.83392,-0.01535
437.76239,-0.08660
439.69085,-0.07486
441.61932,-0.00765
443.54779,0.03010
445.47626,0.03665
447.40473,0.05593
449.33320,0.08385
451.26167,0.11333
453.19013,0.09059
455.11860,0.03225
457.04707,0.03478
458.97554,0.02531
460.90401,0.00810
462.83248,0.02297
464.76095,0.01350
466.68942,-0.01008
468.61788,-0.02655
470.54635,-0.03775
472.47482,-0.04339
474.40329,0.06617
476.33176,0.17371
478.26023,0.14901
480.18870,0.09650
482.11716,0.09518
484.04563,0.09719
485.97410,0.04284
487.90257,-0.02552
489.83104,-0.01514
491.75951,0.07938
493.68798,0.13950
495.61645,0.12440
497.54491,0.09981
499.47338,0.12604
501.40185,0.34490
503.33032,0.78776
505.25879,0.94349
507.18726,0.54925
509.11573,0.16596
511.04419,0.09987
512.97266,0.13546
514.90113,0.19643
516.82960,0.24739
518.75807,0.19471
520.68654,0.09661
522.61501,0.06372
524.54348,0.09527
526.47194,0.11490
528.40041,0.08579
530.32888,0.05178
532.25735,0.03844
534.18582,0.02032
536.11429,-0.00498
538.04276,-0.00710
539.97122,0.02361
541.89969,0.06817
543.82816,0.09393
545.75663,0.10753
547.68510,0.13906
549.61357,0.12565
551.54204,-0.06371
553.47051,-0.30618
555.39897,-0.28657
557.32744,-0.04749
559.25591,0.10174
561.18438,0.12329
563.11285,0.12212
565.04132,0.09804
566.96979,0.04905
568.89825,0.01526
570.82672,0.00749
572.75519,0.02193
574.68366,0.05359
576.61213,0.08573
578.54060,0.09897
580.46907,0.09051
582.39754,0.08467
584.32600,0.09529
586.25447,0.09658
588.18294,0.07018
590.11141,0.05480
592.03988,0.06929
593.96835,0.08363
595.89682,0.10608
597.82528,0.14616
599.75375,0.17095
601.68222,0.14843
603.61069,0.09050
605.53916,0.05088
607.46763,0.05658
609.39610,0.06813
611.32456,0.06190
613.25303,0.07209
615.18150,0.10315
617.10997,0.12013
619.03844,0.11151
620.96691,0.09691
622.89538,0.09858
624.82385,0.10703
626.75231,0.09433
628.68078,0.07432
630.60925,0.08606
632.53772,0.11509
634.46619,0.12570
636.39466,0.12020
638.32313,0.11530
640.25159,0.10697
642.18006,0.08478
644.10853,0.06793
646.03700,0.07241
647.96547,0.08799
649.89394,0.10211
651.82241,0.10645
653.75088,0.10068
655.67934,0.09571
657.60781,0.08788
659.53628,0.07471
661.46475,0.08456
663.39322,0.10613
665.32169,0.11082
667.25016,0.11681
669.17862,0.13633
671.10709,0.13935
673.03556,0.13088
674.96403,0.11693
676.89250,0.10689
678.82097,0.10992
680.74944,0.11658
682.67791,0.11135
684.60637,0.09869
686.53484,0.10432
688.46331,0.12461
690.39178,0.12444
692.32025,0.10729
694.24872,0.10050
696.17719,0.10584
698.10565,0.11194
700.03412,0.11919
701.96259,0.13060
703.89106,0.13334
705.81953,0.12460
707.74800,0.12424
709.67647,0.13027
711.60494,0.13312
713.53340,0.13333
715.46187,0.12307
717.39034,0.11473
719.31881,0.11692
721.24728,0.11762
723.17575,0.11731
725.10422,0.11917
727.03268,0.11990
728.96115,0.11667
730.88962,0.11903
732.81809,0.13056
734.74656,0.13691
736.67503,0.13204
738.60350,0.11855
740.53197,0.10139
742.46043,0.09210
744.38890,0.09719
746.31737,0.10289
748.24584,0.10237
750.17431,0.11152
752.10278,0.12756
754.03125,0.13226
755.95971,0.12760
757.88818,0.11790
759.81665,0.10944
761.74512,0.11353
763.67359,0.11968
765.60206,0.12229
767.53053,0.12691
769.45900,0.12887
771.38746,0.12822
773.31593,0.12501
775.24440,0.11742
777.17287,0.11235
779.10134,0.11407
781.02981,0.11410
782.95828,0.10526
784.88674,0.09241
786.81521,0.08948
788.74368,0.10361
790.67215,0.11903
792.60062,0.12342
794.52909,0.12040
796.45756,0.11060
798.38602,0.10112
800.31449,0.10926
802.24296,0.13064
804.17143,0.14117
806.09990,0.13690
808.02837,0.13099
809.95684,0.12908
811.88531,0.12553
813.81377,0.11674
815.74224,0.11153
817.67071,0.11098
819.59918,0.10750
821.52765,0.10746
823.45612,0.11826
825.38459,0.13665
827.31305,0.14926
829.24152,0.14538
831.16999,0.13791
833.09846,0.13906
835.02693,0.14018
836.95540,0.13230
838.88387,0.11145
840.81234,0.09332
842.74080,0.10161
844.66927,0.11750
846.59774,0.12252
848.52621,0.13143
850.45468,0.14336
852.38315,0.14488
854.31162,0.13927
856.24008,0.13974
858.16855,0.14249
860.09702,0.13640
862.02549,0.12557
863.95396,0.11780
865.88243,0.11600
867.81090,0.12340
869.73937,0.13257
871.66783,0.12948
873.59630,0.12367
875.52477,0.12174
877.45324,0.11709
879.38171,0.11633
881.31018,0.12194
883.23865,0.12774
885.16711,0.12940
887.09558,0.12451
889.02405,0.11768
890.95252,0.12538
892.88099,0.14560
894.80946,0.15245
896.73793,0.14587
898.66640,0.13824
900.59486,0.12887
902.52333,0.12356
904.45180,0.12847
906.38027,0.13493
908.30874,0.13059
910.23721,0.11825
912.16568,0.11378
914.09414,0.12710
916.02261,0.14359
917.95108,0.13997
919.87955,0.12336
921.80802,0.12122
923.73649,0.13386
925.66496,0.14143
927.59343,0.14132
929.52189,0.13635
931.45036,0.12981
933.37883,0.13008
935.30730,0.13346
937.23577,0.13326
939.16424,0.13329
941.09271,0.13826
943.02117,0.14556
944.94964,0.14961
946.87811,0.14679
948.80658,0.13960
950.73505,0.13497
952.66352,0.13227
954.59199,0.12825
956.52045,0.12583
958.44892,0.12597
960.37739,0.12913
962.30586,0.13564
964.23433,0.13843
966.16280,0.13660
968.09127,0.13594
970.01974,0.13794
971.94820,0.14251
973.87667,0.14259
975.80514,0.13569
977.73361,0.13584
979.66208,0.14748
981.59055,0.15256
983.51902,0.14510
985.44748,0.14073
987.37595,0.14174
989.30442,0.13796
991.23289,0.13574
993.16136,0.14249
995.08983,0.14750
997.01830,0.14727
998.94677,0.14407
1000.87523,0.13808
1002.80370,0.13967
1004.73217,0.14878
1006.66064,0.14774
1008.58911,0.13402
1010.51758,0.12785
1012.44605,0.13857
1014.37451,0.15041
1016.30298,0.15034
1018.23145,0.14145
1020.15992,0.12940
1022.08839,0.12285
1024.01686,0.12906
1025.94533,0.17432
1027.87380,0.26290
1029.80226,0.28478
1031.73073,0.20383
1033.65920,0.14234
1035.58767,0.13470
1037.51614,0.13658
1039.44461,0.13828
1041.37308,0.14012
1043.30154,0.14653
1045.23001,0.15383
1047.15848,0.15767
1049.08695,0.16219
1051.01542,0.16276
1052.94389,0.15857
1054.87236,0.15587
1056.80083,0.15159
1058.72929,0.14363
1060.65776,0.13910
1062.58623,0.13898
1064.51470,0.13851
1066.44317,0.14191
1068.37164,0.14662
1070.30011,0.14193
1072.22857,0.13772
1074.15704,0.14431
1076.08551,0.15400
1078.01398,0.15613
1079.94245,0.14967
1081.87092,0.14897
1083.79939,0.15557
1085.72786,0.15711
1087.65632,0.15550
1089.58479,0.15371
1091.51326,0.15031
1093.44173,0.14962
1095.37020,0.15360
1097.29867,0.16160
1099.22714,0.16843
1101.15560,0.16946
1103.08407,0.16556
1105.01254,0.15881
1106.94101,0.15702
1108.86948,0.15855
1110.79795,0.15407
1112.72642,0.15204
1114.65489,0.16091
1116.58335,0.16943
1118.51182,0.16843
1120.44029,0.15970
1122.36876,0.14897
1124.29723,0.14276
1126.22570,0.14077
1128.15417,0.14312
1130.08263,0.14980
1132.01110,0.15646
1133.93957,0.15844
1135.86804,0.15140
1137.79651,0.14308
1139.72498,0.14306
1141.65345,0.14866
1143.58191,0.15306
1145.51038,0.15200
1147.43885,0.15087
1149.36732,0.15264
1151.29579,0.15089
1153.22426,0.14549
1155.15273,0.14222
1157.08120,0.14728
1159.00966,0.15799
1160.93813,0.16088
1162.86660,0.15561
1164.79507,0.15300
1166.72354,0.15429
1168.65201,0.15575
1170.58048,0.15629
1172.50894,0.15667
1174.43741,0.15791
1176.36588,0.15781
1178.29435,0.15704
1180.22282,0.15883
1182.15129,0.16125
1184.07976,0.16460
1186.00823,0.16799
1187.93669,0.16691
1189.86516,0.16334
1191.79363,0.16093
1193.72210,0.15871
1195.65057,0.15457
1197.57904,0.15140
1199.50751,0.15259
1201.43597,0.15654
1203.36444,0.16203
1205.29291,0.16597
1207.22138,0.16447
1209.14985,0.16018
1211.07832,0.15619
1213.00679,0.15445
1214.93526,0.15660
1216.86372,0.15714
1218.79219,0.15389
1220.72066,0.15190
1222.64913,0.15273
1224.57760,0.15561
1226.50607,0.16120
1228.43454,0.16829
1230.36300,0.17183
1232.29147,0.16946
1234.21994,0.16457
1236.14841,0.16239
1238.07688,0.16366
1240.00535,0.16620
1241.93382,0.16928
1243.86229,0.17054
1245.79075,0.16858
1247.71922,0.16400
1249.64769,0.15998
1251.57616,0.16066
1253.50463,0.16472
1255.43310,0.16733
1257.36157,0.16607
1259.29003,0.16315
1261.21850,0.16280
1263.14697,0.16704
1265.07544,0.17017
1267.00391,0.16801
1268.93238,0.16755
1270.86085,0.17300
1272.78932,0.17725
1274.71778,0.17321
1276.64625,0.16779
1278.57472,0.16841
1280.50319,0.16965
1282.43166,0.16842
1284.36013,0.16803
1286.28860,0.17055
1288.21706,0.17450
1290.14553,0.17655
1292.07400,0.17615
1294.00247,0.17424
1295.93094,0.17273
1297.85941,0.17404
1299.78788,0.17749
1301.71634,0.18082
1303.64481,0.18178
1305.57328,0.17886
1307.50175,0.17637
1309.43022,0.17831
1311.35869,0.18062
1313.28716,0.18084
1315.21563,0.18051
1317.14409,0.18051
1319.07256,0.18121
1321.00103,0.18077
1322.92950,0.17942
1324.85797,0.17971
1326.78644,0.18135
1328.71491,0.18208
1330.64337,0.17944
1332.57184,0.17526
1334.50031,0.17629
1336.42878,0.18163
1338.35725,0.18372
1340.28572,0.17709
1342.21419,0.16272
1344.14266,0.15279
1346.07112,0.15505
1347.99959,0.16276
1349.92806,0.16774
1351.85653,0.16970
1353.78500,0.17085
1355.71347,0.17166
1357.64194,0.17364
1359.57040,0.17729
1361.49887,0.18079
1363.42734,0.18339
1365.35581,0.18447
1367.28428,0.18308
1369.21275,0.17901
1371.14122,0.17687
1373.06969,0.17924
1374.99815,0.18165
1376.92662,0.18409
1378.85509,0.18782
1380.78356,0.18821
1382.71203,0.18548
1384.64050,0.18434
1386.56897,0.18488
1388.49743,0.18372
1390.42590,0.18184
1392.35437,0.18362
1394.28284,0.18973
1396.21131,0.19391
1398.13978,0.19279
1400.06825,0.18914
1401.99672,0.18464
1403.92518,0.17986
1405.85365,0.17465
1407.78212,0.17219
1409.71059,0.17572
1411.63906,0.18113
1413.56753,0.18397
1415.49600,0.18857
1417.42446,0.19858
1419.35293,0.20189
1421.28140,0.19228
1423.20987,0.18400
1425.13834,0.18071
1427.06681,0.18293
1428.99528,0.18944
1430.92375,0.19217
1432.85221,0.18878
1434.78068,0.18601
1436.70915,0.18470
1438.63762,0.18434
1440.56609,0.18592
1442.49456,0.18778
1444.42303,0.19096
1446.35149,0.19455
1448.27996,0.19472
1450.20843,0.19317
1452.13690,0.19197
1454.06537,0.19202
1455.99384,0.19831
1457.92231,0.20857
1459.85077,0.20510
1461.77924,0.19881
1463.70771,0.19811
1465.63618,0.19819
1467.56465,0.19479
1469.49312,0.19411
1471.42159,0.20221
1473.35006,0.21678
1475.27852,0.21948
1477.20699,0.20778
1479.13546,0.19472
1481.06393,0.18941
1482.99240,0.18971
1484.92087,0.19048
1486.84934,0.19366
1488.77780,0.20445
1490.70627,0.20892
1492.63474,0.19863
1494.56321,0.19181
1496.49168,0.19529
1498.42015,0.19457
1500.34862,0.17670
1502.27709,0.15150
1504.20555,0.13670
1506.13402,0.16776
1508.06249,0.22597
1509.99096,0.22227
1511.91943,0.20825
1513.84790,0.20728
1515.77637,0.21900
1517.70483,0.23052
1519.63330,0.23024
1521.56177,0.22521
1523.49024,0.22193
1525.41871,0.22105
1527.34718,0.21523
1529.27565,0.20881
1531.20412,0.21209
1533.13258,0.21604
1535.06105,0.21013
1536.98952,0.21229
1538.91799,0.23620
1540.84646,0.25955
1542.77493,0.24535
1544.70340,0.22429
1546.63186,0.20870
1548.56033,0.20123
1550.48880,0.19986
1552.41727,0.20375
1554.34574,0.21413
1556.27421,0.22697
1558.20268,0.23288
1560.13115,0.21680
1562.05961,0.20493
1563.98808,0.20255
1565.91655,0.20344
1567.84502,0.20594
1569.77349,0.20729
1571.70196,0.20384
1573.63043,0.20434
1575.55889,0.21219
1577.48736,0.21132
1579.41583,0.20283
1581.34430,0.19975
1583.27277,0.19904
1585.20124,0.19686
1587.12971,0.19600
1589.05818,0.19791
1590.98664,0.20016
1592.91511,0.20230
1594.84358,0.20304
1596.77205,0.19927
1598.70052,0.19541
1600.62899,0.19754
1602.55746,0.20228
1604.48592,0.20262
1606.41439,0.19923
1608.34286,0.19685
1610.27133,0.19496
1612.19980,0.19385
1614.12827,0.19988
1616.05674,0.21174
1617.98521,0.21303
1619.91367,0.20878
1621.84214,0.21010
1623.77061,0.21022
1625.69908,0.20700
1627.62755,0.20714
1629.55602,0.20707
1631.48449,0.20700
1633.41295,0.21633
1635.34142,0.23296
1637.26989,0.22848
1639.19836,0.21353
1641.12683,0.20708
1643.05530,0.20905
1644.98377,0.21955
1646.91223,0.23279
1648.84070,0.23222
1650.76917,0.23208
1652.69764,0.24607
1654.62611,0.24194
1656.55458,0.22012
1658.48305,0.20946
1660.41152,0.21580
1662.33998,0.22534
1664.26845,0.21657
1666.19692,0.21051
1668.12539,0.22241
1670.05386,0.23258
1671.98233,0.22380
1673.91080,0.21351
1675.83926,0.20844
1677.76773,0.20595
1679.69620,0.20500
1681.62467,0.20691
1683.55314,0.21589
1685.48161,0.22366
1687.41008,0.22026
1689.33855,0.21416
1691.26701,0.20893
1693.19548,0.21111
1695.12395,0.22244
1697.05242,0.22849
1698.98089,0.22280
1700.90936,0.21823
1702.83783,0.21961
1704.76629,0.22179
1706.69476,0.21733
1708.62323,0.20831
1710.55170,0.20292
1712.48017,0.20420
1714.40864,0.21320
1716.33711,0.22515
1718.26558,0.22425
1720.19404,0.21287
1722.12251,0.20280
1724.05098,0.19724
1725.97945,0.19860
1727.90792,0.20451
1729.83639,0.21151
1731.76486,0.21913
1733.69332,0.22327
1735.62179,0.21542
1737.55026,0.20762
1739.47873,0.20753
1741.40720,0.21147
1743.33567,0.21198
1745.26414,0.20994
1747.19261,0.21117
1749.12107,0.21600
1751.04954,0.21571
1752.97801,0.20974
1754.90648,0.20728
1756.83495,0.20678
1758.76342,0.20498
1760.69189,0.20625
1762.62035,0.20708
1764.54882,0.20441
1766.47729,0.20397
1768.40576,0.20545
1770.33423,0.20645
1772.26270,0.20598
1774.19117,0.20274
1776.11964,0.19873
1778.04810,0.19668
1779.97657,0.19784
1781.90504,0.19912
1783.83351,0.19874
1785.76198,0.19748
1787.69045,0.19751
1789.61892,0.20324
1791.54738,0.21151
1793.47585,0.21198
1795.40432,0.20681
1797.33279,0.20206
1799.26126,0.20008
1801.18973,0.20022
1803.11820,0.19946
1805.04666,0.19971
1806.97513,0.20167
1808.90360,0.20288
1810.83207,0.20127
1812.76054,0.19670
1814.68901,0.19374
1816.61748,0.19592
1818.54595,0.20134
1820.47441,0.20339
1822.40288,0.20089
1824.33135,0.20161
1826.25982,0.20543
1828.18829,0.20657
1830.11676,0.20722
1832.04523,0.20730
1833.97369,0.20528
1835.90216,0.20205
1837.83063,0.20037
1839.75910,0.20237
1841.68757,0.20560
1843.61604,0.20597
1845.54451,0.20214
1847.47298,0.19856
1849.40144,0.19730
1851.32991,0.19731
1853.25838,0.19766
1855.18685,0.19891
1857.11532,0.20011
1859.04379,0.19891
1860.97226,0.19635
1862.90072,0.19556
1864.82919,0.19927
1866.75766,0.20708
1868.68613,0.21129
1870.61460,0.20559
1872.54307,0.19819
1874.47154,0.19508
1876.40001,0.19539
1878.32847,0.19715
1880.25694,0.19876
1882.18541,0.19985
1884.11388,0.20123
1886.04235,0.20240
1887.97082,0.20296
1889.89929,0.20316
1891.82775,0.20250
1893.75622,0.20180
1895.68469,0.20207
1897.61316,0.20149
1899.54163,0.19805
1901.47010,0.19393
1903.39857,0.19268
1905.32704,0.19386
1907.25550,0.19613
1909.18397,0.19915
1911.11244,0.20094
1913.04091,0.20111
1914.96938,0.20120
1916.89785,0.20058
1918.82632,0.19896
1920.75478,0.19957
1922.68325,0.20152
1924.61172,0.19999
1926.54019,0.19589
1928.46866,0.19354
1930.39713,0.19449
1932.32560,0.19684
1934.25407,0.19845
1936.18253,0.19900
1938.11100,0.19874
1940.03947,0.20004
1941.96794,0.20310
1943.89641,0.20286
1945.82488,0.19955
1947.75335,0.19740
1949.68181,0.19694
1951.61028,0.19768
1953.53875,0.19932
1955.46722,0.20029
1957.39569,0.19899
1959.32416,0.19863
1961.25263,0.20142
1963.18110,0.20330
1965.10956,0.20349
1967.03803,0.20298
1968.96650,0.20074
1970.89497,0.19868
1972.82344,0.20015
1974.75191,0.20028
1976.68038,0.18455
1978.60884,0.16500
1980.53731,0.17087
1982.46578,0.19099
1984.39425,0.20128
1986.32272,0.20321
1988.25119,0.20145
1990.17966,0.19831
1992.10812,0.19736
1994.03659,0.19863
1995.96506,0.19967
1997.89353,0.19849
1999.82200,0.19709
2001.75047,0.19886
2003.67894,0.20170
2005.60741,0.20159
2007.53587,0.19928
2009.46434,0.19852
2011.39281,0.19922
2013.32128,0.19897
2015.24975,0.19986
2017.17822,0.20172
2019.10669,0.20088
2021.03515,0.19809
2022.96362,0.19514
2024.89209,0.19347
2026.82056,0.19487
2028.74903,0.19867
2030.67750,0.20090
2032.60597,0.20063
2034.53444,0.20147
2036.46290,0.20317
2038.39137,0.20352
2040.31984,0.20312
2042.24831,0.20253
2044.17678,0.20229
2046.10525,0.20268
2048.03372,0.20161
2049.96218,0.19979
2051.89065,0.19927
2053.81912,0.19818
2055.74759,0.19683
2057.67606,0.19798
2059.60453,0.20150
2061.53300,0.20433
2063.46147,0.20436
2065.38993,0.20330
2067.31840,0.20345
2069.24687,0.20380
2071.17534,0.20240
2073.10381,0.20114
2075.03228,0.20101
2076.96075,0.20046
2078.88921,0.20033
2080.81768,0.20204
2082.74615,0.20411
2084.67462,0.20387
2086.60309,0.20261
2088.53156,0.20204
2090.46003,0.20135
2092.38850,0.20089
2094.31696,0.20202
2096.24543,0.20527
2098.17390,0.20800
2100.10237,0.20781
2102.03084,0.20580
2103.95931,0.20292
2105.88778,0.20025
2107.81624,0.19980
2109.74471,0.20114
2111.67318,0.20215
2113.60165,0.20300
2115.53012,0.20403
2117.45859,0.20334
2119.38706,0.20010
2121.31553,0.19758
2123.24399,0.19818
2125.17246,0.19980
2127.10093,0.20044
2129.02940,0.19983
2130.95787,0.20098
2132.88634,0.21004
2134.81481,0.22696
2136.74327,0.23564
2138.67174,0.22342
2140.60021,0.20698
2142.52868,0.20239
2144.45715,0.20246
2146.38562,0.20218
2148.31409,0.20223
2150.24255,0.20022
2152.17102,0.19761
2154.09949,0.19801
2156.02796,0.20005
2157.95643,0.20061
2159.88490,0.20029
2161.81337,0.20087
2163.74184,0.20167
2165.67030,0.20147
2167.59877,0.20038
2169.52724,0.19909
2171.45571,0.19930
2173.38418,0.20068
2175.31265,0.19994
2177.24112,0.19797
2179.16958,0.19861
2181.09805,0.20153
2183.02652,0.20406
2184.95499,0.20544
2186.88346,0.20547
2188.81193,0.20455
2190.74040,0.20351
2192.66887,0.20187
2194.59733,0.20130
2196.52580,0.20280
2198.45427,0.20350
2200.38274,0.20367
2202.31121,0.20481
2204.23968,0.20535
2206.16815,0.20563
2208.09661,0.20615
2210.02508,0.20535
2211.95355,0.20429
2213.88202,0.20431
2215.81049,0.20428
2217.73896,0.20343
2219.66743,0.20231
2221.59590,0.20295
2223.52436,0.20504
2225.45283,0.20636
2227.38130,0.20680
2229.30977,0.20655
2231.23824,0.20599
2233.16671,0.20568
2235.09518,0.20688
2237.02364,0.20958
2238.95211,0.21051
2240.88058,0.20789
2242.80905,0.20358
2244.73752,0.20122
2246.66599,0.20180
2248.59446,0.20250
2250.52293,0.20216
2252.45139,0.20110
2254.37986,0.20062
2256.30833,0.20270
2258.23680,0.20443
2260.16527,0.20375
2262.09374,0.20504
2264.02221,0.20823
2265.95067,0.20806
2267.87914,0.20524
2269.80761,0.20533
2271.73608,0.20805
2273.66455,0.20784
2275.59302,0.20476
2277.52149,0.20299
2279.44996,0.20305
2281.37842,0.20266
2283.30689,0.20084
2285.23536,0.20035
2287.16383,0.20291
2289.09230,0.20782
2291.02077,0.21363
2292.94924,0.20813
2294.87770,0.19161
2296.80617,0.19006
2298.73464,0.20114
2300.66311,0.20207
2302.59158,0.19775
2304.52005,0.19672
2306.44852,0.19569
2308.37699,0.19410
2310.30545,0.19265
2312.23392,0.19189
2314.16239,0.19365
2316.09086,0.19586
2318.01933,0.19405
2319.94780,0.19189
2321.87627,0.19387
2323.80473,0.19408
2325.73320,0.19131
2327.66167,0.19156
2329.59014,0.19347
2331.51861,0.19276
2333.44708,0.19171
2335.37555,0.19539
2337.30401,0.19820
2339.23248,0.19001
2341.16095,0.18160
2343.08942,0.18825
2345.01789,0.19784
2346.94636,0.19503
2348.87483,0.18506
2350.80330,0.17583
2352.73176,0.17191
2354.66023,0.16826
2356.58870,0.15733
2358.51717,0.14641
2360.44564,0.14728
2362.37411,0.15967
2364.30258,0.16137
2366.23104,0.15581
2368.15951,0.16044
2370.08798,0.16973
2372.01645,0.17564
2373.94492,0.17674
2375.87339,0.17994
2377.80186,0.18840
2379.73033,0.19682
2381.65879,0.20193
2383.58726,0.20420
2385.51573,0.20570
2387.44420,0.20806
2389.37267,0.21071
2391.30114,0.21237
2393.22961,0.21203
2395.15807,0.20921
2397.08654,0.20526
2399.01501,0.20263
2400.94348,0.20129
2402.87195,0.20000
2404.80042,0.20117
2406.72889,0.20552
2408.65736,0.20895
2410.58582,0.20976
2412.51429,0.20802
2414.44276,0.20473
2416.37123,0.20417
2418.29970,0.20730
2420.22817,0.20866
2422.15664,0.20728
2424.08510,0.20741
2426.01357,0.20741
2427.94204,0.20475
2429.87051,0.20329
2431.79898,0.20625
2433.72745,0.20946
2435.65592,0.20760
2437.58439,0.20351
2439.51285,0.20204
2441.44132,0.20281
2443.36979,0.20352
2445.29826,0.20457
2447.22673,0.20663
2449.15520,0.20665
2451.08367,0.20104
2453.01213,0.19388
2454.94060,0.19729
2456.86907,0.20728
2458.79754,0.20845
2460.72601,0.20582
2462.65448,0.20726
2464.58295,0.20832
2466.51142,0.20759
2468.43988,0.20628
2470.36835,0.20502
2472.29682,0.20495
2474.22529,0.20617
2476.15376,0.20686
2478.08223,0.20574
2480.01070,0.20422
2481.93916,0.20353
2483.86763,0.20386
2485.79610,0.20584
2487.72457,0.20800
2489.65304,0.20859
2491.58151,0.20887
2493.50998,0.20968
2495.43844,0.21078
2497.36691,0.21063
2499.29538,0.20834
2501.22385,0.20657
2503.15232,0.20703
2505.08079,0.20756
2507.00926,0.20650
2508.93773,0.20576
2510.86619,0.20643
2512.79466,0.20791
2514.72313,0.20892
2516.65160,0.20821
2518.58007,0.20750
2520.50854,0.20859
2522.43701,0.21026
2524.36547,0.21003
2526.29394,0.20777
2528.22241,0.20644
2530.15088,0.20844
2532.07935,0.21125
2534.00782,0.21185
2535.93629,0.21141
2537.86476,0.21071
2539.79322,0.20911
2541.72169,0.20658
2543.65016,0.20459
2545.57863,0.20466
2547.50710,0.20640
2549.43557,0.20940
2551.36404,0.21189
2553.29250,0.21101
2555.22097,0.20888
2557.14944,0.20919
2559.07791,0.20878
2561.00638,0.20726
2562.93485,0.20903
2564.86332,0.21143
2566.79179,0.21044
2568.72025,0.20849
2570.64872,0.20919
2572.57719,0.20991
2574.50566,0.20691
2576.43413,0.20384
2578.36260,0.20505
2580.29107,0.21014
2582.21953,0.21551
2584.14800,0.21630
2586.07647,0.21248
2588.00494,0.20878
2589.93341,0.20661
2591.86188,0.20486
2593.79035,0.20637
2595.71882,0.21221
2597.64728,0.21494
2599.57575,0.21074
2601.50422,0.20708
2603.43269,0.20851
2605.36116,0.20994
2607.28963,0.20943
2609.21810,0.21343
2611.14656,0.21993
2613.07503,0.22073
2615.00350,0.21860
2616.93197,0.21688
2618.86044,0.21519
2620.78891,0.21365
2622.71738,0.21150
2624.64585,0.21117
2626.57431,0.21265
2628.50278,0.21303
2630.43125,0.21342
2632.35972,0.21363
2634.28819,0.21205
2636.21666,0.21161
2638.14513,0.21282
2640.07359,0.21373
2642.00206,0.21540
2643.93053,0.21532
2645.85900,0.21215
2647.78747,0.20988
2649.71594,0.20867
2651.64441,0.20818
2653.57288,0.21031
2655.50134,0.21364
2657.42981,0.21621
2659.35828,0.21765
2661.28675,0.21753
2663.21522,0.21701
2665.14369,0.21775
2667.07216,0.21826
2669.00062,0.21671
2670.92909,0.21466
2672.85756,0.21407
2674.78603,0.21520
2676.71450,0.21625
2678.64297,0.21506
2680.57144,0.21396
2682.49990,0.21576
2684.42837,0.21851
2686.35684,0.21972
2688.28531,0.21873
2690.21378,0.21696
2692.14225,0.21748
2694.07072,0.21758
2695.99919,0.21358
2697.92765,0.21144
2699.85612,0.21522
2701.78459,0.21871
2703.71306,0.21771
2705.64153,0.21668
2707.57000,0.21825
2709.49847,0.21843
2711.42693,0.21621
2713.35540,0.21423
2715.28387,0.21390
2717.21234,0.21523
2719.14081,0.21682
2721.06928,0.21779
2722.99775,0.21700
2724.92622,0.21547
2726.85468,0.21741
2728.78315,0.21985
2730.71162,0.21771
2732.64009,0.21451
2734.56856,0.21407
2736.49703,0.21596
2738.42550,0.21788
2740.35396,0.21853
2742.28243,0.21778
2744.21090,0.21501
2746.13937,0.21317
2748.06784,0.21552
2749.99631,0.21934
2751.92478,0.21979
2753.85325,0.21621
2755.78171,0.21339
2757.71018,0.21473
2759.63865,0.21679
2761.56712,0.21759
2763.49559,0.22077
2765.42406,0.22545
2767.35253,0.22756
2769.28099,0.22722
2771.20946,0.22513
2773.13793,0.22244
2775.06640,0.22043
2776.99487,0.21833
2778.92334,0.21840
2780.85181,0.22101
2782.78028,0.22140
2784.70874,0.22066
2786.63721,0.22261
2788.56568,0.22483
2790.49415,0.22500
2792.42262,0.22641
2794.35109,0.22963
2796.27956,0.22956
2798.20802,0.22712
2800.13649,0.22804
2802.06496,0.23030
2803.99343,0.22898
2805.92190,0.22620
2807.85037,0.22545
2809.77884,0.22558
2811.70731,0.22715
2813.63577,0.23053
2815.56424,0.23089
2817.49271,0.22850
2819.42118,0.22821
2821.34965,0.23040
2823.27812,0.23125
2825.20659,0.22769
2827.13505,0.22399
2829.06352,0.22446
2830.99199,0.22760
2832.92046,0.23150
2834.84893,0.23279
2836.77740,0.23079
2838.70587,0.22919
2840.63433,0.23043
2842.56280,0.23233
2844.49127,0.23078
2846.41974,0.22765
2848.34821,0.22604
2850.27668,0.22417
2852.20515,0.22139
2854.13362,0.21964
2856.06208,0.22104
2857.99055,0.22507
2859.91902,0.22705
2861.84749,0.22581
2863.77596,0.22509
2865.70443,0.22490
2867.63290,0.22383
2869.56136,0.22326
2871.48983,0.22407
2873.41830,0.22568
2875.34677,0.22697
2877.27524,0.22690
2879.20371,0.22653
2881.13218,0.22810
2883.06065,0.23063
2884.98911,0.23197
2886.91758,0.23310
2888.84605,0.23389
2890.77452,0.23156
2892.70299,0.22745
2894.63146,0.22506
2896.55993,0.22376
2898.48839,0.22283
2900.41686,0.22313
2902.34533,0.22468
2904.27380,0.22683
2906.20227,0.22800
2908.13074,0.22697
2910.05921,0.22572
2911.98768,0.22648
2913.91614,0.22635
2915.84461,0.22577
2917.77308,0.22934
2919.70155,0.23211
2921.63002,0.22915
2923.55849,0.22549
2925.48696,0.22715
2927.41542,0.23448
2929.34389,0.23781
2931.27236,0.23274
2933.20083,0.22921
2935.12930,0.22988
2937.05777,0.23023
2938.98624,0.22945
2940.91471,0.22820
2942.84317,0.22762
2944.77164,0.22695
2946.70011,0.22508
2948.62858,0.22371
2950.55705,0.22668
2952.48552,0.23309
2954.41399,0.23559
2956.34245,0.23184
2958.27092,0.22777
2960.19939,0.22718
2962.12786,0.22872
2964.05633,0.23097
2965.98480,0.23373
2967.91327,0.23707
2969.84174,0.23730
2971.77020,0.23240
2973.69867,0.22843
2975.62714,0.22818
2977.55561,0.22918
2979.48408,0.22993
2981.41255,0.23044
2983.34102,0.23101
2985.26948,0.23087
2987.19795,0.23057
2989.12642,0.23155
2991.05489,0.23258
2992.98336,0.23139
2994.91183,0.22994
2996.84030,0.23188
2998.76877,0.23474
3000.69723,0.23354
3002.62570,0.23074
3004.55417,0.23147
3006.48264,0.23553
3008.41111,0.23930
3010.33958,0.23794
3012.26805,0.23297
3014.19651,0.23161
3016.12498,0.23472
3018.05345,0.23733
3019.98192,0.23644
3021.91039,0.23501
3023.83886,0.23426
3025.76733,0.23078
3027.69579,0.22584
3029.62426,0.22294
3031.55273,0.22292
3033.48120,0.22491
3035.40967,0.22603
3037.33814,0.22470
3039.26661,0.22279
3041.19508,0.22243
3043.12354,0.22415
3045.05201,0.22715
3046.98048,0.22955
3048.90895,0.23059
3050.83742,0.23168
3052.76589,0.23316
3054.69436,0.23362
3056.62282,0.23352
3058.55129,0.23409
3060.47976,0.23334
3062.40823,0.22991
3064.33670,0.22706
3066.26517,0.22584
3068.19364,0.22462
3070.12211,0.22514
3072.05057,0.22728
3073.97904,0.22890
3075.90751,0.23076
3077.83598,0.23345
3079.76445,0.23544
3081.69292,0.23617
3083.62139,0.23847
3085.54985,0.24203
3087.47832,0.24025
3089.40679,0.23240
3091.33526,0.22807
3093.26373,0.23175
3095.19220,0.23619
3097.12067,0.23754
3099.04914,0.23867
3100.97760,0.23784
3102.90607,0.23265
3104.83454,0.22932
3106.76301,0.23344
3108.69148,0.23871
3110.61995,0.23849
3112.54842,0.23839
3114.47688,0.24279
3116.40535,0.24331
3118.33382,0.23456
3120.26229,0.22614
3122.19076,0.22627
3124.11923,0.23077
3126.04770,0.23441
3127.97617,0.23637
3129.90463,0.23469
3131.83310,0.23054
3133.76157,0.23066
3135.69004,0.23615
3137.61851,0.24188
3139.54698,0.24500
3141.47545,0.24476
3143.40391,0.24194
3145.33238,0.23619
3147.26085,0.22972
3149.18932,0.23088
3151.11779,0.23734
3153.04626,0.24132
3154.97473,0.24364
3156.90320,0.24147
3158.83166,0.23342
3160.76013,0.22742
3162.68860,0.22813
3164.61707,0.23429
3166.54554,0.24157
3168.47401,0.24462
3170.40248,0.24382
3172.33094,0.24287
3174.25941,0.24196
3176.18788,0.24168
3178.11635,0.24306
3180.04482,0.24413
3181.97329,0.24422
3183.90176,0.24245
3185.83022,0.23804
3187.75869,0.23549
3189.68716,0.23609
3191.61563,0.23586
3193.54410,0.23469
3195.47257,0.23523
3197.40104,0.23934
3199.32951,0.24266
3201.25797,0.23925
3203.18644,0.23361
3205.11491,0.23147
3207.04338,0.23242
3208.97185,0.23537
3210.90032,0.23922
3212.82879,0.24225
3214.75725,0.24156
3216.68572,0.23724
3218.61419,0.23526
3220.54266,0.23719
3222.47113,0.23717
3224.39960,0.23358
3226.32807,0.23234
3228.25654,0.23547
3230.18500,0.23873
3232.11347,0.24114
3234.04194,0.24178
3235.97041,0.23740
3237.89888,0.22974
3239.82735,0.22533
3241.75582,0.23117
3243.68428,0.24454
3245.61275,0.25201
3247.54122,0.24813
3249.46969,0.24012
3251.39816,0.23436
3253.32663,0.22989
3255.25510,0.22506
3257.18357,0.22487
3259.11203,0.23208
3261.04050,0.23933
3262.96897,0.24020
3264.89744,0.23540
3266.82591,0.22913
3268.75438,0.22542
3270.68285,0.22404
3272.61131,0.22384
3274.53978,0.22514
3276.46825,0.22740
3278.39672,0.22829
3280.32519,0.22648
3282.25366,0.22676
3284.18213,0.23332
3286.11060,0.24018
3288.03906,0.24094
3289.96753,0.23580
3291.89600,0.22702
3293.82447,0.22217
3295.75294,0.22670
3297.68141,0.23499
3299.60988,0.23902
3301.53834,0.23632
3303.46681,0.23243
3305.39528,0.23211
3307.32375,0.23363
3309.25222,0.23521
3311.18069,0.23437
3313.10916,0.23115
3315.03763,0.22823
3316.96609,0.22735
3318.89456,0.23326
3320.82303,0.24180
3322.75150,0.24170
3324.67997,0.23814
3326.60844,0.24069
3328.53691,0.24372
3330.46537,0.24187
3332.39384,0.24006
3334.32231,0.24162
3336.25078,0.24125
3338.17925,0.23344
3340.10772,0.22580
3342.03619,0.22859
3343.96466,0.23580
3345.89312,0.23859
3347.82159,0.24033
3349.75006,0.24101
3351.67853,0.23874
3353.60700,0.24018
3355.53547,0.24182
3357.46394,0.23887
3359.39240,0.24169
3361.32087,0.24982
3363.24934,0.25189
3365.17781,0.24916
3367.10628,0.24744
3369.03475,0.24707
3370.96322,0.24664
3372.89168,0.24377
3374.82015,0.24074
3376.74862,0.23920
3378.67709,0.23605
3380.60556,0.23265
3382.53403,0.23129
3384.46250,0.23268
3386.39097,0.23611
3388.31943,0.23885
3390.24790,0.23959
3392.17637,0.23709
3394.10484,0.23166
3396.03331,0.22931
3397.96178,0.23145
3399.89025,0.22879
3401.81871,0.22145
3403.74718,0.21929
3405.67565,0.22438
3407.60412,0.23125
3409.53259,0.23226
3411.46106,0.22909
3413.38953,0.22953
3415.31800,0.23027
3417.24646,0.22913
3419.17493,0.23343
3421.10340,0.23975
3423.03187,0.24034
3424.96034,0.23712
3426.88881,0.23313
3428.81728,0.23180
3430.74574,0.22997
3432.67421,0.22473
3434.60268,0.22284
3436.53115,0.22465
3438.45962,0.22476
3440.38809,0.22320
3442.31656,0.22421
3444.24503,0.22511
3446.17349,0.22040
3448.10196,0.21689
3450.03043,0.21860
3451.95890,0.22011
3453.88737,0.22115
3455.81584,0.22175
3457.74431,0.22008
3459.67277,0.21679
3461.60124,0.21324
3463.52971,0.21093
3465.45818,0.21104
3467.38665,0.21458
3469.31512,0.21855
3471.24359,0.21939
3473.17206,0.22123
3475.10052,0.22367
3477.02899,0.22133
3478.95746,0.21782
3480.88593,0.21653
3482.81440,0.21688
3484.74287,0.21675
3486.67134,0.21086
3488.59980,0.20209
3490.52827,0.19788
3492.45674,0.19775
3494.38521,0.19903
3496.31368,0.20006
3498.24215,0.20095
3500.17062,0.20246
3502.09909,0.20310
3504.02755,0.20209
3505.95602,0.20054
3507.88449,0.19884
3509.81296,0.19700
3511.74143,0.19685
3513.66990,0.19716
3515.59837,0.19489
3517.52683,0.19324
3519.45530,0.19532
3521.38377,0.19733
3523.31224,0.19569
3525.24071,0.19463
3527.16918,0.19900
3529.09765,0.20299
3531.02611,0.19842
3532.95458,0.18740
3534.88305,0.17973
3536.81152,0.18121
3538.73999,0.18456
3540.66846,0.18336
3542.59693,0.18229
3544.52540,0.18631
3546.45386,0.19040
3548.38233,0.18937
3550.31080,0.19226
3552.23927,0.19908
3554.16774,0.19605
3556.09621,0.18559
3558.02468,0.17933
3559.95314,0.17839
3561.88161,0.17862
3563.81008,0.18192
3565.73855,0.19112
3567.66702,0.19668
3569.59549,0.19211
3571.52396,0.18705
3573.45243,0.18474
3575.38089,0.18148
3577.30936,0.17732
3579.23783,0.17453
3581.16630,0.17071
3583.09477,0.16762
3585.02324,0.17128
3586.95171,0.18214
3588.88017,0.18816
3590.80864,0.18439
3592.73711,0.17938
3594.66558,0.17538
3596.59405,0.17093
3598.52252,0.16802
3600.45099,0.16749
3602.37946,0.16848
3604.30792,0.17263
3606.23639,0.17839
3608.16486,0.18094
3610.09333,0.17953
3612.02180,0.17476
3613.95027,0.16637
3615.87874,0.16148
3617.80720,0.16474
3619.73567,0.16940
3621.66414,0.16942
3623.59261,0.16864
3625.52108,0.17044
3627.44955,0.17585
3629.37802,0.17445
3631.30649,0.16490
3633.23495,0.16328
3635.16342,0.16671
3637.09189,0.16685
3639.02036,0.16289
3640.94883,0.15857
3642.87730,0.15764
3644.80577,0.16068
3646.73423,0.16274
3648.66270,0.16151
3650.59117,0.16202
3652.51964,0.15902
3654.44811,0.15472
3656.37658,0.15109
3658.30505,0.14762
3660.23352,0.14776
3662.16198,0.15029
3664.09045,0.15331
3666.01892,0.15757
3667.94739,0.16441
3669.87586,0.16998
3671.80433,0.16731
3673.73280,0.16644
3675.66126,0.16660
3677.58973,0.15892
3679.51820,0.15132
3681.44667,0.14619
3683.37514,0.14515
3685.30361,0.14993
3687.23208,0.15623
3689.16055,0.15736
3691.08901,0.15419
3693.01748,0.15030
3694.94595,0.14689
3696.87442,0.14665
3698.80289,0.14990
3700.73136,0.15031
3702.65983,0.14134
3704.58829,0.13189
3706.51676,0.13258
3708.44523,0.14437
3710.37370,0.15819
3712.30217,0.15990
3714.23064,0.15909
3716.15911,0.16618
3718.08757,0.17417
3720.01604,0.17116
3721.94451,0.15564
3723.87298,0.14158
3725.80145,0.13898
3727.72992,0.14172
3729.65839,0.14686
3731.58686,0.15689
3733.51532,0.16587
3735.44379,0.16609
3737.37226,0.15769
3739.30073,0.14959
3741.22920,0.14625
3743.15767,0.14509
3745.08614,0.15004
3747.01460,0.16338
3748.94307,0.17686
3750.87154,0.17577
3752.80001,0.15444
3754.72848,0.14135
3756.65695,0.14135
3758.58542,0.14476
3760.51389,0.14372
3762.44235,0.14247
3764.37082,0.14501
3766.29929,0.14681
3768.22776,0.14416
3770.15623,0.13961
3772.08470,0.13625
3774.01317,0.13703
3775.94163,0.14376
3777.87010,0.15114
3779.79857,0.14853
3781.72704,0.14140
3783.65551,0.14170
3785.58398,0.14544
3787.51245,0.14606
3789.44092,0.14291
3791.36938,0.13645
3793.29785,0.13212
3795.22632,0.13355
3797.15479,0.13462
3799.08326,0.13382
3801.01173,0.13391
3802.94020,0.13260
3804.86866,0.13535
3806.79713,0.14227
3808.72560,0.14344
3810.65407,0.13882
3812.58254,0.13720
3814.51101,0.14454
3816.43948,0.15219
3818.36795,0.14868
3820.29641,0.14622
3822.22488,0.14930
3824.15335,0.14921
3826.08182,0.14364
3828.01029,0.13854
3829.93876,0.13996
3831.86723,0.14137
3833.79569,0.13951
3835.72416,0.14155
3837.65263,0.14735
3839.58110,0.14615
3841.50957,0.14145
3843.43804,0.14308
3845.36651,0.14487
3847.29498,0.14108
3849.22344,0.13836
3851.15191,0.14128
3853.08038,0.14035
3855.00885,0.13194
3856.93732,0.13058
3858.86579,0.13284
3860.79426,0.13813
3862.72272,0.14668
3864.65119,0.15200
3866.57966,0.15121
3868.50813,0.14918
3870.43660,0.14352
3872.36507,0.13304
3874.29354,0.12027
3876.22200,0.11048
3878.15047,0.11395
3880.07894,0.12861
3882.00741,0.13651
3883.93588,0.13590
3885.86435,0.13503
3887.79282,0.13291
3889.72129,0.13228
3891.64975,0.12986
3893.57822,0.12283
3895.50669,0.12173
3897.43516,0.12570
3899.36363,0.12701
3901.29210,0.12874
3903.22057,0.13527
3905.14903,0.13727
3907.07750,0.13346
3909.00597,0.13204
3910.93444,0.13042
3912.86291,0.12553
3914.79138,0.12291
3916.71985,0.12248
3918.64832,0.12167
3920.57678,0.12383
3922.50525,0.12665
3924.43372,0.12482
3926.36219,0.11973
3928.29066,0.11526
3930.21913,0.11428
3932.14760,0.11895
3934.07606,0.12520
3936.00453,0.12866
3937.93300,0.12714
3939.86147,0.12325
3941.78994,0.12302
3943.71841,0.12575
3945.64688,0.12998
3947.57535,0.13306
3949.50381,0.12982
3951.43228,0.12440
3953.36075,0.12136
3955.28922,0.11757
3957.21769,0.11469
3959.14616,0.11622
3961.07463,0.11710
3963.00309,0.11638
3964.93156,0.11894
3966.86003,0.12006
3968.78850,0.11593
3970.71697,0.11264
3972.64544,0.11295
3974.57391,0.11578
3976.50238,0.11766
3978.43084,0.11460
3980.35931,0.11060
3982.28778,0.10851
3984.21625,0.10723
3986.14472,0.10856
3988.07319,0.11343
3990.00166,0.11658
3991.93012,0.11190
3993.85859,0.10490
3995.78706,0.10321
3997.71553,0.10400
3999.64400,0.10335
4001.57247,0.10319
4003.50094,0.10730
4005.42941,0.11257
4007.35787,0.11260
4009.28634,0.10915
4011.21481,0.10529
4013.14328,0.10045
4015.07175,0.09926
4017.00022,0.10453
4018.92869,0.11029
4020.85715,0.11366
4022.78562,0.11357
4024.71409,0.10642
4026.64256,0.09776
4028.57103,0.09487
4030.49950,0.09595
4032.42797,0.09861
4034.35644,0.10147
4036.28490,0.10202
4038.21337,0.09925
4040.14184,0.09632
4042.07031,0.09730
4043.99878,0.10290
4045.92725,0.10893
4047.85572,0.11024
4049.78418,0.10981
4051.71265,0.10979
4053.64112,0.10681
4055.56959,0.10238
4057.49806,0.09865
4059.42653,0.09518
4061.35500,0.09439
4063.28346,0.09553
4065.21193,0.09399
4067.14040,0.09136
4069.06887,0.09103
4070.99734,0.09324
4072.92581,0.09747
4074.85428,0.09900
4076.78275,0.09494
4078.71121,0.09168
4080.63968,0.09159
4082.56815,0.09017
4084.49662,0.09005
4086.42509,0.09447
4088.35356,0.09985
4090.28203,0.10216
4092.21049,0.10016
4094.13896,0.09920
4096.06743,0.10129
4097.99590,0.09893
4099.92437,0.09231
4101.85284,0.08824
4103.78131,0.08825
4105.70978,0.09235
4107.63824,0.09862
4109.56671,0.10106
4111.49518,0.09726
4113.42365,0.09193
4115.35212,0.09016
4117.28059,0.09060
4119.20906,0.09188
4121.13752,0.09569
4123.06599,0.09920
4124.99446,0.10084
4126.92293,0.10094
4128.85140,0.09608
4130.77987,0.09076
4132.70834,0.09217
4134.63681,0.09481
4136.56527,0.09172
4138.49374,0.08617
4140.42221,0.08387
4142.35068,0.08428
4144.27915,0.08350
4146.20762,0.08300
4148.13609,0.08622
4150.06455,0.08978
4151.99302,0.09078
4153.92149,0.09219
4155.84996,0.09404
4157.77843,0.09335
4159.70690,0.09185
4161.63537,0.09099
4163.56384,0.08819
4165.49230,0.08481
4167.42077,0.08343
4169.34924,0.08273
4171.27771,0.08212
4173.20618,0.08077
4175.13465,0.07926
4177.06312,0.08492
4178.99158,0.09551
4180.92005,0.09369
4182.84852,0.08160
4184.77699,0.07877
4186.70546,0.08264
4188.63393,0.08084
4190.56240,0.07646
4192.49087,0.07407
4194.41933,0.07410
4196.34780,0.08026
4198.27627,0.08574
4200.20474,0.08133
4202.13321,0.07635
4204.06168,0.07321
4205.99015,0.06630
4207.91861,0.06130
4209.84708,0.06120
4211.77555,0.06428
4213.70402,0.06502
4215.63249,0.06061
4217.56096,0.05899
4219.48943,0.06235
4221.41789,0.06391
4223.34636,0.06211
4225.27483,0.06208
4227.20330,0.06346
4229.13177,0.06333
4231.06024,0.06293
4232.98871,0.06562
4234.91718,0.07122
4236.84564,0.07284
4238.77411,0.07071
4240.70258,0.06491
4242.63105,0.05307
4244.55952,0.04834
4246.48799,0.05558
4248.41646,0.06139
4250.34492,0.06103
4252.27339,0.05776
4254.20186,0.05526
4256.13033,0.05810
4258.05880,0.06356
4259.98727,0.06763
4261.91574,0.06843
4263.84421,0.06330
4265.77267,0.05831
4267.70114,0.05709
4269.62961,0.05232
4271.55808,0.04420
4273.48655,0.03996
4275.41502,0.04411
4277.34349,0.05428
4279.27195,0.05892
4281.20042,0.05310
4283.12889,0.04658
4285.05736,0.04928
4286.98583,0.05793
4288.91430,0.05970
4290.84277,0.05039
4292.77124,0.04084
4294.69970,0.04054
4296.62817,0.04318
4298.55664,0.04209
4300.48511,0.04084
4302.41358,0.04009
4304.34205,0.03647
4306.27052,0.03101
4308.19898,0.03202
4310.12745,0.03911
4312.05592,0.03901
4313.98439,0.03218
4315.91286,0.03102
4317.84133,0.03809
4319.76980,0.04705
4321.69827,0.05080
4323.62673,0.04671
4325.55520,0.04162
4327.48367,0.04250
4329.41214,0.04444
4331.34061,0.04425
4333.26908,0.04617
4335.19755,0.04536
4337.12601,0.03661
4339.05448,0.03101
4340.98295,0.03541
4342.91142,0.03806
4344.83989,0.03494
4346.76836,0.03607
4348.69683,0.03858
4350.62530,0.03640
4352.55376,0.03402
4354.48223,0.03158
4356.41070,0.02684
4358.33917,0.02438
4360.26764,0.02942
4362.19611,0.03749
4364.12458,0.04065
4366.05304,0.04015
4367.98151,0.04021
4369.90998,0.04105
4371.83845,0.04097
4373.76692,0.03806
4375.69539,0.03083
4377.62386,0.01894
4379.55232,0.00898
4381.48079,0.00938
4383.40926,0.01548
4385.33773,0.01857
4387.26620,0.01970
4389.19467,0.02541
4391.12314,0.03511
4393.05161,0.03759
4394.98007,0.03243
4396.90854,0.03100
4398.83701,0.03466
4400.76548,0.03840
4402.69395,0.03907
4404.62242,0.03716
4406.55089,0.03633
4408.47935,0.03364
4410.40782,0.02812
4412.33629,0.02851
4414.26476,0.03432
4416.19323,0.03756
4418.12170,0.03467
4420.05017,0.02809
4421.97864,0.02483
4423.90710,0.02413
4425.83557,0.02121
4427.76404,0.01679
4429.69251,0.01283
4431.62098,0.01058
4433.54945,0.01216
4435.47792,0.01519
4437.40638,0.01506
4439.33485,0.01700
4441.26332,0.02196
4443.19179,0.02004
4445.12026,0.01403
4447.04873,0.01092
4448.97720,0.00939
4450.90567,0.01271
4452.83413,0.01911
4454.76260,0.02243
4456.69107,0.02539
4458.61954,0.02884
4460.54801,0.02912
4462.47648,0.02216
4464.40495,0.01175
4466.33341,0.00391
4468.26188,-0.00404
4470.19035,-0.00816
4472.11882,-0.00288
4474.04729,0.00718
4475.97576,0.01582
4477.90423,0.01806
4479.83270,0.01779
4481.76116,0.01971
4483.68963,0.01554
4485.61810,0.00945
4487.54657,0.01187
4489.47504,0.01359
4491.40351,0.01365
4493.33198,0.01548
4495.26044,0.00955
4497.18891,0.00039
4499.11738,0.00028
4501.04585,0.00433
4502.97432,0.00314
4504.90279,0.00036
4506.83126,0.00781
4508.75973,0.02482
4510.68819,0.03464
4512.61666,0.03259
4514.54513,0.02863
4516.47360,0.02482
4518.40207,0.01986
4520.33054,0.01723
4522.25901,0.01463
4524.18747,0.00841
4526.11594,0.00612
4528.04441,0.00947
4529.97288,0.00748
4531.90135,0.00170
4533.82982,0.00134
4535.75829,0.00283
4537.68676,0.00315
4539.61522,0.00527
4541.54369,0.00569
4543.47216,0.00129
4545.40063,-0.00449
4547.32910,-0.00756
4549.25757,-0.00876
4551.18604,-0.00929
4553.11450,-0.00560
4555.04297,0.00206
4556.97144,0.00731
4558.89991,0.00664
4560.82838,0.00656
4562.75685,0.01230
4564.68532,0.01734
4566.61378,0.01911
4568.54225,0.02136
4570.47072,0.01903
4572.39919,0.00856
4574.32766,0.00124
4576.25613,0.00535
4578.18460,0.01202
4580.11307,0.00627
4582.04153,-0.01018
4583.97000,-0.01503
4585.89847,-0.00361
4587.82694,0.00796
4589.75541,0.01448
4591.68388,0.01432
4593.61235,0.00416
4595.54081,-0.00701
4597.46928,-0.00941
4599.39775,-0.00591
4601.32622,0.00260
4603.25469,0.01454
4605.18316,0.01781
4607.11163,0.01471
4609.04010,0.01514
4610.96856,0.01406
4612.89703,0.00665
4614.82550,-0.00236
4616.75397,-0.00649
4618.68244,-0.00523
4620.61091,-0.00220
4622.53938,0.00392
4624.46784,0.01292
4626.39631,0.01564
4628.32478,0.01207
4630.25325,0.00895
4632.18172,0.00040
4634.11019,-0.01056
4636.03866,-0.00786
4637.96713,0.00909
4639.89559,0.01889
4641.82406,0.00845
4643.75253,-0.00655
4645.68100,-0.00685
4647.60947,0.00500
4649.53794,0.01469
4651.46641,0.01401
4653.39487,0.00667
4655.32334,-0.00179
4657.25181,-0.01235
4659.18028,-0.02037
4661.10875,-0.01272
4663.03722,0.00695
4664.96569,0.01223
4666.89416,0.00190
4668.82262,-0.00506
4670.75109,-0.01725
4672.67956,-0.03146
4674.60803,-0.02063
4676.53650,0.00133
4678.46497,0.00948
4680.39344,0.01168
4682.32190,0.00690
4684.25037,-0.00416
4686.17884,-0.00535
4688.10731,0.00489
4690.03578,0.01455
4691.96425,0.01323
4693.89272,0.00805
4695.82119,0.00797
4697.74965,0.01446
4699.67812,0.02204
4701.60659,0.02497
4703.53506,0.02152
4705.46353,0.01125
4707.39200,-0.00378
4709.32047,-0.01145
4711.24893,-0.00336
4713.17740,0.00323
4715.10587,-0.00247
4717.03434,-0.00581
4718.96281,-0.00163
4720.89128,0.00119
4722.81975,-0.00074
4724.74821,-0.00334
4726.67668,-0.00194
4728.60515,-0.00073
4730.53362,-0.00366
4732.46209,-0.00003
4734.39056,0.01121
4736.31903,0.01258
4738.24750,0.00532
4740.17596,0.00074
4742.10443,-0.00065
4744.03290,0.00581
4745.96137,0.01453
4747.88984,0.01121
4749.81831,0.00363
4751.74678,-0.00011
4753.67524,-0.00204
4755.60371,0.00476
4757.53218,0.01123
4759.46065,0.00283
4761.38912,-0.00625
4763.31759,-0.00068
4765.24606,0.01213
4767.17453,0.01932
4769.10299,0.01896
4771.03146,0.01157
4772.95993,-0.00313
4774.88840,-0.01316
4776.81687,-0.01523
4778.74534,-0.01878
4780.67381,-0.01916
4782.60227,-0.01332
4784.53074,-0.00782
4786.45921,-0.00314
4788.38768,-0.00020
4790.31615,-0.00157
4792.24462,-0.00779
4794.17309,-0.01615
4796.10156,-0.02037
4798.03002,-0.01081
4799.95849,0.00536
4801.88696,0.00684
4803.81543,-0.00407
4805.74390,-0.00932
4807.67237,-0.00801
4809.60084,-0.00989
4811.52930,-0.01081
4813.45777,-0.00315
4815.38624,0.00677
4817.31471,0.01371
4819.24318,0.01875
4821.17165,0.02408
4823.10012,0.03379
4825.02859,0.04611
4826.95705,0.05103
4828.88552,0.04320
4830.81399,0.02609
4832.74246,0.00412
4834.67093,-0.00576
4836.59940,0.00511
4838.52787,0.01251
4840.45633,0.01063
4842.38480,0.01391
4844.31327,0.01520
4846.24174,0.00898
4848.17021,0.00496
4850.09868,0.00848
4852.02715,0.01135
4853.95562,0.00898
4855.88408,0.00997
4857.81255,0.01365
4859.74102,0.00816
4861.66949,-0.00703
4863.59796,-0.01790
4865.52643,-0.01587
4867.45490,-0.00247
4869.38336,0.01506
4871.31183,0.02505
4873.24030,0.02149
4875.16877,0.01138
4877.09724,-0.00021
4879.02571,-0.01661
4880.95418,-0.02872
4882.88265,-0.02648
4884.81111,-0.01818
4886.73958,-0.01298
4888.66805,-0.00827
4890.59652,-0.00342
4892.52499,-0.00604
4894.45346,-0.00765
4896.38193,-0.00523
4898.31039,-0.01464
4900.23886,-0.02450
4902.16733,-0.01546
4904.09580,0.00689
4906.02427,0.02816
4907.95274,0.03673
4909.88121,0.03100
4911.80967,0.01747
4913.73814,0.00364
4915.66661,-0.00191
4917.59508,0.00225
4919.52355,0.00591
4921.45202,0.00575
4923.38049,0.00479
4925.30896,0.00392
4927.23742,0.00165
4929.16589,-0.00874
4931.09436,-0.02025
4933.02283,-0.01758
4934.95130,0.00036
4936.87977,0.01379
4938.80824,0.00369
4940.73670,-0.00605
4942.66517,0.00677
4944.59364,0.01889
4946.52211,0.01185
4948.45058,-0.00195
4950.37905,-0.00779
4952.30752,-0.00430
4954.23599,0.00160
4956.16445,-0.00261
4958.09292,-0.01169
4960.02139,-0.00198
4961.94986,0.02088
4963.87833,0.02772
4965.80680,0.01550
4967.73527,0.00372
4969.66373,0.00232
4971.59220,0.01057
4973.52067,0.01904
4975.44914,0.01616
4977.37761,0.00569
4979.30608,-0.00529
4981.23455,-0.00880
4983.16302,0.00151
4985.09148,0.01216
4987.01995,0.00950
4988.94842,0.00345
4990.87689,0.00667
4992.80536,0.00635
4994.73383,-0.00666
4996.66230,-0.01507
4998.59076,-0.00691
5000.51923,0.01105
5002.44770,0.02159
5004.37617,0.01267
5006.30464,-0.00139
5008.23311,-0.00138
5010.16158,0.00733
5012.09005,0.00716
5014.01851,0.00426
5015.94698,0.00953
5017.87545,0.00381
5019.80392,-0.01465
5021.73239,-0.01790
5023.66086,-0.00464
5025.58933,0.00863
5027.51779,0.02082
5029.44626,0.02736
5031.37473,0.01927
5033.30320,0.01033
5035.23167,0.00997
5037.16014,0.00774
5039.08861,0.00733
5041.01708,0.01525
5042.94554,0.02122
5044.87401,0.02371
5046.80248,0.03001
5048.73095,0.02103
5050.65942,-0.00831
5052.58789,-0.01612
5054.51636,-0.00045
5056.44482,0.00600
5058.37329,0.01171
5060.30176,0.02889
5062.23023,0.04103
5064.15870,0.02996
5066.08717,0.00250
5068.01564,-0.01256
5069.94410,-0.00662
5071.87257,0.00531
5073.80104,0.00849
5075.72951,0.01056
5077.65798,0.02405
5079.58645,0.02529
5081.51492,0.00370
5083.44339,-0.00599
5085.37185,0.01568
5087.30032,0.04371
5089.22879,0.04916
5091.15726,0.03256
5093.08573,0.01050
5095.01420,0.00019
5096.94267,-0.00073
5098.87113,-0.00435
5100.79960,-0.00523
5102.72807,0.00216
5104.65654,0.01278
5106.58501,0.02340
5108.51348,0.02812
5110.44195,0.02002
5112.37042,0.01107
5114.29888,0.01531
5116.22735,0.02389
5118.15582,0.02699
5120.08429,0.02821
5122.01276,0.02828
5123.94123,0.02129
5125.86970,0.01702
5127.79816,0.03141
5129.72663,0.04885
5131.65510,0.04257
5133.58357,0.01445
5135.51204,-0.01051
5137.44051,-0.01289
5139.36898,-0.00244
5141.29745,0.00575
5143.22591,0.01793
5145.15438,0.02825
5147.08285,0.01781
5149.01132,0.00619
5150.93979,0.01774
5152.86826,0.02654
5154.79673,0.02494
5156.72519,0.03114
5158.65366,0.03401
5160.58213,0.03623
5162.51060,0.04687
5164.43907,0.05123
5166.36754,0.04055
5168.29601,0.02842
5170.22448,0.03253
5172.15294,0.04777
5174.08141,0.05519
5176.00988,0.05130
5177.93835,0.05430
5179.86682,0.06915
5181.79529,0.06922
5183.72376,0.04103
5185.65222,0.01221
5187.58069,0.00625
5189.50916,0.01007
5191.43763,0.01894
5193.36610,0.03083
5195.29457,0.03463
5197.22304,0.03681
5199.15151,0.04023
5201.07997,0.03611
5203.00844,0.02716
5204.93691,0.01245
5206.86538,-0.00412
5208.79385,0.00150
5210.72232,0.01892
5212.65079,0.02298
5214.57925,0.02229
5216.50772,0.03405
5218.43619,0.04165
5220.36466,0.02186
5222.29313,0.00571
5224.22160,0.02164
5226.15007,0.04337
5228.07854,0.04473
5230.00700,0.03659
5231.93547,0.02999
5233.86394,0.02453
5235.79241,0.02081
5237.72088,0.02375
5239.64935,0.03224
5241.57782,0.04059
5243.50628,0.05095
5245.43475,0.06183
5247.36322,0.06651
5249.29169,0.06293
5251.22016,0.04689
5253.14863,0.02945
5255.07710,0.03210
5257.00556,0.04247
5258.93403,0.03625
5260.86250,0.02562
5262.79097,0.02563
5264.71944,0.02947
5266.64791,0.03439
5268.57638,0.03988
5270.50485,0.04115
5272.43331,0.03156
5274.36178,0.01109
5276.29025,0.00000
5278.21872,0.01687
5280.14719,0.04715
5282.07566,0.05100
5284.00413,0.02419
5285.93259,0.01470
5287.86106,0.03276
5289.78953,0.04161
5291.71800,0.03651
5293.64647,0.03126
5295.57494,0.02443
5297.50341,0.01978
5299.43188,0.01525
5301.36034,0.00639
5303.28881,0.00531
5305.21728,0.02109
5307.14575,0.05132
5309.07422,0.07821
5311.00269,0.08625
5312.93116,0.07777
5314.85962,0.05983
5316.78809,0.04801
5318.71656,0.04618
5320.64503,0.04161
5322.57350,0.02921
5324.50197,0.02141
5326.43044,0.02475
5328.35891,0.02908
5330.28737,0.04629
5332.21584,0.07629
5334.14431,0.07999
5336.07278,0.04999
5338.00125,0.02304
5339.92972,0.01888
5341.85819,0.02806
5343.78665,0.05059
5345.71512,0.06451
5347.64359,0.05810
5349.57206,0.05951
5351.50053,0.05993
5353.42900,0.04345
5355.35747,0.03001
5357.28594,0.02982
5359.21440,0.03303
5361.14287,0.02548
5363.07134,0.00131
5364.99981,-0.00900
5366.92828,0.02307
5368.85675,0.06746
5370.78522,0.08137
5372.71368,0.06577
5374.64215,0.05561
5376.57062,0.05924
5378.49909,0.03996
5380.42756,0.00502
5382.35603,-0.00562
5384.28450,0.01109
5386.21297,0.01942
5388.14143,0.02131
5390.06990,0.03883
5391.99837,0.05181
5393.92684,0.05081
5395.85531,0.04494
5397.78378,0.03658
5399.71225,0.04501
5401.64071,0.07040
5403.56918,0.08788
5405.49765,0.08809
5407.42612,0.08494
5409.35459,0.08953
5411.28306,0.08565
5413.21153,0.08542
5415.13999,0.10492
5417.06846,0.10682
5418.99693,0.08481
5420.92540,0.05781
5422.85387,0.04970
5424.78234,0.06903
5426.71081,0.07229
5428.63928,0.03886
5430.56774,0.02305
5432.49621,0.04379
5434.42468,0.05769
5436.35315,0.05341
5438.28162,0.05610
5440.21009,0.05418
5442.13856,0.03905
5444.06702,0.03679
5445.99549,0.04516
5447.92396,0.04711
5449.85243,0.05226
5451.78090,0.05836
5453.70937,0.05380
5455.63784,0.03713
5457.56631,0.01816
5459.49477,0.02303
5461.42324,0.04457
5463.35171,0.05485
5465.28018,0.05849
5467.20865,0.06232
5469.13712,0.06500
5471.06559,0.07401
5472.99405,0.08641
5474.92252,0.08370
5476.85099,0.06404
5478.77946,0.05032
5480.70793,0.05714
5482.63640,0.08363
5484.56487,0.09562
5486.49334,0.07250
5488.42180,0.04935
5490.35027,0.04743
5492.27874,0.03853
5494.20721,0.02065
5496.13568,0.03041
5498.06415,0.04935
5499.99262,0.04222
5501.92108,0.03536
5503.84955,0.04838
5505.77802,0.05931
5507.70649,0.06570
5509.63496,0.08030
5511.56343,0.09553
5513.49190,0.09528
5515.42037,0.07365
5517.34883,0.04188
5519.27730,0.01820
5521.20577,0.02021
5523.13424,0.04744
5525.06271,0.06242
5526.99118,0.05450
5528.91965,0.05170
5530.84811,0.05501
5532.77658,0.05816
5534.70505,0.07499
5536.63352,0.09463
5538.56199,0.09405
5540.49046,0.08453
5542.41893,0.07018
5544.34740,0.05693
5546.27586,0.06194
5548.20433,0.06592
5550.13280,0.05695
5552.06127,0.05426
5553.98974,0.07081
5555.91821,0.08301
5557.84668,0.06601
5559.77514,0.04647
5561.70361,0.03690
5563.63208,0.02197
5565.56055,0.01211
5567.48902,0.02660
5569.41749,0.05388
5571.34596,0.06899
5573.27443,0.08102
5575.20289,0.08940
5577.13136,0.07316
5579.05983,0.05900
5580.98830,0.06162
5582.91677,0.05443
5584.84524,0.04433
5586.77371,0.03818
5588.70217,0.02347
5590.63064,0.01440
5592.55911,0.02242
5594.48758,0.04177
5596.41605,0.06707
5598.34452,0.09215
5600.27299,0.11258
5602.20145,0.11585
5604.12992,0.10806
5606.05839,0.11015
5607.98686,0.11424
5609.91533,0.12076
5611.84380,0.12785
5613.77227,0.09777
5615.70074,0.07087
5617.62920,0.11929
5619.55767,0.17663
5621.48614,0.16522
5623.41461,0.11942
5625.34308,0.08954
5627.27155,0.09231
5629.20002,0.10221
5631.12848,0.10231
5633.05695,0.09016
5634.98542,0.06451
5636.91389,0.06101
5638.84236,0.08023
5640.77083,0.08277
5642.69930,0.06134
5644.62777,0.04126
5646.55623,0.05403
5648.48470,0.07793
5650.41317,0.06858
5652.34164,0.04256
5654.27011,0.04495
5656.19858,0.06306
5658.12705,0.05113
5660.05551,0.03153
5661.98398,0.04978
5663.91245,0.08440
5665.84092,0.10037
5667.76939,0.09249
5669.69786,0.07178
5671.62633,0.06222
5673.55480,0.06872
5675.48326,0.07942
5677.41173,0.10315
5679.34020,0.12138
5681.26867,0.10233
5683.19714,0.08152
5685.12561,0.08709
5687.05408,0.09710
5688.98254,0.09846
5690.91101,0.09296
5692.83948,0.10291
5694.76795,0.13974
5696.69642,0.15523
5698.62489,0.11834
5700.55336,0.06802
5702.48183,0.03373
5704.41029,0.02200
5706.33876,0.03915
5708.26723,0.06462
5710.19570,0.06773
5712.12417,0.06352
5714.05264,0.08218
5715.98111,0.10500
5717.90957,0.10427
5719.83804,0.08217
5721.76651,0.06246
5723.69498,0.06775
5725.62345,0.08819
5727.55192,0.10470
5729.48039,0.11656
5731.40886,0.11931
5733.33732,0.10596
5735.26579,0.09296
5737.19426,0.09454
5739.12273,0.08541
5741.05120,0.05342
5742.97967,0.03593
5744.90814,0.04578
5746.83660,0.05596
5748.76507,0.06371
5750.69354,0.07605
5752.62201,0.08951
5754.55048,0.10042
5756.47895,0.08132
5758.40742,0.03255
5760.33588,0.01531
5762.26435,0.05385
5764.19282,0.09789
5766.12129,0.12816
5768.04976,0.13378
5769.97823,0.09220
5771.90670,0.04621
5773.83517,0.02790
5775.76363,0.02191
5777.69210,0.02806
5779.62057,0.04881
5781.54904,0.07173
5783.47751,0.08479
5785.40598,0.09590
5787.33445,0.09867
5789.26291,0.08119
5791.19138,0.06771
5793.11985,0.07417
5795.04832,0.10204
5796.97679,0.13817
5798.90526,0.12674
5800.83373,0.07590
5802.76220,0.06815
5804.69066,0.09204
5806.61913,0.08362
5808.54760,0.06713
5810.47607,0.08750
5812.40454,0.12923
5814.33301,0.13988
5816.26148,0.10265
5818.18994,0.04828
5820.11841,0.03743
5822.04688,0.07345
5823.97535,0.07979
5825.90382,0.05061
5827.83229,0.02679
5829.76076,0.02361
5831.68923,0.04174
5833.61769,0.05019
5835.54616,0.05068
5837.47463,0.08216
5839.40310,0.10222
5841.33157,0.06763
5843.26004,0.03321
5845.18851,0.03266
5847.11697,0.04444
5849.04544,0.06067
5850.97391,0.07780
5852.90238,0.08690
5854.83085,0.08080
5856.75932,0.06307
5858.68779,0.05742
5860.61626,0.05557
5862.54472,0.03367
5864.47319,0.02393
5866.40166,0.05127
5868.33013,0.08503
5870.25860,0.10238
5872.18707,0.10979
5874.11554,0.10176
5876.04400,0.08575
5877.97247,0.09814
5879.90094,0.11002
5881.82941,0.08891
5883.75788,0.07806
5885.68635,0.09743
5887.61482,0.11340
5889.54329,0.09526
5891.47175,0.07330
5893.40022,0.08324
5895.32869,0.08432
5897.25716,0.04084
5899.18563,-0.00531
5901.11410,0.00372
5903.04257,0.06899
5904.97103,0.11694
5906.89950,0.08972
5908.82797,0.03309
5910.75644,0.03250
5912.68491,0.07652
5914.61338,0.09868
5916.54185,0.08403
5918.47032,0.06601
5920.39878,0.07555
5922.32725,0.10708
5924.25572,0.14483
5926.18419,0.16251
5928.11266,0.14512
5930.04113,0.12989
5931.96960,0.11811
5933.89806,0.08400
5935.82653,0.04747
5937.75500,0.04394
5939.68347,0.08167
5941.61194,0.12057
5943.54041,0.11978
5945.46888,0.08794
5947.39734,0.04857
5949.32581,0.02933
5951.25428,0.04479
5953.18275,0.06370
5955.11122,0.06878
5957.03969,0.06886
5958.96816,0.05418
5960.89663,0.04761
5962.82509,0.06770
5964.75356,0.08510
5966.68203,0.10105
5968.61050,0.11258
5970.53897,0.08287
5972.46744,0.02420
5974.39591,0.00600
5976.32437,0.03970
5978.25284,0.05598
5980.18131,0.02841
5982.10978,0.01611
5984.03825,0.04640
5985.96672,0.06332
5987.89519,0.06660
5989.82366,0.10137
5991.75212,0.13978
5993.68059,0.13300
5995.60906,0.08329
5997.53753,0.05768
5999.46600,0.07359
6001.39447,0.06069
6003.32294,0.00358
6005.25140,-0.00461
6007.17987,0.07316
6009.10834,0.14517
6011.03681,0.16510
6012.96528,0.16711
6014.89375,0.17316
6016.82222,0.18533
6018.75069,0.18707
6020.67915,0.18478
6022.60762,0.19135
6024.53609,0.15377
6026.46456,0.08740
6028.39303,0.07713
6030.32150,0.09535
6032.24997,0.08509
6034.17843,0.07680
6036.10690,0.07539
6038.03537,0.05411
6039.96384,0.04876
6041.89231,0.07788
6043.82078,0.09009
6045.74925,0.06331
6047.67772,0.02119
6049.60618,-0.00427
6051.53465,0.00464
6053.46312,0.04182
6055.39159,0.08319
6057.32006,0.09752
6059.24853,0.10088
6061.17700,0.09468
6063.10546,0.07927
6065.03393,0.08968
6066.96240,0.10613
6068.89087,0.12311
6070.81934,0.15046
6072.74781,0.15421
6074.67628,0.12967
6076.60475,0.09368
6078.53321,0.04911
6080.46168,0.01564
6082.39015,0.02651
6084.31862,0.07970
6086.24709,0.10233
6088.17556,0.08024
6090.10403,0.07777
6092.03249,0.08828
6093.96096,0.09971
6095.88943,0.10356
6097.81790,0.07577
6099.74637,0.05877
6101.67484,0.06394
6103.60331,0.04298
6105.53177,0.03004
6107.46024,0.06119
6109.38871,0.08670
6111.31718,0.08460
6113.24565,0.08825
6115.17412,0.10224
6117.10259,0.09598
6119.03106,0.06883
6120.95952,0.06266
6122.88799,0.09227
6124.81646,0.13273
6126.74493,0.15039
6128.67340,0.13503
6130.60187,0.09777
6132.53034,0.06200
6134.45880,0.06108
6136.38727,0.09342
6138.31574,0.10871
6140.24421,0.08632
6142.17268,0.05865
6144.10115,0.06118
6146.02962,0.08044
6147.95809,0.06240
6149.88655,0.02271
6151.81502,0.01611
6153.74349,0.03664
6155.67196,0.05371
6157.60043,0.05332
6159.52890,0.04825
6161.45737,0.08772
6163.38583,0.17476
6165.31430,0.21259
6167.24277,0.17847
6169.17124,0.13667
6171.09971,0.09575
6173.02818,0.06413
6174.95665,0.06844
6176.88512,0.09084
6178.81358,0.10891
6180.74205,0.10705
6182.67052,0.06380
6184.59899,0.04233
6186.52746,0.11276
6188.45593,0.18512
6190.38440,0.15962
6192.31286,0.09344
6194.24133,0.04125
6196.16980,0.02014
6198.09827,0.03930
6200.02674,0.07403
6201.95521,0.10354
6203.88368,0.11709
6205.81215,0.10146
6207.74061,0.05119
6209.66908,-0.00419
6211.59755,0.00218
6213.52602,0.02785
6215.45449,0.01590
6217.38296,0.03318
6219.31143,0.09852
6221.23989,0.13895
6223.16836,0.13448
6225.09683,0.11680
6227.02530,0.11368
6228.95377,0.13600
6230.88224,0.14283
6232.81071,0.09227
6234.73918,0.03484
6236.66764,0.01203
6238.59611,-0.02484
6240.52458,-0.05829
6242.45305,0.00248
6244.38152,0.10833
6246.30999,0.13898
6248.23846,0.07127
6250.16692,-0.03622
6252.09539,-0.08373
6254.02386,-0.03847
6255.95233,0.02344
6257.88080,0.04483
6259.80927,0.05649
6261.73774,0.06697
6263.66621,0.06219
6265.59467,0.08273
6267.52314,0.14022
6269.45161,0.16929
6271.38008,0.13446
6273.30855,0.08257
6275.23702,0.08077
6277.16549,0.10430
6279.09395,0.11453
6281.02242,0.13660
6282.95089,0.16149
6284.87936,0.13858
6286.80783,0.08822
6288.73630,0.08095
6290.66477,0.12502
6292.59323,0.16188
6294.52170,0.15013
6296.45017,0.10938
6298.37864,0.08244
6300.30711,0.07649
6302.23558,0.07998
6304.16405,0.06885
6306.09252,0.03481
6308.02098,0.01902
6309.94945,0.04898
6311.87792,0.09010
6313.80639,0.08678
6315.73486,0.06986
6317.66333,0.11681
6319.59180,0.16806
6321.52026,0.11358
6323.44873,0.03806
6325.37720,0.05671
6327.30567,0.09387
6329.23414,0.06894
6331.16261,0.03736
6333.09108,0.06836
6335.01955,0.12430
6336.94801,0.14478
6338.87648,0.15720
6340.80495,0.18738
6342.73342,0.20475
6344.66189,0.19108
6346.59036,0.13912
6348.51883,0.08506
6350.44729,0.06286
6352.37576,0.05411
6354.30423,0.06607
6356.23270,0.10145
6358.16117,0.15288
6360.08964,0.19559
6362.01811,0.18552
6363.94658,0.14184
6365.87504,0.08035
6367.80351,0.00974
6369.73198,0.00713
6371.66045,0.08311
6373.58892,0.13563
6375.51739,0.12066
6377.44586,0.10587
6379.37432,0.10888
6381.30279,0.08971
6383.23126,0.05442
6385.15973,0.05569
6387.08820,0.07233
6389.01667,0.05678
6390.94514,0.03236
6392.87361,0.04841
6394.80207,0.09545
6396.73054,0.10298
6398.65901,0.07198
6400.58748,0.04659
6402.51595,0.05169
6404.44442,0.11617
6406.37289,0.18143
6408.30135,0.15354
6410.22982,0.11007
6412.15829,0.15288
6414.08676,0.22427
6416.01523,0.21698
6417.94370,0.11603
6419.87217,0.01400
6421.80064,-0.00486
6423.72910,0.05195
6425.65757,0.11125
6427.58604,0.12766
6429.51451,0.11224
6431.44298,0.08340
6433.37145,0.07543
6435.29992,0.04760
6437.22838,-0.03117
6439.15685,-0.05463
6441.08532,0.00863
6443.01379,0.05456
6444.94226,0.03050
6446.87073,-0.01401
6448.79920,-0.03926
6450.72766,-0.02084
6452.65613,0.04911
6454.58460,0.11377
6456.51307,0.10977
6458.44154,0.06786
6460.37001,0.05344
6462.29848,0.03955
6464.22695,0.01870
6466.15541,0.04871
6468.08388,0.10713
6470.01235,0.11019
6471.94082,0.06689
6473.86929,0.06503
6475.79776,0.12416
6477.72623,0.18625
6479.65469,0.20517
6481.58316,0.17543
6483.51163,0.13427
6485.44010,0.11281
6487.36857,0.09823
6489.29704,0.10342
6491.22551,0.13449
6493.15398,0.15965
6495.08244,0.18229
6497.01091,0.18964
6498.93938,0.16582
6500.86785,0.13837
6502.79632,0.10577
6504.72479,0.07462
6506.65326,0.05940
6508.58172,0.03514
6510.51019,0.01547
6512.43866,0.00320
6514.36713,-0.04234
6516.29560,-0.08196
6518.22407,-0.06711
6520.15254,-0.00292
6522.08101,0.07176
6524.00947,0.08385
6525.93794,0.05538
6527.86641,0.05015
6529.79488,0.01724
6531.72335,-0.03649
6533.65182,-0.02721
6535.58029,0.02891
6537.50875,0.07777
6539.43722,0.12587
6541.36569,0.12299
6543.29416,0.01847
6545.22263,-0.04898
6547.15110,0.00655
6549.07957,0.04101
6551.00804,-0.03013
6552.93650,-0.07913
6554.86497,-0.05002
6556.79344,0.03177
6558.72191,0.13834
6560.65038,0.15913
6562.57885,0.07363
6564.50732,0.02001
6566.43578,0.06084
6568.36425,0.09832
6570.29272,0.06974
6572.22119,-0.00527
6574.14966,-0.07490
6576.07813,-0.06243
6578.00660,0.04075
6579.93507,0.11877
6581.86353,0.10059
6583.79200,0.03025
6585.72047,-0.03938
6587.64894,-0.06317
6589.57741,-0.02862
6591.50588,0.04056
6593.43435,0.14320
6595.36281,0.21954
6597.29128,0.21764
6599.21975,0.17711
6601.14822,0.14506
6603.07669,0.12292
6605.00516,0.06347
6606.93363,-0.01863
6608.86210,-0.02871
6610.79056,0.06782
6612.71903,0.15176
6614.64750,0.12603
6616.57597,0.06962
6618.50444,0.05129
6620.43291,0.04966
6622.36138,0.03283
6624.28984,0.00345
6626.21831,-0.01608
6628.14678,-0.03363
6630.07525,-0.03245
6632.00372,0.02329
6633.93219,0.15282
6635.86066,0.29116
6637.78912,0.26703
6639.71759,0.13420
6641.64606,0.06783
6643.57453,0.07347
6645.50300,0.05803
6647.43147,0.02262
6649.35994,0.02984
6651.28841,0.05478
6653.21687,0.06208
6655.14534,0.06331
6657.07381,0.02834
6659.00228,-0.03637
6660.93075,-0.04327
6662.85922,-0.02723
6664.78769,-0.03961
6666.71615,-0.05087
6668.64462,-0.03098
6670.57309,0.04095
6672.50156,0.10816
6674.43003,0.10198
6676.35850,0.06724
6678.28697,0.04178
6680.21544,0.02436
6682.14390,0.02447
6684.07237,0.06021
6686.00084,0.07716
6687.92931,0.03241
6689.85778,0.01413
6691.78625,0.03978
6693.71472,0.04438
6695.64318,0.05048
6697.57165,0.10641
6699.50012,0.17844
6701.42859,0.21338
6703.35706,0.22659
6705.28553,0.21252
6707.21400,0.13510
6709.14247,0.06709
6711.07093,0.05331
6712.99940,0.05240
6714.92787,0.09620
6716.85634,0.17527
6718.78481,0.21941
6720.71328,0.22762
6722.64175,0.17753
6724.57021,0.08168
6726.49868,0.01322
6728.42715,-0.02879
6730.35562,-0.01845
6732.28409,0.06173
6734.21256,0.11657
6736.14103,0.12135
6738.06950,0.11511
6739.99796,0.10456
6741.92643,0.11438
6743.85490,0.12598
6745.78337,0.15876
6747.71184,0.22496
6749.64031,0.19867
6751.56878,0.07173
6753.49724,-0.02438
6755.42571,-0.05454
6757.35418,-0.04950
6759.28265,-0.01548
6761.21112,0.01854
6763.13959,0.02676
6765.06806,0.03561
6766.99653,0.03560
6768.92499,-0.00743
6770.85346,-0.05362
6772.78193,-0.03448
6774.71040,0.03870
6776.63887,0.09765
6778.56734,0.08527
6780.49581,0.05104
6782.42427,0.04634
6784.35274,0.02754
6786.28121,0.00399
6788.20968,0.01866
6790.13815,0.00528
6792.06662,-0.07464
6793.99509,-0.10074
6795.92355,-0.06031
6797.85202,-0.04142
6799.78049,-0.00194
6801.70896,0.06782
6803.63743,0.07439
6805.56590,0.06850
6807.49437,0.12084
6809.42284,0.15986
6811.35130,0.14344
6813.27977,0.11158
6815.20824,0.06615
6817.13671,-0.00422
6819.06518,-0.02278
6820.99365,0.08574
6822.92212,0.24352
6824.85058,0.22424
6826.77905,0.06729
6828.70752,-0.04825
6830.63599,-0.06719
6832.56446,-0.05745
6834.49293,-0.07026
6836.42140,-0.06292
6838.34987,0.02298
6840.27833,0.15631
6842.20680,0.24771
6844.13527,0.24838
6846.06374,0.22525
6847.99221,0.22226
6849.92068,0.18503
6851.84915,0.12831
6853.77761,0.11330
6855.70608,0.12203
6857.63455,0.07531
6859.56302,-0.01391
6861.49149,-0.04336
6863.41996,-0.00041
6865.34843,-0.00848
6867.27690,-0.07887
6869.20536,-0.08772
6871.13383,-0.04083
6873.06230,-0.03429
6874.99077,-0.03931
6876.91924,0.01040
6878.84771,0.09514
6880.77618,0.17026
6882.70464,0.12316
6884.63311,-0.02769
6886.56158,-0.05484
6888.49005,0.09191
6890.41852,0.20514
6892.34699,0.14496
6894.27546,0.00919
6896.20393,-0.04386
6898.13239,-0.02738
6900.06086,0.00326
6901.98933,0.05371
6903.91780,0.08480
6905.84627,0.11696
6907.77474,0.14284
6909.70321,0.10843
6911.63167,0.09528
6913.56014,0.14368
6915.48861,0.15977
6917.41708,0.10395
6919.34555,0.06505
6921.27402,0.09631
6923.20249,0.12217
6925.13096,0.12637
6927.05942,0.13703
6928.98789,0.14900
6930.91636,0.14156
6932.84483,0.10629
6934.77330,0.05399
6936.70177,0.04341
6938.63024,0.10617
6940.55870,0.16721
6942.48717,0.15780
6944.41564,0.10764
6946.34411,0.05807
6948.27258,0.05590
6950.20105,0.12021
6952.12952,0.22339
6954.05799,0.28707
6955.98645,0.26945
6957.91492,0.20162
6959.84339,0.09281
6961.77186,0.03025
6963.70033,0.06748
6965.62880,0.10178
6967.55727,0.09101
6969.48573,0.07817
6971.41420,0.10329
6973.34267,0.10510
6975.27114,0.02130
6977.19961,0.00055
6979.12808,0.04172
6981.05655,0.04619
6982.98501,0.09542
6984.91348,0.17015
6986.84195,0.12663
6988.77042,0.05865
6990.69889,0.06649
6992.62736,0.07150
6994.55583,0.06988
6996.48430,0.10966
6998.41276,0.13723
7000.34123,0.06642
7002.26970,-0.02818
7004.19817,-0.07059
7006.12664,-0.06955
7008.05511,0.01149
7009.98358,0.08430
7011.91204,0.03272
7013.84051,-0.06124
7015.76898,-0.06343
7017.69745,-0.00433
7019.62592,0.06595
7021.55439,0.13837
7023.48286,0.16514
7025.41133,0.12469
7027.33979,0.07287
7029.26826,0.00281
7031.19673,-0.03372
7033.12520,0.06761
7035.05367,0.18299
7036.98214,0.12435
7038.91061,-0.00423
7040.83907,-0.05869
7042.76754,-0.00223
7044.69601,0.05069
7046.62448,-0.01938
7048.55295,-0.07899
7050.48142,0.00610
7052.40989,0.11411
7054.33836,0.13579
7056.26682,0.08851
7058.19529,0.04063
7060.12376,0.07912
7062.05223,0.13752
7063.98070,0.15695
7065.90917,0.15765
7067.83764,0.07679
7069.76610,-0.02869
7071.69457,0.04162
7073.62304,0.11930
7075.55151,0.04443
7077.47998,-0.05643
7079.40845,-0.14844
7081.33692,-0.16671
7083.26539,-0.05463
7085.19385,-0.00943
7087.12232,-0.07501
7089.05079,-0.11031
7090.97926,-0.09009
7092.90773,-0.07466
7094.83620,-0.04684
7096.76467,0.00390
7098.69313,0.05159
7100.62160,0.09484
7102.55007,0.14082
7104.47854,0.16485
7106.40701,0.13511
7108.33548,0.06950
7110.26395,0.03202
7112.19242,0.02490
7114.12088,0.01625
7116.04935,0.00634
7117.97782,0.02323
7119.90629,0.01064
7121.83476,-0.07104
7123.76323,-0.10615
7125.69170,-0.07222
7127.62016,-0.05467
7129.54863,-0.07415
7131.47710,-0.07379
7133.40557,-0.02363
7135.33404,0.00895
7137.26251,0.01523
7139.19098,0.02388
7141.11944,-0.01182
7143.04791,-0.06910
7144.97638,-0.06092
7146.90485,-0.00548
7148.83332,0.05783
7150.76179,0.14876
7152.69026,0.23494
7154.61873,0.29406
7156.54719,0.29697
7158.47566,0.22702
7160.40413,0.15819
7162.33260,0.13001
7164.26107,0.16687
7166.18954,0.27594
7168.11801,0.30281
7170.04647,0.09747
7171.97494,-0.15545
7173.90341,-0.22000
7175.83188,-0.16203
7177.76035,-0.06893
7179.68882,0.03300
7181.61729,0.10914
7183.54576,0.13171
7185.47422,0.11781
7187.40269,0.13444
7189.33116,0.15777
7191.25963,0.06199
7193.18810,-0.08423
7195.11657,-0.09944
7197.04504,0.02207
7198.97350,0.14259
7200.90197,0.17785
7202.83044,0.14487
7204.75891,0.03690
7206.68738,-0.06072
7208.61585,-0.09557
7210.54432,-0.11686
7212.47279,-0.09218
7214.40125,-0.00622
7216.32972,0.07113
7218.25819,0.07238
7220.18666,0.02843
7222.11513,-0.00387
7224.04360,-0.01084
7225.97207,0.02082
7227.90053,0.08245
7229.82900,0.04709
7231.75747,-0.06943
7233.68594,-0.01674
7235.61441,0.10248
7237.54288,0.10119
7239.47135,-0.01151
7241.39982,-0.18701
7243.32828,-0.28742
7245.25675,-0.15279
7247.18522,0.02531
7249.11369,0.10603
7251.04216,0.14522
7252.97063,0.19985
7254.89910,0.16536
7256.82756,0.06456
7258.75603,-0.03274
7260.68450,-0.11107
7262.61297,0.00516
7264.54144,0.22854
7266.46991,0.12737
7268.39838,-0.16111
7270.32685,-0.28827
7272.25531,-0.20269
7274.18378,-0.16950
7276.11225,-0.21084
7278.04072,-0.05611
7279.96919,0.26917
7281.89766,0.29877
7283.82613,0.14748
7285.75459,0.15222
7287.68306,0.27026
7289.61153,0.29260
7291.54000,0.16821
7293.46847,0.04562
7295.39694,0.03439
7297.32541,0.13451
7299.25387,0.20234
7301.18234,0.17364
7303.11081,0.15707
7305.03928,0.18209
7306.96775,0.09804
7308.89622,-0.15478
7310.82469,-0.27484
7312.75316,-0.13388
7314.68162,0.03982
7316.61009,0.15387
7318.53856,0.26049
7320.46703,0.31326
7322.39550,0.25633
7324.32397,0.12607
7326.25244,0.08532
7328.18090,0.25806
7330.10937,0.43059
7332.03784,0.30715
7333.96631,0.05857
7335.89478,-0.07601
7337.82325,-0.06302
7339.75172,0.00788
7341.68019,0.04659
7343.60865,0.11659
7345.53712,0.18464
7347.46559,0.18179
7349.39406,0.10002
7351.32253,-0.07213
7353.25100,-0.15621
7355.17947,-0.03730
7357.10793,0.05679
7359.03640,-0.00762
7360.96487,-0.05120
7362.89334,-0.09427
7364.82181,-0.10311
7366.75028,-0.04220
7368.67875,-0.06200
7370.60722,-0.19139
7372.53568,-0.25738
7374.46415,-0.05768
7376.39262,0.26608
7378.32109,0.34626
7380.24956,0.31426
7382.17803,0.29114
7384.10650,0.27678
7386.03496,0.24790
7387.96343,0.19303
7389.89190,0.04214
7391.82037,-0.13193
7393.74884,-0.13290
7395.67731,0.04380
7397.60578,0.14942
7399.53425,0.07470
7401.46271,0.01120
7403.39118,0.02802
7405.31965,-0.07622
7407.24812,-0.17639
7409.17659,-0.05483
7411.10506,0.08686
7413.03353,0.10720
7414.96199,0.07956
7416.89046,0.07643
7418.81893,0.20340
7420.74740,0.28418
7422.67587,0.23696
7424.60434,0.14020
7426.53281,-0.08464
7428.46128,-0.28567
7430.38974,-0.15105
7432.31821,0.14792
7434.24668,0.26640
7436.17515,0.25904
7438.10362,0.24156
7440.03209,0.17856
7441.96056,0.07134
7443.88902,-0.01880
7445.81749,-0.03075
7447.74596,0.01390
7449.67443,0.00922
7451.60290,-0.05940
7453.53137,-0.09705
7455.45984,-0.07838
7457.38831,-0.05359
7459.31677,-0.06274
7461.24524,-0.09042
7463.17371,-0.10036
7465.10218,-0.01704
7467.03065,0.10024
7468.95912,0.07969
7470.88759,-0.02704
7472.81605,-0.01013
7474.74452,0.15523
7476.67299,0.25544
7478.60146,0.21459
7480.52993,0.12627
7482.45840,0.03577
7484.38687,0.06951
7486.31533,0.16790
7488.24380,0.18872
7490.17227,0.18512
7492.10074,0.10295
7494.02921,-0.07353
7495.95768,-0.15984
7497.88615,-0.12032
