399.19301,0.56211
401.12148,0.24129
403.04995,-0.08378
404.97842,-0.15975
406.90689,-0.09934
408.83536,0.01662
410.76382,0.09499
412.69229,0.13415
414.62076,0.23158
416.54923,0.34712
418.47770,0.28954
420.40617,0.10804
422.33464,0.10113
424.26311,0.17917
426.19157,0.24647
428.12004,0.27169
430.04851,0.23641
431.97698,0.17567
433.90545,0.16411
435.83392,0.15341
437.76239,0.06490
439.69085,-0.04435
441.61932,-0.07838
443.54779,-0.07122
445.47626,-0.07435
447.40473,-0.07361
449.33320,-0.07645
451.26167,-0.07473
453.19013,-0.03596
455.11860,0.07314
457.04707,0.18581
458.97554,0.21197
460.90401,0.22114
462.83248,0.21954
464.76095,0.16058
466.68942,0.08760
468.61788,0.03519
470.54635,0.01985
472.47482,0.08079
474.40329,0.21361
476.33176,0.24984
478.26023,0.17671
480.18870,0.08031
482.11716,0.03232
484.04563,0.03089
485.97410,0.04724
487.90257,0.08820
489.83104,0.10766
491.75951,0.11430
493.68798,0.14117
495.61645,0.14343
497.54491,0.10721
499.47338,0.06974
501.40185,0.05274
503.33032,0.05996
505.25879,0.08112
507.18726,0.08866
509.11573,0.06822
511.04419,0.05293
512.97266,0.05910
514.90113,0.07419
516.82960,0.08576
518.75807,0.06697
520.68654,0.01723
522.61501,-0.01330
524.54348,0.01152
526.47194,0.07881
528.40041,0.13517
530.32888,0.14560
532.25735,0.11833
534.18582,0.06292
536.11429,0.00761
538.04276,-0.00387
539.97122,0.00473
541.89969,0.00149
543.82816,-0.00364
545.75663,0.00653
547.68510,0.03914
549.61357,0.06472
551.54204,0.02947
553.47051,-0.02725
555.39897,-0.01643
557.32744,0.02943
559.25591,0.03049
561.18438,-0.00116
563.11285,-0.01560
565.04132,0.01666
566.96979,0.07342
568.89825,0.10007
570.82672,0.09611
572.75519,0.09587
574.68366,0.09430
576.61213,0.06929
578.54060,0.04684
580.46907,0.05471
582.39754,0.06291
584.32600,0.05279
586.25447,0.04553
588.18294,0.04722
590.11141,0.06556
592.03988,0.09169
593.96835,0.08820
595.89682,0.07684
597.82528,0.08854
599.75375,0.08653
601.68222,0.06050
603.61069,0.04755
605.53916,0.04180
607.46763,0.03518
609.39610,0.04038
611.32456,0.04436
613.25303,0.04500
615.18150,0.06311
617.10997,0.09165
619.03844,0.10040
620.96691,0.08349
622.89538,0.06912
624.82385,0.07520
626.75231,0.08624
628.68078,0.09174
630.60925,0.09145
632.53772,0.07773
634.46619,0.05599
636.39466,0.04872
638.32313,0.06574
640.25159,0.08536
642.18006,0.08430
644.10853,0.06977
646.03700,0.06134
647.96547,0.06559
649.89394,0.07395
651.82241,0.07962
653.75088,0.07647
655.67934,0.07123
657.60781,0.07893
659.53628,0.08677
661.46475,0.07750
663.39322,0.06454
665.32169,0.05230
667.25016,0.02885
669.17862,0.03658
671.10709,0.07912
673.03556,0.09635
674.96403,0.08487
676.89250,0.06461
678.82097,0.06242
680.74944,0.07522
682.67791,0.07765
684.60637,0.07463
686.53484,0.07623
688.46331,0.07009
690.39178,0.06649
692.32025,0.07261
694.24872,0.07347
696.17719,0.07047
698.10565,0.06985
700.03412,0.06972
701.96259,0.06903
703.89106,0.06144
705.81953,0.04229
707.74800,0.02136
709.67647,-0.01444
711.60494,-0.04512
713.53340,-0.00872
715.46187,0.05087
717.39034,0.07234
719.31881,0.07798
721.24728,0.08193
723.17575,0.08373
725.10422,0.08289
727.03268,0.07978
728.96115,0.08220
730.88962,0.08899
732.81809,0.08948
734.74656,0.07918
736.67503,0.06736
738.60350,0.06327
740.53197,0.06680
742.46043,0.07474
744.38890,0.08222
746.31737,0.08365
748.24584,0.08064
750.17431,0.07916
752.10278,0.08626
754.03125,0.09728
755.95971,0.09443
757.88818,0.07615
759.81665,0.06323
761.74512,0.06586
763.67359,0.07095
765.60206,0.07133
767.53053,0.07115
769.45900,0.07392
771.38746,0.08028
773.31593,0.08583
775.24440,0.09089
777.17287,0.09577
779.10134,0.09208
781.02981,0.08206
782.95828,0.08147
784.88674,0.08514
786.81521,0.07724
788.74368,0.06529
790.67215,0.06321
792.60062,0.07044
794.52909,0.07976
796.45756,0.08902
798.38602,0.09120
800.31449,0.08818
802.24296,0.09295
804.17143,0.09028
806.09990,0.07397
808.02837,0.06491
809.95684,0.06301
811.88531,0.05545
813.81377,0.04523
815.74224,0.04744
817.67071,0.06589
819.59918,0.08412
821.52765,0.08563
823.45612,0.07284
825.38459,0.06244
827.31305,0.06367
829.24152,0.07297
831.16999,0.08317
833.09846,0.08609
835.02693,0.08023
836.95540,0.07623
838.88387,0.08239
840.81234,0.09329
842.74080,0.09689
844.66927,0.08950
846.59774,0.08546
848.52621,0.09463
850.45468,0.10439
852.38315,0.10352
854.31162,0.09793
856.24008,0.09395
858.16855,0.08807
860.09702,0.07792
862.02549,0.06726
863.95396,0.06017
865.88243,0.06186
867.81090,0.07053
869.73937,0.07717
871.66783,0.08333
873.59630,0.08598
875.52477,0.07542
877.45324,0.06390
879.38171,0.06545
881.31018,0.07614
883.23865,0.08739
885.16711,0.09421
887.09558,0.09480
889.02405,0.09079
890.95252,0.08981
892.88099,0.09313
894.80946,0.09235
896.73793,0.08680
898.66640,0.08208
900.59486,0.08066
902.52333,0.08145
904.45180,0.08125
906.38027,0.08387
908.30874,0.08841
910.23721,0.08553
912.16568,0.08172
914.09414,0.08465
916.02261,0.08467
917.95108,0.07732
919.87955,0.07339
921.80802,0.07585
923.73649,0.07475
925.66496,0.07136
927.59343,0.07553
929.52189,0.08534
931.45036,0.09137
933.37883,0.09131
935.30730,0.08682
937.23577,0.08222
939.16424,0.08276
941.09271,0.08624
943.02117,0.09275
944.94964,0.10178
946.87811,0.10389
948.80658,0.09870
950.73505,0.09283
952.66352,0.08699
954.59199,0.08163
956.52045,0.07678
958.44892,0.07579
960.37739,0.08177
962.30586,0.08832
964.23433,0.09163
966.16280,0.09164
968.09127,0.08775
970.01974,0.08600
971.94820,0.08979
973.87667,0.08873
975.80514,0.07779
977.73361,0.07038
979.66208,0.07521
981.59055,0.08089
983.51902,0.07761
985.44748,0.07523
987.37595,0.08154
989.30442,0.08799
991.23289,0.08588
993.16136,0.07817
995.08983,0.07408
997.01830,0.07767
998.94677,0.08432
1000.87523,0.08487
1002.80370,0.07994
1004.73217,0.07998
1006.66064,0.08675
1008.58911,0.09377
1010.51758,0.09677
1012.44605,0.09620
1014.37451,0.09371
1016.30298,0.09002
1018.23145,0.08760
1020.15992,0.09178
1022.08839,0.09916
1024.01686,0.09778
1025.94533,0.09066
1027.87380,0.09176
1029.80226,0.10056
1031.73073,0.09992
1033.65920,0.08959
1035.58767,0.08778
1037.51614,0.09498
1039.44461,0.10286
1041.37308,0.10737
1043.30154,0.10269
1045.23001,0.09451
1047.15848,0.09135
1049.08695,0.09059
1051.01542,0.08897
1052.94389,0.08830
1054.87236,0.09327
1056.80083,0.10092
1058.72929,0.10416
1060.65776,0.10483
1062.58623,0.09973
1064.51470,0.08909
1066.44317,0.08867
1068.37164,0.09672
1070.30011,0.10123
1072.22857,0.10385
1074.15704,0.10503
1076.08551,0.10172
1078.01398,0.09584
1079.94245,0.09476
1081.87092,0.10003
1083.79939,0.10372
1085.72786,0.10362
1087.65632,0.10314
1089.58479,0.10264
1091.51326,0.10232
1093.44173,0.10208
1095.37020,0.09677
1097.29867,0.09111
1099.22714,0.09771
1101.15560,0.10532
1103.08407,0.09952
1105.01254,0.09094
1106.94101,0.09066
1108.86948,0.09680
1110.79795,0.10335
1112.72642,0.10708
1114.65489,0.10922
1116.58335,0.10976
1118.51182,0.10849
1120.44029,0.10641
1122.36876,0.10095
1124.29723,0.09374
1126.22570,0.09025
1128.15417,0.08738
1130.08263,0.08214
1132.01110,0.08196
1133.93957,0.08920
1135.86804,0.09416
1137.79651,0.09232
1139.72498,0.09050
1141.65345,0.09675
1143.58191,0.10664
1145.51038,0.10775
1147.43885,0.10129
1149.36732,0.09660
1151.29579,0.09610
1153.22426,0.09687
1155.15273,0.09565
1157.08120,0.09506
1159.00966,0.10000
1160.93813,0.10478
1162.86660,0.10169
1164.79507,0.09705
1166.72354,0.10062
1168.65201,0.10658
1170.58048,0.10337
1172.50894,0.09626
1174.43741,0.09406
1176.36588,0.09350
1178.29435,0.09164
1180.22282,0.09077
1182.15129,0.09133
1184.07976,0.09200
1186.00823,0.09614
1187.93669,0.10398
1189.86516,0.10673
1191.79363,0.10127
1193.72210,0.09429
1195.65057,0.09010
1197.57904,0.08890
1199.50751,0.09280
1201.43597,0.09909
1203.36444,0.10126
1205.29291,0.10056
1207.22138,0.10018
1209.14985,0.09895
1211.07832,0.09690
1213.00679,0.09629
1214.93526,0.09703
1216.86372,0.09644
1218.79219,0.09443
1220.72066,0.09375
1222.64913,0.09540
1224.57760,0.09736
1226.50607,0.09699
1228.43454,0.09391
1230.36300,0.09201
1232.29147,0.09667
1234.21994,0.10319
1236.14841,0.10155
1238.07688,0.09524
1240.00535,0.09180
1241.93382,0.09152
1243.86229,0.09309
1245.79075,0.09493
1247.71922,0.09602
1249.64769,0.09582
1251.57616,0.09577
1253.50463,0.09872
1255.43310,0.10282
1257.36157,0.10270
1259.29003,0.09742
1261.21850,0.09259
1263.14697,0.09237
1265.07544,0.09545
1267.00391,0.09756
1268.93238,0.09714
1270.86085,0.09608
1272.78932,0.09418
1274.71778,0.09148
1276.64625,0.09088
1278.57472,0.09371
1280.50319,0.09493
1282.43166,0.09405
1284.36013,0.09672
1286.28860,0.09859
1288.21706,0.09754
1290.14553,0.09893
1292.07400,0.09963
1294.00247,0.09784
1295.93094,0.09772
1297.85941,0.09599
1299.78788,0.08741
1301.71634,0.07481
1303.64481,0.06499
1305.57328,0.06672
1307.50175,0.08159
1309.43022,0.09662
1311.35869,0.10349
1313.28716,0.10586
1315.21563,0.10742
1317.14409,0.10834
1319.07256,0.10406
1321.00103,0.09742
1322.92950,0.09759
1324.85797,0.09689
1326.78644,0.09061
1328.71491,0.08909
1330.64337,0.09045
1332.57184,0.09014
1334.50031,0.08934
1336.42878,0.08800
1338.35725,0.09217
1340.28572,0.09735
1342.21419,0.09464
1344.14266,0.09299
1346.07112,0.09676
1347.99959,0.10061
1349.92806,0.09967
1351.85653,0.09672
1353.78500,0.09649
1355.71347,0.09719
1357.64194,0.09850
1359.57040,0.10298
1361.49887,0.10902
1363.42734,0.10817
1365.35581,0.10159
1367.28428,0.10005
1369.21275,0.10268
1371.14122,0.10395
1373.06969,0.10488
1374.99815,0.10651
1376.92662,0.10900
1378.85509,0.11372
1380.78356,0.11621
1382.71203,0.11352
1384.64050,0.11178
1386.56897,0.11407
1388.49743,0.11491
1390.42590,0.11184
1392.35437,0.11055
1394.28284,0.11346
1396.21131,0.11424
1398.13978,0.11227
1400.06825,0.11123
1401.99672,0.10760
1403.92518,0.10346
1405.85365,0.10571
1407.78212,0.11089
1409.71059,0.11197
1411.63906,0.11119
1413.56753,0.11284
1415.49600,0.11585
1417.42446,0.11801
1419.35293,0.11827
1421.28140,0.11883
1423.20987,0.12065
1425.13834,0.11973
1427.06681,0.11690
1428.99528,0.11487
1430.92375,0.11235
1432.85221,0.11101
1434.78068,0.11139
1436.70915,0.11061
1438.63762,0.11055
1440.56609,0.11155
1442.49456,0.11201
1444.42303,0.11452
1446.35149,0.11737
1448.27996,0.11700
1450.20843,0.11570
1452.13690,0.11435
1454.06537,0.11634
1455.99384,0.12851
1457.92231,0.13738
1459.85077,0.12563
1461.77924,0.11662
1463.70771,0.11608
1465.63618,0.11507
1467.56465,0.11044
1469.49312,0.10919
1471.42159,0.11307
1473.35006,0.11713
1475.27852,0.11632
1477.20699,0.11319
1479.13546,0.10920
1481.06393,0.10777
1482.99240,0.11065
1484.92087,0.11525
1486.84934,0.11923
1488.77780,0.11938
1490.70627,0.11512
1492.63474,0.11311
1494.56321,0.11585
1496.49168,0.12059
1498.42015,0.12019
1500.34862,0.11624
1502.27709,0.11659
1504.20555,0.12333
1506.13402,0.13751
1508.06249,0.14369
1509.99096,0.13253
1511.91943,0.12272
1513.84790,0.12108
1515.77637,0.12543
1517.70483,0.13036
1519.63330,0.13784
1521.56177,0.14364
1523.49024,0.13602
1525.41871,0.12783
1527.34718,0.12362
1529.27565,0.11889
1531.20412,0.11756
1533.13258,0.12261
1535.06105,0.12787
1536.98952,0.13301
1538.91799,0.14248
1540.84646,0.14224
1542.77493,0.12959
1544.70340,0.12300
1546.63186,0.12064
1548.56033,0.11910
1550.48880,0.11803
1552.41727,0.12237
1554.34574,0.13254
1556.27421,0.14457
1558.20268,0.15406
1560.13115,0.13685
1562.05961,0.11992
1563.98808,0.11582
1565.91655,0.11701
1567.84502,0.11835
1569.77349,0.11520
1571.70196,0.11027
1573.63043,0.11018
1575.55889,0.11288
1577.48736,0.11276
1579.41583,0.11111
1581.34430,0.10920
1583.27277,0.10756
1585.20124,0.10998
1587.12971,0.11513
1589.05818,0.11747
1590.98664,0.11663
1592.91511,0.11526
1594.84358,0.11496
1596.77205,0.11620
1598.70052,0.11758
1600.62899,0.11856
1602.55746,0.11865
1604.48592,0.11704
1606.41439,0.11480
1608.34286,0.11248
1610.27133,0.11151
1612.19980,0.11208
1614.12827,0.11282
1616.05674,0.11559
1617.98521,0.11932
1619.91367,0.12317
1621.84214,0.12799
1623.77061,0.12494
1625.69908,0.11702
1627.62755,0.11608
1629.55602,0.11516
1631.48449,0.11042
1633.41295,0.11023
1635.34142,0.11894
1637.26989,0.12410
1639.19836,0.12197
1641.12683,0.12102
1643.05530,0.12341
1644.98377,0.13059
1646.91223,0.13572
1648.84070,0.12974
1650.76917,0.12806
1652.69764,0.13693
1654.62611,0.13536
1656.55458,0.12408
1658.48305,0.11701
1660.41152,0.11459
1662.33998,0.11610
1664.26845,0.11831
1666.19692,0.11971
1668.12539,0.12122
1670.05386,0.12227
1671.98233,0.12508
1673.91080,0.12944
1675.83926,0.12806
1677.76773,0.12312
1679.69620,0.12262
1681.62467,0.12634
1683.55314,0.13268
1685.48161,0.13388
1687.41008,0.12864
1689.33855,0.12492
1691.26701,0.12282
1693.19548,0.12168
1695.12395,0.12395
1697.05242,0.12722
1698.98089,0.12551
1700.90936,0.12370
1702.83783,0.12322
1704.76629,0.11837
1706.69476,0.11096
1708.62323,0.10941
1710.55170,0.11315
1712.48017,0.11808
1714.40864,0.12368
1716.33711,0.12966
1718.26558,0.12672
1720.19404,0.11710
1722.12251,0.11187
1724.05098,0.11077
1725.97945,0.11101
1727.90792,0.11232
1729.83639,0.11554
1731.76486,0.12107
1733.69332,0.12550
1735.62179,0.12110
1737.55026,0.11707
1739.47873,0.12091
1741.40720,0.12577
1743.33567,0.12285
1745.26414,0.11794
1747.19261,0.11859
1749.12107,0.12369
1751.04954,0.12514
1752.97801,0.12066
1754.90648,0.11635
1756.83495,0.11449
1758.76342,0.11538
1760.69189,0.11783
1762.62035,0.11694
1764.54882,0.11433
1766.47729,0.11517
1768.40576,0.11860
1770.33423,0.12344
1772.26270,0.12666
1774.19117,0.12273
1776.11964,0.11646
1778.04810,0.11378
1779.97657,0.11500
1781.90504,0.11556
1783.83351,0.11304
1785.76198,0.10996
1787.69045,0.11066
1789.61892,0.11636
1791.54738,0.12230
1793.47585,0.11976
1795.40432,0.11179
1797.33279,0.10790
1799.26126,0.11105
1801.18973,0.11506
1803.11820,0.11323
1805.04666,0.11149
1806.97513,0.11393
1808.90360,0.11643
1810.83207,0.11676
1812.76054,0.11535
1814.68901,0.11336
1816.61748,0.11361
1818.54595,0.11509
1820.47441,0.11373
1822.40288,0.11137
1824.33135,0.11184
1826.25982,0.11424
1828.18829,0.11667
1830.11676,0.11833
1832.04523,0.11828
1833.97369,0.11557
1835.90216,0.11137
1837.83063,0.11005
1839.75910,0.11176
1841.68757,0.11457
1843.61604,0.11820
1845.54451,0.11924
1847.47298,0.11738
1849.40144,0.11586
1851.32991,0.11503
1853.25838,0.11238
1855.18685,0.10854
1857.11532,0.10803
1859.04379,0.11034
1860.97226,0.11211
1862.90072,0.11184
1864.82919,0.11054
1866.75766,0.11239
1868.68613,0.11660
1870.61460,0.11541
1872.54307,0.11035
1874.47154,0.10663
1876.40001,0.10539
1878.32847,0.10662
1880.25694,0.10873
1882.18541,0.10947
1884.11388,0.10849
1886.04235,0.10694
1887.97082,0.10754
1889.89929,0.10964
1891.82775,0.11000
1893.75622,0.11057
1895.68469,0.11304
1897.61316,0.11376
1899.54163,0.11024
1901.47010,0.10713
1903.39857,0.10835
1905.32704,0.11023
1907.25550,0.11039
1909.18397,0.11041
1911.11244,0.11061
1913.04091,0.11062
1914.96938,0.11055
1916.89785,0.11103
1918.82632,0.11267
1920.75478,0.11384
1922.68325,0.11273
1924.61172,0.11062
1926.54019,0.11022
1928.46866,0.11006
1930.39713,0.10736
1932.32560,0.10456
1934.25407,0.10498
1936.18253,0.10772
1938.11100,0.11147
1940.03947,0.11479
1941.96794,0.11484
1943.89641,0.11204
1945.82488,0.11018
1947.75335,0.11059
1949.68181,0.11190
1951.61028,0.11189
1953.53875,0.10957
1955.46722,0.10682
1957.39569,0.10748
1959.32416,0.11100
1961.25263,0.11338
1963.18110,0.11410
1965.10956,0.11293
1967.03803,0.10984
1968.96650,0.10768
1970.89497,0.10754
1972.82344,0.10895
1974.75191,0.11088
1976.68038,0.11132
1978.60884,0.10948
1980.53731,0.10730
1982.46578,0.10779
1984.39425,0.11032
1986.32272,0.11240
1988.25119,0.11207
1990.17966,0.10797
1992.10812,0.10431
1994.03659,0.10542
1995.96506,0.10868
1997.89353,0.11074
1999.82200,0.11030
2001.75047,0.10993
2003.67894,0.11225
2005.60741,0.11515
2007.53587,0.11663
2009.46434,0.11615
2011.39281,0.11399
2013.32128,0.11295
2015.24975,0.11474
2017.17822,0.11681
2019.10669,0.11681
2021.03515,0.11530
2022.96362,0.11275
2024.89209,0.11011
2026.82056,0.10870
2028.74903,0.10703
2030.67750,0.10426
2032.60597,0.10357
2034.53444,0.10585
2036.46290,0.10844
2038.39137,0.11054
2040.31984,0.11260
2042.24831,0.11476
2044.17678,0.11637
2046.10525,0.11611
2048.03372,0.11490
2049.96218,0.11493
2051.89065,0.11517
2053.81912,0.11447
2055.74759,0.11386
2057.67606,0.11248
2059.60453,0.11019
2061.53300,0.10975
2063.46147,0.11140
2065.38993,0.11241
2067.31840,0.11296
2069.24687,0.11443
2071.17534,0.11631
2073.10381,0.11843
2075.03228,0.12127
2076.96075,0.12439
2078.88921,0.12480
2080.81768,0.12093
2082.74615,0.11674
2084.67462,0.11553
2086.60309,0.11592
2088.53156,0.11606
2090.46003,0.11644
2092.38850,0.11808
2094.31696,0.11946
2096.24543,0.11819
2098.17390,0.11536
2100.10237,0.11441
2102.03084,0.11576
2103.95931,0.11653
2105.88778,0.11624
2107.81624,0.11665
2109.74471,0.11768
2111.67318,0.11803
2113.60165,0.11783
2115.53012,0.11836
2117.45859,0.11861
2119.38706,0.11786
2121.31553,0.11761
2123.24399,0.11745
2125.17246,0.11533
2127.10093,0.11241
2129.02940,0.11256
2130.95787,0.11436
2132.88634,0.11336
2134.81481,0.11011
2136.74327,0.10805
2138.67174,0.10851
2140.60021,0.11023
2142.52868,0.11174
2144.45715,0.11178
2146.38562,0.11002
2148.31409,0.10871
2150.24255,0.10866
2152.17102,0.10860
2154.09949,0.11001
2156.02796,0.11387
2157.95643,0.11648
2159.88490,0.11575
2161.81337,0.11533
2163.74184,0.11804
2165.67030,0.12060
2167.59877,0.12022
2169.52724,0.11911
2171.45571,0.11844
2173.38418,0.11692
2175.31265,0.11531
2177.24112,0.11574
2179.16958,0.11765
2181.09805,0.11809
2183.02652,0.11633
2184.95499,0.11463
2186.88346,0.11316
2188.81193,0.11135
2190.74040,0.11075
2192.66887,0.11084
2194.59733,0.10983
2196.52580,0.10840
2198.45427,0.10810
2200.38274,0.10876
2202.31121,0.10916
2204.23968,0.10991
2206.16815,0.11161
2208.09661,0.11171
2210.02508,0.11027
2211.95355,0.11127
2213.88202,0.11480
2215.81049,0.11749
2217.73896,0.11742
2219.66743,0.11578
2221.59590,0.11478
2223.52436,0.11457
2225.45283,0.11440
2227.38130,0.11384
2229.30977,0.11347
2231.23824,0.11377
2233.16671,0.11364
2235.09518,0.11244
2237.02364,0.11154
2238.95211,0.11268
2240.88058,0.11482
2242.80905,0.11485
2244.73752,0.11317
2246.66599,0.11303
2248.59446,0.11356
2250.52293,0.11261
2252.45139,0.11070
2254.37986,0.10931
2256.30833,0.11094
2258.23680,0.11379
2260.16527,0.11514
2262.09374,0.11629
2264.02221,0.11634
2265.95067,0.11532
2267.87914,0.11550
2269.80761,0.11557
2271.73608,0.11309
2273.66455,0.11005
2275.59302,0.11042
2277.52149,0.11307
2279.44996,0.11491
2281.37842,0.11577
2283.30689,0.11556
2285.23536,0.11443
2287.16383,0.11245
2289.09230,0.10972
2291.02077,0.10880
2292.94924,0.11095
2294.87770,0.11262
2296.80617,0.11138
2298.73464,0.10950
2300.66311,0.10877
2302.59158,0.11123
2304.52005,0.11653
2306.44852,0.11901
2308.37699,0.11781
2310.30545,0.11589
2312.23392,0.11331
2314.16239,0.10938
2316.09086,0.10368
2318.01933,0.09921
2319.94780,0.09993
2321.87627,0.10458
2323.80473,0.10922
2325.73320,0.11016
2327.66167,0.10549
2329.59014,0.10117
2331.51861,0.10246
2333.44708,0.10241
2335.37555,0.10007
2337.30401,0.10419
2339.23248,0.11465
2341.16095,0.12241
2343.08942,0.12173
2345.01789,0.11787
2346.94636,0.11944
2348.87483,0.12069
2350.80330,0.11431
2352.73176,0.10142
2354.66023,0.08994
2356.58870,0.08361
2358.51717,0.07781
2360.44564,0.07731
2362.37411,0.09708
2364.30258,0.12473
2366.23104,0.13206
2368.15951,0.11873
2370.08798,0.10703
2372.01645,0.10619
2373.94492,0.10724
2375.87339,0.10812
2377.80186,0.11199
2379.73033,0.11423
2381.65879,0.11310
2383.58726,0.11300
2385.51573,0.11498
2387.44420,0.11643
2389.37267,0.11547
2391.30114,0.11268
2393.22961,0.11033
2395.15807,0.11063
2397.08654,0.11326
2399.01501,0.11450
2400.94348,0.11188
2402.87195,0.10816
2404.80042,0.10811
2406.72889,0.11200
2408.65736,0.11566
2410.58582,0.11657
2412.51429,0.11598
2414.44276,0.11569
2416.37123,0.11556
2418.29970,0.11488
2420.22817,0.11374
2422.15664,0.11369
2424.08510,0.11600
2426.01357,0.11790
2427.94204,0.11672
2429.87051,0.11419
2431.79898,0.11272
2433.72745,0.11216
2435.65592,0.11176
2437.58439,0.11216
2439.51285,0.11360
2441.44132,0.11620
2443.36979,0.11826
2445.29826,0.11663
2447.22673,0.11326
2449.15520,0.11413
2451.08367,0.11968
2453.01213,0.12110
2454.94060,0.11478
2456.86907,0.10949
2458.79754,0.11118
2460.72601,0.11796
2462.65448,0.12312
2464.58295,0.12167
2466.51142,0.11908
2468.43988,0.11909
2470.36835,0.11734
2472.29682,0.11393
2474.22529,0.11247
2476.15376,0.11254
2478.08223,0.11291
2480.01070,0.11445
2481.93916,0.11622
2483.86763,0.11561
2485.79610,0.11443
2487.72457,0.11521
2489.65304,0.11591
2491.58151,0.11601
2493.50998,0.11732
2495.43844,0.11820
2497.36691,0.11708
2499.29538,0.11608
2501.22385,0.11646
2503.15232,0.11762
2505.08079,0.11936
2507.00926,0.12079
2508.93773,0.12062
2510.86619,0.11881
2512.79466,0.11681
2514.72313,0.11619
2516.65160,0.11593
2518.58007,0.11514
2520.50854,0.11664
2522.43701,0.12131
2524.36547,0.12382
2526.29394,0.12207
2528.22241,0.12011
2530.15088,0.11848
2532.07935,0.11633
2534.00782,0.11550
2535.93629,0.11605
2537.86476,0.11698
2539.79322,0.11745
2541.72169,0.11635
2543.65016,0.11535
2545.57863,0.11588
2547.50710,0.11624
2549.43557,0.11608
2551.36404,0.11638
2553.29250,0.11733
2555.22097,0.11850
2557.14944,0.11891
2559.07791,0.11780
2561.00638,0.11573
2562.93485,0.11500
2564.86332,0.11705
2566.79179,0.11913
2568.72025,0.11812
2570.64872,0.11687
2572.57719,0.11804
2574.50566,0.11934
2576.43413,0.12068
2578.36260,0.12172
2580.29107,0.12004
2582.21953,0.11742
2584.14800,0.11587
2586.07647,0.11600
2588.00494,0.11878
2589.93341,0.12165
2591.86188,0.12114
2593.79035,0.11846
2595.71882,0.11798
2597.64728,0.12098
2599.57575,0.12335
2601.50422,0.12305
2603.43269,0.12245
2605.36116,0.12098
2607.28963,0.11840
2609.21810,0.11833
2611.14656,0.11885
2613.07503,0.11642
2615.00350,0.11547
2616.93197,0.11955
2618.86044,0.12386
2620.78891,0.12364
2622.71738,0.12118
2624.64585,0.12016
2626.57431,0.12084
2628.50278,0.12095
2630.43125,0.11934
2632.35972,0.11845
2634.28819,0.11932
2636.21666,0.12102
2638.14513,0.12372
2640.07359,0.12532
2642.00206,0.12291
2643.93053,0.11971
2645.85900,0.11943
2647.78747,0.12032
2649.71594,0.12014
2651.64441,0.11850
2653.57288,0.11636
2655.50134,0.11456
2657.42981,0.11431
2659.35828,0.11564
2661.28675,0.11681
2663.21522,0.11822
2665.14369,0.12057
2667.07216,0.12248
2669.00062,0.12200
2670.92909,0.12133
2672.85756,0.12235
2674.78603,0.12110
2676.71450,0.11890
2678.64297,0.12096
2680.57144,0.12351
2682.49990,0.12152
2684.42837,0.11872
2686.35684,0.11829
2688.28531,0.11894
2690.21378,0.11923
2692.14225,0.11816
2694.07072,0.11742
2695.99919,0.11813
2697.92765,0.11915
2699.85612,0.12075
2701.78459,0.12374
2703.71306,0.12655
2705.64153,0.12770
2707.57000,0.12599
2709.49847,0.12077
2711.42693,0.11669
2713.35540,0.11671
2715.28387,0.11848
2717.21234,0.12134
2719.14081,0.12395
2721.06928,0.12358
2722.99775,0.12164
2724.92622,0.12066
2726.85468,0.12038
2728.78315,0.12071
2730.71162,0.12180
2732.64009,0.12386
2734.56856,0.12561
2736.49703,0.12399
2738.42550,0.12091
2740.35396,0.12087
2742.28243,0.12405
2744.21090,0.12675
2746.13937,0.12529
2748.06784,0.12268
2749.99631,0.12386
2751.92478,0.12511
2753.85325,0.12362
2755.78171,0.12284
2757.71018,0.12379
2759.63865,0.12651
2761.56712,0.12950
2763.49559,0.12990
2765.42406,0.12746
2767.35253,0.12478
2769.28099,0.12584
2771.20946,0.12879
2773.13793,0.12941
2775.06640,0.12920
2776.99487,0.13052
2778.92334,0.13229
2780.85181,0.13136
2782.78028,0.12797
2784.70874,0.12734
2786.63721,0.13193
2788.56568,0.13651
2790.49415,0.13489
2792.42262,0.12986
2794.35109,0.12785
2796.27956,0.12703
2798.20802,0.12304
2800.13649,0.11895
2802.06496,0.12024
2803.99343,0.12611
2805.92190,0.13049
2807.85037,0.13043
2809.77884,0.12779
2811.70731,0.12480
2813.63577,0.12270
2815.56424,0.12065
2817.49271,0.11935
2819.42118,0.12200
2821.34965,0.12508
2823.27812,0.12369
2825.20659,0.12210
2827.13505,0.12432
2829.06352,0.12790
2830.99199,0.12982
2832.92046,0.12909
2834.84893,0.12572
2836.77740,0.12247
2838.70587,0.12056
2840.63433,0.11863
2842.56280,0.12013
2844.49127,0.12439
2846.41974,0.12687
2848.34821,0.12917
2850.27668,0.13088
2852.20515,0.12915
2854.13362,0.12737
2856.06208,0.12933
2857.99055,0.13055
2859.91902,0.12770
2861.84749,0.12484
2863.77596,0.12640
2865.70443,0.13086
2867.63290,0.13163
2869.56136,0.12845
2871.48983,0.12591
2873.41830,0.12510
2875.34677,0.12497
2877.27524,0.12499
2879.20371,0.12580
2881.13218,0.12688
2883.06065,0.12678
2884.98911,0.12520
2886.91758,0.12391
2888.84605,0.12504
2890.77452,0.12767
2892.70299,0.12881
2894.63146,0.12750
2896.55993,0.12567
2898.48839,0.12460
2900.41686,0.12261
2902.34533,0.11859
2904.27380,0.11747
2906.20227,0.12229
2908.13074,0.12712
2910.05921,0.12727
2911.98768,0.12434
2913.91614,0.11994
2915.84461,0.11592
2917.77308,0.11606
2919.70155,0.11835
2921.63002,0.11994
2923.55849,0.11995
2925.48696,0.11549
2927.41542,0.11528
2929.34389,0.12404
2931.27236,0.12872
2933.20083,0.12718
2935.12930,0.12439
2937.05777,0.12007
2938.98624,0.12073
2940.91471,0.12736
2942.84317,0.13008
2944.77164,0.12534
2946.70011,0.11839
2948.62858,0.11694
2950.55705,0.12157
2952.48552,0.12652
2954.41399,0.12655
2956.34245,0.11752
2958.27092,0.10987
2960.19939,0.11648
2962.12786,0.12708
2964.05633,0.12823
2965.98480,0.12048
2967.91327,0.11317
2969.84174,0.11689
2971.77020,0.12731
2973.69867,0.13107
2975.62714,0.12388
2977.55561,0.11412
2979.48408,0.11305
2981.41255,0.11973
2983.34102,0.12714
2985.26948,0.13034
2987.19795,0.12620
2989.12642,0.12309
2991.05489,0.12900
2992.98336,0.13563
2994.91183,0.13594
2996.84030,0.13360
2998.76877,0.13139
3000.69723,0.12868
3002.62570,0.12655
3004.55417,0.12629
3006.48264,0.12528
3008.41111,0.12157
3010.33958,0.11370
3012.26805,0.09752
3014.19651,0.07401
3016.12498,0.05593
3018.05345,0.06321
3019.98192,0.09400
3021.91039,0.11999
3023.83886,0.12880
3025.76733,0.13048
3027.69579,0.13158
3029.62426,0.13260
3031.55273,0.13436
3033.48120,0.13520
3035.40967,0.13416
3037.33814,0.13262
3039.26661,0.13034
3041.19508,0.12834
3043.12354,0.12837
3045.05201,0.12724
3046.98048,0.12270
3048.90895,0.12058
3050.83742,0.12172
3052.76589,0.12118
3054.69436,0.11917
3056.62282,0.11658
3058.55129,0.11765
3060.47976,0.12459
3062.40823,0.13226
3064.33670,0.13398
3066.26517,0.12805
3068.19364,0.12406
3070.12211,0.12518
3072.05057,0.12485
3073.97904,0.12019
3075.90751,0.11597
3077.83598,0.11999
3079.76445,0.12788
3081.69292,0.13056
3083.62139,0.12486
3085.54985,0.11718
3087.47832,0.11834
3089.40679,0.12430
3091.33526,0.12584
3093.26373,0.12223
3095.19220,0.11947
3097.12067,0.12390
3099.04914,0.13184
3100.97760,0.13370
3102.90607,0.12728
3104.83454,0.12352
3106.76301,0.12762
3108.69148,0.13078
3110.61995,0.12682
3112.54842,0.12047
3114.47688,0.12137
3116.40535,0.12851
3118.33382,0.13310
3120.26229,0.13032
3122.19076,0.12308
3124.11923,0.12082
3126.04770,0.12490
3127.97617,0.12715
3129.90463,0.12393
3131.83310,0.12243
3133.76157,0.12812
3135.69004,0.13366
3137.61851,0.13159
3139.54698,0.12694
3141.47545,0.12814
3143.40391,0.13407
3145.33238,0.13950
3147.26085,0.14087
3149.18932,0.13854
3151.11779,0.13610
3153.04626,0.13438
3154.97473,0.13396
3156.90320,0.13642
3158.83166,0.14019
3160.76013,0.14107
3162.68860,0.13925
3164.61707,0.13801
3166.54554,0.13712
3168.47401,0.13631
3170.40248,0.13636
3172.33094,0.13627
3174.25941,0.13597
3176.18788,0.13548
3178.11635,0.13466
3180.04482,0.13652
3181.97329,0.13844
3183.90176,0.13690
3185.83022,0.13536
3187.75869,0.13485
3189.68716,0.13359
3191.61563,0.13052
3193.54410,0.12969
3195.47257,0.13330
3197.40104,0.13536
3199.32951,0.13364
3201.25797,0.13099
3203.18644,0.12943
3205.11491,0.12963
3207.04338,0.13221
3208.97185,0.13562
3210.90032,0.13831
3212.82879,0.13983
3214.75725,0.13890
3216.68572,0.13726
3218.61419,0.13504
3220.54266,0.13086
3222.47113,0.12600
3224.39960,0.12281
3226.32807,0.12358
3228.25654,0.12562
3230.18500,0.12697
3232.11347,0.12993
3234.04194,0.13373
3235.97041,0.13643
3237.89888,0.13803
3239.82735,0.13763
3241.75582,0.13585
3243.68428,0.13577
3245.61275,0.13575
3247.54122,0.13406
3249.46969,0.13557
3251.39816,0.14030
3253.32663,0.14210
3255.25510,0.14075
3257.18357,0.13886
3259.11203,0.13586
3261.04050,0.13409
3262.96897,0.13569
3264.89744,0.13777
3266.82591,0.13669
3268.75438,0.13109
3270.68285,0.12533
3272.61131,0.12438
3274.53978,0.12974
3276.46825,0.13866
3278.39672,0.14149
3280.32519,0.13807
3282.25366,0.13842
3284.18213,0.13987
3286.11060,0.13290
3288.03906,0.12382
3289.96753,0.12403
3291.89600,0.12887
3293.82447,0.13091
3295.75294,0.13133
3297.68141,0.13043
3299.60988,0.12675
3301.53834,0.12221
3303.46681,0.12140
3305.39528,0.12577
3307.32375,0.13202
3309.25222,0.13576
3311.18069,0.13487
3313.10916,0.13173
3315.03763,0.13027
3316.96609,0.13144
3318.89456,0.13436
3320.82303,0.13796
3322.75150,0.13888
3324.67997,0.13570
3326.60844,0.13174
3328.53691,0.12928
3330.46537,0.13143
3332.39384,0.13995
3334.32231,0.14471
3336.25078,0.13777
3338.17925,0.12844
3340.10772,0.12882
3342.03619,0.13828
3343.96466,0.14433
3345.89312,0.14009
3347.82159,0.13565
3349.75006,0.13935
3351.67853,0.14320
3353.60700,0.13959
3355.53547,0.13465
3357.46394,0.13498
3359.39240,0.13868
3361.32087,0.14233
3363.24934,0.14548
3365.17781,0.14657
3367.10628,0.14152
3369.03475,0.13310
3370.96322,0.13060
3372.89168,0.13591
3374.82015,0.14196
3376.74862,0.14354
3378.67709,0.14059
3380.60556,0.13540
3382.53403,0.12967
3384.46250,0.12483
3386.39097,0.12508
3388.31943,0.13069
3390.24790,0.13592
3392.17637,0.13892
3394.10484,0.14098
3396.03331,0.13997
3397.96178,0.13420
3399.89025,0.12843
3401.81871,0.12812
3403.74718,0.13264
3405.67565,0.13784
3407.60412,0.14025
3409.53259,0.13994
3411.46106,0.14026
3413.38953,0.14166
3415.31800,0.13953
3417.24646,0.13255
3419.17493,0.12747
3421.10340,0.12903
3423.03187,0.13263
3424.96034,0.13464
3426.88881,0.13500
3428.81728,0.13270
3430.74574,0.13182
3432.67421,0.13299
3434.60268,0.13005
3436.53115,0.12637
3438.45962,0.12706
3440.38809,0.12908
3442.31656,0.12969
3444.24503,0.12913
3446.17349,0.13031
3448.10196,0.13328
3450.03043,0.13334
3451.95890,0.13076
3453.88737,0.12838
3455.81584,0.12866
3457.74431,0.13292
3459.67277,0.13536
3461.60124,0.13039
3463.52971,0.12324
3465.45818,0.12222
3467.38665,0.12595
3469.31512,0.12761
3471.24359,0.12607
3473.17206,0.12378
3475.10052,0.12028
3477.02899,0.11724
3478.95746,0.11773
3480.88593,0.11774
3482.81440,0.11633
3484.74287,0.11827
3486.67134,0.12126
3488.59980,0.12141
3490.52827,0.11958
3492.45674,0.11790
3494.38521,0.11678
3496.31368,0.11567
3498.24215,0.11578
3500.17062,0.11850
3502.09909,0.12367
3504.02755,0.12761
3505.95602,0.12569
3507.88449,0.11951
3509.81296,0.11463
3511.74143,0.11531
3513.66990,0.11778
3515.59837,0.11663
3517.52683,0.11361
3519.45530,0.11041
3521.38377,0.10678
3523.31224,0.10602
3525.24071,0.11080
3527.16918,0.11729
3529.09765,0.11746
3531.02611,0.11220
3532.95458,0.10968
3534.88305,0.10960
3536.81152,0.10790
3538.73999,0.10921
3540.66846,0.11771
3542.59693,0.12408
3544.52540,0.11997
3546.45386,0.11022
3548.38233,0.10443
3550.31080,0.10699
3552.23927,0.11146
3554.16774,0.10994
3556.09621,0.10706
3558.02468,0.10629
3559.95314,0.10572
3561.88161,0.10662
3563.81008,0.11004
3565.73855,0.11525
3567.66702,0.11914
3569.59549,0.11473
3571.52396,0.10518
3573.45243,0.09924
3575.38089,0.09997
3577.30936,0.10264
3579.23783,0.10497
3581.16630,0.10688
3583.09477,0.10663
3585.02324,0.10790
3586.95171,0.11152
3588.88017,0.10656
3590.80864,0.09784
3592.73711,0.09671
3594.66558,0.10216
3596.59405,0.10444
3598.52252,0.09958
3600.45099,0.09559
3602.37946,0.09699
3604.30792,0.09860
3606.23639,0.09891
3608.16486,0.10063
3610.09333,0.10174
3612.02180,0.10094
3613.95027,0.10239
3615.87874,0.10765
3617.80720,0.11111
3619.73567,0.10563
3621.66414,0.09455
3623.59261,0.08631
3625.52108,0.08488
3627.44955,0.09053
3629.37802,0.09657
3631.30649,0.09884
3633.23495,0.09999
3635.16342,0.09805
3637.09189,0.09414
3639.02036,0.09078
3640.94883,0.08869
3642.87730,0.08874
3644.80577,0.09038
3646.73423,0.09339
3648.66270,0.09822
3650.59117,0.09725
3652.51964,0.09137
3654.44811,0.09021
3656.37658,0.09204
3658.30505,0.08861
3660.23352,0.08231
3662.16198,0.07828
3664.09045,0.07626
3666.01892,0.07679
3667.94739,0.08536
3669.87586,0.10044
3671.80433,0.10385
3673.73280,0.10203
3675.66126,0.10174
3677.58973,0.09685
3679.51820,0.09434
3681.44667,0.09336
3683.37514,0.09136
3685.30361,0.09216
3687.23208,0.09627
3689.16055,0.09673
3691.08901,0.09088
3693.01748,0.08638
3694.94595,0.08259
3696.87442,0.07833
3698.80289,0.07693
3700.73136,0.07653
3702.65983,0.07321
3704.58829,0.07197
3706.51676,0.07475
3708.44523,0.07855
3710.37370,0.08164
3712.30217,0.08386
3714.23064,0.08721
3716.15911,0.09023
3718.08757,0.09074
3720.01604,0.08939
3721.94451,0.08721
3723.87298,0.08458
3725.80145,0.07909
3727.72992,0.07154
3729.65839,0.07226
3731.58686,0.08455
3733.51532,0.09588
3735.44379,0.09020
3737.37226,0.08086
3739.30073,0.08087
3741.22920,0.08472
3743.15767,0.09081
3745.08614,0.09437
3747.01460,0.09157
3748.94307,0.09516
3750.87154,0.10416
3752.80001,0.09740
3754.72848,0.08572
3756.65695,0.08307
3758.58542,0.08797
3760.51389,0.09093
3762.44235,0.08797
3764.37082,0.08555
3766.29929,0.08416
3768.22776,0.08124
3770.15623,0.08109
3772.08470,0.08296
3774.01317,0.08231
3775.94163,0.08058
3777.87010,0.07923
3779.79857,0.08114
3781.72704,0.08814
3783.65551,0.09107
3785.58398,0.08472
3787.51245,0.07883
3789.44092,0.07766
3791.36938,0.07750
3793.29785,0.08036
3795.22632,0.08650
3797.15479,0.08769
3799.08326,0.08099
3801.01173,0.07517
3802.94020,0.07614
3804.86866,0.07871
3806.79713,0.08026
3808.72560,0.07889
3810.65407,0.07496
3812.58254,0.07624
3814.51101,0.08668
3816.43948,0.09266
3818.36795,0.08641
3820.29641,0.08398
3822.22488,0.08450
3824.15335,0.08159
3826.08182,0.07923
3828.01029,0.07763
3829.93876,0.07671
3831.86723,0.07664
3833.79569,0.07679
3835.72416,0.07877
3837.65263,0.08346
3839.58110,0.08446
3841.50957,0.08215
3843.43804,0.08402
3845.36651,0.08753
3847.29498,0.08943
3849.22344,0.09252
3851.15191,0.09576
3853.08038,0.08776
3855.00885,0.07317
3856.93732,0.06995
3858.86579,0.07083
3860.79426,0.07478
3862.72272,0.08266
3864.65119,0.08915
3866.57966,0.08908
3868.50813,0.08635
3870.43660,0.08394
3872.36507,0.08305
3874.29354,0.08391
3876.22200,0.08274
3878.15047,0.08041
3880.07894,0.08061
3882.00741,0.07717
3883.93588,0.06810
3885.86435,0.06459
3887.79282,0.06898
3889.72129,0.07486
3891.64975,0.07947
3893.57822,0.07791
3895.50669,0.07383
3897.43516,0.07334
3899.36363,0.07865
3901.29210,0.08653
3903.22057,0.09138
3905.14903,0.08978
3907.07750,0.08126
3909.00597,0.07344
3910.93444,0.07129
3912.86291,0.07158
3914.79138,0.07283
3916.71985,0.07758
3918.64832,0.08206
3920.57678,0.08134
3922.50525,0.07717
3924.43372,0.07083
3926.36219,0.06511
3928.29066,0.06751
3930.21913,0.07659
3932.14760,0.07934
3934.07606,0.07152
3936.00453,0.06569
3937.93300,0.06973
3939.86147,0.07484
3941.78994,0.07343
3943.71841,0.07314
3945.64688,0.07510
3947.57535,0.07301
3949.50381,0.06998
3951.43228,0.07109
3953.36075,0.07243
3955.28922,0.07121
3957.21769,0.06915
3959.14616,0.06646
3961.07463,0.06399
3963.00309,0.06304
3964.93156,0.06399
3966.86003,0.06636
3968.78850,0.06826
3970.71697,0.06803
3972.64544,0.06592
3974.57391,0.06369
3976.50238,0.06446
3978.43084,0.06781
3980.35931,0.06747
3982.28778,0.06276
3984.21625,0.05893
3986.14472,0.05978
3988.07319,0.06394
3990.00166,0.06680
3991.93012,0.06818
3993.85859,0.06834
3995.78706,0.06767
3997.71553,0.06624
3999.64400,0.06461
4001.57247,0.06644
4003.50094,0.06982
4005.42941,0.07129
4007.35787,0.06983
4009.28634,0.06450
4011.21481,0.06027
4013.14328,0.06141
4015.07175,0.06191
4017.00022,0.06022
4018.92869,0.06464
4020.85715,0.07046
4022.78562,0.06665
4024.71409,0.05856
4026.64256,0.05824
4028.57103,0.06519
4030.49950,0.06909
4032.42797,0.06748
4034.35644,0.06674
4036.28490,0.06962
4038.21337,0.07216
4040.14184,0.07270
4042.07031,0.07360
4043.99878,0.07171
4045.92725,0.06515
4047.85572,0.05936
4049.78418,0.05876
4051.71265,0.06353
4053.64112,0.06808
4055.56959,0.07107
4057.49806,0.07315
4059.42653,0.06774
4061.35500,0.05877
4063.28346,0.05673
4065.21193,0.06013
4067.14040,0.06108
4069.06887,0.05888
4070.99734,0.05964
4072.92581,0.06158
4074.85428,0.06088
4076.78275,0.05825
4078.71121,0.05625
4080.63968,0.05988
4082.56815,0.06457
4084.49662,0.06231
4086.42509,0.05850
4088.35356,0.05796
4090.28203,0.05846
4092.21049,0.06035
4094.13896,0.05982
4096.06743,0.05621
4097.99590,0.05572
4099.92437,0.05662
4101.85284,0.05667
4103.78131,0.05938
4105.70978,0.06438
4107.63824,0.06407
4109.56671,0.05922
4111.49518,0.05861
4113.42365,0.05933
4115.35212,0.05683
4117.28059,0.05358
4119.20906,0.05098
4121.13752,0.05144
4123.06599,0.05513
4124.99446,0.05625
4126.92293,0.05187
4128.85140,0.04770
4130.77987,0.04801
4132.70834,0.04761
4134.63681,0.04433
4136.56527,0.04473
4138.49374,0.04898
4140.42221,0.04905
4142.35068,0.04463
4144.27915,0.04568
4146.20762,0.05537
4148.13609,0.06494
4150.06455,0.06840
4151.99302,0.06515
4153.92149,0.05829
4155.84996,0.05607
4157.77843,0.05948
4159.70690,0.05934
4161.63537,0.05628
4163.56384,0.05772
4165.49230,0.06014
4167.42077,0.05813
4169.34924,0.05201
4171.27771,0.04652
4173.20618,0.04716
4175.13465,0.05130
4177.06312,0.05132
4178.99158,0.04614
4180.92005,0.04339
4182.84852,0.04656
4184.77699,0.05004
4186.70546,0.05101
4188.63393,0.05075
4190.56240,0.04900
4192.49087,0.04589
4194.41933,0.04270
4196.34780,0.04238
4198.27627,0.04563
4200.20474,0.04790
4202.13321,0.04991
4204.06168,0.05307
4205.99015,0.05117
4207.91861,0.04617
4209.84708,0.04703
4211.77555,0.04982
4213.70402,0.04711
4215.63249,0.04318
4217.56096,0.04179
4219.48943,0.04212
4221.41789,0.04371
4223.34636,0.04342
4225.27483,0.04261
4227.20330,0.04508
4229.13177,0.04904
4231.06024,0.05181
4232.98871,0.04913
4234.91718,0.04366
4236.84564,0.04488
4238.77411,0.04815
4240.70258,0.04471
4242.63105,0.04115
4244.55952,0.04152
4246.48799,0.03695
4248.41646,0.02748
4250.34492,0.02238
4252.27339,0.02574
4254.20186,0.03807
4256.13033,0.04947
4258.05880,0.04908
4259.98727,0.04355
4261.91574,0.03783
4263.84421,0.02890
4265.77267,0.02432
4267.70114,0.03287
4269.62961,0.04782
4271.55808,0.05482
4273.48655,0.05010
4275.41502,0.04170
4277.34349,0.03820
4279.27195,0.04228
4281.20042,0.04640
4283.12889,0.04560
4285.05736,0.04282
4286.98583,0.03977
4288.91430,0.04080
4290.84277,0.04630
4292.77124,0.04803
4294.69970,0.04355
4296.62817,0.04168
4298.55664,0.04467
4300.48511,0.04309
4302.41358,0.03396
4304.34205,0.02445
4306.27052,0.02365
4308.19898,0.02897
4310.12745,0.03029
4312.05592,0.02909
4313.98439,0.02749
4315.91286,0.02505
4317.84133,0.02805
4319.76980,0.03520
4321.69827,0.03912
4323.62673,0.04071
4325.55520,0.04220
4327.48367,0.04523
4329.41214,0.04754
4331.34061,0.04261
4333.26908,0.03683
4335.19755,0.03628
4337.12601,0.03299
4339.05448,0.02789
4340.98295,0.02874
4342.91142,0.03299
4344.83989,0.03518
4346.76836,0.03649
4348.69683,0.03732
4350.62530,0.03402
4352.55376,0.03278
4354.48223,0.03695
4356.41070,0.03797
4358.33917,0.03643
4360.26764,0.03561
4362.19611,0.03368
4364.12458,0.03158
4366.05304,0.03373
4367.98151,0.03872
4369.90998,0.03535
4371.83845,0.02329
4373.76692,0.01571
4375.69539,0.01880
4377.62386,0.02506
4379.55232,0.02710
4381.48079,0.02844
4383.40926,0.03234
4385.33773,0.03459
4387.26620,0.03050
4389.19467,0.02436
4391.12314,0.02137
4393.05161,0.01749
4394.98007,0.01226
4396.90854,0.01143
4398.83701,0.01758
4400.76548,0.02932
4402.69395,0.03694
4404.62242,0.03014
4406.55089,0.01467
4408.47935,0.00399
4410.40782,0.00715
4412.33629,0.02187
4414.26476,0.03363
4416.19323,0.03508
4418.12170,0.03072
4420.05017,0.02179
4421.97864,0.01222
4423.90710,0.01113
4425.83557,0.01759
4427.76404,0.02738
4429.69251,0.03687
4431.62098,0.03791
4433.54945,0.02952
4435.47792,0.02044
4437.40638,0.01618
4439.33485,0.01370
4441.26332,0.01358
4443.19179,0.01656
4445.12026,0.01661
4447.04873,0.01487
4448.97720,0.01410
4450.90567,0.01189
4452.83413,0.00888
4454.76260,0.00801
4456.69107,0.00884
4458.61954,0.00873
4460.54801,0.00641
4462.47648,0.00784
4464.40495,0.02065
4466.33341,0.03054
4468.26188,0.02299
4470.19035,0.01360
4472.11882,0.01826
4474.04729,0.02673
4475.97576,0.02296
4477.90423,0.00978
4479.83270,0.00123
4481.76116,0.00567
4483.68963,0.01704
4485.61810,0.01831
4487.54657,0.00817
4489.47504,0.00309
4491.40351,0.00991
4493.33198,0.02323
4495.26044,0.03346
4497.18891,0.03322
4499.11738,0.02757
4501.04585,0.01858
4502.97432,0.00391
4504.90279,-0.00369
4506.83126,0.00372
4508.75973,0.01379
4510.68819,0.01445
4512.61666,0.00848
4514.54513,0.00515
4516.47360,0.00736
4518.40207,0.01019
4520.33054,0.01211
4522.25901,0.01340
4524.18747,0.01073
4526.11594,0.00553
4528.04441,0.00214
4529.97288,0.00603
4531.90135,0.01534
4533.82982,0.01833
4535.75829,0.01017
4537.68676,-0.00045
4539.61522,0.00023
4541.54369,0.00729
4543.47216,0.00847
4545.40063,0.00550
4547.32910,0.00215
4549.25757,0.00085
4551.18604,0.00169
4553.11450,0.00395
4555.04297,0.00493
4556.97144,0.00018
4558.89991,-0.00308
4560.82838,0.00556
4562.75685,0.02079
4564.68532,0.02759
4566.61378,0.01977
4568.54225,0.00651
4570.47072,-0.00023
4572.39919,-0.00248
4574.32766,-0.00502
4576.25613,-0.00228
4578.18460,0.00682
4580.11307,0.02054
4582.04153,0.03427
4583.97000,0.03190
4585.89847,0.01290
4587.82694,0.00083
4589.75541,0.00754
4591.68388,0.01739
4593.61235,0.01570
4595.54081,0.01074
4597.46928,0.00844
4599.39775,0.00342
4601.32622,-0.00326
4603.25469,-0.00775
4605.18316,-0.00510
4607.11163,0.00230
4609.04010,0.00103
4610.96856,-0.00975
4612.89703,-0.01375
4614.82550,-0.00575
4616.75397,-0.00145
4618.68244,-0.00542
4620.61091,-0.00414
4622.53938,0.00144
4624.46784,0.00452
4626.39631,0.00655
4628.32478,0.00669
4630.25325,0.00731
4632.18172,0.00884
4634.11019,0.00794
4636.03866,0.00493
4637.96713,-0.00121
4639.89559,-0.00248
4641.82406,0.00232
4643.75253,0.00133
4645.68100,-0.00237
4647.60947,-0.00280
4649.53794,-0.00057
4651.46641,0.00261
4653.39487,0.00361
4655.32334,0.00474
4657.25181,0.00407
4659.18028,-0.00143
4661.10875,-0.00256
4663.03722,0.00249
4664.96569,0.00417
4666.89416,0.00330
4668.82262,0.00423
4670.75109,0.00565
4672.67956,0.00254
4674.60803,-0.00615
4676.53650,-0.01089
4678.46497,-0.00646
4680.39344,0.00173
4682.32190,0.01048
4684.25037,0.01983
4686.17884,0.02210
4688.10731,0.01327
4690.03578,0.00376
4691.96425,-0.00253
4693.89272,-0.00520
4695.82119,-0.00124
4697.74965,0.00461
4699.67812,0.01421
4701.60659,0.02538
4703.53506,0.02164
4705.46353,0.00760
4707.39200,0.00078
4709.32047,0.00222
4711.24893,0.00713
4713.17740,0.00856
4715.10587,0.00687
4717.03434,0.00696
4718.96281,0.00123
4720.89128,-0.00509
4722.81975,0.00080
4724.74821,0.00870
4726.67668,0.00809
4728.60515,0.00161
4730.53362,-0.00494
4732.46209,-0.00371
4734.39056,0.00663
4736.31903,0.01541
4738.24750,0.01235
4740.17596,0.00272
4742.10443,-0.00327
4744.03290,-0.00206
4745.96137,0.00773
4747.88984,0.01352
4749.81831,0.00473
4751.74678,-0.00244
4753.67524,-0.00085
4755.60371,-0.00478
4757.53218,-0.01370
4759.46065,-0.01317
4761.38912,-0.00337
4763.31759,0.00673
4765.24606,0.01514
4767.17453,0.01664
4769.10299,0.00741
4771.03146,0.00188
4772.95993,0.01131
4774.88840,0.01867
4776.81687,0.00879
4778.74534,-0.00301
4780.67381,-0.00700
4782.60227,-0.01021
4784.53074,-0.01087
4786.45921,-0.01178
4788.38768,-0.00982
4790.31615,0.00171
4792.24462,0.00640
4794.17309,0.00154
4796.10156,0.00460
4798.03002,0.01342
4799.95849,0.01402
4801.88696,0.00616
4803.81543,-0.00348
4805.74390,-0.01220
4807.67237,-0.00858
4809.60084,0.01153
4811.52930,0.02178
4813.45777,0.01799
4815.38624,0.01903
4817.31471,0.01759
4819.24318,0.01559
4821.17165,0.02355
4823.10012,0.02716
4825.02859,0.02230
4826.95705,0.02373
4828.88552,0.02711
4830.81399,0.02162
4832.74246,0.01877
4834.67093,0.02331
4836.59940,0.02364
4838.52787,0.01645
4840.45633,0.00631
4842.38480,-0.00050
4844.31327,-0.00163
4846.24174,-0.00201
4848.17021,-0.00442
4850.09868,-0.00994
4852.02715,-0.01832
4853.95562,-0.01774
4855.88408,-0.00402
4857.81255,0.01270
4859.74102,0.02558
4861.66949,0.01991
4863.59796,-0.00838
4865.52643,-0.02956
4867.45490,-0.02699
4869.38336,-0.01735
4871.31183,-0.01092
4873.24030,-0.00553
4875.16877,0.00045
4877.09724,0.00481
4879.02571,0.00272
4880.95418,-0.00112
4882.88265,0.00193
4884.81111,0.01552
4886.73958,0.02983
4888.66805,0.02266
4890.59652,0.00245
4892.52499,0.00621
4894.45346,0.03242
4896.38193,0.04853
4898.31039,0.04497
4900.23886,0.02949
4902.16733,0.01129
4904.09580,-0.00058
4906.02427,-0.00415
4907.95274,-0.00413
4909.88121,-0.00418
4911.80967,0.00110
4913.73814,0.01024
4915.66661,0.01252
4917.59508,0.00745
4919.52355,0.00379
4921.45202,0.00891
4923.38049,0.01588
4925.30896,0.01818
4927.23742,0.02322
4929.16589,0.03134
4931.09436,0.03383
4933.02283,0.03007
4934.95130,0.02481
4936.87977,0.02260
4938.80824,0.03187
4940.73670,0.04182
4942.66517,0.03052
4944.59364,0.01129
4946.52211,0.00391
4948.45058,-0.00300
4950.37905,-0.01292
4952.30752,-0.01606
4954.23599,-0.01560
4956.16445,-0.01183
4958.09292,-0.00450
4960.02139,-0.00075
4961.94986,0.00324
4963.87833,0.01278
4965.80680,0.02227
4967.73527,0.02448
4969.66373,0.01324
4971.59220,-0.00271
4973.52067,0.00008
4975.44914,0.01698
4977.37761,0.02127
4979.30608,0.01673
4981.23455,0.01724
4983.16302,0.01104
4985.09148,-0.00317
4987.01995,-0.01106
4988.94842,-0.00932
4990.87689,0.00169
4992.80536,0.01250
4994.73383,0.00796
4996.66230,0.00001
4998.59076,0.00934
5000.51923,0.02065
5002.44770,0.02013
5004.37617,0.02024
5006.30464,0.01828
5008.23311,0.00932
5010.16158,0.00638
5012.09005,0.01310
5014.01851,0.02266
5015.94698,0.03177
5017.87545,0.03113
5019.80392,0.01415
5021.73239,0.00137
5023.66086,0.01124
5025.58933,0.02386
5027.51779,0.01988
5029.44626,0.02022
5031.37473,0.02949
5033.30320,0.02222
5035.23167,0.00563
5037.16014,-0.00011
5039.08861,0.00695
5041.01708,0.01904
5042.94554,0.02504
5044.87401,0.02791
5046.80248,0.03540
5048.73095,0.04166
5050.65942,0.04130
5052.58789,0.03856
5054.51636,0.03289
5056.44482,0.02573
5058.37329,0.02128
5060.30176,0.01926
5062.23023,0.02652
5064.15870,0.04323
5066.08717,0.05010
5068.01564,0.03751
5069.94410,0.01722
5071.87257,-0.00292
5073.80104,-0.01055
5075.72951,0.00331
5077.65798,0.01484
5079.58645,0.01067
5081.51492,0.00405
5083.44339,0.00191
5085.37185,0.01021
5087.30032,0.02845
5089.22879,0.03582
5091.15726,0.02389
5093.08573,0.02239
5095.01420,0.04290
5096.94267,0.05275
5098.87113,0.04884
5100.79960,0.05362
5102.72807,0.05541
5104.65654,0.04303
5106.58501,0.02269
5108.51348,0.00318
5110.44195,0.00128
5112.37042,0.01781
5114.29888,0.03284
5116.22735,0.04141
5118.15582,0.04665
5120.08429,0.04493
5122.01276,0.03852
5123.94123,0.03077
5125.86970,0.02613
5127.79816,0.03106
5129.72663,0.04549
5131.65510,0.05949
5133.58357,0.05444
5135.51204,0.03079
5137.44051,0.00731
5139.36898,-0.00893
5141.29745,-0.02054
5143.22591,-0.02663
5145.15438,-0.01469
5147.08285,0.01543
5149.01132,0.03653
5150.93979,0.03618
5152.86826,0.03129
5154.79673,0.03336
5156.72519,0.03690
5158.65366,0.04241
5160.58213,0.05825
5162.51060,0.06734
5164.43907,0.04036
5166.36754,-0.00463
5168.29601,-0.02755
5170.22448,-0.02131
5172.15294,-0.00078
5174.08141,0.01869
5176.00988,0.03164
5177.93835,0.03784
5179.86682,0.03643
5181.79529,0.03063
5183.72376,0.02765
5185.65222,0.03021
5187.58069,0.03489
5189.50916,0.03928
5191.43763,0.03807
5193.36610,0.03610
5195.29457,0.04140
5197.22304,0.04072
5199.15151,0.03529
5201.07997,0.03800
5203.00844,0.04481
5204.93691,0.05259
5206.86538,0.05213
5208.79385,0.03942
5210.72232,0.02841
5212.65079,0.01849
5214.57925,0.01208
5216.50772,0.02403
5218.43619,0.03487
5220.36466,0.01565
5222.29313,-0.00531
5224.22160,0.00109
5226.15007,0.01833
5228.07854,0.02234
5230.00700,0.01631
5231.93547,0.01580
5233.86394,0.02099
5235.79241,0.01755
5237.72088,0.01445
5239.64935,0.02430
5241.57782,0.03563
5243.50628,0.04379
5245.43475,0.04571
5247.36322,0.04094
5249.29169,0.03544
5251.22016,0.01847
5253.14863,-0.00030
5255.07710,0.00970
5257.00556,0.03689
5258.93403,0.04923
5260.86250,0.04908
5262.79097,0.04882
5264.71944,0.04855
5266.64791,0.04667
5268.57638,0.04553
5270.50485,0.04516
5272.43331,0.04577
5274.36178,0.04925
5276.29025,0.05265
5278.21872,0.05547
5280.14719,0.04991
5282.07566,0.03239
5284.00413,0.02316
5285.93259,0.03042
5287.86106,0.03951
5289.78953,0.03482
5291.71800,0.02199
5293.64647,0.01553
5295.57494,0.00936
5297.50341,0.01093
5299.43188,0.02985
5301.36034,0.05107
5303.28881,0.05577
5305.21728,0.04854
5307.14575,0.05226
5309.07422,0.05305
5311.00269,0.03315
5312.93116,0.02345
5314.85962,0.03475
5316.78809,0.04493
5318.71656,0.04353
5320.64503,0.03211
5322.57350,0.02371
5324.50197,0.03312
5326.43044,0.04945
5328.35891,0.04947
5330.28737,0.04605
5332.21584,0.06466
5334.14431,0.08179
5336.07278,0.07175
5338.00125,0.04843
5339.92972,0.02094
5341.85819,0.00144
5343.78665,0.00106
5345.71512,0.00759
5347.64359,0.01501
5349.57206,0.01852
5351.50053,0.01247
5353.42900,0.02009
5355.35747,0.03458
5357.28594,0.02787
5359.21440,0.01867
5361.14287,0.02960
5363.07134,0.05221
5364.99981,0.05492
5366.92828,0.03494
5368.85675,0.01804
5370.78522,0.01602
5372.71368,0.02601
5374.64215,0.03094
5376.57062,0.02933
5378.49909,0.03566
5380.42756,0.04722
5382.35603,0.05050
5384.28450,0.02856
5386.21297,-0.00184
5388.14143,-0.00445
5390.06990,0.02397
5391.99837,0.06266
5393.92684,0.07288
5395.85531,0.05009
5397.78378,0.03126
5399.71225,0.02457
5401.64071,0.02503
5403.56918,0.04222
5405.49765,0.06714
5407.42612,0.06906
5409.35459,0.05215
5411.28306,0.03582
5413.21153,0.02528
5415.13999,0.03639
5417.06846,0.05358
5418.99693,0.05354
5420.92540,0.04578
5422.85387,0.03838
5424.78234,0.03667
5426.71081,0.04164
5428.63928,0.04177
5430.56774,0.04580
5432.49621,0.05642
5434.42468,0.05237
5436.35315,0.03945
5438.28162,0.03694
5440.21009,0.03991
5442.13856,0.05463
5444.06702,0.08237
5445.99549,0.09473
5447.92396,0.08799
5449.85243,0.07422
5451.78090,0.05008
5453.70937,0.03000
5455.63784,0.01785
5457.56631,0.00371
5459.49477,0.00409
5461.42324,0.02208
5463.35171,0.03533
5465.28018,0.03779
5467.20865,0.04145
5469.13712,0.05224
5471.06559,0.05820
5472.99405,0.05249
5474.92252,0.04057
5476.85099,0.04057
5478.77946,0.05642
5480.70793,0.06873
5482.63640,0.07506
5484.56487,0.06931
5486.49334,0.04743
5488.42180,0.04105
5490.35027,0.05677
5492.27874,0.05680
5494.20721,0.03326
5496.13568,0.01921
5498.06415,0.02832
5499.99262,0.04075
5501.92108,0.04076
5503.84955,0.04496
5505.77802,0.05980
5507.70649,0.06233
5509.63496,0.04951
5511.56343,0.03979
5513.49190,0.02536
5515.42037,0.00253
5517.34883,0.00121
5519.27730,0.02898
5521.20577,0.05192
5523.13424,0.05333
5525.06271,0.05933
5526.99118,0.07372
5528.91965,0.05850
5530.84811,0.02836
5532.77658,0.02587
5534.70505,0.03055
5536.63352,0.02736
5538.56199,0.04201
5540.49046,0.06957
5542.41893,0.07714
5544.34740,0.06375
5546.27586,0.05339
5548.20433,0.05369
5550.13280,0.05030
5552.06127,0.03763
5553.98974,0.02912
5555.91821,0.03045
5557.84668,0.03972
5559.77514,0.04662
5561.70361,0.04835
5563.63208,0.06185
5565.56055,0.07794
5567.48902,0.08110
5569.41749,0.08948
5571.34596,0.10586
5573.27443,0.10121
5575.20289,0.07682
5577.13136,0.06716
5579.05983,0.07523
5580.98830,0.07666
5582.91677,0.06303
5584.84524,0.05048
5586.77371,0.04734
5588.70217,0.04987
5590.63064,0.03669
5592.55911,-0.00036
5594.48758,-0.01123
5596.41605,0.03162
5598.34452,0.07258
5600.27299,0.06696
5602.20145,0.05133
5604.12992,0.05071
5606.05839,0.03937
5607.98686,0.02646
5609.91533,0.03786
5611.84380,0.05883
5613.77227,0.06860
5615.70074,0.07206
5617.62920,0.07821
5619.55767,0.07563
5621.48614,0.05656
5623.41461,0.05128
5625.34308,0.07459
5627.27155,0.09327
5629.20002,0.10072
5631.12848,0.11561
5633.05695,0.11949
5634.98542,0.09135
5636.91389,0.04543
5638.84236,0.01419
5640.77083,0.01442
5642.69930,0.02288
5644.62777,0.02388
5646.55623,0.04107
5648.48470,0.06708
5650.41317,0.06959
5652.34164,0.07059
5654.27011,0.09188
5656.19858,0.10640
5658.12705,0.08289
5660.05551,0.02656
5661.98398,0.00611
5663.91245,0.04048
5665.84092,0.06440
5667.76939,0.08231
5669.69786,0.12058
5671.62633,0.13561
5673.55480,0.09627
5675.48326,0.02810
5677.41173,-0.01600
5679.34020,-0.00390
5681.26867,0.02171
5683.19714,0.02975
5685.12561,0.05929
5687.05408,0.09384
5688.98254,0.07066
5690.91101,0.00963
5692.83948,-0.02377
5694.76795,-0.02142
5696.69642,-0.00094
5698.62489,0.03564
5700.55336,0.05741
5702.48183,0.05981
5704.41029,0.06654
5706.33876,0.05410
5708.26723,0.02880
5710.19570,0.03396
5712.12417,0.07225
5714.05264,0.11899
5715.98111,0.13458
5717.90957,0.09383
5719.83804,0.03906
5721.76651,0.01882
5723.69498,0.02201
5725.62345,0.02751
5727.55192,0.04190
5729.48039,0.07079
5731.40886,0.08218
5733.33732,0.05546
5735.26579,0.03843
5737.19426,0.07069
5739.12273,0.11440
5741.05120,0.13342
5742.97967,0.11933
5744.90814,0.08417
5746.83660,0.05486
5748.76507,0.04706
5750.69354,0.05224
5752.62201,0.04828
5754.55048,0.04333
5756.47895,0.06237
5758.40742,0.09248
5760.33588,0.10792
5762.26435,0.10359
5764.19282,0.08305
5766.12129,0.07356
5768.04976,0.09473
5769.97823,0.11206
5771.90670,0.10387
5773.83517,0.08579
5775.76363,0.07492
5777.69210,0.07094
5779.62057,0.05678
5781.54904,0.04595
5783.47751,0.06733
5785.40598,0.10020
5787.33445,0.10056
5789.26291,0.06962
5791.19138,0.04148
5793.11985,0.03614
5795.04832,0.05625
5796.97679,0.08252
5798.90526,0.08756
5800.83373,0.09109
5802.76220,0.10111
5804.69066,0.07852
5806.61913,0.04008
5808.54760,0.02552
5810.47607,0.03079
5812.40454,0.03802
5814.33301,0.04051
5816.26148,0.05579
5818.18994,0.07675
5820.11841,0.07299
5822.04688,0.04308
5823.97535,0.02075
5825.90382,0.02895
5827.83229,0.03255
5829.76076,-0.00051
5831.68923,-0.02451
5833.61769,0.00907
5835.54616,0.08007
5837.47463,0.14688
5839.40310,0.17781
5841.33157,0.14958
5843.26004,0.08579
5845.18851,0.04618
5847.11697,0.04552
5849.04544,0.05751
5850.97391,0.07486
5852.90238,0.08492
5854.83085,0.07664
5856.75932,0.05420
5858.68779,0.02286
5860.61626,0.00647
5862.54472,0.01810
5864.47319,0.04767
5866.40166,0.07848
5868.33013,0.09654
5870.25860,0.11091
5872.18707,0.11419
5874.11554,0.07789
5876.04400,0.02932
5877.97247,0.04202
5879.90094,0.10385
5881.82941,0.11636
5883.75788,0.06384
5885.68635,0.03719
5887.61482,0.06036
5889.54329,0.06278
5891.47175,0.03208
5893.40022,0.01092
5895.32869,0.00257
5897.25716,0.01063
5899.18563,0.04518
5901.11410,0.06375
5903.04257,0.04729
5904.97103,0.04532
5906.89950,0.06805
5908.82797,0.07733
5910.75644,0.06666
5912.68491,0.07390
5914.61338,0.09792
5916.54185,0.10863
5918.47032,0.12703
5920.39878,0.14863
5922.32725,0.11921
5924.25572,0.06707
5926.18419,0.07546
5928.11266,0.12420
5930.04113,0.13346
5931.96960,0.10060
5933.89806,0.06862
5935.82653,0.06839
5937.75500,0.10014
5939.68347,0.12001
5941.61194,0.09530
5943.54041,0.06018
5945.46888,0.04239
5947.39734,0.03324
5949.32581,0.05362
5951.25428,0.10099
5953.18275,0.10608
5955.11122,0.07809
5957.03969,0.08173
5958.96816,0.08648
5960.89663,0.06784
5962.82509,0.06003
5964.75356,0.06689
5966.68203,0.06755
5968.61050,0.04043
5970.53897,0.02123
5972.46744,0.03797
5974.39591,0.05337
5976.32437,0.06220
5978.25284,0.07534
5980.18131,0.08281
5982.10978,0.08856
5984.03825,0.07530
5985.96672,0.03360
5987.89519,0.03760
5989.82366,0.09214
5991.75212,0.11581
5993.68059,0.10049
5995.60906,0.06259
5997.53753,0.04153
5999.46600,0.06843
6001.39447,0.10097
6003.32294,0.12549
6005.25140,0.15656
6007.17987,0.15951
6009.10834,0.11064
6011.03681,0.06668
6012.96528,0.07645
6014.89375,0.09302
6016.82222,0.08205
6018.75069,0.07938
6020.67915,0.08540
6022.60762,0.07328
6024.53609,0.05528
6026.46456,0.02446
6028.39303,-0.02292
6030.32150,-0.02873
6032.24997,0.03096
6034.17843,0.09411
6036.10690,0.10611
6038.03537,0.09114
6039.96384,0.09154
6041.89231,0.11707
6043.82078,0.14393
6045.74925,0.13985
6047.67772,0.11462
6049.60618,0.08136
6051.53465,0.05508
6053.46312,0.04668
6055.39159,0.04401
6057.32006,0.07023
6059.24853,0.12287
6061.17700,0.14913
6063.10546,0.12914
6065.03393,0.08329
6066.96240,0.05787
6068.89087,0.07590
6070.81934,0.10722
6072.74781,0.10559
6074.67628,0.06870
6076.60475,0.02986
6078.53321,0.00746
6080.46168,0.00763
6082.39015,0.02235
6084.31862,0.02468
6086.24709,0.00404
6088.17556,0.01042
6090.10403,0.07245
6092.03249,0.11430
6093.96096,0.08031
6095.88943,0.03225
6097.81790,0.03431
6099.74637,0.06765
6101.67484,0.09243
6103.60331,0.09234
6105.53177,0.05344
6107.46024,-0.01176
6109.38871,-0.02611
6111.31718,0.04015
6113.24565,0.09491
6115.17412,0.08668
6117.10259,0.06793
6119.03106,0.07239
6120.95952,0.07579
6122.88799,0.08045
6124.81646,0.07929
6126.74493,0.05158
6128.67340,0.05363
6130.60187,0.11362
6132.53034,0.14802
6134.45880,0.11600
6136.38727,0.05782
6138.31574,0.01522
6140.24421,0.00085
6142.17268,0.02128
6144.10115,0.08014
6146.02962,0.12790
6147.95809,0.11238
6149.88655,0.04280
6151.81502,-0.03295
6153.74349,-0.04247
6155.67196,0.02133
6157.60043,0.07607
6159.52890,0.07836
6161.45737,0.06187
6163.38583,0.05546
6165.31430,0.04143
6167.24277,0.02994
6169.17124,0.04475
6171.09971,0.07282
6173.02818,0.08008
6174.95665,0.03300
6176.88512,-0.02208
6178.81358,0.00129
6180.74205,0.07148
6182.67052,0.09837
6184.59899,0.08323
6186.52746,0.07519
6188.45593,0.06215
6190.38440,0.04382
6192.31286,0.05037
6194.24133,0.05350
6196.16980,0.06645
6198.09827,0.10572
6200.02674,0.11430
6201.95521,0.08994
6203.88368,0.06962
6205.81215,0.05751
6207.74061,0.04535
6209.66908,0.04857
6211.59755,0.07813
6213.52602,0.09659
6215.45449,0.07610
6217.38296,0.03205
6219.31143,0.01798
6221.23989,0.04014
6223.16836,0.05389
6225.09683,0.06031
6227.02530,0.07092
6228.95377,0.07419
6230.88224,0.05943
6232.81071,0.02677
6234.73918,0.05033
6236.66764,0.12257
6238.59611,0.11019
6240.52458,0.00441
6242.45305,-0.06329
6244.38152,-0.01455
6246.30999,0.10408
6248.23846,0.17837
6250.16692,0.16858
6252.09539,0.12216
6254.02386,0.08572
6255.95233,0.07329
6257.88080,0.07305
6259.80927,0.07842
6261.73774,0.08914
6263.66621,0.08438
6265.59467,0.05148
6267.52314,0.02099
6269.45161,0.01960
6271.38008,0.01923
6273.30855,-0.00707
6275.23702,0.00159
6277.16549,0.06300
6279.09395,0.07837
6281.02242,0.06242
6282.95089,0.07274
6284.87936,0.07013
6286.80783,0.01171
6288.73630,-0.06282
6290.66477,-0.04329
6292.59323,0.08038
6294.52170,0.17868
6296.45017,0.17317
6298.37864,0.11445
6300.30711,0.07733
6302.23558,0.04336
6304.16405,0.00275
6306.09252,0.01318
6308.02098,0.05108
6309.94945,0.07049
6311.87792,0.09317
6313.80639,0.11250
6315.73486,0.11234
6317.66333,0.08766
6319.59180,0.03985
6321.52026,0.01047
6323.44873,-0.00051
6325.37720,0.00423
6327.30567,0.05828
6329.23414,0.11037
6331.16261,0.10017
6333.09108,0.08611
6335.01955,0.10971
6336.94801,0.13168
6338.87648,0.15030
6340.80495,0.14194
6342.73342,0.06897
6344.66189,0.00977
6346.59036,-0.00322
6348.51883,-0.01147
6350.44729,0.01701
6352.37576,0.06595
6354.30423,0.10553
6356.23270,0.14673
6358.16117,0.14005
6360.08964,0.08689
6362.01811,0.05060
6363.94658,0.03350
6365.87504,0.03143
6367.80351,0.03345
6369.73198,0.00488
6371.66045,-0.04848
6373.58892,-0.06364
6375.51739,-0.01282
6377.44586,0.01141
6379.37432,-0.00306
6381.30279,0.03677
6383.23126,0.10577
6385.15973,0.07177
6387.08820,-0.02208
6389.01667,-0.04662
6390.94514,-0.02000
6392.87361,-0.00902
6394.80207,0.03139
6396.73054,0.10322
6398.65901,0.13799
6400.58748,0.12568
6402.51595,0.08714
6404.44442,0.04804
6406.37289,0.05187
6408.30135,0.10578
6410.22982,0.15993
6412.15829,0.16229
6414.08676,0.10443
6416.01523,0.03685
6417.94370,0.00280
6419.87217,0.01828
6421.80064,0.07877
6423.72910,0.13319
6425.65757,0.15740
6427.58604,0.18756
6429.51451,0.19202
6431.44298,0.13934
6433.37145,0.09614
6435.29992,0.08238
6437.22838,0.05049
6439.15685,0.00680
6441.08532,0.00529
6443.01379,0.05873
6444.94226,0.10228
6446.87073,0.06209
6448.79920,0.01606
6450.72766,0.03754
6452.65613,0.03326
6454.58460,0.00881
6456.51307,0.04908
6458.44154,0.07702
6460.37001,0.01849
6462.29848,-0.04587
6464.22695,-0.03938
6466.15541,0.01416
6468.08388,0.03917
6470.01235,-0.00915
6471.94082,-0.07355
6473.86929,-0.08667
6475.79776,-0.04753
6477.72623,0.01117
6479.65469,0.02830
6481.58316,-0.02039
6483.51163,-0.06500
6485.44010,-0.08446
6487.36857,-0.12505
6489.29704,-0.14737
6491.22551,-0.10139
6493.15398,-0.02296
6495.08244,0.04530
6497.01091,0.09588
6498.93938,0.13521
6500.86785,0.15372
6502.79632,0.14470
6504.72479,0.12958
6506.65326,0.10133
6508.58172,0.07019
6510.51019,0.07035
6512.43866,0.07184
6514.36713,0.05209
6516.29560,0.04845
6518.22407,0.08015
6520.15254,0.14268
6522.08101,0.19118
6524.00947,0.16082
6525.93794,0.12017
6527.86641,0.14517
6529.79488,0.16593
6531.72335,0.17502
6533.65182,0.17986
6535.58029,0.13470
6537.50875,0.10704
6539.43722,0.14602
6541.36569,0.14372
6543.29416,0.08802
6545.22263,0.07638
6547.15110,0.07768
6549.07957,0.04043
6551.00804,0.04336
6552.93650,0.15542
6554.86497,0.27306
6556.79344,0.28406
6558.72191,0.20350
6560.65038,0.12020
6562.57885,0.11495
6564.50732,0.11904
6566.43578,0.02092
6568.36425,-0.07476
6570.29272,-0.04559
6572.22119,0.05305
6574.14966,0.11718
6576.07813,0.13096
6578.00660,0.13976
6579.93507,0.14501
6581.86353,0.11299
6583.79200,0.03821
6585.72047,-0.06779
6587.64894,-0.14088
6589.57741,-0.07384
6591.50588,0.09321
6593.43435,0.18040
6595.36281,0.12835
6597.29128,0.08321
6599.21975,0.10923
6601.14822,0.12204
6603.07669,0.10212
6605.00516,0.12684
6606.93363,0.12072
6608.86210,0.02912
6610.79056,-0.00838
6612.71903,0.03507
6614.64750,0.03587
6616.57597,0.01625
6618.50444,0.07513
6620.43291,0.18604
6622.36138,0.23959
6624.28984,0.15843
6626.21831,0.02210
6628.14678,-0.06601
6630.07525,-0.06027
6632.00372,0.02225
6633.93219,0.06882
6635.86066,0.06756
6637.78912,0.09879
6639.71759,0.12203
6641.64606,0.11579
6643.57453,0.11673
6645.50300,0.08948
6647.43147,0.00593
6649.35994,-0.06596
6651.28841,-0.07004
6653.21687,0.00025
6655.14534,0.09498
6657.07381,0.14996
6659.00228,0.12027
6660.93075,0.02952
6662.85922,-0.00513
6664.78769,0.01607
6666.71615,0.01407
6668.64462,-0.01980
6670.57309,-0.06742
6672.50156,-0.07363
6674.43003,-0.01597
6676.35850,0.03135
6678.28697,0.02832
6680.21544,0.00507
6682.14390,0.02523
6684.07237,0.08357
6686.00084,0.10404
6687.92931,0.09744
6689.85778,0.13079
6691.78625,0.18521
6693.71472,0.21139
6695.64318,0.18809
6697.57165,0.12184
6699.50012,0.09223
6701.42859,0.11067
6703.35706,0.07358
6705.28553,0.00228
6707.21400,-0.02989
6709.14247,-0.04007
6711.07093,-0.01931
6712.99940,0.02374
6714.92787,0.02816
6716.85634,0.00145
6718.78481,0.01867
6720.71328,0.04948
6722.64175,0.05784
6724.57021,0.07507
6726.49868,0.04738
6728.42715,-0.02834
6730.35562,-0.08463
6732.28409,-0.10122
6734.21256,-0.06261
6736.14103,0.03001
6738.06950,0.10135
6739.99796,0.09914
6741.92643,0.06502
6743.85490,0.06212
6745.78337,0.07665
6747.71184,0.09610
6749.64031,0.13829
6751.56878,0.19703
6753.49724,0.21685
6755.42571,0.15513
6757.35418,0.07715
6759.28265,0.06443
6761.21112,0.10950
6763.13959,0.16284
6765.06806,0.21196
6766.99653,0.20491
6768.92499,0.08253
6770.85346,-0.05711
6772.78193,-0.05506
6774.71040,0.04913
6776.63887,0.10015
6778.56734,0.07743
6780.49581,0.06266
6782.42427,0.06676
6784.35274,0.07290
6786.28121,0.09189
6788.20968,0.11838
6790.13815,0.14051
6792.06662,0.17647
6793.99509,0.23339
6795.92355,0.23838
6797.85202,0.16155
6799.78049,0.07562
6801.70896,0.02109
6803.63743,0.02565
6805.56590,0.06008
6807.49437,0.05868
6809.42284,0.09959
6811.35130,0.17018
6813.27977,0.12433
6815.20824,0.00227
6817.13671,-0.09260
6819.06518,-0.11326
6820.99365,-0.04827
6822.92212,0.04864
6824.85058,0.06559
6826.77905,0.01999
6828.70752,0.00885
6830.63599,0.03522
6832.56446,0.03726
6834.49293,0.01077
6836.42140,-0.01032
6838.34987,0.00791
6840.27833,0.04494
6842.20680,0.03019
6844.13527,-0.00693
6846.06374,0.01471
6847.99221,0.01956
6849.92068,-0.04432
6851.84915,-0.06277
6853.77761,-0.02248
6855.70608,-0.01729
6857.63455,-0.06835
6859.56302,-0.08966
6861.49149,-0.09130
6863.41996,-0.09867
6865.34843,-0.07125
6867.27690,-0.02475
6869.20536,-0.02130
6871.13383,-0.03315
6873.06230,0.04934
6874.99077,0.18633
6876.91924,0.24101
6878.84771,0.21084
6880.77618,0.12219
6882.70464,-0.02048
6884.63311,-0.09424
6886.56158,-0.04210
6888.49005,0.00256
6890.41852,0.01799
6892.34699,0.03751
6894.27546,0.04293
6896.20393,0.05305
6898.13239,0.07164
6900.06086,0.11643
6901.98933,0.17699
6903.91780,0.17575
6905.84627,0.08560
6907.77474,0.02481
6909.70321,0.07292
6911.63167,0.17685
6913.56014,0.25555
6915.48861,0.27073
6917.41708,0.21896
6919.34555,0.11135
6921.27402,-0.01091
6923.20249,-0.13717
6925.13096,-0.19039
6927.05942,-0.08456
6928.98789,0.09156
6930.91636,0.17499
6932.84483,0.16078
6934.77330,0.13491
6936.70177,0.09101
6938.63024,0.01586
6940.55870,-0.01579
6942.48717,0.02072
6944.41564,0.06432
6946.34411,0.11174
6948.27258,0.13092
6950.20105,0.11148
6952.12952,0.10569
6954.05799,0.13858
6955.98645,0.13885
6957.91492,0.06798
6959.84339,0.02839
6961.77186,0.03087
6963.70033,0.05520
6965.62880,0.13450
6967.55727,0.22075
6969.48573,0.21296
6971.41420,0.08147
6973.34267,-0.03754
6975.27114,-0.01079
6977.19961,0.03668
6979.12808,0.00466
6981.05655,-0.02463
6982.98501,0.00386
6984.91348,0.03031
6986.84195,0.01893
6988.77042,0.00002
6990.69889,-0.03531
6992.62736,-0.09988
6994.55583,-0.16317
6996.48430,-0.17682
6998.41276,-0.09960
7000.34123,0.05593
7002.26970,0.16575
7004.19817,0.14482
7006.12664,0.08276
7008.05511,0.07348
7009.98358,0.07231
7011.91204,0.00923
7013.84051,-0.05415
7015.76898,0.00794
7017.69745,0.09083
7019.62592,0.05954
7021.55439,-0.01132
7023.48286,-0.00075
7025.41133,0.08379
7027.33979,0.13570
7029.26826,0.08364
7031.19673,0.01358
7033.12520,0.03161
7035.05367,0.09057
7036.98214,0.11468
7038.91061,0.13932
7040.83907,0.14400
7042.76754,0.05906
7044.69601,-0.07525
7046.62448,-0.11598
7048.55295,-0.00834
7050.48142,0.13433
7052.40989,0.19316
7054.33836,0.14858
7056.26682,0.12984
7058.19529,0.21879
7060.12376,0.23396
7062.05223,0.11594
7063.98070,0.01732
7065.90917,0.00859
7067.83764,-0.00320
7069.76610,-0.02590
7071.69457,0.03386
7073.62304,0.08352
7075.55151,0.01551
7077.47998,-0.02980
7079.40845,0.06292
7081.33692,0.17683
7083.26539,0.23608
7085.19385,0.32476
7087.12232,0.35859
7089.05079,0.28199
7090.97926,0.21866
7092.90773,0.17020
7094.83620,0.11441
7096.76467,0.10775
7098.69313,0.09367
7100.62160,0.02838
7102.55007,-0.00513
7104.47854,0.05553
7106.40701,0.21835
7108.33548,0.30492
7110.26395,0.15704
7112.19242,-0.08558
7114.12088,-0.12819
7116.04935,0.06930
7117.97782,0.20432
7119.90629,0.05549
7121.83476,-0.04977
7123.76323,0.04586
7125.69170,0.13406
7127.62016,0.17866
7129.54863,0.24070
7131.47710,0.23522
7133.40557,0.14698
7135.33404,0.04368
7137.26251,-0.02660
7139.19098,-0.01025
7141.11944,0.05343
7143.04791,-0.00770
7144.97638,-0.17107
7146.90485,-0.17110
7148.83332,0.03396
7150.76179,0.26413
7152.69026,0.35217
7154.61873,0.24762
7156.54719,0.13587
7158.47566,0.15661
7160.40413,0.21240
7162.33260,0.14398
7164.26107,0.02061
7166.18954,0.02705
7168.11801,0.12375
7170.04647,0.18269
7171.97494,0.15705
7173.90341,0.11603
7175.83188,0.16856
7177.76035,0.16507
7179.68882,0.00203
7181.61729,-0.10936
7183.54576,-0.01241
7185.47422,0.17473
7187.40269,0.21486
7189.33116,0.06028
7191.25963,-0.07426
7193.18810,-0.02908
7195.11657,0.07254
7197.04504,0.15180
7198.97350,0.18162
7200.90197,0.14272
7202.83044,0.03816
7204.75891,-0.05772
7206.68738,-0.04766
7208.61585,0.01683
7210.54432,0.08175
7212.47279,0.06782
7214.40125,-0.02841
7216.32972,-0.13369
7218.25819,-0.15711
7220.18666,-0.02535
7222.11513,0.16704
7224.04360,0.31563
7225.97207,0.34597
7227.90053,0.33490
7229.82900,0.35383
7231.75747,0.23868
7233.68594,0.01290
7235.61441,-0.10976
7237.54288,-0.11007
7239.47135,-0.00853
7241.39982,0.15722
7243.32828,0.17013
7245.25675,-0.01468
7247.18522,-0.13004
7249.11369,-0.07558
7251.04216,0.08214
7252.97063,0.14181
7254.89910,0.05859
7256.82756,0.02206
7258.75603,0.06520
7260.68450,0.16442
7262.61297,0.23078
7264.54144,0.15261
7266.46991,0.07820
7268.39838,0.14805
7270.32685,0.25175
7272.25531,0.24062
7274.18378,0.12687
7276.11225,0.05755
7278.04072,0.05034
7279.96919,0.03348
7281.89766,-0.00024
7283.82613,0.03870
7285.75459,0.10070
7287.68306,0.04464
7289.61153,-0.12620
7291.54000,-0.19775
7293.46847,-0.04210
7295.39694,0.16554
7297.32541,0.23452
7299.25387,0.18132
7301.18234,0.11155
7303.11081,0.07713
7305.03928,0.08159
7306.96775,0.12384
7308.89622,0.22262
7310.82469,0.34162
7312.75316,0.37187
7314.68162,0.36283
7316.61009,0.36683
7318.53856,0.33376
7320.46703,0.30344
7322.39550,0.32763
7324.32397,0.31075
7326.25244,0.22252
7328.18090,0.20230
7330.10937,0.26003
7332.03784,0.22027
7333.96631,0.06563
7335.89478,-0.06348
7337.82325,-0.06981
7339.75172,-0.00543
7341.68019,0.00680
7343.60865,-0.00601
7345.53712,-0.01315
7347.46559,-0.04897
7349.39406,-0.17439
7351.32253,-0.25979
7353.25100,-0.18637
7355.17947,-0.08937
7357.10793,-0.09060
7359.03640,-0.07070
7360.96487,0.15406
7362.89334,0.39124
7364.82181,0.37594
7366.75028,0.12840
7368.67875,-0.03880
7370.60722,0.02477
7372.53568,0.16249
7374.46415,0.28003
7376.39262,0.16861
7378.32109,0.00523
7380.24956,-0.02153
7382.17803,-0.08046
7384.10650,-0.18468
7386.03496,-0.15914
7387.96343,-0.01328
7389.89190,0.08371
7391.82037,0.15671
7393.74884,0.34542
7395.67731,0.52588
7397.60578,0.46247
7399.53425,0.23213
7401.46271,0.04167
7403.39118,-0.02552
7405.31965,-0.00952
7407.24812,0.01383
7409.17659,0.04447
7411.10506,0.10759
7413.03353,0.19400
7414.96199,0.19466
7416.89046,-0.01558
7418.81893,-0.37001
7420.74740,-0.45216
7422.67587,-0.19395
7424.60434,0.05906
7426.53281,0.14863
7428.46128,0.09079
7430.38974,-0.05448
7432.31821,-0.11422
7434.24668,0.01515
7436.17515,0.21530
7438.10362,0.22966
7440.03209,0.09457
7441.96056,0.05388
7443.88902,0.08791
7445.81749,0.14895
7447.74596,0.24331
7449.67443,0.21458
7451.60290,-0.01080
7453.53137,-0.14633
7455.45984,-0.02060
7457.38831,0.19405
7459.31677,0.29382
7461.24524,0.30892
7463.17371,0.32126
7465.10218,0.23820
7467.03065,0.15716
7468.95912,0.09940
7470.88759,0.00959
7472.81605,0.03641
7474.74452,0.13884
7476.67299,0.06488
7478.60146,-0.24130
7480.52993,-0.43406
7482.45840,-0.29079
7484.38687,-0.14562
7486.31533,-0.01914
7488.24380,0.19723
7490.17227,0.24535
7492.10074,0.08664
7494.02921,-0.02720
7495.95768,-0.02570
7497.88615,0.09484
