399.19301,1.23989
401.12148,0.92692
403.04995,0.37935
404.97842,0.20187
406.90689,0.17451
408.83536,0.16024
410.76382,0.21697
412.69229,0.26922
414.62076,0.15818
416.54923,-0.07092
418.47770,-0.26288
420.40617,-0.22628
422.33464,-0.06011
424.26311,0.05344
426.19157,0.02804
428.12004,-0.04561
430.04851,-0.01760
431.97698,0.13361
433.90545,0.23174
435.83392,0.25301
437.76239,0.24800
439.69085,0.21202
441.61932,0.18002
443.54779,0.14699
445.47626,0.11006
447.40473,0.11589
449.33320,0.09478
451.26167,0.06664
453.19013,0.12108
455.11860,0.16405
457.04707,0.13460
458.97554,0.12389
460.90401,0.12565
462.83248,0.10275
464.76095,0.05881
466.68942,0.01323
468.61788,0.01746
470.54635,0.06480
472.47482,0.11797
474.40329,0.14845
476.33176,0.12019
478.26023,0.08447
480.18870,0.08111
482.11716,0.06249
484.04563,-0.01570
485.97410,-0.06495
487.90257,-0.04389
489.83104,0.00633
491.75951,0.06368
493.68798,0.10414
495.61645,0.12339
497.54491,0.10284
499.47338,0.03293
501.40185,-0.01839
503.33032,0.00422
505.25879,0.03904
507.18726,0.04794
509.11573,0.06505
511.04419,0.07278
512.97266,0.03932
514.90113,-0.01407
516.82960,-0.04273
518.75807,-0.00656
520.68654,0.07418
522.61501,0.11934
524.54348,0.08968
526.47194,0.03705
528.40041,0.02058
530.32888,0.04605
532.25735,0.08900
534.18582,0.12747
536.11429,0.13359
538.04276,0.10423
539.97122,0.09460
541.89969,0.09423
543.82816,0.07051
545.75663,0.05469
547.68510,0.04444
549.61357,-0.02259
551.54204,-0.15694
553.47051,-0.22399
555.39897,-0.12539
557.32744,0.01198
559.25591,0.06797
561.18438,0.10226
563.11285,0.14650
565.04132,0.14525
566.96979,0.09879
568.89825,0.07927
570.82672,0.08852
572.75519,0.08081
574.68366,0.06507
576.61213,0.05586
578.54060,0.04812
580.46907,0.04250
582.39754,0.05229
584.32600,0.07680
586.25447,0.10044
588.18294,0.11805
590.11141,0.11697
592.03988,0.09876
593.96835,0.08553
595.89682,0.06861
597.82528,0.04563
599.75375,0.04577
601.68222,0.05742
603.61069,0.05474
605.53916,0.06098
607.46763,0.07439
609.39610,0.07259
611.32456,0.06593
613.25303,0.06170
615.18150,0.06464
617.10997,0.08402
619.03844,0.09664
620.96691,0.08084
622.89538,0.06092
624.82385,0.06245
626.75231,0.07765
628.68078,0.08463
630.60925,0.07215
632.53772,0.05189
634.46619,0.04439
636.39466,0.05273
638.32313,0.07225
640.25159,0.08895
642.18006,0.08856
644.10853,0.07992
646.03700,0.06841
647.96547,0.05153
649.89394,0.03269
651.82241,0.02307
653.75088,0.02542
655.67934,0.02908
657.60781,0.03752
659.53628,0.05467
661.46475,0.06340
663.39322,0.05405
665.32169,0.04425
667.25016,0.05704
669.17862,0.07362
671.10709,0.06520
673.03556,0.05945
674.96403,0.05782
676.89250,0.05954
678.82097,0.06277
680.74944,0.06307
682.67791,0.07241
684.60637,0.09060
686.53484,0.10876
688.46331,0.11289
690.39178,0.08953
692.32025,0.06228
694.24872,0.05098
696.17719,0.04949
698.10565,0.05957
700.03412,0.07151
701.96259,0.06592
703.89106,0.05712
705.81953,0.06612
707.74800,0.07718
709.67647,0.07197
711.60494,0.06029
713.53340,0.05910
715.46187,0.07094
717.39034,0.08238
719.31881,0.07975
721.24728,0.06573
723.17575,0.05756
725.10422,0.06878
727.03268,0.09309
728.96115,0.10666
730.88962,0.09961
732.81809,0.08740
734.74656,0.08001
736.67503,0.07373
738.60350,0.07205
740.53197,0.07636
742.46043,0.07661
744.38890,0.07325
746.31737,0.07572
748.24584,0.08031
750.17431,0.08321
752.10278,0.08752
754.03125,0.08844
755.95971,0.08687
757.88818,0.08214
759.81665,0.06905
761.74512,0.06548
763.67359,0.07899
765.60206,0.08711
767.53053,0.08503
769.45900,0.08798
771.38746,0.09612
773.31593,0.09974
775.24440,0.09253
777.17287,0.07557
779.10134,0.06665
781.02981,0.07455
782.95828,0.08338
784.88674,0.08388
786.81521,0.07863
788.74368,0.06757
790.67215,0.06120
792.60062,0.07007
794.52909,0.08314
796.45756,0.08800
798.38602,0.08640
800.31449,0.08045
802.24296,0.07263
804.17143,0.07379
806.09990,0.08654
808.02837,0.09361
809.95684,0.09128
811.88531,0.09184
813.81377,0.08744
815.74224,0.07168
817.67071,0.06072
819.59918,0.06147
821.52765,0.06911
823.45612,0.08182
825.38459,0.09096
827.31305,0.08915
829.24152,0.08574
831.16999,0.09101
833.09846,0.09739
835.02693,0.09444
836.95540,0.09072
838.88387,0.09466
840.81234,0.09929
842.74080,0.09601
844.66927,0.08482
846.59774,0.07609
848.52621,0.07624
850.45468,0.08311
852.38315,0.08973
854.31162,0.08806
856.24008,0.08286
858.16855,0.08190
860.09702,0.08243
862.02549,0.07876
863.95396,0.07125
865.88243,0.06465
867.81090,0.06238
869.73937,0.06915
871.66783,0.07862
873.59630,0.08006
875.52477,0.08257
877.45324,0.09038
879.38171,0.09491
881.31018,0.09543
883.23865,0.08880
885.16711,0.07561
887.09558,0.06658
889.02405,0.06758
890.95252,0.07696
892.88099,0.08029
894.80946,0.06944
896.73793,0.06156
898.66640,0.06826
900.59486,0.07640
902.52333,0.07803
904.45180,0.08569
906.38027,0.09715
908.30874,0.09437
910.23721,0.08043
912.16568,0.07374
914.09414,0.07870
916.02261,0.08541
917.95108,0.08689
919.87955,0.08355
921.80802,0.07978
923.73649,0.07588
925.66496,0.06875
927.59343,0.06300
929.52189,0.06620
931.45036,0.07422
933.37883,0.07774
935.30730,0.07620
937.23577,0.07148
939.16424,0.06548
941.09271,0.06421
943.02117,0.06726
944.94964,0.06766
946.87811,0.06976
948.80658,0.07910
950.73505,0.08666
952.66352,0.08762
954.59199,0.08563
956.52045,0.08391
958.44892,0.08504
960.37739,0.08584
962.30586,0.08404
964.23433,0.08590
966.16280,0.09302
968.09127,0.09941
970.01974,0.10228
971.94820,0.10433
973.87667,0.10672
975.80514,0.10194
977.73361,0.09286
979.66208,0.09317
981.59055,0.09236
983.51902,0.07738
985.44748,0.06810
987.37595,0.07628
989.30442,0.08590
991.23289,0.08956
993.16136,0.09178
995.08983,0.09264
997.01830,0.09343
998.94677,0.09748
1000.87523,0.09840
1002.80370,0.09160
1004.73217,0.08696
1006.66064,0.08860
1008.58911,0.09257
1010.51758,0.09731
1012.44605,0.09834
1014.37451,0.08883
1016.30298,0.07544
1018.23145,0.07736
1020.15992,0.09201
1022.08839,0.09994
1024.01686,0.09776
1025.94533,0.09498
1027.87380,0.09621
1029.80226,0.09611
1031.73073,0.09161
1033.65920,0.08801
1035.58767,0.08908
1037.51614,0.09427
1039.44461,0.10024
1041.37308,0.10393
1043.30154,0.10569
1045.23001,0.10838
1047.15848,0.11002
1049.08695,0.10808
1051.01542,0.10950
1052.94389,0.11057
1054.87236,0.10205
1056.80083,0.09368
1058.72929,0.08886
1060.65776,0.08476
1062.58623,0.08835
1064.51470,0.09372
1066.44317,0.09011
1068.37164,0.08721
1070.30011,0.09418
1072.22857,0.09698
1074.15704,0.08670
1076.08551,0.07920
1078.01398,0.08180
1079.94245,0.08906
1081.87092,0.10108
1083.79939,0.10947
1085.72786,0.10531
1087.65632,0.09785
1089.58479,0.09441
1091.51326,0.09140
1093.44173,0.08758
1095.37020,0.08373
1097.29867,0.08035
1099.22714,0.07897
1101.15560,0.08119
1103.08407,0.08533
1105.01254,0.08574
1106.94101,0.08563
1108.86948,0.09386
1110.79795,0.10688
1112.72642,0.11382
1114.65489,0.11213
1116.58335,0.10731
1118.51182,0.10289
1120.44029,0.09973
1122.36876,0.09909
1124.29723,0.09937
1126.22570,0.09732
1128.15417,0.09325
1130.08263,0.08940
1132.01110,0.08677
1133.93957,0.08853
1135.86804,0.09787
1137.79651,0.10895
1139.72498,0.11127
1141.65345,0.10506
1143.58191,0.09701
1145.51038,0.09252
1147.43885,0.09696
1149.36732,0.10210
1151.29579,0.09781
1153.22426,0.09289
1155.15273,0.09336
1157.08120,0.09523
1159.00966,0.09725
1160.93813,0.09904
1162.86660,0.10101
1164.79507,0.10288
1166.72354,0.10223
1168.65201,0.09886
1170.58048,0.09508
1172.50894,0.09319
1174.43741,0.09467
1176.36588,0.09790
1178.29435,0.09806
1180.22282,0.09555
1182.15129,0.09680
1184.07976,0.10064
1186.00823,0.10066
1187.93669,0.09846
1189.86516,0.09778
1191.79363,0.09973
1193.72210,0.10424
1195.65057,0.10620
1197.57904,0.10261
1199.50751,0.09736
1201.43597,0.09519
1203.36444,0.09677
1205.29291,0.09830
1207.22138,0.09672
1209.14985,0.09405
1211.07832,0.09412
1213.00679,0.09620
1214.93526,0.09735
1216.86372,0.09725
1218.79219,0.09737
1220.72066,0.09771
1222.64913,0.09640
1224.57760,0.09510
1226.50607,0.09668
1228.43454,0.09901
1230.36300,0.09915
1232.29147,0.09710
1234.21994,0.09417
1236.14841,0.09369
1238.07688,0.09795
1240.00535,0.10295
1241.93382,0.10312
1243.86229,0.09855
1245.79075,0.09380
1247.71922,0.09289
1249.64769,0.09662
1251.57616,0.10050
1253.50463,0.10039
1255.43310,0.09742
1257.36157,0.09270
1259.29003,0.08838
1261.21850,0.08880
1263.14697,0.09238
1265.07544,0.09372
1267.00391,0.09350
1268.93238,0.09553
1270.86085,0.10076
1272.78932,0.10241
1274.71778,0.09527
1276.64625,0.09080
1278.57472,0.09512
1280.50319,0.09799
1282.43166,0.09641
1284.36013,0.09424
1286.28860,0.09070
1288.21706,0.08730
1290.14553,0.08892
1292.07400,0.09390
1294.00247,0.09509
1295.93094,0.08961
1297.85941,0.08206
1299.78788,0.07561
1301.71634,0.06597
1303.64481,0.05501
1305.57328,0.05807
1307.50175,0.07747
1309.43022,0.09271
1311.35869,0.09612
1313.28716,0.09709
1315.21563,0.09772
1317.14409,0.09817
1319.07256,0.09987
1321.00103,0.10084
1322.92950,0.10173
1324.85797,0.09991
1326.78644,0.09399
1328.71491,0.09152
1330.64337,0.09000
1332.57184,0.08583
1334.50031,0.08435
1336.42878,0.08496
1338.35725,0.08692
1340.28572,0.08621
1342.21419,0.08215
1344.14266,0.08211
1346.07112,0.08554
1347.99959,0.09148
1349.92806,0.09638
1351.85653,0.09602
1353.78500,0.09494
1355.71347,0.09498
1357.64194,0.09466
1359.57040,0.09627
1361.49887,0.10102
1363.42734,0.10396
1365.35581,0.10200
1367.28428,0.09881
1369.21275,0.09838
1371.14122,0.10325
1373.06969,0.11016
1374.99815,0.11254
1376.92662,0.11122
1378.85509,0.11088
1380.78356,0.11030
1382.71203,0.10699
1384.64050,0.10269
1386.56897,0.10106
1388.49743,0.10141
1390.42590,0.10309
1392.35437,0.10950
1394.28284,0.11697
1396.21131,0.11750
1398.13978,0.11492
1400.06825,0.11137
1401.99672,0.10508
1403.92518,0.10066
1405.85365,0.10111
1407.78212,0.10275
1409.71059,0.10365
1411.63906,0.10571
1413.56753,0.10692
1415.49600,0.10451
1417.42446,0.10225
1419.35293,0.10437
1421.28140,0.10586
1423.20987,0.10570
1425.13834,0.10702
1427.06681,0.10716
1428.99528,0.10394
1430.92375,0.10155
1432.85221,0.10436
1434.78068,0.11216
1436.70915,0.11786
1438.63762,0.11283
1440.56609,0.10666
1442.49456,0.10491
1444.42303,0.10522
1446.35149,0.10642
1448.27996,0.11009
1450.20843,0.11421
1452.13690,0.11624
1454.06537,0.11832
1455.99384,0.12326
1457.92231,0.12389
1459.85077,0.11687
1461.77924,0.11474
1463.70771,0.11789
1465.63618,0.11985
1467.56465,0.11679
1469.49312,0.11459
1471.42159,0.11960
1473.35006,0.12662
1475.27852,0.12489
1477.20699,0.12213
1479.13546,0.11921
1481.06393,0.11413
1482.99240,0.11186
1484.92087,0.11540
1486.84934,0.12213
1488.77780,0.12663
1490.70627,0.12280
1492.63474,0.11623
1494.56321,0.11323
1496.49168,0.11601
1498.42015,0.12101
1500.34862,0.12002
1502.27709,0.11774
1504.20555,0.12087
1506.13402,0.12998
1508.06249,0.12711
1509.99096,0.11527
1511.91943,0.11052
1513.84790,0.11155
1515.77637,0.11496
1517.70483,0.11881
1519.63330,0.12209
1521.56177,0.12164
1523.49024,0.11534
1525.41871,0.11140
1527.34718,0.11301
1529.27565,0.11665
1531.20412,0.12124
1533.13258,0.12438
1535.06105,0.12235
1536.98952,0.12186
1538.91799,0.12512
1540.84646,0.12625
1542.77493,0.12294
1544.70340,0.11809
1546.63186,0.11419
1548.56033,0.11383
1550.48880,0.11672
1552.41727,0.11969
1554.34574,0.11932
1556.27421,0.11577
1558.20268,0.11677
1560.13115,0.12539
1562.05961,0.12468
1563.98808,0.12018
1565.91655,0.11736
1567.84502,0.11862
1569.77349,0.11969
1571.70196,0.11641
1573.63043,0.11361
1575.55889,0.11240
1577.48736,0.11127
1579.41583,0.11078
1581.34430,0.11152
1583.27277,0.11361
1585.20124,0.11371
1587.12971,0.11080
1589.05818,0.10998
1590.98664,0.11142
1592.91511,0.11178
1594.84358,0.11162
1596.77205,0.11131
1598.70052,0.11094
1600.62899,0.11218
1602.55746,0.11397
1604.48592,0.11533
1606.41439,0.11829
1608.34286,0.12004
1610.27133,0.11774
1612.19980,0.11621
1614.12827,0.11810
1616.05674,0.11934
1617.98521,0.11465
1619.91367,0.11073
1621.84214,0.11185
1623.77061,0.11596
1625.69908,0.11906
1627.62755,0.11984
1629.55602,0.11876
1631.48449,0.11788
1633.41295,0.12058
1635.34142,0.12665
1637.26989,0.12498
1639.19836,0.11877
1641.12683,0.11660
1643.05530,0.11847
1644.98377,0.12518
1646.91223,0.13638
1648.84070,0.13868
1650.76917,0.13546
1652.69764,0.13538
1654.62611,0.13213
1656.55458,0.12361
1658.48305,0.11326
1660.41152,0.10206
1662.33998,0.09836
1664.26845,0.10770
1666.19692,0.11696
1668.12539,0.12266
1670.05386,0.12861
1671.98233,0.12845
1673.91080,0.12291
1675.83926,0.11909
1677.76773,0.11951
1679.69620,0.12198
1681.62467,0.12784
1683.55314,0.13765
1685.48161,0.13560
1687.41008,0.12584
1689.33855,0.12021
1691.26701,0.11692
1693.19548,0.11620
1695.12395,0.12306
1697.05242,0.13548
1698.98089,0.13651
1700.90936,0.12622
1702.83783,0.12066
1704.76629,0.11944
1706.69476,0.11811
1708.62323,0.11701
1710.55170,0.11741
1712.48017,0.11973
1714.40864,0.12235
1716.33711,0.12234
1718.26558,0.12042
1720.19404,0.11914
1722.12251,0.11855
1724.05098,0.11834
1725.97945,0.11782
1727.90792,0.11727
1729.83639,0.11605
1731.76486,0.11390
1733.69332,0.11256
1735.62179,0.11288
1737.55026,0.11413
1739.47873,0.11626
1741.40720,0.11815
1743.33567,0.11831
1745.26414,0.11910
1747.19261,0.12458
1749.12107,0.13054
1751.04954,0.12640
1752.97801,0.11779
1754.90648,0.11315
1756.83495,0.11068
1758.76342,0.10989
1760.69189,0.11241
1762.62035,0.11493
1764.54882,0.11377
1766.47729,0.11286
1768.40576,0.11560
1770.33423,0.12068
1772.26270,0.12331
1774.19117,0.12119
1776.11964,0.11883
1778.04810,0.11773
1779.97657,0.11737
1781.90504,0.11641
1783.83351,0.11348
1785.76198,0.10989
1787.69045,0.10749
1789.61892,0.10709
1791.54738,0.11025
1793.47585,0.11367
1795.40432,0.11312
1797.33279,0.11303
1799.26126,0.11411
1801.18973,0.11206
1803.11820,0.10873
1805.04666,0.10876
1806.97513,0.11144
1808.90360,0.11413
1810.83207,0.11445
1812.76054,0.11314
1814.68901,0.11328
1816.61748,0.11399
1818.54595,0.11341
1820.47441,0.11242
1822.40288,0.11152
1824.33135,0.11065
1826.25982,0.11205
1828.18829,0.11721
1830.11676,0.12131
1832.04523,0.11819
1833.97369,0.11341
1835.90216,0.11362
1837.83063,0.11634
1839.75910,0.11679
1841.68757,0.11638
1843.61604,0.11499
1845.54451,0.11163
1847.47298,0.11169
1849.40144,0.11447
1851.32991,0.11397
1853.25838,0.10945
1855.18685,0.10511
1857.11532,0.10370
1859.04379,0.10439
1860.97226,0.10521
1862.90072,0.10572
1864.82919,0.10757
1866.75766,0.11086
1868.68613,0.11263
1870.61460,0.11462
1872.54307,0.11767
1874.47154,0.11726
1876.40001,0.11439
1878.32847,0.11237
1880.25694,0.11069
1882.18541,0.11021
1884.11388,0.11067
1886.04235,0.10959
1887.97082,0.10852
1889.89929,0.11058
1891.82775,0.11481
1893.75622,0.11668
1895.68469,0.11379
1897.61316,0.10870
1899.54163,0.10555
1901.47010,0.10646
1903.39857,0.11009
1905.32704,0.11308
1907.25550,0.11365
1909.18397,0.11243
1911.11244,0.11192
1913.04091,0.11275
1914.96938,0.11303
1916.89785,0.11329
1918.82632,0.11390
1920.75478,0.11338
1922.68325,0.11333
1924.61172,0.11398
1926.54019,0.11376
1928.46866,0.11288
1930.39713,0.11077
1932.32560,0.10793
1934.25407,0.10634
1936.18253,0.10602
1938.11100,0.10692
1940.03947,0.11076
1941.96794,0.11591
1943.89641,0.11640
1945.82488,0.11158
1947.75335,0.10671
1949.68181,0.10542
1951.61028,0.10743
1953.53875,0.11001
1955.46722,0.11049
1957.39569,0.10879
1959.32416,0.10710
1961.25263,0.10806
1963.18110,0.11238
1965.10956,0.11575
1967.03803,0.11439
1968.96650,0.11202
1970.89497,0.11324
1972.82344,0.11471
1974.75191,0.11152
1976.68038,0.10723
1978.60884,0.10718
1980.53731,0.10923
1982.46578,0.10954
1984.39425,0.10823
1986.32272,0.10720
1988.25119,0.10730
1990.17966,0.10869
1992.10812,0.11241
1994.03659,0.11650
1995.96506,0.11655
1997.89353,0.11335
1999.82200,0.11158
2001.75047,0.11263
2003.67894,0.11379
2005.60741,0.11329
2007.53587,0.11254
2009.46434,0.11386
2011.39281,0.11794
2013.32128,0.12288
2015.24975,0.12522
2017.17822,0.12343
2019.10669,0.11876
2021.03515,0.11438
2022.96362,0.11334
2024.89209,0.11413
2026.82056,0.11413
2028.74903,0.11400
2030.67750,0.11416
2032.60597,0.11398
2034.53444,0.11320
2036.46290,0.11248
2038.39137,0.11197
2040.31984,0.11040
2042.24831,0.10792
2044.17678,0.10696
2046.10525,0.10783
2048.03372,0.10914
2049.96218,0.11234
2051.89065,0.11607
2053.81912,0.11693
2055.74759,0.11650
2057.67606,0.11705
2059.60453,0.11686
2061.53300,0.11505
2063.46147,0.11445
2065.38993,0.11397
2067.31840,0.11138
2069.24687,0.11073
2071.17534,0.11360
2073.10381,0.11515
2075.03228,0.11411
2076.96075,0.11461
2078.88921,0.11673
2080.81768,0.11783
2082.74615,0.11865
2084.67462,0.11956
2086.60309,0.11938
2088.53156,0.11871
2090.46003,0.11981
2092.38850,0.12274
2094.31696,0.12472
2096.24543,0.12361
2098.17390,0.12025
2100.10237,0.11732
2102.03084,0.11541
2103.95931,0.11457
2105.88778,0.11515
2107.81624,0.11520
2109.74471,0.11473
2111.67318,0.11551
2113.60165,0.11729
2115.53012,0.11897
2117.45859,0.11870
2119.38706,0.11636
2121.31553,0.11449
2123.24399,0.11416
2125.17246,0.11440
2127.10093,0.11449
2129.02940,0.11321
2130.95787,0.11035
2132.88634,0.10804
2134.81481,0.10688
2136.74327,0.10750
2138.67174,0.11025
2140.60021,0.11320
2142.52868,0.11549
2144.45715,0.11653
2146.38562,0.11623
2148.31409,0.11521
2150.24255,0.11397
2152.17102,0.11327
2154.09949,0.11323
2156.02796,0.11418
2157.95643,0.11554
2159.88490,0.11588
2161.81337,0.11591
2163.74184,0.11696
2165.67030,0.11852
2167.59877,0.11951
2169.52724,0.11924
2171.45571,0.11746
2173.38418,0.11501
2175.31265,0.11386
2177.24112,0.11441
2179.16958,0.11502
2181.09805,0.11447
2183.02652,0.11292
2184.95499,0.11238
2186.88346,0.11320
2188.81193,0.11277
2190.74040,0.11221
2192.66887,0.11303
2194.59733,0.11228
2196.52580,0.10950
2198.45427,0.10801
2200.38274,0.10855
2202.31121,0.10911
2204.23968,0.10927
2206.16815,0.10969
2208.09661,0.11045
2210.02508,0.11110
2211.95355,0.11167
2213.88202,0.11328
2215.81049,0.11553
2217.73896,0.11665
2219.66743,0.11618
2221.59590,0.11569
2223.52436,0.11594
2225.45283,0.11555
2227.38130,0.11535
2229.30977,0.11618
2231.23824,0.11547
2233.16671,0.11320
2235.09518,0.11203
2237.02364,0.11222
2238.95211,0.11204
2240.88058,0.11175
2242.80905,0.11295
2244.73752,0.11440
2246.66599,0.11413
2248.59446,0.11320
2250.52293,0.11245
2252.45139,0.11064
2254.37986,0.10964
2256.30833,0.11185
2258.23680,0.11505
2260.16527,0.11645
2262.09374,0.11582
2264.02221,0.11430
2265.95067,0.11320
2267.87914,0.11391
2269.80761,0.11604
2271.73608,0.11684
2273.66455,0.11493
2275.59302,0.11279
2277.52149,0.11318
2279.44996,0.11483
2281.37842,0.11611
2283.30689,0.11577
2285.23536,0.11238
2287.16383,0.10897
2289.09230,0.10875
2291.02077,0.10962
2292.94924,0.10921
2294.87770,0.10834
2296.80617,0.10916
2298.73464,0.11304
2300.66311,0.11722
2302.59158,0.11750
2304.52005,0.11488
2306.44852,0.11198
2308.37699,0.10851
2310.30545,0.10621
2312.23392,0.10812
2314.16239,0.11124
2316.09086,0.11245
2318.01933,0.11419
2319.94780,0.11635
2321.87627,0.11343
2323.80473,0.10523
2325.73320,0.09819
2327.66167,0.09198
2329.59014,0.08943
2331.51861,0.09574
2333.44708,0.09332
2335.37555,0.07723
2337.30401,0.07904
2339.23248,0.10184
2341.16095,0.11264
2343.08942,0.10945
2345.01789,0.10634
2346.94636,0.10555
2348.87483,0.10464
2350.80330,0.09916
2352.73176,0.09178
2354.66023,0.08704
2356.58870,0.07078
2358.51717,0.04872
2360.44564,0.05801
2362.37411,0.08569
2364.30258,0.08873
2366.23104,0.07937
2368.15951,0.08492
2370.08798,0.09486
2372.01645,0.10039
2373.94492,0.10431
2375.87339,0.10694
2377.80186,0.10939
2379.73033,0.11229
2381.65879,0.11513
2383.58726,0.11723
2385.51573,0.11772
2387.44420,0.11640
2389.37267,0.11389
2391.30114,0.11260
2393.22961,0.11343
2395.15807,0.11327
2397.08654,0.11226
2399.01501,0.11331
2400.94348,0.11483
2402.87195,0.11480
2404.80042,0.11442
2406.72889,0.11356
2408.65736,0.11145
2410.58582,0.11092
2412.51429,0.11330
2414.44276,0.11509
2416.37123,0.11516
2418.29970,0.11474
2420.22817,0.11347
2422.15664,0.11268
2424.08510,0.11423
2426.01357,0.11575
2427.94204,0.11512
2429.87051,0.11402
2431.79898,0.11426
2433.72745,0.11609
2435.65592,0.11774
2437.58439,0.11827
2439.51285,0.11817
2441.44132,0.11755
2443.36979,0.11733
2445.29826,0.11721
2447.22673,0.11771
2449.15520,0.11882
2451.08367,0.11737
2453.01213,0.11408
2454.94060,0.11256
2456.86907,0.11383
2458.79754,0.11670
2460.72601,0.11868
2462.65448,0.11778
2464.58295,0.11581
2466.51142,0.11662
2468.43988,0.11892
2470.36835,0.11849
2472.29682,0.11651
2474.22529,0.11487
2476.15376,0.11215
2478.08223,0.11137
2480.01070,0.11432
2481.93916,0.11595
2483.86763,0.11574
2485.79610,0.11546
2487.72457,0.11363
2489.65304,0.11329
2491.58151,0.11694
2493.50998,0.11861
2495.43844,0.11611
2497.36691,0.11475
2499.29538,0.11539
2501.22385,0.11639
2503.15232,0.11820
2505.08079,0.11837
2507.00926,0.11578
2508.93773,0.11446
2510.86619,0.11500
2512.79466,0.11617
2514.72313,0.11844
2516.65160,0.11856
2518.58007,0.11568
2520.50854,0.11372
2522.43701,0.11387
2524.36547,0.11562
2526.29394,0.11852
2528.22241,0.11996
2530.15088,0.11788
2532.07935,0.11484
2534.00782,0.11428
2535.93629,0.11548
2537.86476,0.11564
2539.79322,0.11571
2541.72169,0.11767
2543.65016,0.11898
2545.57863,0.11729
2547.50710,0.11441
2549.43557,0.11392
2551.36404,0.11685
2553.29250,0.11985
2555.22097,0.12000
2557.14944,0.11861
2559.07791,0.11875
2561.00638,0.12163
2562.93485,0.12351
2564.86332,0.12185
2566.79179,0.12030
2568.72025,0.11971
2570.64872,0.11938
2572.57719,0.11937
2574.50566,0.11683
2576.43413,0.11409
2578.36260,0.11588
2580.29107,0.11976
2582.21953,0.12167
2584.14800,0.12151
2586.07647,0.12095
2588.00494,0.12016
2589.93341,0.11834
2591.86188,0.11632
2593.79035,0.11491
2595.71882,0.11567
2597.64728,0.12012
2599.57575,0.12405
2601.50422,0.12371
2603.43269,0.12105
2605.36116,0.11789
2607.28963,0.11443
2609.21810,0.11295
2611.14656,0.11599
2613.07503,0.11937
2615.00350,0.11797
2616.93197,0.11620
2618.86044,0.11849
2620.78891,0.12049
2622.71738,0.12040
2624.64585,0.12147
2626.57431,0.12156
2628.50278,0.11817
2630.43125,0.11518
2632.35972,0.11495
2634.28819,0.11524
2636.21666,0.11586
2638.14513,0.11872
2640.07359,0.12294
2642.00206,0.12541
2643.93053,0.12406
2645.85900,0.12094
2647.78747,0.12030
2649.71594,0.12213
2651.64441,0.12352
2653.57288,0.12276
2655.50134,0.11925
2657.42981,0.11646
2659.35828,0.11720
2661.28675,0.11869
2663.21522,0.12000
2665.14369,0.12132
2667.07216,0.12116
2669.00062,0.12100
2670.92909,0.12114
2672.85756,0.12029
2674.78603,0.12087
2676.71450,0.12298
2678.64297,0.12417
2680.57144,0.12451
2682.49990,0.12258
2684.42837,0.11786
2686.35684,0.11458
2688.28531,0.11513
2690.21378,0.11657
2692.14225,0.11762
2694.07072,0.12023
2695.99919,0.12207
2697.92765,0.12113
2699.85612,0.12262
2701.78459,0.12841
2703.71306,0.13229
2705.64153,0.13216
2707.57000,0.13157
2709.49847,0.13012
2711.42693,0.12697
2713.35540,0.12464
2715.28387,0.12253
2717.21234,0.11985
2719.14081,0.11886
2721.06928,0.11869
2722.99775,0.11867
2724.92622,0.12038
2726.85468,0.12227
2728.78315,0.12318
2730.71162,0.12342
2732.64009,0.12250
2734.56856,0.12099
2736.49703,0.11949
2738.42550,0.11819
2740.35396,0.11785
2742.28243,0.11871
2744.21090,0.12081
2746.13937,0.12479
2748.06784,0.12845
2749.99631,0.12827
2751.92478,0.12553
2753.85325,0.12392
2755.78171,0.12504
2757.71018,0.12781
2759.63865,0.12928
2761.56712,0.12788
2763.49559,0.12614
2765.42406,0.12696
2767.35253,0.12758
2769.28099,0.12443
2771.20946,0.12208
2773.13793,0.12611
2775.06640,0.13075
2776.99487,0.12853
2778.92334,0.12353
2780.85181,0.12244
2782.78028,0.12470
2784.70874,0.12615
2786.63721,0.12611
2788.56568,0.12589
2790.49415,0.12479
2792.42262,0.12378
2794.35109,0.12450
2796.27956,0.12519
2798.20802,0.12613
2800.13649,0.13031
2802.06496,0.13463
2803.99343,0.13474
2805.92190,0.13079
2807.85037,0.12490
2809.77884,0.12382
2811.70731,0.12975
2813.63577,0.13367
2815.56424,0.13114
2817.49271,0.12732
2819.42118,0.12465
2821.34965,0.12159
2823.27812,0.11945
2825.20659,0.12114
2827.13505,0.12465
2829.06352,0.12526
2830.99199,0.12581
2832.92046,0.12832
2834.84893,0.12752
2836.77740,0.12476
2838.70587,0.12550
2840.63433,0.13114
2842.56280,0.13708
2844.49127,0.13462
2846.41974,0.12669
2848.34821,0.12380
2850.27668,0.12609
2852.20515,0.12873
2854.13362,0.12982
2856.06208,0.12875
2857.99055,0.12642
2859.91902,0.12589
2861.84749,0.12817
2863.77596,0.12938
2865.70443,0.12794
2867.63290,0.12624
2869.56136,0.12647
2871.48983,0.12834
2873.41830,0.12890
2875.34677,0.12757
2877.27524,0.12782
2879.20371,0.13053
2881.13218,0.13023
2883.06065,0.12468
2884.98911,0.11861
2886.91758,0.11545
2888.84605,0.11663
2890.77452,0.12083
2892.70299,0.12296
2894.63146,0.12201
2896.55993,0.12176
2898.48839,0.12249
2900.41686,0.12245
2902.34533,0.12115
2904.27380,0.11669
2906.20227,0.11099
2908.13074,0.11178
2910.05921,0.11847
2911.98768,0.12387
2913.91614,0.12337
2915.84461,0.11659
2917.77308,0.11462
2919.70155,0.12127
2921.63002,0.12475
2923.55849,0.12038
2925.48696,0.11273
2927.41542,0.11000
2929.34389,0.11371
2931.27236,0.11788
2933.20083,0.12005
2935.12930,0.11605
2937.05777,0.10726
2938.98624,0.10643
2940.91471,0.11618
2942.84317,0.12595
2944.77164,0.12400
2946.70011,0.11130
2948.62858,0.10852
2950.55705,0.11967
2952.48552,0.12494
2954.41399,0.11869
2956.34245,0.10692
2958.27092,0.09918
2960.19939,0.10486
2962.12786,0.11839
2964.05633,0.12776
2965.98480,0.12439
2967.91327,0.11295
2969.84174,0.11199
2971.77020,0.12180
2973.69867,0.12801
2975.62714,0.12587
2977.55561,0.11752
2979.48408,0.11430
2981.41255,0.12217
2983.34102,0.13092
2985.26948,0.13184
2987.19795,0.12531
2989.12642,0.12165
2991.05489,0.12726
2992.98336,0.13337
2994.91183,0.13295
2996.84030,0.12824
2998.76877,0.12444
3000.69723,0.12584
3002.62570,0.12930
3004.55417,0.12700
3006.48264,0.12040
3008.41111,0.11571
3010.33958,0.10553
3012.26805,0.08142
3014.19651,0.05258
3016.12498,0.03785
3018.05345,0.05341
3019.98192,0.08915
3021.91039,0.11598
3023.83886,0.12708
3025.76733,0.13070
3027.69579,0.13067
3029.62426,0.13304
3031.55273,0.13907
3033.48120,0.13928
3035.40967,0.13063
3037.33814,0.12351
3039.26661,0.12457
3041.19508,0.12848
3043.12354,0.13062
3045.05201,0.12940
3046.98048,0.12392
3048.90895,0.12037
3050.83742,0.12233
3052.76589,0.12437
3054.69436,0.12115
3056.62282,0.11582
3058.55129,0.11795
3060.47976,0.12565
3062.40823,0.12814
3064.33670,0.12233
3066.26517,0.11537
3068.19364,0.11723
3070.12211,0.12568
3072.05057,0.12994
3073.97904,0.12382
3075.90751,0.11245
3077.83598,0.11141
3079.76445,0.12210
3081.69292,0.12454
3083.62139,0.10953
3085.54985,0.09849
3087.47832,0.10789
3089.40679,0.12124
3091.33526,0.12370
3093.26373,0.11755
3095.19220,0.11217
3097.12067,0.11703
3099.04914,0.12541
3100.97760,0.12536
3102.90607,0.11764
3104.83454,0.11418
3106.76301,0.11929
3108.69148,0.12430
3110.61995,0.12229
3112.54842,0.11593
3114.47688,0.11659
3116.40535,0.12464
3118.33382,0.12716
3120.26229,0.12041
3122.19076,0.11414
3124.11923,0.11588
3126.04770,0.12035
3127.97617,0.12187
3129.90463,0.11940
3131.83310,0.11884
3133.76157,0.12678
3135.69004,0.13398
3137.61851,0.13074
3139.54698,0.12313
3141.47545,0.12139
3143.40391,0.12550
3145.33238,0.12936
3147.26085,0.13080
3149.18932,0.13232
3151.11779,0.13640
3153.04626,0.13949
3154.97473,0.13555
3156.90320,0.12852
3158.83166,0.12933
3160.76013,0.13587
3162.68860,0.13637
3164.61707,0.12971
3166.54554,0.12560
3168.47401,0.12819
3170.40248,0.13211
3172.33094,0.13436
3174.25941,0.13487
3176.18788,0.13528
3178.11635,0.13511
3180.04482,0.13202
3181.97329,0.13176
3183.90176,0.13527
3185.83022,0.13622
3187.75869,0.13500
3189.68716,0.13271
3191.61563,0.12940
3193.54410,0.12897
3195.47257,0.13352
3197.40104,0.13977
3199.32951,0.14370
3201.25797,0.14333
3203.18644,0.13956
3205.11491,0.13645
3207.04338,0.13544
3208.97185,0.13545
3210.90032,0.13592
3212.82879,0.13643
3214.75725,0.13750
3216.68572,0.13782
3218.61419,0.13579
3220.54266,0.13387
3222.47113,0.13397
3224.39960,0.13411
3226.32807,0.13531
3228.25654,0.14092
3230.18500,0.14524
3232.11347,0.14157
3234.04194,0.13559
3235.97041,0.13372
3237.89888,0.13361
3239.82735,0.13309
3241.75582,0.13255
3243.68428,0.13263
3245.61275,0.13559
3247.54122,0.13844
3249.46969,0.13697
3251.39816,0.13522
3253.32663,0.13334
3255.25510,0.12776
3257.18357,0.12418
3259.11203,0.12699
3261.04050,0.13112
3262.96897,0.13312
3264.89744,0.13441
3266.82591,0.13417
3268.75438,0.13097
3270.68285,0.12740
3272.61131,0.12598
3274.53978,0.12851
3276.46825,0.13501
3278.39672,0.13778
3280.32519,0.13253
3282.25366,0.12944
3284.18213,0.13495
3286.11060,0.13751
3288.03906,0.13050
3289.96753,0.12682
3291.89600,0.13262
3293.82447,0.13882
3295.75294,0.14118
3297.68141,0.13917
3299.60988,0.13486
3301.53834,0.13442
3303.46681,0.13567
3305.39528,0.13357
3307.32375,0.13136
3309.25222,0.13418
3311.18069,0.14014
3313.10916,0.14339
3315.03763,0.14231
3316.96609,0.13827
3318.89456,0.13308
3320.82303,0.12771
3322.75150,0.12225
3324.67997,0.11895
3326.60844,0.11909
3328.53691,0.12057
3330.46537,0.12472
3332.39384,0.13360
3334.32231,0.13908
3336.25078,0.13592
3338.17925,0.13365
3340.10772,0.13633
3342.03619,0.13569
3343.96466,0.13095
3345.89312,0.12860
3347.82159,0.12918
3349.75006,0.13099
3351.67853,0.13197
3353.60700,0.12996
3355.53547,0.12873
3357.46394,0.13098
3359.39240,0.13411
3361.32087,0.13605
3363.24934,0.13503
3365.17781,0.13214
3367.10628,0.12956
3369.03475,0.12632
3370.96322,0.12488
3372.89168,0.12933
3374.82015,0.13654
3376.74862,0.13948
3378.67709,0.13709
3380.60556,0.13564
3382.53403,0.13755
3384.46250,0.13752
3386.39097,0.13546
3388.31943,0.13709
3390.24790,0.14024
3392.17637,0.14110
3394.10484,0.14163
3396.03331,0.14207
3397.96178,0.14172
3399.89025,0.13879
3401.81871,0.13224
3403.74718,0.12927
3405.67565,0.13165
3407.60412,0.13279
3409.53259,0.13464
3411.46106,0.13707
3413.38953,0.13221
3415.31800,0.12372
3417.24646,0.12159
3419.17493,0.12558
3421.10340,0.13208
3423.03187,0.13731
3424.96034,0.13524
3426.88881,0.13010
3428.81728,0.13023
3430.74574,0.13381
3432.67421,0.13537
3434.60268,0.13333
3436.53115,0.13240
3438.45962,0.13591
3440.38809,0.14001
3442.31656,0.14067
3444.24503,0.13638
3446.17349,0.13052
3448.10196,0.12834
3450.03043,0.12991
3451.95890,0.13332
3453.88737,0.13510
3455.81584,0.13160
3457.74431,0.12428
3459.67277,0.11912
3461.60124,0.12055
3463.52971,0.12344
3465.45818,0.12174
3467.38665,0.11811
3469.31512,0.11557
3471.24359,0.11534
3473.17206,0.11761
3475.10052,0.11968
3477.02899,0.11933
3478.95746,0.11633
3480.88593,0.11379
3482.81440,0.11272
3484.74287,0.11167
3486.67134,0.11349
3488.59980,0.11520
3490.52827,0.11287
3492.45674,0.11150
3494.38521,0.11223
3496.31368,0.11371
3498.24215,0.11627
3500.17062,0.11727
3502.09909,0.11755
3504.02755,0.12024
3505.95602,0.12108
3507.88449,0.11785
3509.81296,0.11372
3511.74143,0.11127
3513.66990,0.11355
3515.59837,0.11790
3517.52683,0.11683
3519.45530,0.11265
3521.38377,0.11248
3523.31224,0.11384
3525.24071,0.11520
3527.16918,0.11877
3529.09765,0.11967
3531.02611,0.11610
3532.95458,0.11102
3534.88305,0.10630
3536.81152,0.10539
3538.73999,0.10684
3540.66846,0.10640
3542.59693,0.10597
3544.52540,0.10713
3546.45386,0.10726
3548.38233,0.10414
3550.31080,0.10001
3552.23927,0.09988
3554.16774,0.10117
3556.09621,0.10026
3558.02468,0.10175
3559.95314,0.10519
3561.88161,0.10771
3563.81008,0.10865
3565.73855,0.10525
3567.66702,0.10141
3569.59549,0.09952
3571.52396,0.09547
3573.45243,0.09369
3575.38089,0.09698
3577.30936,0.10254
3579.23783,0.10616
3581.16630,0.10450
3583.09477,0.10154
3585.02324,0.10344
3586.95171,0.10991
3588.88017,0.10897
3590.80864,0.09937
3592.73711,0.09093
3594.66558,0.08671
3596.59405,0.08911
3598.52252,0.09680
3600.45099,0.10402
3602.37946,0.10545
3604.30792,0.10253
3606.23639,0.10105
3608.16486,0.10156
3610.09333,0.10082
3612.02180,0.09933
3613.95027,0.09631
3615.87874,0.09266
3617.80720,0.09311
3619.73567,0.09444
3621.66414,0.09292
3623.59261,0.09164
3625.52108,0.08944
3627.44955,0.08868
3629.37802,0.09440
3631.30649,0.09581
3633.23495,0.08814
3635.16342,0.08108
3637.09189,0.08437
3639.02036,0.09232
3640.94883,0.09345
3642.87730,0.08896
3644.80577,0.08646
3646.73423,0.09163
3648.66270,0.10277
3650.59117,0.09763
3652.51964,0.08778
3654.44811,0.08896
3656.37658,0.09259
3658.30505,0.08888
3660.23352,0.08352
3662.16198,0.08391
3664.09045,0.08774
3666.01892,0.08997
3667.94739,0.08952
3669.87586,0.08641
3671.80433,0.08630
3673.73280,0.09224
3675.66126,0.09921
3677.58973,0.09862
3679.51820,0.09190
3681.44667,0.08422
3683.37514,0.08044
3685.30361,0.08273
3687.23208,0.09086
3689.16055,0.10102
3691.08901,0.10270
3693.01748,0.09546
3694.94595,0.08600
3696.87442,0.08004
3698.80289,0.08087
3700.73136,0.08372
3702.65983,0.08246
3704.58829,0.07986
3706.51676,0.07956
3708.44523,0.08436
3710.37370,0.09414
3712.30217,0.09237
3714.23064,0.08064
3716.15911,0.07703
3718.08757,0.08057
3720.01604,0.08409
3721.94451,0.08908
3723.87298,0.09560
3725.80145,0.09389
3727.72992,0.08746
3729.65839,0.08363
3731.58686,0.08266
3733.51532,0.09063
3735.44379,0.10257
3737.37226,0.10131
3739.30073,0.09473
3741.22920,0.08884
3743.15767,0.08290
3745.08614,0.08308
3747.01460,0.09029
3748.94307,0.09364
3750.87154,0.08506
3752.80001,0.07549
3754.72848,0.07623
3756.65695,0.08122
3758.58542,0.08596
3760.51389,0.08457
3762.44235,0.08147
3764.37082,0.08371
3766.29929,0.08696
3768.22776,0.08469
3770.15623,0.07897
3772.08470,0.07741
3774.01317,0.08037
3775.94163,0.08120
3777.87010,0.07886
3779.79857,0.07724
3781.72704,0.07595
3783.65551,0.07507
3785.58398,0.07533
3787.51245,0.07447
3789.44092,0.07447
3791.36938,0.07836
3793.29785,0.08285
3795.22632,0.08537
3797.15479,0.08846
3799.08326,0.09234
3801.01173,0.09602
3802.94020,0.09729
3804.86866,0.09471
3806.79713,0.08777
3808.72560,0.07824
3810.65407,0.07442
3812.58254,0.07565
3814.51101,0.07522
3816.43948,0.07123
3818.36795,0.07470
3820.29641,0.08770
3822.22488,0.08952
3824.15335,0.07894
3826.08182,0.07484
3828.01029,0.07863
3829.93876,0.08176
3831.86723,0.07942
3833.79569,0.07844
3835.72416,0.08468
3837.65263,0.09086
3839.58110,0.09126
3841.50957,0.09068
3843.43804,0.08493
3845.36651,0.07316
3847.29498,0.06757
3849.22344,0.07100
3851.15191,0.07698
3853.08038,0.07870
3855.00885,0.07483
3856.93732,0.07542
3858.86579,0.07730
3860.79426,0.07775
3862.72272,0.07577
3864.65119,0.06863
3866.57966,0.06223
3868.50813,0.06249
3870.43660,0.07225
3872.36507,0.08448
3874.29354,0.08698
3876.22200,0.08128
3878.15047,0.07435
3880.07894,0.06990
3882.00741,0.07215
3883.93588,0.07776
3885.86435,0.08162
3887.79282,0.08471
3889.72129,0.09006
3891.64975,0.09497
3893.57822,0.09271
3895.50669,0.08786
3897.43516,0.08699
3899.36363,0.08999
3901.29210,0.08875
3903.22057,0.07918
3905.14903,0.07259
3907.07750,0.07328
3909.00597,0.07481
3910.93444,0.07501
3912.86291,0.07443
3914.79138,0.07375
3916.71985,0.07262
3918.64832,0.07001
3920.57678,0.06782
3922.50525,0.06852
3924.43372,0.06991
3926.36219,0.07084
3928.29066,0.07091
3930.21913,0.06774
3932.14760,0.06381
3934.07606,0.06306
3936.00453,0.06457
3937.93300,0.06611
3939.86147,0.06838
3941.78994,0.07079
3943.71841,0.06863
3945.64688,0.06340
3947.57535,0.06211
3949.50381,0.06818
3951.43228,0.07310
3953.36075,0.07098
3955.28922,0.06900
3957.21769,0.07019
3959.14616,0.07123
3961.07463,0.07121
3963.00309,0.06999
3964.93156,0.06755
3966.86003,0.06777
3968.78850,0.07167
3970.71697,0.07349
3972.64544,0.06856
3974.57391,0.06021
3976.50238,0.05882
3978.43084,0.06526
3980.35931,0.06900
3982.28778,0.06686
3984.21625,0.06535
3986.14472,0.06816
3988.07319,0.06998
3990.00166,0.06647
3991.93012,0.06378
3993.85859,0.06455
3995.78706,0.06393
3997.71553,0.06529
3999.64400,0.06954
4001.57247,0.07084
4003.50094,0.07185
4005.42941,0.07356
4007.35787,0.07042
4009.28634,0.06529
4011.21481,0.06460
4013.14328,0.06470
4015.07175,0.06281
4017.00022,0.06360
4018.92869,0.06477
4020.85715,0.06112
4022.78562,0.05644
4024.71409,0.05521
4026.64256,0.05612
4028.57103,0.05899
4030.49950,0.06653
4032.42797,0.07528
4034.35644,0.07734
4036.28490,0.07375
4038.21337,0.07341
4040.14184,0.07542
4042.07031,0.07071
4043.99878,0.06087
4045.92725,0.05460
4047.85572,0.05323
4049.78418,0.05057
4051.71265,0.04630
4053.64112,0.04811
4055.56959,0.05403
4057.49806,0.05724
4059.42653,0.06143
4061.35500,0.06884
4063.28346,0.07089
4065.21193,0.06306
4067.14040,0.05420
4069.06887,0.05218
4070.99734,0.05430
4072.92581,0.05627
4074.85428,0.05883
4076.78275,0.06386
4078.71121,0.06845
4080.63968,0.06782
4082.56815,0.06284
4084.49662,0.05945
4086.42509,0.06102
4088.35356,0.06454
4090.28203,0.06448
4092.21049,0.06090
4094.13896,0.05827
4096.06743,0.05835
4097.99590,0.06236
4099.92437,0.06915
4101.85284,0.07159
4103.78131,0.06539
4105.70978,0.05637
4107.63824,0.05181
4109.56671,0.05271
4111.49518,0.05504
4113.42365,0.05363
4115.35212,0.05064
4117.28059,0.04989
4119.20906,0.04977
4121.13752,0.04960
4123.06599,0.04957
4124.99446,0.05029
4126.92293,0.05058
4128.85140,0.04854
4130.77987,0.04604
4132.70834,0.04516
4134.63681,0.04621
4136.56527,0.04809
4138.49374,0.05148
4140.42221,0.05602
4142.35068,0.05761
4144.27915,0.05726
4146.20762,0.05815
4148.13609,0.05773
4150.06455,0.05369
4151.99302,0.04968
4153.92149,0.05086
4155.84996,0.05579
4157.77843,0.05805
4159.70690,0.05449
4161.63537,0.04888
4163.56384,0.04645
4165.49230,0.04817
4167.42077,0.05395
4169.34924,0.06102
4171.27771,0.06163
4173.20618,0.05416
4175.13465,0.04750
4177.06312,0.04791
4178.99158,0.05064
4180.92005,0.05026
4182.84852,0.04794
4184.77699,0.04571
4186.70546,0.04256
4188.63393,0.03842
4190.56240,0.03711
4192.49087,0.04147
4194.41933,0.04895
4196.34780,0.05306
4198.27627,0.04917
4200.20474,0.04202
4202.13321,0.03931
4204.06168,0.03909
4205.99015,0.03837
4207.91861,0.03844
4209.84708,0.03787
4211.77555,0.03664
4213.70402,0.03680
4215.63249,0.03879
4217.56096,0.03955
4219.48943,0.03697
4221.41789,0.03735
4223.34636,0.04209
4225.27483,0.04354
4227.20330,0.04269
4229.13177,0.04226
4231.06024,0.03566
4232.98871,0.03055
4234.91718,0.04205
4236.84564,0.05757
4238.77411,0.05635
4240.70258,0.04277
4242.63105,0.03643
4244.55952,0.04037
4246.48799,0.04185
4248.41646,0.04244
4250.34492,0.04633
4252.27339,0.04390
4254.20186,0.03521
4256.13033,0.03349
4258.05880,0.03998
4259.98727,0.04284
4261.91574,0.04057
4263.84421,0.04140
4265.77267,0.04420
4267.70114,0.04309
4269.62961,0.04025
4271.55808,0.04002
4273.48655,0.04266
4275.41502,0.04615
4277.34349,0.04888
4279.27195,0.05000
4281.20042,0.04726
4283.12889,0.04025
4285.05736,0.03317
4286.98583,0.03381
4288.91430,0.04062
4290.84277,0.04328
4292.77124,0.04282
4294.69970,0.04485
4296.62817,0.04786
4298.55664,0.04629
4300.48511,0.03878
4302.41358,0.03308
4304.34205,0.03504
4306.27052,0.04072
4308.19898,0.04054
4310.12745,0.03554
4312.05592,0.03751
4313.98439,0.04616
4315.91286,0.04807
4317.84133,0.03866
4319.76980,0.03040
4321.69827,0.03080
4323.62673,0.03208
4325.55520,0.02980
4327.48367,0.02937
4329.41214,0.03221
4331.34061,0.03210
4333.26908,0.02874
4335.19755,0.02674
4337.12601,0.02732
4339.05448,0.03093
4340.98295,0.03412
4342.91142,0.03280
4344.83989,0.02986
4346.76836,0.02910
4348.69683,0.03212
4350.62530,0.03678
4352.55376,0.03945
4354.48223,0.04152
4356.41070,0.03934
4358.33917,0.02651
4360.26764,0.01235
4362.19611,0.01076
4364.12458,0.01692
4366.05304,0.01997
4367.98151,0.02316
4369.90998,0.02941
4371.83845,0.03393
4373.76692,0.03558
4375.69539,0.03406
4377.62386,0.02903
4379.55232,0.02653
4381.48079,0.03120
4383.40926,0.03602
4385.33773,0.03126
4387.26620,0.02337
4389.19467,0.02495
4391.12314,0.03151
4393.05161,0.03397
4394.98007,0.03258
4396.90854,0.02771
4398.83701,0.02133
4400.76548,0.01994
4402.69395,0.01903
4404.62242,0.01191
4406.55089,0.01009
4408.47935,0.01868
4410.40782,0.02717
4412.33629,0.02875
4414.26476,0.02553
4416.19323,0.02295
4418.12170,0.02122
4420.05017,0.02080
4421.97864,0.02053
4423.90710,0.01833
4425.83557,0.02058
4427.76404,0.02552
4429.69251,0.02396
4431.62098,0.01586
4433.54945,0.00648
4435.47792,0.00302
4437.40638,0.00722
4439.33485,0.01199
4441.26332,0.01400
4443.19179,0.01577
4445.12026,0.01693
4447.04873,0.01585
4448.97720,0.01797
4450.90567,0.02568
4452.83413,0.02909
4454.76260,0.02376
4456.69107,0.01815
4458.61954,0.02151
4460.54801,0.02903
4462.47648,0.03158
4464.40495,0.03437
4466.33341,0.03673
4468.26188,0.03208
4470.19035,0.02436
4472.11882,0.01548
4474.04729,0.00672
4475.97576,0.00762
4477.90423,0.01656
4479.83270,0.01614
4481.76116,0.00827
4483.68963,0.00900
4485.61810,0.01334
4487.54657,0.01574
4489.47504,0.02331
4491.40351,0.03037
4493.33198,0.02892
4495.26044,0.02350
4497.18891,0.01888
4499.11738,0.01913
4501.04585,0.02009
4502.97432,0.01407
4504.90279,0.01341
4506.83126,0.02322
4508.75973,0.02233
4510.68819,0.01013
4512.61666,0.00709
4514.54513,0.01410
4516.47360,0.02072
4518.40207,0.02482
4520.33054,0.02548
4522.25901,0.01903
4524.18747,0.01231
4526.11594,0.01529
4528.04441,0.02188
4529.97288,0.02052
4531.90135,0.01286
4533.82982,0.00823
4535.75829,0.00611
4537.68676,0.00550
4539.61522,0.01283
4541.54369,0.02497
4543.47216,0.02651
4545.40063,0.01342
4547.32910,0.00459
4549.25757,0.00932
4551.18604,0.01087
4553.11450,-0.00260
4555.04297,-0.01395
4556.97144,-0.00904
4558.89991,-0.00520
4560.82838,-0.00967
4562.75685,-0.00907
4564.68532,-0.00210
4566.61378,0.00307
4568.54225,0.00427
4570.47072,0.00323
4572.39919,0.00267
4574.32766,0.01133
4576.25613,0.02948
4578.18460,0.03675
4580.11307,0.02649
4582.04153,0.01780
4583.97000,0.01582
4585.89847,0.01545
4587.82694,0.01874
4589.75541,0.02077
4591.68388,0.01609
4593.61235,0.00818
4595.54081,0.00126
4597.46928,-0.00043
4599.39775,0.00729
4601.32622,0.01516
4603.25469,0.01408
4605.18316,0.01266
4607.11163,0.01137
4609.04010,0.00710
4610.96856,0.00813
4612.89703,0.00954
4614.82550,0.00273
4616.75397,-0.00529
4618.68244,-0.00735
4620.61091,-0.00597
4622.53938,-0.00227
4624.46784,0.00592
4626.39631,0.01455
4628.32478,0.01812
4630.25325,0.01299
4632.18172,0.00455
4634.11019,0.00224
4636.03866,0.00817
4637.96713,0.01300
4639.89559,0.01168
4641.82406,0.01078
4643.75253,0.00950
4645.68100,0.00260
4647.60947,-0.00860
4649.53794,-0.01388
4651.46641,-0.00832
4653.39487,-0.00366
4655.32334,-0.00398
4657.25181,-0.00373
4659.18028,-0.00374
4661.10875,-0.00248
4663.03722,0.00651
4664.96569,0.01012
4666.89416,-0.00056
4668.82262,-0.00437
4670.75109,0.00386
4672.67956,0.01063
4674.60803,0.01254
4676.53650,0.00667
4678.46497,-0.00250
4680.39344,-0.00159
4682.32190,0.00817
4684.25037,0.01295
4686.17884,0.00916
4688.10731,0.00783
4690.03578,0.01109
4691.96425,0.00941
4693.89272,0.00425
4695.82119,0.00059
4697.74965,-0.00830
4699.67812,-0.01847
4701.60659,-0.01502
4703.53506,-0.00182
4705.46353,0.00587
4707.39200,0.00426
4709.32047,0.00634
4711.24893,0.01920
4713.17740,0.02234
4715.10587,0.00782
4717.03434,-0.00120
4718.96281,0.00847
4720.89128,0.02457
4722.81975,0.02678
4724.74821,0.01218
4726.67668,-0.00270
4728.60515,-0.00159
4730.53362,0.00917
4732.46209,0.00962
4734.39056,0.00106
4736.31903,-0.00025
4738.24750,0.00484
4740.17596,0.00944
4742.10443,0.01768
4744.03290,0.02181
4745.96137,0.01138
4747.88984,0.00070
4749.81831,-0.00159
4751.74678,-0.00229
4753.67524,0.00428
4755.60371,0.01879
4757.53218,0.02258
4759.46065,0.01432
4761.38912,0.01184
4763.31759,0.01449
4765.24606,0.01161
4767.17453,0.00520
4769.10299,0.00293
4771.03146,0.00534
4772.95993,0.00597
4774.88840,0.00593
4776.81687,0.00908
4778.74534,0.01023
4780.67381,0.00874
4782.60227,0.00760
4784.53074,0.00255
4786.45921,-0.00142
4788.38768,0.00200
4790.31615,0.00242
4792.24462,-0.00322
4794.17309,-0.00301
4796.10156,0.00373
4798.03002,0.00756
4799.95849,0.00665
4801.88696,0.00515
4803.81543,0.00490
4805.74390,0.00596
4807.67237,0.00997
4809.60084,0.01175
4811.52930,0.00719
4813.45777,0.00357
4815.38624,0.00062
4817.31471,-0.00347
4819.24318,-0.00588
4821.17165,-0.00999
4823.10012,-0.01335
4825.02859,-0.01094
4826.95705,-0.00283
4828.88552,0.00920
4830.81399,0.01704
4832.74246,0.01704
4834.67093,0.01673
4836.59940,0.01701
4838.52787,0.01192
4840.45633,0.00773
4842.38480,0.01547
4844.31327,0.02785
4846.24174,0.02978
4848.17021,0.02168
4850.09868,0.01135
4852.02715,0.00538
4853.95562,0.00852
4855.88408,0.01743
4857.81255,0.02182
4859.74102,0.01460
4861.66949,0.00385
4863.59796,0.00440
4865.52643,0.01419
4867.45490,0.01611
4869.38336,0.00564
4871.31183,-0.00402
4873.24030,-0.00804
4875.16877,-0.01085
4877.09724,-0.01015
4879.02571,-0.00381
4880.95418,0.00537
4882.88265,0.01334
4884.81111,0.01682
4886.73958,0.02269
4888.66805,0.03482
4890.59652,0.04422
4892.52499,0.04705
4894.45346,0.03905
4896.38193,0.01983
4898.31039,0.00382
4900.23886,-0.00129
4902.16733,0.00395
4904.09580,0.01259
4906.02427,0.00751
4907.95274,-0.01107
4909.88121,-0.01972
4911.80967,-0.01272
4913.73814,-0.00692
4915.66661,-0.00338
4917.59508,0.00683
4919.52355,0.01989
4921.45202,0.02342
4923.38049,0.01006
4925.30896,-0.00374
4927.23742,0.00380
4929.16589,0.01881
4931.09436,0.02267
4933.02283,0.02375
4934.95130,0.02207
4936.87977,0.00901
4938.80824,-0.00523
4940.73670,-0.00500
4942.66517,0.00509
4944.59364,0.00720
4946.52211,-0.00259
4948.45058,-0.01945
4950.37905,-0.02978
4952.30752,-0.01762
4954.23599,0.00244
4956.16445,0.00763
4958.09292,0.00159
4960.02139,-0.00383
4961.94986,-0.00556
4963.87833,-0.00806
4965.80680,-0.01280
4967.73527,-0.01544
4969.66373,-0.01299
4971.59220,-0.00996
4973.52067,-0.01182
4975.44914,-0.00846
4977.37761,0.00468
4979.30608,0.01281
4981.23455,0.01664
4983.16302,0.02678
4985.09148,0.03446
4987.01995,0.02938
4988.94842,0.02222
4990.87689,0.02552
4992.80536,0.03046
4994.73383,0.03204
4996.66230,0.03809
4998.59076,0.04233
5000.51923,0.04049
5002.44770,0.04245
5004.37617,0.04484
5006.30464,0.03782
5008.23311,0.02894
5010.16158,0.02700
5012.09005,0.02762
5014.01851,0.02860
5015.94698,0.02935
5017.87545,0.02672
5019.80392,0.01689
5021.73239,-0.00146
5023.66086,-0.01292
5025.58933,-0.00498
5027.51779,0.00983
5029.44626,0.02138
5031.37473,0.03060
5033.30320,0.03611
5035.23167,0.03800
5037.16014,0.03099
5039.08861,0.01805
5041.01708,0.01961
5042.94554,0.03295
5044.87401,0.03794
5046.80248,0.02417
5048.73095,-0.00266
5050.65942,-0.01569
5052.58789,-0.00421
5054.51636,0.01319
5056.44482,0.02023
5058.37329,0.01601
5060.30176,0.01255
5062.23023,0.01145
5064.15870,0.00597
5066.08717,0.00542
5068.01564,0.01358
5069.94410,0.01666
5071.87257,0.00852
5073.80104,-0.00128
5075.72951,0.00215
5077.65798,0.01688
5079.58645,0.02306
5081.51492,0.01423
5083.44339,0.00915
5085.37185,0.02160
5087.30032,0.03147
5089.22879,0.02293
5091.15726,0.01326
5093.08573,0.01273
5095.01420,0.02184
5096.94267,0.03705
5098.87113,0.04113
5100.79960,0.02816
5102.72807,0.01373
5104.65654,0.01140
5106.58501,0.02118
5108.51348,0.03228
5110.44195,0.03352
5112.37042,0.02212
5114.29888,0.01051
5116.22735,0.01485
5118.15582,0.02910
5120.08429,0.03209
5122.01276,0.01613
5123.94123,-0.00168
5125.86970,-0.00406
5127.79816,0.00635
5129.72663,0.01322
5131.65510,0.00553
5133.58357,0.00583
5135.51204,0.02558
5137.44051,0.02756
5139.36898,0.00581
5141.29745,-0.00490
5143.22591,0.00081
5145.15438,0.00933
5147.08285,0.02058
5149.01132,0.03682
5150.93979,0.05123
5152.86826,0.05848
5154.79673,0.05794
5156.72519,0.04169
5158.65366,0.00768
5160.58213,-0.01868
5162.51060,-0.00997
5164.43907,0.01719
5166.36754,0.02281
5168.29601,0.01028
5170.22448,0.00276
5172.15294,0.00285
5174.08141,0.00826
5176.00988,0.00913
5177.93835,0.00201
5179.86682,0.00510
5181.79529,0.02326
5183.72376,0.04729
5185.65222,0.05679
5187.58069,0.04196
5189.50916,0.02720
5191.43763,0.01803
5193.36610,0.01151
5195.29457,0.01700
5197.22304,0.02563
5199.15151,0.02770
5201.07997,0.02743
5203.00844,0.02622
5204.93691,0.02563
5206.86538,0.02366
5208.79385,0.02337
5210.72232,0.03304
5212.65079,0.03882
5214.57925,0.03419
5216.50772,0.03118
5218.43619,0.03144
5220.36466,0.03045
5222.29313,0.03181
5224.22160,0.03787
5226.15007,0.03913
5228.07854,0.03424
5230.00700,0.02966
5231.93547,0.02898
5233.86394,0.03207
5235.79241,0.03246
5237.72088,0.03080
5239.64935,0.02334
5241.57782,0.01371
5243.50628,0.01989
5245.43475,0.04132
5247.36322,0.04322
5249.29169,0.01148
5251.22016,-0.00206
5253.14863,0.01260
5255.07710,0.01149
5257.00556,-0.00325
5258.93403,-0.00271
5260.86250,0.01205
5262.79097,0.02342
5264.71944,0.02986
5266.64791,0.02994
5268.57638,0.02039
5270.50485,0.01667
5272.43331,0.01572
5274.36178,0.01357
5276.29025,0.02698
5278.21872,0.03909
5280.14719,0.02738
5282.07566,0.01001
5284.00413,0.00277
5285.93259,-0.00102
5287.86106,-0.00287
5289.78953,0.01244
5291.71800,0.04273
5293.64647,0.06126
5295.57494,0.06347
5297.50341,0.05960
5299.43188,0.05376
5301.36034,0.05139
5303.28881,0.05552
5305.21728,0.06043
5307.14575,0.06238
5309.07422,0.05568
5311.00269,0.03907
5312.93116,0.02039
5314.85962,0.00558
5316.78809,0.00222
5318.71656,0.01991
5320.64503,0.04407
5322.57350,0.05051
5324.50197,0.04424
5326.43044,0.03296
5328.35891,0.02690
5330.28737,0.04535
5332.21584,0.07433
5334.14431,0.08460
5336.07278,0.07133
5338.00125,0.05262
5339.92972,0.05162
5341.85819,0.06987
5343.78665,0.07998
5345.71512,0.06062
5347.64359,0.04023
5349.57206,0.04190
5351.50053,0.05081
5353.42900,0.04445
5355.35747,0.03526
5357.28594,0.04796
5359.21440,0.06051
5361.14287,0.04721
5363.07134,0.02886
5364.99981,0.02175
5366.92828,0.02220
5368.85675,0.03416
5370.78522,0.04105
5372.71368,0.03957
5374.64215,0.04855
5376.57062,0.05738
5378.49909,0.04847
5380.42756,0.03833
5382.35603,0.04075
5384.28450,0.04404
5386.21297,0.04368
5388.14143,0.04608
5390.06990,0.03961
5391.99837,0.02424
5393.92684,0.02010
5395.85531,0.02688
5397.78378,0.02785
5399.71225,0.03666
5401.64071,0.04999
5403.56918,0.03899
5405.49765,0.02087
5407.42612,0.02410
5409.35459,0.03550
5411.28306,0.04060
5413.21153,0.03290
5415.13999,0.02329
5417.06846,0.04371
5418.99693,0.07951
5420.92540,0.08716
5422.85387,0.06896
5424.78234,0.05522
5426.71081,0.04169
5428.63928,0.02277
5430.56774,0.02640
5432.49621,0.04269
5434.42468,0.04538
5436.35315,0.04199
5438.28162,0.03901
5440.21009,0.04514
5442.13856,0.06700
5444.06702,0.08373
5445.99549,0.07690
5447.92396,0.05534
5449.85243,0.04579
5451.78090,0.05028
5453.70937,0.06188
5455.63784,0.08410
5457.56631,0.08772
5459.49477,0.06074
5461.42324,0.05068
5463.35171,0.05798
5465.28018,0.04667
5467.20865,0.03519
5469.13712,0.05177
5471.06559,0.07214
5472.99405,0.06632
5474.92252,0.04791
5476.85099,0.04572
5478.77946,0.06090
5480.70793,0.06797
5482.63640,0.05097
5484.56487,0.02474
5486.49334,0.00145
5488.42180,-0.00709
5490.35027,0.00440
5492.27874,0.01075
5494.20721,0.01348
5496.13568,0.03228
5498.06415,0.05363
5499.99262,0.05651
5501.92108,0.04267
5503.84955,0.02824
5505.77802,0.02808
5507.70649,0.03833
5509.63496,0.03219
5511.56343,0.01732
5513.49190,0.02202
5515.42037,0.04166
5517.34883,0.04934
5519.27730,0.03073
5521.20577,0.00912
5523.13424,0.01486
5525.06271,0.03424
5526.99118,0.03209
5528.91965,0.01746
5530.84811,0.02536
5532.77658,0.04515
5534.70505,0.04279
5536.63352,0.02392
5538.56199,0.01371
5540.49046,0.01822
5542.41893,0.02486
5544.34740,0.01933
5546.27586,0.01802
5548.20433,0.03730
5550.13280,0.04671
5552.06127,0.02467
5553.98974,0.01034
5555.91821,0.04087
5557.84668,0.08541
5559.77514,0.10714
5561.70361,0.10715
5563.63208,0.08527
5565.56055,0.04842
5567.48902,0.03032
5569.41749,0.04583
5571.34596,0.07429
5573.27443,0.10029
5575.20289,0.09857
5577.13136,0.06161
5579.05983,0.02405
5580.98830,0.00938
5582.91677,0.02182
5584.84524,0.03774
5586.77371,0.03035
5588.70217,0.02770
5590.63064,0.05922
5592.55911,0.09275
5594.48758,0.09151
5596.41605,0.06422
5598.34452,0.03974
5600.27299,0.02198
5602.20145,0.00974
5604.12992,0.01283
5606.05839,0.02038
5607.98686,0.02080
5609.91533,0.02242
5611.84380,0.02636
5613.77227,0.03749
5615.70074,0.05830
5617.62920,0.05273
5619.55767,0.02188
5621.48614,0.02433
5623.41461,0.05591
5625.34308,0.06593
5627.27155,0.05544
5629.20002,0.05982
5631.12848,0.08486
5633.05695,0.10506
5634.98542,0.09790
5636.91389,0.08046
5638.84236,0.07494
5640.77083,0.06839
5642.69930,0.07252
5644.62777,0.09314
5646.55623,0.08386
5648.48470,0.05128
5650.41317,0.04221
5652.34164,0.03890
5654.27011,0.01905
5656.19858,-0.00183
5658.12705,-0.00573
5660.05551,0.01266
5661.98398,0.03471
5663.91245,0.03799
5665.84092,0.02928
5667.76939,0.02705
5669.69786,0.03674
5671.62633,0.06546
5673.55480,0.09970
5675.48326,0.09633
5677.41173,0.06547
5679.34020,0.06675
5681.26867,0.11134
5683.19714,0.15132
5685.12561,0.13701
5687.05408,0.08578
5688.98254,0.05574
5690.91101,0.04790
5692.83948,0.04345
5694.76795,0.06269
5696.69642,0.09436
5698.62489,0.10973
5700.55336,0.09947
5702.48183,0.06556
5704.41029,0.04918
5706.33876,0.06627
5708.26723,0.08404
5710.19570,0.08454
5712.12417,0.07126
5714.05264,0.05320
5715.98111,0.02896
5717.90957,-0.00277
5719.83804,-0.01558
5721.76651,0.02114
5723.69498,0.09239
5725.62345,0.14861
5727.55192,0.15717
5729.48039,0.11874
5731.40886,0.07963
5733.33732,0.08092
5735.26579,0.09850
5737.19426,0.09993
5739.12273,0.08426
5741.05120,0.03994
5742.97967,0.00397
5744.90814,0.01479
5746.83660,0.03523
5748.76507,0.03238
5750.69354,0.01730
5752.62201,0.01426
5754.55048,0.01929
5756.47895,0.02320
5758.40742,0.04819
5760.33588,0.08827
5762.26435,0.09723
5764.19282,0.06721
5766.12129,0.04133
5768.04976,0.04138
5769.97823,0.05337
5771.90670,0.05610
5773.83517,0.04388
5775.76363,0.03344
5777.69210,0.03696
5779.62057,0.05544
5781.54904,0.07354
5783.47751,0.06680
5785.40598,0.04322
5787.33445,0.03306
5789.26291,0.03567
5791.19138,0.03672
5793.11985,0.04272
5795.04832,0.05699
5796.97679,0.06237
5798.90526,0.04872
5800.83373,0.02698
5802.76220,0.02095
5804.69066,0.04776
5806.61913,0.07376
5808.54760,0.07629
5810.47607,0.08113
5812.40454,0.09092
5814.33301,0.09570
5816.26148,0.09820
5818.18994,0.09854
5820.11841,0.09258
5822.04688,0.08695
5823.97535,0.08116
5825.90382,0.06267
5827.83229,0.04386
5829.76076,0.03766
5831.68923,0.04755
5833.61769,0.07212
5835.54616,0.07949
5837.47463,0.04692
5839.40310,0.02577
5841.33157,0.06228
5843.26004,0.09448
5845.18851,0.07586
5847.11697,0.04213
5849.04544,0.01948
5850.97391,0.01878
5852.90238,0.02746
5854.83085,0.02235
5856.75932,0.02553
5858.68779,0.04201
5860.61626,0.02661
5862.54472,-0.00641
5864.47319,0.00114
5866.40166,0.04745
5868.33013,0.08568
5870.25860,0.09732
5872.18707,0.09883
5874.11554,0.10337
5876.04400,0.10489
5877.97247,0.09471
5879.90094,0.08269
5881.82941,0.07333
5883.75788,0.06573
5885.68635,0.05817
5887.61482,0.03909
5889.54329,0.02747
5891.47175,0.04247
5893.40022,0.05170
5895.32869,0.05110
5897.25716,0.07073
5899.18563,0.08560
5901.11410,0.08315
5903.04257,0.09729
5904.97103,0.11626
5906.89950,0.11227
5908.82797,0.10298
5910.75644,0.11359
5912.68491,0.11294
5914.61338,0.07839
5916.54185,0.06891
5918.47032,0.12446
5920.39878,0.18162
5922.32725,0.16694
5924.25572,0.10994
5926.18419,0.06789
5928.11266,0.05209
5930.04113,0.07671
5931.96960,0.11976
5933.89806,0.11996
5935.82653,0.09099
5937.75500,0.08064
5939.68347,0.08905
5941.61194,0.09833
5943.54041,0.07314
5945.46888,0.02393
5947.39734,-0.00063
5949.32581,0.00118
5951.25428,0.02781
5953.18275,0.06665
5955.11122,0.06830
5957.03969,0.04075
5958.96816,0.03531
5960.89663,0.06015
5962.82509,0.08268
5964.75356,0.08663
5966.68203,0.07702
5968.61050,0.05571
5970.53897,0.02454
5972.46744,0.00180
5974.39591,-0.00412
5976.32437,0.00098
5978.25284,0.03414
5980.18131,0.08194
5982.10978,0.09655
5984.03825,0.07742
5985.96672,0.05433
5987.89519,0.04042
5989.82366,0.03701
5991.75212,0.02653
5993.68059,0.01175
5995.60906,0.03991
5997.53753,0.07529
5999.46600,0.05870
6001.39447,0.02879
6003.32294,0.00207
6005.25140,-0.02997
6007.17987,-0.02775
6009.10834,0.03261
6011.03681,0.08886
6012.96528,0.07858
6014.89375,0.04689
6016.82222,0.03924
6018.75069,0.03619
6020.67915,0.03915
6022.60762,0.05628
6024.53609,0.05619
6026.46456,0.04472
6028.39303,0.05456
6030.32150,0.06172
6032.24997,0.04803
6034.17843,0.04250
6036.10690,0.04237
6038.03537,0.02365
6039.96384,0.01287
6041.89231,0.03360
6043.82078,0.06250
6045.74925,0.07762
6047.67772,0.09277
6049.60618,0.12947
6051.53465,0.15393
6053.46312,0.13265
6055.39159,0.09432
6057.32006,0.07245
6059.24853,0.07648
6061.17700,0.08631
6063.10546,0.07989
6065.03393,0.07836
6066.96240,0.07888
6068.89087,0.03524
6070.81934,-0.01273
6072.74781,0.01886
6074.67628,0.06221
6076.60475,0.05375
6078.53321,0.06554
6080.46168,0.09118
6082.39015,0.08924
6084.31862,0.08297
6086.24709,0.07784
6088.17556,0.07504
6090.10403,0.07632
6092.03249,0.05588
6093.96096,0.00457
6095.88943,-0.03370
6097.81790,-0.00774
6099.74637,0.05913
6101.67484,0.08555
6103.60331,0.06714
6105.53177,0.06393
6107.46024,0.06160
6109.38871,0.02698
6111.31718,0.02114
6113.24565,0.05908
6115.17412,0.08212
6117.10259,0.10524
6119.03106,0.12827
6120.95952,0.11523
6122.88799,0.10600
6124.81646,0.11412
6126.74493,0.11702
6128.67340,0.11158
6130.60187,0.09174
6132.53034,0.06926
6134.45880,0.06791
6136.38727,0.08061
6138.31574,0.06972
6140.24421,0.01911
6142.17268,-0.00565
6144.10115,0.04729
6146.02962,0.10197
6147.95809,0.09761
6149.88655,0.07623
6151.81502,0.08184
6153.74349,0.07753
6155.67196,0.04281
6157.60043,0.01999
6159.52890,0.01555
6161.45737,0.01463
6163.38583,0.03113
6165.31430,0.07779
6167.24277,0.10115
6169.17124,0.07109
6171.09971,0.05307
6173.02818,0.06413
6174.95665,0.07178
6176.88512,0.09687
6178.81358,0.12635
6180.74205,0.12239
6182.67052,0.09353
6184.59899,0.06909
6186.52746,0.07079
6188.45593,0.08466
6190.38440,0.08064
6192.31286,0.06822
6194.24133,0.05303
6196.16980,0.03184
6198.09827,0.02206
6200.02674,0.02395
6201.95521,0.03628
6203.88368,0.06693
6205.81215,0.08502
6207.74061,0.07896
6209.66908,0.06925
6211.59755,0.05860
6213.52602,0.03796
6215.45449,0.00120
6217.38296,-0.00708
6219.31143,0.03079
6221.23989,0.07198
6223.16836,0.12155
6225.09683,0.16851
6227.02530,0.13672
6228.95377,0.05169
6230.88224,0.03957
6232.81071,0.08900
6234.73918,0.10573
6236.66764,0.10665
6238.59611,0.07309
6240.52458,-0.00171
6242.45305,-0.02270
6244.38152,0.03036
6246.30999,0.08985
6248.23846,0.13011
6250.16692,0.13125
6252.09539,0.08493
6254.02386,0.05103
6255.95233,0.04169
6257.88080,0.03330
6259.80927,0.04172
6261.73774,0.07030
6263.66621,0.09799
6265.59467,0.10312
6267.52314,0.10745
6269.45161,0.14079
6271.38008,0.15693
6273.30855,0.09655
6275.23702,0.01306
6277.16549,0.00903
6279.09395,0.01539
6281.02242,-0.02068
6282.95089,-0.00041
6284.87936,0.07883
6286.80783,0.12319
6288.73630,0.12474
6290.66477,0.12363
6292.59323,0.13136
6294.52170,0.11140
6296.45017,0.05625
6298.37864,0.00860
6300.30711,-0.00160
6302.23558,0.00296
6304.16405,-0.00028
6306.09252,0.04200
6308.02098,0.10003
6309.94945,0.05243
6311.87792,-0.06409
6313.80639,-0.09955
6315.73486,-0.02112
6317.66333,0.08624
6319.59180,0.16694
6321.52026,0.22387
6323.44873,0.23790
6325.37720,0.20564
6327.30567,0.16552
6329.23414,0.17425
6331.16261,0.22410
6333.09108,0.22220
6335.01955,0.15849
6336.94801,0.08886
6338.87648,0.02349
6340.80495,-0.03032
6342.73342,-0.03980
6344.66189,0.01796
6346.59036,0.07691
6348.51883,0.06655
6350.44729,0.06191
6352.37576,0.09985
6354.30423,0.12077
6356.23270,0.10908
6358.16117,0.07423
6360.08964,0.04371
6362.01811,0.04024
6363.94658,0.08941
6365.87504,0.19994
6367.80351,0.26336
6369.73198,0.19273
6371.66045,0.05260
6373.58892,-0.01289
6375.51739,0.05000
6377.44586,0.12216
6379.37432,0.12037
6381.30279,0.08703
6383.23126,0.09697
6385.15973,0.11760
6387.08820,0.08533
6389.01667,0.06857
6390.94514,0.12474
6392.87361,0.18105
6394.80207,0.14952
6396.73054,0.09023
6398.65901,0.06923
6400.58748,0.08197
6402.51595,0.10612
6404.44442,0.13811
6406.37289,0.17814
6408.30135,0.16854
6410.22982,0.09053
6412.15829,0.04942
6414.08676,0.10765
6416.01523,0.14979
6417.94370,0.08680
6419.87217,0.02149
6421.80064,0.03159
6423.72910,0.08201
6425.65757,0.13946
6427.58604,0.16833
6429.51451,0.16492
6431.44298,0.15859
6433.37145,0.13974
6435.29992,0.10614
6437.22838,0.10261
6439.15685,0.08622
6441.08532,0.04008
6443.01379,0.05278
6444.94226,0.07889
6446.87073,0.03012
6448.79920,-0.02042
6450.72766,-0.00909
6452.65613,0.04223
6454.58460,0.07472
6456.51307,0.03194
6458.44154,-0.02821
6460.37001,-0.03807
6462.29848,-0.02240
6464.22695,0.01700
6466.15541,0.05153
6468.08388,0.05798
6470.01235,0.05355
6471.94082,0.03219
6473.86929,0.06690
6475.79776,0.15805
6477.72623,0.14359
6479.65469,0.04468
6481.58316,0.01417
6483.51163,0.03712
6485.44010,0.04335
6487.36857,0.04366
6489.29704,0.05110
6491.22551,0.06610
6493.15398,0.09015
6495.08244,0.09724
6497.01091,0.07424
6498.93938,0.05319
6500.86785,0.04323
6502.79632,0.00477
6504.72479,-0.04820
6506.65326,-0.05512
6508.58172,-0.04668
6510.51019,-0.08333
6512.43866,-0.10272
6514.36713,-0.06347
6516.29560,0.00433
6518.22407,0.09114
6520.15254,0.14141
6522.08101,0.11845
6524.00947,0.05589
6525.93794,0.00555
6527.86641,-0.00856
6529.79488,0.00076
6531.72335,0.01437
6533.65182,0.04827
6535.58029,0.11788
6537.50875,0.16570
6539.43722,0.13100
6541.36569,0.06768
6543.29416,0.05258
6545.22263,0.04024
6547.15110,-0.01292
6549.07957,-0.04167
6551.00804,0.00396
6552.93650,0.05167
6554.86497,0.02387
6556.79344,-0.03725
6558.72191,-0.04013
6560.65038,0.04496
6562.57885,0.13754
6564.50732,0.15464
6566.43578,0.14055
6568.36425,0.15459
6570.29272,0.17801
6572.22119,0.16280
6574.14966,0.12309
6576.07813,0.12257
6578.00660,0.12515
6579.93507,0.10191
6581.86353,0.09768
6583.79200,0.09864
6585.72047,0.08956
6587.64894,0.07141
6589.57741,0.03226
6591.50588,0.02201
6593.43435,0.06709
6595.36281,0.10203
6597.29128,0.10472
6599.21975,0.10379
6601.14822,0.11704
6603.07669,0.13208
6605.00516,0.13371
6606.93363,0.13075
6608.86210,0.12820
6610.79056,0.11951
6612.71903,0.06471
6614.64750,0.00200
6616.57597,0.01517
6618.50444,0.05349
6620.43291,0.03229
6622.36138,-0.05252
6624.28984,-0.13465
6626.21831,-0.15157
6628.14678,-0.11505
6630.07525,-0.04639
6632.00372,0.02419
6633.93219,0.05333
6635.86066,0.05336
6637.78912,0.09441
6639.71759,0.16321
6641.64606,0.15850
6643.57453,0.05891
6645.50300,-0.03799
6647.43147,-0.05277
6649.35994,0.00376
6651.28841,0.05794
6653.21687,0.09019
6655.14534,0.09887
6657.07381,0.07067
6659.00228,0.06934
6660.93075,0.04664
6662.85922,-0.02446
6664.78769,-0.04175
6666.71615,0.01097
6668.64462,0.09448
6670.57309,0.16361
6672.50156,0.17322
6674.43003,0.10839
6676.35850,0.06635
6678.28697,0.12776
6680.21544,0.21782
6682.14390,0.24782
6684.07237,0.23289
6686.00084,0.20284
6687.92931,0.08445
6689.85778,-0.07014
6691.78625,-0.06889
6693.71472,0.03693
6695.64318,0.11147
6697.57165,0.13136
6699.50012,0.15644
6701.42859,0.18136
6703.35706,0.14319
6705.28553,0.06358
6707.21400,0.03465
6709.14247,0.02917
6711.07093,-0.00799
6712.99940,-0.02405
6714.92787,-0.01977
6716.85634,-0.01478
6718.78481,0.04171
6720.71328,0.14945
6722.64175,0.21228
6724.57021,0.15256
6726.49868,0.04853
6728.42715,0.01883
6730.35562,0.04319
6732.28409,0.07018
6734.21256,0.09300
6736.14103,0.09497
6738.06950,0.10485
6739.99796,0.10616
6741.92643,0.01134
6743.85490,-0.09209
6745.78337,-0.08808
6747.71184,-0.03812
6749.64031,-0.01867
6751.56878,-0.02011
6753.49724,0.01572
6755.42571,0.06414
6757.35418,0.04599
6759.28265,0.00679
6761.21112,0.02014
6763.13959,0.04411
6765.06806,0.01460
6766.99653,-0.06122
6768.92499,-0.05406
6770.85346,0.06050
6772.78193,0.12059
6774.71040,0.11577
6776.63887,0.10648
6778.56734,0.04498
6780.49581,0.00061
6782.42427,0.01910
6784.35274,0.01871
6786.28121,0.01384
6788.20968,0.03841
6790.13815,0.06543
6792.06662,0.07227
6793.99509,0.05992
6795.92355,0.05155
6797.85202,0.07556
6799.78049,0.14222
6801.70896,0.20280
6803.63743,0.20556
6805.56590,0.17697
6807.49437,0.13300
6809.42284,0.06559
6811.35130,0.01412
6813.27977,0.03880
6815.20824,0.11496
6817.13671,0.14280
6819.06518,0.08004
6820.99365,-0.03165
6822.92212,-0.12173
6824.85058,-0.11303
6826.77905,-0.05105
6828.70752,-0.00625
6830.63599,-0.00127
6832.56446,-0.02983
6834.49293,-0.04047
6836.42140,-0.03505
6838.34987,-0.11543
6840.27833,-0.21839
6842.20680,-0.20650
6844.13527,-0.09853
6846.06374,0.05330
6847.99221,0.17162
6849.92068,0.13385
6851.84915,0.03103
6853.77761,0.02263
6855.70608,0.10944
6857.63455,0.15746
6859.56302,0.12246
6861.49149,0.05467
6863.41996,-0.01238
6865.34843,-0.02197
6867.27690,0.03519
6869.20536,0.07475
6871.13383,0.10634
6873.06230,0.17555
6874.99077,0.18949
6876.91924,0.13308
6878.84771,0.10160
6880.77618,0.09098
6882.70464,0.02098
6884.63311,-0.08444
6886.56158,-0.16027
6888.49005,-0.14432
6890.41852,0.01329
6892.34699,0.21242
6894.27546,0.27727
6896.20393,0.20759
6898.13239,0.13386
6900.06086,0.15823
6901.98933,0.21494
6903.91780,0.22688
6905.84627,0.20497
6907.77474,0.15407
6909.70321,0.04108
6911.63167,-0.08406
6913.56014,-0.11489
6915.48861,-0.06245
6917.41708,0.01857
6919.34555,0.12026
6921.27402,0.15675
6923.20249,0.09415
6925.13096,0.04185
6927.05942,0.09628
6928.98789,0.19265
6930.91636,0.15137
6932.84483,0.00322
6934.77330,-0.02511
6936.70177,0.04503
6938.63024,0.08498
6940.55870,0.09994
6942.48717,0.13421
6944.41564,0.10262
6946.34411,-0.00471
6948.27258,-0.03803
6950.20105,0.01161
6952.12952,-0.01157
6954.05799,-0.09910
6955.98645,-0.07430
6957.91492,0.05906
6959.84339,0.16255
6961.77186,0.22334
6963.70033,0.24501
6965.62880,0.18095
6967.55727,0.06115
6969.48573,0.00260
6971.41420,0.02250
6973.34267,0.07246
6975.27114,0.12643
6977.19961,0.13604
6979.12808,0.12389
6981.05655,0.14765
6982.98501,0.17057
6984.91348,0.05242
6986.84195,-0.14613
6988.77042,-0.20805
6990.69889,-0.13326
6992.62736,-0.02303
6994.55583,0.10516
6996.48430,0.21139
6998.41276,0.19866
7000.34123,0.08924
7002.26970,-0.00296
7004.19817,-0.03284
7006.12664,-0.02145
7008.05511,0.01513
7009.98358,0.12082
7011.91204,0.21575
7013.84051,0.15479
7015.76898,0.07373
7017.69745,0.10884
7019.62592,0.18764
7021.55439,0.19793
7023.48286,0.06619
7025.41133,-0.11959
7027.33979,-0.19331
7029.26826,-0.12508
7031.19673,-0.05641
7033.12520,-0.04718
7035.05367,-0.06397
7036.98214,-0.09883
7038.91061,-0.08936
7040.83907,0.04173
7042.76754,0.21098
7044.69601,0.25289
7046.62448,0.20455
7048.55295,0.08614
7050.48142,-0.02591
7052.40989,0.01166
7054.33836,0.10478
7056.26682,0.08475
7058.19529,0.01021
7060.12376,0.00689
7062.05223,0.09915
7063.98070,0.21883
7065.90917,0.22648
7067.83764,0.16866
7069.76610,0.20610
7071.69457,0.30687
7073.62304,0.28053
7075.55151,0.15294
7077.47998,0.02313
7079.40845,-0.10630
7081.33692,-0.17190
7083.26539,-0.05524
7085.19385,0.16296
7087.12232,0.32322
7089.05079,0.24674
7090.97926,0.03352
7092.90773,-0.09167
7094.83620,-0.12445
7096.76467,-0.10769
7098.69313,-0.01697
7100.62160,0.04627
7102.55007,0.05423
7104.47854,0.12039
7106.40701,0.22907
7108.33548,0.21418
7110.26395,0.10104
7112.19242,0.05188
7114.12088,0.05775
7116.04935,-0.01055
7117.97782,-0.12462
7119.90629,-0.14773
7121.83476,-0.15276
7123.76323,-0.21301
7125.69170,-0.18843
7127.62016,-0.03287
7129.54863,0.07095
7131.47710,0.12405
7133.40557,0.20517
7135.33404,0.18648
7137.26251,0.06908
7139.19098,0.02421
7141.11944,0.02415
7143.04791,0.00373
7144.97638,0.03739
7146.90485,0.09395
7148.83332,0.09714
7150.76179,0.07140
7152.69026,0.05918
7154.61873,0.06117
7156.54719,0.03561
7158.47566,0.00610
7160.40413,-0.02495
7162.33260,-0.05944
7164.26107,-0.01248
7166.18954,0.13321
7168.11801,0.24095
7170.04647,0.17728
7171.97494,-0.03409
7173.90341,-0.17617
7175.83188,-0.20318
7177.76035,-0.17409
7179.68882,-0.04604
7181.61729,0.15532
7183.54576,0.24815
7185.47422,0.23744
7187.40269,0.31313
7189.33116,0.33995
7191.25963,0.11763
7193.18810,-0.04818
7195.11657,0.00170
7197.04504,0.00661
7198.97350,-0.02273
7200.90197,0.05144
7202.83044,0.20761
7204.75891,0.26304
7206.68738,0.09067
7208.61585,-0.02728
7210.54432,-0.03992
7212.47279,-0.06812
7214.40125,-0.04782
7216.32972,0.08362
7218.25819,0.16397
7220.18666,0.12913
7222.11513,0.08133
7224.04360,0.06996
7225.97207,0.16120
7227.90053,0.26925
7229.82900,0.21722
7231.75747,0.02419
7233.68594,-0.07953
7235.61441,-0.07523
7237.54288,-0.05077
7239.47135,-0.05033
7241.39982,-0.08897
7243.32828,-0.12117
7245.25675,-0.09056
7247.18522,-0.02878
7249.11369,0.07674
7251.04216,0.27758
7252.97063,0.46648
7254.89910,0.45343
7256.82756,0.33646
7258.75603,0.21584
7260.68450,0.15419
7262.61297,0.20022
7264.54144,0.20003
7266.46991,0.01936
7268.39838,-0.15123
7270.32685,-0.19441
7272.25531,-0.19755
7274.18378,-0.15864
7276.11225,-0.04962
7278.04072,0.11426
7279.96919,0.30069
7281.89766,0.35175
7283.82613,0.26726
7285.75459,0.13781
7287.68306,0.01189
7289.61153,-0.01585
7291.54000,0.12235
7293.46847,0.21268
7295.39694,0.09594
7297.32541,-0.07284
7299.25387,-0.15297
7301.18234,-0.14411
7303.11081,-0.07697
7305.03928,-0.00419
7306.96775,-0.00858
7308.89622,-0.13725
7310.82469,-0.23705
7312.75316,-0.19323
7314.68162,-0.12742
7316.61009,-0.12273
7318.53856,-0.07446
7320.46703,0.01797
7322.39550,0.05033
7324.32397,0.09300
7326.25244,0.17796
7328.18090,0.18541
7330.10937,0.14137
7332.03784,0.19538
7333.96631,0.19712
7335.89478,0.10576
7337.82325,0.12358
7339.75172,0.25017
7341.68019,0.10781
7343.60865,-0.09216
7345.53712,-0.02836
7347.46559,0.21522
7349.39406,0.36374
7351.32253,0.36097
7353.25100,0.34099
7355.17947,0.25338
7357.10793,-0.06516
7359.03640,-0.37572
7360.96487,-0.30993
7362.89334,-0.12037
7364.82181,-0.03542
7366.75028,0.07221
7368.67875,0.16884
7370.60722,0.15641
7372.53568,0.17465
7374.46415,0.24539
7376.39262,0.25748
7378.32109,0.27168
7380.24956,0.25192
7382.17803,0.09942
7384.10650,-0.00057
7386.03496,0.16618
7387.96343,0.34701
7389.89190,0.27038
7391.82037,0.10786
7393.74884,-0.04275
7395.67731,-0.13800
7397.60578,0.06017
7399.53425,0.42697
7401.46271,0.54615
7403.39118,0.38885
7405.31965,0.22911
7407.24812,0.15847
7409.17659,0.11354
7411.10506,0.05922
7413.03353,0.00215
7414.96199,-0.01838
7416.89046,-0.01062
7418.81893,0.03542
7420.74740,0.12923
7422.67587,0.13063
7424.60434,0.00833
7426.53281,-0.08642
7428.46128,0.00328
7430.38974,0.23364
7432.31821,0.31753
7434.24668,0.24072
7436.17515,0.13285
7438.10362,0.09178
7440.03209,0.20414
7441.96056,0.28177
7443.88902,0.18952
7445.81749,0.13802
7447.74596,0.16511
7449.67443,0.15013
7451.60290,0.12195
7453.53137,0.11002
7455.45984,0.05735
7457.38831,-0.06710
7459.31677,-0.21729
7461.24524,-0.21695
7463.17371,-0.05455
7465.10218,0.15160
7467.03065,0.22718
7468.95912,0.09234
7470.88759,-0.03609
7472.81605,0.08165
7474.74452,0.29448
7476.67299,0.36457
7478.60146,0.23964
7480.52993,-0.04280
7482.45840,-0.17517
7484.38687,0.04759
7486.31533,0.28534
7488.24380,0.26164
7490.17227,0.02592
7492.10074,-0.16188
7494.02921,-0.15929
7495.95768,-0.10125
7497.88615,-0.14567
