399.19301,0.21701
401.12148,0.08106
403.04995,0.17579
404.97842,0.03481
406.90689,-0.14585
408.83536,-0.11200
410.76382,0.05452
412.69229,0.16198
414.62076,0.24074
416.54923,0.40488
418.47770,0.52685
420.40617,0.29162
422.33464,0.05149
424.26311,0.01720
426.19157,0.11940
428.12004,0.19820
430.04851,0.13221
431.97698,0.11404
433.90545,0.22310
435.83392,0.15954
437.76239,-0.02630
439.69085,-0.07364
441.61932,0.04472
443.54779,0.15194
445.47626,0.19051
447.40473,0.15144
449.33320,0.06032
451.26167,0.08749
453.19013,0.22865
455.11860,0.32237
457.04707,0.28128
458.97554,0.12439
460.90401,0.00919
462.83248,0.05423
464.76095,0.17387
466.68942,0.16575
468.61788,0.07829
470.54635,0.06373
472.47482,0.03817
474.40329,-0.07593
476.33176,-0.07989
478.26023,-0.01398
480.18870,0.06663
482.11716,0.14618
484.04563,0.15932
485.97410,0.06508
487.90257,-0.05890
489.83104,-0.07302
491.75951,0.01698
493.68798,0.07457
495.61645,0.04609
497.54491,-0.01492
499.47338,-0.02885
501.40185,0.04467
503.33032,0.13107
505.25879,0.10552
507.18726,0.00982
509.11573,-0.01175
511.04419,0.03477
512.97266,0.06749
514.90113,0.05485
516.82960,0.01636
518.75807,0.02773
520.68654,0.09279
522.61501,0.13925
524.54348,0.11124
526.47194,0.01640
528.40041,-0.03822
530.32888,-0.00365
532.25735,0.06406
534.18582,0.08326
536.11429,0.02394
538.04276,-0.03474
539.97122,-0.01280
541.89969,0.05097
543.82816,0.06370
545.75663,0.02006
547.68510,0.01410
549.61357,0.13560
551.54204,0.34574
553.47051,0.44679
555.39897,0.32284
557.32744,0.12652
559.25591,0.05406
561.18438,0.06287
563.11285,0.04998
565.04132,0.03252
566.96979,0.06856
568.89825,0.12497
570.82672,0.13285
572.75519,0.08596
574.68366,0.01701
576.61213,-0.03081
578.54060,-0.04283
580.46907,-0.02059
582.39754,0.01883
584.32600,0.03429
586.25447,0.04139
588.18294,0.07794
590.11141,0.10074
592.03988,0.06300
593.96835,0.03092
595.89682,0.05403
597.82528,0.08887
599.75375,0.10088
601.68222,0.06890
603.61069,0.02460
605.53916,0.03456
607.46763,0.07542
609.39610,0.09905
611.32456,0.09528
613.25303,0.07473
615.18150,0.06005
617.10997,0.05198
619.03844,0.04798
620.96691,0.03991
622.89538,0.02736
624.82385,0.04121
626.75231,0.08637
628.68078,0.12533
630.60925,0.11598
632.53772,0.07056
634.46619,0.05138
636.39466,0.07798
638.32313,0.10071
640.25159,0.07679
642.18006,0.03520
644.10853,0.02309
646.03700,0.04558
647.96547,0.08208
649.89394,0.09889
651.82241,0.07881
653.75088,0.05392
655.67934,0.05240
657.60781,0.05311
659.53628,0.04327
661.46475,0.03457
663.39322,0.03748
665.32169,0.05812
667.25016,0.08999
669.17862,0.08779
671.10709,0.05393
673.03556,0.03985
674.96403,0.04454
676.89250,0.05713
678.82097,0.06439
680.74944,0.05235
682.67791,0.03581
684.60637,0.04697
686.53484,0.07948
688.46331,0.08838
690.39178,0.06894
692.32025,0.06159
694.24872,0.07504
696.17719,0.08270
698.10565,0.07177
700.03412,0.05196
701.96259,0.04698
703.89106,0.06840
705.81953,0.08946
707.74800,0.08723
709.67647,0.07450
711.60494,0.07686
713.53340,0.09335
715.46187,0.09344
717.39034,0.07569
719.31881,0.06762
721.24728,0.07322
723.17575,0.08062
725.10422,0.08153
727.03268,0.07210
728.96115,0.06214
730.88962,0.06503
732.81809,0.08460
734.74656,0.10134
736.67503,0.09051
738.60350,0.06473
740.53197,0.05837
742.46043,0.07632
744.38890,0.08860
746.31737,0.08556
748.24584,0.08090
750.17431,0.07883
752.10278,0.08734
754.03125,0.10028
755.95971,0.09407
757.88818,0.07364
759.81665,0.06300
761.74512,0.06656
763.67359,0.07121
765.60206,0.06677
767.53053,0.05500
769.45900,0.04892
771.38746,0.05880
773.31593,0.07186
775.24440,0.07417
777.17287,0.06506
779.10134,0.04955
781.02981,0.05218
782.95828,0.07757
784.88674,0.09229
786.81521,0.08173
788.74368,0.06516
790.67215,0.06611
792.60062,0.08099
794.52909,0.09041
796.45756,0.08257
798.38602,0.06425
800.31449,0.06422
802.24296,0.08887
804.17143,0.10457
806.09990,0.09416
808.02837,0.07806
809.95684,0.07561
811.88531,0.08422
813.81377,0.08973
815.74224,0.07824
817.67071,0.06716
819.59918,0.07962
821.52765,0.09836
823.45612,0.10356
825.38459,0.09862
827.31305,0.08774
829.24152,0.07483
831.16999,0.06267
833.09846,0.04926
835.02693,0.04629
836.95540,0.05800
838.88387,0.06668
840.81234,0.06819
842.74080,0.06649
844.66927,0.06635
846.59774,0.07704
848.52621,0.09110
850.45468,0.09451
852.38315,0.08794
854.31162,0.07988
856.24008,0.07541
858.16855,0.07007
860.09702,0.06728
862.02549,0.07583
863.95396,0.07945
865.88243,0.07072
867.81090,0.06760
869.73937,0.07444
871.66783,0.07927
873.59630,0.07192
875.52477,0.06653
877.45324,0.07646
879.38171,0.08516
881.31018,0.08624
883.23865,0.08415
885.16711,0.07808
887.09558,0.07923
889.02405,0.09182
890.95252,0.09997
892.88099,0.09345
894.80946,0.07970
896.73793,0.07220
898.66640,0.07753
900.59486,0.08805
902.52333,0.08795
904.45180,0.08124
906.38027,0.08630
908.30874,0.10286
910.23721,0.11551
912.16568,0.11256
914.09414,0.10125
916.02261,0.09997
917.95108,0.10584
919.87955,0.09921
921.80802,0.08044
923.73649,0.06680
925.66496,0.06593
927.59343,0.07837
929.52189,0.09230
931.45036,0.08855
933.37883,0.07227
935.30730,0.06152
937.23577,0.06503
939.16424,0.07748
941.09271,0.07989
943.02117,0.07129
944.94964,0.07046
946.87811,0.08177
948.80658,0.09543
950.73505,0.10230
952.66352,0.10386
954.59199,0.10376
956.52045,0.09733
958.44892,0.08846
960.37739,0.08764
962.30586,0.09263
964.23433,0.09585
966.16280,0.09647
968.09127,0.09417
970.01974,0.08707
971.94820,0.07805
973.87667,0.07408
975.80514,0.08278
977.73361,0.09796
979.66208,0.09932
981.59055,0.08460
983.51902,0.06836
985.44748,0.06063
987.37595,0.06685
989.30442,0.07851
991.23289,0.08471
993.16136,0.08979
995.08983,0.09722
997.01830,0.09990
998.94677,0.09450
1000.87523,0.09065
1002.80370,0.09257
1004.73217,0.09704
1006.66064,0.10426
1008.58911,0.10520
1010.51758,0.09306
1012.44605,0.08311
1014.37451,0.08794
1016.30298,0.09663
1018.23145,0.09828
1020.15992,0.09596
1022.08839,0.09236
1024.01686,0.08885
1025.94533,0.08786
1027.87380,0.08918
1029.80226,0.08787
1031.73073,0.08329
1033.65920,0.08465
1035.58767,0.08996
1037.51614,0.08844
1039.44461,0.08319
1041.37308,0.08331
1043.30154,0.08950
1045.23001,0.09445
1047.15848,0.09456
1049.08695,0.09552
1051.01542,0.10105
1052.94389,0.10295
1054.87236,0.09397
1056.80083,0.08531
1058.72929,0.08390
1060.65776,0.08328
1062.58623,0.08476
1064.51470,0.09091
1066.44317,0.09570
1068.37164,0.09418
1070.30011,0.09458
1072.22857,0.09857
1074.15704,0.09555
1076.08551,0.09257
1078.01398,0.09562
1079.94245,0.10235
1081.87092,0.11466
1083.79939,0.12165
1085.72786,0.11479
1087.65632,0.10378
1089.58479,0.09619
1091.51326,0.08855
1093.44173,0.08297
1095.37020,0.08630
1097.29867,0.09278
1099.22714,0.10091
1101.15560,0.11239
1103.08407,0.11392
1105.01254,0.10227
1106.94101,0.09034
1108.86948,0.08902
1110.79795,0.09667
1112.72642,0.09938
1114.65489,0.09390
1116.58335,0.09230
1118.51182,0.09940
1120.44029,0.10377
1122.36876,0.09980
1124.29723,0.09501
1126.22570,0.09219
1128.15417,0.09203
1130.08263,0.09208
1132.01110,0.08853
1133.93957,0.08717
1135.86804,0.08843
1137.79651,0.08884
1139.72498,0.09347
1141.65345,0.10246
1143.58191,0.10670
1145.51038,0.10315
1147.43885,0.09873
1149.36732,0.09434
1151.29579,0.08862
1153.22426,0.09098
1155.15273,0.10154
1157.08120,0.10713
1159.00966,0.10594
1160.93813,0.10376
1162.86660,0.10255
1164.79507,0.09988
1166.72354,0.09270
1168.65201,0.08857
1170.58048,0.09079
1172.50894,0.09099
1174.43741,0.08917
1176.36588,0.08879
1178.29435,0.09007
1180.22282,0.09503
1182.15129,0.10082
1184.07976,0.10135
1186.00823,0.09708
1187.93669,0.09347
1189.86516,0.09378
1191.79363,0.09813
1193.72210,0.10547
1195.65057,0.11108
1197.57904,0.10841
1199.50751,0.09976
1201.43597,0.09339
1203.36444,0.09330
1205.29291,0.09802
1207.22138,0.10168
1209.14985,0.10269
1211.07832,0.10208
1213.00679,0.09881
1214.93526,0.09695
1216.86372,0.09883
1218.79219,0.10009
1220.72066,0.09739
1222.64913,0.09371
1224.57760,0.09531
1226.50607,0.10080
1228.43454,0.10364
1230.36300,0.10079
1232.29147,0.09425
1234.21994,0.09076
1236.14841,0.09288
1238.07688,0.09664
1240.00535,0.10023
1241.93382,0.10275
1243.86229,0.10259
1245.79075,0.10162
1247.71922,0.10063
1249.64769,0.09892
1251.57616,0.09873
1253.50463,0.09977
1255.43310,0.10091
1257.36157,0.10063
1259.29003,0.09430
1261.21850,0.08764
1263.14697,0.09004
1265.07544,0.09569
1267.00391,0.09623
1268.93238,0.09325
1270.86085,0.09391
1272.78932,0.09930
1274.71778,0.10124
1276.64625,0.09863
1278.57472,0.09597
1280.50319,0.09213
1282.43166,0.09106
1284.36013,0.09632
1286.28860,0.09846
1288.21706,0.09425
1290.14553,0.09320
1292.07400,0.09879
1294.00247,0.10401
1295.93094,0.10076
1297.85941,0.08881
1299.78788,0.07413
1301.71634,0.06001
1303.64481,0.05013
1305.57328,0.05557
1307.50175,0.07558
1309.43022,0.08986
1311.35869,0.09352
1313.28716,0.09710
1315.21563,0.09924
1317.14409,0.09765
1319.07256,0.09717
1321.00103,0.09902
1322.92950,0.10031
1324.85797,0.09637
1326.78644,0.08800
1328.71491,0.08541
1330.64337,0.08859
1332.57184,0.09012
1334.50031,0.08978
1336.42878,0.08669
1338.35725,0.08348
1340.28572,0.08257
1342.21419,0.08370
1344.14266,0.08633
1346.07112,0.08392
1347.99959,0.08038
1349.92806,0.08396
1351.85653,0.09014
1353.78500,0.09208
1355.71347,0.09129
1357.64194,0.09224
1359.57040,0.09448
1361.49887,0.09892
1363.42734,0.10092
1365.35581,0.09769
1367.28428,0.09959
1369.21275,0.10720
1371.14122,0.11183
1373.06969,0.11072
1374.99815,0.10671
1376.92662,0.10453
1378.85509,0.10647
1380.78356,0.11135
1382.71203,0.11559
1384.64050,0.11576
1386.56897,0.11170
1388.49743,0.10731
1390.42590,0.10765
1392.35437,0.11447
1394.28284,0.12056
1396.21131,0.11661
1398.13978,0.11154
1400.06825,0.11226
1401.99672,0.11173
1403.92518,0.10618
1405.85365,0.10171
1407.78212,0.10381
1409.71059,0.10839
1411.63906,0.11035
1413.56753,0.10737
1415.49600,0.10372
1417.42446,0.10496
1419.35293,0.10865
1421.28140,0.10789
1423.20987,0.10149
1425.13834,0.09535
1427.06681,0.09867
1428.99528,0.10877
1430.92375,0.11462
1432.85221,0.11170
1434.78068,0.10727
1436.70915,0.10864
1438.63762,0.11380
1440.56609,0.11610
1442.49456,0.11476
1444.42303,0.11403
1446.35149,0.11591
1448.27996,0.11623
1450.20843,0.11474
1452.13690,0.11364
1454.06537,0.11459
1455.99384,0.11998
1457.92231,0.12235
1459.85077,0.11658
1461.77924,0.11404
1463.70771,0.11350
1465.63618,0.10929
1467.56465,0.10671
1469.49312,0.11090
1471.42159,0.11685
1473.35006,0.11437
1475.27852,0.10663
1477.20699,0.10460
1479.13546,0.10763
1481.06393,0.11078
1482.99240,0.11079
1484.92087,0.11162
1486.84934,0.11783
1488.77780,0.12306
1490.70627,0.11959
1492.63474,0.11681
1494.56321,0.11924
1496.49168,0.12318
1498.42015,0.12138
1500.34862,0.11743
1502.27709,0.11753
1504.20555,0.12049
1506.13402,0.13023
1508.06249,0.13951
1509.99096,0.13297
1511.91943,0.12415
1513.84790,0.11916
1515.77637,0.12015
1517.70483,0.12521
1519.63330,0.13192
1521.56177,0.13620
1523.49024,0.13093
1525.41871,0.12571
1527.34718,0.12418
1529.27565,0.12218
1531.20412,0.11840
1533.13258,0.11327
1535.06105,0.11427
1536.98952,0.12418
1538.91799,0.13793
1540.84646,0.13856
1542.77493,0.12596
1544.70340,0.12122
1546.63186,0.12052
1548.56033,0.11969
1550.48880,0.11690
1552.41727,0.11547
1554.34574,0.12030
1556.27421,0.12947
1558.20268,0.13904
1560.13115,0.13174
1562.05961,0.11955
1563.98808,0.11496
1565.91655,0.11586
1567.84502,0.11807
1569.77349,0.11396
1571.70196,0.10716
1573.63043,0.10713
1575.55889,0.11100
1577.48736,0.11081
1579.41583,0.10893
1581.34430,0.10990
1583.27277,0.11222
1585.20124,0.11302
1587.12971,0.11085
1589.05818,0.10912
1590.98664,0.11050
1592.91511,0.11381
1594.84358,0.11720
1596.77205,0.11693
1598.70052,0.11362
1600.62899,0.11122
1602.55746,0.11110
1604.48592,0.11222
1606.41439,0.11252
1608.34286,0.11209
1610.27133,0.11261
1612.19980,0.11472
1614.12827,0.11811
1616.05674,0.12261
1617.98521,0.12239
1619.91367,0.11716
1621.84214,0.11605
1623.77061,0.12085
1625.69908,0.12487
1627.62755,0.12500
1629.55602,0.11923
1631.48449,0.11261
1633.41295,0.11480
1635.34142,0.12492
1637.26989,0.12295
1639.19836,0.11346
1641.12683,0.10910
1643.05530,0.11229
1644.98377,0.12509
1646.91223,0.13797
1648.84070,0.13411
1650.76917,0.12938
1652.69764,0.13159
1654.62611,0.12874
1656.55458,0.12248
1658.48305,0.11383
1660.41152,0.09779
1662.33998,0.08901
1664.26845,0.10308
1666.19692,0.11988
1668.12539,0.13029
1670.05386,0.13232
1671.98233,0.12665
1673.91080,0.12409
1675.83926,0.12184
1677.76773,0.11788
1679.69620,0.11793
1681.62467,0.12495
1683.55314,0.13695
1685.48161,0.13388
1687.41008,0.12047
1689.33855,0.11354
1691.26701,0.11375
1693.19548,0.11798
1695.12395,0.12334
1697.05242,0.12698
1698.98089,0.12948
1700.90936,0.12837
1702.83783,0.12434
1704.76629,0.12119
1706.69476,0.11654
1708.62323,0.11222
1710.55170,0.11130
1712.48017,0.11376
1714.40864,0.11789
1716.33711,0.12098
1718.26558,0.12099
1720.19404,0.11824
1722.12251,0.11391
1724.05098,0.10818
1725.97945,0.10403
1727.90792,0.10524
1729.83639,0.11058
1731.76486,0.11497
1733.69332,0.11387
1735.62179,0.10863
1737.55026,0.10623
1739.47873,0.10837
1741.40720,0.11364
1743.33567,0.11735
1745.26414,0.11961
1747.19261,0.12204
1749.12107,0.12209
1751.04954,0.11914
1752.97801,0.11764
1754.90648,0.11841
1756.83495,0.11903
1758.76342,0.11805
1760.69189,0.11842
1762.62035,0.11950
1764.54882,0.11738
1766.47729,0.11558
1768.40576,0.11694
1770.33423,0.11927
1772.26270,0.11909
1774.19117,0.11465
1776.11964,0.11071
1778.04810,0.11093
1779.97657,0.11367
1781.90504,0.11535
1783.83351,0.11472
1785.76198,0.11179
1787.69045,0.10974
1789.61892,0.11076
1791.54738,0.11324
1793.47585,0.11373
1795.40432,0.11067
1797.33279,0.10925
1799.26126,0.11277
1801.18973,0.11616
1803.11820,0.11385
1805.04666,0.10940
1806.97513,0.10845
1808.90360,0.11109
1810.83207,0.11263
1812.76054,0.11078
1814.68901,0.10844
1816.61748,0.10772
1818.54595,0.10893
1820.47441,0.11284
1822.40288,0.11800
1824.33135,0.12011
1826.25982,0.11866
1828.18829,0.11886
1830.11676,0.12011
1832.04523,0.11688
1833.97369,0.11332
1835.90216,0.11418
1837.83063,0.11593
1839.75910,0.11657
1841.68757,0.11764
1843.61604,0.11781
1845.54451,0.11645
1847.47298,0.11398
1849.40144,0.11119
1851.32991,0.10979
1853.25838,0.11043
1855.18685,0.11205
1857.11532,0.11220
1859.04379,0.11099
1860.97226,0.10966
1862.90072,0.10846
1864.82919,0.10909
1866.75766,0.11175
1868.68613,0.11244
1870.61460,0.10964
1872.54307,0.10858
1874.47154,0.11001
1876.40001,0.11050
1878.32847,0.10980
1880.25694,0.10976
1882.18541,0.11114
1884.11388,0.11196
1886.04235,0.10979
1887.97082,0.10865
1889.89929,0.11168
1891.82775,0.11444
1893.75622,0.11443
1895.68469,0.11345
1897.61316,0.11283
1899.54163,0.11201
1901.47010,0.11106
1903.39857,0.11036
1905.32704,0.11045
1907.25550,0.11258
1909.18397,0.11437
1911.11244,0.11279
1913.04091,0.11090
1914.96938,0.11150
1916.89785,0.11223
1918.82632,0.11136
1920.75478,0.11135
1922.68325,0.11152
1924.61172,0.10948
1926.54019,0.10863
1928.46866,0.11021
1930.39713,0.11036
1932.32560,0.10809
1934.25407,0.10599
1936.18253,0.10710
1938.11100,0.11052
1940.03947,0.11306
1941.96794,0.11409
1943.89641,0.11277
1945.82488,0.11114
1947.75335,0.11169
1949.68181,0.11159
1951.61028,0.11028
1953.53875,0.11023
1955.46722,0.11091
1957.39569,0.11091
1959.32416,0.11030
1961.25263,0.11065
1963.18110,0.11268
1965.10956,0.11375
1967.03803,0.11232
1968.96650,0.11087
1970.89497,0.11009
1972.82344,0.10827
1974.75191,0.10652
1976.68038,0.10732
1978.60884,0.10947
1980.53731,0.10912
1982.46578,0.10651
1984.39425,0.10585
1986.32272,0.10837
1988.25119,0.11094
1990.17966,0.11038
1992.10812,0.10816
1994.03659,0.10762
1995.96506,0.10810
1997.89353,0.10839
1999.82200,0.10942
2001.75047,0.11155
2003.67894,0.11431
2005.60741,0.11649
2007.53587,0.11714
2009.46434,0.11739
2011.39281,0.11775
2013.32128,0.11767
2015.24975,0.11774
2017.17822,0.11839
2019.10669,0.11768
2021.03515,0.11495
2022.96362,0.11373
2024.89209,0.11538
2026.82056,0.11647
2028.74903,0.11553
2030.67750,0.11483
2032.60597,0.11494
2034.53444,0.11437
2036.46290,0.11247
2038.39137,0.11030
2040.31984,0.10925
2042.24831,0.10883
2044.17678,0.10929
2046.10525,0.11078
2048.03372,0.11151
2049.96218,0.11154
2051.89065,0.11128
2053.81912,0.11085
2055.74759,0.11169
2057.67606,0.11329
2059.60453,0.11433
2061.53300,0.11459
2063.46147,0.11451
2065.38993,0.11492
2067.31840,0.11355
2069.24687,0.11021
2071.17534,0.10977
2073.10381,0.11245
2075.03228,0.11457
2076.96075,0.11599
2078.88921,0.11743
2080.81768,0.11747
2082.74615,0.11638
2084.67462,0.11672
2086.60309,0.11894
2088.53156,0.12058
2090.46003,0.11958
2092.38850,0.11729
2094.31696,0.11702
2096.24543,0.11914
2098.17390,0.11977
2100.10237,0.11717
2102.03084,0.11425
2103.95931,0.11193
2105.88778,0.11030
2107.81624,0.11144
2109.74471,0.11368
2111.67318,0.11339
2113.60165,0.11224
2115.53012,0.11326
2117.45859,0.11469
2119.38706,0.11384
2121.31553,0.11114
2123.24399,0.10871
2125.17246,0.10832
2127.10093,0.10925
2129.02940,0.10992
2130.95787,0.11059
2132.88634,0.11124
2134.81481,0.11164
2136.74327,0.11198
2138.67174,0.11163
2140.60021,0.11063
2142.52868,0.11080
2144.45715,0.11294
2146.38562,0.11364
2148.31409,0.11129
2150.24255,0.11068
2152.17102,0.11371
2154.09949,0.11695
2156.02796,0.11909
2157.95643,0.11941
2159.88490,0.11700
2161.81337,0.11507
2163.74184,0.11670
2165.67030,0.12043
2167.59877,0.12208
2169.52724,0.12037
2171.45571,0.11891
2173.38418,0.11901
2175.31265,0.11916
2177.24112,0.11837
2179.16958,0.11527
2181.09805,0.11231
2183.02652,0.11328
2184.95499,0.11451
2186.88346,0.11220
2188.81193,0.10898
2190.74040,0.10724
2192.66887,0.10840
2194.59733,0.11048
2196.52580,0.10877
2198.45427,0.10680
2200.38274,0.10949
2202.31121,0.11332
2204.23968,0.11553
2206.16815,0.11581
2208.09661,0.11396
2210.02508,0.11275
2211.95355,0.11345
2213.88202,0.11462
2215.81049,0.11465
2217.73896,0.11287
2219.66743,0.11093
2221.59590,0.11198
2223.52436,0.11580
2225.45283,0.11725
2227.38130,0.11583
2229.30977,0.11455
2231.23824,0.11331
2233.16671,0.11356
2235.09518,0.11497
2237.02364,0.11455
2238.95211,0.11284
2240.88058,0.11193
2242.80905,0.11341
2244.73752,0.11480
2246.66599,0.11227
2248.59446,0.11002
2250.52293,0.11218
2252.45139,0.11547
2254.37986,0.11724
2256.30833,0.11661
2258.23680,0.11384
2260.16527,0.11216
2262.09374,0.11278
2264.02221,0.11375
2265.95067,0.11434
2267.87914,0.11417
2269.80761,0.11224
2271.73608,0.11008
2273.66455,0.10993
2275.59302,0.11197
2277.52149,0.11418
2279.44996,0.11323
2281.37842,0.11021
2283.30689,0.10938
2285.23536,0.11113
2287.16383,0.11423
2289.09230,0.11819
2291.02077,0.12040
2292.94924,0.11841
2294.87770,0.11461
2296.80617,0.11219
2298.73464,0.11101
2300.66311,0.11015
2302.59158,0.11012
2304.52005,0.11183
2306.44852,0.11203
2308.37699,0.10995
2310.30545,0.11096
2312.23392,0.11388
2314.16239,0.11250
2316.09086,0.10848
2318.01933,0.11056
2319.94780,0.11682
2321.87627,0.11567
2323.80473,0.11143
2325.73320,0.11015
2327.66167,0.10490
2329.59014,0.09832
2331.51861,0.09666
2333.44708,0.09693
2335.37555,0.10270
2337.30401,0.11254
2339.23248,0.11223
2341.16095,0.10548
2343.08942,0.10605
2345.01789,0.10615
2346.94636,0.09933
2348.87483,0.09636
2350.80330,0.10075
2352.73176,0.10606
2354.66023,0.10771
2356.58870,0.11316
2358.51717,0.11541
2360.44564,0.10084
2362.37411,0.08928
2364.30258,0.09265
2366.23104,0.09851
2368.15951,0.10629
2370.08798,0.11346
2372.01645,0.11275
2373.94492,0.10835
2375.87339,0.10629
2377.80186,0.10863
2379.73033,0.11418
2381.65879,0.11743
2383.58726,0.11536
2385.51573,0.11258
2387.44420,0.11289
2389.37267,0.11318
2391.30114,0.11122
2393.22961,0.10892
2395.15807,0.10917
2397.08654,0.11324
2399.01501,0.11651
2400.94348,0.11576
2402.87195,0.11464
2404.80042,0.11588
2406.72889,0.11804
2408.65736,0.11849
2410.58582,0.11696
2412.51429,0.11489
2414.44276,0.11417
2416.37123,0.11544
2418.29970,0.11682
2420.22817,0.11834
2422.15664,0.11986
2424.08510,0.11913
2426.01357,0.11662
2427.94204,0.11528
2429.87051,0.11471
2431.79898,0.11233
2433.72745,0.11142
2435.65592,0.11393
2437.58439,0.11514
2439.51285,0.11432
2441.44132,0.11375
2443.36979,0.11362
2445.29826,0.11487
2447.22673,0.11669
2449.15520,0.11546
2451.08367,0.11232
2453.01213,0.11164
2454.94060,0.11352
2456.86907,0.11573
2458.79754,0.11676
2460.72601,0.11591
2462.65448,0.11426
2464.58295,0.11416
2466.51142,0.11558
2468.43988,0.11717
2470.36835,0.11854
2472.29682,0.11914
2474.22529,0.11912
2476.15376,0.11932
2478.08223,0.11964
2480.01070,0.11863
2481.93916,0.11656
2483.86763,0.11558
2485.79610,0.11647
2487.72457,0.11846
2489.65304,0.11962
2491.58151,0.11910
2493.50998,0.11805
2495.43844,0.11687
2497.36691,0.11555
2499.29538,0.11557
2501.22385,0.11646
2503.15232,0.11747
2505.08079,0.12036
2507.00926,0.12203
2508.93773,0.11915
2510.86619,0.11597
2512.79466,0.11577
2514.72313,0.11677
2516.65160,0.11619
2518.58007,0.11336
2520.50854,0.11024
2522.43701,0.10932
2524.36547,0.11112
2526.29394,0.11320
2528.22241,0.11453
2530.15088,0.11683
2532.07935,0.11882
2534.00782,0.11834
2535.93629,0.11759
2537.86476,0.11908
2539.79322,0.12070
2541.72169,0.12034
2543.65016,0.11974
2545.57863,0.11928
2547.50710,0.11874
2549.43557,0.11922
2551.36404,0.11967
2553.29250,0.11820
2555.22097,0.11589
2557.14944,0.11442
2559.07791,0.11409
2561.00638,0.11562
2562.93485,0.11672
2564.86332,0.11602
2566.79179,0.11695
2568.72025,0.11895
2570.64872,0.11877
2572.57719,0.11686
2574.50566,0.11523
2576.43413,0.11368
2578.36260,0.11137
2580.29107,0.10932
2582.21953,0.10930
2584.14800,0.11168
2586.07647,0.11424
2588.00494,0.11538
2589.93341,0.11573
2591.86188,0.11609
2593.79035,0.11705
2595.71882,0.11819
2597.64728,0.11797
2599.57575,0.11708
2601.50422,0.11798
2603.43269,0.12012
2605.36116,0.12031
2607.28963,0.11880
2609.21810,0.11893
2611.14656,0.12036
2613.07503,0.12111
2615.00350,0.12105
2616.93197,0.11931
2618.86044,0.11563
2620.78891,0.11256
2622.71738,0.11261
2624.64585,0.11516
2626.57431,0.11766
2628.50278,0.11774
2630.43125,0.11699
2632.35972,0.11987
2634.28819,0.12384
2636.21666,0.12298
2638.14513,0.11818
2640.07359,0.11421
2642.00206,0.11406
2643.93053,0.11662
2645.85900,0.11964
2647.78747,0.12175
2649.71594,0.12153
2651.64441,0.11957
2653.57288,0.11830
2655.50134,0.12043
2657.42981,0.12409
2659.35828,0.12423
2661.28675,0.12258
2663.21522,0.12265
2665.14369,0.12187
2667.07216,0.11856
2669.00062,0.11623
2670.92909,0.11722
2672.85756,0.11787
2674.78603,0.11536
2676.71450,0.11310
2678.64297,0.11476
2680.57144,0.11828
2682.49990,0.12010
2684.42837,0.12144
2686.35684,0.12329
2688.28531,0.12247
2690.21378,0.12077
2692.14225,0.12351
2694.07072,0.12727
2695.99919,0.12595
2697.92765,0.12171
2699.85612,0.11844
2701.78459,0.11732
2703.71306,0.11922
2705.64153,0.12278
2707.57000,0.12494
2709.49847,0.12448
2711.42693,0.12388
2713.35540,0.12356
2715.28387,0.12015
2717.21234,0.11641
2719.14081,0.11941
2721.06928,0.12575
2722.99775,0.12634
2724.92622,0.12364
2726.85468,0.12353
2728.78315,0.12513
2730.71162,0.12637
2732.64009,0.12542
2734.56856,0.12267
2736.49703,0.11985
2738.42550,0.11909
2740.35396,0.12124
2742.28243,0.12368
2744.21090,0.12413
2746.13937,0.12226
2748.06784,0.12077
2749.99631,0.12054
2751.92478,0.11825
2753.85325,0.11474
2755.78171,0.11457
2757.71018,0.11759
2759.63865,0.12041
2761.56712,0.12121
2763.49559,0.12001
2765.42406,0.12014
2767.35253,0.12346
2769.28099,0.12640
2771.20946,0.12694
2773.13793,0.12756
2775.06640,0.13010
2776.99487,0.13251
2778.92334,0.13269
2780.85181,0.13042
2782.78028,0.12614
2784.70874,0.12183
2786.63721,0.12102
2788.56568,0.12565
2790.49415,0.12960
2792.42262,0.12751
2794.35109,0.12635
2796.27956,0.12843
2798.20802,0.12802
2800.13649,0.12717
2802.06496,0.12711
2803.99343,0.12638
2805.92190,0.12789
2807.85037,0.12905
2809.77884,0.12720
2811.70731,0.12665
2813.63577,0.12815
2815.56424,0.12758
2817.49271,0.12347
2819.42118,0.12026
2821.34965,0.12140
2823.27812,0.12400
2825.20659,0.12566
2827.13505,0.12599
2829.06352,0.12449
2830.99199,0.12274
2832.92046,0.12196
2834.84893,0.12132
2836.77740,0.12211
2838.70587,0.12566
2840.63433,0.12921
2842.56280,0.12817
2844.49127,0.12360
2846.41974,0.12279
2848.34821,0.12577
2850.27668,0.12767
2852.20515,0.12746
2854.13362,0.12573
2856.06208,0.12659
2857.99055,0.13029
2859.91902,0.13241
2861.84749,0.13093
2863.77596,0.12483
2865.70443,0.11895
2867.63290,0.11968
2869.56136,0.12421
2871.48983,0.12600
2873.41830,0.12430
2875.34677,0.12261
2877.27524,0.12262
2879.20371,0.12457
2881.13218,0.12630
2883.06065,0.12385
2884.98911,0.11912
2886.91758,0.11816
2888.84605,0.12223
2890.77452,0.12761
2892.70299,0.13026
2894.63146,0.12758
2896.55993,0.12337
2898.48839,0.12535
2900.41686,0.13095
2902.34533,0.13071
2904.27380,0.12558
2906.20227,0.12469
2908.13074,0.12923
2910.05921,0.13169
2911.98768,0.13001
2913.91614,0.12517
2915.84461,0.11784
2917.77308,0.11676
2919.70155,0.12295
2921.63002,0.12655
2923.55849,0.12440
2925.48696,0.11746
2927.41542,0.11426
2929.34389,0.12065
2931.27236,0.12608
2933.20083,0.12443
2935.12930,0.11629
2937.05777,0.10526
2938.98624,0.10285
2940.91471,0.11007
2942.84317,0.11844
2944.77164,0.12038
2946.70011,0.11237
2948.62858,0.10820
2950.55705,0.11642
2952.48552,0.12507
2954.41399,0.12701
2956.34245,0.12076
2958.27092,0.11428
2960.19939,0.12047
2962.12786,0.13123
2964.05633,0.13370
2965.98480,0.12598
2967.91327,0.11298
2969.84174,0.10878
2971.77020,0.11611
2973.69867,0.12240
2975.62714,0.12076
2977.55561,0.11518
2979.48408,0.11636
2981.41255,0.12500
2983.34102,0.13193
2985.26948,0.13262
2987.19795,0.12599
2989.12642,0.12093
2991.05489,0.12459
2992.98336,0.12860
2994.91183,0.13008
2996.84030,0.12987
2998.76877,0.12576
3000.69723,0.12488
3002.62570,0.13062
3004.55417,0.13159
3006.48264,0.12237
3008.41111,0.11192
3010.33958,0.10169
3012.26805,0.08370
3014.19651,0.05856
3016.12498,0.04013
3018.05345,0.05054
3019.98192,0.08865
3021.91039,0.12188
3023.83886,0.13297
3025.76733,0.13036
3027.69579,0.12530
3029.62426,0.12342
3031.55273,0.12275
3033.48120,0.12317
3035.40967,0.12568
3037.33814,0.12583
3039.26661,0.12555
3041.19508,0.12775
3043.12354,0.12806
3045.05201,0.12500
3046.98048,0.12187
3048.90895,0.12260
3050.83742,0.12693
3052.76589,0.13116
3054.69436,0.13083
3056.62282,0.12624
3058.55129,0.12478
3060.47976,0.12565
3062.40823,0.12246
3064.33670,0.11512
3066.26517,0.10911
3068.19364,0.11247
3070.12211,0.12349
3072.05057,0.13081
3073.97904,0.12695
3075.90751,0.11683
3077.83598,0.11525
3079.76445,0.12528
3081.69292,0.13225
3083.62139,0.12531
3085.54985,0.11509
3087.47832,0.11760
3089.40679,0.12702
3091.33526,0.13070
3093.26373,0.12634
3095.19220,0.11833
3097.12067,0.11546
3099.04914,0.12040
3100.97760,0.12293
3102.90607,0.11425
3104.83454,0.10803
3106.76301,0.11461
3108.69148,0.12034
3110.61995,0.11675
3112.54842,0.11053
3114.47688,0.11097
3116.40535,0.11799
3118.33382,0.12450
3120.26229,0.12563
3122.19076,0.12340
3124.11923,0.12467
3126.04770,0.12742
3127.97617,0.12542
3129.90463,0.11904
3131.83310,0.11709
3133.76157,0.12398
3135.69004,0.12853
3137.61851,0.12428
3139.54698,0.12038
3141.47545,0.12440
3143.40391,0.13114
3145.33238,0.13347
3147.26085,0.12922
3149.18932,0.12224
3151.11779,0.12198
3153.04626,0.12854
3154.97473,0.13107
3156.90320,0.12731
3158.83166,0.12592
3160.76013,0.13021
3162.68860,0.13626
3164.61707,0.13943
3166.54554,0.13877
3168.47401,0.13896
3170.40248,0.14021
3172.33094,0.13764
3174.25941,0.13288
3176.18788,0.12954
3178.11635,0.12536
3180.04482,0.12399
3181.97329,0.13297
3183.90176,0.14488
3185.83022,0.14683
3187.75869,0.14034
3189.68716,0.13733
3191.61563,0.13974
3193.54410,0.13799
3195.47257,0.13208
3197.40104,0.12859
3199.32951,0.12807
3201.25797,0.12930
3203.18644,0.12927
3205.11491,0.12889
3207.04338,0.13156
3208.97185,0.13413
3210.90032,0.13390
3212.82879,0.13331
3214.75725,0.13595
3216.68572,0.13876
3218.61419,0.13783
3220.54266,0.14022
3222.47113,0.14697
3224.39960,0.14591
3226.32807,0.13776
3228.25654,0.13519
3230.18500,0.13678
3232.11347,0.13549
3234.04194,0.13363
3235.97041,0.13244
3237.89888,0.13080
3239.82735,0.13027
3241.75582,0.12897
3243.68428,0.12503
3245.61275,0.12537
3247.54122,0.13312
3249.46969,0.14025
3251.39816,0.14168
3253.32663,0.13626
3255.25510,0.12621
3257.18357,0.12165
3259.11203,0.12714
3261.04050,0.13665
3262.96897,0.14233
3264.89744,0.14080
3266.82591,0.13668
3268.75438,0.13482
3270.68285,0.13321
3272.61131,0.12962
3274.53978,0.12765
3276.46825,0.13019
3278.39672,0.13515
3280.32519,0.13842
3282.25366,0.13686
3284.18213,0.13227
3286.11060,0.12772
3288.03906,0.12529
3289.96753,0.12592
3291.89600,0.12810
3293.82447,0.13135
3295.75294,0.13388
3297.68141,0.13258
3299.60988,0.12827
3301.53834,0.12552
3303.46681,0.12698
3305.39528,0.13076
3307.32375,0.13413
3309.25222,0.13529
3311.18069,0.13327
3313.10916,0.13063
3315.03763,0.13168
3316.96609,0.13606
3318.89456,0.14088
3320.82303,0.14336
3322.75150,0.13946
3324.67997,0.13181
3326.60844,0.12933
3328.53691,0.13303
3330.46537,0.13483
3332.39384,0.13085
3334.32231,0.12841
3336.25078,0.13222
3338.17925,0.13443
3340.10772,0.13098
3342.03619,0.12773
3343.96466,0.12896
3345.89312,0.13381
3347.82159,0.13696
3349.75006,0.13626
3351.67853,0.13466
3353.60700,0.13264
3355.53547,0.12987
3357.46394,0.12849
3359.39240,0.12892
3361.32087,0.13174
3363.24934,0.13739
3365.17781,0.13985
3367.10628,0.13709
3369.03475,0.13485
3370.96322,0.13206
3372.89168,0.12569
3374.82015,0.11981
3376.74862,0.11945
3378.67709,0.12478
3380.60556,0.13000
3382.53403,0.12985
3384.46250,0.12766
3386.39097,0.13041
3388.31943,0.13613
3390.24790,0.13664
3392.17637,0.13171
3394.10484,0.12940
3396.03331,0.13302
3397.96178,0.13743
3399.89025,0.13903
3401.81871,0.13885
3403.74718,0.13816
3405.67565,0.13610
3407.60412,0.13076
3409.53259,0.12629
3411.46106,0.12755
3413.38953,0.13006
3415.31800,0.13017
3417.24646,0.13009
3419.17493,0.12959
3421.10340,0.12886
3423.03187,0.12958
3424.96034,0.12771
3426.88881,0.12331
3428.81728,0.12117
3430.74574,0.12108
3432.67421,0.12314
3434.60268,0.12675
3436.53115,0.12795
3438.45962,0.12726
3440.38809,0.12753
3442.31656,0.12799
3444.24503,0.12839
3446.17349,0.12793
3448.10196,0.12505
3450.03043,0.12310
3451.95890,0.12433
3453.88737,0.12655
3455.81584,0.12700
3457.74431,0.12690
3459.67277,0.12790
3461.60124,0.12880
3463.52971,0.12821
3465.45818,0.12459
3467.38665,0.12291
3469.31512,0.12715
3471.24359,0.13083
3473.17206,0.12955
3475.10052,0.12472
3477.02899,0.11976
3478.95746,0.11812
3480.88593,0.11890
3482.81440,0.12056
3484.74287,0.12302
3486.67134,0.12283
3488.59980,0.11855
3490.52827,0.11524
3492.45674,0.11560
3494.38521,0.11551
3496.31368,0.11235
3498.24215,0.11031
3500.17062,0.11127
3502.09909,0.11416
3504.02755,0.11643
3505.95602,0.11439
3507.88449,0.11205
3509.81296,0.11266
3511.74143,0.11236
3513.66990,0.11067
3515.59837,0.10774
3517.52683,0.10337
3519.45530,0.10433
3521.38377,0.10921
3523.31224,0.10650
3525.24071,0.09960
3527.16918,0.10256
3529.09765,0.11193
3531.02611,0.11320
3532.95458,0.10945
3534.88305,0.10971
3536.81152,0.11100
3538.73999,0.10754
3540.66846,0.10281
3542.59693,0.10305
3544.52540,0.10689
3546.45386,0.11061
3548.38233,0.11166
3550.31080,0.10954
3552.23927,0.10762
3554.16774,0.10720
3556.09621,0.10721
3558.02468,0.10597
3559.95314,0.10362
3561.88161,0.10377
3563.81008,0.10652
3565.73855,0.10827
3567.66702,0.10511
3569.59549,0.09990
3571.52396,0.09823
3573.45243,0.09829
3575.38089,0.09745
3577.30936,0.09626
3579.23783,0.09624
3581.16630,0.09710
3583.09477,0.09638
3585.02324,0.09616
3586.95171,0.09965
3588.88017,0.10154
3590.80864,0.10065
3592.73711,0.10251
3594.66558,0.10570
3596.59405,0.10554
3598.52252,0.10368
3600.45099,0.09978
3602.37946,0.09421
3604.30792,0.09434
3606.23639,0.10034
3608.16486,0.10284
3610.09333,0.10059
3612.02180,0.10359
3613.95027,0.10897
3615.87874,0.10824
3617.80720,0.10006
3619.73567,0.08830
3621.66414,0.08393
3623.59261,0.08601
3625.52108,0.08938
3627.44955,0.09288
3629.37802,0.09354
3631.30649,0.08858
3633.23495,0.08253
3635.16342,0.08137
3637.09189,0.08575
3639.02036,0.08969
3640.94883,0.08897
3642.87730,0.08634
3644.80577,0.08989
3646.73423,0.10262
3648.66270,0.11175
3650.59117,0.10366
3652.51964,0.09759
3654.44811,0.09554
3656.37658,0.08958
3658.30505,0.08343
3660.23352,0.08400
3662.16198,0.08600
3664.09045,0.08486
3666.01892,0.08650
3667.94739,0.09479
3669.87586,0.10097
3671.80433,0.10003
3673.73280,0.10104
3675.66126,0.09713
3677.58973,0.08745
3679.51820,0.08429
3681.44667,0.08249
3683.37514,0.07896
3685.30361,0.07828
3687.23208,0.08349
3689.16055,0.08948
3691.08901,0.08912
3693.01748,0.08683
3694.94595,0.08579
3696.87442,0.08700
3698.80289,0.09065
3700.73136,0.09363
3702.65983,0.09055
3704.58829,0.08487
3706.51676,0.08512
3708.44523,0.09142
3710.37370,0.09812
3712.30217,0.09465
3714.23064,0.08423
3716.15911,0.07974
3718.08757,0.08154
3720.01604,0.08313
3721.94451,0.08057
3723.87298,0.07865
3725.80145,0.08136
3727.72992,0.08552
3729.65839,0.09074
3731.58686,0.09667
3733.51532,0.09634
3735.44379,0.09121
3737.37226,0.08970
3739.30073,0.08836
3741.22920,0.08797
3743.15767,0.09064
3745.08614,0.09631
3747.01460,0.10308
3748.94307,0.10922
3750.87154,0.11130
3752.80001,0.10473
3754.72848,0.09684
3756.65695,0.09190
3758.58542,0.08968
3760.51389,0.08969
3762.44235,0.08841
3764.37082,0.08445
3766.29929,0.08368
3768.22776,0.08760
3770.15623,0.08816
3772.08470,0.08354
3774.01317,0.08000
3775.94163,0.08161
3777.87010,0.08783
3779.79857,0.09221
3781.72704,0.09061
3783.65551,0.08466
3785.58398,0.07710
3787.51245,0.07498
3789.44092,0.07867
3791.36938,0.08189
3793.29785,0.08172
3795.22632,0.07871
3797.15479,0.07704
3799.08326,0.08053
3801.01173,0.08386
3802.94020,0.08153
3804.86866,0.08124
3806.79713,0.08716
3808.72560,0.09102
3810.65407,0.08686
3812.58254,0.08064
3814.51101,0.07857
3816.43948,0.08288
3818.36795,0.08689
3820.29641,0.08446
3822.22488,0.07911
3824.15335,0.07848
3826.08182,0.08128
3828.01029,0.08353
3829.93876,0.08120
3831.86723,0.07588
3833.79569,0.07297
3835.72416,0.07369
3837.65263,0.07743
3839.58110,0.08111
3841.50957,0.08088
3843.43804,0.07890
3845.36651,0.07823
3847.29498,0.07925
3849.22344,0.08116
3851.15191,0.08539
3853.08038,0.08732
3855.00885,0.08217
3856.93732,0.08229
3858.86579,0.08355
3860.79426,0.08358
3862.72272,0.08320
3864.65119,0.08134
3866.57966,0.08068
3868.50813,0.08285
3870.43660,0.08731
3872.36507,0.08887
3874.29354,0.08434
3876.22200,0.07966
3878.15047,0.07771
3880.07894,0.07437
3882.00741,0.07147
3883.93588,0.07455
3885.86435,0.07936
3887.79282,0.07775
3889.72129,0.07018
3891.64975,0.06373
3893.57822,0.06646
3895.50669,0.07273
3897.43516,0.07587
3899.36363,0.07911
3901.29210,0.08672
3903.22057,0.09027
3905.14903,0.08514
3907.07750,0.07555
3909.00597,0.06562
3910.93444,0.06322
3912.86291,0.07104
3914.79138,0.07950
3916.71985,0.07932
3918.64832,0.07466
3920.57678,0.07389
3922.50525,0.07615
3924.43372,0.07947
3926.36219,0.07817
3928.29066,0.07171
3930.21913,0.06948
3932.14760,0.07176
3934.07606,0.07212
3936.00453,0.07276
3937.93300,0.07507
3939.86147,0.07579
3941.78994,0.07398
3943.71841,0.07223
3945.64688,0.07200
3947.57535,0.07181
3949.50381,0.07136
3951.43228,0.07151
3953.36075,0.07090
3955.28922,0.07048
3957.21769,0.07180
3959.14616,0.07319
3961.07463,0.07483
3963.00309,0.07605
3964.93156,0.07397
3966.86003,0.06910
3968.78850,0.06519
3970.71697,0.06553
3972.64544,0.06798
3974.57391,0.06761
3976.50238,0.06588
3978.43084,0.06635
3980.35931,0.06653
3982.28778,0.06446
3984.21625,0.06199
3986.14472,0.06356
3988.07319,0.07078
3990.00166,0.07714
3991.93012,0.07730
3993.85859,0.07388
3995.78706,0.06998
3997.71553,0.06472
3999.64400,0.06127
4001.57247,0.06420
4003.50094,0.07056
4005.42941,0.07337
4007.35787,0.06924
4009.28634,0.06388
4011.21481,0.06290
4013.14328,0.06262
4015.07175,0.06019
4017.00022,0.05893
4018.92869,0.05950
4020.85715,0.06084
4022.78562,0.06480
4024.71409,0.06789
4026.64256,0.06533
4028.57103,0.05948
4030.49950,0.05626
4032.42797,0.05836
4034.35644,0.06120
4036.28490,0.06094
4038.21337,0.05980
4040.14184,0.06115
4042.07031,0.06448
4043.99878,0.06605
4045.92725,0.06307
4047.85572,0.05603
4049.78418,0.05194
4051.71265,0.05572
4053.64112,0.05950
4055.56959,0.05631
4057.49806,0.05239
4059.42653,0.05449
4061.35500,0.06078
4063.28346,0.06883
4065.21193,0.07606
4067.14040,0.07593
4069.06887,0.06935
4070.99734,0.06546
4072.92581,0.06566
4074.85428,0.06666
4076.78275,0.06750
4078.71121,0.06538
4080.63968,0.06250
4082.56815,0.06360
4084.49662,0.06396
4086.42509,0.06020
4088.35356,0.05688
4090.28203,0.05716
4092.21049,0.05940
4094.13896,0.06116
4096.06743,0.06524
4097.99590,0.07126
4099.92437,0.06820
4101.85284,0.05754
4103.78131,0.05448
4105.70978,0.05612
4107.63824,0.05453
4109.56671,0.05440
4111.49518,0.05586
4113.42365,0.05722
4115.35212,0.05958
4117.28059,0.06122
4119.20906,0.05818
4121.13752,0.04807
4123.06599,0.03851
4124.99446,0.03960
4126.92293,0.04850
4128.85140,0.05596
4130.77987,0.05691
4132.70834,0.05403
4134.63681,0.05431
4136.56527,0.05616
4138.49374,0.05630
4140.42221,0.05852
4142.35068,0.06134
4144.27915,0.06023
4146.20762,0.05581
4148.13609,0.05213
4150.06455,0.05158
4151.99302,0.05454
4153.92149,0.05835
4155.84996,0.05648
4157.77843,0.05375
4159.70690,0.05673
4161.63537,0.05622
4163.56384,0.05094
4165.49230,0.05041
4167.42077,0.05316
4169.34924,0.05271
4171.27771,0.05115
4173.20618,0.05288
4175.13465,0.05523
4177.06312,0.05362
4178.99158,0.05135
4180.92005,0.05787
4182.84852,0.06772
4184.77699,0.06389
4186.70546,0.05148
4188.63393,0.04942
4190.56240,0.05590
4192.49087,0.05590
4194.41933,0.04935
4196.34780,0.04517
4198.27627,0.04631
4200.20474,0.05051
4202.13321,0.05154
4204.06168,0.05072
4205.99015,0.05379
4207.91861,0.05481
4209.84708,0.05135
4211.77555,0.05232
4213.70402,0.05752
4215.63249,0.05962
4217.56096,0.05814
4219.48943,0.05439
4221.41789,0.05027
4223.34636,0.04936
4225.27483,0.05048
4227.20330,0.05020
4229.13177,0.04930
4231.06024,0.04848
4232.98871,0.04504
4234.91718,0.04190
4236.84564,0.04313
4238.77411,0.04584
4240.70258,0.04803
4242.63105,0.05027
4244.55952,0.05268
4246.48799,0.05378
4248.41646,0.05318
4250.34492,0.05123
4252.27339,0.04628
4254.20186,0.04055
4256.13033,0.03529
4258.05880,0.02970
4259.98727,0.02864
4261.91574,0.03237
4263.84421,0.03749
4265.77267,0.04367
4267.70114,0.04818
4269.62961,0.04896
4271.55808,0.04547
4273.48655,0.04104
4275.41502,0.04182
4277.34349,0.04671
4279.27195,0.04853
4281.20042,0.04402
4283.12889,0.03991
4285.05736,0.04118
4286.98583,0.04435
4288.91430,0.04540
4290.84277,0.04396
4292.77124,0.04143
4294.69970,0.03775
4296.62817,0.03800
4298.55664,0.04222
4300.48511,0.04121
4302.41358,0.03606
4304.34205,0.03442
4306.27052,0.03741
4308.19898,0.03936
4310.12745,0.03987
4312.05592,0.04078
4313.98439,0.03728
4315.91286,0.03224
4317.84133,0.03213
4319.76980,0.03704
4321.69827,0.04309
4323.62673,0.04287
4325.55520,0.03749
4327.48367,0.03316
4329.41214,0.02911
4331.34061,0.02628
4333.26908,0.02747
4335.19755,0.03217
4337.12601,0.03557
4339.05448,0.03205
4340.98295,0.02691
4342.91142,0.02582
4344.83989,0.02617
4346.76836,0.02631
4348.69683,0.02615
4350.62530,0.02729
4352.55376,0.03021
4354.48223,0.03178
4356.41070,0.02967
4358.33917,0.02716
4360.26764,0.02774
4362.19611,0.02936
4364.12458,0.03132
4366.05304,0.03160
4367.98151,0.02689
4369.90998,0.02058
4371.83845,0.01693
4373.76692,0.01676
4375.69539,0.01837
4377.62386,0.01872
4379.55232,0.01923
4381.48079,0.02223
4383.40926,0.02625
4385.33773,0.03060
4387.26620,0.03220
4389.19467,0.03011
4391.12314,0.02870
4393.05161,0.02766
4394.98007,0.02822
4396.90854,0.03445
4398.83701,0.04151
4400.76548,0.03920
4402.69395,0.02743
4404.62242,0.01895
4406.55089,0.02411
4408.47935,0.03763
4410.40782,0.04480
4412.33629,0.04102
4414.26476,0.03198
4416.19323,0.02587
4418.12170,0.02726
4420.05017,0.03108
4421.97864,0.03258
4423.90710,0.03065
4425.83557,0.02714
4427.76404,0.02808
4429.69251,0.03287
4431.62098,0.03172
4433.54945,0.02257
4435.47792,0.01573
4437.40638,0.01539
4439.33485,0.01897
4441.26332,0.02402
4443.19179,0.02559
4445.12026,0.02376
4447.04873,0.02488
4448.97720,0.02929
4450.90567,0.03145
4452.83413,0.02978
4454.76260,0.02702
4456.69107,0.02833
4458.61954,0.03340
4460.54801,0.03423
4462.47648,0.03278
4464.40495,0.03173
4466.33341,0.02401
4468.26188,0.01480
4470.19035,0.01349
4472.11882,0.01469
4474.04729,0.01584
4475.97576,0.02141
4477.90423,0.02655
4479.83270,0.02387
4481.76116,0.01501
4483.68963,0.00964
4485.61810,0.01421
4487.54657,0.02031
4489.47504,0.02188
4491.40351,0.02421
4493.33198,0.02395
4495.26044,0.01700
4497.18891,0.01226
4499.11738,0.01179
4501.04585,0.00578
4502.97432,-0.00493
4504.90279,-0.00711
4506.83126,0.00216
4508.75973,0.01197
4510.68819,0.01801
4512.61666,0.02140
4514.54513,0.01976
4516.47360,0.01789
4518.40207,0.01841
4520.33054,0.01484
4522.25901,0.00921
4524.18747,0.00668
4526.11594,0.00673
4528.04441,0.00611
4529.97288,0.00352
4531.90135,0.00332
4533.82982,0.00609
4535.75829,0.00990
4537.68676,0.01235
4539.61522,0.00801
4541.54369,0.00223
4543.47216,0.00794
4545.40063,0.02172
4547.32910,0.02721
4549.25757,0.02053
4551.18604,0.01281
4553.11450,0.00951
4555.04297,0.00547
4556.97144,-0.00078
4558.89991,-0.00325
4560.82838,0.00139
4562.75685,0.00497
4564.68532,0.00139
4566.61378,-0.00134
4568.54225,-0.00228
4570.47072,-0.00646
4572.39919,-0.01086
4574.32766,-0.01210
4576.25613,-0.00812
4578.18460,0.00287
4580.11307,0.01191
4582.04153,0.00683
4583.97000,-0.00442
4585.89847,-0.00382
4587.82694,0.00811
4589.75541,0.01382
4591.68388,0.00909
4593.61235,0.00531
4595.54081,0.00467
4597.46928,0.00372
4599.39775,0.00318
4601.32622,0.00645
4603.25469,0.01338
4605.18316,0.01946
4607.11163,0.02244
4609.04010,0.01976
4610.96856,0.01367
4612.89703,0.01197
4614.82550,0.01638
4616.75397,0.01784
4618.68244,0.00984
4620.61091,0.00611
4622.53938,0.01479
4624.46784,0.02176
4626.39631,0.02238
4628.32478,0.02359
4630.25325,0.02255
4632.18172,0.01691
4634.11019,0.01274
4636.03866,0.01386
4637.96713,0.01778
4639.89559,0.02094
4641.82406,0.01900
4643.75253,0.01447
4645.68100,0.01525
4647.60947,0.01778
4649.53794,0.01447
4651.46641,0.00346
4653.39487,-0.00834
4655.32334,-0.00823
4657.25181,0.00367
4659.18028,0.01254
4661.10875,0.00943
4663.03722,0.00570
4664.96569,0.00742
4666.89416,0.00517
4668.82262,0.00069
4670.75109,0.00106
4672.67956,0.00358
4674.60803,-0.00002
4676.53650,-0.00788
4678.46497,-0.00687
4680.39344,0.00306
4682.32190,0.00899
4684.25037,0.00570
4686.17884,-0.00071
4688.10731,-0.00517
4690.03578,-0.00859
4691.96425,-0.01058
4693.89272,-0.00671
4695.82119,0.00451
4697.74965,0.01700
4699.67812,0.02042
4701.60659,0.01261
4703.53506,0.01044
4705.46353,0.02134
4707.39200,0.02853
4709.32047,0.02386
4711.24893,0.01380
4713.17740,0.00850
4715.10587,0.01427
4717.03434,0.02096
4718.96281,0.01644
4720.89128,0.00654
4722.81975,0.00394
4724.74821,0.00957
4726.67668,0.01185
4728.60515,0.00882
4730.53362,0.00593
4732.46209,0.00221
4734.39056,0.00145
4736.31903,0.00594
4738.24750,0.00704
4740.17596,0.00346
4742.10443,0.00164
4744.03290,-0.00037
4745.96137,-0.00439
4747.88984,-0.00132
4749.81831,0.00639
4751.74678,0.00234
4753.67524,-0.01070
4755.60371,-0.01694
4757.53218,-0.01428
4759.46065,-0.00743
4761.38912,0.00352
4763.31759,0.01325
4765.24606,0.01594
4767.17453,0.01411
4769.10299,0.00926
4771.03146,0.00080
4772.95993,-0.00723
4774.88840,-0.00501
4776.81687,0.00689
4778.74534,0.01507
4780.67381,0.01521
4782.60227,0.01237
4784.53074,0.00797
4786.45921,0.00167
4788.38768,0.00152
4790.31615,0.00776
4792.24462,0.00630
4794.17309,0.00133
4796.10156,0.00393
4798.03002,0.00967
4799.95849,0.01522
4801.88696,0.01860
4803.81543,0.01789
4805.74390,0.01787
4807.67237,0.01767
4809.60084,0.01402
4811.52930,0.01160
4813.45777,0.00605
4815.38624,-0.01023
4817.31471,-0.02676
4819.24318,-0.02766
4821.17165,-0.01384
4823.10012,-0.00165
4825.02859,0.00229
4826.95705,0.01116
4828.88552,0.02600
4830.81399,0.02770
4832.74246,0.01601
4834.67093,0.00600
4836.59940,-0.00009
4838.52787,-0.00810
4840.45633,-0.01818
4842.38480,-0.02194
4844.31327,-0.01718
4846.24174,-0.01161
4848.17021,-0.00825
4850.09868,-0.00577
4852.02715,-0.00278
4853.95562,0.00227
4855.88408,0.00886
4857.81255,0.01506
4859.74102,0.02007
4861.66949,0.01712
4863.59796,0.00323
4865.52643,-0.00773
4867.45490,-0.00599
4869.38336,0.00377
4871.31183,0.01138
4873.24030,0.00920
4875.16877,0.00420
4877.09724,0.00679
4879.02571,0.01474
4880.95418,0.01807
4882.88265,0.01321
4884.81111,0.01108
4886.73958,0.01272
4888.66805,0.00972
4890.59652,0.00617
4892.52499,0.00659
4894.45346,0.01067
4896.38193,0.01373
4898.31039,0.00840
4900.23886,0.00540
4902.16733,0.01528
4904.09580,0.02602
4906.02427,0.02799
4907.95274,0.02189
4909.88121,0.01399
4911.80967,0.01354
4913.73814,0.01922
4915.66661,0.01639
4917.59508,0.00169
4919.52355,-0.00944
4921.45202,-0.01511
4923.38049,-0.01852
4925.30896,-0.01396
4927.23742,-0.00930
4929.16589,-0.00212
4931.09436,0.01637
4933.02283,0.03081
4934.95130,0.02685
4936.87977,0.01049
4938.80824,-0.00186
4940.73670,0.00190
4942.66517,0.01799
4944.59364,0.02545
4946.52211,0.01612
4948.45058,0.00299
4950.37905,-0.00365
4952.30752,-0.00144
4954.23599,0.00578
4956.16445,0.01491
4958.09292,0.02140
4960.02139,0.01838
4961.94986,0.00705
4963.87833,-0.00740
4965.80680,-0.01419
4967.73527,-0.00494
4969.66373,0.01201
4971.59220,0.02163
4973.52067,0.01828
4975.44914,0.01208
4977.37761,0.01190
4979.30608,0.01572
4981.23455,0.01701
4983.16302,0.01138
4985.09148,0.00799
4987.01995,0.01032
4988.94842,0.00931
4990.87689,0.00636
4992.80536,0.00510
4994.73383,0.00586
4996.66230,0.00856
4998.59076,0.01112
5000.51923,0.01411
5002.44770,0.01392
5004.37617,0.01404
5006.30464,0.01936
5008.23311,0.01424
5010.16158,-0.00485
5012.09005,-0.01573
5014.01851,-0.00816
5015.94698,0.00917
5017.87545,0.02095
5019.80392,0.01806
5021.73239,0.01088
5023.66086,0.00956
5025.58933,0.01064
5027.51779,0.01580
5029.44626,0.02562
5031.37473,0.03276
5033.30320,0.03494
5035.23167,0.03425
5037.16014,0.03760
5039.08861,0.04262
5041.01708,0.03270
5042.94554,0.01229
5044.87401,0.00705
5046.80248,0.01762
5048.73095,0.01535
5050.65942,-0.00483
5052.58789,-0.01807
5054.51636,-0.00720
5056.44482,0.01527
5058.37329,0.02053
5060.30176,0.00995
5062.23023,0.00494
5064.15870,0.00348
5066.08717,0.00219
5068.01564,0.00981
5069.94410,0.01725
5071.87257,0.01817
5073.80104,0.02695
5075.72951,0.03500
5077.65798,0.02621
5079.58645,0.02136
5081.51492,0.02784
5083.44339,0.02367
5085.37185,0.01393
5087.30032,0.01410
5089.22879,0.01805
5091.15726,0.02037
5093.08573,0.02839
5095.01420,0.04740
5096.94267,0.06157
5098.87113,0.04746
5100.79960,0.01429
5102.72807,-0.00487
5104.65654,-0.00036
5106.58501,0.01294
5108.51348,0.01773
5110.44195,0.01452
5112.37042,0.02192
5114.29888,0.03333
5116.22735,0.03177
5118.15582,0.02608
5120.08429,0.01926
5122.01276,0.01072
5123.94123,0.01061
5125.86970,0.01742
5127.79816,0.01986
5129.72663,0.01749
5131.65510,0.01754
5133.58357,0.02230
5135.51204,0.03699
5137.44051,0.05598
5139.36898,0.05287
5141.29745,0.02641
5143.22591,0.00545
5145.15438,0.00226
5147.08285,0.00506
5149.01132,0.00663
5150.93979,0.01528
5152.86826,0.02710
5154.79673,0.02861
5156.72519,0.02742
5158.65366,0.02601
5160.58213,0.01704
5162.51060,0.01001
5164.43907,0.00974
5166.36754,0.01343
5168.29601,0.01906
5170.22448,0.02592
5172.15294,0.03482
5174.08141,0.04204
5176.00988,0.04787
5177.93835,0.04618
5179.86682,0.02721
5181.79529,0.00574
5183.72376,0.00891
5185.65222,0.03583
5187.58069,0.05370
5189.50916,0.04667
5191.43763,0.03165
5193.36610,0.02490
5195.29457,0.02346
5197.22304,0.02331
5199.15151,0.02903
5201.07997,0.03381
5203.00844,0.02136
5204.93691,0.00085
5206.86538,-0.00351
5208.79385,0.00425
5210.72232,0.01771
5212.65079,0.03987
5214.57925,0.05528
5216.50772,0.04783
5218.43619,0.03133
5220.36466,0.03257
5222.29313,0.04778
5224.22160,0.06095
5226.15007,0.06650
5228.07854,0.06070
5230.00700,0.04875
5231.93547,0.04368
5233.86394,0.04254
5235.79241,0.03197
5237.72088,0.02120
5239.64935,0.02988
5241.57782,0.04982
5243.50628,0.04962
5245.43475,0.02760
5247.36322,0.01682
5249.29169,0.02215
5251.22016,0.02767
5253.14863,0.03591
5255.07710,0.05324
5257.00556,0.07184
5258.93403,0.07863
5260.86250,0.07408
5262.79097,0.06497
5264.71944,0.05010
5266.64791,0.03813
5268.57638,0.03576
5270.50485,0.02830
5272.43331,0.01269
5274.36178,0.00828
5276.29025,0.01127
5278.21872,0.00676
5280.14719,0.01356
5282.07566,0.03297
5284.00413,0.02525
5285.93259,-0.00842
5287.86106,-0.02430
5289.78953,-0.01485
5291.71800,0.00083
5293.64647,0.01571
5295.57494,0.03013
5297.50341,0.03704
5299.43188,0.03712
5301.36034,0.04013
5303.28881,0.03719
5305.21728,0.03572
5307.14575,0.05334
5309.07422,0.05375
5311.00269,0.02811
5312.93116,0.03095
5314.85962,0.05615
5316.78809,0.05907
5318.71656,0.05525
5320.64503,0.06099
5322.57350,0.06766
5324.50197,0.07670
5326.43044,0.07401
5328.35891,0.04546
5330.28737,0.01332
5332.21584,0.00938
5334.14431,0.03533
5336.07278,0.05494
5338.00125,0.03803
5339.92972,0.01558
5341.85819,0.02825
5343.78665,0.04307
5345.71512,0.03097
5347.64359,0.02328
5349.57206,0.03201
5351.50053,0.04255
5353.42900,0.04704
5355.35747,0.04753
5357.28594,0.04493
5359.21440,0.03719
5361.14287,0.03045
5363.07134,0.03072
5364.99981,0.03777
5366.92828,0.05151
5368.85675,0.05939
5370.78522,0.04911
5372.71368,0.03282
5374.64215,0.02419
5376.57062,0.01951
5378.49909,0.01992
5380.42756,0.04231
5382.35603,0.07785
5384.28450,0.09199
5386.21297,0.07822
5388.14143,0.05894
5390.06990,0.04790
5391.99837,0.05089
5393.92684,0.06193
5395.85531,0.06712
5397.78378,0.05862
5399.71225,0.04417
5401.64071,0.03628
5403.56918,0.03905
5405.49765,0.04650
5407.42612,0.04543
5409.35459,0.04212
5411.28306,0.04543
5413.21153,0.03898
5415.13999,0.02443
5417.06846,0.01526
5418.99693,0.00214
5420.92540,-0.01600
5422.85387,-0.02066
5424.78234,-0.00016
5426.71081,0.02583
5428.63928,0.03356
5430.56774,0.04645
5432.49621,0.06751
5434.42468,0.06070
5436.35315,0.03952
5438.28162,0.03732
5440.21009,0.05254
5442.13856,0.07313
5444.06702,0.08533
5445.99549,0.08386
5447.92396,0.08310
5449.85243,0.08797
5451.78090,0.07738
5453.70937,0.06126
5455.63784,0.06420
5457.56631,0.06423
5459.49477,0.03534
5461.42324,0.01648
5463.35171,0.03453
5465.28018,0.05532
5467.20865,0.06298
5469.13712,0.06565
5471.06559,0.06593
5472.99405,0.06574
5474.92252,0.06040
5476.85099,0.06284
5478.77946,0.07848
5480.70793,0.07446
5482.63640,0.04815
5484.56487,0.02336
5486.49334,-0.00321
5488.42180,-0.01389
5490.35027,0.02268
5492.27874,0.06931
5494.20721,0.07502
5496.13568,0.06351
5498.06415,0.06897
5499.99262,0.08195
5501.92108,0.07696
5503.84955,0.05031
5505.77802,0.01886
5507.70649,0.00093
5509.63496,0.00566
5511.56343,0.02300
5513.49190,0.02932
5515.42037,0.02489
5517.34883,0.02492
5519.27730,0.03058
5521.20577,0.03913
5523.13424,0.04806
5525.06271,0.05617
5526.99118,0.05482
5528.91965,0.05034
5530.84811,0.06028
5532.77658,0.06245
5534.70505,0.04001
5536.63352,0.01627
5538.56199,0.00456
5540.49046,0.00320
5542.41893,0.01845
5544.34740,0.04614
5546.27586,0.06680
5548.20433,0.06618
5550.13280,0.06010
5552.06127,0.06389
5553.98974,0.05732
5555.91821,0.03046
5557.84668,0.00793
5559.77514,0.01149
5561.70361,0.02907
5563.63208,0.04124
5565.56055,0.06230
5567.48902,0.10062
5569.41749,0.12734
5571.34596,0.12359
5573.27443,0.10476
5575.20289,0.09108
5577.13136,0.06641
5579.05983,0.02047
5580.98830,-0.00153
5582.91677,0.02370
5584.84524,0.04550
5586.77371,0.03826
5588.70217,0.02701
5590.63064,0.02956
5592.55911,0.03858
5594.48758,0.04798
5596.41605,0.06237
5598.34452,0.07147
5600.27299,0.06546
5602.20145,0.06484
5604.12992,0.06198
5606.05839,0.04039
5607.98686,0.03428
5609.91533,0.05747
5611.84380,0.07699
5613.77227,0.06775
5615.70074,0.04780
5617.62920,0.04361
5619.55767,0.04108
5621.48614,0.03697
5623.41461,0.05394
5625.34308,0.07816
5627.27155,0.08351
5629.20002,0.07881
5631.12848,0.06803
5633.05695,0.04486
5634.98542,0.03038
5636.91389,0.03438
5638.84236,0.03983
5640.77083,0.05340
5642.69930,0.07699
5644.62777,0.08679
5646.55623,0.08110
5648.48470,0.06862
5650.41317,0.04944
5652.34164,0.03410
5654.27011,0.02652
5656.19858,0.02568
5658.12705,0.03215
5660.05551,0.06112
5661.98398,0.11020
5663.91245,0.11612
5665.84092,0.07519
5667.76939,0.05979
5669.69786,0.06214
5671.62633,0.02978
5673.55480,-0.00208
5675.48326,0.02181
5677.41173,0.06482
5679.34020,0.07655
5681.26867,0.07895
5683.19714,0.08244
5685.12561,0.06401
5687.05408,0.04257
5688.98254,0.04916
5690.91101,0.06159
5692.83948,0.06170
5694.76795,0.07365
5696.69642,0.09734
5698.62489,0.09438
5700.55336,0.06950
5702.48183,0.05647
5704.41029,0.04958
5706.33876,0.04171
5708.26723,0.03236
5710.19570,0.01358
5712.12417,-0.01114
5714.05264,-0.01123
5715.98111,0.04829
5717.90957,0.10806
5719.83804,0.09249
5721.76651,0.04568
5723.69498,0.01229
5725.62345,-0.00197
5727.55192,0.02326
5729.48039,0.06811
5731.40886,0.09246
5733.33732,0.09700
5735.26579,0.08628
5737.19426,0.06588
5739.12273,0.05257
5741.05120,0.04763
5742.97967,0.05478
5744.90814,0.07100
5746.83660,0.07788
5748.76507,0.08545
5750.69354,0.08607
5752.62201,0.05166
5754.55048,0.02930
5756.47895,0.04554
5758.40742,0.05560
5760.33588,0.04924
5762.26435,0.04685
5764.19282,0.05638
5766.12129,0.05764
5768.04976,0.03348
5769.97823,0.01649
5771.90670,0.02012
5773.83517,0.03160
5775.76363,0.06705
5777.69210,0.11473
5779.62057,0.13689
5781.54904,0.13003
5783.47751,0.10546
5785.40598,0.08209
5787.33445,0.08376
5789.26291,0.08249
5791.19138,0.05115
5793.11985,0.02589
5795.04832,0.02923
5796.97679,0.04387
5798.90526,0.05003
5800.83373,0.05518
5802.76220,0.07392
5804.69066,0.08866
5806.61913,0.07542
5808.54760,0.03870
5810.47607,0.00450
5812.40454,0.00935
5814.33301,0.05306
5816.26148,0.07265
5818.18994,0.04550
5820.11841,0.02142
5822.04688,0.03385
5823.97535,0.06653
5825.90382,0.07102
5827.83229,0.04690
5829.76076,0.05735
5831.68923,0.10922
5833.61769,0.13280
5835.54616,0.10567
5837.47463,0.06724
5839.40310,0.02738
5841.33157,0.01048
5843.26004,0.04547
5845.18851,0.09083
5847.11697,0.11582
5849.04544,0.12505
5850.97391,0.09907
5852.90238,0.05216
5854.83085,0.03158
5856.75932,0.03945
5858.68779,0.04554
5860.61626,0.03852
5862.54472,0.03945
5864.47319,0.06587
5866.40166,0.08908
5868.33013,0.06957
5870.25860,0.02530
5872.18707,0.00927
5874.11554,0.03668
5876.04400,0.08403
5877.97247,0.10294
5879.90094,0.06876
5881.82941,0.03137
5883.75788,0.03725
5885.68635,0.07408
5887.61482,0.10915
5889.54329,0.11295
5891.47175,0.08287
5893.40022,0.04448
5895.32869,0.01790
5897.25716,0.01054
5899.18563,0.02212
5901.11410,0.04668
5903.04257,0.07946
5904.97103,0.10555
5906.89950,0.10277
5908.82797,0.06475
5910.75644,0.01610
5912.68491,-0.01042
5914.61338,-0.00566
5916.54185,0.00473
5918.47032,0.00543
5920.39878,0.02417
5922.32725,0.05608
5924.25572,0.05500
5926.18419,0.02078
5928.11266,0.00365
5930.04113,0.02658
5931.96960,0.05046
5933.89806,0.05752
5935.82653,0.06210
5937.75500,0.05538
5939.68347,0.05413
5941.61194,0.07307
5943.54041,0.09019
5945.46888,0.09936
5947.39734,0.09395
5949.32581,0.07311
5951.25428,0.08814
5953.18275,0.14887
5955.11122,0.15350
5957.03969,0.06786
5958.96816,0.00112
5960.89663,0.01440
5962.82509,0.05247
5964.75356,0.09523
5966.68203,0.15171
5968.61050,0.17070
5970.53897,0.12238
5972.46744,0.05173
5974.39591,-0.00103
5976.32437,-0.01147
5978.25284,0.00563
5980.18131,0.02387
5982.10978,0.05591
5984.03825,0.09074
5985.96672,0.09586
5987.89519,0.05830
5989.82366,0.02462
5991.75212,0.06927
5993.68059,0.11908
5995.60906,0.05655
5997.53753,-0.02787
5999.46600,-0.03171
6001.39447,-0.00488
6003.32294,0.01690
6005.25140,0.04101
6007.17987,0.04521
6009.10834,0.02288
6011.03681,0.00116
6012.96528,-0.00850
6014.89375,-0.01880
6016.82222,-0.04631
6018.75069,-0.06210
6020.67915,-0.01847
6022.60762,0.03679
6024.53609,0.04380
6026.46456,0.02732
6028.39303,0.01493
6030.32150,-0.00243
6032.24997,-0.01177
6034.17843,0.00489
6036.10690,0.01583
6038.03537,0.02775
6039.96384,0.07059
6041.89231,0.09491
6043.82078,0.07409
6045.74925,0.04877
6047.67772,0.03672
6049.60618,0.01746
6051.53465,-0.02177
6053.46312,-0.03375
6055.39159,0.01709
6057.32006,0.04108
6059.24853,-0.01923
6061.17700,-0.06462
6063.10546,-0.05067
6065.03393,-0.03144
6066.96240,0.01055
6068.89087,0.09452
6070.81934,0.13988
6072.74781,0.11915
6074.67628,0.11203
6076.60475,0.13235
6078.53321,0.13095
6080.46168,0.09922
6082.39015,0.05994
6084.31862,0.03562
6086.24709,0.03286
6088.17556,0.04794
6090.10403,0.05509
6092.03249,0.05157
6093.96096,0.06238
6095.88943,0.07908
6097.81790,0.08706
6099.74637,0.06149
6101.67484,0.01879
6103.60331,0.02382
6105.53177,0.05742
6107.46024,0.05500
6109.38871,0.02790
6111.31718,0.03377
6113.24565,0.04758
6115.17412,0.04776
6117.10259,0.06009
6119.03106,0.04375
6120.95952,-0.00699
6122.88799,-0.01855
6124.81646,0.01204
6126.74493,0.02566
6128.67340,0.01354
6130.60187,0.02922
6132.53034,0.07447
6134.45880,0.12549
6136.38727,0.17151
6138.31574,0.18965
6140.24421,0.17422
6142.17268,0.14901
6144.10115,0.12776
6146.02962,0.08864
6147.95809,0.03340
6149.88655,0.02468
6151.81502,0.07989
6153.74349,0.09340
6155.67196,0.04250
6157.60043,0.01810
6159.52890,0.02246
6161.45737,0.02865
6163.38583,0.05199
6165.31430,0.07303
6167.24277,0.07010
6169.17124,0.05238
6171.09971,0.03590
6173.02818,0.03939
6174.95665,0.04180
6176.88512,0.00982
6178.81358,-0.01338
6180.74205,0.03581
6182.67052,0.12584
6184.59899,0.18593
6186.52746,0.19152
6188.45593,0.12578
6190.38440,0.02931
6192.31286,-0.00289
6194.24133,0.02997
6196.16980,0.07449
6198.09827,0.10055
6200.02674,0.07426
6201.95521,0.02008
6203.88368,0.01033
6205.81215,0.04399
6207.74061,0.07146
6209.66908,0.09425
6211.59755,0.11926
6213.52602,0.11724
6215.45449,0.08017
6217.38296,0.03538
6219.31143,0.01119
6221.23989,0.01668
6223.16836,0.03550
6225.09683,0.03168
6227.02530,0.01347
6228.95377,0.00641
6230.88224,-0.00409
6232.81071,0.02567
6234.73918,0.10990
6236.66764,0.13396
6238.59611,0.07114
6240.52458,0.00282
6242.45305,-0.01132
6244.38152,0.01914
6246.30999,0.04474
6248.23846,0.05580
6250.16692,0.06346
6252.09539,0.06254
6254.02386,0.05372
6255.95233,0.04439
6257.88080,0.03007
6259.80927,0.02325
6261.73774,0.05902
6263.66621,0.11680
6265.59467,0.14562
6267.52314,0.15134
6269.45161,0.13860
6271.38008,0.08019
6273.30855,0.01047
6275.23702,0.02013
6277.16549,0.08804
6279.09395,0.10807
6281.02242,0.05240
6282.95089,-0.01375
6284.87936,-0.03997
6286.80783,-0.04529
6288.73630,-0.02311
6290.66477,0.01916
6292.59323,0.04714
6294.52170,0.08266
6296.45017,0.12761
6298.37864,0.14648
6300.30711,0.15163
6302.23558,0.16660
6304.16405,0.15069
6306.09252,0.08790
6308.02098,0.03733
6309.94945,0.02963
6311.87792,0.01094
6313.80639,-0.03348
6315.73486,-0.03691
6317.66333,-0.00713
6319.59180,-0.00339
6321.52026,-0.00662
6323.44873,0.01453
6325.37720,0.02975
6327.30567,0.01195
6329.23414,-0.01905
6331.16261,-0.01932
6333.09108,0.02149
6335.01955,0.06163
6336.94801,0.07704
6338.87648,0.05898
6340.80495,0.01473
6342.73342,0.01941
6344.66189,0.09882
6346.59036,0.17811
6348.51883,0.20039
6350.44729,0.18438
6352.37576,0.16936
6354.30423,0.17192
6356.23270,0.17549
6358.16117,0.13851
6360.08964,0.08909
6362.01811,0.10755
6363.94658,0.14477
6365.87504,0.11538
6367.80351,0.06752
6369.73198,0.04737
6371.66045,0.03435
6373.58892,0.04686
6375.51739,0.07788
6377.44586,0.07257
6379.37432,0.04897
6381.30279,0.06717
6383.23126,0.10822
6385.15973,0.08110
6387.08820,0.02427
6389.01667,0.02430
6390.94514,0.05871
6392.87361,0.09057
6394.80207,0.11412
6396.73054,0.10636
6398.65901,0.06313
6400.58748,0.00719
6402.51595,-0.03079
6404.44442,-0.03565
6406.37289,0.01336
6408.30135,0.06773
6410.22982,0.01922
6412.15829,-0.06803
6414.08676,-0.06077
6416.01523,-0.01518
6417.94370,-0.01316
6419.87217,-0.02667
6421.80064,-0.03366
6423.72910,-0.04369
6425.65757,-0.06247
6427.58604,-0.07102
6429.51451,-0.01629
6431.44298,0.06782
6433.37145,0.10181
6435.29992,0.11755
6437.22838,0.13835
6439.15685,0.12963
6441.08532,0.10369
6443.01379,0.09475
6444.94226,0.10963
6446.87073,0.13613
6448.79920,0.12831
6450.72766,0.06778
6452.65613,0.06055
6454.58460,0.10858
6456.51307,0.06849
6458.44154,-0.03102
6460.37001,-0.03641
6462.29848,0.04771
6464.22695,0.10163
6466.15541,0.09913
6468.08388,0.11327
6470.01235,0.12706
6471.94082,0.08776
6473.86929,0.05094
6475.79776,0.03170
6477.72623,0.00653
6479.65469,0.01542
6481.58316,0.01480
6483.51163,-0.04832
6485.44010,-0.05781
6487.36857,0.03101
6489.29704,0.12548
6491.22551,0.17744
6493.15398,0.17541
6495.08244,0.09481
6497.01091,-0.00432
6498.93938,-0.01058
6500.86785,0.06671
6502.79632,0.08296
6504.72479,0.02712
6506.65326,-0.00229
6508.58172,0.00097
6510.51019,0.02887
6512.43866,0.07539
6514.36713,0.08417
6516.29560,0.07444
6518.22407,0.08285
6520.15254,0.08340
6522.08101,0.08495
6524.00947,0.07754
6525.93794,0.02060
6527.86641,-0.01315
6529.79488,0.02656
6531.72335,0.06061
6533.65182,0.03684
6535.58029,-0.00573
6537.50875,-0.04009
6539.43722,-0.06622
6541.36569,-0.03923
6543.29416,0.04322
6545.22263,0.11265
6547.15110,0.11535
6549.07957,0.05192
6551.00804,0.04222
6552.93650,0.13953
6554.86497,0.21873
6556.79344,0.22854
6558.72191,0.19949
6560.65038,0.15510
6562.57885,0.12308
6564.50732,0.10956
6566.43578,0.09559
6568.36425,0.10101
6570.29272,0.09909
6572.22119,0.00326
6574.14966,-0.10804
6576.07813,-0.09935
6578.00660,0.02105
6579.93507,0.14511
6581.86353,0.17238
6583.79200,0.11692
6585.72047,0.07221
6587.64894,0.05986
6589.57741,0.05105
6591.50588,0.01773
6593.43435,-0.04320
6595.36281,-0.08041
6597.29128,-0.06196
6599.21975,-0.01110
6601.14822,0.01283
6603.07669,-0.02365
6605.00516,-0.05799
6606.93363,-0.03532
6608.86210,0.01461
6610.79056,0.01608
6612.71903,-0.02325
6614.64750,-0.02941
6616.57597,0.03667
6618.50444,0.12193
6620.43291,0.16296
6622.36138,0.20906
6624.28984,0.22512
6626.21831,0.13465
6628.14678,0.03973
6630.07525,0.02925
6632.00372,0.03644
6633.93219,0.04913
6635.86066,0.09966
6637.78912,0.11665
6639.71759,0.06232
6641.64606,0.00583
6643.57453,0.00521
6645.50300,0.02269
6647.43147,0.00122
6649.35994,-0.01411
6651.28841,0.01680
6653.21687,0.08415
6655.14534,0.14633
6657.07381,0.12195
6659.00228,0.05597
6660.93075,0.08639
6662.85922,0.16714
6664.78769,0.20568
6666.71615,0.19390
6668.64462,0.07831
6670.57309,-0.10437
6672.50156,-0.14470
6674.43003,-0.00423
6676.35850,0.07557
6678.28697,0.03046
6680.21544,0.00299
6682.14390,0.06911
6684.07237,0.13270
6686.00084,0.11779
6687.92931,0.07990
6689.85778,0.03338
6691.78625,0.01997
6693.71472,0.05368
6695.64318,0.06124
6697.57165,0.03326
6699.50012,0.01274
6701.42859,0.04394
6703.35706,0.10774
6705.28553,0.09722
6707.21400,0.04258
6709.14247,0.07572
6711.07093,0.15738
6712.99940,0.16026
6714.92787,0.06738
6716.85634,0.00286
6718.78481,0.02076
6720.71328,0.00747
6722.64175,-0.06223
6724.57021,-0.06495
6726.49868,0.01976
6728.42715,0.04892
6730.35562,-0.00421
6732.28409,0.00691
6734.21256,0.11061
6736.14103,0.21936
6738.06950,0.25788
6739.99796,0.21855
6741.92643,0.17633
6743.85490,0.15203
6745.78337,0.10599
6747.71184,0.07324
6749.64031,0.07585
6751.56878,0.04225
6753.49724,-0.01034
6755.42571,0.04975
6757.35418,0.17185
6759.28265,0.15208
6761.21112,-0.01102
6763.13959,-0.13192
6765.06806,-0.15486
6766.99653,-0.06794
6768.92499,0.04641
6770.85346,0.07823
6772.78193,0.03449
6774.71040,-0.02910
6776.63887,-0.07083
6778.56734,-0.06043
6780.49581,-0.00101
6782.42427,0.02519
6784.35274,0.01708
6786.28121,0.06607
6788.20968,0.14697
6790.13815,0.19716
6792.06662,0.17170
6793.99509,0.06992
6795.92355,-0.00551
6797.85202,0.02320
6799.78049,0.09582
6801.70896,0.12877
6803.63743,0.09791
6805.56590,0.03490
6807.49437,0.02395
6809.42284,0.04814
6811.35130,0.06140
6813.27977,0.12205
6815.20824,0.20385
6817.13671,0.22001
6819.06518,0.18496
6820.99365,0.12907
6822.92212,0.08481
6824.85058,0.04133
6826.77905,-0.07079
6828.70752,-0.18902
6830.63599,-0.19257
6832.56446,-0.10370
6834.49293,-0.00655
6836.42140,0.03063
6838.34987,0.04360
6840.27833,0.07739
6842.20680,0.05691
6844.13527,-0.00118
6846.06374,-0.03510
6847.99221,-0.04791
6849.92068,0.01923
6851.84915,0.15283
6853.77761,0.21980
6855.70608,0.16794
6857.63455,0.09098
6859.56302,0.10015
6861.49149,0.18726
6863.41996,0.25457
6865.34843,0.22785
6867.27690,0.13721
6869.20536,0.12675
6871.13383,0.20361
6873.06230,0.18451
6874.99077,0.09623
6876.91924,0.08283
6878.84771,0.05347
6880.77618,-0.01997
6882.70464,-0.04075
6884.63311,-0.05499
6886.56158,-0.04959
6888.49005,0.04311
6890.41852,0.14180
6892.34699,0.15086
6894.27546,0.12022
6896.20393,0.10238
6898.13239,0.09222
6900.06086,0.07299
6901.98933,0.02953
6903.91780,0.00536
6905.84627,0.00036
6907.77474,0.00386
6909.70321,0.04461
6911.63167,0.05974
6913.56014,0.07459
6915.48861,0.13732
6917.41708,0.13000
6919.34555,0.03512
6921.27402,0.03461
6923.20249,0.07525
6925.13096,0.01604
6927.05942,-0.01950
6928.98789,0.05578
6930.91636,0.10110
6932.84483,0.04962
6934.77330,0.00506
6936.70177,-0.00954
6938.63024,0.01767
6940.55870,0.09643
6942.48717,0.09023
6944.41564,0.04044
6946.34411,0.10778
6948.27258,0.22882
6950.20105,0.28604
6952.12952,0.26565
6954.05799,0.15987
6955.98645,0.05474
6957.91492,0.05695
6959.84339,0.08995
6961.77186,0.08060
6963.70033,0.07682
6965.62880,0.10682
6967.55727,0.12187
6969.48573,0.10173
6971.41420,0.09069
6973.34267,0.13853
6975.27114,0.25829
6977.19961,0.33556
6979.12808,0.27706
6981.05655,0.08502
6982.98501,-0.11642
6984.91348,-0.09950
6986.84195,0.08887
6988.77042,0.16785
6990.69889,0.03146
6992.62736,-0.12861
6994.55583,-0.12590
6996.48430,0.02099
6998.41276,0.13924
7000.34123,0.09938
7002.26970,-0.00345
7004.19817,-0.06468
7006.12664,-0.09235
7008.05511,-0.05516
7009.98358,0.02397
7011.91204,0.05010
7013.84051,0.00309
7015.76898,-0.03031
7017.69745,-0.02795
7019.62592,-0.04646
7021.55439,-0.07024
7023.48286,-0.05193
7025.41133,-0.02045
7027.33979,0.00530
7029.26826,0.05603
7031.19673,0.07694
7033.12520,0.01729
7035.05367,-0.03928
7036.98214,-0.01910
7038.91061,0.02048
7040.83907,0.06605
7042.76754,0.10197
7044.69601,0.06519
7046.62448,-0.00643
7048.55295,-0.00060
7050.48142,0.10795
7052.40989,0.21294
7054.33836,0.20331
7056.26682,0.09256
7058.19529,-0.01849
7060.12376,-0.06916
7062.05223,-0.04684
7063.98070,0.03833
7065.90917,0.12420
7067.83764,0.21701
7069.76610,0.28005
7071.69457,0.15563
7073.62304,-0.06743
7075.55151,-0.14010
7077.47998,-0.06300
7079.40845,0.01065
7081.33692,0.00988
7083.26539,-0.00243
7085.19385,0.01415
7087.12232,0.04560
7089.05079,0.08545
7090.97926,0.13637
7092.90773,0.20467
7094.83620,0.25365
7096.76467,0.19704
7098.69313,0.08241
7100.62160,0.03154
7102.55007,0.04312
7104.47854,0.06470
7106.40701,0.02146
7108.33548,-0.00737
7110.26395,0.03091
7112.19242,0.02245
7114.12088,-0.03406
7116.04935,-0.07054
7117.97782,-0.08398
7119.90629,-0.04906
7121.83476,0.03301
7123.76323,0.09211
7125.69170,0.10931
7127.62016,0.07829
7129.54863,0.01081
7131.47710,-0.03641
7133.40557,-0.05949
7135.33404,-0.07052
7137.26251,-0.05657
7139.19098,0.01141
7141.11944,0.12099
7143.04791,0.19736
7144.97638,0.23811
7146.90485,0.22838
7148.83332,0.16361
7150.76179,0.12337
7152.69026,0.10209
7154.61873,0.07748
7156.54719,0.09215
7158.47566,0.09956
7160.40413,0.05103
7162.33260,0.06018
7164.26107,0.20032
7166.18954,0.27840
7168.11801,0.23715
7170.04647,0.26705
7171.97494,0.29840
7173.90341,0.20033
7175.83188,0.10041
7177.76035,0.10860
7179.68882,0.09941
7181.61729,-0.06865
7183.54576,-0.21599
7185.47422,-0.05989
7187.40269,0.13773
7189.33116,0.11097
7191.25963,-0.00855
7193.18810,0.00506
7195.11657,0.09928
7197.04504,0.17313
7198.97350,0.16566
7200.90197,0.06608
7202.83044,-0.03564
7204.75891,-0.02372
7206.68738,0.06593
7208.61585,0.10133
7210.54432,0.12096
7212.47279,0.19837
7214.40125,0.29184
7216.32972,0.33769
7218.25819,0.29115
7220.18666,0.13943
7222.11513,0.01612
7224.04360,-0.05200
7225.97207,-0.14833
7227.90053,-0.20153
7229.82900,-0.08971
7231.75747,0.11315
7233.68594,0.24329
7235.61441,0.27871
7237.54288,0.22887
7239.47135,0.10071
7241.39982,-0.04433
7243.32828,-0.10926
7245.25675,-0.07156
7247.18522,-0.02671
7249.11369,0.02378
7251.04216,0.11189
7252.97063,0.16304
7254.89910,0.12760
7256.82756,0.00224
7258.75603,-0.23098
7260.68450,-0.40123
7262.61297,-0.29383
7264.54144,-0.06763
7266.46991,0.04124
7268.39838,0.03346
7270.32685,-0.10138
7272.25531,-0.33305
7274.18378,-0.29168
7276.11225,-0.06869
7278.04072,0.04353
7279.96919,0.04171
7281.89766,0.08790
7283.82613,0.17350
7285.75459,0.16493
7287.68306,0.07483
7289.61153,0.03939
7291.54000,0.10012
7293.46847,0.14401
7295.39694,0.15607
7297.32541,0.19249
7299.25387,0.23935
7301.18234,0.30230
7303.11081,0.32674
7305.03928,0.25372
7306.96775,0.20506
7308.89622,0.25060
7310.82469,0.28119
7312.75316,0.26251
7314.68162,0.21146
7316.61009,0.14597
7318.53856,0.13902
7320.46703,0.17759
7322.39550,0.20119
7324.32397,0.29876
7326.25244,0.45106
7328.18090,0.43846
7330.10937,0.22263
7332.03784,0.08240
7333.96631,0.11393
7335.89478,0.19497
7337.82325,0.17128
7339.75172,0.00691
7341.68019,-0.02342
7343.60865,0.06936
7345.53712,0.10359
7347.46559,0.13176
7349.39406,0.21351
7351.32253,0.29744
7353.25100,0.30501
7355.17947,0.19674
7357.10793,0.07577
7359.03640,0.00798
7360.96487,-0.06281
7362.89334,-0.06683
7364.82181,0.03164
7366.75028,0.11718
7368.67875,0.06112
7370.60722,-0.01747
7372.53568,0.01013
7374.46415,0.10279
7376.39262,0.18526
7378.32109,0.17984
7380.24956,0.14206
7382.17803,0.10879
7384.10650,-0.01359
7386.03496,-0.18254
7387.96343,-0.13057
7389.89190,0.05963
7391.82037,0.13800
7393.74884,0.20547
7395.67731,0.28923
7397.60578,0.21413
7399.53425,0.11404
7401.46271,0.09471
7403.39118,0.04200
7405.31965,-0.03938
7407.24812,-0.07813
7409.17659,-0.09236
7411.10506,-0.09981
7413.03353,-0.15648
7414.96199,-0.24291
7416.89046,-0.27387
7418.81893,-0.19186
7420.74740,-0.09642
7422.67587,-0.08545
7424.60434,-0.04433
7426.53281,0.04376
7428.46128,0.13787
7430.38974,0.18436
7432.31821,0.12785
7434.24668,0.13042
7436.17515,0.19329
7438.10362,0.09225
7440.03209,-0.12542
7441.96056,-0.20463
7443.88902,-0.03922
7445.81749,0.12363
7447.74596,0.08267
7449.67443,0.03535
7451.60290,0.12159
7453.53137,0.14353
7455.45984,0.13463
7457.38831,0.18664
7459.31677,0.17670
7461.24524,0.04808
7463.17371,0.02696
7465.10218,0.12113
7467.03065,0.17614
7468.95912,0.19213
7470.88759,0.18023
7472.81605,0.17226
7474.74452,0.19567
7476.67299,0.21715
7478.60146,0.26496
7480.52993,0.21569
7482.45840,0.00092
7484.38687,-0.08864
7486.31533,-0.03280
7488.24380,0.02263
7490.17227,0.11927
7492.10074,0.20438
7494.02921,0.15900
7495.95768,0.05301
7497.88615,-0.02520
