399.19301,0.63883
401.12148,0.84596
403.04995,0.45104
404.97842,0.18489
406.90689,0.17744
408.83536,0.19042
410.76382,0.08294
412.69229,-0.00665
414.62076,0.04780
416.54923,0.13634
418.47770,0.11307
420.40617,0.06327
422.33464,0.10129
424.26311,0.08100
426.19157,-0.01444
428.12004,-0.07758
430.04851,-0.11590
431.97698,-0.09893
433.90545,-0.00552
435.83392,0.04721
437.76239,0.05219
439.69085,0.03811
441.61932,-0.00639
443.54779,0.01408
445.47626,0.13191
447.40473,0.15944
449.33320,0.04832
451.26167,-0.04452
453.19013,-0.03684
455.11860,0.03654
457.04707,0.07830
458.97554,0.03979
460.90401,-0.00720
462.83248,-0.01271
464.76095,0.03911
466.68942,0.08544
468.61788,0.06591
470.54635,0.05875
472.47482,0.06507
474.40329,-0.01708
476.33176,-0.01086
478.26023,0.08036
480.18870,0.12528
482.11716,0.09773
484.04563,0.08038
485.97410,0.10119
487.90257,0.07474
489.83104,0.03361
491.75951,0.02868
493.68798,0.05492
495.61645,0.10935
497.54491,0.14658
499.47338,0.13618
501.40185,0.09452
503.33032,0.07252
505.25879,0.09205
507.18726,0.08551
509.11573,0.02933
511.04419,-0.01547
512.97266,-0.02443
514.90113,0.00771
516.82960,0.06471
518.75807,0.08760
520.68654,0.08639
522.61501,0.11032
524.54348,0.12070
526.47194,0.07097
528.40041,0.04567
530.32888,0.10184
532.25735,0.16256
534.18582,0.15410
536.11429,0.12036
538.04276,0.11896
539.97122,0.10678
541.89969,0.08385
543.82816,0.10567
545.75663,0.11408
547.68510,0.06822
549.61357,0.05207
551.54204,0.08017
553.47051,0.09252
555.39897,0.08695
557.32744,0.07279
559.25591,0.04718
561.18438,0.01267
563.11285,-0.01112
565.04132,-0.01567
566.96979,0.00802
568.89825,0.05818
570.82672,0.08594
572.75519,0.06673
574.68366,0.02941
576.61213,0.00586
578.54060,-0.00087
580.46907,-0.00131
582.39754,-0.00030
584.32600,-0.00148
586.25447,0.00843
588.18294,0.03082
590.11141,0.03616
592.03988,0.03754
593.96835,0.06181
595.89682,0.07216
597.82528,0.06211
599.75375,0.06518
601.68222,0.06545
603.61069,0.05136
605.53916,0.04354
607.46763,0.03954
609.39610,0.04291
611.32456,0.06350
613.25303,0.07667
615.18150,0.06313
617.10997,0.04885
619.03844,0.05260
620.96691,0.06261
622.89538,0.07100
624.82385,0.07596
626.75231,0.08316
628.68078,0.09548
630.60925,0.10110
632.53772,0.09458
634.46619,0.07225
636.39466,0.04459
638.32313,0.03307
640.25159,0.04046
642.18006,0.06106
644.10853,0.07484
646.03700,0.06948
647.96547,0.05931
649.89394,0.04437
651.82241,0.03411
653.75088,0.04908
655.67934,0.06385
657.60781,0.05831
659.53628,0.05141
661.46475,0.04707
663.39322,0.04295
665.32169,0.03802
667.25016,0.03021
669.17862,0.04475
671.10709,0.06813
673.03556,0.08166
674.96403,0.09946
676.89250,0.11494
678.82097,0.11307
680.74944,0.10399
682.67791,0.09721
684.60637,0.08586
686.53484,0.08387
688.46331,0.09431
690.39178,0.09676
692.32025,0.09110
694.24872,0.07452
696.17719,0.05734
698.10565,0.06216
700.03412,0.06726
701.96259,0.05899
703.89106,0.06040
705.81953,0.06983
707.74800,0.07610
709.67647,0.08743
711.60494,0.09788
713.53340,0.09192
715.46187,0.07682
717.39034,0.06955
719.31881,0.07061
721.24728,0.07749
723.17575,0.09287
725.10422,0.10577
727.03268,0.10109
728.96115,0.07845
730.88962,0.05434
732.81809,0.04830
734.74656,0.05796
736.67503,0.06578
738.60350,0.06404
740.53197,0.05982
742.46043,0.06443
744.38890,0.07915
746.31737,0.09280
748.24584,0.09029
750.17431,0.07666
752.10278,0.07360
754.03125,0.07779
755.95971,0.07276
757.88818,0.06539
759.81665,0.06307
761.74512,0.06174
763.67359,0.06387
765.60206,0.06972
767.53053,0.07563
769.45900,0.08596
771.38746,0.09652
773.31593,0.09368
775.24440,0.08058
777.17287,0.06841
779.10134,0.06695
781.02981,0.07994
782.95828,0.08898
784.88674,0.08212
786.81521,0.07366
788.74368,0.06957
790.67215,0.06062
792.60062,0.05172
794.52909,0.05599
796.45756,0.06091
798.38602,0.05282
800.31449,0.04744
802.24296,0.05347
804.17143,0.06425
806.09990,0.07508
808.02837,0.08027
809.95684,0.08412
811.88531,0.08996
813.81377,0.08807
815.74224,0.07834
817.67071,0.07105
819.59918,0.06644
821.52765,0.06147
823.45612,0.06068
825.38459,0.06300
827.31305,0.06342
829.24152,0.06546
831.16999,0.07137
833.09846,0.07720
835.02693,0.07895
836.95540,0.07892
838.88387,0.07716
840.81234,0.07169
842.74080,0.07657
844.66927,0.08884
846.59774,0.08658
848.52621,0.07954
850.45468,0.08213
852.38315,0.08813
854.31162,0.08993
856.24008,0.08686
858.16855,0.08370
860.09702,0.08185
862.02549,0.08202
863.95396,0.08351
865.88243,0.08522
867.81090,0.08814
869.73937,0.08234
871.66783,0.07020
873.59630,0.07275
875.52477,0.08216
877.45324,0.08096
879.38171,0.07342
881.31018,0.06606
883.23865,0.06313
885.16711,0.06651
887.09558,0.07428
889.02405,0.07522
890.95252,0.06513
892.88099,0.06183
894.80946,0.07696
896.73793,0.09535
898.66640,0.09816
900.59486,0.09135
902.52333,0.08803
904.45180,0.08722
906.38027,0.08164
908.30874,0.08067
910.23721,0.09002
912.16568,0.08857
914.09414,0.07791
916.02261,0.07640
917.95108,0.08123
919.87955,0.08231
921.80802,0.07604
923.73649,0.07191
925.66496,0.07572
927.59343,0.07894
929.52189,0.08133
931.45036,0.08896
933.37883,0.09194
935.30730,0.08512
937.23577,0.08092
939.16424,0.08011
941.09271,0.07818
943.02117,0.08150
944.94964,0.08686
946.87811,0.08379
948.80658,0.07955
950.73505,0.08234
952.66352,0.08604
954.59199,0.08790
956.52045,0.08821
958.44892,0.08456
960.37739,0.07902
962.30586,0.07835
964.23433,0.08452
966.16280,0.09328
968.09127,0.10496
970.01974,0.11606
971.94820,0.11550
973.87667,0.10344
975.80514,0.09147
977.73361,0.08628
979.66208,0.08365
981.59055,0.08289
983.51902,0.08711
985.44748,0.09277
987.37595,0.09527
989.30442,0.08989
991.23289,0.08288
993.16136,0.08676
995.08983,0.09636
997.01830,0.10020
998.94677,0.09649
1000.87523,0.09253
1002.80370,0.09586
1004.73217,0.10212
1006.66064,0.10398
1008.58911,0.10258
1010.51758,0.10262
1012.44605,0.10331
1014.37451,0.09671
1016.30298,0.08576
1018.23145,0.08049
1020.15992,0.07437
1022.08839,0.06569
1024.01686,0.06580
1025.94533,0.06407
1027.87380,0.04961
1029.80226,0.04853
1031.73073,0.07492
1033.65920,0.09912
1035.58767,0.10229
1037.51614,0.09770
1039.44461,0.09658
1041.37308,0.09535
1043.30154,0.09340
1045.23001,0.09419
1047.15848,0.09425
1049.08695,0.09020
1051.01542,0.08343
1052.94389,0.07365
1054.87236,0.06641
1056.80083,0.07326
1058.72929,0.08877
1060.65776,0.09620
1062.58623,0.09198
1064.51470,0.08586
1066.44317,0.08735
1068.37164,0.09492
1070.30011,0.10294
1072.22857,0.10376
1074.15704,0.09567
1076.08551,0.09235
1078.01398,0.09366
1079.94245,0.08917
1081.87092,0.08739
1083.79939,0.09186
1085.72786,0.09041
1087.65632,0.08521
1089.58479,0.08716
1091.51326,0.09193
1093.44173,0.09298
1095.37020,0.08786
1097.29867,0.07937
1099.22714,0.07950
1101.15560,0.08733
1103.08407,0.09504
1105.01254,0.09805
1106.94101,0.09529
1108.86948,0.09690
1110.79795,0.10353
1112.72642,0.10834
1114.65489,0.10801
1116.58335,0.10168
1118.51182,0.09721
1120.44029,0.09742
1122.36876,0.09982
1124.29723,0.10056
1126.22570,0.09512
1128.15417,0.08793
1130.08263,0.08382
1132.01110,0.08298
1133.93957,0.08545
1135.86804,0.09036
1137.79651,0.09411
1139.72498,0.09340
1141.65345,0.08998
1143.58191,0.08734
1145.51038,0.08830
1147.43885,0.09250
1149.36732,0.09599
1151.29579,0.09381
1153.22426,0.08719
1155.15273,0.08859
1157.08120,0.10076
1159.00966,0.10870
1160.93813,0.10566
1162.86660,0.10048
1164.79507,0.10201
1166.72354,0.10527
1168.65201,0.09983
1170.58048,0.09138
1172.50894,0.08958
1174.43741,0.09280
1176.36588,0.09813
1178.29435,0.10247
1180.22282,0.10350
1182.15129,0.10155
1184.07976,0.09665
1186.00823,0.09419
1187.93669,0.09659
1189.86516,0.09648
1191.79363,0.09226
1193.72210,0.08973
1195.65057,0.09155
1197.57904,0.09334
1199.50751,0.09219
1201.43597,0.09184
1203.36444,0.09161
1205.29291,0.09104
1207.22138,0.09355
1209.14985,0.09783
1211.07832,0.10108
1213.00679,0.10070
1214.93526,0.09576
1216.86372,0.09010
1218.79219,0.08966
1220.72066,0.09362
1222.64913,0.09569
1224.57760,0.09548
1226.50607,0.09499
1228.43454,0.09415
1230.36300,0.09338
1232.29147,0.09550
1234.21994,0.10073
1236.14841,0.10141
1238.07688,0.09597
1240.00535,0.09281
1241.93382,0.09581
1243.86229,0.10178
1245.79075,0.10684
1247.71922,0.10782
1249.64769,0.10423
1251.57616,0.10046
1253.50463,0.09945
1255.43310,0.09999
1257.36157,0.10070
1259.29003,0.09992
1261.21850,0.09835
1263.14697,0.09791
1265.07544,0.09678
1267.00391,0.09490
1268.93238,0.09502
1270.86085,0.09806
1272.78932,0.10170
1274.71778,0.10356
1276.64625,0.10443
1278.57472,0.10486
1280.50319,0.10226
1282.43166,0.09706
1284.36013,0.09506
1286.28860,0.09649
1288.21706,0.09807
1290.14553,0.10069
1292.07400,0.10257
1294.00247,0.10045
1295.93094,0.09676
1297.85941,0.09654
1299.78788,0.10052
1301.71634,0.10405
1303.64481,0.10085
1305.57328,0.09452
1307.50175,0.09489
1309.43022,0.10005
1311.35869,0.10412
1313.28716,0.10612
1315.21563,0.10721
1317.14409,0.10849
1319.07256,0.10784
1321.00103,0.10514
1322.92950,0.10322
1324.85797,0.10353
1326.78644,0.10405
1328.71491,0.10338
1330.64337,0.10331
1332.57184,0.10312
1334.50031,0.10118
1336.42878,0.09817
1338.35725,0.09648
1340.28572,0.09719
1342.21419,0.09748
1344.14266,0.09501
1346.07112,0.09142
1347.99959,0.09037
1349.92806,0.09337
1351.85653,0.10029
1353.78500,0.10606
1355.71347,0.10647
1357.64194,0.10641
1359.57040,0.10908
1361.49887,0.11210
1363.42734,0.11078
1365.35581,0.10561
1367.28428,0.10269
1369.21275,0.10353
1371.14122,0.10640
1373.06969,0.10822
1374.99815,0.10519
1376.92662,0.10067
1378.85509,0.09935
1380.78356,0.09911
1382.71203,0.09879
1384.64050,0.09984
1386.56897,0.10245
1388.49743,0.10497
1390.42590,0.10690
1392.35437,0.10973
1394.28284,0.11241
1396.21131,0.11244
1398.13978,0.10763
1400.06825,0.09993
1401.99672,0.09741
1403.92518,0.10027
1405.85365,0.10234
1407.78212,0.10222
1409.71059,0.10430
1411.63906,0.11003
1413.56753,0.11602
1415.49600,0.12010
1417.42446,0.12163
1419.35293,0.11798
1421.28140,0.11457
1423.20987,0.11432
1425.13834,0.11192
1427.06681,0.10998
1428.99528,0.11142
1430.92375,0.11261
1432.85221,0.11327
1434.78068,0.11461
1436.70915,0.11627
1438.63762,0.11688
1440.56609,0.11395
1442.49456,0.10828
1444.42303,0.10560
1446.35149,0.10925
1448.27996,0.11340
1450.20843,0.11277
1452.13690,0.11300
1454.06537,0.11857
1455.99384,0.12705
1457.92231,0.12750
1459.85077,0.11698
1461.77924,0.10768
1463.70771,0.10331
1465.63618,0.10383
1467.56465,0.10441
1469.49312,0.10466
1471.42159,0.10756
1473.35006,0.11169
1475.27852,0.11177
1477.20699,0.11146
1479.13546,0.11283
1481.06393,0.11185
1482.99240,0.10833
1484.92087,0.10896
1486.84934,0.11694
1488.77780,0.12527
1490.70627,0.12355
1492.63474,0.11898
1494.56321,0.11801
1496.49168,0.11792
1498.42015,0.11546
1500.34862,0.11125
1502.27709,0.10766
1504.20555,0.10976
1506.13402,0.12329
1508.06249,0.12903
1509.99096,0.11920
1511.91943,0.11345
1513.84790,0.11632
1515.77637,0.12698
1517.70483,0.13475
1519.63330,0.13404
1521.56177,0.12988
1523.49024,0.12887
1525.41871,0.13080
1527.34718,0.12590
1529.27565,0.11651
1531.20412,0.11569
1533.13258,0.12496
1535.06105,0.12872
1536.98952,0.12765
1538.91799,0.13367
1540.84646,0.14121
1542.77493,0.13655
1544.70340,0.12429
1546.63186,0.11218
1548.56033,0.10784
1550.48880,0.11105
1552.41727,0.11845
1554.34574,0.12623
1556.27421,0.13002
1558.20268,0.12945
1560.13115,0.12367
1562.05961,0.11902
1563.98808,0.11779
1565.91655,0.11958
1567.84502,0.12189
1569.77349,0.11840
1571.70196,0.11492
1573.63043,0.11959
1575.55889,0.12417
1577.48736,0.11679
1579.41583,0.10875
1581.34430,0.10809
1583.27277,0.11042
1585.20124,0.11205
1587.12971,0.11298
1589.05818,0.11359
1590.98664,0.11352
1592.91511,0.11242
1594.84358,0.11107
1596.77205,0.10957
1598.70052,0.10922
1600.62899,0.11080
1602.55746,0.11150
1604.48592,0.11138
1606.41439,0.11121
1608.34286,0.10819
1610.27133,0.10456
1612.19980,0.10686
1614.12827,0.11395
1616.05674,0.11755
1617.98521,0.11154
1619.91367,0.10695
1621.84214,0.11036
1623.77061,0.11840
1625.69908,0.12206
1627.62755,0.12068
1629.55602,0.11757
1631.48449,0.11469
1633.41295,0.11664
1635.34142,0.12550
1637.26989,0.12486
1639.19836,0.11668
1641.12683,0.11300
1643.05530,0.11338
1644.98377,0.11689
1646.91223,0.12276
1648.84070,0.12722
1650.76917,0.13330
1652.69764,0.14159
1654.62611,0.12976
1656.55458,0.11690
1658.48305,0.11789
1660.41152,0.12504
1662.33998,0.12756
1664.26845,0.12367
1666.19692,0.12149
1668.12539,0.12450
1670.05386,0.12775
1671.98233,0.12340
1673.91080,0.11812
1675.83926,0.11613
1677.76773,0.11649
1679.69620,0.11819
1681.62467,0.12261
1683.55314,0.13160
1685.48161,0.13245
1687.41008,0.12637
1689.33855,0.12404
1691.26701,0.12255
1693.19548,0.12159
1695.12395,0.12464
1697.05242,0.12911
1698.98089,0.12691
1700.90936,0.12232
1702.83783,0.12453
1704.76629,0.12673
1706.69476,0.12097
1708.62323,0.11302
1710.55170,0.11056
1712.48017,0.11222
1714.40864,0.11511
1716.33711,0.12027
1718.26558,0.12274
1720.19404,0.11646
1722.12251,0.11142
1724.05098,0.11071
1725.97945,0.11011
1727.90792,0.10893
1729.83639,0.10832
1731.76486,0.10989
1733.69332,0.11586
1735.62179,0.11691
1737.55026,0.11536
1739.47873,0.11777
1741.40720,0.11809
1743.33567,0.11561
1745.26414,0.11464
1747.19261,0.11559
1749.12107,0.11963
1751.04954,0.12190
1752.97801,0.11845
1754.90648,0.11519
1756.83495,0.11497
1758.76342,0.11596
1760.69189,0.11541
1762.62035,0.11299
1764.54882,0.11361
1766.47729,0.11937
1768.40576,0.12497
1770.33423,0.12673
1772.26270,0.12560
1774.19117,0.12075
1776.11964,0.11530
1778.04810,0.11263
1779.97657,0.11352
1781.90504,0.11592
1783.83351,0.11640
1785.76198,0.11383
1787.69045,0.11291
1789.61892,0.11770
1791.54738,0.12239
1793.47585,0.11848
1795.40432,0.11110
1797.33279,0.10742
1799.26126,0.10942
1801.18973,0.11105
1803.11820,0.10784
1805.04666,0.10702
1806.97513,0.11036
1808.90360,0.11318
1810.83207,0.11315
1812.76054,0.11109
1814.68901,0.10966
1816.61748,0.11091
1818.54595,0.11387
1820.47441,0.11541
1822.40288,0.11594
1824.33135,0.11903
1826.25982,0.12414
1828.18829,0.12735
1830.11676,0.12635
1832.04523,0.12103
1833.97369,0.11575
1835.90216,0.11386
1837.83063,0.11310
1839.75910,0.11043
1841.68757,0.10946
1843.61604,0.11248
1845.54451,0.11496
1847.47298,0.11467
1849.40144,0.11262
1851.32991,0.10885
1853.25838,0.10522
1855.18685,0.10425
1857.11532,0.10605
1859.04379,0.10780
1860.97226,0.10750
1862.90072,0.10672
1864.82919,0.10709
1866.75766,0.10870
1868.68613,0.11197
1870.61460,0.11327
1872.54307,0.11007
1874.47154,0.10689
1876.40001,0.10732
1878.32847,0.10920
1880.25694,0.10835
1882.18541,0.10617
1884.11388,0.10589
1886.04235,0.10610
1887.97082,0.10638
1889.89929,0.10884
1891.82775,0.11206
1893.75622,0.11378
1895.68469,0.11460
1897.61316,0.11423
1899.54163,0.11225
1901.47010,0.10976
1903.39857,0.10806
1905.32704,0.10833
1907.25550,0.10871
1909.18397,0.10724
1911.11244,0.10509
1913.04091,0.10318
1914.96938,0.10421
1916.89785,0.10894
1918.82632,0.11130
1920.75478,0.11121
1922.68325,0.11307
1924.61172,0.11399
1926.54019,0.11223
1928.46866,0.10883
1930.39713,0.10412
1932.32560,0.10173
1934.25407,0.10392
1936.18253,0.10713
1938.11100,0.10833
1940.03947,0.10933
1941.96794,0.11175
1943.89641,0.11337
1945.82488,0.11210
1947.75335,0.11008
1949.68181,0.10994
1951.61028,0.11047
1953.53875,0.11021
1955.46722,0.11084
1957.39569,0.11267
1959.32416,0.11349
1961.25263,0.11376
1963.18110,0.11517
1965.10956,0.11595
1967.03803,0.11371
1968.96650,0.11093
1970.89497,0.11159
1972.82344,0.11310
1974.75191,0.11047
1976.68038,0.10569
1978.60884,0.10356
1980.53731,0.10353
1982.46578,0.10312
1984.39425,0.10301
1986.32272,0.10487
1988.25119,0.10777
1990.17966,0.10943
1992.10812,0.10899
1994.03659,0.10819
1995.96506,0.10918
1997.89353,0.11055
1999.82200,0.11046
2001.75047,0.11006
2003.67894,0.11009
2005.60741,0.10971
2007.53587,0.10940
2009.46434,0.11040
2011.39281,0.11200
2013.32128,0.11255
2015.24975,0.11160
2017.17822,0.10973
2019.10669,0.10824
2021.03515,0.10873
2022.96362,0.10991
2024.89209,0.10894
2026.82056,0.10713
2028.74903,0.10629
2030.67750,0.10625
2032.60597,0.10799
2034.53444,0.11040
2036.46290,0.11095
2038.39137,0.11029
2040.31984,0.10990
2042.24831,0.10921
2044.17678,0.10726
2046.10525,0.10547
2048.03372,0.10637
2049.96218,0.11003
2051.89065,0.11391
2053.81912,0.11550
2055.74759,0.11524
2057.67606,0.11472
2059.60453,0.11383
2061.53300,0.11278
2063.46147,0.11152
2065.38993,0.11035
2067.31840,0.11099
2069.24687,0.11279
2071.17534,0.11496
2073.10381,0.11696
2075.03228,0.11791
2076.96075,0.11843
2078.88921,0.11742
2080.81768,0.11561
2082.74615,0.11564
2084.67462,0.11648
2086.60309,0.11698
2088.53156,0.11723
2090.46003,0.11666
2092.38850,0.11450
2094.31696,0.11111
2096.24543,0.10949
2098.17390,0.11066
2100.10237,0.11132
2102.03084,0.10971
2103.95931,0.10694
2105.88778,0.10595
2107.81624,0.10821
2109.74471,0.11082
2111.67318,0.11088
2113.60165,0.10784
2115.53012,0.10473
2117.45859,0.10541
2119.38706,0.10863
2121.31553,0.10960
2123.24399,0.10757
2125.17246,0.10590
2127.10093,0.10492
2129.02940,0.10471
2130.95787,0.10727
2132.88634,0.11166
2134.81481,0.11449
2136.74327,0.11370
2138.67174,0.11015
2140.60021,0.10731
2142.52868,0.10852
2144.45715,0.11114
2146.38562,0.11213
2148.31409,0.11374
2150.24255,0.11607
2152.17102,0.11739
2154.09949,0.11816
2156.02796,0.11815
2157.95643,0.11616
2159.88490,0.11487
2161.81337,0.11615
2163.74184,0.11593
2165.67030,0.11417
2167.59877,0.11524
2169.52724,0.11854
2171.45571,0.12036
2173.38418,0.11852
2175.31265,0.11508
2177.24112,0.11470
2179.16958,0.11685
2181.09805,0.11671
2183.02652,0.11471
2184.95499,0.11293
2186.88346,0.11058
2188.81193,0.11020
2190.74040,0.11171
2192.66887,0.11047
2194.59733,0.10730
2196.52580,0.10592
2198.45427,0.10689
2200.38274,0.10734
2202.31121,0.10646
2204.23968,0.10752
2206.16815,0.11006
2208.09661,0.11075
2210.02508,0.11030
2211.95355,0.11075
2213.88202,0.11176
2215.81049,0.11263
2217.73896,0.11379
2219.66743,0.11540
2221.59590,0.11560
2223.52436,0.11304
2225.45283,0.11004
2227.38130,0.10932
2229.30977,0.11108
2231.23824,0.11354
2233.16671,0.11520
2235.09518,0.11703
2237.02364,0.11902
2238.95211,0.11904
2240.88058,0.11675
2242.80905,0.11364
2244.73752,0.11209
2246.66599,0.11144
2248.59446,0.11020
2250.52293,0.11122
2252.45139,0.11393
2254.37986,0.11469
2256.30833,0.11394
2258.23680,0.11400
2260.16527,0.11506
2262.09374,0.11540
2264.02221,0.11540
2265.95067,0.11460
2267.87914,0.11214
2269.80761,0.11069
2271.73608,0.10990
2273.66455,0.10794
2275.59302,0.10709
2277.52149,0.10935
2279.44996,0.11327
2281.37842,0.11478
2283.30689,0.11209
2285.23536,0.10865
2287.16383,0.10770
2289.09230,0.10872
2291.02077,0.10880
2292.94924,0.10584
2294.87770,0.10371
2296.80617,0.10804
2298.73464,0.11445
2300.66311,0.11462
2302.59158,0.11025
2304.52005,0.10779
2306.44852,0.10877
2308.37699,0.10977
2310.30545,0.10866
2312.23392,0.10748
2314.16239,0.10887
2316.09086,0.11408
2318.01933,0.11968
2319.94780,0.11963
2321.87627,0.11669
2323.80473,0.11900
2325.73320,0.12376
2327.66167,0.12776
2329.59014,0.12996
2331.51861,0.12160
2333.44708,0.10979
2335.37555,0.10529
2337.30401,0.10108
2339.23248,0.09250
2341.16095,0.08815
2343.08942,0.09955
2345.01789,0.11383
2346.94636,0.11695
2348.87483,0.11822
2350.80330,0.12262
2352.73176,0.12940
2354.66023,0.13568
2356.58870,0.12795
2358.51717,0.10073
2360.44564,0.08696
2362.37411,0.10943
2364.30258,0.13521
2366.23104,0.12949
2368.15951,0.11135
2370.08798,0.10834
2372.01645,0.11540
2373.94492,0.11800
2375.87339,0.11415
2377.80186,0.11020
2379.73033,0.10782
2381.65879,0.10764
2383.58726,0.11111
2385.51573,0.11496
2387.44420,0.11597
2389.37267,0.11638
2391.30114,0.11737
2393.22961,0.11551
2395.15807,0.11121
2397.08654,0.10919
2399.01501,0.11016
2400.94348,0.11147
2402.87195,0.11208
2404.80042,0.11325
2406.72889,0.11571
2408.65736,0.11752
2410.58582,0.11658
2412.51429,0.11458
2414.44276,0.11439
2416.37123,0.11524
2418.29970,0.11447
2420.22817,0.11218
2422.15664,0.11070
2424.08510,0.11138
2426.01357,0.11294
2427.94204,0.11266
2429.87051,0.11237
2431.79898,0.11445
2433.72745,0.11597
2435.65592,0.11503
2437.58439,0.11168
2439.51285,0.10853
2441.44132,0.10979
2443.36979,0.11382
2445.29826,0.11640
2447.22673,0.11809
2449.15520,0.12041
2451.08367,0.12077
2453.01213,0.11802
2454.94060,0.11630
2456.86907,0.11749
2458.79754,0.11716
2460.72601,0.11369
2462.65448,0.11096
2464.58295,0.10997
2466.51142,0.11018
2468.43988,0.11275
2470.36835,0.11700
2472.29682,0.11922
2474.22529,0.11667
2476.15376,0.11254
2478.08223,0.11286
2480.01070,0.11717
2481.93916,0.11865
2483.86763,0.11656
2485.79610,0.11672
2487.72457,0.11825
2489.65304,0.11693
2491.58151,0.11380
2493.50998,0.11127
2495.43844,0.11079
2497.36691,0.11253
2499.29538,0.11460
2501.22385,0.11591
2503.15232,0.11723
2505.08079,0.11903
2507.00926,0.12043
2508.93773,0.12131
2510.86619,0.12152
2512.79466,0.11907
2514.72313,0.11520
2516.65160,0.11396
2518.58007,0.11525
2520.50854,0.11627
2522.43701,0.11627
2524.36547,0.11593
2526.29394,0.11546
2528.22241,0.11431
2530.15088,0.11302
2532.07935,0.11342
2534.00782,0.11556
2535.93629,0.11752
2537.86476,0.11776
2539.79322,0.11648
2541.72169,0.11600
2543.65016,0.11838
2545.57863,0.12199
2547.50710,0.12258
2549.43557,0.12047
2551.36404,0.11948
2553.29250,0.11865
2555.22097,0.11621
2557.14944,0.11442
2559.07791,0.11444
2561.00638,0.11541
2562.93485,0.11598
2564.86332,0.11458
2566.79179,0.11290
2568.72025,0.11405
2570.64872,0.11530
2572.57719,0.11264
2574.50566,0.10871
2576.43413,0.10930
2578.36260,0.11518
2580.29107,0.11883
2582.21953,0.11655
2584.14800,0.11356
2586.07647,0.11314
2588.00494,0.11489
2589.93341,0.11632
2591.86188,0.11524
2593.79035,0.11312
2595.71882,0.11282
2597.64728,0.11392
2599.57575,0.11355
2601.50422,0.11189
2603.43269,0.11107
2605.36116,0.11306
2607.28963,0.11718
2609.21810,0.11946
2611.14656,0.12017
2613.07503,0.12046
2615.00350,0.11831
2616.93197,0.11561
2618.86044,0.11455
2620.78891,0.11537
2622.71738,0.11906
2624.64585,0.12137
2626.57431,0.11850
2628.50278,0.11399
2630.43125,0.11205
2632.35972,0.11204
2634.28819,0.11147
2636.21666,0.11226
2638.14513,0.11531
2640.07359,0.11853
2642.00206,0.12047
2643.93053,0.11988
2645.85900,0.11804
2647.78747,0.11716
2649.71594,0.11882
2651.64441,0.12123
2653.57288,0.12116
2655.50134,0.12036
2657.42981,0.12088
2659.35828,0.12225
2661.28675,0.12310
2663.21522,0.12297
2665.14369,0.12210
2667.07216,0.11823
2669.00062,0.11293
2670.92909,0.11086
2672.85756,0.11238
2674.78603,0.11625
2676.71450,0.12032
2678.64297,0.12216
2680.57144,0.12203
2682.49990,0.11991
2684.42837,0.11602
2686.35684,0.11364
2688.28531,0.11471
2690.21378,0.11667
2692.14225,0.11772
2694.07072,0.11983
2695.99919,0.12340
2697.92765,0.12542
2699.85612,0.12457
2701.78459,0.12262
2703.71306,0.12124
2705.64153,0.12014
2707.57000,0.11896
2709.49847,0.11925
2711.42693,0.12163
2713.35540,0.12398
2715.28387,0.12401
2717.21234,0.12305
2719.14081,0.12248
2721.06928,0.12094
2722.99775,0.11899
2724.92622,0.11863
2726.85468,0.11981
2728.78315,0.11985
2730.71162,0.11928
2732.64009,0.12177
2734.56856,0.12427
2736.49703,0.12292
2738.42550,0.11944
2740.35396,0.11510
2742.28243,0.11196
2744.21090,0.11423
2746.13937,0.11975
2748.06784,0.12231
2749.99631,0.12315
2751.92478,0.12327
2753.85325,0.11985
2755.78171,0.11675
2757.71018,0.11840
2759.63865,0.12294
2761.56712,0.12852
2763.49559,0.13310
2765.42406,0.13463
2767.35253,0.13386
2769.28099,0.13015
2771.20946,0.12394
2773.13793,0.12031
2775.06640,0.12070
2776.99487,0.12174
2778.92334,0.12264
2780.85181,0.12294
2782.78028,0.12279
2784.70874,0.12518
2786.63721,0.12852
2788.56568,0.12826
2790.49415,0.12589
2792.42262,0.12447
2794.35109,0.12267
2796.27956,0.11978
2798.20802,0.11665
2800.13649,0.11655
2802.06496,0.12193
2803.99343,0.12739
2805.92190,0.13000
2807.85037,0.13110
2809.77884,0.12953
2811.70731,0.12673
2813.63577,0.12625
2815.56424,0.12807
2817.49271,0.12851
2819.42118,0.12732
2821.34965,0.12655
2823.27812,0.12489
2825.20659,0.12261
2827.13505,0.12079
2829.06352,0.11863
2830.99199,0.11806
2832.92046,0.12064
2834.84893,0.12422
2836.77740,0.12763
2838.70587,0.12949
2840.63433,0.12806
2842.56280,0.12512
2844.49127,0.12334
2846.41974,0.12460
2848.34821,0.12945
2850.27668,0.13452
2852.20515,0.13524
2854.13362,0.13191
2856.06208,0.12681
2857.99055,0.12158
2859.91902,0.12177
2861.84749,0.12772
2863.77596,0.12945
2865.70443,0.12469
2867.63290,0.12296
2869.56136,0.12814
2871.48983,0.13336
2873.41830,0.13255
2875.34677,0.12906
2877.27524,0.12859
2879.20371,0.12981
2881.13218,0.12950
2883.06065,0.12878
2884.98911,0.12996
2886.91758,0.13269
2888.84605,0.13402
2890.77452,0.13274
2892.70299,0.13170
2894.63146,0.13204
2896.55993,0.13189
2898.48839,0.13151
2900.41686,0.13101
2902.34533,0.13063
2904.27380,0.13043
2906.20227,0.12897
2908.13074,0.12824
2910.05921,0.12884
2911.98768,0.12828
2913.91614,0.12700
2915.84461,0.12505
2917.77308,0.12169
2919.70155,0.11923
2921.63002,0.12021
2923.55849,0.12365
2925.48696,0.12649
2927.41542,0.12797
2929.34389,0.12983
2931.27236,0.13057
2933.20083,0.12832
2935.12930,0.12548
2937.05777,0.12334
2938.98624,0.12242
2940.91471,0.12464
2942.84317,0.12802
2944.77164,0.12597
2946.70011,0.12103
2948.62858,0.12443
2950.55705,0.13215
2952.48552,0.13176
2954.41399,0.12518
2956.34245,0.11904
2958.27092,0.11670
2960.19939,0.12150
2962.12786,0.12953
2964.05633,0.13334
2965.98480,0.13169
2967.91327,0.12758
2969.84174,0.12563
2971.77020,0.12803
2973.69867,0.13227
2975.62714,0.13255
2977.55561,0.12705
2979.48408,0.12132
2981.41255,0.11696
2983.34102,0.11477
2985.26948,0.11634
2987.19795,0.11543
2989.12642,0.11275
2991.05489,0.11575
2992.98336,0.12056
2994.91183,0.12173
2996.84030,0.12256
2998.76877,0.12772
3000.69723,0.13495
3002.62570,0.13767
3004.55417,0.13365
3006.48264,0.12735
3008.41111,0.12578
3010.33958,0.12632
3012.26805,0.12038
3014.19651,0.10868
3016.12498,0.09955
3018.05345,0.10296
3019.98192,0.11678
3021.91039,0.12665
3023.83886,0.13052
3025.76733,0.13332
3027.69579,0.13394
3029.62426,0.13444
3031.55273,0.13684
3033.48120,0.13929
3035.40967,0.13997
3037.33814,0.13715
3039.26661,0.13205
3041.19508,0.12696
3043.12354,0.12549
3045.05201,0.12914
3046.98048,0.13206
3048.90895,0.13088
3050.83742,0.12939
3052.76589,0.12955
3054.69436,0.12792
3056.62282,0.12476
3058.55129,0.12507
3060.47976,0.12783
3062.40823,0.12825
3064.33670,0.12515
3066.26517,0.12255
3068.19364,0.12392
3070.12211,0.12619
3072.05057,0.12862
3073.97904,0.13171
3075.90751,0.13188
3077.83598,0.13086
3079.76445,0.13168
3081.69292,0.13323
3083.62139,0.13261
3085.54985,0.12787
3087.47832,0.12561
3089.40679,0.13077
3091.33526,0.13383
3093.26373,0.12863
3095.19220,0.12505
3097.12067,0.12883
3099.04914,0.13453
3100.97760,0.13619
3102.90607,0.13003
3104.83454,0.12303
3106.76301,0.12372
3108.69148,0.12818
3110.61995,0.12817
3112.54842,0.12211
3114.47688,0.11988
3116.40535,0.12656
3118.33382,0.13149
3120.26229,0.12829
3122.19076,0.12378
3124.11923,0.12363
3126.04770,0.12418
3127.97617,0.12174
3129.90463,0.12017
3131.83310,0.12438
3133.76157,0.13308
3135.69004,0.14061
3137.61851,0.14388
3139.54698,0.14297
3141.47545,0.13790
3143.40391,0.13239
3145.33238,0.13077
3147.26085,0.13111
3149.18932,0.13153
3151.11779,0.13262
3153.04626,0.13369
3154.97473,0.13396
3156.90320,0.13307
3158.83166,0.13148
3160.76013,0.13085
3162.68860,0.13288
3164.61707,0.13672
3166.54554,0.13588
3168.47401,0.13067
3170.40248,0.13216
3172.33094,0.13978
3174.25941,0.14242
3176.18788,0.13947
3178.11635,0.13910
3180.04482,0.14158
3181.97329,0.14125
3183.90176,0.13783
3185.83022,0.13265
3187.75869,0.12877
3189.68716,0.12828
3191.61563,0.12807
3193.54410,0.12757
3195.47257,0.12850
3197.40104,0.12843
3199.32951,0.12548
3201.25797,0.12522
3203.18644,0.13076
3205.11491,0.13491
3207.04338,0.13245
3208.97185,0.12641
3210.90032,0.12144
3212.82879,0.12201
3214.75725,0.12672
3216.68572,0.12967
3218.61419,0.13242
3220.54266,0.13544
3222.47113,0.13528
3224.39960,0.13231
3226.32807,0.12871
3228.25654,0.12671
3230.18500,0.12372
3232.11347,0.12074
3234.04194,0.12189
3235.97041,0.12242
3237.89888,0.12224
3239.82735,0.12448
3241.75582,0.12764
3243.68428,0.13228
3245.61275,0.13526
3247.54122,0.13451
3249.46969,0.13427
3251.39816,0.13494
3253.32663,0.13355
3255.25510,0.13042
3257.18357,0.12796
3259.11203,0.12585
3261.04050,0.12429
3262.96897,0.12594
3264.89744,0.13005
3266.82591,0.13312
3268.75438,0.13371
3270.68285,0.13252
3272.61131,0.13112
3274.53978,0.12976
3276.46825,0.12929
3278.39672,0.13329
3280.32519,0.13861
3282.25366,0.13652
3284.18213,0.12969
3286.11060,0.12898
3288.03906,0.13384
3289.96753,0.13811
3291.89600,0.13991
3293.82447,0.13683
3295.75294,0.13255
3297.68141,0.13346
3299.60988,0.13599
3301.53834,0.13286
3303.46681,0.12704
3305.39528,0.12663
3307.32375,0.12904
3309.25222,0.13032
3311.18069,0.13131
3313.10916,0.12953
3315.03763,0.12626
3316.96609,0.12791
3318.89456,0.13325
3320.82303,0.13457
3322.75150,0.13204
3324.67997,0.13326
3326.60844,0.13791
3328.53691,0.13749
3330.46537,0.13420
3332.39384,0.13610
3334.32231,0.13823
3336.25078,0.13708
3338.17925,0.13830
3340.10772,0.13960
3342.03619,0.13537
3343.96466,0.12998
3345.89312,0.12967
3347.82159,0.13262
3349.75006,0.13309
3351.67853,0.13124
3353.60700,0.13140
3355.53547,0.13351
3357.46394,0.13574
3359.39240,0.13810
3361.32087,0.13987
3363.24934,0.13858
3365.17781,0.13290
3367.10628,0.12764
3369.03475,0.12934
3370.96322,0.13374
3372.89168,0.13324
3374.82015,0.13074
3376.74862,0.13106
3378.67709,0.13383
3380.60556,0.13672
3382.53403,0.13809
3384.46250,0.13801
3386.39097,0.13791
3388.31943,0.13884
3390.24790,0.14043
3392.17637,0.14319
3394.10484,0.14453
3396.03331,0.14038
3397.96178,0.13517
3399.89025,0.13345
3401.81871,0.13159
3403.74718,0.12959
3405.67565,0.13127
3407.60412,0.13296
3409.53259,0.12961
3411.46106,0.12523
3413.38953,0.12493
3415.31800,0.12647
3417.24646,0.12847
3419.17493,0.13150
3421.10340,0.13345
3423.03187,0.13459
3424.96034,0.13374
3426.88881,0.12790
3428.81728,0.12172
3430.74574,0.12068
3432.67421,0.12301
3434.60268,0.12479
3436.53115,0.12270
3438.45962,0.11752
3440.38809,0.11533
3442.31656,0.12144
3444.24503,0.13247
3446.17349,0.13850
3448.10196,0.13713
3450.03043,0.13295
3451.95890,0.12842
3453.88737,0.12664
3455.81584,0.12756
3457.74431,0.12755
3459.67277,0.12886
3461.60124,0.13349
3463.52971,0.13598
3465.45818,0.13312
3467.38665,0.12898
3469.31512,0.12579
3471.24359,0.11865
3473.17206,0.10980
3475.10052,0.11093
3477.02899,0.12101
3478.95746,0.12599
3480.88593,0.12065
3482.81440,0.11472
3484.74287,0.11496
3486.67134,0.11523
3488.59980,0.11267
3490.52827,0.11330
3492.45674,0.11646
3494.38521,0.11538
3496.31368,0.11192
3498.24215,0.11219
3500.17062,0.11446
3502.09909,0.11458
3504.02755,0.11538
3505.95602,0.11868
3507.88449,0.11960
3509.81296,0.11810
3511.74143,0.11742
3513.66990,0.11643
3515.59837,0.11512
3517.52683,0.11530
3519.45530,0.11590
3521.38377,0.11709
3523.31224,0.11900
3525.24071,0.11706
3527.16918,0.11039
3529.09765,0.10415
3531.02611,0.10120
3532.95458,0.10000
3534.88305,0.09921
3536.81152,0.09788
3538.73999,0.09668
3540.66846,0.09998
3542.59693,0.10862
3544.52540,0.11557
3546.45386,0.11518
3548.38233,0.11146
3550.31080,0.10848
3552.23927,0.10618
3554.16774,0.10502
3556.09621,0.10365
3558.02468,0.10073
3559.95314,0.10048
3561.88161,0.10577
3563.81008,0.11129
3565.73855,0.11280
3567.66702,0.10995
3569.59549,0.10535
3571.52396,0.10218
3573.45243,0.10058
3575.38089,0.09871
3577.30936,0.09634
3579.23783,0.09632
3581.16630,0.09754
3583.09477,0.09777
3585.02324,0.10081
3586.95171,0.10953
3588.88017,0.11338
3590.80864,0.10513
3592.73711,0.09515
3594.66558,0.09313
3596.59405,0.09505
3598.52252,0.09372
3600.45099,0.09596
3602.37946,0.10189
3604.30792,0.10342
3606.23639,0.10138
3608.16486,0.09816
3610.09333,0.09917
3612.02180,0.10557
3613.95027,0.10564
3615.87874,0.10097
3617.80720,0.10302
3619.73567,0.10300
3621.66414,0.09256
3623.59261,0.08360
3625.52108,0.08073
3627.44955,0.08371
3629.37802,0.09345
3631.30649,0.10095
3633.23495,0.09995
3635.16342,0.09221
3637.09189,0.08597
3639.02036,0.08555
3640.94883,0.08637
3642.87730,0.08574
3644.80577,0.08636
3646.73423,0.09408
3648.66270,0.10660
3650.59117,0.10432
3652.51964,0.09804
3654.44811,0.09704
3656.37658,0.09369
3658.30505,0.08702
3660.23352,0.08391
3662.16198,0.08588
3664.09045,0.08953
3666.01892,0.09045
3667.94739,0.09073
3669.87586,0.09681
3671.80433,0.10330
3673.73280,0.10138
3675.66126,0.09434
3677.58973,0.09124
3679.51820,0.08788
3681.44667,0.08318
3683.37514,0.08312
3685.30361,0.08774
3687.23208,0.09438
3689.16055,0.09655
3691.08901,0.08882
3693.01748,0.08237
3694.94595,0.08090
3696.87442,0.08137
3698.80289,0.08121
3700.73136,0.07796
3702.65983,0.07297
3704.58829,0.07190
3706.51676,0.07586
3708.44523,0.08496
3710.37370,0.09649
3712.30217,0.09580
3714.23064,0.08513
3716.15911,0.08163
3718.08757,0.08605
3720.01604,0.08905
3721.94451,0.08679
3723.87298,0.08561
3725.80145,0.08657
3727.72992,0.08452
3729.65839,0.08096
3731.58686,0.08300
3733.51532,0.09465
3735.44379,0.10447
3737.37226,0.09926
3739.30073,0.09192
3741.22920,0.09096
3743.15767,0.09286
3745.08614,0.09209
3747.01460,0.09160
3748.94307,0.09763
3750.87154,0.10595
3752.80001,0.10227
3754.72848,0.09267
3756.65695,0.08906
3758.58542,0.09092
3760.51389,0.08821
3762.44235,0.08197
3764.37082,0.07683
3766.29929,0.07293
3768.22776,0.07213
3770.15623,0.07417
3772.08470,0.07779
3774.01317,0.08173
3775.94163,0.08510
3777.87010,0.08460
3779.79857,0.07835
3781.72704,0.07596
3783.65551,0.08035
3785.58398,0.08366
3787.51245,0.08167
3789.44092,0.07680
3791.36938,0.07480
3793.29785,0.07859
3795.22632,0.08360
3797.15479,0.08497
3799.08326,0.08418
3801.01173,0.08169
3802.94020,0.07614
3804.86866,0.07360
3806.79713,0.07474
3808.72560,0.07694
3810.65407,0.08073
3812.58254,0.08538
3814.51101,0.08841
3816.43948,0.08945
3818.36795,0.08939
3820.29641,0.08568
3822.22488,0.07811
3824.15335,0.07337
3826.08182,0.07174
3828.01029,0.07326
3829.93876,0.07381
3831.86723,0.07163
3833.79569,0.07561
3835.72416,0.09035
3837.65263,0.10661
3839.58110,0.10576
3841.50957,0.09553
3843.43804,0.09260
3845.36651,0.09051
3847.29498,0.08576
3849.22344,0.08545
3851.15191,0.09080
3853.08038,0.09064
3855.00885,0.07648
3856.93732,0.06487
3858.86579,0.05995
3860.79426,0.06323
3862.72272,0.07090
3864.65119,0.07562
3866.57966,0.08036
3868.50813,0.08679
3870.43660,0.08599
3872.36507,0.07748
3874.29354,0.07362
3876.22200,0.07596
3878.15047,0.07890
3880.07894,0.07818
3882.00741,0.07496
3883.93588,0.07622
3885.86435,0.07984
3887.79282,0.07991
3889.72129,0.07913
3891.64975,0.07876
3893.57822,0.07935
3895.50669,0.08429
3897.43516,0.09068
3899.36363,0.09145
3901.29210,0.08692
3903.22057,0.08263
3905.14903,0.07605
3907.07750,0.06928
3909.00597,0.06864
3910.93444,0.07405
3912.86291,0.07838
3914.79138,0.07432
3916.71985,0.06721
3918.64832,0.07098
3920.57678,0.08115
3922.50525,0.08480
3924.43372,0.08117
3926.36219,0.07690
3928.29066,0.07563
3930.21913,0.07353
3932.14760,0.06943
3934.07606,0.06831
3936.00453,0.07050
3937.93300,0.07262
3939.86147,0.07388
3941.78994,0.07735
3943.71841,0.08134
3945.64688,0.07886
3947.57535,0.07072
3949.50381,0.06373
3951.43228,0.06540
3953.36075,0.07281
3955.28922,0.07492
3957.21769,0.06891
3959.14616,0.06120
3961.07463,0.05853
3963.00309,0.06299
3964.93156,0.06841
3966.86003,0.06733
3968.78850,0.06169
3970.71697,0.05865
3972.64544,0.06057
3974.57391,0.06468
3976.50238,0.06628
3978.43084,0.06541
3980.35931,0.06531
3982.28778,0.06448
3984.21625,0.06372
3986.14472,0.06486
3988.07319,0.06568
3990.00166,0.06838
3991.93012,0.07337
3993.85859,0.07287
3995.78706,0.06673
3997.71553,0.06532
3999.64400,0.06949
4001.57247,0.07156
4003.50094,0.07069
4005.42941,0.06836
4007.35787,0.06657
4009.28634,0.06629
4011.21481,0.06295
4013.14328,0.05922
4015.07175,0.06058
4017.00022,0.06360
4018.92869,0.06349
4020.85715,0.05880
4022.78562,0.05469
4024.71409,0.05726
4026.64256,0.06399
4028.57103,0.06978
4030.49950,0.07017
4032.42797,0.06339
4034.35644,0.05634
4036.28490,0.05421
4038.21337,0.05522
4040.14184,0.05994
4042.07031,0.06573
4043.99878,0.06690
4045.92725,0.06558
4047.85572,0.06406
4049.78418,0.06118
4051.71265,0.05868
4053.64112,0.05892
4055.56959,0.05936
4057.49806,0.05551
4059.42653,0.05016
4061.35500,0.04887
4063.28346,0.05197
4065.21193,0.05523
4067.14040,0.05473
4069.06887,0.05424
4070.99734,0.05960
4072.92581,0.06672
4074.85428,0.06866
4076.78275,0.06570
4078.71121,0.06064
4080.63968,0.05856
4082.56815,0.06121
4084.49662,0.06211
4086.42509,0.06153
4088.35356,0.06419
4090.28203,0.06562
4092.21049,0.06275
4094.13896,0.05992
4096.06743,0.06009
4097.99590,0.06161
4099.92437,0.05908
4101.85284,0.05334
4103.78131,0.05222
4105.70978,0.05559
4107.63824,0.05603
4109.56671,0.05124
4111.49518,0.04556
4113.42365,0.04185
4115.35212,0.03961
4117.28059,0.04018
4119.20906,0.04460
4121.13752,0.05138
4123.06599,0.05856
4124.99446,0.06169
4126.92293,0.05941
4128.85140,0.05714
4130.77987,0.05468
4132.70834,0.04984
4134.63681,0.04626
4136.56527,0.04647
4138.49374,0.05094
4140.42221,0.05539
4142.35068,0.05458
4144.27915,0.05269
4146.20762,0.05243
4148.13609,0.05060
4150.06455,0.05217
4151.99302,0.05934
4153.92149,0.06503
4155.84996,0.06580
4157.77843,0.06153
4159.70690,0.05598
4161.63537,0.05257
4163.56384,0.05090
4165.49230,0.05304
4167.42077,0.05881
4169.34924,0.06331
4171.27771,0.06205
4173.20618,0.05436
4175.13465,0.04610
4177.06312,0.04643
4178.99158,0.05392
4180.92005,0.05880
4182.84852,0.05817
4184.77699,0.05544
4186.70546,0.05321
4188.63393,0.05093
4190.56240,0.04966
4192.49087,0.05108
4194.41933,0.05165
4196.34780,0.04911
4198.27627,0.04432
4200.20474,0.03734
4202.13321,0.03393
4204.06168,0.03870
4205.99015,0.04475
4207.91861,0.04622
4209.84708,0.04458
4211.77555,0.04544
4213.70402,0.04946
4215.63249,0.04909
4217.56096,0.04602
4219.48943,0.04776
4221.41789,0.05153
4223.34636,0.05301
4225.27483,0.05344
4227.20330,0.05023
4229.13177,0.04335
4231.06024,0.04081
4232.98871,0.04208
4234.91718,0.04025
4236.84564,0.03379
4238.77411,0.02788
4240.70258,0.02903
4242.63105,0.03337
4244.55952,0.03446
4246.48799,0.03517
4248.41646,0.03834
4250.34492,0.04055
4252.27339,0.04063
4254.20186,0.04297
4256.13033,0.04891
4258.05880,0.05245
4259.98727,0.04952
4261.91574,0.04444
4263.84421,0.04049
4265.77267,0.03457
4267.70114,0.02918
4269.62961,0.03226
4271.55808,0.04158
4273.48655,0.04858
4275.41502,0.04877
4277.34349,0.04326
4279.27195,0.04047
4281.20042,0.04516
4283.12889,0.05100
4285.05736,0.05195
4286.98583,0.04700
4288.91430,0.03769
4290.84277,0.03015
4292.77124,0.03001
4294.69970,0.03553
4296.62817,0.03900
4298.55664,0.03637
4300.48511,0.03594
4302.41358,0.03903
4304.34205,0.03543
4306.27052,0.03086
4308.19898,0.03439
4310.12745,0.03840
4312.05592,0.04008
4313.98439,0.04374
4315.91286,0.04512
4317.84133,0.04067
4319.76980,0.03396
4321.69827,0.02681
4323.62673,0.02255
4325.55520,0.02607
4327.48367,0.03246
4329.41214,0.03523
4331.34061,0.03425
4333.26908,0.03272
4335.19755,0.03465
4337.12601,0.03645
4339.05448,0.03647
4340.98295,0.03893
4342.91142,0.04064
4344.83989,0.03900
4346.76836,0.03594
4348.69683,0.02800
4350.62530,0.01738
4352.55376,0.01827
4354.48223,0.02661
4356.41070,0.02397
4358.33917,0.01736
4360.26764,0.02185
4362.19611,0.03005
4364.12458,0.02721
4366.05304,0.01702
4367.98151,0.01335
4369.90998,0.01720
4371.83845,0.02343
4373.76692,0.02789
4375.69539,0.02797
4377.62386,0.02606
4379.55232,0.02422
4381.48079,0.02580
4383.40926,0.03216
4385.33773,0.04060
4387.26620,0.04932
4389.19467,0.04890
4391.12314,0.03618
4393.05161,0.02464
4394.98007,0.01899
4396.90854,0.01432
4398.83701,0.01281
4400.76548,0.01766
4402.69395,0.02409
4404.62242,0.02719
4406.55089,0.02753
4408.47935,0.02605
4410.40782,0.02354
4412.33629,0.02676
4414.26476,0.03615
4416.19323,0.03528
4418.12170,0.02514
4420.05017,0.02026
4421.97864,0.01710
4423.90710,0.01623
4425.83557,0.02064
4427.76404,0.01859
4429.69251,0.01007
4431.62098,0.01270
4433.54945,0.02252
4435.47792,0.02177
4437.40638,0.01997
4439.33485,0.02339
4441.26332,0.02017
4443.19179,0.01397
4445.12026,0.01426
4447.04873,0.01862
4448.97720,0.02203
4450.90567,0.02308
4452.83413,0.02214
4454.76260,0.02118
4456.69107,0.01878
4458.61954,0.01394
4460.54801,0.01004
4462.47648,0.00553
4464.40495,0.00096
4466.33341,0.00121
4468.26188,0.00624
4470.19035,0.01049
4472.11882,0.00880
4474.04729,0.00652
4475.97576,0.01095
4477.90423,0.01783
4479.83270,0.01938
4481.76116,0.01642
4483.68963,0.01452
4485.61810,0.01472
4487.54657,0.01215
4489.47504,0.00597
4491.40351,0.00520
4493.33198,0.01027
4495.26044,0.01311
4497.18891,0.01501
4499.11738,0.01704
4501.04585,0.01827
4502.97432,0.02032
4504.90279,0.02030
4506.83126,0.01803
4508.75973,0.01801
4510.68819,0.01688
4512.61666,0.01133
4514.54513,0.00807
4516.47360,0.00943
4518.40207,0.01062
4520.33054,0.01202
4522.25901,0.01167
4524.18747,0.00670
4526.11594,0.00325
4528.04441,0.00425
4529.97288,0.00851
4531.90135,0.01501
4533.82982,0.01960
4535.75829,0.01807
4537.68676,0.01148
4539.61522,0.00826
4541.54369,0.01202
4543.47216,0.01312
4545.40063,0.00515
4547.32910,-0.00374
4549.25757,-0.00867
4551.18604,-0.00978
4553.11450,-0.00472
4555.04297,-0.00013
4556.97144,0.00081
4558.89991,0.00476
4560.82838,0.01145
4562.75685,0.01680
4564.68532,0.02173
4566.61378,0.02403
4568.54225,0.01526
4570.47072,0.00009
4572.39919,-0.00482
4574.32766,0.00448
4576.25613,0.01756
4578.18460,0.02448
4580.11307,0.02136
4582.04153,0.01186
4583.97000,0.00323
4585.89847,0.00285
4587.82694,0.00974
4589.75541,0.01207
4591.68388,0.00947
4593.61235,0.01080
4595.54081,0.01131
4597.46928,0.00217
4599.39775,-0.00855
4601.32622,-0.01229
4603.25469,-0.01854
4605.18316,-0.02573
4607.11163,-0.01527
4609.04010,0.00255
4610.96856,0.00376
4612.89703,-0.00279
4614.82550,-0.00292
4616.75397,0.00305
4618.68244,0.01509
4620.61091,0.02447
4622.53938,0.01935
4624.46784,0.00109
4626.39631,-0.01548
4628.32478,-0.02078
4630.25325,-0.01957
4632.18172,-0.01450
4634.11019,-0.00141
4636.03866,0.01378
4637.96713,0.01315
4639.89559,0.00206
4641.82406,0.00003
4643.75253,0.00392
4645.68100,0.00757
4647.60947,0.01334
4649.53794,0.01284
4651.46641,0.00160
4653.39487,-0.00683
4655.32334,-0.00500
4657.25181,0.00275
4659.18028,0.01255
4661.10875,0.01531
4663.03722,0.00665
4664.96569,-0.00063
4666.89416,0.00380
4668.82262,0.00835
4670.75109,0.00457
4672.67956,0.00408
4674.60803,0.01293
4676.53650,0.01726
4678.46497,0.00993
4680.39344,0.00751
4682.32190,0.01874
4684.25037,0.02703
4686.17884,0.02278
4688.10731,0.01414
4690.03578,0.00962
4691.96425,0.00914
4693.89272,0.00230
4695.82119,-0.01282
4697.74965,-0.02230
4699.67812,-0.02294
4701.60659,-0.01901
4703.53506,-0.01304
4705.46353,-0.00943
4707.39200,-0.00825
4709.32047,-0.00999
4711.24893,-0.01379
4713.17740,-0.01356
4715.10587,-0.00918
4717.03434,-0.00039
4718.96281,0.01370
4720.89128,0.01932
4722.81975,0.00363
4724.74821,-0.01660
4726.67668,-0.01949
4728.60515,-0.00486
4730.53362,0.01023
4732.46209,0.01350
4734.39056,0.00884
4736.31903,0.00883
4738.24750,0.01191
4740.17596,0.00750
4742.10443,-0.00145
4744.03290,-0.00803
4745.96137,-0.00868
4747.88984,-0.00460
4749.81831,0.00025
4751.74678,0.00590
4753.67524,0.01093
4755.60371,0.01871
4757.53218,0.02768
4759.46065,0.02848
4761.38912,0.02433
4763.31759,0.02332
4765.24606,0.02538
4767.17453,0.02276
4769.10299,0.01137
4771.03146,-0.00240
4772.95993,-0.01122
4774.88840,-0.00738
4776.81687,0.00851
4778.74534,0.02234
4780.67381,0.02273
4782.60227,0.01326
4784.53074,0.00649
4786.45921,0.00602
4788.38768,0.00699
4790.31615,0.00433
4792.24462,-0.00185
4794.17309,-0.00187
4796.10156,0.00711
4798.03002,0.01612
4799.95849,0.01970
4801.88696,0.02121
4803.81543,0.01959
4805.74390,0.00985
4807.67237,0.00873
4809.60084,0.02442
4811.52930,0.03452
4813.45777,0.03075
4815.38624,0.02422
4817.31471,0.02237
4819.24318,0.02083
4821.17165,0.01443
4823.10012,0.00805
4825.02859,0.00875
4826.95705,0.01849
4828.88552,0.02379
4830.81399,0.01750
4832.74246,0.01442
4834.67093,0.01902
4836.59940,0.02020
4838.52787,0.00755
4840.45633,-0.01107
4842.38480,-0.01391
4844.31327,-0.00034
4846.24174,0.01252
4848.17021,0.01383
4850.09868,0.00627
4852.02715,0.00179
4853.95562,0.00291
4855.88408,0.00203
4857.81255,0.00077
4859.74102,0.00246
4861.66949,0.00349
4863.59796,0.00331
4865.52643,0.00518
4867.45490,0.01310
4869.38336,0.02405
4871.31183,0.03155
4873.24030,0.03138
4875.16877,0.01959
4877.09724,0.00432
4879.02571,-0.00352
4880.95418,-0.00475
4882.88265,0.00210
4884.81111,0.01513
4886.73958,0.01627
4888.66805,0.00303
4890.59652,-0.00329
4892.52499,0.00611
4894.45346,0.01922
4896.38193,0.02449
4898.31039,0.02389
4900.23886,0.02335
4902.16733,0.02052
4904.09580,0.01375
4906.02427,0.01031
4907.95274,0.01452
4909.88121,0.02120
4911.80967,0.02671
4913.73814,0.03165
4915.66661,0.03191
4917.59508,0.02430
4919.52355,0.01762
4921.45202,0.01673
4923.38049,0.01526
4925.30896,0.01123
4927.23742,0.00888
4929.16589,0.01253
4931.09436,0.01478
4933.02283,0.00696
4934.95130,-0.00166
4936.87977,-0.00535
4938.80824,-0.00684
4940.73670,-0.00174
4942.66517,0.00562
4944.59364,0.00616
4946.52211,0.00578
4948.45058,0.00921
4950.37905,0.01312
4952.30752,0.01497
4954.23599,0.01550
4956.16445,0.01565
4958.09292,0.01023
4960.02139,0.00495
4961.94986,0.01594
4963.87833,0.03218
4965.80680,0.02295
4967.73527,-0.00265
4969.66373,-0.00938
4971.59220,0.00405
4973.52067,0.02410
4975.44914,0.03968
4977.37761,0.03769
4979.30608,0.02555
4981.23455,0.01573
4983.16302,0.01319
4985.09148,0.01839
4987.01995,0.01928
4988.94842,0.01151
4990.87689,0.00624
4992.80536,0.00922
4994.73383,0.01889
4996.66230,0.03001
4998.59076,0.02789
5000.51923,0.01335
5002.44770,0.00088
5004.37617,-0.01227
5006.30464,-0.02553
5008.23311,-0.02660
5010.16158,-0.01332
5012.09005,0.00110
5014.01851,0.00992
5015.94698,0.02155
5017.87545,0.02731
5019.80392,0.01960
5021.73239,0.00891
5023.66086,0.00226
5025.58933,0.00412
5027.51779,0.00664
5029.44626,-0.00114
5031.37473,-0.00718
5033.30320,0.00418
5035.23167,0.01765
5037.16014,0.01297
5039.08861,0.00359
5041.01708,0.00554
5042.94554,0.00891
5044.87401,0.00398
5046.80248,0.00186
5048.73095,0.01326
5050.65942,0.02762
5052.58789,0.03339
5054.51636,0.02549
5056.44482,0.00654
5058.37329,-0.00479
5060.30176,-0.00146
5062.23023,0.00092
5064.15870,-0.00532
5066.08717,-0.00688
5068.01564,0.00502
5069.94410,0.02083
5071.87257,0.02773
5073.80104,0.01412
5075.72951,-0.00876
5077.65798,-0.01637
5079.58645,-0.00783
5081.51492,0.01129
5083.44339,0.03082
5085.37185,0.03726
5087.30032,0.03293
5089.22879,0.02423
5091.15726,0.01614
5093.08573,0.01119
5095.01420,0.00340
5096.94267,0.00213
5098.87113,0.02159
5100.79960,0.03827
5102.72807,0.03058
5104.65654,0.01320
5106.58501,-0.00090
5108.51348,-0.00350
5110.44195,0.00451
5112.37042,0.01415
5114.29888,0.03039
5116.22735,0.04110
5118.15582,0.03266
5120.08429,0.02469
5122.01276,0.02547
5123.94123,0.02687
5125.86970,0.02235
5127.79816,0.00835
5129.72663,-0.00670
5131.65510,-0.01485
5133.58357,-0.00398
5135.51204,0.02482
5137.44051,0.03959
5139.36898,0.02166
5141.29745,-0.00624
5143.22591,-0.01468
5145.15438,-0.00324
5147.08285,0.01881
5149.01132,0.03904
5150.93979,0.04040
5152.86826,0.03258
5154.79673,0.02931
5156.72519,0.02122
5158.65366,0.01207
5160.58213,0.01828
5162.51060,0.03306
5164.43907,0.03492
5166.36754,0.02557
5168.29601,0.02405
5170.22448,0.03117
5172.15294,0.04115
5174.08141,0.05398
5176.00988,0.05578
5177.93835,0.03907
5179.86682,0.02576
5181.79529,0.01939
5183.72376,0.00325
5185.65222,-0.00792
5187.58069,-0.00424
5189.50916,0.00185
5191.43763,0.00897
5193.36610,0.01531
5195.29457,0.02153
5197.22304,0.03017
5199.15151,0.03295
5201.07997,0.02783
5203.00844,0.02414
5204.93691,0.02688
5206.86538,0.03600
5208.79385,0.03851
5210.72232,0.03358
5212.65079,0.03738
5214.57925,0.04228
5216.50772,0.03611
5218.43619,0.02444
5220.36466,0.02278
5222.29313,0.03256
5224.22160,0.02948
5226.15007,0.01177
5228.07854,0.00744
5230.00700,0.01377
5231.93547,0.01291
5233.86394,0.00811
5235.79241,0.00458
5237.72088,-0.00005
5239.64935,-0.00212
5241.57782,0.00218
5243.50628,0.00969
5245.43475,0.02357
5247.36322,0.04215
5249.29169,0.04461
5251.22016,0.03611
5253.14863,0.03983
5255.07710,0.05213
5257.00556,0.05845
5258.93403,0.05934
5260.86250,0.05856
5262.79097,0.04881
5264.71944,0.03160
5266.64791,0.01867
5268.57638,0.00836
5270.50485,-0.00206
5272.43331,-0.00164
5274.36178,0.01100
5276.29025,0.02461
5278.21872,0.03673
5280.14719,0.04448
5282.07566,0.04363
5284.00413,0.04314
5285.93259,0.04907
5287.86106,0.04063
5289.78953,0.01304
5291.71800,0.00084
5293.64647,0.01125
5295.57494,0.02235
5297.50341,0.03408
5299.43188,0.05232
5301.36034,0.06122
5303.28881,0.04943
5305.21728,0.03070
5307.14575,0.02063
5309.07422,0.02736
5311.00269,0.04669
5312.93116,0.06547
5314.85962,0.07234
5316.78809,0.06609
5318.71656,0.04927
5320.64503,0.02579
5322.57350,0.01435
5324.50197,0.02444
5326.43044,0.03393
5328.35891,0.03276
5330.28737,0.03318
5332.21584,0.03343
5334.14431,0.02832
5336.07278,0.01597
5338.00125,0.01282
5339.92972,0.03952
5341.85819,0.06877
5343.78665,0.07242
5345.71512,0.05138
5347.64359,0.02889
5349.57206,0.02027
5351.50053,0.02171
5353.42900,0.01474
5355.35747,0.00123
5357.28594,0.00534
5359.21440,0.02653
5361.14287,0.04815
5363.07134,0.04350
5364.99981,0.01336
5366.92828,-0.00034
5368.85675,0.00012
5370.78522,-0.00913
5372.71368,-0.01555
5374.64215,-0.00689
5376.57062,0.00901
5378.49909,0.02379
5380.42756,0.03839
5382.35603,0.04451
5384.28450,0.03072
5386.21297,0.00628
5388.14143,-0.00578
5390.06990,0.01131
5391.99837,0.05277
5393.92684,0.09211
5395.85531,0.10454
5397.78378,0.08400
5399.71225,0.04222
5401.64071,0.01118
5403.56918,0.00872
5405.49765,0.01764
5407.42612,0.03425
5409.35459,0.06113
5411.28306,0.07934
5413.21153,0.06726
5415.13999,0.02053
5417.06846,-0.01374
5418.99693,0.00168
5420.92540,0.04136
5422.85387,0.06955
5424.78234,0.08136
5426.71081,0.06835
5428.63928,0.03433
5430.56774,0.02753
5432.49621,0.05740
5434.42468,0.08121
5436.35315,0.06843
5438.28162,0.03292
5440.21009,-0.00268
5442.13856,-0.02101
5444.06702,-0.01049
5445.99549,0.00864
5447.92396,0.02197
5449.85243,0.03758
5451.78090,0.04442
5453.70937,0.04237
5455.63784,0.04813
5457.56631,0.06800
5459.49477,0.07710
5461.42324,0.05432
5463.35171,0.03023
5465.28018,0.02709
5467.20865,0.02707
5469.13712,0.02575
5471.06559,0.04339
5472.99405,0.07759
5474.92252,0.08775
5476.85099,0.05770
5478.77946,0.03145
5480.70793,0.02163
5482.63640,0.01530
5484.56487,0.01726
5486.49334,0.02756
5488.42180,0.03938
5490.35027,0.03924
5492.27874,0.02167
5494.20721,0.02025
5496.13568,0.04017
5498.06415,0.05011
5499.99262,0.04916
5501.92108,0.05107
5503.84955,0.05121
5505.77802,0.05227
5507.70649,0.06513
5509.63496,0.08007
5511.56343,0.07528
5513.49190,0.04260
5515.42037,0.02352
5517.34883,0.04423
5519.27730,0.05433
5521.20577,0.03527
5523.13424,0.01552
5525.06271,0.00747
5526.99118,0.01569
5528.91965,0.03394
5530.84811,0.05316
5532.77658,0.06491
5534.70505,0.06182
5536.63352,0.05416
5538.56199,0.04302
5540.49046,0.02423
5542.41893,0.02967
5544.34740,0.06785
5546.27586,0.08108
5548.20433,0.05734
5550.13280,0.05815
5552.06127,0.09511
5553.98974,0.11076
5555.91821,0.08328
5557.84668,0.05601
5559.77514,0.03954
5561.70361,0.02311
5563.63208,0.03503
5565.56055,0.06054
5567.48902,0.05592
5569.41749,0.04056
5571.34596,0.04479
5573.27443,0.06087
5575.20289,0.07361
5577.13136,0.07844
5579.05983,0.06707
5580.98830,0.04427
5582.91677,0.05003
5584.84524,0.08369
5586.77371,0.10145
5588.70217,0.09040
5590.63064,0.06141
5592.55911,0.04140
5594.48758,0.04245
5596.41605,0.03166
5598.34452,0.01317
5600.27299,0.02302
5602.20145,0.03351
5604.12992,0.02145
5606.05839,0.01709
5607.98686,0.03251
5609.91533,0.05795
5611.84380,0.08250
5613.77227,0.09618
5615.70074,0.09895
5617.62920,0.08452
5619.55767,0.06070
5621.48614,0.05323
5623.41461,0.05103
5625.34308,0.02950
5627.27155,-0.00401
5629.20002,-0.01551
5631.12848,0.01734
5633.05695,0.06027
5634.98542,0.07837
5636.91389,0.08120
5638.84236,0.06500
5640.77083,0.03113
5642.69930,0.00967
5644.62777,0.00567
5646.55623,-0.00103
5648.48470,-0.00960
5650.41317,-0.00044
5652.34164,0.01769
5654.27011,0.03175
5656.19858,0.03965
5658.12705,0.03536
5660.05551,0.03740
5661.98398,0.05612
5663.91245,0.06348
5665.84092,0.04955
5667.76939,0.03789
5669.69786,0.04318
5671.62633,0.05711
5673.55480,0.06164
5675.48326,0.05204
5677.41173,0.04363
5679.34020,0.04220
5681.26867,0.04299
5683.19714,0.04598
5685.12561,0.05926
5687.05408,0.08260
5688.98254,0.08919
5690.91101,0.08003
5692.83948,0.08127
5694.76795,0.08201
5696.69642,0.07439
5698.62489,0.07020
5700.55336,0.06340
5702.48183,0.05448
5704.41029,0.04882
5706.33876,0.04374
5708.26723,0.04582
5710.19570,0.04322
5712.12417,0.03377
5714.05264,0.04510
5715.98111,0.06282
5717.90957,0.05642
5719.83804,0.03632
5721.76651,0.03374
5723.69498,0.04947
5725.62345,0.05169
5727.55192,0.03491
5729.48039,0.01905
5731.40886,0.01894
5733.33732,0.03306
5735.26579,0.04131
5737.19426,0.03662
5739.12273,0.03475
5741.05120,0.03826
5742.97967,0.03723
5744.90814,0.02716
5746.83660,0.01481
5748.76507,0.01780
5750.69354,0.03902
5752.62201,0.06610
5754.55048,0.10237
5756.47895,0.13846
5758.40742,0.14143
5760.33588,0.10556
5762.26435,0.05442
5764.19282,0.01059
5766.12129,0.01382
5768.04976,0.06312
5769.97823,0.08312
5771.90670,0.06225
5773.83517,0.04774
5775.76363,0.03826
5777.69210,0.03486
5779.62057,0.04820
5781.54904,0.06868
5783.47751,0.09142
5785.40598,0.10628
5787.33445,0.10171
5789.26291,0.08792
5791.19138,0.07965
5793.11985,0.06831
5795.04832,0.05121
5796.97679,0.04447
5798.90526,0.03228
5800.83373,0.01035
5802.76220,0.01090
5804.69066,0.04075
5806.61913,0.08031
5808.54760,0.09999
5810.47607,0.08911
5812.40454,0.06243
5814.33301,0.02436
5816.26148,-0.00310
5818.18994,0.02470
5820.11841,0.08596
5822.04688,0.10487
5823.97535,0.06974
5825.90382,0.03247
5827.83229,0.02893
5829.76076,0.03349
5831.68923,0.00739
5833.61769,-0.01981
5835.54616,-0.00770
5837.47463,0.02104
5839.40310,0.03065
5841.33157,0.01441
5843.26004,-0.01011
5845.18851,-0.01582
5847.11697,0.00132
5849.04544,0.01421
5850.97391,0.00477
5852.90238,0.00615
5854.83085,0.03368
5856.75932,0.06006
5858.68779,0.08147
5860.61626,0.08158
5862.54472,0.05930
5864.47319,0.06765
5866.40166,0.09934
5868.33013,0.11448
5870.25860,0.11975
5872.18707,0.13049
5874.11554,0.13333
5876.04400,0.09088
5877.97247,0.01869
5879.90094,-0.01737
5881.82941,-0.01312
5883.75788,-0.00413
5885.68635,0.00366
5887.61482,0.02550
5889.54329,0.07502
5891.47175,0.10926
5893.40022,0.08856
5895.32869,0.07188
5897.25716,0.11053
5899.18563,0.14627
5901.11410,0.12168
5903.04257,0.08093
5904.97103,0.07663
5906.89950,0.08586
5908.82797,0.08766
5910.75644,0.09451
5912.68491,0.09484
5914.61338,0.07845
5916.54185,0.06031
5918.47032,0.03237
5920.39878,0.00892
5922.32725,0.02356
5924.25572,0.05808
5926.18419,0.09076
5928.11266,0.11437
5930.04113,0.11793
5931.96960,0.11545
5933.89806,0.12036
5935.82653,0.12079
5937.75500,0.09856
5939.68347,0.05902
5941.61194,0.03671
5943.54041,0.04027
5945.46888,0.03863
5947.39734,0.02841
5949.32581,0.03471
5951.25428,0.04039
5953.18275,0.01255
5955.11122,-0.00262
5957.03969,0.02568
5958.96816,0.03605
5960.89663,0.02212
5962.82509,0.04525
5964.75356,0.07729
5966.68203,0.06266
5968.61050,0.01680
5970.53897,-0.01162
5972.46744,0.01096
5974.39591,0.06369
5976.32437,0.07873
5978.25284,0.06714
5980.18131,0.06925
5982.10978,0.05049
5984.03825,0.02966
5985.96672,0.07307
5987.89519,0.12977
5989.82366,0.12584
5991.75212,0.09050
5993.68059,0.06831
5995.60906,0.05263
5997.53753,0.03974
5999.46600,0.04311
6001.39447,0.05453
6003.32294,0.04439
6005.25140,0.01858
6007.17987,0.02678
6009.10834,0.07036
6011.03681,0.11879
6012.96528,0.14153
6014.89375,0.10732
6016.82222,0.05331
6018.75069,0.05587
6020.67915,0.08562
6022.60762,0.08360
6024.53609,0.06832
6026.46456,0.05356
6028.39303,0.05519
6030.32150,0.06077
6032.24997,0.02794
6034.17843,-0.00520
6036.10690,0.00727
6038.03537,0.03243
6039.96384,0.04156
6041.89231,0.03211
6043.82078,0.00921
6045.74925,0.00297
6047.67772,0.01680
6049.60618,0.04230
6051.53465,0.07933
6053.46312,0.09936
6055.39159,0.09190
6057.32006,0.08289
6059.24853,0.08349
6061.17700,0.08378
6063.10546,0.10316
6065.03393,0.13779
6066.96240,0.13373
6068.89087,0.10049
6070.81934,0.07424
6072.74781,0.04933
6074.67628,0.02211
6076.60475,0.01416
6078.53321,0.02508
6080.46168,0.04522
6082.39015,0.08573
6084.31862,0.10646
6086.24709,0.08018
6088.17556,0.08091
6090.10403,0.10620
6092.03249,0.08631
6093.96096,0.06960
6095.88943,0.09266
6097.81790,0.10802
6099.74637,0.12782
6101.67484,0.13996
6103.60331,0.09300
6105.53177,0.04536
6107.46024,0.06036
6109.38871,0.07888
6111.31718,0.06856
6113.24565,0.07065
6115.17412,0.06580
6117.10259,0.04677
6119.03106,0.06512
6120.95952,0.08906
6122.88799,0.05962
6124.81646,0.03981
6126.74493,0.05394
6128.67340,0.05334
6130.60187,0.07155
6132.53034,0.11744
6134.45880,0.14693
6136.38727,0.14924
6138.31574,0.12454
6140.24421,0.06860
6142.17268,-0.00474
6144.10115,-0.03562
6146.02962,-0.00694
6147.95809,0.04958
6149.88655,0.12366
6151.81502,0.18482
6153.74349,0.20173
6155.67196,0.19386
6157.60043,0.18071
6159.52890,0.14752
6161.45737,0.08346
6163.38583,0.03099
6165.31430,0.03877
6167.24277,0.07435
6169.17124,0.08844
6171.09971,0.08025
6173.02818,0.06766
6174.95665,0.03938
6176.88512,0.00505
6178.81358,0.02439
6180.74205,0.07241
6182.67052,0.06731
6184.59899,0.02049
6186.52746,-0.01959
6188.45593,-0.03862
6190.38440,-0.03809
6192.31286,-0.03179
6194.24133,-0.04609
6196.16980,-0.07164
6198.09827,-0.06472
6200.02674,-0.01512
6201.95521,0.06179
6203.88368,0.12463
6205.81215,0.12818
6207.74061,0.09667
6209.66908,0.06455
6211.59755,0.06172
6213.52602,0.08140
6215.45449,0.07278
6217.38296,0.06221
6219.31143,0.08567
6221.23989,0.10484
6223.16836,0.09805
6225.09683,0.06874
6227.02530,0.03899
6228.95377,0.02809
6230.88224,0.00883
6232.81071,0.00023
6234.73918,0.04151
6236.66764,0.09613
6238.59611,0.13771
6240.52458,0.13816
6242.45305,0.07479
6244.38152,0.00563
6246.30999,0.00256
6248.23846,0.07768
6250.16692,0.18844
6252.09539,0.23499
6254.02386,0.19361
6255.95233,0.15282
6257.88080,0.15719
6259.80927,0.16138
6261.73774,0.12199
6263.66621,0.04740
6265.59467,-0.02693
6267.52314,-0.06865
6269.45161,-0.07805
6271.38008,-0.05713
6273.30855,0.01422
6275.23702,0.07574
6277.16549,0.05025
6279.09395,0.01689
6281.02242,0.02276
6282.95089,0.02125
6284.87936,0.00919
6286.80783,-0.01540
6288.73630,-0.03742
6290.66477,-0.02589
6292.59323,-0.00580
6294.52170,-0.00420
6296.45017,-0.00175
6298.37864,0.03426
6300.30711,0.10425
6302.23558,0.16511
6304.16405,0.17956
6306.09252,0.16182
6308.02098,0.14944
6309.94945,0.13626
6311.87792,0.09200
6313.80639,0.05772
6315.73486,0.07607
6317.66333,0.11523
6319.59180,0.14563
6321.52026,0.13589
6323.44873,0.08390
6325.37720,0.05551
6327.30567,0.06767
6329.23414,0.09873
6331.16261,0.10472
6333.09108,0.06476
6335.01955,0.03471
6336.94801,0.01903
6338.87648,0.00553
6340.80495,0.02463
6342.73342,0.05044
6344.66189,0.07276
6346.59036,0.10229
6348.51883,0.08201
6350.44729,0.01294
6352.37576,-0.01443
6354.30423,0.00376
6356.23270,0.01220
6358.16117,0.01364
6360.08964,0.02514
6362.01811,0.04074
6363.94658,0.06545
6365.87504,0.08370
6367.80351,0.05643
6369.73198,0.02639
6371.66045,0.04383
6373.58892,0.05612
6375.51739,0.04060
6377.44586,0.02808
6379.37432,0.02081
6381.30279,0.05277
6383.23126,0.11204
6385.15973,0.09253
6387.08820,0.02678
6389.01667,0.00026
6390.94514,-0.01719
6392.87361,-0.02823
6394.80207,0.01942
6396.73054,0.06084
6398.65901,0.05351
6400.58748,0.04626
6402.51595,0.04133
6404.44442,-0.02460
6406.37289,-0.14715
6408.30135,-0.20832
6410.22982,-0.14904
6412.15829,-0.03814
6414.08676,0.03441
6416.01523,0.07301
6417.94370,0.10386
6419.87217,0.07693
6421.80064,0.03821
6423.72910,0.06212
6425.65757,0.10695
6427.58604,0.12768
6429.51451,0.12344
6431.44298,0.06759
6433.37145,-0.01701
6435.29992,-0.01672
6437.22838,0.07048
6439.15685,0.10496
6441.08532,0.07035
6443.01379,0.06235
6444.94226,0.08811
6446.87073,0.06898
6448.79920,0.01675
6450.72766,0.00100
6452.65613,0.00251
6454.58460,-0.00116
6456.51307,0.01159
6458.44154,0.00210
6460.37001,-0.03603
6462.29848,-0.04576
6464.22695,-0.01922
6466.15541,0.03547
6468.08388,0.10287
6470.01235,0.11810
6471.94082,0.06553
6473.86929,0.02440
6475.79776,0.05554
6477.72623,0.12543
6479.65469,0.13410
6481.58316,0.06971
6483.51163,0.01828
6485.44010,-0.00153
6487.36857,-0.00552
6489.29704,0.03596
6491.22551,0.10240
6493.15398,0.12138
6495.08244,0.09016
6497.01091,0.03835
6498.93938,0.00235
6500.86785,0.00864
6502.79632,0.00594
6504.72479,-0.02902
6506.65326,-0.06017
6508.58172,-0.06733
6510.51019,-0.04469
6512.43866,0.00128
6514.36713,0.04497
6516.29560,0.06921
6518.22407,0.09127
6520.15254,0.12592
6522.08101,0.15570
6524.00947,0.15897
6525.93794,0.14211
6527.86641,0.10107
6529.79488,0.04335
6531.72335,0.02305
6533.65182,0.05906
6535.58029,0.14046
6537.50875,0.21739
6539.43722,0.19586
6541.36569,0.09323
6543.29416,0.03599
6545.22263,0.03644
6547.15110,0.03005
6549.07957,0.04570
6551.00804,0.09109
6552.93650,0.10463
6554.86497,0.05017
6556.79344,-0.03841
6558.72191,-0.06321
6560.65038,0.00145
6562.57885,0.05851
6564.50732,0.06484
6566.43578,0.08721
6568.36425,0.09992
6570.29272,0.04620
6572.22119,0.01634
6574.14966,0.05760
6576.07813,0.08908
6578.00660,0.08739
6579.93507,0.11512
6581.86353,0.15418
6583.79200,0.10970
6585.72047,0.04136
6587.64894,0.04309
6589.57741,0.04904
6591.50588,-0.00043
6593.43435,-0.07112
6595.36281,-0.06518
6597.29128,0.00574
6599.21975,0.01406
6601.14822,-0.02799
6603.07669,-0.02975
6605.00516,-0.02655
6606.93363,-0.04142
6608.86210,-0.00967
6610.79056,0.09497
6612.71903,0.19438
6614.64750,0.21092
6616.57597,0.16798
6618.50444,0.12793
6620.43291,0.12769
6622.36138,0.16012
6624.28984,0.15925
6626.21831,0.15088
6628.14678,0.16309
6630.07525,0.10242
6632.00372,0.04314
6633.93219,0.06446
6635.86066,0.07673
6637.78912,0.04108
6639.71759,0.00343
6641.64606,-0.01982
6643.57453,-0.02606
6645.50300,0.02067
6647.43147,0.08173
6649.35994,0.04530
6651.28841,-0.07021
6653.21687,-0.14534
6655.14534,-0.11829
6657.07381,-0.02636
6659.00228,0.08541
6660.93075,0.17647
6662.85922,0.17606
6664.78769,0.07234
6666.71615,-0.05706
6668.64462,-0.10417
6670.57309,-0.05466
6672.50156,0.04262
6674.43003,0.15333
6676.35850,0.21209
6678.28697,0.21009
6680.21544,0.19383
6682.14390,0.11586
6684.07237,-0.06075
6686.00084,-0.17332
6687.92931,-0.08173
6689.85778,0.07666
6691.78625,0.12813
6693.71472,0.10572
6695.64318,0.07981
6697.57165,0.06418
6699.50012,0.04133
6701.42859,0.03479
6703.35706,0.01886
6705.28553,-0.00803
6707.21400,0.02695
6709.14247,0.05091
6711.07093,0.00173
6712.99940,-0.02584
6714.92787,0.01631
6716.85634,0.06175
6718.78481,0.05466
6720.71328,0.02738
6722.64175,0.01612
6724.57021,0.04438
6726.49868,0.10855
6728.42715,0.12809
6730.35562,0.07836
6732.28409,0.03758
6734.21256,0.02098
6736.14103,0.02099
6738.06950,0.04542
6739.99796,0.05583
6741.92643,0.05774
6743.85490,0.07890
6745.78337,0.08290
6747.71184,0.10704
6749.64031,0.15362
6751.56878,0.09600
6753.49724,-0.00209
6755.42571,0.01973
6757.35418,0.08727
6759.28265,0.08262
6761.21112,0.04704
6763.13959,0.05086
6765.06806,0.05589
6766.99653,0.01518
6768.92499,-0.05325
6770.85346,-0.08810
6772.78193,-0.07069
6774.71040,-0.06173
6776.63887,-0.09664
6778.56734,-0.10617
6780.49581,-0.05686
6782.42427,0.01152
6784.35274,0.09519
6786.28121,0.19568
6788.20968,0.25541
6790.13815,0.23152
6792.06662,0.16813
6793.99509,0.13326
6795.92355,0.11198
6797.85202,0.06207
6799.78049,-0.00436
6801.70896,0.00088
6803.63743,0.08257
6805.56590,0.11699
6807.49437,0.08793
6809.42284,0.04657
6811.35130,0.01388
6813.27977,-0.01395
6815.20824,-0.08445
6817.13671,-0.15588
6819.06518,-0.09620
6820.99365,0.04039
6822.92212,0.08047
6824.85058,0.06185
6826.77905,0.07536
6828.70752,0.06696
6830.63599,0.03094
6832.56446,-0.00610
6834.49293,-0.02727
6836.42140,-0.01209
6838.34987,0.04779
6840.27833,0.09588
6842.20680,0.09355
6844.13527,0.08762
6846.06374,0.08782
6847.99221,0.08083
6849.92068,0.08152
6851.84915,0.08086
6853.77761,0.02546
6855.70608,-0.03589
6857.63455,0.01985
6859.56302,0.09199
6861.49149,0.07979
6863.41996,0.00762
6865.34843,-0.03684
6867.27690,0.01855
6869.20536,0.06875
6871.13383,0.06895
6873.06230,0.09218
6874.99077,0.08913
6876.91924,0.04583
6878.84771,0.06569
6880.77618,0.13643
6882.70464,0.14297
6884.63311,0.10440
6886.56158,0.07802
6888.49005,0.11193
6890.41852,0.21619
6892.34699,0.32030
6894.27546,0.33945
6896.20393,0.23371
6898.13239,0.05840
6900.06086,-0.05604
6901.98933,-0.02447
6903.91780,0.13782
6905.84627,0.21386
6907.77474,0.11267
6909.70321,0.01710
6911.63167,-0.01806
6913.56014,-0.02480
6915.48861,0.00246
6917.41708,0.06708
6919.34555,0.15579
6921.27402,0.19402
6923.20249,0.17673
6925.13096,0.12210
6927.05942,0.03479
6928.98789,0.00500
6930.91636,0.05602
6932.84483,0.08188
6934.77330,0.06272
6936.70177,0.07075
6938.63024,0.14476
6940.55870,0.20910
6942.48717,0.13405
6944.41564,0.01457
6946.34411,0.01282
6948.27258,0.09684
6950.20105,0.11434
6952.12952,0.07875
6954.05799,0.07846
6955.98645,0.08447
6957.91492,0.06859
6959.84339,0.06712
6961.77186,0.05305
6963.70033,0.05277
6965.62880,0.13144
6967.55727,0.21367
6969.48573,0.20416
6971.41420,0.19463
6973.34267,0.20420
6975.27114,0.11033
6977.19961,0.03449
6979.12808,0.05405
6981.05655,0.06571
6982.98501,0.07792
6984.91348,0.05725
6986.84195,-0.07151
6988.77042,-0.17053
6990.69889,-0.09475
6992.62736,0.04835
6994.55583,0.06218
6996.48430,-0.04701
6998.41276,-0.03770
7000.34123,0.14840
7002.26970,0.23577
7004.19817,0.11570
7006.12664,0.02343
7008.05511,0.14255
7009.98358,0.24725
7011.91204,0.23371
7013.84051,0.20328
7015.76898,0.17161
7017.69745,0.12715
7019.62592,0.08405
7021.55439,0.00935
7023.48286,-0.08433
7025.41133,-0.09670
7027.33979,-0.01029
7029.26826,0.08722
7031.19673,0.15411
7033.12520,0.20879
7035.05367,0.16922
7036.98214,0.08110
7038.91061,0.07788
7040.83907,0.12836
7042.76754,0.12387
7044.69601,0.04316
7046.62448,-0.02191
7048.55295,0.00118
7050.48142,0.07768
7052.40989,0.15067
7054.33836,0.14090
7056.26682,0.10063
7058.19529,0.17076
7060.12376,0.18248
7062.05223,0.05875
7063.98070,0.01612
7065.90917,0.11909
7067.83764,0.21809
7069.76610,0.21894
7071.69457,0.15338
7073.62304,0.12867
7075.55151,0.11939
7077.47998,0.03188
7079.40845,-0.10810
7081.33692,-0.13026
7083.26539,0.01332
7085.19385,0.10593
7087.12232,0.03129
7089.05079,-0.10138
7090.97926,-0.17711
7092.90773,-0.19996
7094.83620,-0.12811
7096.76467,0.04668
7098.69313,0.19148
7100.62160,0.15223
7102.55007,0.04680
7104.47854,-0.01044
7106.40701,-0.01261
7108.33548,0.07347
7110.26395,0.13503
7112.19242,0.06858
7114.12088,0.00873
7116.04935,0.03563
7117.97782,0.09655
7119.90629,0.13862
7121.83476,0.10804
7123.76323,0.07787
7125.69170,0.10392
7127.62016,0.07817
7129.54863,0.03107
7131.47710,0.04880
7133.40557,0.02872
7135.33404,-0.01274
7137.26251,0.04594
7139.19098,0.14929
7141.11944,0.18638
7143.04791,0.12940
7144.97638,0.02019
7146.90485,-0.05972
7148.83332,-0.08902
7150.76179,-0.07172
7152.69026,-0.03020
7154.61873,-0.01937
7156.54719,0.00587
7158.47566,0.08501
7160.40413,0.17507
7162.33260,0.25931
7164.26107,0.32807
7166.18954,0.36146
7168.11801,0.31165
7170.04647,0.14653
7171.97494,-0.00975
7173.90341,-0.07985
7175.83188,-0.09849
7177.76035,-0.05309
7179.68882,0.05090
7181.61729,0.20974
7183.54576,0.39465
7185.47422,0.42534
7187.40269,0.23885
7189.33116,0.01602
7191.25963,-0.05369
7193.18810,0.02317
7195.11657,0.12143
7197.04504,0.16448
7198.97350,0.14664
7200.90197,0.05671
7202.83044,-0.09764
7204.75891,-0.11959
7206.68738,0.03642
7208.61585,0.12670
7210.54432,0.14650
7212.47279,0.11822
7214.40125,0.13212
7216.32972,0.26958
7218.25819,0.25705
7220.18666,0.05297
7222.11513,0.00133
7224.04360,0.03264
7225.97207,0.01383
7227.90053,0.05864
7229.82900,0.15293
7231.75747,0.11054
7233.68594,0.03861
7235.61441,0.04719
7237.54288,0.11200
7239.47135,0.25196
7241.39982,0.37061
7243.32828,0.31901
7245.25675,0.19399
7247.18522,0.11084
7249.11369,0.01215
7251.04216,-0.04873
7252.97063,0.04810
7254.89910,0.11431
7256.82756,0.01678
7258.75603,-0.09974
7260.68450,-0.11492
7262.61297,-0.11263
7264.54144,-0.18482
7266.46991,-0.17174
7268.39838,-0.13363
7270.32685,-0.15658
7272.25531,-0.07275
7274.18378,0.08347
7276.11225,0.06907
7278.04072,-0.08470
7279.96919,-0.16479
7281.89766,-0.05267
7283.82613,0.02252
7285.75459,0.01871
7287.68306,-0.00715
7289.61153,-0.11338
7291.54000,-0.22204
7293.46847,-0.12025
7295.39694,0.06460
7297.32541,0.05333
7299.25387,-0.10086
7301.18234,-0.12160
7303.11081,0.05226
7305.03928,0.16639
7306.96775,0.06552
7308.89622,-0.09171
7310.82469,-0.04954
7312.75316,0.07118
7314.68162,0.14217
7316.61009,0.21390
7318.53856,0.24504
7320.46703,0.20435
7322.39550,0.16751
7324.32397,0.23691
7326.25244,0.42117
7328.18090,0.49254
7330.10937,0.23905
7332.03784,0.05645
7333.96631,0.14247
7335.89478,0.26261
7337.82325,0.38211
7339.75172,0.47941
7341.68019,0.32595
7343.60865,0.15788
7345.53712,0.15434
7347.46559,0.16929
7349.39406,0.13357
7351.32253,0.10992
7353.25100,0.08712
7355.17947,0.08197
7357.10793,0.06218
7359.03640,-0.02967
7360.96487,-0.03680
7362.89334,0.02159
7364.82181,-0.03850
7366.75028,-0.14600
7368.67875,-0.11946
7370.60722,-0.00224
7372.53568,0.05736
7374.46415,0.09231
7376.39262,0.11687
7378.32109,0.07629
7380.24956,0.07450
7382.17803,0.11395
7384.10650,0.04438
7386.03496,-0.04786
7387.96343,-0.01136
7389.89190,-0.01979
7391.82037,-0.06663
7393.74884,0.08997
7395.67731,0.33258
7397.60578,0.26207
7399.53425,0.06719
7401.46271,0.17116
7403.39118,0.43625
7405.31965,0.38176
7407.24812,0.13476
7409.17659,0.09465
7411.10506,0.13498
7413.03353,0.05152
7414.96199,-0.04015
7416.89046,-0.05993
7418.81893,-0.08658
7420.74740,-0.08158
7422.67587,0.02942
7424.60434,0.09409
7426.53281,0.04629
7428.46128,-0.02095
7430.38974,0.04569
7432.31821,0.21211
7434.24668,0.30222
7436.17515,0.36686
7438.10362,0.42900
7440.03209,0.37756
7441.96056,0.28951
7443.88902,0.18996
7445.81749,0.00989
7447.74596,-0.07763
7449.67443,0.03578
7451.60290,0.11276
7453.53137,0.06164
7455.45984,0.05005
7457.38831,0.10273
7459.31677,0.19333
7461.24524,0.20524
7463.17371,0.20547
7465.10218,0.35990
7467.03065,0.42713
7468.95912,0.27087
7470.88759,0.12791
7472.81605,0.17570
7474.74452,0.25700
7476.67299,0.19253
7478.60146,0.14886
7480.52993,0.25706
7482.45840,0.22440
7484.38687,0.06505
7486.31533,0.05603
7488.24380,0.11472
7490.17227,-0.00904
7492.10074,-0.17074
7494.02921,-0.17085
7495.95768,-0.14660
7497.88615,-0.23608
