399.19301,0.09605
401.12148,0.04480
403.04995,0.14235
404.97842,0.17768
406.90689,0.10725
408.83536,0.07066
410.76382,0.02743
412.69229,-0.05632
414.62076,-0.10381
416.54923,-0.08045
418.47770,0.01645
420.40617,0.08465
422.33464,0.08712
424.26311,0.11777
426.19157,0.14088
428.12004,0.08338
430.04851,0.00936
431.97698,0.05185
433.90545,0.09880
435.83392,0.06574
437.76239,0.06040
439.69085,0.09933
441.61932,0.13481
443.54779,0.18087
445.47626,0.22209
447.40473,0.13198
449.33320,-0.03032
451.26167,-0.05397
453.19013,0.04535
455.11860,0.11612
457.04707,0.08471
458.97554,0.01918
460.90401,-0.00884
462.83248,0.00137
464.76095,0.04684
466.68942,0.05764
468.61788,0.03708
470.54635,0.06981
472.47482,0.12405
474.40329,0.09687
476.33176,0.08433
478.26023,0.11850
480.18870,0.13387
482.11716,0.11630
484.04563,0.06215
485.97410,0.00046
487.90257,-0.00115
489.83104,0.01935
491.75951,0.01197
493.68798,0.03019
495.61645,0.08316
497.54491,0.12469
499.47338,0.13799
501.40185,0.12631
503.33032,0.10470
505.25879,0.08659
507.18726,0.04061
509.11573,-0.00087
511.04419,0.01909
512.97266,0.06137
514.90113,0.08071
516.82960,0.06675
518.75807,0.06423
520.68654,0.09582
522.61501,0.10013
524.54348,0.05205
526.47194,-0.00592
528.40041,-0.02641
530.32888,-0.01505
532.25735,-0.00052
534.18582,0.00528
536.11429,0.01899
538.04276,0.05566
539.97122,0.08262
541.89969,0.09264
543.82816,0.10452
545.75663,0.08843
547.68510,0.04276
549.61357,-0.01948
551.54204,-0.16175
553.47051,-0.29562
555.39897,-0.22249
557.32744,-0.04830
559.25591,0.03495
561.18438,0.07097
563.11285,0.10544
565.04132,0.10515
566.96979,0.07218
568.89825,0.05561
570.82672,0.07227
572.75519,0.07553
574.68366,0.05474
576.61213,0.03242
578.54060,0.02604
580.46907,0.03696
582.39754,0.04973
584.32600,0.05737
586.25447,0.05653
588.18294,0.04872
590.11141,0.03553
592.03988,0.02703
593.96835,0.04101
595.89682,0.06668
597.82528,0.07942
599.75375,0.07774
601.68222,0.07919
603.61069,0.08262
605.53916,0.08030
607.46763,0.08030
609.39610,0.07634
611.32456,0.06102
613.25303,0.04683
615.18150,0.03378
617.10997,0.02232
619.03844,0.02517
620.96691,0.02867
622.89538,0.02599
624.82385,0.03726
626.75231,0.05742
628.68078,0.06260
630.60925,0.05705
632.53772,0.05284
634.46619,0.05425
636.39466,0.06472
638.32313,0.06725
640.25159,0.05529
642.18006,0.05287
644.10853,0.06716
646.03700,0.07934
647.96547,0.07824
649.89394,0.07086
651.82241,0.06183
653.75088,0.05053
655.67934,0.05273
657.60781,0.07916
659.53628,0.09729
661.46475,0.07967
663.39322,0.05240
665.32169,0.03617
667.25016,0.02705
669.17862,0.03395
671.10709,0.04180
673.03556,0.03856
674.96403,0.04258
676.89250,0.05363
678.82097,0.05599
680.74944,0.04744
682.67791,0.02901
684.60637,0.02284
686.53484,0.04855
688.46331,0.07546
690.39178,0.08383
692.32025,0.08467
694.24872,0.08304
696.17719,0.08556
698.10565,0.08342
700.03412,0.07497
701.96259,0.08369
703.89106,0.10127
705.81953,0.09969
707.74800,0.08183
709.67647,0.07299
711.60494,0.08021
713.53340,0.07872
715.46187,0.06404
717.39034,0.06173
719.31881,0.07436
721.24728,0.08001
723.17575,0.07303
725.10422,0.07421
727.03268,0.09008
728.96115,0.10230
730.88962,0.10098
732.81809,0.08768
734.74656,0.07035
736.67503,0.06572
738.60350,0.07682
740.53197,0.08689
742.46043,0.08592
744.38890,0.07877
746.31737,0.06963
748.24584,0.06408
750.17431,0.06902
752.10278,0.08129
754.03125,0.09003
755.95971,0.08838
757.88818,0.08255
759.81665,0.07815
761.74512,0.07257
763.67359,0.07306
765.60206,0.08289
767.53053,0.08406
769.45900,0.07130
771.38746,0.06532
773.31593,0.07471
775.24440,0.08117
777.17287,0.07273
779.10134,0.06440
781.02981,0.06814
782.95828,0.07911
784.88674,0.08641
786.81521,0.08191
788.74368,0.07622
790.67215,0.08032
792.60062,0.08676
794.52909,0.08560
796.45756,0.07489
798.38602,0.06538
800.31449,0.06845
802.24296,0.07367
804.17143,0.07340
806.09990,0.07852
808.02837,0.08113
809.95684,0.07161
811.88531,0.06862
813.81377,0.08016
815.74224,0.08491
817.67071,0.07368
819.59918,0.06339
821.52765,0.06771
823.45612,0.08198
825.38459,0.08773
827.31305,0.07816
829.24152,0.07093
831.16999,0.07523
833.09846,0.08062
835.02693,0.08337
836.95540,0.09130
838.88387,0.10166
840.81234,0.10239
842.74080,0.09346
844.66927,0.08483
846.59774,0.08134
848.52621,0.08419
850.45468,0.09144
852.38315,0.09373
854.31162,0.08598
856.24008,0.08331
858.16855,0.09440
860.09702,0.09544
862.02549,0.07723
863.95396,0.06551
865.88243,0.07650
867.81090,0.10582
869.73937,0.12817
871.66783,0.11384
873.59630,0.08554
875.52477,0.08410
877.45324,0.09747
879.38171,0.09713
881.31018,0.08925
883.23865,0.08906
885.16711,0.08985
887.09558,0.08737
889.02405,0.08405
890.95252,0.07887
892.88099,0.08121
894.80946,0.09384
896.73793,0.10310
898.66640,0.10075
900.59486,0.09353
902.52333,0.09024
904.45180,0.09338
906.38027,0.10086
908.30874,0.10330
910.23721,0.09877
912.16568,0.09263
914.09414,0.08220
916.02261,0.07357
917.95108,0.07265
919.87955,0.07078
921.80802,0.06804
923.73649,0.06711
925.66496,0.06837
927.59343,0.07421
929.52189,0.07826
931.45036,0.07652
933.37883,0.07175
935.30730,0.06853
937.23577,0.07266
939.16424,0.08236
941.09271,0.08978
943.02117,0.09410
944.94964,0.09502
946.87811,0.08683
948.80658,0.07707
950.73505,0.07781
952.66352,0.08615
954.59199,0.09273
956.52045,0.09497
958.44892,0.09382
960.37739,0.08889
962.30586,0.08678
964.23433,0.09164
966.16280,0.09253
968.09127,0.08421
970.01974,0.08011
971.94820,0.08615
973.87667,0.08915
975.80514,0.08504
977.73361,0.08446
979.66208,0.08616
981.59055,0.08029
983.51902,0.07143
985.44748,0.07011
987.37595,0.07540
989.30442,0.07968
991.23289,0.08344
993.16136,0.08764
995.08983,0.08763
997.01830,0.08947
998.94677,0.09551
1000.87523,0.09987
1002.80370,0.10477
1004.73217,0.10696
1006.66064,0.10239
1008.58911,0.09801
1010.51758,0.09750
1012.44605,0.09836
1014.37451,0.10052
1016.30298,0.10171
1018.23145,0.09366
1020.15992,0.08100
1022.08839,0.07673
1024.01686,0.07291
1025.94533,0.05805
1027.87380,0.05011
1029.80226,0.06694
1031.73073,0.08828
1033.65920,0.09328
1035.58767,0.08776
1037.51614,0.08228
1039.44461,0.08525
1041.37308,0.09382
1043.30154,0.09735
1045.23001,0.09624
1047.15848,0.09479
1049.08695,0.09515
1051.01542,0.09448
1052.94389,0.08982
1054.87236,0.08974
1056.80083,0.09542
1058.72929,0.10072
1060.65776,0.10618
1062.58623,0.10272
1064.51470,0.08531
1066.44317,0.07274
1068.37164,0.07217
1070.30011,0.06890
1072.22857,0.06406
1074.15704,0.06892
1076.08551,0.07847
1078.01398,0.08800
1079.94245,0.09721
1081.87092,0.09970
1083.79939,0.09772
1085.72786,0.10019
1087.65632,0.10375
1089.58479,0.10175
1091.51326,0.09846
1093.44173,0.09848
1095.37020,0.09615
1097.29867,0.09052
1099.22714,0.08957
1101.15560,0.08900
1103.08407,0.08299
1105.01254,0.08290
1106.94101,0.09314
1108.86948,0.10080
1110.79795,0.10420
1112.72642,0.10983
1114.65489,0.11173
1116.58335,0.10988
1118.51182,0.10806
1120.44029,0.09976
1122.36876,0.08893
1124.29723,0.08545
1126.22570,0.08844
1128.15417,0.09561
1130.08263,0.10174
1132.01110,0.10101
1133.93957,0.09606
1135.86804,0.09086
1137.79651,0.09119
1139.72498,0.09781
1141.65345,0.10119
1143.58191,0.09950
1145.51038,0.09956
1147.43885,0.10358
1149.36732,0.10933
1151.29579,0.11470
1153.22426,0.11617
1155.15273,0.11166
1157.08120,0.10393
1159.00966,0.09549
1160.93813,0.09165
1162.86660,0.09464
1164.79507,0.09529
1166.72354,0.09154
1168.65201,0.08826
1170.58048,0.08598
1172.50894,0.08930
1174.43741,0.09583
1176.36588,0.09718
1178.29435,0.09706
1180.22282,0.09746
1182.15129,0.09629
1184.07976,0.09689
1186.00823,0.09956
1187.93669,0.10161
1189.86516,0.10309
1191.79363,0.10245
1193.72210,0.09885
1195.65057,0.09831
1197.57904,0.10124
1199.50751,0.10081
1201.43597,0.09694
1203.36444,0.09334
1205.29291,0.09412
1207.22138,0.09933
1209.14985,0.10044
1211.07832,0.09637
1213.00679,0.09464
1214.93526,0.09546
1216.86372,0.09516
1218.79219,0.09412
1220.72066,0.09486
1222.64913,0.09755
1224.57760,0.10112
1226.50607,0.10499
1228.43454,0.10499
1230.36300,0.10197
1232.29147,0.10105
1234.21994,0.09899
1236.14841,0.09383
1238.07688,0.09147
1240.00535,0.09415
1241.93382,0.09827
1243.86229,0.10044
1245.79075,0.10006
1247.71922,0.10028
1249.64769,0.10026
1251.57616,0.09647
1253.50463,0.09127
1255.43310,0.08835
1257.36157,0.09063
1259.29003,0.09541
1261.21850,0.09784
1263.14697,0.09971
1265.07544,0.10004
1267.00391,0.09811
1268.93238,0.09837
1270.86085,0.09935
1272.78932,0.09906
1274.71778,0.10148
1276.64625,0.10675
1278.57472,0.10850
1280.50319,0.10545
1282.43166,0.10391
1284.36013,0.10243
1286.28860,0.09708
1288.21706,0.09503
1290.14553,0.09828
1292.07400,0.10021
1294.00247,0.09980
1295.93094,0.09991
1297.85941,0.10065
1299.78788,0.09995
1301.71634,0.09676
1303.64481,0.09065
1305.57328,0.08573
1307.50175,0.08850
1309.43022,0.09649
1311.35869,0.10292
1313.28716,0.10465
1315.21563,0.10359
1317.14409,0.10422
1319.07256,0.10452
1321.00103,0.10219
1322.92950,0.10026
1324.85797,0.09735
1326.78644,0.09430
1328.71491,0.09551
1330.64337,0.09544
1332.57184,0.09240
1334.50031,0.09534
1336.42878,0.10296
1338.35725,0.10649
1340.28572,0.10453
1342.21419,0.10341
1344.14266,0.10389
1346.07112,0.10203
1347.99959,0.10069
1349.92806,0.10104
1351.85653,0.10073
1353.78500,0.10076
1355.71347,0.10153
1357.64194,0.10321
1359.57040,0.10312
1361.49887,0.10093
1363.42734,0.10222
1365.35581,0.10618
1367.28428,0.10967
1369.21275,0.11249
1371.14122,0.11382
1373.06969,0.11423
1374.99815,0.11283
1376.92662,0.10864
1378.85509,0.10370
1380.78356,0.09980
1382.71203,0.10133
1384.64050,0.10856
1386.56897,0.11532
1388.49743,0.11771
1390.42590,0.11651
1392.35437,0.11606
1394.28284,0.11880
1396.21131,0.12043
1398.13978,0.11615
1400.06825,0.10921
1401.99672,0.10573
1403.92518,0.10514
1405.85365,0.10612
1407.78212,0.10895
1409.71059,0.11050
1411.63906,0.10913
1413.56753,0.10896
1415.49600,0.11208
1417.42446,0.11651
1419.35293,0.11866
1421.28140,0.11430
1423.20987,0.10627
1425.13834,0.10082
1427.06681,0.10317
1428.99528,0.10920
1430.92375,0.11084
1432.85221,0.10973
1434.78068,0.11174
1436.70915,0.11590
1438.63762,0.11609
1440.56609,0.11347
1442.49456,0.11100
1444.42303,0.11007
1446.35149,0.11302
1448.27996,0.11609
1450.20843,0.11544
1452.13690,0.11833
1454.06537,0.12732
1455.99384,0.13511
1457.92231,0.12825
1459.85077,0.11803
1461.77924,0.11726
1463.70771,0.11945
1465.63618,0.11904
1467.56465,0.11754
1469.49312,0.11829
1471.42159,0.12180
1473.35006,0.12407
1475.27852,0.12428
1477.20699,0.12570
1479.13546,0.12620
1481.06393,0.12431
1482.99240,0.11958
1484.92087,0.11421
1486.84934,0.11245
1488.77780,0.11478
1490.70627,0.11465
1492.63474,0.11361
1494.56321,0.11673
1496.49168,0.12261
1498.42015,0.12372
1500.34862,0.12039
1502.27709,0.12339
1504.20555,0.13666
1506.13402,0.15399
1508.06249,0.14750
1509.99096,0.13277
1511.91943,0.12651
1513.84790,0.12326
1515.77637,0.12209
1517.70483,0.12385
1519.63330,0.12739
1521.56177,0.12592
1523.49024,0.11911
1525.41871,0.11881
1527.34718,0.11955
1529.27565,0.11517
1531.20412,0.11513
1533.13258,0.12366
1535.06105,0.12738
1536.98952,0.12601
1538.91799,0.13414
1540.84646,0.15149
1542.77493,0.15042
1544.70340,0.13654
1546.63186,0.12413
1548.56033,0.11931
1550.48880,0.11643
1552.41727,0.11188
1554.34574,0.11395
1556.27421,0.12860
1558.20268,0.15052
1560.13115,0.14229
1562.05961,0.12480
1563.98808,0.11953
1565.91655,0.11904
1567.84502,0.12161
1569.77349,0.12492
1571.70196,0.12276
1573.63043,0.12035
1575.55889,0.12012
1577.48736,0.11847
1579.41583,0.11728
1581.34430,0.11752
1583.27277,0.11653
1585.20124,0.11214
1587.12971,0.10726
1589.05818,0.10884
1590.98664,0.11575
1592.91511,0.11887
1594.84358,0.11731
1596.77205,0.11554
1598.70052,0.11401
1600.62899,0.11509
1602.55746,0.11909
1604.48592,0.12048
1606.41439,0.11883
1608.34286,0.11685
1610.27133,0.11479
1612.19980,0.11292
1614.12827,0.11175
1616.05674,0.11194
1617.98521,0.11376
1619.91367,0.11626
1621.84214,0.11858
1623.77061,0.11749
1625.69908,0.11377
1627.62755,0.11305
1629.55602,0.11523
1631.48449,0.11761
1633.41295,0.12148
1635.34142,0.12812
1637.26989,0.12752
1639.19836,0.11894
1641.12683,0.11143
1643.05530,0.10972
1644.98377,0.11706
1646.91223,0.12878
1648.84070,0.13034
1650.76917,0.12894
1652.69764,0.12847
1654.62611,0.12171
1656.55458,0.11825
1658.48305,0.11800
1660.41152,0.11732
1662.33998,0.11629
1664.26845,0.11738
1666.19692,0.12027
1668.12539,0.12459
1670.05386,0.12987
1671.98233,0.13069
1673.91080,0.12819
1675.83926,0.12552
1677.76773,0.12405
1679.69620,0.12568
1681.62467,0.13149
1683.55314,0.13895
1685.48161,0.13823
1687.41008,0.13361
1689.33855,0.12856
1691.26701,0.12217
1693.19548,0.12100
1695.12395,0.12726
1697.05242,0.13442
1698.98089,0.13601
1700.90936,0.12999
1702.83783,0.12393
1704.76629,0.12447
1706.69476,0.12654
1708.62323,0.12361
1710.55170,0.11883
1712.48017,0.11787
1714.40864,0.12230
1716.33711,0.12792
1718.26558,0.12624
1720.19404,0.11897
1722.12251,0.11202
1724.05098,0.10807
1725.97945,0.10907
1727.90792,0.11246
1729.83639,0.11641
1731.76486,0.12142
1733.69332,0.12105
1735.62179,0.11325
1737.55026,0.11223
1739.47873,0.11576
1741.40720,0.11650
1743.33567,0.11594
1745.26414,0.11712
1747.19261,0.11949
1749.12107,0.12126
1751.04954,0.11964
1752.97801,0.11832
1754.90648,0.11968
1756.83495,0.12063
1758.76342,0.11917
1760.69189,0.11617
1762.62035,0.11362
1764.54882,0.11257
1766.47729,0.11166
1768.40576,0.11162
1770.33423,0.11444
1772.26270,0.11824
1774.19117,0.11876
1776.11964,0.11826
1778.04810,0.11917
1779.97657,0.11993
1781.90504,0.11948
1783.83351,0.11872
1785.76198,0.11585
1787.69045,0.11215
1789.61892,0.11244
1791.54738,0.11425
1793.47585,0.11206
1795.40432,0.11079
1797.33279,0.11327
1799.26126,0.11584
1801.18973,0.11622
1803.11820,0.11456
1805.04666,0.11228
1806.97513,0.11260
1808.90360,0.11484
1810.83207,0.11470
1812.76054,0.11311
1814.68901,0.11246
1816.61748,0.11190
1818.54595,0.11110
1820.47441,0.11105
1822.40288,0.11308
1824.33135,0.11598
1826.25982,0.11791
1828.18829,0.12030
1830.11676,0.11996
1832.04523,0.11510
1833.97369,0.11329
1835.90216,0.11548
1837.83063,0.11647
1839.75910,0.11585
1841.68757,0.11738
1843.61604,0.12046
1845.54451,0.12203
1847.47298,0.12149
1849.40144,0.11749
1851.32991,0.11236
1853.25838,0.11001
1855.18685,0.10957
1857.11532,0.11023
1859.04379,0.11123
1860.97226,0.11057
1862.90072,0.10864
1864.82919,0.10917
1866.75766,0.11293
1868.68613,0.11376
1870.61460,0.11073
1872.54307,0.11023
1874.47154,0.11098
1876.40001,0.10920
1878.32847,0.10734
1880.25694,0.10882
1882.18541,0.11114
1884.11388,0.11302
1886.04235,0.11493
1887.97082,0.11506
1889.89929,0.11198
1891.82775,0.10822
1893.75622,0.10773
1895.68469,0.11020
1897.61316,0.11198
1899.54163,0.11072
1901.47010,0.10831
1903.39857,0.10714
1905.32704,0.10662
1907.25550,0.10816
1909.18397,0.11244
1911.11244,0.11478
1913.04091,0.11409
1914.96938,0.11412
1916.89785,0.11479
1918.82632,0.11402
1920.75478,0.11410
1922.68325,0.11594
1924.61172,0.11661
1926.54019,0.11463
1928.46866,0.11073
1930.39713,0.10754
1932.32560,0.10773
1934.25407,0.11030
1936.18253,0.11202
1938.11100,0.11108
1940.03947,0.10933
1941.96794,0.11044
1943.89641,0.11406
1945.82488,0.11523
1947.75335,0.11305
1949.68181,0.11107
1951.61028,0.11061
1953.53875,0.11019
1955.46722,0.11072
1957.39569,0.11295
1959.32416,0.11435
1961.25263,0.11362
1963.18110,0.11287
1965.10956,0.11347
1967.03803,0.11347
1968.96650,0.11261
1970.89497,0.11239
1972.82344,0.11122
1974.75191,0.10890
1976.68038,0.10823
1978.60884,0.10976
1980.53731,0.11120
1982.46578,0.11117
1984.39425,0.11054
1986.32272,0.11045
1988.25119,0.11108
1990.17966,0.11244
1992.10812,0.11424
1994.03659,0.11538
1995.96506,0.11474
1997.89353,0.11281
1999.82200,0.11205
2001.75047,0.11317
2003.67894,0.11484
2005.60741,0.11589
2007.53587,0.11568
2009.46434,0.11590
2011.39281,0.11630
2013.32128,0.11522
2015.24975,0.11403
2017.17822,0.11333
2019.10669,0.11366
2021.03515,0.11469
2022.96362,0.11351
2024.89209,0.11096
2026.82056,0.11123
2028.74903,0.11346
2030.67750,0.11305
2032.60597,0.11154
2034.53444,0.11271
2036.46290,0.11436
2038.39137,0.11448
2040.31984,0.11340
2042.24831,0.11275
2044.17678,0.11413
2046.10525,0.11465
2048.03372,0.11366
2049.96218,0.11397
2051.89065,0.11380
2053.81912,0.11198
2055.74759,0.11106
2057.67606,0.11175
2059.60453,0.11271
2061.53300,0.11225
2063.46147,0.10956
2065.38993,0.10692
2067.31840,0.10760
2069.24687,0.11094
2071.17534,0.11366
2073.10381,0.11443
2075.03228,0.11344
2076.96075,0.11218
2078.88921,0.11257
2080.81768,0.11353
2082.74615,0.11373
2084.67462,0.11517
2086.60309,0.11879
2088.53156,0.11992
2090.46003,0.11612
2092.38850,0.11285
2094.31696,0.11349
2096.24543,0.11547
2098.17390,0.11559
2100.10237,0.11334
2102.03084,0.11133
2103.95931,0.11109
2105.88778,0.11231
2107.81624,0.11471
2109.74471,0.11669
2111.67318,0.11609
2113.60165,0.11376
2115.53012,0.11170
2117.45859,0.11014
2119.38706,0.10916
2121.31553,0.10870
2123.24399,0.10931
2125.17246,0.11105
2127.10093,0.11238
2129.02940,0.11274
2130.95787,0.11242
2132.88634,0.11270
2134.81481,0.11402
2136.74327,0.11389
2138.67174,0.11212
2140.60021,0.11269
2142.52868,0.11510
2144.45715,0.11423
2146.38562,0.11078
2148.31409,0.10951
2150.24255,0.11089
2152.17102,0.11234
2154.09949,0.11264
2156.02796,0.11268
2157.95643,0.11351
2159.88490,0.11439
2161.81337,0.11440
2163.74184,0.11548
2165.67030,0.11864
2167.59877,0.12017
2169.52724,0.11874
2171.45571,0.11768
2173.38418,0.11793
2175.31265,0.11805
2177.24112,0.11700
2179.16958,0.11500
2181.09805,0.11342
2183.02652,0.11197
2184.95499,0.11027
2186.88346,0.10971
2188.81193,0.11057
2190.74040,0.11153
2192.66887,0.11108
2194.59733,0.11105
2196.52580,0.11380
2198.45427,0.11485
2200.38274,0.11186
2202.31121,0.11024
2204.23968,0.11173
2206.16815,0.11432
2208.09661,0.11773
2210.02508,0.11971
2211.95355,0.11821
2213.88202,0.11588
2215.81049,0.11479
2217.73896,0.11380
2219.66743,0.11322
2221.59590,0.11411
2223.52436,0.11483
2225.45283,0.11516
2227.38130,0.11616
2229.30977,0.11575
2231.23824,0.11467
2233.16671,0.11593
2235.09518,0.11715
2237.02364,0.11536
2238.95211,0.11279
2240.88058,0.11236
2242.80905,0.11399
2244.73752,0.11645
2246.66599,0.11727
2248.59446,0.11548
2250.52293,0.11397
2252.45139,0.11425
2254.37986,0.11525
2256.30833,0.11586
2258.23680,0.11601
2260.16527,0.11567
2262.09374,0.11497
2264.02221,0.11550
2265.95067,0.11560
2267.87914,0.11233
2269.80761,0.10936
2271.73608,0.10998
2273.66455,0.11140
2275.59302,0.11282
2277.52149,0.11489
2279.44996,0.11628
2281.37842,0.11720
2283.30689,0.11715
2285.23536,0.11555
2287.16383,0.11440
2289.09230,0.11376
2291.02077,0.11253
2292.94924,0.11164
2294.87770,0.11206
2296.80617,0.11350
2298.73464,0.11460
2300.66311,0.11404
2302.59158,0.11290
2304.52005,0.11430
2306.44852,0.11800
2308.37699,0.12037
2310.30545,0.11974
2312.23392,0.11689
2314.16239,0.11411
2316.09086,0.11208
2318.01933,0.10671
2319.94780,0.09866
2321.87627,0.09852
2323.80473,0.10841
2325.73320,0.11712
2327.66167,0.11813
2329.59014,0.11194
2331.51861,0.10264
2333.44708,0.09977
2335.37555,0.11145
2337.30401,0.12716
2339.23248,0.12704
2341.16095,0.11229
2343.08942,0.09985
2345.01789,0.09911
2346.94636,0.10450
2348.87483,0.10862
2350.80330,0.11218
2352.73176,0.11814
2354.66023,0.12244
2356.58870,0.11462
2358.51717,0.09550
2360.44564,0.08329
2362.37411,0.08909
2364.30258,0.10518
2366.23104,0.12019
2368.15951,0.11861
2370.08798,0.10216
2372.01645,0.09348
2373.94492,0.10234
2375.87339,0.11625
2377.80186,0.12062
2379.73033,0.11531
2381.65879,0.10991
2383.58726,0.11010
2385.51573,0.11300
2387.44420,0.11363
2389.37267,0.11198
2391.30114,0.11129
2393.22961,0.11237
2395.15807,0.11454
2397.08654,0.11749
2399.01501,0.11932
2400.94348,0.11946
2402.87195,0.11952
2404.80042,0.11923
2406.72889,0.11725
2408.65736,0.11418
2410.58582,0.11258
2412.51429,0.11214
2414.44276,0.11035
2416.37123,0.10938
2418.29970,0.11192
2420.22817,0.11554
2422.15664,0.11768
2424.08510,0.11921
2426.01357,0.12123
2427.94204,0.12125
2429.87051,0.11711
2431.79898,0.11213
2433.72745,0.11153
2435.65592,0.11466
2437.58439,0.11541
2439.51285,0.11233
2441.44132,0.10940
2443.36979,0.10912
2445.29826,0.11137
2447.22673,0.11366
2449.15520,0.11541
2451.08367,0.11827
2453.01213,0.11977
2454.94060,0.11828
2456.86907,0.11677
2458.79754,0.11661
2460.72601,0.11844
2462.65448,0.12122
2464.58295,0.12027
2466.51142,0.11613
2468.43988,0.11491
2470.36835,0.11737
2472.29682,0.11915
2474.22529,0.11901
2476.15376,0.11858
2478.08223,0.11835
2480.01070,0.11669
2481.93916,0.11398
2483.86763,0.11266
2485.79610,0.11099
2487.72457,0.10884
2489.65304,0.11062
2491.58151,0.11568
2493.50998,0.11943
2495.43844,0.11949
2497.36691,0.11711
2499.29538,0.11527
2501.22385,0.11490
2503.15232,0.11712
2505.08079,0.12035
2507.00926,0.11991
2508.93773,0.11810
2510.86619,0.12010
2512.79466,0.12297
2514.72313,0.12075
2516.65160,0.11632
2518.58007,0.11678
2520.50854,0.12023
2522.43701,0.12153
2524.36547,0.12116
2526.29394,0.11960
2528.22241,0.11633
2530.15088,0.11462
2532.07935,0.11531
2534.00782,0.11408
2535.93629,0.11101
2537.86476,0.11075
2539.79322,0.11404
2541.72169,0.11825
2543.65016,0.12252
2545.57863,0.12565
2547.50710,0.12487
2549.43557,0.12137
2551.36404,0.11820
2553.29250,0.11659
2555.22097,0.11789
2557.14944,0.12157
2559.07791,0.12321
2561.00638,0.12010
2562.93485,0.11589
2564.86332,0.11475
2566.79179,0.11512
2568.72025,0.11517
2570.64872,0.11711
2572.57719,0.12006
2574.50566,0.11892
2576.43413,0.11520
2578.36260,0.11479
2580.29107,0.11750
2582.21953,0.11987
2584.14800,0.11974
2586.07647,0.11731
2588.00494,0.11597
2589.93341,0.11850
2591.86188,0.12221
2593.79035,0.12233
2595.71882,0.12032
2597.64728,0.12002
2599.57575,0.12011
2601.50422,0.11843
2603.43269,0.11656
2605.36116,0.11558
2607.28963,0.11555
2609.21810,0.11847
2611.14656,0.12117
2613.07503,0.11905
2615.00350,0.11751
2616.93197,0.11980
2618.86044,0.12051
2620.78891,0.11852
2622.71738,0.11760
2624.64585,0.11764
2626.57431,0.11649
2628.50278,0.11488
2630.43125,0.11425
2632.35972,0.11534
2634.28819,0.11732
2636.21666,0.11780
2638.14513,0.11704
2640.07359,0.11635
2642.00206,0.11558
2643.93053,0.11607
2645.85900,0.11793
2647.78747,0.12034
2649.71594,0.12329
2651.64441,0.12422
2653.57288,0.12295
2655.50134,0.12254
2657.42981,0.12305
2659.35828,0.12299
2661.28675,0.12041
2663.21522,0.11709
2665.14369,0.11846
2667.07216,0.12202
2669.00062,0.12360
2670.92909,0.12578
2672.85756,0.12742
2674.78603,0.12663
2676.71450,0.12640
2678.64297,0.12712
2680.57144,0.12784
2682.49990,0.12728
2684.42837,0.12479
2686.35684,0.12383
2688.28531,0.12349
2690.21378,0.11990
2692.14225,0.11726
2694.07072,0.11866
2695.99919,0.11967
2697.92765,0.11886
2699.85612,0.11784
2701.78459,0.11696
2703.71306,0.11672
2705.64153,0.11711
2707.57000,0.11753
2709.49847,0.11832
2711.42693,0.12070
2713.35540,0.12454
2715.28387,0.12769
2717.21234,0.12804
2719.14081,0.12646
2721.06928,0.12418
2722.99775,0.12104
2724.92622,0.11976
2726.85468,0.12089
2728.78315,0.12160
2730.71162,0.12220
2732.64009,0.12252
2734.56856,0.12155
2736.49703,0.12067
2738.42550,0.12205
2740.35396,0.12559
2742.28243,0.12656
2744.21090,0.12321
2746.13937,0.12031
2748.06784,0.12079
2749.99631,0.12253
2751.92478,0.12306
2753.85325,0.12444
2755.78171,0.12837
2757.71018,0.13236
2759.63865,0.13364
2761.56712,0.13143
2763.49559,0.12774
2765.42406,0.12472
2767.35253,0.12484
2769.28099,0.12834
2771.20946,0.13033
2773.13793,0.12955
2775.06640,0.12895
2776.99487,0.12894
2778.92334,0.12813
2780.85181,0.12633
2782.78028,0.12536
2784.70874,0.12677
2786.63721,0.13016
2788.56568,0.13290
2790.49415,0.13306
2792.42262,0.13111
2794.35109,0.12720
2796.27956,0.12315
2798.20802,0.12141
2800.13649,0.12099
2802.06496,0.12177
2803.99343,0.12459
2805.92190,0.12741
2807.85037,0.12729
2809.77884,0.12513
2811.70731,0.12474
2813.63577,0.12562
2815.56424,0.12487
2817.49271,0.12279
2819.42118,0.12243
2821.34965,0.12538
2823.27812,0.12907
2825.20659,0.12995
2827.13505,0.12830
2829.06352,0.12847
2830.99199,0.12996
2832.92046,0.13060
2834.84893,0.13177
2836.77740,0.13082
2838.70587,0.12592
2840.63433,0.12002
2842.56280,0.11653
2844.49127,0.11769
2846.41974,0.12127
2848.34821,0.12391
2850.27668,0.12619
2852.20515,0.12910
2854.13362,0.13054
2856.06208,0.12956
2857.99055,0.12900
2859.91902,0.13003
2861.84749,0.13043
2863.77596,0.12926
2865.70443,0.12791
2867.63290,0.12739
2869.56136,0.12924
2871.48983,0.13358
2873.41830,0.13475
2875.34677,0.13087
2877.27524,0.12831
2879.20371,0.12994
2881.13218,0.13190
2883.06065,0.13007
2884.98911,0.12578
2886.91758,0.12443
2888.84605,0.12692
2890.77452,0.12831
2892.70299,0.12614
2894.63146,0.12455
2896.55993,0.12582
2898.48839,0.12639
2900.41686,0.12641
2902.34533,0.12778
2904.27380,0.12691
2906.20227,0.12253
2908.13074,0.11927
2910.05921,0.12035
2911.98768,0.12394
2913.91614,0.12617
2915.84461,0.12624
2917.77308,0.12607
2919.70155,0.12619
2921.63002,0.12648
2923.55849,0.12689
2925.48696,0.12587
2927.41542,0.12554
2929.34389,0.12897
2931.27236,0.13304
2933.20083,0.13488
2935.12930,0.13133
2937.05777,0.12335
2938.98624,0.12327
2940.91471,0.13161
2942.84317,0.13486
2944.77164,0.13122
2946.70011,0.12688
2948.62858,0.12480
2950.55705,0.12458
2952.48552,0.12578
2954.41399,0.12924
2956.34245,0.13008
2958.27092,0.12524
2960.19939,0.12214
2962.12786,0.12436
2964.05633,0.12617
2965.98480,0.12522
2967.91327,0.12603
2969.84174,0.13022
2971.77020,0.13126
2973.69867,0.12675
2975.62714,0.12159
2977.55561,0.11652
2979.48408,0.11558
2981.41255,0.12289
2983.34102,0.12993
2985.26948,0.12968
2987.19795,0.12565
2989.12642,0.12645
2991.05489,0.13372
2992.98336,0.13860
2994.91183,0.13667
2996.84030,0.13040
2998.76877,0.12599
3000.69723,0.12757
3002.62570,0.13044
3004.55417,0.13047
3006.48264,0.12636
3008.41111,0.12107
3010.33958,0.12215
3012.26805,0.12445
3014.19651,0.11497
3016.12498,0.09982
3018.05345,0.09871
3019.98192,0.11224
3021.91039,0.12266
3023.83886,0.12459
3025.76733,0.12484
3027.69579,0.12596
3029.62426,0.12687
3031.55273,0.12786
3033.48120,0.13002
3035.40967,0.13195
3037.33814,0.13166
3039.26661,0.13139
3041.19508,0.13251
3043.12354,0.13270
3045.05201,0.13312
3046.98048,0.13575
3048.90895,0.13703
3050.83742,0.13334
3052.76589,0.12782
3054.69436,0.12526
3056.62282,0.12485
3058.55129,0.12614
3060.47976,0.13202
3062.40823,0.13970
3064.33670,0.13952
3066.26517,0.12970
3068.19364,0.12081
3070.12211,0.11983
3072.05057,0.12470
3073.97904,0.12795
3075.90751,0.12850
3077.83598,0.13391
3079.76445,0.13821
3081.69292,0.13390
3083.62139,0.12884
3085.54985,0.12668
3087.47832,0.12530
3089.40679,0.12591
3091.33526,0.12737
3093.26373,0.12471
3095.19220,0.11951
3097.12067,0.11975
3099.04914,0.12675
3100.97760,0.13335
3102.90607,0.13258
3104.83454,0.12777
3106.76301,0.12795
3108.69148,0.13215
3110.61995,0.13218
3112.54842,0.12973
3114.47688,0.13181
3116.40535,0.13461
3118.33382,0.13315
3120.26229,0.13018
3122.19076,0.12739
3124.11923,0.12652
3126.04770,0.13149
3127.97617,0.13748
3129.90463,0.13449
3131.83310,0.12781
3133.76157,0.13102
3135.69004,0.14202
3137.61851,0.14816
3139.54698,0.14554
3141.47545,0.13801
3143.40391,0.13074
3145.33238,0.12899
3147.26085,0.13222
3149.18932,0.13557
3151.11779,0.13698
3153.04626,0.13730
3154.97473,0.13673
3156.90320,0.13495
3158.83166,0.13549
3160.76013,0.13941
3162.68860,0.14034
3164.61707,0.13609
3166.54554,0.13269
3168.47401,0.13295
3170.40248,0.13303
3172.33094,0.13074
3174.25941,0.13029
3176.18788,0.13629
3178.11635,0.14581
3180.04482,0.15058
3181.97329,0.14482
3183.90176,0.13444
3185.83022,0.13143
3187.75869,0.13452
3189.68716,0.13799
3191.61563,0.14211
3193.54410,0.14206
3195.47257,0.13599
3197.40104,0.13092
3199.32951,0.13036
3201.25797,0.13304
3203.18644,0.13593
3205.11491,0.13464
3207.04338,0.13105
3208.97185,0.13341
3210.90032,0.13906
3212.82879,0.13935
3214.75725,0.13826
3216.68572,0.14019
3218.61419,0.14094
3220.54266,0.13836
3222.47113,0.13525
3224.39960,0.13409
3226.32807,0.13229
3228.25654,0.12935
3230.18500,0.13029
3232.11347,0.13533
3234.04194,0.13867
3235.97041,0.13662
3237.89888,0.13483
3239.82735,0.13799
3241.75582,0.13903
3243.68428,0.13717
3245.61275,0.13682
3247.54122,0.13369
3249.46969,0.12917
3251.39816,0.12935
3253.32663,0.13139
3255.25510,0.13064
3257.18357,0.13061
3259.11203,0.13270
3261.04050,0.13232
3262.96897,0.13120
3264.89744,0.13230
3266.82591,0.13413
3268.75438,0.13417
3270.68285,0.13146
3272.61131,0.12826
3274.53978,0.12725
3276.46825,0.13018
3278.39672,0.13394
3280.32519,0.13387
3282.25366,0.13150
3284.18213,0.13060
3286.11060,0.13112
3288.03906,0.13094
3289.96753,0.13082
3291.89600,0.13275
3293.82447,0.13492
3295.75294,0.13407
3297.68141,0.13415
3299.60988,0.13918
3301.53834,0.14388
3303.46681,0.14380
3305.39528,0.14049
3307.32375,0.13866
3309.25222,0.13967
3311.18069,0.13863
3313.10916,0.13553
3315.03763,0.13497
3316.96609,0.13326
3318.89456,0.12908
3320.82303,0.13016
3322.75150,0.13441
3324.67997,0.13457
3326.60844,0.13085
3328.53691,0.12729
3330.46537,0.12943
3332.39384,0.13493
3334.32231,0.13741
3336.25078,0.13983
3338.17925,0.14368
3340.10772,0.14213
3342.03619,0.13489
3343.96466,0.13031
3345.89312,0.13168
3347.82159,0.13497
3349.75006,0.13564
3351.67853,0.13285
3353.60700,0.13187
3355.53547,0.13491
3357.46394,0.13629
3359.39240,0.13539
3361.32087,0.13667
3363.24934,0.14028
3365.17781,0.14241
3367.10628,0.13996
3369.03475,0.13648
3370.96322,0.13638
3372.89168,0.13593
3374.82015,0.13081
3376.74862,0.12493
3378.67709,0.12454
3380.60556,0.12995
3382.53403,0.13672
3384.46250,0.14232
3386.39097,0.14597
3388.31943,0.14514
3390.24790,0.14094
3392.17637,0.13854
3394.10484,0.13864
3396.03331,0.13847
3397.96178,0.13662
3399.89025,0.13338
3401.81871,0.13169
3403.74718,0.13173
3405.67565,0.12938
3407.60412,0.12601
3409.53259,0.12748
3411.46106,0.13177
3413.38953,0.13264
3415.31800,0.13271
3417.24646,0.13502
3419.17493,0.13489
3421.10340,0.13106
3423.03187,0.12804
3424.96034,0.12799
3426.88881,0.13083
3428.81728,0.13621
3430.74574,0.14031
3432.67421,0.13834
3434.60268,0.13224
3436.53115,0.12737
3438.45962,0.12549
3440.38809,0.12513
3442.31656,0.12401
3444.24503,0.12244
3446.17349,0.12246
3448.10196,0.12128
3450.03043,0.11862
3451.95890,0.12198
3453.88737,0.12994
3455.81584,0.13246
3457.74431,0.12783
3459.67277,0.12398
3461.60124,0.12540
3463.52971,0.12496
3465.45818,0.11898
3467.38665,0.11547
3469.31512,0.11809
3471.24359,0.12196
3473.17206,0.12367
3475.10052,0.12219
3477.02899,0.11870
3478.95746,0.11948
3480.88593,0.12340
3482.81440,0.12196
3484.74287,0.11688
3486.67134,0.11428
3488.59980,0.11706
3490.52827,0.12171
3492.45674,0.12107
3494.38521,0.11486
3496.31368,0.10924
3498.24215,0.11056
3500.17062,0.11671
3502.09909,0.12332
3504.02755,0.12703
3505.95602,0.12474
3507.88449,0.12069
3509.81296,0.11671
3511.74143,0.11115
3513.66990,0.10531
3515.59837,0.10143
3517.52683,0.10194
3519.45530,0.10551
3521.38377,0.10852
3523.31224,0.11219
3525.24071,0.11775
3527.16918,0.11941
3529.09765,0.11549
3531.02611,0.10989
3532.95458,0.10548
3534.88305,0.10693
3536.81152,0.11037
3538.73999,0.10730
3540.66846,0.10380
3542.59693,0.10791
3544.52540,0.11533
3546.45386,0.11866
3548.38233,0.11610
3550.31080,0.11047
3552.23927,0.10773
3554.16774,0.10878
3556.09621,0.10886
3558.02468,0.10866
3559.95314,0.10934
3561.88161,0.10868
3563.81008,0.10842
3565.73855,0.11314
3567.66702,0.11743
3569.59549,0.11101
3571.52396,0.09964
3573.45243,0.09288
3575.38089,0.09409
3577.30936,0.09889
3579.23783,0.10332
3581.16630,0.10493
3583.09477,0.10442
3585.02324,0.10524
3586.95171,0.10714
3588.88017,0.10796
3590.80864,0.10738
3592.73711,0.10559
3594.66558,0.10283
3596.59405,0.10126
3598.52252,0.10169
3600.45099,0.10056
3602.37946,0.09882
3604.30792,0.10132
3606.23639,0.10400
3608.16486,0.10016
3610.09333,0.09640
3612.02180,0.10031
3613.95027,0.10571
3615.87874,0.10482
3617.80720,0.10110
3619.73567,0.10197
3621.66414,0.10404
3623.59261,0.10222
3625.52108,0.09975
3627.44955,0.10083
3629.37802,0.10514
3631.30649,0.10411
3633.23495,0.09801
3635.16342,0.09167
3637.09189,0.08762
3639.02036,0.08603
3640.94883,0.08659
3642.87730,0.08831
3644.80577,0.09055
3646.73423,0.09244
3648.66270,0.09342
3650.59117,0.09320
3652.51964,0.09072
3654.44811,0.08850
3656.37658,0.08753
3658.30505,0.08680
3660.23352,0.08682
3662.16198,0.08745
3664.09045,0.08732
3666.01892,0.08761
3667.94739,0.08907
3669.87586,0.08762
3671.80433,0.08524
3673.73280,0.09012
3675.66126,0.09758
3677.58973,0.09294
3679.51820,0.08386
3681.44667,0.08096
3683.37514,0.08335
3685.30361,0.08551
3687.23208,0.08636
3689.16055,0.08558
3691.08901,0.08006
3693.01748,0.07539
3694.94595,0.07551
3696.87442,0.07771
3698.80289,0.08075
3700.73136,0.08526
3702.65983,0.08669
3704.58829,0.08293
3706.51676,0.07969
3708.44523,0.07883
3710.37370,0.07971
3712.30217,0.08406
3714.23064,0.08859
3716.15911,0.08999
3718.08757,0.08938
3720.01604,0.08708
3721.94451,0.08427
3723.87298,0.08305
3725.80145,0.08025
3727.72992,0.07624
3729.65839,0.07810
3731.58686,0.08701
3733.51532,0.09600
3735.44379,0.09500
3737.37226,0.08918
3739.30073,0.08590
3741.22920,0.08192
3743.15767,0.07885
3745.08614,0.08048
3747.01460,0.07959
3748.94307,0.07711
3750.87154,0.08212
3752.80001,0.08829
3754.72848,0.08711
3756.65695,0.08534
3758.58542,0.08754
3760.51389,0.08905
3762.44235,0.08740
3764.37082,0.08860
3766.29929,0.09158
3768.22776,0.08967
3770.15623,0.08406
3772.08470,0.08051
3774.01317,0.08115
3775.94163,0.08492
3777.87010,0.08967
3779.79857,0.09162
3781.72704,0.08892
3783.65551,0.08443
3785.58398,0.07929
3787.51245,0.07590
3789.44092,0.07590
3791.36938,0.07580
3793.29785,0.07503
3795.22632,0.07707
3797.15479,0.08194
3799.08326,0.08739
3801.01173,0.08796
3802.94020,0.08047
3804.86866,0.08243
3806.79713,0.09335
3808.72560,0.09259
3810.65407,0.08319
3812.58254,0.07715
3814.51101,0.07542
3816.43948,0.07951
3818.36795,0.08527
3820.29641,0.08479
3822.22488,0.07953
3824.15335,0.07817
3826.08182,0.07880
3828.01029,0.07786
3829.93876,0.07728
3831.86723,0.07996
3833.79569,0.08362
3835.72416,0.08438
3837.65263,0.08535
3839.58110,0.08592
3841.50957,0.08091
3843.43804,0.07824
3845.36651,0.08144
3847.29498,0.08270
3849.22344,0.07989
3851.15191,0.07760
3853.08038,0.07901
3855.00885,0.07869
3856.93732,0.07590
3858.86579,0.07670
3860.79426,0.08205
3862.72272,0.08781
3864.65119,0.08767
3866.57966,0.08245
3868.50813,0.07779
3870.43660,0.07632
3872.36507,0.07929
3874.29354,0.08161
3876.22200,0.07734
3878.15047,0.07156
3880.07894,0.07016
3882.00741,0.06968
3883.93588,0.06828
3885.86435,0.07044
3887.79282,0.07401
3889.72129,0.07759
3891.64975,0.08189
3893.57822,0.08141
3895.50669,0.07870
3897.43516,0.07913
3899.36363,0.08132
3901.29210,0.08280
3903.22057,0.08311
3905.14903,0.08005
3907.07750,0.07391
3909.00597,0.06831
3910.93444,0.06712
3912.86291,0.07109
3914.79138,0.07565
3916.71985,0.07664
3918.64832,0.07465
3920.57678,0.07591
3922.50525,0.08244
3924.43372,0.08506
3926.36219,0.07699
3928.29066,0.06673
3930.21913,0.06408
3932.14760,0.06876
3934.07606,0.07174
3936.00453,0.06884
3937.93300,0.06484
3939.86147,0.06515
3941.78994,0.06802
3943.71841,0.06904
3945.64688,0.06963
3947.57535,0.07167
3949.50381,0.07270
3951.43228,0.07183
3953.36075,0.07260
3955.28922,0.07571
3957.21769,0.07653
3959.14616,0.07190
3961.07463,0.06682
3963.00309,0.06646
3964.93156,0.06802
3966.86003,0.06725
3968.78850,0.06673
3970.71697,0.06972
3972.64544,0.07084
3974.57391,0.06675
3976.50238,0.06167
3978.43084,0.06007
3980.35931,0.06210
3982.28778,0.06432
3984.21625,0.06627
3986.14472,0.06569
3988.07319,0.06115
3990.00166,0.06190
3991.93012,0.07162
3993.85859,0.07696
3995.78706,0.07116
3997.71553,0.06385
3999.64400,0.06056
4001.57247,0.06033
4003.50094,0.06427
4005.42941,0.07049
4007.35787,0.07182
4009.28634,0.06642
4011.21481,0.06148
4013.14328,0.06007
4015.07175,0.06067
4017.00022,0.06392
4018.92869,0.06852
4020.85715,0.07082
4022.78562,0.06886
4024.71409,0.06322
4026.64256,0.05823
4028.57103,0.05799
4030.49950,0.06065
4032.42797,0.06213
4034.35644,0.06192
4036.28490,0.06299
4038.21337,0.06605
4040.14184,0.06851
4042.07031,0.06622
4043.99878,0.05925
4045.92725,0.05594
4047.85572,0.05937
4049.78418,0.06423
4051.71265,0.06699
4053.64112,0.06469
4055.56959,0.05896
4057.49806,0.05679
4059.42653,0.05704
4061.35500,0.05459
4063.28346,0.05142
4065.21193,0.05010
4067.14040,0.05185
4069.06887,0.05578
4070.99734,0.05861
4072.92581,0.06070
4074.85428,0.06341
4076.78275,0.06484
4078.71121,0.06133
4080.63968,0.05544
4082.56815,0.05361
4084.49662,0.05464
4086.42509,0.05525
4088.35356,0.05704
4090.28203,0.06189
4092.21049,0.06690
4094.13896,0.06781
4096.06743,0.06601
4097.99590,0.06472
4099.92437,0.06184
4101.85284,0.05890
4103.78131,0.06134
4105.70978,0.06326
4107.63824,0.05818
4109.56671,0.05429
4111.49518,0.05859
4113.42365,0.06089
4115.35212,0.05404
4117.28059,0.05215
4119.20906,0.06181
4121.13752,0.06934
4123.06599,0.06515
4124.99446,0.05401
4126.92293,0.04515
4128.85140,0.04185
4130.77987,0.04233
4132.70834,0.04543
4134.63681,0.04784
4136.56527,0.04736
4138.49374,0.04859
4140.42221,0.05304
4142.35068,0.05476
4144.27915,0.05001
4146.20762,0.04489
4148.13609,0.04618
4150.06455,0.04868
4151.99302,0.04754
4153.92149,0.04739
4155.84996,0.05045
4157.77843,0.05290
4159.70690,0.05504
4161.63537,0.05765
4163.56384,0.05558
4165.49230,0.04972
4167.42077,0.04670
4169.34924,0.04540
4171.27771,0.04274
4173.20618,0.04336
4175.13465,0.04714
4177.06312,0.04715
4178.99158,0.04393
4180.92005,0.04195
4182.84852,0.04435
4184.77699,0.05184
4186.70546,0.05594
4188.63393,0.05204
4190.56240,0.05094
4192.49087,0.05422
4194.41933,0.05087
4196.34780,0.04472
4198.27627,0.04550
4200.20474,0.05068
4202.13321,0.05484
4204.06168,0.05779
4205.99015,0.05786
4207.91861,0.05538
4209.84708,0.05561
4211.77555,0.05498
4213.70402,0.04872
4215.63249,0.04245
4217.56096,0.03984
4219.48943,0.04288
4221.41789,0.05202
4223.34636,0.05711
4225.27483,0.05170
4227.20330,0.04431
4229.13177,0.04206
4231.06024,0.04182
4232.98871,0.04222
4234.91718,0.04607
4236.84564,0.05145
4238.77411,0.05433
4240.70258,0.05307
4242.63105,0.04909
4244.55952,0.04717
4246.48799,0.04767
4248.41646,0.04473
4250.34492,0.03678
4252.27339,0.03095
4254.20186,0.03154
4256.13033,0.03436
4258.05880,0.03861
4259.98727,0.04441
4261.91574,0.04533
4263.84421,0.04487
4265.77267,0.05071
4267.70114,0.05378
4269.62961,0.04648
4271.55808,0.03765
4273.48655,0.03525
4275.41502,0.03717
4277.34349,0.03610
4279.27195,0.02861
4281.20042,0.02173
4283.12889,0.02289
4285.05736,0.02973
4286.98583,0.04069
4288.91430,0.05345
4290.84277,0.05679
4292.77124,0.04865
4294.69970,0.04157
4296.62817,0.04240
4298.55664,0.04304
4300.48511,0.03938
4302.41358,0.04175
4304.34205,0.04648
4306.27052,0.04031
4308.19898,0.03059
4310.12745,0.02549
4312.05592,0.02253
4313.98439,0.02354
4315.91286,0.02691
4317.84133,0.02856
4319.76980,0.02974
4321.69827,0.03141
4323.62673,0.03378
4325.55520,0.03552
4327.48367,0.03444
4329.41214,0.03102
4331.34061,0.02756
4333.26908,0.02499
4335.19755,0.02015
4337.12601,0.01825
4339.05448,0.02780
4340.98295,0.03911
4342.91142,0.04164
4344.83989,0.03746
4346.76836,0.02982
4348.69683,0.02226
4350.62530,0.01946
4352.55376,0.02276
4354.48223,0.02593
4356.41070,0.02510
4358.33917,0.02533
4360.26764,0.02739
4362.19611,0.02738
4364.12458,0.02543
4366.05304,0.02495
4367.98151,0.02638
4369.90998,0.02633
4371.83845,0.02423
4373.76692,0.02478
4375.69539,0.02967
4377.62386,0.03306
4379.55232,0.03062
4381.48079,0.02403
4383.40926,0.01728
4385.33773,0.01419
4387.26620,0.01737
4389.19467,0.02338
4391.12314,0.02606
4393.05161,0.02739
4394.98007,0.02995
4396.90854,0.03286
4398.83701,0.03579
4400.76548,0.03410
4402.69395,0.02506
4404.62242,0.02088
4406.55089,0.02878
4408.47935,0.03273
4410.40782,0.02668
4412.33629,0.02241
4414.26476,0.02004
4416.19323,0.01777
4418.12170,0.02337
4420.05017,0.03466
4421.97864,0.03702
4423.90710,0.02810
4425.83557,0.02007
4427.76404,0.01920
4429.69251,0.02314
4431.62098,0.02554
4433.54945,0.02261
4435.47792,0.01889
4437.40638,0.01712
4439.33485,0.01960
4441.26332,0.02736
4443.19179,0.02932
4445.12026,0.02059
4447.04873,0.01281
4448.97720,0.01472
4450.90567,0.02219
4452.83413,0.02161
4454.76260,0.01124
4456.69107,0.00494
4458.61954,0.00566
4460.54801,0.00800
4462.47648,0.01279
4464.40495,0.01984
4466.33341,0.02453
4468.26188,0.02413
4470.19035,0.01969
4472.11882,0.01503
4474.04729,0.01570
4475.97576,0.01973
4477.90423,0.01992
4479.83270,0.01550
4481.76116,0.00730
4483.68963,0.00190
4485.61810,0.00597
4487.54657,0.01203
4489.47504,0.01577
4491.40351,0.01901
4493.33198,0.01537
4495.26044,0.00350
4497.18891,-0.00452
4499.11738,0.00187
4501.04585,0.01645
4502.97432,0.02258
4504.90279,0.01834
4506.83126,0.01767
4508.75973,0.02278
4510.68819,0.02282
4512.61666,0.01916
4514.54513,0.01739
4516.47360,0.01204
4518.40207,0.00390
4520.33054,0.00180
4522.25901,0.00789
4524.18747,0.01615
4526.11594,0.02027
4528.04441,0.01913
4529.97288,0.01553
4531.90135,0.01369
4533.82982,0.01220
4535.75829,0.01035
4537.68676,0.01084
4539.61522,0.00976
4541.54369,0.00784
4543.47216,0.01072
4545.40063,0.01299
4547.32910,0.00716
4549.25757,-0.00003
4551.18604,0.00015
4553.11450,0.00308
4555.04297,0.00560
4556.97144,0.00721
4558.89991,0.00224
4560.82838,-0.00306
4562.75685,-0.00433
4564.68532,-0.00847
4566.61378,-0.00691
4568.54225,0.00619
4570.47072,0.01644
4572.39919,0.01891
4574.32766,0.01894
4576.25613,0.01427
4578.18460,0.00476
4580.11307,0.00080
4582.04153,0.00516
4583.97000,0.00642
4585.89847,-0.00270
4587.82694,-0.01260
4589.75541,-0.00788
4591.68388,0.00528
4593.61235,0.01056
4595.54081,0.01110
4597.46928,0.01323
4599.39775,0.01269
4601.32622,0.00787
4603.25469,0.00243
4605.18316,0.00215
4607.11163,0.00601
4609.04010,0.00469
4610.96856,0.00293
4612.89703,0.01044
4614.82550,0.01626
4616.75397,0.01081
4618.68244,0.00117
4620.61091,-0.00141
4622.53938,0.00378
4624.46784,0.00175
4626.39631,-0.00722
4628.32478,-0.00564
4630.25325,0.00479
4632.18172,0.01105
4634.11019,0.01027
4636.03866,0.01183
4637.96713,0.01938
4639.89559,0.01947
4641.82406,0.00785
4643.75253,0.00044
4645.68100,0.00378
4647.60947,0.00810
4649.53794,0.00642
4651.46641,0.00172
4653.39487,0.00179
4655.32334,0.00694
4657.25181,0.01244
4659.18028,0.01613
4661.10875,0.01077
4663.03722,-0.00061
4664.96569,-0.00121
4666.89416,0.00926
4668.82262,0.01289
4670.75109,0.00832
4672.67956,0.00879
4674.60803,0.01424
4676.53650,0.01736
4678.46497,0.01580
4680.39344,0.01235
4682.32190,0.00831
4684.25037,0.00306
4686.17884,0.00216
4688.10731,0.00124
4690.03578,-0.00441
4691.96425,-0.00167
4693.89272,0.00650
4695.82119,0.00301
4697.74965,-0.00706
4699.67812,-0.01159
4701.60659,-0.00837
4703.53506,0.00119
4705.46353,0.00815
4707.39200,0.00797
4709.32047,0.01014
4711.24893,0.01586
4713.17740,0.01493
4715.10587,0.00643
4717.03434,0.00239
4718.96281,0.00949
4720.89128,0.01654
4722.81975,0.01656
4724.74821,0.01734
4726.67668,0.01924
4728.60515,0.01637
4730.53362,0.01176
4732.46209,0.01181
4734.39056,0.01297
4736.31903,0.00977
4738.24750,0.00393
4740.17596,0.00068
4742.10443,0.00575
4744.03290,0.01408
4745.96137,0.01712
4747.88984,0.01250
4749.81831,0.00212
4751.74678,-0.00129
4753.67524,0.00798
4755.60371,0.01834
4757.53218,0.02229
4759.46065,0.01823
4761.38912,0.00756
4763.31759,-0.00048
4765.24606,-0.00255
4767.17453,-0.00236
4769.10299,0.00021
4771.03146,0.00071
4772.95993,-0.00266
4774.88840,-0.00074
4776.81687,0.00789
4778.74534,0.01261
4780.67381,0.00791
4782.60227,-0.00025
4784.53074,-0.00270
4786.45921,0.00207
4788.38768,0.00435
4790.31615,0.00107
4792.24462,-0.00229
4794.17309,-0.00770
4796.10156,-0.01013
4798.03002,0.00614
4799.95849,0.02702
4801.88696,0.02844
4803.81543,0.01599
4805.74390,0.00152
4807.67237,-0.00024
4809.60084,0.00882
4811.52930,0.00832
4813.45777,0.00564
4815.38624,0.00883
4817.31471,0.01355
4819.24318,0.01859
4821.17165,0.01886
4823.10012,0.01970
4825.02859,0.02824
4826.95705,0.02982
4828.88552,0.01617
4830.81399,0.00554
4832.74246,0.00251
4834.67093,-0.00487
4836.59940,-0.00944
4838.52787,-0.00351
4840.45633,0.00602
4842.38480,0.01403
4844.31327,0.01368
4846.24174,0.00456
4848.17021,-0.00300
4850.09868,-0.00351
4852.02715,0.00551
4853.95562,0.01775
4855.88408,0.02181
4857.81255,0.01844
4859.74102,0.01168
4861.66949,0.00564
4863.59796,0.00123
4865.52643,-0.00404
4867.45490,-0.00716
4869.38336,-0.01206
4871.31183,-0.01704
4873.24030,-0.00293
4875.16877,0.02151
4877.09724,0.02506
4879.02571,0.01127
4880.95418,0.00625
4882.88265,0.01797
4884.81111,0.02799
4886.73958,0.01774
4888.66805,0.00124
4890.59652,-0.00435
4892.52499,-0.01121
4894.45346,-0.01879
4896.38193,-0.00929
4898.31039,0.00989
4900.23886,0.01793
4902.16733,0.01298
4904.09580,0.00867
4906.02427,0.00788
4907.95274,0.00300
4909.88121,0.00234
4911.80967,0.00806
4913.73814,0.00559
4915.66661,-0.00290
4917.59508,-0.00245
4919.52355,0.00592
4921.45202,0.01076
4923.38049,0.00948
4925.30896,0.00336
4927.23742,0.00132
4929.16589,0.00633
4931.09436,0.00211
4933.02283,-0.00604
4934.95130,-0.00541
4936.87977,-0.00513
4938.80824,-0.00125
4940.73670,0.01028
4942.66517,0.01677
4944.59364,0.01310
4946.52211,0.00063
4948.45058,-0.01319
4950.37905,-0.01619
4952.30752,-0.01512
4954.23599,-0.02368
4956.16445,-0.02852
4958.09292,-0.01868
4960.02139,-0.00586
4961.94986,0.00203
4963.87833,0.00473
4965.80680,0.00157
4967.73527,-0.00897
4969.66373,-0.01668
4971.59220,-0.01313
4973.52067,-0.01180
4975.44914,-0.01490
4977.37761,-0.00642
4979.30608,0.01552
4981.23455,0.02939
4983.16302,0.02334
4985.09148,0.01504
4987.01995,0.01677
4988.94842,0.03042
4990.87689,0.04511
4992.80536,0.03441
4994.73383,0.00577
4996.66230,-0.00371
4998.59076,0.01215
5000.51923,0.02688
5002.44770,0.02678
5004.37617,0.02089
5006.30464,0.01160
5008.23311,0.00398
5010.16158,0.00953
5012.09005,0.01303
5014.01851,0.00708
5015.94698,0.00920
5017.87545,0.01955
5019.80392,0.02968
5021.73239,0.03833
5023.66086,0.04067
5025.58933,0.03258
5027.51779,0.01957
5029.44626,0.00648
5031.37473,-0.00716
5033.30320,-0.01655
5035.23167,-0.01533
5037.16014,-0.00290
5039.08861,0.01686
5041.01708,0.03429
5042.94554,0.03609
5044.87401,0.01992
5046.80248,0.00429
5048.73095,0.00452
5050.65942,0.01293
5052.58789,0.02629
5054.51636,0.04267
5056.44482,0.04543
5058.37329,0.03258
5060.30176,0.01955
5062.23023,0.02117
5064.15870,0.03606
5066.08717,0.04880
5068.01564,0.04808
5069.94410,0.03309
5071.87257,0.01716
5073.80104,0.00409
5075.72951,-0.01201
5077.65798,-0.02296
5079.58645,-0.01845
5081.51492,-0.00630
5083.44339,-0.00909
5085.37185,-0.02257
5087.30032,-0.02067
5089.22879,-0.00352
5091.15726,0.00847
5093.08573,0.01316
5095.01420,0.01891
5096.94267,0.01956
5098.87113,0.01046
5100.79960,0.00337
5102.72807,0.01272
5104.65654,0.02597
5106.58501,0.02169
5108.51348,0.01499
5110.44195,0.02529
5112.37042,0.04387
5114.29888,0.05501
5116.22735,0.04422
5118.15582,0.01482
5120.08429,-0.00521
5122.01276,-0.00343
5123.94123,0.01450
5125.86970,0.03149
5127.79816,0.02635
5129.72663,0.01358
5131.65510,0.00660
5133.58357,0.00058
5135.51204,0.00874
5137.44051,0.02678
5139.36898,0.02852
5141.29745,0.01199
5143.22591,-0.00303
5145.15438,0.00026
5147.08285,0.01697
5149.01132,0.02449
5150.93979,0.01816
5152.86826,0.01225
5154.79673,0.01179
5156.72519,0.01501
5158.65366,0.01609
5160.58213,0.01118
5162.51060,0.00718
5164.43907,0.01489
5166.36754,0.03388
5168.29601,0.04377
5170.22448,0.03556
5172.15294,0.02530
5174.08141,0.02496
5176.00988,0.02383
5177.93835,0.00776
5179.86682,-0.00612
5181.79529,-0.00216
5183.72376,0.00005
5185.65222,-0.00767
5187.58069,-0.00103
5189.50916,0.02291
5191.43763,0.03530
5193.36610,0.02879
5195.29457,0.02055
5197.22304,0.02588
5199.15151,0.04325
5201.07997,0.05829
5203.00844,0.07208
5204.93691,0.08504
5206.86538,0.08659
5208.79385,0.07463
5210.72232,0.05347
5212.65079,0.02733
5214.57925,0.01054
5216.50772,0.00960
5218.43619,0.01222
5220.36466,0.01820
5222.29313,0.02882
5224.22160,0.02980
5226.15007,0.01660
5228.07854,0.00123
5230.00700,-0.00913
5231.93547,-0.01668
5233.86394,-0.01744
5235.79241,-0.00604
5237.72088,0.01714
5239.64935,0.04244
5241.57782,0.05267
5243.50628,0.04374
5245.43475,0.02530
5247.36322,0.01104
5249.29169,0.01057
5251.22016,0.01265
5253.14863,0.01055
5255.07710,0.01752
5257.00556,0.02915
5258.93403,0.02804
5260.86250,0.01167
5262.79097,-0.00830
5264.71944,-0.01441
5266.64791,-0.00080
5268.57638,0.01898
5270.50485,0.02619
5272.43331,0.01714
5274.36178,0.00671
5276.29025,0.01506
5278.21872,0.03855
5280.14719,0.04535
5282.07566,0.03285
5284.00413,0.02772
5285.93259,0.03781
5287.86106,0.05124
5289.78953,0.05067
5291.71800,0.02928
5293.64647,0.00679
5295.57494,0.00379
5297.50341,0.01932
5299.43188,0.03094
5301.36034,0.02675
5303.28881,0.01962
5305.21728,0.01748
5307.14575,0.02166
5309.07422,0.03243
5311.00269,0.03255
5312.93116,0.01436
5314.85962,0.01588
5316.78809,0.05037
5318.71656,0.06310
5320.64503,0.03859
5322.57350,0.01464
5324.50197,0.01019
5326.43044,0.00168
5328.35891,-0.02016
5330.28737,-0.01124
5332.21584,0.03146
5334.14431,0.06015
5336.07278,0.05770
5338.00125,0.05312
5339.92972,0.07604
5341.85819,0.10707
5343.78665,0.11545
5345.71512,0.09828
5347.64359,0.07478
5349.57206,0.05376
5351.50053,0.03736
5353.42900,0.03401
5355.35747,0.05168
5357.28594,0.06662
5359.21440,0.05277
5361.14287,0.02849
5363.07134,0.02928
5364.99981,0.05200
5366.92828,0.06556
5368.85675,0.05376
5370.78522,0.02998
5372.71368,0.02667
5374.64215,0.04614
5376.57062,0.06287
5378.49909,0.07319
5380.42756,0.06732
5382.35603,0.04117
5384.28450,0.02063
5386.21297,0.02109
5388.14143,0.03206
5390.06990,0.04125
5391.99837,0.03673
5393.92684,0.01924
5395.85531,0.01790
5397.78378,0.03300
5399.71225,0.03135
5401.64071,0.01309
5403.56918,0.00545
5405.49765,0.01424
5407.42612,0.02107
5409.35459,0.02474
5411.28306,0.02696
5413.21153,0.01409
5415.13999,0.00730
5417.06846,0.01867
5418.99693,0.02943
5420.92540,0.04172
5422.85387,0.06766
5424.78234,0.09753
5426.71081,0.11025
5428.63928,0.09924
5430.56774,0.08015
5432.49621,0.06683
5434.42468,0.05315
5436.35315,0.04142
5438.28162,0.03821
5440.21009,0.03082
5442.13856,0.01078
5444.06702,-0.00723
5445.99549,-0.00323
5447.92396,0.01691
5449.85243,0.02863
5451.78090,0.03035
5453.70937,0.03400
5455.63784,0.03724
5457.56631,0.04449
5459.49477,0.06554
5461.42324,0.07961
5463.35171,0.06695
5465.28018,0.04215
5467.20865,0.03636
5469.13712,0.04674
5471.06559,0.04654
5472.99405,0.04147
5474.92252,0.04073
5476.85099,0.04632
5478.77946,0.06289
5480.70793,0.08264
5482.63640,0.09459
5484.56487,0.09403
5486.49334,0.07338
5488.42180,0.03818
5490.35027,0.01493
5492.27874,0.01515
5494.20721,0.03015
5496.13568,0.03649
5498.06415,0.03095
5499.99262,0.03675
5501.92108,0.05086
5503.84955,0.05359
5505.77802,0.04932
5507.70649,0.04806
5509.63496,0.04758
5511.56343,0.04498
5513.49190,0.04286
5515.42037,0.05210
5517.34883,0.07236
5519.27730,0.08228
5521.20577,0.07860
5523.13424,0.07400
5525.06271,0.07233
5526.99118,0.07486
5528.91965,0.07404
5530.84811,0.05009
5532.77658,0.01272
5534.70505,-0.00670
5536.63352,-0.00446
5538.56199,0.00532
5540.49046,0.01327
5542.41893,0.02190
5544.34740,0.04584
5546.27586,0.08281
5548.20433,0.10409
5550.13280,0.09194
5552.06127,0.05589
5553.98974,0.02422
5555.91821,0.02271
5557.84668,0.03985
5559.77514,0.04288
5561.70361,0.02817
5563.63208,0.01908
5565.56055,0.02904
5567.48902,0.04698
5569.41749,0.05800
5571.34596,0.07056
5573.27443,0.09278
5575.20289,0.08778
5577.13136,0.04372
5579.05983,0.01942
5580.98830,0.03762
5582.91677,0.04936
5584.84524,0.03896
5586.77371,0.03883
5588.70217,0.05765
5590.63064,0.06660
5592.55911,0.05230
5594.48758,0.05350
5596.41605,0.07892
5598.34452,0.08515
5600.27299,0.06857
5602.20145,0.05196
5604.12992,0.04313
5606.05839,0.03722
5607.98686,0.02939
5609.91533,0.02928
5611.84380,0.04348
5613.77227,0.05818
5615.70074,0.04690
5617.62920,0.02433
5619.55767,0.02735
5621.48614,0.05032
5623.41461,0.06279
5625.34308,0.04894
5627.27155,0.02542
5629.20002,0.01425
5631.12848,0.01689
5633.05695,0.02798
5634.98542,0.03928
5636.91389,0.03878
5638.84236,0.03342
5640.77083,0.04396
5642.69930,0.06240
5644.62777,0.06387
5646.55623,0.04298
5648.48470,0.01907
5650.41317,0.00199
5652.34164,-0.00475
5654.27011,0.00538
5656.19858,0.02012
5658.12705,0.02249
5660.05551,0.00832
5661.98398,0.00087
5663.91245,0.01355
5665.84092,0.02037
5667.76939,0.01508
5669.69786,0.02498
5671.62633,0.05008
5673.55480,0.05277
5675.48326,0.03258
5677.41173,0.02848
5679.34020,0.04182
5681.26867,0.04770
5683.19714,0.05734
5685.12561,0.08172
5687.05408,0.09685
5688.98254,0.08702
5690.91101,0.06623
5692.83948,0.06388
5694.76795,0.07712
5696.69642,0.06666
5698.62489,0.04024
5700.55336,0.04118
5702.48183,0.05184
5704.41029,0.04462
5706.33876,0.03707
5708.26723,0.04337
5710.19570,0.07074
5712.12417,0.10305
5714.05264,0.10846
5715.98111,0.10006
5717.90957,0.09451
5719.83804,0.07498
5721.76651,0.03986
5723.69498,0.01867
5725.62345,0.01976
5727.55192,0.03310
5729.48039,0.05539
5731.40886,0.06100
5733.33732,0.04821
5735.26579,0.04957
5737.19426,0.06335
5739.12273,0.07108
5741.05120,0.06569
5742.97967,0.06712
5744.90814,0.10366
5746.83660,0.12627
5748.76507,0.10002
5750.69354,0.06636
5752.62201,0.02665
5754.55048,-0.01369
5756.47895,-0.01419
5758.40742,0.00986
5760.33588,0.02911
5762.26435,0.04363
5764.19282,0.05098
5766.12129,0.04051
5768.04976,0.02765
5769.97823,0.04721
5771.90670,0.09364
5773.83517,0.10879
5775.76363,0.08317
5777.69210,0.07615
5779.62057,0.08961
5781.54904,0.07128
5783.47751,0.04336
5785.40598,0.05291
5787.33445,0.07526
5789.26291,0.07466
5791.19138,0.05733
5793.11985,0.02886
5795.04832,-0.01028
5796.97679,-0.02808
5798.90526,-0.00196
5800.83373,0.02668
5802.76220,0.03839
5804.69066,0.06412
5806.61913,0.08608
5808.54760,0.07964
5810.47607,0.06885
5812.40454,0.06237
5814.33301,0.05368
5816.26148,0.04111
5818.18994,0.03528
5820.11841,0.05669
5822.04688,0.09693
5823.97535,0.11503
5825.90382,0.09212
5827.83229,0.06607
5829.76076,0.06443
5831.68923,0.06243
5833.61769,0.04920
5835.54616,0.02677
5837.47463,-0.00129
5839.40310,-0.00076
5841.33157,0.03308
5843.26004,0.05194
5845.18851,0.03989
5847.11697,0.01468
5849.04544,0.00280
5850.97391,0.02486
5852.90238,0.06416
5854.83085,0.10492
5856.75932,0.11950
5858.68779,0.09200
5860.61626,0.05184
5862.54472,0.03406
5864.47319,0.05436
5866.40166,0.08609
5868.33013,0.09920
5870.25860,0.09006
5872.18707,0.06638
5874.11554,0.04622
5876.04400,0.04365
5877.97247,0.06483
5879.90094,0.08262
5881.82941,0.06382
5883.75788,0.04617
5885.68635,0.07492
5887.61482,0.11559
5889.54329,0.12346
5891.47175,0.10476
5893.40022,0.07832
5895.32869,0.06576
5897.25716,0.06545
5899.18563,0.05824
5901.11410,0.06326
5903.04257,0.09772
5904.97103,0.12269
5906.89950,0.10130
5908.82797,0.05508
5910.75644,0.03641
5912.68491,0.05992
5914.61338,0.07987
5916.54185,0.05756
5918.47032,0.03006
5920.39878,0.04230
5922.32725,0.06829
5924.25572,0.07663
5926.18419,0.09170
5928.11266,0.12466
5930.04113,0.14298
5931.96960,0.12596
5933.89806,0.09355
5935.82653,0.09080
5937.75500,0.10166
5939.68347,0.09270
5941.61194,0.08818
5943.54041,0.09082
5945.46888,0.07940
5947.39734,0.07065
5949.32581,0.07241
5951.25428,0.05700
5953.18275,0.03490
5955.11122,0.03362
5957.03969,0.04686
5958.96816,0.08399
5960.89663,0.13548
5962.82509,0.15242
5964.75356,0.13009
5966.68203,0.10424
5968.61050,0.09030
5970.53897,0.08215
5972.46744,0.08897
5974.39591,0.08758
5976.32437,0.04442
5978.25284,0.01851
5980.18131,0.05481
5982.10978,0.10252
5984.03825,0.13251
5985.96672,0.14044
5987.89519,0.10624
5989.82366,0.05704
5991.75212,0.02922
5993.68059,0.01050
5995.60906,0.00060
5997.53753,0.04030
5999.46600,0.09383
6001.39447,0.09129
6003.32294,0.05181
6005.25140,0.04465
6007.17987,0.08869
6009.10834,0.10690
6011.03681,0.05145
6012.96528,-0.00658
6014.89375,-0.00639
6016.82222,0.02480
6018.75069,0.04242
6020.67915,0.05012
6022.60762,0.04763
6024.53609,0.03520
6026.46456,0.04027
6028.39303,0.03490
6030.32150,-0.00166
6032.24997,-0.00118
6034.17843,0.04276
6036.10690,0.06192
6038.03537,0.06407
6039.96384,0.09763
6041.89231,0.13802
6043.82078,0.12446
6045.74925,0.07057
6047.67772,0.02872
6049.60618,0.01622
6051.53465,0.03469
6053.46312,0.08173
6055.39159,0.11895
6057.32006,0.09498
6059.24853,0.04937
6061.17700,0.02659
6063.10546,0.00213
6065.03393,-0.00415
6066.96240,0.03237
6068.89087,0.06537
6070.81934,0.07218
6072.74781,0.09902
6074.67628,0.13519
6076.60475,0.10606
6078.53321,0.05029
6080.46168,0.05881
6082.39015,0.09332
6084.31862,0.09257
6086.24709,0.09011
6088.17556,0.10353
6090.10403,0.09200
6092.03249,0.06299
6093.96096,0.06274
6095.88943,0.08727
6097.81790,0.09952
6099.74637,0.07334
6101.67484,0.03067
6103.60331,0.02742
6105.53177,0.04071
6107.46024,0.02698
6109.38871,0.01514
6111.31718,0.01445
6113.24565,0.00709
6115.17412,0.01336
6117.10259,0.02734
6119.03106,0.00800
6120.95952,-0.04687
6122.88799,-0.08594
6124.81646,-0.05087
6126.74493,0.03509
6128.67340,0.07150
6130.60187,0.04837
6132.53034,0.04246
6134.45880,0.07374
6136.38727,0.10866
6138.31574,0.11792
6140.24421,0.11262
6142.17268,0.12853
6144.10115,0.14430
6146.02962,0.10868
6147.95809,0.02632
6149.88655,-0.04306
6151.81502,-0.02904
6153.74349,0.03122
6155.67196,0.05167
6157.60043,0.04470
6159.52890,0.05715
6161.45737,0.08110
6163.38583,0.07470
6165.31430,0.02892
6167.24277,-0.02645
6169.17124,-0.04739
6171.09971,-0.02688
6173.02818,0.00644
6174.95665,0.02935
6176.88512,0.01520
6178.81358,0.00310
6180.74205,0.05029
6182.67052,0.11424
6184.59899,0.11795
6186.52746,0.06894
6188.45593,0.07679
6190.38440,0.14258
6192.31286,0.14741
6194.24133,0.10508
6196.16980,0.09804
6198.09827,0.11268
6200.02674,0.09586
6201.95521,0.06439
6203.88368,0.04214
6205.81215,0.03292
6207.74061,0.05359
6209.66908,0.09772
6211.59755,0.12865
6213.52602,0.12464
6215.45449,0.11283
6217.38296,0.13730
6219.31143,0.18877
6221.23989,0.20871
6223.16836,0.16879
6225.09683,0.10234
6227.02530,0.03380
6228.95377,-0.01291
6230.88224,-0.00074
6232.81071,0.03936
6234.73918,0.05919
6236.66764,0.07388
6238.59611,0.10269
6240.52458,0.10673
6242.45305,0.05266
6244.38152,0.01173
6246.30999,0.02982
6248.23846,0.05409
6250.16692,0.06876
6252.09539,0.09444
6254.02386,0.11486
6255.95233,0.11404
6257.88080,0.10055
6259.80927,0.09232
6261.73774,0.10165
6263.66621,0.10996
6265.59467,0.09337
6267.52314,0.07103
6269.45161,0.06811
6271.38008,0.09157
6273.30855,0.11411
6275.23702,0.09831
6277.16549,0.08904
6279.09395,0.08167
6281.02242,0.01125
6282.95089,-0.05643
6284.87936,-0.04436
6286.80783,0.00298
6288.73630,0.05977
6290.66477,0.12651
6292.59323,0.16445
6294.52170,0.17294
6296.45017,0.18324
6298.37864,0.16172
6300.30711,0.08977
6302.23558,0.04611
6304.16405,0.07526
6306.09252,0.13614
6308.02098,0.18082
6309.94945,0.18117
6311.87792,0.18210
6313.80639,0.19140
6315.73486,0.14994
6317.66333,0.09560
6319.59180,0.05010
6321.52026,-0.04149
6323.44873,-0.12123
6325.37720,-0.13542
6327.30567,-0.12092
6329.23414,-0.06905
6331.16261,0.01043
6333.09108,0.04074
6335.01955,0.03332
6336.94801,0.08044
6338.87648,0.15256
6340.80495,0.14014
6342.73342,0.05385
6344.66189,-0.00907
6346.59036,0.01940
6348.51883,0.10083
6350.44729,0.13072
6352.37576,0.08684
6354.30423,0.03951
6356.23270,0.02648
6358.16117,0.03673
6360.08964,0.06958
6362.01811,0.12203
6363.94658,0.13137
6365.87504,0.08766
6367.80351,0.07963
6369.73198,0.10245
6371.66045,0.11000
6373.58892,0.12720
6375.51739,0.14082
6377.44586,0.11298
6379.37432,0.06979
6381.30279,0.05122
6383.23126,0.05766
6385.15973,0.07220
6387.08820,0.07839
6389.01667,0.07368
6390.94514,0.07960
6392.87361,0.09807
6394.80207,0.08645
6396.73054,0.04350
6398.65901,0.01416
6400.58748,0.02000
6402.51595,0.04784
6404.44442,0.07290
6406.37289,0.08146
6408.30135,0.04866
6410.22982,-0.00827
6412.15829,-0.00668
6414.08676,0.03018
6416.01523,0.05426
6417.94370,0.12895
6419.87217,0.20318
6421.80064,0.14593
6423.72910,0.02181
6425.65757,-0.04178
6427.58604,-0.06733
6429.51451,-0.10158
6431.44298,-0.09079
6433.37145,-0.02521
6435.29992,0.05760
6437.22838,0.11993
6439.15685,0.13940
6441.08532,0.15969
6443.01379,0.13945
6444.94226,0.05867
6446.87073,0.02482
6448.79920,0.02660
6450.72766,0.02773
6452.65613,0.05687
6454.58460,0.08437
6456.51307,0.08548
6458.44154,0.07696
6460.37001,0.06196
6462.29848,0.05195
6464.22695,0.06361
6466.15541,0.07637
6468.08388,0.07375
6470.01235,0.04127
6471.94082,0.00254
6473.86929,0.03507
6475.79776,0.14334
6477.72623,0.22662
6479.65469,0.18413
6481.58316,0.06997
6483.51163,0.03481
6485.44010,0.09804
6487.36857,0.15527
6489.29704,0.15018
6491.22551,0.10586
6493.15398,0.03038
6495.08244,-0.02372
6497.01091,-0.00013
6498.93938,0.04789
6500.86785,0.06455
6502.79632,0.08164
6504.72479,0.13751
6506.65326,0.18486
6508.58172,0.15106
6510.51019,0.05063
6512.43866,-0.01390
6514.36713,-0.01798
6516.29560,-0.01818
6518.22407,-0.00796
6520.15254,0.01018
6522.08101,-0.00452
6524.00947,-0.02127
6525.93794,0.02105
6527.86641,0.04522
6529.79488,0.00378
6531.72335,-0.02895
6533.65182,-0.03275
6535.58029,-0.00693
6537.50875,0.05232
6539.43722,0.10509
6541.36569,0.11017
6543.29416,0.05454
6545.22263,0.00175
6547.15110,-0.01090
6549.07957,-0.02017
6551.00804,-0.00066
6552.93650,0.05003
6554.86497,0.02943
6556.79344,-0.04160
6558.72191,-0.05688
6560.65038,0.00538
6562.57885,0.10591
6564.50732,0.17889
6566.43578,0.16924
6568.36425,0.08602
6570.29272,0.00299
6572.22119,-0.02009
6574.14966,-0.01575
6576.07813,-0.01838
6578.00660,-0.03043
6579.93507,-0.05552
6581.86353,-0.04425
6583.79200,0.02043
6585.72047,0.05104
6587.64894,0.04071
6589.57741,0.01502
6591.50588,-0.02341
6593.43435,-0.00757
6595.36281,0.05449
6597.29128,0.11209
6599.21975,0.20381
6601.14822,0.24672
6603.07669,0.15389
6605.00516,0.02529
6606.93363,-0.06250
6608.86210,-0.07738
6610.79056,-0.05150
6612.71903,-0.03275
6614.64750,-0.00313
6616.57597,0.01505
6618.50444,-0.00374
6620.43291,-0.00694
6622.36138,0.02448
6624.28984,0.08101
6626.21831,0.13795
6628.14678,0.12835
6630.07525,0.07306
6632.00372,0.04057
6633.93219,-0.02871
6635.86066,-0.07315
6637.78912,0.01294
6639.71759,0.05769
6641.64606,-0.02597
6643.57453,-0.11653
6645.50300,-0.10884
6647.43147,-0.00674
6649.35994,0.10817
6651.28841,0.16452
6653.21687,0.15968
6655.14534,0.12692
6657.07381,0.09315
6659.00228,0.10557
6660.93075,0.15523
6662.85922,0.14157
6664.78769,0.06604
6666.71615,0.06521
6668.64462,0.13188
6670.57309,0.09963
6672.50156,-0.00548
6674.43003,-0.03986
6676.35850,0.00627
6678.28697,0.05378
6680.21544,0.04782
6682.14390,0.02958
6684.07237,0.01576
6686.00084,0.02695
6687.92931,0.09511
6689.85778,0.13605
6691.78625,0.12973
6693.71472,0.14471
6695.64318,0.16199
6697.57165,0.14998
6699.50012,0.16466
6701.42859,0.16564
6703.35706,0.03200
6705.28553,-0.09196
6707.21400,-0.01349
6709.14247,0.09035
6711.07093,0.05225
6712.99940,0.01774
6714.92787,0.06429
6716.85634,0.10575
6718.78481,0.08102
6720.71328,-0.00745
6722.64175,-0.07792
6724.57021,-0.07991
6726.49868,-0.07051
6728.42715,-0.03490
6730.35562,0.08540
6732.28409,0.20915
6734.21256,0.22543
6736.14103,0.15381
6738.06950,0.08697
6739.99796,0.08204
6741.92643,0.09520
6743.85490,0.02256
6745.78337,-0.08088
6747.71184,-0.11169
6749.64031,-0.09188
6751.56878,-0.04766
6753.49724,0.01652
6755.42571,0.04385
6757.35418,0.07094
6759.28265,0.15990
6761.21112,0.21829
6763.13959,0.14525
6765.06806,-0.00036
6766.99653,-0.07293
6768.92499,-0.00071
6770.85346,0.07807
6772.78193,0.07847
6774.71040,0.09532
6776.63887,0.10750
6778.56734,0.05068
6780.49581,0.02873
6782.42427,0.07023
6784.35274,0.08678
6786.28121,0.06046
6788.20968,0.03798
6790.13815,0.06507
6792.06662,0.11509
6793.99509,0.08912
6795.92355,0.01834
6797.85202,0.03020
6799.78049,0.08717
6801.70896,0.10084
6803.63743,0.14458
6805.56590,0.19350
6807.49437,0.16521
6809.42284,0.15236
6811.35130,0.15440
6813.27977,0.03541
6815.20824,-0.12807
6817.13671,-0.12056
6819.06518,-0.00054
6820.99365,0.06835
6822.92212,0.07210
6824.85058,0.07319
6826.77905,0.10831
6828.70752,0.12366
6830.63599,0.07889
6832.56446,0.04167
6834.49293,0.03918
6836.42140,0.04591
6838.34987,0.09876
6840.27833,0.19089
6842.20680,0.20447
6844.13527,0.14589
6846.06374,0.10779
6847.99221,0.07435
6849.92068,0.07485
6851.84915,0.13182
6853.77761,0.15161
6855.70608,0.12173
6857.63455,0.09879
6859.56302,0.09511
6861.49149,0.10335
6863.41996,0.13440
6865.34843,0.15839
6867.27690,0.14243
6869.20536,0.13045
6871.13383,0.09985
6873.06230,0.02319
6874.99077,-0.01498
6876.91924,-0.02553
6878.84771,-0.04903
6880.77618,-0.06006
6882.70464,-0.08476
6884.63311,-0.14215
6886.56158,-0.16564
6888.49005,-0.11197
6890.41852,-0.01841
6892.34699,0.07265
6894.27546,0.14638
6896.20393,0.18650
6898.13239,0.15009
6900.06086,0.06178
6901.98933,0.02900
6903.91780,0.06260
6905.84627,0.04686
6907.77474,0.01675
6909.70321,0.06076
6911.63167,0.07956
6913.56014,0.04567
6915.48861,0.07363
6917.41708,0.12771
6919.34555,0.17128
6921.27402,0.25799
6923.20249,0.29235
6925.13096,0.16426
6927.05942,0.00932
6928.98789,0.01002
6930.91636,0.08617
6932.84483,0.05554
6934.77330,-0.00498
6936.70177,-0.01456
6938.63024,-0.00429
6940.55870,0.00122
6942.48717,-0.00239
6944.41564,-0.00578
6946.34411,0.00501
6948.27258,0.01661
6950.20105,-0.02068
6952.12952,-0.11705
6954.05799,-0.22235
6955.98645,-0.25182
6957.91492,-0.20568
6959.84339,-0.13071
6961.77186,-0.04647
6963.70033,-0.02475
6965.62880,-0.04777
6967.55727,-0.01835
6969.48573,0.05318
6971.41420,0.06796
6973.34267,0.03428
6975.27114,0.02045
6977.19961,0.04447
6979.12808,0.08585
6981.05655,0.10310
6982.98501,0.10014
6984.91348,0.12877
6986.84195,0.18889
6988.77042,0.21294
6990.69889,0.13385
6992.62736,0.00284
6994.55583,-0.06596
6996.48430,-0.01431
6998.41276,0.08742
7000.34123,0.10767
7002.26970,0.09913
7004.19817,0.13985
7006.12664,0.19297
7008.05511,0.27284
7009.98358,0.34512
7011.91204,0.27837
7013.84051,0.10849
7015.76898,0.03223
7017.69745,0.00628
7019.62592,-0.01823
7021.55439,0.01554
7023.48286,0.03151
7025.41133,0.01033
7027.33979,0.02714
7029.26826,0.10256
7031.19673,0.21738
7033.12520,0.29770
7035.05367,0.31670
7036.98214,0.29967
7038.91061,0.24952
7040.83907,0.22008
7042.76754,0.26411
7044.69601,0.24573
7046.62448,0.11223
7048.55295,0.01026
7050.48142,-0.09517
7052.40989,-0.24731
7054.33836,-0.30203
7056.26682,-0.25200
7058.19529,-0.17886
7060.12376,0.01927
7062.05223,0.29649
7063.98070,0.38989
7065.90917,0.27911
7067.83764,0.18091
7069.76610,0.21502
7071.69457,0.33775
7073.62304,0.30292
7075.55151,0.14999
7077.47998,0.08443
7079.40845,0.13381
7081.33692,0.24385
7083.26539,0.25300
7085.19385,0.13474
7087.12232,0.01493
7089.05079,-0.06933
7090.97926,-0.09101
7092.90773,-0.02188
7094.83620,0.02659
7096.76467,-0.00938
7098.69313,-0.02466
7100.62160,-0.04029
7102.55007,-0.14473
7104.47854,-0.19846
7106.40701,-0.15381
7108.33548,-0.14998
7110.26395,-0.11747
7112.19242,0.00924
7114.12088,0.08388
7116.04935,0.06165
7117.97782,0.11953
7119.90629,0.23201
7121.83476,0.17635
7123.76323,0.06419
7125.69170,0.02097
7127.62016,-0.01211
7129.54863,-0.05311
7131.47710,-0.06641
7133.40557,-0.06728
7135.33404,-0.09837
7137.26251,-0.13326
7139.19098,-0.11598
7141.11944,-0.06556
7143.04791,0.08386
7144.97638,0.37461
7146.90485,0.56508
7148.83332,0.52636
7150.76179,0.44492
7152.69026,0.39110
7154.61873,0.25167
7156.54719,0.08137
7158.47566,0.01699
7160.40413,0.05363
7162.33260,0.03943
7164.26107,-0.13001
7166.18954,-0.23733
7168.11801,-0.14064
7170.04647,-0.06320
7171.97494,-0.09104
7173.90341,-0.08833
7175.83188,-0.01166
7177.76035,0.13270
7179.68882,0.30560
7181.61729,0.41190
7183.54576,0.33650
7185.47422,0.16426
7187.40269,0.03969
7189.33116,-0.09187
7191.25963,-0.17803
7193.18810,-0.10090
7195.11657,-0.03117
7197.04504,-0.02259
7198.97350,0.04736
7200.90197,0.10868
7202.83044,0.01907
7204.75891,-0.17477
7206.68738,-0.16905
7208.61585,-0.00990
7210.54432,0.05600
7212.47279,0.02809
7214.40125,0.06173
7216.32972,0.15517
7218.25819,0.11127
7220.18666,0.01503
7222.11513,0.04123
7224.04360,0.04315
7225.97207,-0.01372
7227.90053,0.06119
7229.82900,0.19029
7231.75747,0.17355
7233.68594,0.11378
7235.61441,0.16334
7237.54288,0.29831
7239.47135,0.32834
7241.39982,0.15787
7243.32828,-0.04728
7245.25675,-0.08718
7247.18522,-0.04150
7249.11369,0.05730
7251.04216,0.21198
7252.97063,0.22720
7254.89910,0.10400
7256.82756,0.05411
7258.75603,-0.08526
7260.68450,-0.37328
7262.61297,-0.47056
7264.54144,-0.32941
7266.46991,-0.22431
7268.39838,-0.17425
7270.32685,-0.04169
7272.25531,0.24444
7274.18378,0.39964
7276.11225,0.27483
7278.04072,0.11910
7279.96919,0.05384
7281.89766,-0.02173
7283.82613,-0.08046
7285.75459,-0.10027
7287.68306,-0.09080
7289.61153,-0.02720
7291.54000,0.03070
7293.46847,0.02100
7295.39694,0.00879
7297.32541,0.13387
7299.25387,0.31358
7301.18234,0.31675
7303.11081,0.23975
7305.03928,0.35871
7306.96775,0.48841
7308.89622,0.31449
7310.82469,0.16736
7312.75316,0.25636
7314.68162,0.32924
7316.61009,0.26582
7318.53856,0.21107
7320.46703,0.25648
7322.39550,0.24662
7324.32397,0.08815
7326.25244,-0.06294
7328.18090,-0.13550
7330.10937,-0.18649
7332.03784,-0.23911
7333.96631,-0.22447
7335.89478,-0.08573
7337.82325,0.11548
7339.75172,0.20569
7341.68019,0.09643
7343.60865,0.09628
7345.53712,0.22496
7347.46559,0.23785
7349.39406,0.09223
7351.32253,-0.01589
7353.25100,0.01141
7355.17947,0.11720
7357.10793,0.16532
7359.03640,0.17636
7360.96487,0.26400
7362.89334,0.18107
7364.82181,-0.06513
7366.75028,-0.14209
7368.67875,-0.02227
7370.60722,0.14776
7372.53568,0.27513
7374.46415,0.28403
7376.39262,0.16867
7378.32109,0.02143
7380.24956,-0.11941
7382.17803,-0.10729
7384.10650,0.08566
7386.03496,0.25494
7387.96343,0.30083
7389.89190,0.30369
7391.82037,0.26201
7393.74884,0.22274
7395.67731,0.26069
7397.60578,0.23735
7399.53425,0.14719
7401.46271,0.07016
7403.39118,0.01588
7405.31965,0.09731
7407.24812,0.21027
7409.17659,0.15101
7411.10506,0.06339
7413.03353,0.09122
7414.96199,0.04800
7416.89046,-0.11515
7418.81893,-0.21480
7420.74740,-0.26903
7422.67587,-0.22656
7424.60434,-0.06716
7426.53281,-0.01757
7428.46128,-0.08791
7430.38974,-0.05601
7432.31821,0.11385
7434.24668,0.21381
7436.17515,0.18952
7438.10362,0.14805
7440.03209,0.08087
7441.96056,0.05492
7443.88902,0.12186
7445.81749,0.05304
7447.74596,-0.12182
7449.67443,-0.06057
7451.60290,0.20022
7453.53137,0.19413
7455.45984,0.00571
7457.38831,-0.12740
7459.31677,-0.13966
7461.24524,-0.02244
7463.17371,0.02953
7465.10218,0.02000
7467.03065,0.05289
7468.95912,0.06835
7470.88759,0.05012
7472.81605,0.08654
7474.74452,0.22779
7476.67299,0.33740
7478.60146,0.25006
7480.52993,0.11273
7482.45840,0.15301
7484.38687,0.21697
7486.31533,0.19890
7488.24380,0.13525
7490.17227,0.02334
7492.10074,0.08746
7494.02921,0.31964
7495.95768,0.39253
7497.88615,0.28672
