399.19301,1.20210
401.12148,0.93851
403.04995,0.43323
404.97842,0.19388
406.90689,0.17493
408.83536,0.15434
410.76382,0.07143
412.69229,-0.03042
414.62076,-0.15096
416.54923,-0.24460
418.47770,-0.17753
420.40617,0.03014
422.33464,0.07611
424.26311,0.00935
426.19157,0.03467
428.12004,0.14587
430.04851,0.21803
431.97698,0.22449
433.90545,0.14286
435.83392,0.00251
437.76239,-0.04000
439.69085,0.04018
441.61932,0.09407
443.54779,0.00904
445.47626,-0.08138
447.40473,-0.06068
449.33320,-0.00097
451.26167,0.06020
453.19013,0.15375
455.11860,0.26052
457.04707,0.28928
458.97554,0.19301
460.90401,0.10063
462.83248,0.04249
464.76095,-0.01712
466.68942,-0.00953
468.61788,0.05788
470.54635,0.09767
472.47482,0.08593
474.40329,0.02607
476.33176,0.00595
478.26023,0.07533
480.18870,0.14277
482.11716,0.11005
484.04563,0.01550
485.97410,-0.02267
487.90257,-0.00709
489.83104,0.01544
491.75951,0.03304
493.68798,0.03128
495.61645,0.01968
497.54491,0.02883
499.47338,0.04729
501.40185,0.04752
503.33032,0.02515
505.25879,0.00338
507.18726,0.02721
509.11573,0.08849
511.04419,0.12567
512.97266,0.13693
514.90113,0.14024
516.82960,0.12825
518.75807,0.10699
520.68654,0.09002
522.61501,0.07080
524.54348,0.04076
526.47194,0.01732
528.40041,0.02542
530.32888,0.04616
532.25735,0.05285
534.18582,0.04549
536.11429,0.03829
538.04276,0.03358
539.97122,0.02844
541.89969,0.04766
543.82816,0.08732
545.75663,0.09847
547.68510,0.08637
549.61357,0.08625
551.54204,0.09853
553.47051,0.10353
555.39897,0.09159
557.32744,0.07825
559.25591,0.07332
561.18438,0.06810
563.11285,0.04588
565.04132,0.00054
566.96979,-0.01726
568.89825,0.02378
570.82672,0.06336
572.75519,0.07033
574.68366,0.07611
576.61213,0.07028
578.54060,0.03755
580.46907,0.03652
582.39754,0.07682
584.32600,0.09289
586.25447,0.08792
588.18294,0.10304
590.11141,0.12028
592.03988,0.10878
593.96835,0.09363
595.89682,0.09406
597.82528,0.08691
599.75375,0.06983
601.68222,0.06316
603.61069,0.07110
605.53916,0.08180
607.46763,0.08554
609.39610,0.07452
611.32456,0.05800
613.25303,0.06067
615.18150,0.06858
617.10997,0.05382
619.03844,0.03824
620.96691,0.03138
622.89538,0.00992
624.82385,-0.00536
626.75231,0.01571
628.68078,0.05085
630.60925,0.06164
632.53772,0.05305
634.46619,0.05953
636.39466,0.07705
638.32313,0.08091
640.25159,0.08014
642.18006,0.08944
644.10853,0.09785
646.03700,0.08838
647.96547,0.06357
649.89394,0.04117
651.82241,0.03515
653.75088,0.05303
655.67934,0.07929
657.60781,0.09031
659.53628,0.09056
661.46475,0.08470
663.39322,0.07352
665.32169,0.07116
667.25016,0.08977
669.17862,0.11330
671.10709,0.10715
673.03556,0.09341
674.96403,0.08122
676.89250,0.06569
678.82097,0.05391
680.74944,0.04591
682.67791,0.04231
684.60637,0.05887
686.53484,0.08172
688.46331,0.08606
690.39178,0.08076
692.32025,0.07997
694.24872,0.08390
696.17719,0.09034
698.10565,0.09519
700.03412,0.09086
701.96259,0.08425
703.89106,0.08456
705.81953,0.08268
707.74800,0.07476
709.67647,0.07060
711.60494,0.07489
713.53340,0.08155
715.46187,0.08649
717.39034,0.08787
719.31881,0.08410
721.24728,0.08438
723.17575,0.08434
725.10422,0.07479
727.03268,0.07306
728.96115,0.08424
730.88962,0.08868
732.81809,0.08065
734.74656,0.07188
736.67503,0.07115
738.60350,0.07697
740.53197,0.08258
742.46043,0.08561
744.38890,0.08855
746.31737,0.08747
748.24584,0.07506
750.17431,0.06473
752.10278,0.07501
754.03125,0.09080
755.95971,0.09499
757.88818,0.09712
759.81665,0.10476
761.74512,0.10679
763.67359,0.09426
765.60206,0.08048
767.53053,0.07331
769.45900,0.07104
771.38746,0.07893
773.31593,0.08611
775.24440,0.08407
777.17287,0.08464
779.10134,0.08492
781.02981,0.08139
782.95828,0.08982
784.88674,0.10686
786.81521,0.10711
788.74368,0.08654
790.67215,0.06933
792.60062,0.07151
794.52909,0.08125
796.45756,0.08452
798.38602,0.08657
800.31449,0.08417
802.24296,0.07292
804.17143,0.06748
806.09990,0.06848
808.02837,0.06457
809.95684,0.06050
811.88531,0.06445
813.81377,0.06831
815.74224,0.06302
817.67071,0.06309
819.59918,0.07263
821.52765,0.07128
823.45612,0.06538
825.38459,0.07231
827.31305,0.08375
829.24152,0.08873
831.16999,0.08707
833.09846,0.08621
835.02693,0.08928
836.95540,0.09160
838.88387,0.08833
840.81234,0.07905
842.74080,0.07875
844.66927,0.09061
846.59774,0.09338
848.52621,0.08214
850.45468,0.07245
852.38315,0.07378
854.31162,0.07966
856.24008,0.07961
858.16855,0.07362
860.09702,0.06957
862.02549,0.07646
863.95396,0.09041
865.88243,0.09503
867.81090,0.08778
869.73937,0.07656
871.66783,0.07225
873.59630,0.07890
875.52477,0.08206
877.45324,0.07914
879.38171,0.08019
881.31018,0.08021
883.23865,0.07415
885.16711,0.07450
887.09558,0.08035
889.02405,0.07641
890.95252,0.07073
892.88099,0.07264
894.80946,0.07901
896.73793,0.08582
898.66640,0.08856
900.59486,0.09143
902.52333,0.09789
904.45180,0.10345
906.38027,0.10371
908.30874,0.09915
910.23721,0.09426
912.16568,0.09022
914.09414,0.08791
916.02261,0.08866
917.95108,0.08833
919.87955,0.08456
921.80802,0.07864
923.73649,0.06959
925.66496,0.06008
927.59343,0.05793
929.52189,0.06492
931.45036,0.07439
933.37883,0.08085
935.30730,0.08614
937.23577,0.09182
939.16424,0.09070
941.09271,0.08550
943.02117,0.09004
944.94964,0.09615
946.87811,0.08817
948.80658,0.07878
950.73505,0.08163
952.66352,0.08602
954.59199,0.08660
956.52045,0.09012
958.44892,0.09393
960.37739,0.09242
962.30586,0.08543
964.23433,0.07750
966.16280,0.07610
968.09127,0.08128
970.01974,0.08371
971.94820,0.08092
973.87667,0.08139
975.80514,0.08464
977.73361,0.08171
979.66208,0.07548
981.59055,0.07617
983.51902,0.08247
985.44748,0.08524
987.37595,0.08162
989.30442,0.07990
991.23289,0.08535
993.16136,0.09000
995.08983,0.09128
997.01830,0.09305
998.94677,0.09317
1000.87523,0.09490
1002.80370,0.10230
1004.73217,0.10246
1006.66064,0.09203
1008.58911,0.08953
1010.51758,0.09504
1012.44605,0.09751
1014.37451,0.09928
1016.30298,0.09514
1018.23145,0.08608
1020.15992,0.08472
1022.08839,0.08463
1024.01686,0.08090
1025.94533,0.08147
1027.87380,0.08708
1029.80226,0.09239
1031.73073,0.09047
1033.65920,0.08345
1035.58767,0.07980
1037.51614,0.08276
1039.44461,0.08808
1041.37308,0.09136
1043.30154,0.09542
1045.23001,0.09982
1047.15848,0.10101
1049.08695,0.09691
1051.01542,0.08826
1052.94389,0.08177
1054.87236,0.08343
1056.80083,0.09320
1058.72929,0.10192
1060.65776,0.10275
1062.58623,0.09939
1064.51470,0.09260
1066.44317,0.08465
1068.37164,0.08433
1070.30011,0.08992
1072.22857,0.09031
1074.15704,0.08817
1076.08551,0.09543
1078.01398,0.10719
1079.94245,0.11250
1081.87092,0.11253
1083.79939,0.10745
1085.72786,0.09662
1087.65632,0.08856
1089.58479,0.08978
1091.51326,0.09512
1093.44173,0.09797
1095.37020,0.09950
1097.29867,0.09569
1099.22714,0.08592
1101.15560,0.08623
1103.08407,0.09176
1105.01254,0.08851
1106.94101,0.09094
1108.86948,0.10215
1110.79795,0.10731
1112.72642,0.10660
1114.65489,0.10659
1116.58335,0.10525
1118.51182,0.10043
1120.44029,0.09934
1122.36876,0.10358
1124.29723,0.10535
1126.22570,0.10428
1128.15417,0.10437
1130.08263,0.10277
1132.01110,0.09694
1133.93957,0.08954
1135.86804,0.08367
1137.79651,0.08141
1139.72498,0.08085
1141.65345,0.08060
1143.58191,0.08443
1145.51038,0.09283
1147.43885,0.09916
1149.36732,0.10105
1151.29579,0.10289
1153.22426,0.10352
1155.15273,0.10041
1157.08120,0.09917
1159.00966,0.10291
1160.93813,0.10587
1162.86660,0.10454
1164.79507,0.09919
1166.72354,0.09279
1168.65201,0.08984
1170.58048,0.08772
1172.50894,0.08471
1174.43741,0.08531
1176.36588,0.08962
1178.29435,0.09186
1180.22282,0.09052
1182.15129,0.09154
1184.07976,0.09669
1186.00823,0.09946
1187.93669,0.09930
1189.86516,0.10276
1191.79363,0.10587
1193.72210,0.10182
1195.65057,0.09602
1197.57904,0.09573
1199.50751,0.10023
1201.43597,0.10471
1203.36444,0.10652
1205.29291,0.10401
1207.22138,0.09842
1209.14985,0.09585
1211.07832,0.09807
1213.00679,0.10041
1214.93526,0.10172
1216.86372,0.10292
1218.79219,0.10260
1220.72066,0.10353
1222.64913,0.10552
1224.57760,0.10235
1226.50607,0.09577
1228.43454,0.09128
1230.36300,0.09084
1232.29147,0.09575
1234.21994,0.10209
1236.14841,0.10424
1238.07688,0.10216
1240.00535,0.09769
1241.93382,0.09478
1243.86229,0.09699
1245.79075,0.10035
1247.71922,0.09795
1249.64769,0.09352
1251.57616,0.09601
1253.50463,0.10179
1255.43310,0.10269
1257.36157,0.09925
1259.29003,0.09607
1261.21850,0.09664
1263.14697,0.09986
1265.07544,0.10031
1267.00391,0.09719
1268.93238,0.09548
1270.86085,0.09750
1272.78932,0.09975
1274.71778,0.09744
1276.64625,0.09373
1278.57472,0.09418
1280.50319,0.09718
1282.43166,0.09874
1284.36013,0.09683
1286.28860,0.09270
1288.21706,0.09135
1290.14553,0.09618
1292.07400,0.10258
1294.00247,0.10402
1295.93094,0.09942
1297.85941,0.09309
1299.78788,0.09184
1301.71634,0.09329
1303.64481,0.09092
1305.57328,0.09092
1307.50175,0.09945
1309.43022,0.10733
1311.35869,0.10702
1313.28716,0.10519
1315.21563,0.10704
1317.14409,0.10888
1319.07256,0.10869
1321.00103,0.10797
1322.92950,0.10680
1324.85797,0.10466
1326.78644,0.10300
1328.71491,0.10171
1330.64337,0.09852
1332.57184,0.09632
1334.50031,0.09808
1336.42878,0.10077
1338.35725,0.10221
1340.28572,0.10071
1342.21419,0.09722
1344.14266,0.09522
1346.07112,0.09517
1347.99959,0.09711
1349.92806,0.09973
1351.85653,0.10240
1353.78500,0.10542
1355.71347,0.10643
1357.64194,0.10671
1359.57040,0.10888
1361.49887,0.10874
1363.42734,0.10307
1365.35581,0.09957
1367.28428,0.10405
1369.21275,0.11105
1371.14122,0.11123
1373.06969,0.10819
1374.99815,0.11126
1376.92662,0.11607
1378.85509,0.11714
1380.78356,0.11533
1382.71203,0.11104
1384.64050,0.11002
1386.56897,0.11632
1388.49743,0.11995
1390.42590,0.11710
1392.35437,0.11712
1394.28284,0.12049
1396.21131,0.11875
1398.13978,0.11271
1400.06825,0.10931
1401.99672,0.10787
1403.92518,0.10566
1405.85365,0.10323
1407.78212,0.10334
1409.71059,0.10456
1411.63906,0.10385
1413.56753,0.10429
1415.49600,0.11011
1417.42446,0.12034
1419.35293,0.12366
1421.28140,0.11484
1423.20987,0.10754
1425.13834,0.10741
1427.06681,0.11112
1428.99528,0.11343
1430.92375,0.11194
1432.85221,0.10905
1434.78068,0.10953
1436.70915,0.11338
1438.63762,0.11400
1440.56609,0.11180
1442.49456,0.11038
1444.42303,0.10999
1446.35149,0.11053
1448.27996,0.11180
1450.20843,0.11116
1452.13690,0.11241
1454.06537,0.12081
1455.99384,0.13280
1457.92231,0.13462
1459.85077,0.12659
1461.77924,0.12241
1463.70771,0.12059
1465.63618,0.11649
1467.56465,0.11286
1469.49312,0.11494
1471.42159,0.12289
1473.35006,0.12929
1475.27852,0.12754
1477.20699,0.12281
1479.13546,0.11820
1481.06393,0.11405
1482.99240,0.11058
1484.92087,0.11030
1486.84934,0.11322
1488.77780,0.11567
1490.70627,0.11500
1492.63474,0.11356
1494.56321,0.11466
1496.49168,0.11695
1498.42015,0.11521
1500.34862,0.11303
1502.27709,0.11550
1504.20555,0.12297
1506.13402,0.13372
1508.06249,0.13185
1509.99096,0.12339
1511.91943,0.12062
1513.84790,0.12200
1515.77637,0.12523
1517.70483,0.12814
1519.63330,0.13256
1521.56177,0.13592
1523.49024,0.13176
1525.41871,0.12625
1527.34718,0.12150
1529.27565,0.11818
1531.20412,0.11894
1533.13258,0.12263
1535.06105,0.12168
1536.98952,0.11764
1538.91799,0.11975
1540.84646,0.12868
1542.77493,0.12796
1544.70340,0.12292
1546.63186,0.12209
1548.56033,0.12416
1550.48880,0.12172
1552.41727,0.11682
1554.34574,0.11770
1556.27421,0.12171
1558.20268,0.12336
1560.13115,0.11825
1562.05961,0.11485
1563.98808,0.11669
1565.91655,0.11904
1567.84502,0.11849
1569.77349,0.11759
1571.70196,0.11786
1573.63043,0.12112
1575.55889,0.12866
1577.48736,0.13031
1579.41583,0.12279
1581.34430,0.11401
1583.27277,0.10773
1585.20124,0.10647
1587.12971,0.10907
1589.05818,0.11207
1590.98664,0.11191
1592.91511,0.10943
1594.84358,0.10988
1596.77205,0.11324
1598.70052,0.11526
1600.62899,0.11495
1602.55746,0.11270
1604.48592,0.10993
1606.41439,0.10686
1608.34286,0.10410
1610.27133,0.10667
1612.19980,0.11382
1614.12827,0.12164
1616.05674,0.12816
1617.98521,0.12594
1619.91367,0.12181
1621.84214,0.12145
1623.77061,0.11633
1625.69908,0.10901
1627.62755,0.10936
1629.55602,0.11388
1631.48449,0.11897
1633.41295,0.12685
1635.34142,0.13366
1637.26989,0.12809
1639.19836,0.12120
1641.12683,0.11975
1643.05530,0.12151
1644.98377,0.12385
1646.91223,0.12161
1648.84070,0.11664
1650.76917,0.11890
1652.69764,0.12835
1654.62611,0.12761
1656.55458,0.12178
1658.48305,0.12043
1660.41152,0.12002
1662.33998,0.11826
1664.26845,0.11655
1666.19692,0.11754
1668.12539,0.12313
1670.05386,0.13074
1671.98233,0.13169
1673.91080,0.12771
1675.83926,0.12253
1677.76773,0.12035
1679.69620,0.12287
1681.62467,0.12866
1683.55314,0.13354
1685.48161,0.12782
1687.41008,0.12023
1689.33855,0.11865
1691.26701,0.12078
1693.19548,0.12462
1695.12395,0.13127
1697.05242,0.13596
1698.98089,0.13341
1700.90936,0.12879
1702.83783,0.12674
1704.76629,0.12531
1706.69476,0.12126
1708.62323,0.11693
1710.55170,0.11480
1712.48017,0.11329
1714.40864,0.11241
1716.33711,0.11511
1718.26558,0.12008
1720.19404,0.12053
1722.12251,0.11899
1724.05098,0.11810
1725.97945,0.11811
1727.90792,0.11878
1729.83639,0.11868
1731.76486,0.11942
1733.69332,0.12238
1735.62179,0.12101
1737.55026,0.11906
1739.47873,0.12069
1741.40720,0.12147
1743.33567,0.12014
1745.26414,0.12083
1747.19261,0.12249
1749.12107,0.12237
1751.04954,0.12015
1752.97801,0.11558
1754.90648,0.11149
1756.83495,0.11002
1758.76342,0.11145
1760.69189,0.11602
1762.62035,0.12076
1764.54882,0.12165
1766.47729,0.11994
1768.40576,0.11737
1770.33423,0.11619
1772.26270,0.11461
1774.19117,0.11090
1776.11964,0.11008
1778.04810,0.11229
1779.97657,0.11559
1781.90504,0.11794
1783.83351,0.11755
1785.76198,0.11543
1787.69045,0.11493
1789.61892,0.11826
1791.54738,0.12310
1793.47585,0.12250
1795.40432,0.11734
1797.33279,0.11275
1799.26126,0.11102
1801.18973,0.11315
1803.11820,0.11467
1805.04666,0.11382
1806.97513,0.11479
1808.90360,0.11752
1810.83207,0.11648
1812.76054,0.11176
1814.68901,0.11011
1816.61748,0.11204
1818.54595,0.11418
1820.47441,0.11589
1822.40288,0.11705
1824.33135,0.11716
1826.25982,0.11713
1828.18829,0.11639
1830.11676,0.11180
1832.04523,0.10832
1833.97369,0.11037
1835.90216,0.11351
1837.83063,0.11482
1839.75910,0.11574
1841.68757,0.11844
1843.61604,0.12080
1845.54451,0.11899
1847.47298,0.11606
1849.40144,0.11415
1851.32991,0.11318
1853.25838,0.11151
1855.18685,0.10884
1857.11532,0.10899
1859.04379,0.11073
1860.97226,0.10977
1862.90072,0.10731
1864.82919,0.10644
1866.75766,0.10834
1868.68613,0.11093
1870.61460,0.11091
1872.54307,0.11016
1874.47154,0.11082
1876.40001,0.11221
1878.32847,0.11321
1880.25694,0.11239
1882.18541,0.10928
1884.11388,0.10744
1886.04235,0.10844
1887.97082,0.10992
1889.89929,0.11000
1891.82775,0.10847
1893.75622,0.10805
1895.68469,0.10923
1897.61316,0.10970
1899.54163,0.11053
1901.47010,0.11412
1903.39857,0.11787
1905.32704,0.11676
1907.25550,0.11245
1909.18397,0.10942
1911.11244,0.10858
1913.04091,0.10952
1914.96938,0.11131
1916.89785,0.11308
1918.82632,0.11369
1920.75478,0.11291
1922.68325,0.11261
1924.61172,0.11248
1926.54019,0.11068
1928.46866,0.10841
1930.39713,0.10871
1932.32560,0.11148
1934.25407,0.11217
1936.18253,0.11001
1938.11100,0.10932
1940.03947,0.11097
1941.96794,0.11312
1943.89641,0.11411
1945.82488,0.11369
1947.75335,0.11281
1949.68181,0.11157
1951.61028,0.11067
1953.53875,0.11165
1955.46722,0.11279
1957.39569,0.11225
1959.32416,0.11307
1961.25263,0.11599
1963.18110,0.11841
1965.10956,0.11952
1967.03803,0.11855
1968.96650,0.11518
1970.89497,0.11089
1972.82344,0.10737
1974.75191,0.10466
1976.68038,0.10327
1978.60884,0.10444
1980.53731,0.10722
1982.46578,0.11034
1984.39425,0.11181
1986.32272,0.11032
1988.25119,0.10959
1990.17966,0.11142
1992.10812,0.11109
1994.03659,0.10778
1995.96506,0.10721
1997.89353,0.11090
1999.82200,0.11351
2001.75047,0.11326
2003.67894,0.11433
2005.60741,0.11521
2007.53587,0.11309
2009.46434,0.11082
2011.39281,0.11013
2013.32128,0.11089
2015.24975,0.11359
2017.17822,0.11691
2019.10669,0.11768
2021.03515,0.11593
2022.96362,0.11383
2024.89209,0.11201
2026.82056,0.11087
2028.74903,0.10993
2030.67750,0.10778
2032.60597,0.10630
2034.53444,0.10795
2036.46290,0.10977
2038.39137,0.10945
2040.31984,0.10984
2042.24831,0.11129
2044.17678,0.11172
2046.10525,0.11259
2048.03372,0.11440
2049.96218,0.11412
2051.89065,0.11191
2053.81912,0.11125
2055.74759,0.11320
2057.67606,0.11517
2059.60453,0.11585
2061.53300,0.11692
2063.46147,0.11759
2065.38993,0.11582
2067.31840,0.11372
2069.24687,0.11331
2071.17534,0.11479
2073.10381,0.11772
2075.03228,0.11893
2076.96075,0.11849
2078.88921,0.11922
2080.81768,0.11956
2082.74615,0.11858
2084.67462,0.11712
2086.60309,0.11436
2088.53156,0.11152
2090.46003,0.11125
2092.38850,0.11220
2094.31696,0.11224
2096.24543,0.11250
2098.17390,0.11312
2100.10237,0.11214
2102.03084,0.11087
2103.95931,0.11315
2105.88778,0.11693
2107.81624,0.11680
2109.74471,0.11412
2111.67318,0.11186
2113.60165,0.10925
2115.53012,0.10814
2117.45859,0.11087
2119.38706,0.11425
2121.31553,0.11453
2123.24399,0.11277
2125.17246,0.11165
2127.10093,0.11182
2129.02940,0.11158
2130.95787,0.10922
2132.88634,0.10684
2134.81481,0.10648
2136.74327,0.10669
2138.67174,0.10660
2140.60021,0.10613
2142.52868,0.10670
2144.45715,0.11043
2146.38562,0.11475
2148.31409,0.11569
2150.24255,0.11461
2152.17102,0.11528
2154.09949,0.11712
2156.02796,0.11756
2157.95643,0.11696
2159.88490,0.11680
2161.81337,0.11708
2163.74184,0.11731
2165.67030,0.11751
2167.59877,0.11782
2169.52724,0.11927
2171.45571,0.12101
2173.38418,0.12061
2175.31265,0.11917
2177.24112,0.11891
2179.16958,0.11936
2181.09805,0.11835
2183.02652,0.11610
2184.95499,0.11481
2186.88346,0.11450
2188.81193,0.11365
2190.74040,0.11221
2192.66887,0.11132
2194.59733,0.11052
2196.52580,0.10977
2198.45427,0.10917
2200.38274,0.10776
2202.31121,0.10690
2204.23968,0.10705
2206.16815,0.10749
2208.09661,0.10981
2210.02508,0.11380
2211.95355,0.11762
2213.88202,0.11962
2215.81049,0.11777
2217.73896,0.11444
2219.66743,0.11424
2221.59590,0.11612
2223.52436,0.11671
2225.45283,0.11630
2227.38130,0.11545
2229.30977,0.11402
2231.23824,0.11458
2233.16671,0.11690
2235.09518,0.11770
2237.02364,0.11713
2238.95211,0.11565
2240.88058,0.11293
2242.80905,0.11138
2244.73752,0.11306
2246.66599,0.11550
2248.59446,0.11536
2250.52293,0.11347
2252.45139,0.11299
2254.37986,0.11507
2256.30833,0.11674
2258.23680,0.11557
2260.16527,0.11389
2262.09374,0.11385
2264.02221,0.11481
2265.95067,0.11589
2267.87914,0.11630
2269.80761,0.11539
2271.73608,0.11509
2273.66455,0.11716
2275.59302,0.11750
2277.52149,0.11455
2279.44996,0.11410
2281.37842,0.11698
2283.30689,0.11751
2285.23536,0.11395
2287.16383,0.11095
2289.09230,0.11168
2291.02077,0.11359
2292.94924,0.11399
2294.87770,0.11419
2296.80617,0.11707
2298.73464,0.12174
2300.66311,0.12335
2302.59158,0.11958
2304.52005,0.11415
2306.44852,0.11206
2308.37699,0.11288
2310.30545,0.11126
2312.23392,0.10634
2314.16239,0.10500
2316.09086,0.10882
2318.01933,0.11029
2319.94780,0.10597
2321.87627,0.10101
2323.80473,0.09954
2325.73320,0.10253
2327.66167,0.10835
2329.59014,0.11670
2331.51861,0.12629
2333.44708,0.12744
2335.37555,0.12566
2337.30401,0.12517
2339.23248,0.11704
2341.16095,0.10835
2343.08942,0.10689
2345.01789,0.11087
2346.94636,0.11512
2348.87483,0.11793
2350.80330,0.12036
2352.73176,0.11819
2354.66023,0.10939
2356.58870,0.10265
2358.51717,0.10415
2360.44564,0.12071
2362.37411,0.13278
2364.30258,0.11487
2366.23104,0.10206
2368.15951,0.11221
2370.08798,0.11946
2372.01645,0.11593
2373.94492,0.10748
2375.87339,0.10410
2377.80186,0.11043
2379.73033,0.11759
2381.65879,0.11847
2383.58726,0.11601
2385.51573,0.11409
2387.44420,0.11344
2389.37267,0.11346
2391.30114,0.11317
2393.22961,0.11208
2395.15807,0.11127
2397.08654,0.11242
2399.01501,0.11345
2400.94348,0.11211
2402.87195,0.11072
2404.80042,0.11147
2406.72889,0.11385
2408.65736,0.11565
2410.58582,0.11530
2412.51429,0.11429
2414.44276,0.11564
2416.37123,0.11894
2418.29970,0.11873
2420.22817,0.11398
2422.15664,0.11149
2424.08510,0.11290
2426.01357,0.11390
2427.94204,0.11542
2429.87051,0.11891
2431.79898,0.11950
2433.72745,0.11595
2435.65592,0.11443
2437.58439,0.11590
2439.51285,0.11611
2441.44132,0.11528
2443.36979,0.11524
2445.29826,0.11536
2447.22673,0.11532
2449.15520,0.11580
2451.08367,0.11521
2453.01213,0.11265
2454.94060,0.11271
2456.86907,0.11648
2458.79754,0.11751
2460.72601,0.11518
2462.65448,0.11479
2464.58295,0.11648
2466.51142,0.11757
2468.43988,0.11773
2470.36835,0.11754
2472.29682,0.11566
2474.22529,0.11155
2476.15376,0.10866
2478.08223,0.10875
2480.01070,0.10991
2481.93916,0.11168
2483.86763,0.11352
2485.79610,0.11412
2487.72457,0.11439
2489.65304,0.11523
2491.58151,0.11568
2493.50998,0.11565
2495.43844,0.11629
2497.36691,0.11692
2499.29538,0.11701
2501.22385,0.11732
2503.15232,0.11751
2505.08079,0.11742
2507.00926,0.11754
2508.93773,0.11794
2510.86619,0.11787
2512.79466,0.11685
2514.72313,0.11541
2516.65160,0.11481
2518.58007,0.11629
2520.50854,0.11809
2522.43701,0.11850
2524.36547,0.12003
2526.29394,0.12306
2528.22241,0.12252
2530.15088,0.11763
2532.07935,0.11405
2534.00782,0.11386
2535.93629,0.11430
2537.86476,0.11509
2539.79322,0.11714
2541.72169,0.11824
2543.65016,0.11785
2545.57863,0.11735
2547.50710,0.11754
2549.43557,0.11939
2551.36404,0.12163
2553.29250,0.12178
2555.22097,0.11955
2557.14944,0.11860
2559.07791,0.11992
2561.00638,0.11915
2562.93485,0.11827
2564.86332,0.12112
2566.79179,0.12284
2568.72025,0.12031
2570.64872,0.11760
2572.57719,0.11624
2574.50566,0.11441
2576.43413,0.11245
2578.36260,0.11134
2580.29107,0.11178
2582.21953,0.11380
2584.14800,0.11476
2586.07647,0.11412
2588.00494,0.11493
2589.93341,0.11723
2591.86188,0.11864
2593.79035,0.11875
2595.71882,0.11837
2597.64728,0.11872
2599.57575,0.11928
2601.50422,0.11894
2603.43269,0.11890
2605.36116,0.11949
2607.28963,0.11961
2609.21810,0.11955
2611.14656,0.11959
2613.07503,0.11908
2615.00350,0.11810
2616.93197,0.11705
2618.86044,0.11481
2620.78891,0.11214
2622.71738,0.11192
2624.64585,0.11379
2626.57431,0.11543
2628.50278,0.11751
2630.43125,0.12094
2632.35972,0.12288
2634.28819,0.12210
2636.21666,0.12090
2638.14513,0.12055
2640.07359,0.12049
2642.00206,0.12021
2643.93053,0.11987
2645.85900,0.12004
2647.78747,0.12039
2649.71594,0.11943
2651.64441,0.11806
2653.57288,0.11698
2655.50134,0.11596
2657.42981,0.11768
2659.35828,0.12151
2661.28675,0.12289
2663.21522,0.12092
2665.14369,0.11849
2667.07216,0.11915
2669.00062,0.12281
2670.92909,0.12478
2672.85756,0.12342
2674.78603,0.12194
2676.71450,0.12130
2678.64297,0.12029
2680.57144,0.12035
2682.49990,0.12288
2684.42837,0.12447
2686.35684,0.12173
2688.28531,0.11684
2690.21378,0.11408
2692.14225,0.11542
2694.07072,0.11949
2695.99919,0.12156
2697.92765,0.11947
2699.85612,0.11847
2701.78459,0.12039
2703.71306,0.12027
2705.64153,0.11785
2707.57000,0.11642
2709.49847,0.11631
2711.42693,0.11684
2713.35540,0.11874
2715.28387,0.12137
2717.21234,0.12206
2719.14081,0.12052
2721.06928,0.11924
2722.99775,0.11915
2724.92622,0.12011
2726.85468,0.12087
2728.78315,0.12092
2730.71162,0.12290
2732.64009,0.12583
2734.56856,0.12569
2736.49703,0.12154
2738.42550,0.11785
2740.35396,0.12009
2742.28243,0.12431
2744.21090,0.12449
2746.13937,0.12220
2748.06784,0.12048
2749.99631,0.11995
2751.92478,0.11954
2753.85325,0.11991
2755.78171,0.12266
2757.71018,0.12457
2759.63865,0.12510
2761.56712,0.12772
2763.49559,0.12959
2765.42406,0.12820
2767.35253,0.12538
2769.28099,0.12234
2771.20946,0.12118
2773.13793,0.12374
2775.06640,0.12660
2776.99487,0.12536
2778.92334,0.12397
2780.85181,0.12771
2782.78028,0.13269
2784.70874,0.13232
2786.63721,0.12833
2788.56568,0.12855
2790.49415,0.13284
2792.42262,0.13357
2794.35109,0.13019
2796.27956,0.12833
2798.20802,0.12746
2800.13649,0.12413
2802.06496,0.12173
2803.99343,0.12476
2805.92190,0.13017
2807.85037,0.13185
2809.77884,0.12852
2811.70731,0.12401
2813.63577,0.12297
2815.56424,0.12524
2817.49271,0.12788
2819.42118,0.12855
2821.34965,0.12468
2823.27812,0.12009
2825.20659,0.12101
2827.13505,0.12530
2829.06352,0.12796
2830.99199,0.12779
2832.92046,0.12664
2834.84893,0.12594
2836.77740,0.12448
2838.70587,0.12329
2840.63433,0.12428
2842.56280,0.12652
2844.49127,0.12897
2846.41974,0.13087
2848.34821,0.13077
2850.27668,0.12737
2852.20515,0.12406
2854.13362,0.12450
2856.06208,0.12527
2857.99055,0.12447
2859.91902,0.12502
2861.84749,0.12697
2863.77596,0.12959
2865.70443,0.13341
2867.63290,0.13561
2869.56136,0.13581
2871.48983,0.13540
2873.41830,0.13140
2875.34677,0.12626
2877.27524,0.12522
2879.20371,0.12595
2881.13218,0.12590
2883.06065,0.12545
2884.98911,0.12528
2886.91758,0.12758
2888.84605,0.13132
2890.77452,0.13168
2892.70299,0.12910
2894.63146,0.12807
2896.55993,0.12744
2898.48839,0.12415
2900.41686,0.12167
2902.34533,0.12406
2904.27380,0.12815
2906.20227,0.12801
2908.13074,0.12385
2910.05921,0.12020
2911.98768,0.11982
2913.91614,0.12376
2915.84461,0.12876
2917.77308,0.13086
2919.70155,0.13123
2921.63002,0.13101
2923.55849,0.13048
2925.48696,0.13172
2927.41542,0.13458
2929.34389,0.13451
2931.27236,0.12938
2933.20083,0.12536
2935.12930,0.12511
2937.05777,0.12228
2938.98624,0.12007
2940.91471,0.12416
2942.84317,0.12665
2944.77164,0.12223
2946.70011,0.11732
2948.62858,0.11950
2950.55705,0.12573
2952.48552,0.12937
2954.41399,0.13068
2956.34245,0.12994
2958.27092,0.12829
2960.19939,0.12724
2962.12786,0.12542
2964.05633,0.12391
2965.98480,0.12313
2967.91327,0.12254
2969.84174,0.12542
2971.77020,0.13039
2973.69867,0.13160
2975.62714,0.12748
2977.55561,0.12311
2979.48408,0.12340
2981.41255,0.12419
2983.34102,0.12333
2985.26948,0.12223
2987.19795,0.11960
2989.12642,0.11957
2991.05489,0.12475
2992.98336,0.13176
2994.91183,0.13736
2996.84030,0.13933
2998.76877,0.13971
3000.69723,0.13862
3002.62570,0.13326
3004.55417,0.12739
3006.48264,0.12209
3008.41111,0.11702
3010.33958,0.11666
3012.26805,0.11605
3014.19651,0.10834
3016.12498,0.10062
3018.05345,0.10478
3019.98192,0.11855
3021.91039,0.12942
3023.83886,0.13598
3025.76733,0.14070
3027.69579,0.14143
3029.62426,0.13970
3031.55273,0.14014
3033.48120,0.14372
3035.40967,0.14348
3037.33814,0.13711
3039.26661,0.13594
3041.19508,0.14124
3043.12354,0.14110
3045.05201,0.13483
3046.98048,0.12766
3048.90895,0.12450
3050.83742,0.12787
3052.76589,0.13019
3054.69436,0.12734
3056.62282,0.12532
3058.55129,0.12716
3060.47976,0.12761
3062.40823,0.12479
3064.33670,0.12285
3066.26517,0.12361
3068.19364,0.12675
3070.12211,0.13047
3072.05057,0.13193
3073.97904,0.12953
3075.90751,0.12596
3077.83598,0.12578
3079.76445,0.12753
3081.69292,0.12684
3083.62139,0.12160
3085.54985,0.11686
3087.47832,0.12277
3089.40679,0.13511
3091.33526,0.13739
3093.26373,0.12589
3095.19220,0.11437
3097.12067,0.11558
3099.04914,0.12585
3100.97760,0.13425
3102.90607,0.13628
3104.83454,0.13515
3106.76301,0.13525
3108.69148,0.13392
3110.61995,0.12751
3112.54842,0.12343
3114.47688,0.12717
3116.40535,0.13055
3118.33382,0.12995
3120.26229,0.13002
3122.19076,0.13121
3124.11923,0.13145
3126.04770,0.13056
3127.97617,0.12861
3129.90463,0.12514
3131.83310,0.12514
3133.76157,0.13055
3135.69004,0.13341
3137.61851,0.13116
3139.54698,0.12931
3141.47545,0.13088
3143.40391,0.13255
3145.33238,0.13201
3147.26085,0.13024
3149.18932,0.12655
3151.11779,0.12377
3153.04626,0.12752
3154.97473,0.13440
3156.90320,0.13702
3158.83166,0.13704
3160.76013,0.13645
3162.68860,0.13398
3164.61707,0.13317
3166.54554,0.13433
3168.47401,0.13402
3170.40248,0.13317
3172.33094,0.13200
3174.25941,0.12898
3176.18788,0.12580
3178.11635,0.12577
3180.04482,0.13079
3181.97329,0.13637
3183.90176,0.13662
3185.83022,0.13716
3187.75869,0.14094
3189.68716,0.14225
3191.61563,0.14342
3193.54410,0.14491
3195.47257,0.14174
3197.40104,0.13737
3199.32951,0.13725
3201.25797,0.13915
3203.18644,0.13700
3205.11491,0.12977
3207.04338,0.12668
3208.97185,0.13487
3210.90032,0.14648
3212.82879,0.15043
3214.75725,0.14705
3216.68572,0.14348
3218.61419,0.14287
3220.54266,0.14258
3222.47113,0.14046
3224.39960,0.13744
3226.32807,0.13451
3228.25654,0.13273
3230.18500,0.13542
3232.11347,0.14251
3234.04194,0.14584
3235.97041,0.14097
3237.89888,0.13685
3239.82735,0.14146
3241.75582,0.14981
3243.68428,0.15332
3245.61275,0.14973
3247.54122,0.14374
3249.46969,0.14002
3251.39816,0.13709
3253.32663,0.13367
3255.25510,0.13386
3257.18357,0.13631
3259.11203,0.13382
3261.04050,0.12848
3262.96897,0.12754
3264.89744,0.12944
3266.82591,0.12904
3268.75438,0.12770
3270.68285,0.12886
3272.61131,0.13094
3274.53978,0.13181
3276.46825,0.13355
3278.39672,0.13625
3280.32519,0.13692
3282.25366,0.13778
3284.18213,0.14154
3286.11060,0.14385
3288.03906,0.14149
3289.96753,0.13804
3291.89600,0.13665
3293.82447,0.13620
3295.75294,0.13788
3297.68141,0.14291
3299.60988,0.14323
3301.53834,0.13516
3303.46681,0.13067
3305.39528,0.13509
3307.32375,0.13881
3309.25222,0.13697
3311.18069,0.13323
3313.10916,0.13169
3315.03763,0.13382
3316.96609,0.13610
3318.89456,0.13368
3320.82303,0.12872
3322.75150,0.12595
3324.67997,0.12450
3326.60844,0.12207
3328.53691,0.12278
3330.46537,0.12960
3332.39384,0.13446
3334.32231,0.13526
3336.25078,0.13855
3338.17925,0.14106
3340.10772,0.13886
3342.03619,0.13582
3343.96466,0.13548
3345.89312,0.13823
3347.82159,0.14025
3349.75006,0.13831
3351.67853,0.13737
3353.60700,0.14090
3355.53547,0.14168
3357.46394,0.13684
3359.39240,0.13274
3361.32087,0.13383
3363.24934,0.13817
3365.17781,0.14030
3367.10628,0.14229
3369.03475,0.14581
3370.96322,0.14400
3372.89168,0.13874
3374.82015,0.13788
3376.74862,0.13921
3378.67709,0.13750
3380.60556,0.13555
3382.53403,0.13699
3384.46250,0.13783
3386.39097,0.13636
3388.31943,0.13581
3390.24790,0.13485
3392.17637,0.13303
3394.10484,0.13343
3396.03331,0.13773
3397.96178,0.14369
3399.89025,0.14534
3401.81871,0.14331
3403.74718,0.14341
3405.67565,0.14433
3407.60412,0.13833
3409.53259,0.12615
3411.46106,0.11953
3413.38953,0.12265
3415.31800,0.13005
3417.24646,0.13688
3419.17493,0.14249
3421.10340,0.14766
3423.03187,0.15088
3424.96034,0.14993
3426.88881,0.14389
3428.81728,0.13659
3430.74574,0.13294
3432.67421,0.13391
3434.60268,0.13569
3436.53115,0.13315
3438.45962,0.12900
3440.38809,0.12827
3442.31656,0.12811
3444.24503,0.12515
3446.17349,0.12180
3448.10196,0.12032
3450.03043,0.12086
3451.95890,0.12177
3453.88737,0.12102
3455.81584,0.12019
3457.74431,0.12145
3459.67277,0.12498
3461.60124,0.12734
3463.52971,0.12368
3465.45818,0.11692
3467.38665,0.11607
3469.31512,0.12101
3471.24359,0.12152
3473.17206,0.11509
3475.10052,0.10884
3477.02899,0.10736
3478.95746,0.10816
3480.88593,0.11009
3482.81440,0.11481
3484.74287,0.12020
3486.67134,0.12421
3488.59980,0.12327
3490.52827,0.11748
3492.45674,0.11294
3494.38521,0.11075
3496.31368,0.11186
3498.24215,0.11684
3500.17062,0.12172
3502.09909,0.12429
3504.02755,0.12335
3505.95602,0.12059
3507.88449,0.11946
3509.81296,0.11988
3511.74143,0.12025
3513.66990,0.11954
3515.59837,0.11981
3517.52683,0.12262
3519.45530,0.12272
3521.38377,0.11810
3523.31224,0.11523
3525.24071,0.11505
3527.16918,0.11472
3529.09765,0.11554
3531.02611,0.11493
3532.95458,0.11118
3534.88305,0.10624
3536.81152,0.10179
3538.73999,0.10178
3540.66846,0.10722
3542.59693,0.11245
3544.52540,0.11380
3546.45386,0.11372
3548.38233,0.10936
3550.31080,0.09991
3552.23927,0.09650
3554.16774,0.10259
3556.09621,0.10627
3558.02468,0.10289
3559.95314,0.10004
3561.88161,0.10232
3563.81008,0.10543
3565.73855,0.10722
3567.66702,0.10949
3569.59549,0.11090
3571.52396,0.11080
3573.45243,0.10971
3575.38089,0.10655
3577.30936,0.10421
3579.23783,0.10526
3581.16630,0.10575
3583.09477,0.10630
3585.02324,0.11041
3586.95171,0.11173
3588.88017,0.10410
3590.80864,0.09845
3592.73711,0.09824
3594.66558,0.09816
3596.59405,0.09644
3598.52252,0.09579
3600.45099,0.09658
3602.37946,0.09538
3604.30792,0.09294
3606.23639,0.09447
3608.16486,0.10068
3610.09333,0.10359
3612.02180,0.09995
3613.95027,0.09590
3615.87874,0.09609
3617.80720,0.09917
3619.73567,0.09981
3621.66414,0.09476
3623.59261,0.08901
3625.52108,0.08770
3627.44955,0.09122
3629.37802,0.09357
3631.30649,0.09514
3633.23495,0.09643
3635.16342,0.09234
3637.09189,0.08713
3639.02036,0.08809
3640.94883,0.09273
3642.87730,0.09493
3644.80577,0.09780
3646.73423,0.10511
3648.66270,0.10698
3650.59117,0.10041
3652.51964,0.10259
3654.44811,0.10615
3656.37658,0.10116
3658.30505,0.09176
3660.23352,0.08497
3662.16198,0.08079
3664.09045,0.08130
3666.01892,0.08459
3667.94739,0.08718
3669.87586,0.09076
3671.80433,0.09531
3673.73280,0.09742
3675.66126,0.09352
3677.58973,0.08605
3679.51820,0.08295
3681.44667,0.08213
3683.37514,0.08080
3685.30361,0.07868
3687.23208,0.07936
3689.16055,0.08283
3691.08901,0.08080
3693.01748,0.07981
3694.94595,0.08193
3696.87442,0.08189
3698.80289,0.08073
3700.73136,0.08138
3702.65983,0.08245
3704.58829,0.08220
3706.51676,0.08297
3708.44523,0.08588
3710.37370,0.09066
3712.30217,0.09109
3714.23064,0.08435
3716.15911,0.07911
3718.08757,0.07959
3720.01604,0.08253
3721.94451,0.08144
3723.87298,0.08198
3725.80145,0.08676
3727.72992,0.08665
3729.65839,0.08422
3731.58686,0.08362
3733.51532,0.08714
3735.44379,0.09391
3737.37226,0.09176
3739.30073,0.08891
3741.22920,0.09249
3743.15767,0.09746
3745.08614,0.09547
3747.01460,0.08738
3748.94307,0.08633
3750.87154,0.09034
3752.80001,0.08551
3754.72848,0.07983
3756.65695,0.08140
3758.58542,0.08880
3760.51389,0.09074
3762.44235,0.08804
3764.37082,0.09038
3766.29929,0.09109
3768.22776,0.08451
3770.15623,0.08082
3772.08470,0.08391
3774.01317,0.08793
3775.94163,0.09084
3777.87010,0.08992
3779.79857,0.08458
3781.72704,0.07772
3783.65551,0.06957
3785.58398,0.06858
3787.51245,0.07838
3789.44092,0.08408
3791.36938,0.08110
3793.29785,0.08027
3795.22632,0.08576
3797.15479,0.08999
3799.08326,0.08951
3801.01173,0.08686
3802.94020,0.08174
3804.86866,0.07936
3806.79713,0.08255
3808.72560,0.08458
3810.65407,0.08101
3812.58254,0.07852
3814.51101,0.08123
3816.43948,0.08196
3818.36795,0.07583
3820.29641,0.07211
3822.22488,0.07573
3824.15335,0.08128
3826.08182,0.08417
3828.01029,0.08274
3829.93876,0.07851
3831.86723,0.07281
3833.79569,0.06784
3835.72416,0.07150
3837.65263,0.08732
3839.58110,0.09916
3841.50957,0.09401
3843.43804,0.08216
3845.36651,0.07450
3847.29498,0.07288
3849.22344,0.07478
3851.15191,0.07963
3853.08038,0.08619
3855.00885,0.08647
3856.93732,0.08232
3858.86579,0.07805
3860.79426,0.07494
3862.72272,0.07596
3864.65119,0.08053
3866.57966,0.08453
3868.50813,0.08831
3870.43660,0.08670
3872.36507,0.07718
3874.29354,0.07218
3876.22200,0.07404
3878.15047,0.07570
3880.07894,0.07576
3882.00741,0.07465
3883.93588,0.07210
3885.86435,0.06839
3887.79282,0.06741
3889.72129,0.07294
3891.64975,0.07916
3893.57822,0.07554
3895.50669,0.06827
3897.43516,0.06681
3899.36363,0.07155
3901.29210,0.07742
3903.22057,0.08020
3905.14903,0.07529
3907.07750,0.06909
3909.00597,0.06801
3910.93444,0.06973
3912.86291,0.07382
3914.79138,0.07923
3916.71985,0.08286
3918.64832,0.08373
3920.57678,0.08090
3922.50525,0.07660
3924.43372,0.07611
3926.36219,0.07740
3928.29066,0.07671
3930.21913,0.07515
3932.14760,0.07173
3934.07606,0.06963
3936.00453,0.07238
3937.93300,0.07407
3939.86147,0.07144
3941.78994,0.06966
3943.71841,0.07089
3945.64688,0.07072
3947.57535,0.06849
3949.50381,0.06452
3951.43228,0.05899
3953.36075,0.05817
3955.28922,0.06530
3957.21769,0.07376
3959.14616,0.07775
3961.07463,0.07796
3963.00309,0.07385
3964.93156,0.06730
3966.86003,0.06380
3968.78850,0.06440
3970.71697,0.06956
3972.64544,0.07686
3974.57391,0.07952
3976.50238,0.07800
3978.43084,0.07507
3980.35931,0.07117
3982.28778,0.06950
3984.21625,0.06933
3986.14472,0.06836
3988.07319,0.06843
3990.00166,0.06902
3991.93012,0.06740
3993.85859,0.06350
3995.78706,0.06041
3997.71553,0.05943
3999.64400,0.05979
4001.57247,0.06281
4003.50094,0.06572
4005.42941,0.06408
4007.35787,0.05997
4009.28634,0.05558
4011.21481,0.05231
4013.14328,0.05380
4015.07175,0.05878
4017.00022,0.06441
4018.92869,0.06989
4020.85715,0.07307
4022.78562,0.07457
4024.71409,0.07198
4026.64256,0.06476
4028.57103,0.06127
4030.49950,0.06358
4032.42797,0.06710
4034.35644,0.06813
4036.28490,0.06614
4038.21337,0.06330
4040.14184,0.06113
4042.07031,0.06056
4043.99878,0.06159
4045.92725,0.06567
4047.85572,0.07152
4049.78418,0.07294
4051.71265,0.06819
4053.64112,0.06268
4055.56959,0.06333
4057.49806,0.06892
4059.42653,0.07047
4061.35500,0.06661
4063.28346,0.06364
4065.21193,0.06206
4067.14040,0.05990
4069.06887,0.05492
4070.99734,0.04709
4072.92581,0.04254
4074.85428,0.04183
4076.78275,0.04434
4078.71121,0.05342
4080.63968,0.06376
4082.56815,0.06779
4084.49662,0.06639
4086.42509,0.06291
4088.35356,0.05867
4090.28203,0.05703
4092.21049,0.06102
4094.13896,0.06528
4096.06743,0.06190
4097.99590,0.05591
4099.92437,0.05710
4101.85284,0.05975
4103.78131,0.05641
4105.70978,0.05254
4107.63824,0.05275
4109.56671,0.05670
4111.49518,0.06252
4113.42365,0.06507
4115.35212,0.06281
4117.28059,0.06067
4119.20906,0.06238
4121.13752,0.06560
4123.06599,0.06460
4124.99446,0.06064
4126.92293,0.05869
4128.85140,0.05499
4130.77987,0.04782
4132.70834,0.04503
4134.63681,0.04892
4136.56527,0.05311
4138.49374,0.05660
4140.42221,0.06312
4142.35068,0.06922
4144.27915,0.06859
4146.20762,0.06556
4148.13609,0.07006
4150.06455,0.07623
4151.99302,0.07292
4153.92149,0.06511
4155.84996,0.05863
4157.77843,0.05286
4159.70690,0.05077
4161.63537,0.05302
4163.56384,0.05303
4165.49230,0.04800
4167.42077,0.04302
4169.34924,0.04072
4171.27771,0.04060
4173.20618,0.03981
4175.13465,0.03820
4177.06312,0.04100
4178.99158,0.04424
4180.92005,0.04423
4182.84852,0.04680
4184.77699,0.05020
4186.70546,0.04987
4188.63393,0.04852
4190.56240,0.04753
4192.49087,0.04589
4194.41933,0.04610
4196.34780,0.05039
4198.27627,0.05634
4200.20474,0.05862
4202.13321,0.05558
4204.06168,0.04889
4205.99015,0.03991
4207.91861,0.03599
4209.84708,0.04176
4211.77555,0.04539
4213.70402,0.03966
4215.63249,0.03422
4217.56096,0.03317
4219.48943,0.03288
4221.41789,0.03456
4223.34636,0.03901
4225.27483,0.04382
4227.20330,0.04881
4229.13177,0.05465
4231.06024,0.05785
4232.98871,0.05290
4234.91718,0.04292
4236.84564,0.03898
4238.77411,0.04133
4240.70258,0.04113
4242.63105,0.04120
4244.55952,0.04902
4246.48799,0.05839
4248.41646,0.05689
4250.34492,0.04797
4252.27339,0.04383
4254.20186,0.04439
4256.13033,0.04675
4258.05880,0.05165
4259.98727,0.05407
4261.91574,0.04907
4263.84421,0.04292
4265.77267,0.04304
4267.70114,0.04408
4269.62961,0.03888
4271.55808,0.03020
4273.48655,0.02493
4275.41502,0.02602
4277.34349,0.03200
4279.27195,0.03691
4281.20042,0.03489
4283.12889,0.03259
4285.05736,0.03690
4286.98583,0.04256
4288.91430,0.04705
4290.84277,0.04844
4292.77124,0.04318
4294.69970,0.03722
4296.62817,0.03321
4298.55664,0.02832
4300.48511,0.02475
4302.41358,0.02289
4304.34205,0.02267
4306.27052,0.02469
4308.19898,0.02972
4310.12745,0.03760
4312.05592,0.04291
4313.98439,0.04514
4315.91286,0.04727
4317.84133,0.04791
4319.76980,0.04512
4321.69827,0.04090
4323.62673,0.03963
4325.55520,0.04099
4327.48367,0.04115
4329.41214,0.03773
4331.34061,0.03121
4333.26908,0.02448
4335.19755,0.02072
4337.12601,0.02161
4339.05448,0.02769
4340.98295,0.03842
4342.91142,0.04540
4344.83989,0.04170
4346.76836,0.03333
4348.69683,0.02637
4350.62530,0.02246
4352.55376,0.02302
4354.48223,0.02596
4356.41070,0.02789
4358.33917,0.03059
4360.26764,0.03313
4362.19611,0.03047
4364.12458,0.02890
4366.05304,0.03219
4367.98151,0.03077
4369.90998,0.02494
4371.83845,0.02382
4373.76692,0.02947
4375.69539,0.03456
4377.62386,0.03117
4379.55232,0.02447
4381.48079,0.02305
4383.40926,0.02484
4385.33773,0.02415
4387.26620,0.02117
4389.19467,0.01929
4391.12314,0.01774
4393.05161,0.01650
4394.98007,0.01778
4396.90854,0.01673
4398.83701,0.01365
4400.76548,0.01933
4402.69395,0.03200
4404.62242,0.03913
4406.55089,0.03922
4408.47935,0.03958
4410.40782,0.04191
4412.33629,0.03961
4414.26476,0.02870
4416.19323,0.01765
4418.12170,0.01371
4420.05017,0.01309
4421.97864,0.01574
4423.90710,0.02121
4425.83557,0.02186
4427.76404,0.01464
4429.69251,0.00508
4431.62098,0.00383
4433.54945,0.01387
4435.47792,0.02241
4437.40638,0.02073
4439.33485,0.01609
4441.26332,0.01433
4443.19179,0.01204
4445.12026,0.00685
4447.04873,0.00540
4448.97720,0.01306
4450.90567,0.02217
4452.83413,0.02520
4454.76260,0.02239
4456.69107,0.01597
4458.61954,0.01064
4460.54801,0.01206
4462.47648,0.01815
4464.40495,0.01904
4466.33341,0.01390
4468.26188,0.01051
4470.19035,0.00953
4472.11882,0.00570
4474.04729,-0.00142
4475.97576,-0.00576
4477.90423,-0.00374
4479.83270,0.00166
4481.76116,0.00673
4483.68963,0.01065
4485.61810,0.01223
4487.54657,0.01001
4489.47504,0.00821
4491.40351,0.00902
4493.33198,0.01053
4495.26044,0.01288
4497.18891,0.01146
4499.11738,0.00814
4501.04585,0.01080
4502.97432,0.01290
4504.90279,0.00885
4506.83126,0.00374
4508.75973,0.00347
4510.68819,0.01093
4512.61666,0.02127
4514.54513,0.02471
4516.47360,0.01884
4518.40207,0.00975
4520.33054,0.00345
4522.25901,0.00351
4524.18747,0.00771
4526.11594,0.01059
4528.04441,0.01271
4529.97288,0.01599
4531.90135,0.01538
4533.82982,0.01136
4535.75829,0.01277
4537.68676,0.01518
4539.61522,0.01053
4541.54369,0.00445
4543.47216,0.00280
4545.40063,0.00299
4547.32910,0.00335
4549.25757,0.00691
4551.18604,0.01052
4553.11450,0.00781
4555.04297,0.00226
4556.97144,-0.00181
4558.89991,-0.00452
4560.82838,-0.00114
4562.75685,0.00655
4564.68532,0.00695
4566.61378,-0.00154
4568.54225,-0.00846
4570.47072,-0.00506
4572.39919,0.00284
4574.32766,0.00739
4576.25613,0.01235
4578.18460,0.01712
4580.11307,0.01711
4582.04153,0.01257
4583.97000,0.00461
4585.89847,-0.00147
4587.82694,-0.00220
4589.75541,-0.00296
4591.68388,-0.00249
4593.61235,0.00186
4595.54081,0.00677
4597.46928,0.01542
4599.39775,0.02205
4601.32622,0.01834
4603.25469,0.01541
4605.18316,0.01606
4607.11163,0.00905
4609.04010,-0.00078
4610.96856,-0.00150
4612.89703,0.00021
4614.82550,-0.00568
4616.75397,-0.01047
4618.68244,-0.00734
4620.61091,-0.00402
4622.53938,-0.00322
4624.46784,-0.00289
4626.39631,-0.00223
4628.32478,-0.00296
4630.25325,-0.00802
4632.18172,-0.00894
4634.11019,-0.00590
4636.03866,-0.00796
4637.96713,-0.00717
4639.89559,-0.00141
4641.82406,0.00161
4643.75253,0.00636
4645.68100,0.00721
4647.60947,-0.00021
4649.53794,0.00195
4651.46641,0.01437
4653.39487,0.01748
4655.32334,0.00969
4657.25181,0.00957
4659.18028,0.01945
4661.10875,0.01963
4663.03722,0.00987
4664.96569,0.00466
4666.89416,0.01047
4668.82262,0.02323
4670.75109,0.02843
4672.67956,0.01831
4674.60803,0.00473
4676.53650,0.00315
4678.46497,0.01023
4680.39344,0.01019
4682.32190,0.00011
4684.25037,-0.00469
4686.17884,0.00722
4688.10731,0.02142
4690.03578,0.01678
4691.96425,0.00163
4693.89272,-0.00290
4695.82119,-0.00131
4697.74965,-0.00165
4699.67812,0.00259
4701.60659,0.00650
4703.53506,0.00383
4705.46353,0.00277
4707.39200,0.01251
4709.32047,0.02478
4711.24893,0.02109
4713.17740,0.01299
4715.10587,0.01612
4717.03434,0.01308
4718.96281,-0.00016
4720.89128,-0.00434
4722.81975,0.00473
4724.74821,0.01241
4726.67668,0.01101
4728.60515,0.00813
4730.53362,0.00617
4732.46209,0.00509
4734.39056,0.00723
4736.31903,0.00554
4738.24750,0.00137
4740.17596,0.00386
4742.10443,0.00545
4744.03290,0.00124
4745.96137,-0.00124
4747.88984,-0.00091
4749.81831,-0.00021
4751.74678,0.00309
4753.67524,0.01126
4755.60371,0.01540
4757.53218,0.00821
4759.46065,0.00266
4761.38912,0.00498
4763.31759,0.00465
4765.24606,0.00102
4767.17453,0.00091
4769.10299,0.00316
4771.03146,0.00375
4772.95993,0.00861
4774.88840,0.02088
4776.81687,0.02799
4778.74534,0.02763
4780.67381,0.02953
4782.60227,0.03393
4784.53074,0.03619
4786.45921,0.03193
4788.38768,0.02009
4790.31615,0.00763
4792.24462,-0.00043
4794.17309,-0.00051
4796.10156,0.01315
4798.03002,0.03154
4799.95849,0.03535
4801.88696,0.01784
4803.81543,-0.00544
4805.74390,-0.01337
4807.67237,-0.01252
4809.60084,-0.01559
4811.52930,-0.01049
4813.45777,0.00565
4815.38624,0.01242
4817.31471,0.00469
4819.24318,-0.00139
4821.17165,0.00348
4823.10012,0.00827
4825.02859,0.00460
4826.95705,0.00451
4828.88552,0.00572
4830.81399,-0.00238
4832.74246,-0.01283
4834.67093,-0.01676
4836.59940,-0.01171
4838.52787,-0.00445
4840.45633,0.00183
4842.38480,0.01143
4844.31327,0.02072
4846.24174,0.02284
4848.17021,0.02095
4850.09868,0.02392
4852.02715,0.02656
4853.95562,0.02075
4855.88408,0.01635
4857.81255,0.02020
4859.74102,0.01906
4861.66949,-0.00037
4863.59796,-0.02468
4865.52643,-0.03368
4867.45490,-0.02650
4869.38336,-0.01118
4871.31183,-0.00218
4873.24030,-0.00237
4875.16877,0.00623
4877.09724,0.02063
4879.02571,0.02201
4880.95418,0.01122
4882.88265,0.00181
4884.81111,-0.00097
4886.73958,-0.00261
4888.66805,-0.00619
4890.59652,-0.00551
4892.52499,0.00385
4894.45346,0.01389
4896.38193,0.01437
4898.31039,0.00967
4900.23886,0.01013
4902.16733,0.01395
4904.09580,0.01815
4906.02427,0.02465
4907.95274,0.02810
4909.88121,0.01853
4911.80967,-0.00063
4913.73814,-0.00791
4915.66661,0.00591
4917.59508,0.01315
4919.52355,0.00307
4921.45202,0.00714
4923.38049,0.02718
4925.30896,0.03226
4927.23742,0.02316
4929.16589,0.01354
4931.09436,-0.00250
4933.02283,-0.01537
4934.95130,-0.00805
4936.87977,-0.00133
4938.80824,-0.01208
4940.73670,-0.01228
4942.66517,0.00593
4944.59364,0.01567
4946.52211,0.01388
4948.45058,0.01432
4950.37905,0.01173
4952.30752,-0.00133
4954.23599,-0.01658
4956.16445,-0.02424
4958.09292,-0.02169
4960.02139,-0.00910
4961.94986,0.00842
4963.87833,0.02086
4965.80680,0.02267
4967.73527,0.01892
4969.66373,0.01610
4971.59220,0.01679
4973.52067,0.01966
4975.44914,0.01771
4977.37761,0.00953
4979.30608,-0.00265
4981.23455,-0.01766
4983.16302,-0.03059
4985.09148,-0.03115
4987.01995,-0.01829
4988.94842,-0.00373
4990.87689,-0.00203
4992.80536,-0.01133
4994.73383,-0.01010
4996.66230,-0.00363
4998.59076,-0.00389
5000.51923,0.00196
5002.44770,0.00962
5004.37617,0.01455
5006.30464,0.02136
5008.23311,0.02101
5010.16158,0.00967
5012.09005,-0.00044
5014.01851,-0.00372
5015.94698,-0.00157
5017.87545,0.00606
5019.80392,0.01300
5021.73239,0.01268
5023.66086,0.00828
5025.58933,0.01234
5027.51779,0.02124
5029.44626,0.01979
5031.37473,0.01499
5033.30320,0.01143
5035.23167,0.00396
5037.16014,-0.00320
5039.08861,-0.00721
5041.01708,-0.00568
5042.94554,0.00276
5044.87401,0.01102
5046.80248,0.01195
5048.73095,-0.00066
5050.65942,-0.01985
5052.58789,-0.01927
5054.51636,0.00085
5056.44482,0.01101
5058.37329,0.00389
5060.30176,-0.00209
5062.23023,0.00052
5064.15870,-0.00460
5066.08717,-0.01787
5068.01564,-0.01784
5069.94410,-0.00634
5071.87257,0.00632
5073.80104,0.02069
5075.72951,0.02729
5077.65798,0.01793
5079.58645,0.01014
5081.51492,0.02200
5083.44339,0.03240
5085.37185,0.02372
5087.30032,0.02509
5089.22879,0.04185
5091.15726,0.03426
5093.08573,0.01070
5095.01420,0.00474
5096.94267,0.00829
5098.87113,0.01403
5100.79960,0.02385
5102.72807,0.02917
5104.65654,0.02924
5106.58501,0.02813
5108.51348,0.02337
5110.44195,0.01313
5112.37042,0.00782
5114.29888,0.01068
5116.22735,0.01121
5118.15582,0.00922
5120.08429,0.00974
5122.01276,0.01610
5123.94123,0.02777
5125.86970,0.03144
5127.79816,0.02159
5129.72663,0.01068
5131.65510,0.00370
5133.58357,0.00124
5135.51204,0.00300
5137.44051,0.01362
5139.36898,0.03220
5141.29745,0.03476
5143.22591,0.03063
5145.15438,0.04226
5147.08285,0.04489
5149.01132,0.02607
5150.93979,0.01429
5152.86826,0.02262
5154.79673,0.03220
5156.72519,0.03213
5158.65366,0.03510
5160.58213,0.05485
5162.51060,0.07587
5164.43907,0.06582
5166.36754,0.03476
5168.29601,0.01441
5170.22448,0.00599
5172.15294,0.00177
5174.08141,0.00722
5176.00988,0.01807
5177.93835,0.02586
5179.86682,0.03398
5181.79529,0.03481
5183.72376,0.01953
5185.65222,0.00180
5187.58069,0.00414
5189.50916,0.02490
5191.43763,0.03676
5193.36610,0.02354
5195.29457,0.00149
5197.22304,0.00147
5199.15151,0.02121
5201.07997,0.02379
5203.00844,0.01341
5204.93691,0.01544
5206.86538,0.01724
5208.79385,0.00717
5210.72232,0.00375
5212.65079,0.00744
5214.57925,0.01150
5216.50772,0.02535
5218.43619,0.04163
5220.36466,0.03913
5222.29313,0.02228
5224.22160,0.00566
5226.15007,0.00171
5228.07854,0.01339
5230.00700,0.03382
5231.93547,0.05008
5233.86394,0.04441
5235.79241,0.02367
5237.72088,0.00867
5239.64935,0.00460
5241.57782,0.00136
5243.50628,-0.00771
5245.43475,-0.01623
5247.36322,-0.01489
5249.29169,-0.00494
5251.22016,0.00035
5253.14863,-0.00193
5255.07710,-0.00071
5257.00556,0.00628
5258.93403,0.01259
5260.86250,0.02285
5262.79097,0.03469
5264.71944,0.03531
5266.64791,0.03818
5268.57638,0.05146
5270.50485,0.05333
5272.43331,0.03928
5274.36178,0.03221
5276.29025,0.04195
5278.21872,0.04554
5280.14719,0.02429
5282.07566,0.01029
5284.00413,0.02880
5285.93259,0.05148
5287.86106,0.05173
5289.78953,0.03647
5291.71800,0.02938
5293.64647,0.03184
5295.57494,0.02175
5297.50341,0.00727
5299.43188,0.01060
5301.36034,0.01909
5303.28881,0.01682
5305.21728,0.01003
5307.14575,0.00851
5309.07422,0.02672
5311.00269,0.04643
5312.93116,0.04113
5314.85962,0.03419
5316.78809,0.04572
5318.71656,0.05039
5320.64503,0.03338
5322.57350,0.02346
5324.50197,0.03696
5326.43044,0.04897
5328.35891,0.04665
5330.28737,0.04203
5332.21584,0.03277
5334.14431,0.01262
5336.07278,0.00655
5338.00125,0.03615
5339.92972,0.05692
5341.85819,0.03644
5343.78665,0.01058
5345.71512,0.00519
5347.64359,0.01387
5349.57206,0.03405
5351.50053,0.05652
5353.42900,0.06432
5355.35747,0.06218
5357.28594,0.06183
5359.21440,0.06130
5361.14287,0.06646
5363.07134,0.07146
5364.99981,0.06115
5366.92828,0.05804
5368.85675,0.07206
5370.78522,0.07763
5372.71368,0.06782
5374.64215,0.05039
5376.57062,0.03155
5378.49909,0.01725
5380.42756,0.01079
5382.35603,0.02047
5384.28450,0.03812
5386.21297,0.04399
5388.14143,0.06226
5390.06990,0.09569
5391.99837,0.09627
5393.92684,0.06538
5395.85531,0.06301
5397.78378,0.07637
5399.71225,0.05691
5401.64071,0.03240
5403.56918,0.04045
5405.49765,0.05177
5407.42612,0.04609
5409.35459,0.04379
5411.28306,0.05313
5413.21153,0.05666
5415.13999,0.03948
5417.06846,0.02022
5418.99693,0.02054
5420.92540,0.03614
5422.85387,0.05297
5424.78234,0.07187
5426.71081,0.07885
5428.63928,0.04936
5430.56774,0.00446
5432.49621,-0.02396
5434.42468,-0.01951
5436.35315,0.01074
5438.28162,0.03047
5440.21009,0.03904
5442.13856,0.04814
5444.06702,0.05687
5445.99549,0.06368
5447.92396,0.05541
5449.85243,0.03514
5451.78090,0.02980
5453.70937,0.04687
5455.63784,0.07892
5457.56631,0.09687
5459.49477,0.07174
5461.42324,0.03813
5463.35171,0.04457
5465.28018,0.07373
5467.20865,0.07542
5469.13712,0.05227
5471.06559,0.04029
5472.99405,0.03226
5474.92252,0.02884
5476.85099,0.04879
5478.77946,0.05942
5480.70793,0.04022
5482.63640,0.01845
5484.56487,0.02114
5486.49334,0.03897
5488.42180,0.04192
5490.35027,0.04233
5492.27874,0.06965
5494.20721,0.08296
5496.13568,0.05876
5498.06415,0.04262
5499.99262,0.05162
5501.92108,0.05617
5503.84955,0.03600
5505.77802,0.00839
5507.70649,0.01357
5509.63496,0.04446
5511.56343,0.05464
5513.49190,0.05084
5515.42037,0.05612
5517.34883,0.05119
5519.27730,0.02616
5521.20577,0.01634
5523.13424,0.04177
5525.06271,0.05935
5526.99118,0.04394
5528.91965,0.02679
5530.84811,0.02186
5532.77658,0.01228
5534.70505,0.00242
5536.63352,0.02464
5538.56199,0.07170
5540.49046,0.09561
5542.41893,0.08430
5544.34740,0.06436
5546.27586,0.04969
5548.20433,0.04647
5550.13280,0.06399
5552.06127,0.08970
5553.98974,0.10722
5555.91821,0.10657
5557.84668,0.09151
5559.77514,0.08098
5561.70361,0.06083
5563.63208,0.03279
5565.56055,0.03410
5567.48902,0.05331
5569.41749,0.05198
5571.34596,0.02470
5573.27443,0.00308
5575.20289,0.01333
5577.13136,0.02855
5579.05983,0.03324
5580.98830,0.04564
5582.91677,0.06283
5584.84524,0.07576
5586.77371,0.08355
5588.70217,0.06508
5590.63064,0.02116
5592.55911,0.00539
5594.48758,0.02644
5596.41605,0.03689
5598.34452,0.03084
5600.27299,0.02837
5602.20145,0.02828
5604.12992,0.01504
5606.05839,-0.00849
5607.98686,-0.01421
5609.91533,-0.00577
5611.84380,0.00668
5613.77227,0.04000
5615.70074,0.07932
5617.62920,0.08890
5619.55767,0.08115
5621.48614,0.08389
5623.41461,0.08323
5625.34308,0.07390
5627.27155,0.06988
5629.20002,0.06657
5631.12848,0.05883
5633.05695,0.06131
5634.98542,0.07602
5636.91389,0.08563
5638.84236,0.09029
5640.77083,0.08045
5642.69930,0.05566
5644.62777,0.03937
5646.55623,0.02951
5648.48470,0.02152
5650.41317,0.02547
5652.34164,0.04463
5654.27011,0.07035
5656.19858,0.08658
5658.12705,0.08544
5660.05551,0.07573
5661.98398,0.06296
5663.91245,0.03728
5665.84092,0.02092
5667.76939,0.04183
5669.69786,0.06869
5671.62633,0.06935
5673.55480,0.07044
5675.48326,0.08429
5677.41173,0.07798
5679.34020,0.06591
5681.26867,0.05932
5683.19714,0.02332
5685.12561,0.00168
5687.05408,0.04143
5688.98254,0.07754
5690.91101,0.06284
5692.83948,0.04111
5694.76795,0.04866
5696.69642,0.07877
5698.62489,0.09672
5700.55336,0.07987
5702.48183,0.05747
5704.41029,0.04977
5706.33876,0.03025
5708.26723,0.00508
5710.19570,0.01781
5712.12417,0.05873
5714.05264,0.08393
5715.98111,0.07062
5717.90957,0.02342
5719.83804,0.00173
5721.76651,0.04744
5723.69498,0.11265
5725.62345,0.13747
5727.55192,0.11861
5729.48039,0.09299
5731.40886,0.07403
5733.33732,0.04020
5735.26579,0.00153
5737.19426,0.00689
5739.12273,0.04748
5741.05120,0.06904
5742.97967,0.06838
5744.90814,0.06742
5746.83660,0.07035
5748.76507,0.08131
5750.69354,0.09902
5752.62201,0.09859
5754.55048,0.07939
5756.47895,0.06432
5758.40742,0.05239
5760.33588,0.04387
5762.26435,0.04388
5764.19282,0.05544
5766.12129,0.07474
5768.04976,0.07399
5769.97823,0.05560
5771.90670,0.06223
5773.83517,0.09331
5775.76363,0.10263
5777.69210,0.08887
5779.62057,0.08758
5781.54904,0.09477
5783.47751,0.09293
5785.40598,0.08252
5787.33445,0.05082
5789.26291,0.01682
5791.19138,0.03998
5793.11985,0.08223
5795.04832,0.06003
5796.97679,0.02397
5798.90526,0.03458
5800.83373,0.05627
5802.76220,0.07199
5804.69066,0.08527
5806.61913,0.09481
5808.54760,0.09457
5810.47607,0.08773
5812.40454,0.07415
5814.33301,0.03536
5816.26148,0.02219
5818.18994,0.06937
5820.11841,0.09735
5822.04688,0.06597
5823.97535,0.03085
5825.90382,0.03367
5827.83229,0.05329
5829.76076,0.04214
5831.68923,-0.00152
5833.61769,-0.02741
5835.54616,-0.01482
5837.47463,0.00148
5839.40310,0.01062
5841.33157,0.02379
5843.26004,0.03135
5845.18851,0.02738
5847.11697,0.02335
5849.04544,0.02055
5850.97391,0.02908
5852.90238,0.07011
5854.83085,0.11823
5856.75932,0.13857
5858.68779,0.14059
5860.61626,0.14479
5862.54472,0.14070
5864.47319,0.10806
5866.40166,0.08533
5868.33013,0.09055
5870.25860,0.05976
5872.18707,0.00576
5874.11554,-0.00809
5876.04400,-0.01069
5877.97247,-0.03406
5879.90094,-0.04012
5881.82941,-0.01400
5883.75788,0.01500
5885.68635,0.02746
5887.61482,0.05166
5889.54329,0.09734
5891.47175,0.10788
5893.40022,0.06021
5895.32869,0.00810
5897.25716,0.01012
5899.18563,0.05363
5901.11410,0.07122
5903.04257,0.05075
5904.97103,0.04487
5906.89950,0.04883
5908.82797,0.04625
5910.75644,0.07733
5912.68491,0.11780
5914.61338,0.10554
5916.54185,0.07924
5918.47032,0.08278
5920.39878,0.07445
5922.32725,0.06081
5924.25572,0.08740
5926.18419,0.11155
5928.11266,0.09059
5930.04113,0.05369
5931.96960,0.04136
5933.89806,0.06977
5935.82653,0.09649
5937.75500,0.06874
5939.68347,0.01100
5941.61194,-0.02012
5943.54041,-0.01570
5945.46888,-0.00564
5947.39734,0.00155
5949.32581,0.00207
5951.25428,-0.00706
5953.18275,0.01312
5955.11122,0.06379
5957.03969,0.08964
5958.96816,0.06790
5960.89663,0.02633
5962.82509,0.01240
5964.75356,0.01517
5966.68203,0.01633
5968.61050,0.05125
5970.53897,0.09406
5972.46744,0.08325
5974.39591,0.05575
5976.32437,0.06472
5978.25284,0.07312
5980.18131,0.04358
5982.10978,0.02244
5984.03825,0.06531
5985.96672,0.12619
5987.89519,0.12229
5989.82366,0.08367
5991.75212,0.08193
5993.68059,0.09977
5995.60906,0.09641
5997.53753,0.08039
5999.46600,0.06093
6001.39447,0.06104
6003.32294,0.10063
6005.25140,0.12255
6007.17987,0.10054
6009.10834,0.08071
6011.03681,0.06165
6012.96528,0.01356
6014.89375,-0.04228
6016.82222,-0.05899
6018.75069,-0.03626
6020.67915,0.00673
6022.60762,0.05039
6024.53609,0.06197
6026.46456,0.04135
6028.39303,-0.00539
6030.32150,-0.04231
6032.24997,-0.01403
6034.17843,0.03447
6036.10690,0.02324
6038.03537,-0.01388
6039.96384,-0.00367
6041.89231,0.04802
6043.82078,0.10694
6045.74925,0.14989
6047.67772,0.14639
6049.60618,0.09218
6051.53465,0.04887
6053.46312,0.05008
6055.39159,0.05495
6057.32006,0.04306
6059.24853,0.04409
6061.17700,0.04580
6063.10546,0.02488
6065.03393,0.01639
6066.96240,0.03765
6068.89087,0.06459
6070.81934,0.08624
6072.74781,0.08760
6074.67628,0.05508
6076.60475,0.02661
6078.53321,0.04783
6080.46168,0.08760
6082.39015,0.07937
6084.31862,0.04049
6086.24709,0.02196
6088.17556,0.02558
6090.10403,0.06569
6092.03249,0.13179
6093.96096,0.14181
6095.88943,0.08423
6097.81790,0.04670
6099.74637,0.05819
6101.67484,0.06193
6103.60331,0.04772
6105.53177,0.06078
6107.46024,0.10052
6109.38871,0.14127
6111.31718,0.15598
6113.24565,0.12450
6115.17412,0.07687
6117.10259,0.02742
6119.03106,-0.01558
6120.95952,-0.02506
6122.88799,-0.01943
6124.81646,0.00350
6126.74493,0.05950
6128.67340,0.10128
6130.60187,0.08972
6132.53034,0.05829
6134.45880,0.05265
6136.38727,0.08647
6138.31574,0.11028
6140.24421,0.08403
6142.17268,0.05525
6144.10115,0.02447
6146.02962,-0.03169
6147.95809,-0.03355
6149.88655,0.04300
6151.81502,0.09059
6153.74349,0.06326
6155.67196,0.05292
6157.60043,0.09947
6159.52890,0.14373
6161.45737,0.13158
6163.38583,0.09028
6165.31430,0.07462
6167.24277,0.07467
6169.17124,0.06692
6171.09971,0.05788
6173.02818,0.05673
6174.95665,0.06868
6176.88512,0.07465
6178.81358,0.05632
6180.74205,0.02732
6182.67052,0.01212
6184.59899,0.02618
6186.52746,0.02949
6188.45593,-0.00516
6190.38440,-0.01853
6192.31286,0.00761
6194.24133,0.03656
6196.16980,0.06094
6198.09827,0.09768
6200.02674,0.12400
6201.95521,0.09066
6203.88368,0.01209
6205.81215,-0.02095
6207.74061,0.00737
6209.66908,0.03243
6211.59755,0.03257
6213.52602,0.01135
6215.45449,-0.02286
6217.38296,-0.04056
6219.31143,-0.02451
6221.23989,0.01628
6223.16836,0.05191
6225.09683,0.05742
6227.02530,0.04324
6228.95377,0.04710
6230.88224,0.07253
6232.81071,0.09308
6234.73918,0.09652
6236.66764,0.07166
6238.59611,0.04328
6240.52458,0.04416
6242.45305,0.04432
6244.38152,0.02084
6246.30999,0.02762
6248.23846,0.07757
6250.16692,0.11634
6252.09539,0.14109
6254.02386,0.15323
6255.95233,0.13882
6257.88080,0.12279
6259.80927,0.10856
6261.73774,0.08093
6263.66621,0.05993
6265.59467,0.04297
6267.52314,0.00209
6269.45161,-0.00958
6271.38008,0.02975
6273.30855,0.05537
6275.23702,0.04281
6277.16549,0.03883
6279.09395,0.04864
6281.02242,0.02957
6282.95089,-0.01385
6284.87936,-0.03705
6286.80783,-0.00772
6288.73630,0.05165
6290.66477,0.06560
6292.59323,0.02404
6294.52170,-0.02205
6296.45017,-0.02753
6298.37864,0.02698
6300.30711,0.09393
6302.23558,0.12387
6304.16405,0.12053
6306.09252,0.08485
6308.02098,0.02681
6309.94945,0.00337
6311.87792,0.02333
6313.80639,0.05088
6315.73486,0.09695
6317.66333,0.13080
6319.59180,0.11462
6321.52026,0.11190
6323.44873,0.13907
6325.37720,0.13532
6327.30567,0.10840
6329.23414,0.10034
6331.16261,0.11084
6333.09108,0.11341
6335.01955,0.07949
6336.94801,0.02896
6338.87648,0.02274
6340.80495,0.05244
6342.73342,0.07541
6344.66189,0.07497
6346.59036,0.06806
6348.51883,0.10878
6350.44729,0.15960
6352.37576,0.12964
6354.30423,0.03552
6356.23270,-0.03345
6358.16117,-0.01397
6360.08964,0.04680
6362.01811,0.05014
6363.94658,-0.00211
6365.87504,-0.03183
6367.80351,-0.02524
6369.73198,0.00446
6371.66045,0.03516
6373.58892,0.01806
6375.51739,0.01060
6377.44586,0.02209
6379.37432,-0.00088
6381.30279,-0.00428
6383.23126,0.02442
6385.15973,0.02107
6387.08820,0.04887
6389.01667,0.12366
6390.94514,0.15635
6392.87361,0.12319
6394.80207,0.03455
6396.73054,-0.04365
6398.65901,-0.03282
6400.58748,0.03697
6402.51595,0.07018
6404.44442,0.02521
6406.37289,-0.05992
6408.30135,-0.10948
6410.22982,-0.08529
6412.15829,-0.01515
6414.08676,0.03560
6416.01523,0.01943
6417.94370,-0.03718
6419.87217,-0.01758
6421.80064,0.09065
6423.72910,0.12977
6425.65757,0.02955
6427.58604,-0.07165
6429.51451,-0.06654
6431.44298,-0.00921
6433.37145,0.00697
6435.29992,-0.01913
6437.22838,-0.03090
6439.15685,0.01703
6441.08532,0.08304
6443.01379,0.10733
6444.94226,0.11721
6446.87073,0.14497
6448.79920,0.15944
6450.72766,0.14225
6452.65613,0.11050
6454.58460,0.07726
6456.51307,0.03952
6458.44154,0.01330
6460.37001,0.00386
6462.29848,-0.00896
6464.22695,-0.02723
6466.15541,-0.05043
6468.08388,-0.05502
6470.01235,0.01376
6471.94082,0.08218
6473.86929,0.03460
6475.79776,-0.04889
6477.72623,-0.03595
6479.65469,0.05562
6481.58316,0.12655
6483.51163,0.13526
6485.44010,0.10986
6487.36857,0.05737
6489.29704,0.01405
6491.22551,0.03154
6493.15398,0.07376
6495.08244,0.09958
6497.01091,0.07825
6498.93938,-0.00815
6500.86785,-0.06752
6502.79632,-0.02650
6504.72479,0.03897
6506.65326,0.06283
6508.58172,0.03947
6510.51019,-0.02318
6512.43866,-0.06757
6514.36713,-0.04214
6516.29560,0.00955
6518.22407,0.04500
6520.15254,0.05389
6522.08101,0.04554
6524.00947,0.07523
6525.93794,0.13825
6527.86641,0.13847
6529.79488,0.08156
6531.72335,0.03317
6533.65182,0.03571
6535.58029,0.09575
6537.50875,0.14680
6539.43722,0.17387
6541.36569,0.22745
6543.29416,0.24225
6545.22263,0.15452
6547.15110,0.05016
6549.07957,0.00583
6551.00804,0.04813
6552.93650,0.11981
6554.86497,0.12353
6556.79344,0.07068
6558.72191,0.03606
6560.65038,0.02673
6562.57885,0.01859
6564.50732,0.03406
6566.43578,0.07401
6568.36425,0.10328
6570.29272,0.08208
6572.22119,0.01493
6574.14966,-0.01738
6576.07813,-0.00516
6578.00660,-0.00539
6579.93507,-0.02664
6581.86353,-0.03005
6583.79200,-0.01712
6585.72047,-0.02111
6587.64894,-0.02928
6589.57741,-0.06069
6591.50588,-0.14261
6593.43435,-0.21469
6595.36281,-0.19656
6597.29128,-0.12475
6599.21975,-0.07290
6601.14822,-0.03824
6603.07669,0.03024
6605.00516,0.10767
6606.93363,0.14142
6608.86210,0.12670
6610.79056,0.07961
6612.71903,0.03987
6614.64750,0.01685
6616.57597,-0.00384
6618.50444,-0.00016
6620.43291,0.03539
6622.36138,0.12577
6624.28984,0.22402
6626.21831,0.22437
6628.14678,0.14568
6630.07525,0.08157
6632.00372,0.06438
6633.93219,0.06392
6635.86066,0.09837
6637.78912,0.18209
6639.71759,0.22523
6641.64606,0.20357
6643.57453,0.16839
6645.50300,0.10807
6647.43147,0.01047
6649.35994,-0.07193
6651.28841,-0.08637
6653.21687,-0.03168
6655.14534,0.00593
6657.07381,-0.00598
6659.00228,-0.01509
6660.93075,-0.01787
6662.85922,0.01097
6664.78769,0.07472
6666.71615,0.12896
6668.64462,0.16291
6670.57309,0.16916
6672.50156,0.11007
6674.43003,-0.00328
6676.35850,-0.04956
6678.28697,0.05103
6680.21544,0.17020
6682.14390,0.17964
6684.07237,0.11196
6686.00084,0.04908
6687.92931,0.04355
6689.85778,0.05734
6691.78625,0.02127
6693.71472,-0.03065
6695.64318,-0.05552
6697.57165,-0.07738
6699.50012,-0.08004
6701.42859,0.00586
6703.35706,0.08354
6705.28553,0.05636
6707.21400,0.02204
6709.14247,0.04070
6711.07093,0.07172
6712.99940,0.08004
6714.92787,0.06760
6716.85634,0.07630
6718.78481,0.06784
6720.71328,-0.02528
6722.64175,-0.07482
6724.57021,0.00370
6726.49868,0.06977
6728.42715,0.04374
6730.35562,-0.01312
6732.28409,-0.03685
6734.21256,-0.03833
6736.14103,-0.01488
6738.06950,0.02462
6739.99796,0.03872
6741.92643,0.05250
6743.85490,0.08975
6745.78337,0.12287
6747.71184,0.16010
6749.64031,0.16003
6751.56878,0.10120
6753.49724,0.08087
6755.42571,0.09913
6757.35418,0.11373
6759.28265,0.13729
6761.21112,0.16662
6763.13959,0.20740
6765.06806,0.21944
6766.99653,0.16402
6768.92499,0.07257
6770.85346,-0.00876
6772.78193,-0.01710
6774.71040,0.06396
6776.63887,0.12793
6778.56734,0.05312
6780.49581,-0.05857
6782.42427,-0.08211
6784.35274,-0.06869
6786.28121,-0.02659
6788.20968,0.05046
6790.13815,0.04904
6792.06662,-0.02989
6793.99509,-0.01786
6795.92355,0.05374
6797.85202,0.03376
6799.78049,-0.05333
6801.70896,-0.12564
6803.63743,-0.09120
6805.56590,0.04981
6807.49437,0.12260
6809.42284,0.11600
6811.35130,0.10895
6813.27977,0.09768
6815.20824,0.07147
6817.13671,0.02508
6819.06518,-0.00525
6820.99365,0.03524
6822.92212,0.12757
6824.85058,0.14707
6826.77905,0.08432
6828.70752,0.02982
6830.63599,0.01710
6832.56446,0.03362
6834.49293,0.03384
6836.42140,-0.02730
6838.34987,-0.08055
6840.27833,-0.06757
6842.20680,-0.01739
6844.13527,0.04852
6846.06374,0.08901
6847.99221,0.08248
6849.92068,0.11756
6851.84915,0.15633
6853.77761,0.10056
6855.70608,0.03633
6857.63455,0.06551
6859.56302,0.10095
6861.49149,0.10583
6863.41996,0.12750
6865.34843,0.13868
6867.27690,0.10431
6869.20536,0.09340
6871.13383,0.11703
6873.06230,0.11606
6874.99077,0.11418
6876.91924,0.13452
6878.84771,0.15501
6880.77618,0.11111
6882.70464,-0.03977
6884.63311,-0.12119
6886.56158,-0.01620
6888.49005,0.08845
6890.41852,0.02869
6892.34699,-0.08688
6894.27546,-0.13567
6896.20393,-0.13104
6898.13239,-0.07207
6900.06086,0.02064
6901.98933,0.10535
6903.91780,0.14319
6905.84627,0.10819
6907.77474,0.04906
6909.70321,0.03289
6911.63167,0.09344
6913.56014,0.13453
6915.48861,0.06482
6917.41708,-0.03977
6919.34555,-0.07727
6921.27402,-0.05059
6923.20249,-0.02097
6925.13096,0.04252
6927.05942,0.13233
6928.98789,0.16775
6930.91636,0.13751
6932.84483,0.06031
6934.77330,-0.04819
6936.70177,-0.12225
6938.63024,-0.13054
6940.55870,-0.05275
6942.48717,0.01759
6944.41564,-0.01130
6946.34411,-0.01440
6948.27258,0.06879
6950.20105,0.13309
6952.12952,0.14349
6954.05799,0.17511
6955.98645,0.22961
6957.91492,0.20117
6959.84339,0.14491
6961.77186,0.15020
6963.70033,0.20377
6965.62880,0.21458
6967.55727,0.10059
6969.48573,-0.03356
6971.41420,-0.03812
6973.34267,0.04919
6975.27114,0.14825
6977.19961,0.19422
6979.12808,0.14875
6981.05655,0.05999
6982.98501,-0.00253
6984.91348,-0.01645
6986.84195,-0.03311
6988.77042,-0.07443
6990.69889,-0.08690
6992.62736,-0.07973
6994.55583,-0.09012
6996.48430,-0.07702
6998.41276,-0.00219
7000.34123,0.05096
7002.26970,0.06571
7004.19817,0.08683
7006.12664,0.10638
7008.05511,0.16614
7009.98358,0.24028
7011.91204,0.25753
7013.84051,0.21863
7015.76898,0.13373
7017.69745,0.03527
7019.62592,0.00039
7021.55439,0.03739
7023.48286,0.07545
7025.41133,0.09914
7027.33979,0.12647
7029.26826,0.12641
7031.19673,0.09676
7033.12520,0.13281
7035.05367,0.19807
7036.98214,0.12497
7038.91061,0.03192
7040.83907,0.04207
7042.76754,0.01111
7044.69601,-0.16937
7046.62448,-0.30200
7048.55295,-0.24428
7050.48142,-0.11731
7052.40989,0.00403
7054.33836,0.11280
7056.26682,0.09231
7058.19529,-0.04503
7060.12376,-0.09666
7062.05223,-0.04912
7063.98070,0.09142
7065.90917,0.25529
7067.83764,0.26665
7069.76610,0.11400
7071.69457,-0.01414
7073.62304,0.01177
7075.55151,0.08103
7077.47998,0.10391
7079.40845,0.08791
7081.33692,0.04905
7083.26539,0.10214
7085.19385,0.19333
7087.12232,0.11005
7089.05079,-0.07462
7090.97926,-0.15971
7092.90773,-0.15977
7094.83620,-0.05657
7096.76467,0.08164
7098.69313,0.11113
7100.62160,0.10363
7102.55007,0.16565
7104.47854,0.25280
7106.40701,0.23003
7108.33548,0.05236
7110.26395,-0.11849
7112.19242,-0.15593
7114.12088,-0.09048
7116.04935,-0.01205
7117.97782,0.02629
7119.90629,0.02765
7121.83476,0.11401
7123.76323,0.19780
7125.69170,0.08384
7127.62016,-0.09203
7129.54863,-0.10810
7131.47710,-0.03299
7133.40557,0.02573
7135.33404,0.12804
7137.26251,0.25280
7139.19098,0.20940
7141.11944,0.04633
7143.04791,0.07224
7144.97638,0.22091
7146.90485,0.20168
7148.83332,0.13954
7150.76179,0.14563
7152.69026,0.13671
7154.61873,0.07844
7156.54719,0.05719
7158.47566,0.20302
7160.40413,0.45818
7162.33260,0.57871
7164.26107,0.48409
7166.18954,0.32536
7168.11801,0.17887
7170.04647,0.06617
7171.97494,0.10104
7173.90341,0.22968
7175.83188,0.31806
7177.76035,0.26678
7179.68882,0.12192
7181.61729,0.09225
7183.54576,0.20562
7185.47422,0.27628
7187.40269,0.31755
7189.33116,0.34969
7191.25963,0.30294
7193.18810,0.22627
7195.11657,0.17414
7197.04504,0.11822
7198.97350,0.09291
7200.90197,0.12792
7202.83044,0.20910
7204.75891,0.24977
7206.68738,0.17007
7208.61585,0.12808
7210.54432,0.12170
7212.47279,0.05711
7214.40125,0.03066
7216.32972,0.13039
7218.25819,0.21598
7220.18666,0.16734
7222.11513,0.05399
7224.04360,-0.05443
7225.97207,-0.09419
7227.90053,-0.14334
7229.82900,-0.28918
7231.75747,-0.31680
7233.68594,-0.06353
7235.61441,0.18161
7237.54288,0.21309
7239.47135,0.17381
7241.39982,0.28457
7243.32828,0.46173
7245.25675,0.46596
7247.18522,0.32630
7249.11369,0.12600
7251.04216,-0.04049
7252.97063,-0.06407
7254.89910,-0.01693
7256.82756,-0.02697
7258.75603,-0.10010
7260.68450,-0.17182
7262.61297,-0.14655
7264.54144,-0.05024
7266.46991,0.04251
7268.39838,0.10317
7270.32685,0.23339
7272.25531,0.42194
7274.18378,0.40141
7276.11225,0.26179
7278.04072,0.15500
7279.96919,0.06362
7281.89766,-0.01162
7283.82613,-0.03355
7285.75459,0.02437
7287.68306,0.09297
7289.61153,0.03902
7291.54000,-0.05106
7293.46847,0.02526
7295.39694,0.06739
7297.32541,-0.03845
7299.25387,-0.08959
7301.18234,-0.02922
7303.11081,0.11076
7305.03928,0.25122
7306.96775,0.34069
7308.89622,0.40426
7310.82469,0.30316
7312.75316,0.12149
7314.68162,0.14155
7316.61009,0.29206
7318.53856,0.17958
7320.46703,-0.03587
7322.39550,-0.05080
7324.32397,0.11250
7326.25244,0.32121
7328.18090,0.45357
7330.10937,0.37508
7332.03784,0.21982
7333.96631,0.15112
7335.89478,0.14622
7337.82325,0.18515
7339.75172,0.23797
7341.68019,0.18289
7343.60865,0.09457
7345.53712,0.08575
7347.46559,0.19156
7349.39406,0.26757
7351.32253,0.20274
7353.25100,0.09964
7355.17947,0.02177
7357.10793,0.04058
7359.03640,0.21093
7360.96487,0.29119
7362.89334,0.12700
7364.82181,-0.04978
7366.75028,0.06710
7368.67875,0.27553
7370.60722,0.15771
7372.53568,-0.12890
7374.46415,-0.20053
7376.39262,0.02378
7378.32109,0.09945
7380.24956,0.07884
7382.17803,0.13518
7384.10650,0.07433
7386.03496,-0.05326
7387.96343,0.04438
7389.89190,0.18534
7391.82037,0.17157
7393.74884,0.06719
7395.67731,-0.06781
7397.60578,-0.19277
7399.53425,-0.16956
7401.46271,-0.04998
7403.39118,-0.05728
7405.31965,-0.12206
7407.24812,-0.06325
7409.17659,0.07797
7411.10506,0.09456
7413.03353,0.01865
7414.96199,0.04143
7416.89046,0.17124
7418.81893,0.26587
7420.74740,0.28637
7422.67587,0.27554
7424.60434,0.20876
7426.53281,0.12835
7428.46128,0.05819
7430.38974,0.03847
7432.31821,0.12519
7434.24668,0.12768
7436.17515,-0.01805
7438.10362,-0.09028
7440.03209,-0.01356
7441.96056,0.12481
7443.88902,0.20508
7445.81749,0.18201
7447.74596,0.12605
7449.67443,0.06356
7451.60290,0.03709
7453.53137,0.10835
7455.45984,0.14670
7457.38831,0.12725
7459.31677,0.09115
7461.24524,0.02783
7463.17371,0.08072
7465.10218,0.22661
7467.03065,0.18943
7468.95912,0.02392
7470.88759,-0.00315
7472.81605,0.13880
7474.74452,0.21552
7476.67299,0.15372
7478.60146,0.11574
7480.52993,0.18880
7482.45840,0.16604
7484.38687,0.02644
7486.31533,-0.01890
7488.24380,0.05145
7490.17227,0.13125
7492.10074,0.15173
7494.02921,0.12292
7495.95768,0.09133
7497.88615,0.05927
