399.19301,2.95099
401.12148,0.39278
403.04995,-0.02723
404.97842,-0.07566
406.90689,-0.00603
408.83536,0.19152
410.76382,0.34002
412.69229,0.22840
414.62076,0.09223
416.54923,0.09113
418.47770,0.16753
420.40617,0.31623
422.33464,0.44856
424.26311,0.37259
426.19157,0.16771
428.12004,0.06409
430.04851,0.09086
431.97698,0.11764
433.90545,0.06594
435.83392,0.02696
437.76239,0.02334
439.69085,0.01669
441.61932,-0.04304
443.54779,-0.13122
445.47626,-0.17802
447.40473,-0.13190
449.33320,0.00485
451.26167,0.12441
453.19013,0.17945
455.11860,0.18653
457.04707,0.15714
458.97554,0.10327
460.90401,0.04294
462.83248,-0.02395
464.76095,-0.06223
466.68942,-0.03999
468.61788,0.00996
470.54635,0.10164
472.47482,0.24860
474.40329,0.20413
476.33176,0.00230
478.26023,-0.05123
480.18870,-0.01811
482.11716,0.02476
484.04563,0.04805
485.97410,0.09869
487.90257,0.15330
489.83104,0.12092
491.75951,0.06109
493.68798,0.02933
495.61645,-0.00425
497.54491,-0.02499
499.47338,0.02494
501.40185,0.11506
503.33032,0.16307
505.25879,0.17532
507.18726,0.13951
509.11573,0.05196
511.04419,0.02344
512.97266,0.06974
514.90113,0.08687
516.82960,0.05673
518.75807,0.04585
520.68654,0.06368
522.61501,0.07095
524.54348,0.05373
526.47194,0.04578
528.40041,0.05031
530.32888,0.06151
532.25735,0.09186
534.18582,0.13955
536.11429,0.16796
538.04276,0.15747
539.97122,0.13338
541.89969,0.10972
543.82816,0.08564
545.75663,0.05400
547.68510,0.03188
549.61357,0.19372
551.54204,0.87870
553.47051,1.55664
555.39897,1.24456
557.32744,0.44387
559.25591,0.12350
561.18438,0.11326
563.11285,0.10989
565.04132,0.10142
566.96979,0.08599
568.89825,0.07116
570.82672,0.07109
572.75519,0.08428
574.68366,0.07648
576.61213,0.05203
578.54060,0.04153
580.46907,0.04727
582.39754,0.06432
584.32600,0.08539
586.25447,0.08175
588.18294,0.05234
590.11141,0.02571
592.03988,0.00944
593.96835,0.01623
595.89682,0.04782
597.82528,0.07651
599.75375,0.09124
601.68222,0.10366
603.61069,0.10224
605.53916,0.08904
607.46763,0.09952
609.39610,0.12263
611.32456,0.11586
613.25303,0.08779
615.18150,0.07695
617.10997,0.08422
619.03844,0.08547
620.96691,0.06788
622.89538,0.05176
624.82385,0.05850
626.75231,0.06533
628.68078,0.05191
630.60925,0.03734
632.53772,0.03614
634.46619,0.04829
636.39466,0.06391
638.32313,0.07033
640.25159,0.08184
642.18006,0.09664
644.10853,0.10110
646.03700,0.12303
647.96547,0.15272
649.89394,0.13278
651.82241,0.07991
653.75088,0.05022
655.67934,0.05445
657.60781,0.08145
659.53628,0.10673
661.46475,0.11704
663.39322,0.11647
665.32169,0.10672
667.25016,0.10120
669.17862,0.09984
671.10709,0.08874
673.03556,0.08762
674.96403,0.10023
676.89250,0.10443
678.82097,0.09374
680.74944,0.08928
682.67791,0.08778
684.60637,0.07034
686.53484,0.04957
688.46331,0.05262
690.39178,0.08001
692.32025,0.11010
694.24872,0.11328
696.17719,0.08957
698.10565,0.07765
700.03412,0.09310
701.96259,0.10554
703.89106,0.09902
705.81953,0.09286
707.74800,0.14482
709.67647,0.38188
711.60494,0.65007
713.53340,0.55349
715.46187,0.23370
717.39034,0.08490
719.31881,0.08062
721.24728,0.09489
723.17575,0.10225
725.10422,0.09955
727.03268,0.09363
728.96115,0.08364
730.88962,0.08572
732.81809,0.09864
734.74656,0.10240
736.67503,0.10007
738.60350,0.09455
740.53197,0.08898
742.46043,0.09792
744.38890,0.11112
746.31737,0.11023
748.24584,0.10338
750.17431,0.10252
752.10278,0.10483
754.03125,0.10189
755.95971,0.09823
757.88818,0.09599
759.81665,0.09061
761.74512,0.09072
763.67359,0.09844
765.60206,0.09988
767.53053,0.09054
769.45900,0.07998
771.38746,0.07831
773.31593,0.08977
775.24440,0.10711
777.17287,0.11444
779.10134,0.11405
781.02981,0.12442
782.95828,0.13666
784.88674,0.12996
786.81521,0.11017
788.74368,0.09801
790.67215,0.09469
792.60062,0.08316
794.52909,0.07592
796.45756,0.09263
798.38602,0.11078
800.31449,0.10326
802.24296,0.08672
804.17143,0.09540
806.09990,0.11667
808.02837,0.12493
809.95684,0.12015
811.88531,0.10649
813.81377,0.09537
815.74224,0.09984
817.67071,0.11654
819.59918,0.12766
821.52765,0.12009
823.45612,0.10542
825.38459,0.10379
827.31305,0.11158
829.24152,0.10830
831.16999,0.09531
833.09846,0.09369
835.02693,0.10927
836.95540,0.12859
838.88387,0.13796
840.81234,0.13004
842.74080,0.11333
844.66927,0.10563
846.59774,0.10633
848.52621,0.10450
850.45468,0.10046
852.38315,0.09913
854.31162,0.10290
856.24008,0.10752
858.16855,0.10879
860.09702,0.11412
862.02549,0.12067
863.95396,0.11422
865.88243,0.10787
867.81090,0.12384
869.73937,0.14852
871.66783,0.15034
873.59630,0.12595
875.52477,0.10376
877.45324,0.10484
879.38171,0.11470
881.31018,0.11202
883.23865,0.10737
885.16711,0.11211
887.09558,0.11914
889.02405,0.12844
890.95252,0.13363
892.88099,0.12719
894.80946,0.11882
896.73793,0.11583
898.66640,0.11683
900.59486,0.11785
902.52333,0.11546
904.45180,0.11451
906.38027,0.11626
908.30874,0.11209
910.23721,0.10916
912.16568,0.11835
914.09414,0.12350
916.02261,0.11537
917.95108,0.11174
919.87955,0.11324
921.80802,0.10760
923.73649,0.10190
925.66496,0.10068
927.59343,0.10157
929.52189,0.10395
931.45036,0.10265
933.37883,0.09879
935.30730,0.09856
937.23577,0.10570
939.16424,0.11674
941.09271,0.11867
943.02117,0.11141
944.94964,0.10797
946.87811,0.10587
948.80658,0.10206
950.73505,0.10932
952.66352,0.12426
954.59199,0.12917
956.52045,0.12589
958.44892,0.12240
960.37739,0.11802
962.30586,0.11579
964.23433,0.11794
966.16280,0.11912
968.09127,0.11402
970.01974,0.10937
971.94820,0.11491
973.87667,0.12340
975.80514,0.12361
977.73361,0.11980
979.66208,0.11987
981.59055,0.12614
983.51902,0.13367
985.44748,0.13085
987.37595,0.11987
989.30442,0.11280
991.23289,0.11451
993.16136,0.12318
995.08983,0.13035
997.01830,0.12837
998.94677,0.11963
1000.87523,0.11404
1002.80370,0.11290
1004.73217,0.11233
1006.66064,0.11514
1008.58911,0.12016
1010.51758,0.12350
1012.44605,0.12807
1014.37451,0.13491
1016.30298,0.13761
1018.23145,0.13781
1020.15992,0.13500
1022.08839,0.12419
1024.01686,0.12409
1025.94533,0.14762
1027.87380,0.16470
1029.80226,0.14773
1031.73073,0.12397
1033.65920,0.12220
1035.58767,0.13193
1037.51614,0.14251
1039.44461,0.15178
1041.37308,0.15600
1043.30154,0.14840
1045.23001,0.13261
1047.15848,0.12555
1049.08695,0.12693
1051.01542,0.12918
1052.94389,0.13411
1054.87236,0.13485
1056.80083,0.13008
1058.72929,0.12969
1060.65776,0.13172
1062.58623,0.13314
1064.51470,0.13571
1066.44317,0.13843
1068.37164,0.14127
1070.30011,0.14003
1072.22857,0.13449
1074.15704,0.13222
1076.08551,0.13337
1078.01398,0.13581
1079.94245,0.13850
1081.87092,0.13816
1083.79939,0.13641
1085.72786,0.13522
1087.65632,0.13260
1089.58479,0.12834
1091.51326,0.12598
1093.44173,0.12925
1095.37020,0.13725
1097.29867,0.14236
1099.22714,0.13699
1101.15560,0.12826
1103.08407,0.12577
1105.01254,0.12434
1106.94101,0.12633
1108.86948,0.13970
1110.79795,0.14996
1112.72642,0.14660
1114.65489,0.14533
1116.58335,0.15099
1118.51182,0.14844
1120.44029,0.13449
1122.36876,0.12344
1124.29723,0.12487
1126.22570,0.13259
1128.15417,0.13978
1130.08263,0.14509
1132.01110,0.14201
1133.93957,0.12841
1135.86804,0.11817
1137.79651,0.12379
1139.72498,0.13353
1141.65345,0.13221
1143.58191,0.12956
1145.51038,0.13570
1147.43885,0.14295
1149.36732,0.14340
1151.29579,0.13930
1153.22426,0.13734
1155.15273,0.13802
1157.08120,0.14016
1159.00966,0.14522
1160.93813,0.14971
1162.86660,0.15016
1164.79507,0.14952
1166.72354,0.14747
1168.65201,0.14246
1170.58048,0.14074
1172.50894,0.14327
1174.43741,0.14142
1176.36588,0.13627
1178.29435,0.13575
1180.22282,0.13703
1182.15129,0.13568
1184.07976,0.13220
1186.00823,0.12980
1187.93669,0.13201
1189.86516,0.13245
1191.79363,0.12835
1193.72210,0.12823
1195.65057,0.13625
1197.57904,0.14597
1199.50751,0.14685
1201.43597,0.13997
1203.36444,0.13746
1205.29291,0.14267
1207.22138,0.14568
1209.14985,0.14364
1211.07832,0.14316
1213.00679,0.14544
1214.93526,0.14731
1216.86372,0.14613
1218.79219,0.14468
1220.72066,0.14628
1222.64913,0.14930
1224.57760,0.15232
1226.50607,0.15307
1228.43454,0.14856
1230.36300,0.14154
1232.29147,0.13926
1234.21994,0.14107
1236.14841,0.14038
1238.07688,0.13758
1240.00535,0.13553
1241.93382,0.13559
1243.86229,0.14067
1245.79075,0.14852
1247.71922,0.15110
1249.64769,0.14794
1251.57616,0.14455
1253.50463,0.14241
1255.43310,0.14230
1257.36157,0.14361
1259.29003,0.14358
1261.21850,0.14434
1263.14697,0.14719
1265.07544,0.14805
1267.00391,0.14643
1268.93238,0.14497
1270.86085,0.14408
1272.78932,0.14238
1274.71778,0.14087
1276.64625,0.14303
1278.57472,0.14722
1280.50319,0.14963
1282.43166,0.15149
1284.36013,0.15412
1286.28860,0.15471
1288.21706,0.15168
1290.14553,0.14869
1292.07400,0.14740
1294.00247,0.14478
1295.93094,0.14200
1297.85941,0.14288
1299.78788,0.14629
1301.71634,0.14876
1303.64481,0.14866
1305.57328,0.14882
1307.50175,0.15352
1309.43022,0.15940
1311.35869,0.16180
1313.28716,0.16266
1315.21563,0.16305
1317.14409,0.16297
1319.07256,0.16129
1321.00103,0.15569
1322.92950,0.15129
1324.85797,0.15309
1326.78644,0.15682
1328.71491,0.15833
1330.64337,0.15840
1332.57184,0.15774
1334.50031,0.15791
1336.42878,0.16020
1338.35725,0.16241
1340.28572,0.16446
1342.21419,0.18164
1344.14266,0.21472
1346.07112,0.22229
1347.99959,0.19153
1349.92806,0.16870
1351.85653,0.16667
1353.78500,0.16428
1355.71347,0.15976
1357.64194,0.15626
1359.57040,0.15461
1361.49887,0.15789
1363.42734,0.16423
1365.35581,0.16645
1367.28428,0.16460
1369.21275,0.16374
1371.14122,0.16602
1373.06969,0.16826
1374.99815,0.16604
1376.92662,0.16167
1378.85509,0.15957
1380.78356,0.16042
1382.71203,0.16499
1384.64050,0.17318
1386.56897,0.17745
1388.49743,0.17250
1390.42590,0.17188
1392.35437,0.17926
1394.28284,0.18322
1396.21131,0.18127
1398.13978,0.17711
1400.06825,0.16829
1401.99672,0.16408
1403.92518,0.16896
1405.85365,0.17282
1407.78212,0.17176
1409.71059,0.16920
1411.63906,0.16407
1413.56753,0.16047
1415.49600,0.16523
1417.42446,0.17635
1419.35293,0.18067
1421.28140,0.17817
1423.20987,0.18112
1425.13834,0.18215
1427.06681,0.17768
1428.99528,0.17500
1430.92375,0.17284
1432.85221,0.17274
1434.78068,0.18000
1436.70915,0.18403
1438.63762,0.17468
1440.56609,0.16666
1442.49456,0.16443
1444.42303,0.16674
1446.35149,0.17361
1448.27996,0.17998
1450.20843,0.18307
1452.13690,0.18804
1454.06537,0.20173
1455.99384,0.22733
1457.92231,0.23306
1459.85077,0.20571
1461.77924,0.18762
1463.70771,0.18343
1465.63618,0.18221
1467.56465,0.17859
1469.49312,0.18119
1471.42159,0.19185
1473.35006,0.20119
1475.27852,0.19975
1477.20699,0.19154
1479.13546,0.18203
1481.06393,0.17594
1482.99240,0.17504
1484.92087,0.18141
1486.84934,0.19814
1488.77780,0.21455
1490.70627,0.20861
1492.63474,0.19556
1494.56321,0.19485
1496.49168,0.20062
1498.42015,0.20115
1500.34862,0.21003
1502.27709,0.23279
1504.20555,0.25775
1506.13402,0.27204
1508.06249,0.24952
1509.99096,0.21723
1511.91943,0.19399
1513.84790,0.18594
1515.77637,0.19715
1517.70483,0.21379
1519.63330,0.22780
1521.56177,0.23679
1523.49024,0.22484
1525.41871,0.21180
1527.34718,0.20384
1529.27565,0.19323
1531.20412,0.18946
1533.13258,0.19505
1535.06105,0.19695
1536.98952,0.20190
1538.91799,0.22798
1540.84646,0.26136
1542.77493,0.25257
1544.70340,0.22212
1546.63186,0.19668
1548.56033,0.18912
1550.48880,0.19088
1552.41727,0.19267
1554.34574,0.20035
1556.27421,0.22011
1558.20268,0.24548
1560.13115,0.22640
1562.05961,0.20061
1563.98808,0.19613
1565.91655,0.20156
1567.84502,0.20978
1569.77349,0.20907
1571.70196,0.19716
1573.63043,0.19517
1575.55889,0.20134
1577.48736,0.19384
1579.41583,0.18271
1581.34430,0.17997
1583.27277,0.17993
1585.20124,0.17944
1587.12971,0.17941
1589.05818,0.17974
1590.98664,0.17941
1592.91511,0.17981
1594.84358,0.18213
1596.77205,0.18252
1598.70052,0.18007
1600.62899,0.17919
1602.55746,0.17901
1604.48592,0.17651
1606.41439,0.17549
1608.34286,0.17766
1610.27133,0.17968
1612.19980,0.18320
1614.12827,0.19170
1616.05674,0.20318
1617.98521,0.20234
1619.91367,0.19224
1621.84214,0.18923
1623.77061,0.19358
1625.69908,0.19948
1627.62755,0.20410
1629.55602,0.20134
1631.48449,0.19623
1633.41295,0.20119
1635.34142,0.21587
1637.26989,0.21496
1639.19836,0.20254
1641.12683,0.19345
1643.05530,0.19033
1644.98377,0.20122
1646.91223,0.22548
1648.84070,0.23403
1650.76917,0.23493
1652.69764,0.23753
1654.62611,0.21539
1656.55458,0.20094
1658.48305,0.21238
1660.41152,0.23634
1662.33998,0.23795
1664.26845,0.21140
1666.19692,0.20053
1668.12539,0.21092
1670.05386,0.21830
1671.98233,0.20859
1673.91080,0.20162
1675.83926,0.20301
1677.76773,0.20378
1679.69620,0.20575
1681.62467,0.21552
1683.55314,0.23233
1685.48161,0.22691
1687.41008,0.20718
1689.33855,0.19671
1691.26701,0.19288
1693.19548,0.19552
1695.12395,0.20922
1697.05242,0.22787
1698.98089,0.23653
1700.90936,0.22909
1702.83783,0.21628
1704.76629,0.20999
1706.69476,0.20447
1708.62323,0.19598
1710.55170,0.19124
1712.48017,0.19702
1714.40864,0.21420
1716.33711,0.22906
1718.26558,0.21490
1720.19404,0.19200
1722.12251,0.18276
1724.05098,0.18064
1725.97945,0.17929
1727.90792,0.18235
1729.83639,0.19303
1731.76486,0.20799
1733.69332,0.21825
1735.62179,0.21187
1737.55026,0.20479
1739.47873,0.20340
1741.40720,0.20216
1743.33567,0.20055
1745.26414,0.20183
1747.19261,0.20768
1749.12107,0.21339
1751.04954,0.21081
1752.97801,0.20220
1754.90648,0.19436
1756.83495,0.18811
1758.76342,0.18514
1760.69189,0.18751
1762.62035,0.18918
1764.54882,0.18766
1766.47729,0.18824
1768.40576,0.19160
1770.33423,0.19794
1772.26270,0.20322
1774.19117,0.19895
1776.11964,0.19104
1778.04810,0.18798
1779.97657,0.19128
1781.90504,0.19436
1783.83351,0.19292
1785.76198,0.18783
1787.69045,0.18305
1789.61892,0.18568
1791.54738,0.19556
1793.47585,0.20156
1795.40432,0.20253
1797.33279,0.20420
1799.26126,0.20305
1801.18973,0.19604
1803.11820,0.18861
1805.04666,0.18429
1806.97513,0.18220
1808.90360,0.18446
1810.83207,0.18855
1812.76054,0.18739
1814.68901,0.18662
1816.61748,0.19092
1818.54595,0.19254
1820.47441,0.18861
1822.40288,0.18676
1824.33135,0.18922
1826.25982,0.19207
1828.18829,0.19683
1830.11676,0.19919
1832.04523,0.19227
1833.97369,0.18628
1835.90216,0.18630
1837.83063,0.18665
1839.75910,0.18539
1841.68757,0.18871
1843.61604,0.19689
1845.54451,0.19867
1847.47298,0.19358
1849.40144,0.18867
1851.32991,0.18582
1853.25838,0.18462
1855.18685,0.18313
1857.11532,0.18123
1859.04379,0.17933
1860.97226,0.17766
1862.90072,0.17889
1864.82919,0.18673
1866.75766,0.20028
1868.68613,0.20816
1870.61460,0.20088
1872.54307,0.19053
1874.47154,0.18594
1876.40001,0.18477
1878.32847,0.18357
1880.25694,0.18252
1882.18541,0.18305
1884.11388,0.18449
1886.04235,0.18645
1887.97082,0.19012
1889.89929,0.19198
1891.82775,0.18991
1893.75622,0.18868
1895.68469,0.18836
1897.61316,0.18606
1899.54163,0.18259
1901.47010,0.18156
1903.39857,0.18610
1905.32704,0.19225
1907.25550,0.19298
1909.18397,0.18981
1911.11244,0.18849
1913.04091,0.18781
1914.96938,0.18655
1916.89785,0.18679
1918.82632,0.18848
1920.75478,0.19226
1922.68325,0.19519
1924.61172,0.19118
1926.54019,0.18468
1928.46866,0.18182
1930.39713,0.18204
1932.32560,0.18313
1934.25407,0.18193
1936.18253,0.17905
1938.11100,0.18096
1940.03947,0.18876
1941.96794,0.19429
1943.89641,0.19192
1945.82488,0.18674
1947.75335,0.18438
1949.68181,0.18628
1951.61028,0.19029
1953.53875,0.19181
1955.46722,0.18984
1957.39569,0.18683
1959.32416,0.18591
1961.25263,0.18857
1963.18110,0.19128
1965.10956,0.19011
1967.03803,0.18611
1968.96650,0.18368
1970.89497,0.18384
1972.82344,0.18422
1974.75191,0.18506
1976.68038,0.18740
1978.60884,0.18836
1980.53731,0.18658
1982.46578,0.18622
1984.39425,0.18829
1986.32272,0.18888
1988.25119,0.18799
1990.17966,0.18936
1992.10812,0.19171
1994.03659,0.18991
1995.96506,0.18574
1997.89353,0.18332
1999.82200,0.18245
2001.75047,0.18208
2003.67894,0.18275
2005.60741,0.18493
2007.53587,0.18735
2009.46434,0.18841
2011.39281,0.18784
2013.32128,0.18683
2015.24975,0.18607
2017.17822,0.18427
2019.10669,0.18196
2021.03515,0.18154
2022.96362,0.18410
2024.89209,0.18915
2026.82056,0.19204
2028.74903,0.18967
2030.67750,0.18686
2032.60597,0.18669
2034.53444,0.18647
2036.46290,0.18575
2038.39137,0.18661
2040.31984,0.18880
2042.24831,0.19126
2044.17678,0.19212
2046.10525,0.18896
2048.03372,0.18517
2049.96218,0.18497
2051.89065,0.18670
2053.81912,0.18833
2055.74759,0.18984
2057.67606,0.19096
2059.60453,0.19033
2061.53300,0.18850
2063.46147,0.18914
2065.38993,0.19094
2067.31840,0.18915
2069.24687,0.18670
2071.17534,0.18760
2073.10381,0.18897
2075.03228,0.18857
2076.96075,0.18846
2078.88921,0.18916
2080.81768,0.18839
2082.74615,0.18688
2084.67462,0.18648
2086.60309,0.18622
2088.53156,0.18575
2090.46003,0.18548
2092.38850,0.18537
2094.31696,0.18618
2096.24543,0.18813
2098.17390,0.19019
2100.10237,0.19123
2102.03084,0.19060
2103.95931,0.18825
2105.88778,0.18522
2107.81624,0.18346
2109.74471,0.18395
2111.67318,0.18581
2113.60165,0.18904
2115.53012,0.19226
2117.45859,0.19365
2119.38706,0.19503
2121.31553,0.19622
2123.24399,0.19491
2125.17246,0.19225
2127.10093,0.19015
2129.02940,0.18862
2130.95787,0.18669
2132.88634,0.18264
2134.81481,0.17798
2136.74327,0.17814
2138.67174,0.18437
2140.60021,0.19150
2142.52868,0.19463
2144.45715,0.19437
2146.38562,0.19331
2148.31409,0.19188
2150.24255,0.19017
2152.17102,0.18939
2154.09949,0.18870
2156.02796,0.18660
2157.95643,0.18623
2159.88490,0.18807
2161.81337,0.18839
2163.74184,0.18805
2165.67030,0.18880
2167.59877,0.19009
2169.52724,0.19114
2171.45571,0.19067
2173.38418,0.18782
2175.31265,0.18500
2177.24112,0.18588
2179.16958,0.18947
2181.09805,0.19147
2183.02652,0.19201
2184.95499,0.19247
2186.88346,0.19038
2188.81193,0.18814
2190.74040,0.19030
2192.66887,0.19349
2194.59733,0.19403
2196.52580,0.19424
2198.45427,0.19478
2200.38274,0.19291
2202.31121,0.19051
2204.23968,0.19065
2206.16815,0.19143
2208.09661,0.19216
2210.02508,0.19435
2211.95355,0.19582
2213.88202,0.19402
2215.81049,0.19073
2217.73896,0.18906
2219.66743,0.19123
2221.59590,0.19362
2223.52436,0.19122
2225.45283,0.18872
2227.38130,0.18981
2229.30977,0.19099
2231.23824,0.19170
2233.16671,0.19266
2235.09518,0.19409
2237.02364,0.19609
2238.95211,0.19583
2240.88058,0.19236
2242.80905,0.18850
2244.73752,0.18816
2246.66599,0.19124
2248.59446,0.19326
2250.52293,0.19301
2252.45139,0.19175
2254.37986,0.19063
2256.30833,0.19073
2258.23680,0.19212
2260.16527,0.19348
2262.09374,0.19373
2264.02221,0.19444
2265.95067,0.19384
2267.87914,0.18844
2269.80761,0.18416
2271.73608,0.18666
2273.66455,0.19030
2275.59302,0.19134
2277.52149,0.19266
2279.44996,0.19309
2281.37842,0.19075
2283.30689,0.19042
2285.23536,0.19480
2287.16383,0.19888
2289.09230,0.19676
2291.02077,0.18745
2292.94924,0.17824
2294.87770,0.17757
2296.80617,0.18516
2298.73464,0.19383
2300.66311,0.19713
2302.59158,0.19803
2304.52005,0.20034
2306.44852,0.20186
2308.37699,0.20463
2310.30545,0.21075
2312.23392,0.21538
2314.16239,0.21725
2316.09086,0.21982
2318.01933,0.22297
2319.94780,0.22643
2321.87627,0.22858
2323.80473,0.22941
2325.73320,0.23550
2327.66167,0.24227
2329.59014,0.24044
2331.51861,0.23421
2333.44708,0.22968
2335.37555,0.22675
2337.30401,0.22698
2339.23248,0.23186
2341.16095,0.23935
2343.08942,0.23985
2345.01789,0.22322
2346.94636,0.20523
2348.87483,0.20314
2350.80330,0.21270
2352.73176,0.22013
2354.66023,0.22292
2356.58870,0.23823
2358.51717,0.25799
2360.44564,0.26880
2362.37411,0.26896
2364.30258,0.25316
2366.23104,0.24450
2368.15951,0.25420
2370.08798,0.25251
2372.01645,0.23043
2373.94492,0.21006
2375.87339,0.20349
2377.80186,0.20367
2379.73033,0.20369
2381.65879,0.20305
2383.58726,0.20043
2385.51573,0.19570
2387.44420,0.19329
2389.37267,0.19565
2391.30114,0.19873
2393.22961,0.19796
2395.15807,0.19493
2397.08654,0.19352
2399.01501,0.19308
2400.94348,0.19315
2402.87195,0.19472
2404.80042,0.19396
2406.72889,0.19084
2408.65736,0.19029
2410.58582,0.19087
2412.51429,0.18950
2414.44276,0.18805
2416.37123,0.18955
2418.29970,0.19175
2420.22817,0.19005
2422.15664,0.18714
2424.08510,0.18841
2426.01357,0.19122
2427.94204,0.18988
2429.87051,0.18553
2431.79898,0.18330
2433.72745,0.18555
2435.65592,0.19041
2437.58439,0.19330
2439.51285,0.19178
2441.44132,0.18954
2443.36979,0.19013
2445.29826,0.19168
2447.22673,0.19071
2449.15520,0.19097
2451.08367,0.19957
2453.01213,0.20576
2454.94060,0.19845
2456.86907,0.19103
2458.79754,0.19332
2460.72601,0.19829
2462.65448,0.19942
2464.58295,0.19707
2466.51142,0.19567
2468.43988,0.19600
2470.36835,0.19577
2472.29682,0.19477
2474.22529,0.19364
2476.15376,0.19411
2478.08223,0.19629
2480.01070,0.19715
2481.93916,0.19547
2483.86763,0.19218
2485.79610,0.18942
2487.72457,0.18920
2489.65304,0.19006
2491.58151,0.19014
2493.50998,0.18989
2495.43844,0.19046
2497.36691,0.19259
2499.29538,0.19310
2501.22385,0.18942
2503.15232,0.18711
2505.08079,0.19015
2507.00926,0.19452
2508.93773,0.19720
2510.86619,0.19845
2512.79466,0.19757
2514.72313,0.19514
2516.65160,0.19393
2518.58007,0.19478
2520.50854,0.19621
2522.43701,0.19602
2524.36547,0.19297
2526.29394,0.19001
2528.22241,0.19184
2530.15088,0.19743
2532.07935,0.20114
2534.00782,0.20036
2535.93629,0.19687
2537.86476,0.19344
2539.79322,0.19110
2541.72169,0.19028
2543.65016,0.19129
2545.57863,0.19292
2547.50710,0.19466
2549.43557,0.19472
2551.36404,0.19169
2553.29250,0.19122
2555.22097,0.19464
2557.14944,0.19509
2559.07791,0.19335
2561.00638,0.19439
2562.93485,0.19763
2564.86332,0.19994
2566.79179,0.19893
2568.72025,0.19574
2570.64872,0.19364
2572.57719,0.19398
2574.50566,0.19494
2576.43413,0.19570
2578.36260,0.19753
2580.29107,0.19985
2582.21953,0.20095
2584.14800,0.19966
2586.07647,0.19823
2588.00494,0.19855
2589.93341,0.19806
2591.86188,0.19750
2593.79035,0.19881
2595.71882,0.20015
2597.64728,0.20148
2599.57575,0.20191
2601.50422,0.19947
2603.43269,0.19725
2605.36116,0.19718
2607.28963,0.20056
2609.21810,0.20916
2611.14656,0.21472
2613.07503,0.20870
2615.00350,0.19934
2616.93197,0.19727
2618.86044,0.19887
2620.78891,0.20004
2622.71738,0.20113
2624.64585,0.19924
2626.57431,0.19622
2628.50278,0.19628
2630.43125,0.19721
2632.35972,0.19726
2634.28819,0.19766
2636.21666,0.19711
2638.14513,0.19552
2640.07359,0.19720
2642.00206,0.20196
2643.93053,0.20359
2645.85900,0.19931
2647.78747,0.19519
2649.71594,0.19742
2651.64441,0.20102
2653.57288,0.20021
2655.50134,0.19871
2657.42981,0.19855
2659.35828,0.19744
2661.28675,0.19789
2663.21522,0.20137
2665.14369,0.20362
2667.07216,0.20426
2669.00062,0.20631
2670.92909,0.20708
2672.85756,0.20249
2674.78603,0.19591
2676.71450,0.19186
2678.64297,0.19102
2680.57144,0.19371
2682.49990,0.19874
2684.42837,0.20204
2686.35684,0.20101
2688.28531,0.19870
2690.21378,0.19888
2692.14225,0.20197
2694.07072,0.20622
2695.99919,0.20794
2697.92765,0.20712
2699.85612,0.20811
2701.78459,0.20889
2703.71306,0.20282
2705.64153,0.19500
2707.57000,0.19509
2709.49847,0.19974
2711.42693,0.20281
2713.35540,0.20405
2715.28387,0.20471
2717.21234,0.20702
2719.14081,0.20961
2721.06928,0.20821
2722.99775,0.20519
2724.92622,0.20550
2726.85468,0.20745
2728.78315,0.20775
2730.71162,0.20649
2732.64009,0.20568
2734.56856,0.20526
2736.49703,0.20403
2738.42550,0.20367
2740.35396,0.20247
2742.28243,0.19823
2744.21090,0.19594
2746.13937,0.19849
2748.06784,0.20294
2749.99631,0.20641
2751.92478,0.20752
2753.85325,0.20589
2755.78171,0.20356
2757.71018,0.20328
2759.63865,0.20372
2761.56712,0.20278
2763.49559,0.20245
2765.42406,0.20598
2767.35253,0.21213
2769.28099,0.21703
2771.20946,0.21846
2773.13793,0.21538
2775.06640,0.21138
2776.99487,0.20986
2778.92334,0.20863
2780.85181,0.20712
2782.78028,0.20604
2784.70874,0.20452
2786.63721,0.20417
2788.56568,0.20768
2790.49415,0.21370
2792.42262,0.21709
2794.35109,0.21714
2796.27956,0.21797
2798.20802,0.21700
2800.13649,0.21215
2802.06496,0.21011
2803.99343,0.21181
2805.92190,0.21309
2807.85037,0.21383
2809.77884,0.21357
2811.70731,0.21191
2813.63577,0.21144
2815.56424,0.21293
2817.49271,0.21273
2819.42118,0.21081
2821.34965,0.20956
2823.27812,0.20926
2825.20659,0.21066
2827.13505,0.21155
2829.06352,0.21047
2830.99199,0.21098
2832.92046,0.21143
2834.84893,0.20789
2836.77740,0.20645
2838.70587,0.21088
2840.63433,0.21419
2842.56280,0.21370
2844.49127,0.21205
2846.41974,0.21038
2848.34821,0.20974
2850.27668,0.21055
2852.20515,0.21221
2854.13362,0.21285
2856.06208,0.21135
2857.99055,0.21098
2859.91902,0.21379
2861.84749,0.21521
2863.77596,0.21383
2865.70443,0.21324
2867.63290,0.21273
2869.56136,0.21134
2871.48983,0.21078
2873.41830,0.21110
2875.34677,0.21161
2877.27524,0.21165
2879.20371,0.21084
2881.13218,0.20952
2883.06065,0.20651
2884.98911,0.20277
2886.91758,0.20308
2888.84605,0.20521
2890.77452,0.20452
2892.70299,0.20663
2894.63146,0.21167
2896.55993,0.21184
2898.48839,0.20971
2900.41686,0.20882
2902.34533,0.20846
2904.27380,0.20897
2906.20227,0.20778
2908.13074,0.20476
2910.05921,0.20588
2911.98768,0.21202
2913.91614,0.21541
2915.84461,0.21251
2917.77308,0.20878
2919.70155,0.20879
2921.63002,0.20947
2923.55849,0.20890
2925.48696,0.21238
2927.41542,0.21557
2929.34389,0.21059
2931.27236,0.20714
2933.20083,0.21120
2935.12930,0.21283
2937.05777,0.21027
2938.98624,0.20992
2940.91471,0.21266
2942.84317,0.21600
2944.77164,0.21792
2946.70011,0.21722
2948.62858,0.21408
2950.55705,0.21233
2952.48552,0.21448
2954.41399,0.21635
2956.34245,0.21534
2958.27092,0.21468
2960.19939,0.21657
2962.12786,0.21949
2964.05633,0.22028
2965.98480,0.21748
2967.91327,0.21218
2969.84174,0.20743
2971.77020,0.20745
2973.69867,0.21071
2975.62714,0.21200
2977.55561,0.21170
2979.48408,0.21395
2981.41255,0.21855
2983.34102,0.22002
2985.26948,0.21828
2987.19795,0.21915
2989.12642,0.22264
2991.05489,0.22382
2992.98336,0.22153
2994.91183,0.21864
2996.84030,0.21754
2998.76877,0.21907
3000.69723,0.22234
3002.62570,0.22698
3004.55417,0.22969
3006.48264,0.22659
3008.41111,0.22221
3010.33958,0.22028
3012.26805,0.21793
3014.19651,0.21480
3016.12498,0.21537
3018.05345,0.21805
3019.98192,0.21692
3021.91039,0.21549
3023.83886,0.21721
3025.76733,0.21719
3027.69579,0.21628
3029.62426,0.22027
3031.55273,0.22507
3033.48120,0.22414
3035.40967,0.22099
3037.33814,0.22189
3039.26661,0.22592
3041.19508,0.22737
3043.12354,0.22438
3045.05201,0.21883
3046.98048,0.21278
3048.90895,0.20847
3050.83742,0.21053
3052.76589,0.21895
3054.69436,0.22545
3056.62282,0.22700
3058.55129,0.22543
3060.47976,0.22386
3062.40823,0.22582
3064.33670,0.22817
3066.26517,0.22825
3068.19364,0.22496
3070.12211,0.21553
3072.05057,0.20548
3073.97904,0.20448
3075.90751,0.21178
3077.83598,0.21920
3079.76445,0.22068
3081.69292,0.21709
3083.62139,0.21510
3085.54985,0.21587
3087.47832,0.21633
3089.40679,0.21890
3091.33526,0.22367
3093.26373,0.22338
3095.19220,0.21836
3097.12067,0.21807
3099.04914,0.22278
3100.97760,0.22455
3102.90607,0.22118
3104.83454,0.21532
3106.76301,0.21128
3108.69148,0.21329
3110.61995,0.21943
3112.54842,0.22335
3114.47688,0.22083
3116.40535,0.21624
3118.33382,0.21802
3120.26229,0.22418
3122.19076,0.22777
3124.11923,0.22765
3126.04770,0.22601
3127.97617,0.22229
3129.90463,0.21310
3131.83310,0.20440
3133.76157,0.20744
3135.69004,0.21917
3137.61851,0.22884
3139.54698,0.23350
3141.47545,0.23263
3143.40391,0.22310
3145.33238,0.21230
3147.26085,0.21383
3149.18932,0.22268
3151.11779,0.22508
3153.04626,0.21950
3154.97473,0.21315
3156.90320,0.21307
3158.83166,0.21577
3160.76013,0.21535
3162.68860,0.21597
3164.61707,0.22049
3166.54554,0.22331
3168.47401,0.22163
3170.40248,0.22003
3172.33094,0.22161
3174.25941,0.22478
3176.18788,0.22516
3178.11635,0.22209
3180.04482,0.21986
3181.97329,0.21990
3183.90176,0.22204
3185.83022,0.22380
3187.75869,0.22262
3189.68716,0.21997
3191.61563,0.21749
3193.54410,0.21798
3195.47257,0.22301
3197.40104,0.22855
3199.32951,0.22913
3201.25797,0.22725
3203.18644,0.22774
3205.11491,0.22723
3207.04338,0.22524
3208.97185,0.22446
3210.90032,0.22164
3212.82879,0.21758
3214.75725,0.21607
3216.68572,0.21597
3218.61419,0.21456
3220.54266,0.21089
3222.47113,0.20758
3224.39960,0.20761
3226.32807,0.21161
3228.25654,0.21658
3230.18500,0.21970
3232.11347,0.22426
3234.04194,0.22947
3235.97041,0.22968
3237.89888,0.22610
3239.82735,0.21991
3241.75582,0.21284
3243.68428,0.21088
3245.61275,0.21064
3247.54122,0.21097
3249.46969,0.21607
3251.39816,0.21986
3253.32663,0.22194
3255.25510,0.22515
3257.18357,0.22422
3259.11203,0.21895
3261.04050,0.21506
3262.96897,0.21649
3264.89744,0.21936
3266.82591,0.21981
3268.75438,0.22042
3270.68285,0.22202
3272.61131,0.22205
3274.53978,0.21909
3276.46825,0.21473
3278.39672,0.21196
3280.32519,0.21322
3282.25366,0.21612
3284.18213,0.21778
3286.11060,0.21930
3288.03906,0.21980
3289.96753,0.21989
3291.89600,0.22099
3293.82447,0.22036
3295.75294,0.21691
3297.68141,0.21328
3299.60988,0.21265
3301.53834,0.21327
3303.46681,0.21190
3305.39528,0.21133
3307.32375,0.21195
3309.25222,0.21160
3311.18069,0.21122
3313.10916,0.21024
3315.03763,0.21018
3316.96609,0.21208
3318.89456,0.21245
3320.82303,0.21021
3322.75150,0.20622
3324.67997,0.20237
3326.60844,0.20419
3328.53691,0.21292
3330.46537,0.22260
3332.39384,0.22893
3334.32231,0.22866
3336.25078,0.22499
3338.17925,0.22709
3340.10772,0.23006
3342.03619,0.22466
3343.96466,0.21531
3345.89312,0.21088
3347.82159,0.21518
3349.75006,0.22261
3351.67853,0.22335
3353.60700,0.21908
3355.53547,0.21880
3357.46394,0.22022
3359.39240,0.21736
3361.32087,0.21479
3363.24934,0.21430
3365.17781,0.21220
3367.10628,0.21297
3369.03475,0.21867
3370.96322,0.22331
3372.89168,0.22502
3374.82015,0.22486
3376.74862,0.22200
3378.67709,0.21718
3380.60556,0.21184
3382.53403,0.20807
3384.46250,0.21048
3386.39097,0.21760
3388.31943,0.22056
3390.24790,0.21708
3392.17637,0.21445
3394.10484,0.21604
3396.03331,0.21646
3397.96178,0.21243
3399.89025,0.20705
3401.81871,0.20492
3403.74718,0.20835
3405.67565,0.21629
3407.60412,0.22253
3409.53259,0.22208
3411.46106,0.22013
3413.38953,0.22375
3415.31800,0.22842
3417.24646,0.22511
3419.17493,0.21775
3421.10340,0.21464
3423.03187,0.21424
3424.96034,0.21453
3426.88881,0.21716
3428.81728,0.21770
3430.74574,0.21225
3432.67421,0.20788
3434.60268,0.20783
3436.53115,0.21012
3438.45962,0.21422
3440.38809,0.21497
3442.31656,0.21349
3444.24503,0.21805
3446.17349,0.22527
3448.10196,0.22399
3450.03043,0.21318
3451.95890,0.20203
3453.88737,0.19716
3455.81584,0.19627
3457.74431,0.19480
3459.67277,0.19352
3461.60124,0.19323
3463.52971,0.19353
3465.45818,0.19621
3467.38665,0.20114
3469.31512,0.20404
3471.24359,0.20209
3473.17206,0.19764
3475.10052,0.19396
3477.02899,0.19105
3478.95746,0.19161
3480.88593,0.19868
3482.81440,0.20232
3484.74287,0.19527
3486.67134,0.18753
3488.59980,0.18428
3490.52827,0.18304
3492.45674,0.18694
3494.38521,0.19395
3496.31368,0.19517
3498.24215,0.19041
3500.17062,0.18958
3502.09909,0.19682
3504.02755,0.20004
3505.95602,0.19574
3507.88449,0.19579
3509.81296,0.19650
3511.74143,0.19017
3513.66990,0.18422
3515.59837,0.18109
3517.52683,0.17901
3519.45530,0.18321
3521.38377,0.19044
3523.31224,0.19049
3525.24071,0.18782
3527.16918,0.18889
3529.09765,0.18646
3531.02611,0.17967
3532.95458,0.17750
3534.88305,0.17845
3536.81152,0.17567
3538.73999,0.17351
3540.66846,0.17431
3542.59693,0.17371
3544.52540,0.17325
3546.45386,0.17386
3548.38233,0.17269
3550.31080,0.17023
3552.23927,0.16974
3554.16774,0.17087
3556.09621,0.16990
3558.02468,0.16919
3559.95314,0.17047
3561.88161,0.17242
3563.81008,0.17987
3565.73855,0.19281
3567.66702,0.19419
3569.59549,0.18172
3571.52396,0.17099
3573.45243,0.16377
3575.38089,0.15920
3577.30936,0.15687
3579.23783,0.15364
3581.16630,0.15097
3583.09477,0.15524
3585.02324,0.16418
3586.95171,0.17045
3588.88017,0.17021
3590.80864,0.16595
3592.73711,0.16667
3594.66558,0.17356
3596.59405,0.17602
3598.52252,0.17367
3600.45099,0.17157
3602.37946,0.16855
3604.30792,0.16680
3606.23639,0.16835
3608.16486,0.16649
3610.09333,0.16255
3612.02180,0.16769
3613.95027,0.17436
3615.87874,0.17627
3617.80720,0.18283
3619.73567,0.18306
3621.66414,0.16568
3623.59261,0.15157
3625.52108,0.15112
3627.44955,0.16260
3629.37802,0.17132
3631.30649,0.16657
3633.23495,0.16244
3635.16342,0.15768
3637.09189,0.15109
3639.02036,0.14750
3640.94883,0.14846
3642.87730,0.15178
3644.80577,0.15729
3646.73423,0.17166
3648.66270,0.18710
3650.59117,0.16865
3652.51964,0.14526
3654.44811,0.13792
3656.37658,0.13157
3658.30505,0.12384
3660.23352,0.12487
3662.16198,0.13061
3664.09045,0.13514
3666.01892,0.14152
3667.94739,0.15512
3669.87586,0.16704
3671.80433,0.16179
3673.73280,0.16021
3675.66126,0.17093
3677.58973,0.16987
3679.51820,0.15871
3681.44667,0.14856
3683.37514,0.14209
3685.30361,0.14557
3687.23208,0.16443
3689.16055,0.18403
3691.08901,0.17361
3693.01748,0.15205
3694.94595,0.14107
3696.87442,0.13842
3698.80289,0.13991
3700.73136,0.14123
3702.65983,0.13642
3704.58829,0.13047
3706.51676,0.13224
3708.44523,0.14065
3710.37370,0.15037
3712.30217,0.15090
3714.23064,0.13998
3716.15911,0.13463
3718.08757,0.13840
3720.01604,0.14044
3721.94451,0.13929
3723.87298,0.14356
3725.80145,0.14643
3727.72992,0.14075
3729.65839,0.14020
3731.58686,0.15337
3733.51532,0.17213
3735.44379,0.17851
3737.37226,0.16479
3739.30073,0.15106
3741.22920,0.14858
3743.15767,0.15138
3745.08614,0.15007
3747.01460,0.14997
3748.94307,0.15732
3750.87154,0.16275
3752.80001,0.15556
3754.72848,0.14665
3756.65695,0.14484
3758.58542,0.14738
3760.51389,0.14338
3762.44235,0.13731
3764.37082,0.13632
3766.29929,0.13580
3768.22776,0.13444
3770.15623,0.13295
3772.08470,0.12881
3774.01317,0.12465
3775.94163,0.12476
3777.87010,0.13114
3779.79857,0.13556
3781.72704,0.13129
3783.65551,0.12731
3785.58398,0.12487
3787.51245,0.12157
3789.44092,0.12165
3791.36938,0.12767
3793.29785,0.13704
3795.22632,0.14328
3797.15479,0.13968
3799.08326,0.13171
3801.01173,0.13078
3802.94020,0.13430
3804.86866,0.13620
3806.79713,0.13982
3808.72560,0.13721
3810.65407,0.12890
3812.58254,0.12573
3814.51101,0.12963
3816.43948,0.13835
3818.36795,0.14989
3820.29641,0.15861
3822.22488,0.15018
3824.15335,0.13792
3826.08182,0.13436
3828.01029,0.13100
3829.93876,0.12834
3831.86723,0.13003
3833.79569,0.13093
3835.72416,0.13597
3837.65263,0.15227
3839.58110,0.16153
3841.50957,0.15327
3843.43804,0.14048
3845.36651,0.13056
3847.29498,0.12576
3849.22344,0.12708
3851.15191,0.13429
3853.08038,0.13983
3855.00885,0.13297
3856.93732,0.12446
3858.86579,0.11846
3860.79426,0.12040
3862.72272,0.13089
3864.65119,0.13198
3866.57966,0.12551
3868.50813,0.13180
3870.43660,0.14199
3872.36507,0.13739
3874.29354,0.12840
3876.22200,0.12480
3878.15047,0.12658
3880.07894,0.13064
3882.00741,0.12810
3883.93588,0.12051
3885.86435,0.11907
3887.79282,0.12576
3889.72129,0.13338
3891.64975,0.13154
3893.57822,0.11762
3895.50669,0.10966
3897.43516,0.11221
3899.36363,0.11711
3901.29210,0.12047
3903.22057,0.12397
3905.14903,0.11965
3907.07750,0.10874
3909.00597,0.10519
3910.93444,0.11115
3912.86291,0.11789
3914.79138,0.12144
3916.71985,0.12262
3918.64832,0.12014
3920.57678,0.11517
3922.50525,0.11197
3924.43372,0.11185
3926.36219,0.11100
3928.29066,0.11176
3930.21913,0.11786
3932.14760,0.12044
3934.07606,0.11686
3936.00453,0.11674
3937.93300,0.11700
3939.86147,0.11421
3941.78994,0.11407
3943.71841,0.11647
3945.64688,0.11917
3947.57535,0.12037
3949.50381,0.11446
3951.43228,0.10540
3953.36075,0.10401
3955.28922,0.10970
3957.21769,0.11386
3959.14616,0.11383
3961.07463,0.10921
3963.00309,0.10010
3964.93156,0.09511
3966.86003,0.09989
3968.78850,0.10724
3970.71697,0.10968
3972.64544,0.10857
3974.57391,0.10527
3976.50238,0.10144
3978.43084,0.10112
3980.35931,0.10307
3982.28778,0.10461
3984.21625,0.10534
3986.14472,0.10231
3988.07319,0.09535
3990.00166,0.09352
3991.93012,0.09928
3993.85859,0.10148
3995.78706,0.09609
3997.71553,0.09235
3999.64400,0.09420
4001.57247,0.09607
4003.50094,0.09596
4005.42941,0.09640
4007.35787,0.09771
4009.28634,0.09973
4011.21481,0.10241
4013.14328,0.10349
4015.07175,0.10200
4017.00022,0.09939
4018.92869,0.09705
4020.85715,0.09523
4022.78562,0.09255
4024.71409,0.09007
4026.64256,0.08896
4028.57103,0.08706
4030.49950,0.08720
4032.42797,0.09509
4034.35644,0.10411
4036.28490,0.10244
4038.21337,0.09584
4040.14184,0.09546
4042.07031,0.09762
4043.99878,0.09678
4045.92725,0.09554
4047.85572,0.09632
4049.78418,0.09529
4051.71265,0.09093
4053.64112,0.08789
4055.56959,0.08579
4057.49806,0.08031
4059.42653,0.07454
4061.35500,0.07537
4063.28346,0.08114
4065.21193,0.08513
4067.14040,0.08769
4069.06887,0.09273
4070.99734,0.09739
4072.92581,0.09622
4074.85428,0.09230
4076.78275,0.09047
4078.71121,0.08836
4080.63968,0.08681
4082.56815,0.08836
4084.49662,0.08809
4086.42509,0.08491
4088.35356,0.08319
4090.28203,0.08210
4092.21049,0.08027
4094.13896,0.08123
4096.06743,0.08626
4097.99590,0.08813
4099.92437,0.08322
4101.85284,0.08045
4103.78131,0.08580
4105.70978,0.09357
4107.63824,0.09498
4109.56671,0.08719
4111.49518,0.07808
4113.42365,0.07526
4115.35212,0.07282
4117.28059,0.06578
4119.20906,0.06085
4121.13752,0.06505
4123.06599,0.07572
4124.99446,0.08141
4126.92293,0.07776
4128.85140,0.07190
4130.77987,0.06897
4132.70834,0.06967
4134.63681,0.07433
4136.56527,0.07888
4138.49374,0.07722
4140.42221,0.07475
4142.35068,0.07885
4144.27915,0.08221
4146.20762,0.07867
4148.13609,0.07366
4150.06455,0.07273
4151.99302,0.07702
4153.92149,0.07876
4155.84996,0.07087
4157.77843,0.06318
4159.70690,0.06362
4161.63537,0.06379
4163.56384,0.05820
4165.49230,0.05501
4167.42077,0.06076
4169.34924,0.06982
4171.27771,0.07429
4173.20618,0.07094
4175.13465,0.06296
4177.06312,0.05776
4178.99158,0.05554
4180.92005,0.05353
4182.84852,0.05494
4184.77699,0.05789
4186.70546,0.05884
4188.63393,0.06274
4190.56240,0.06931
4192.49087,0.07034
4194.41933,0.06838
4196.34780,0.07128
4198.27627,0.07132
4200.20474,0.06299
4202.13321,0.05727
4204.06168,0.05717
4205.99015,0.05648
4207.91861,0.05215
4209.84708,0.04670
4211.77555,0.04616
4213.70402,0.04997
4215.63249,0.05355
4217.56096,0.05719
4219.48943,0.06111
4221.41789,0.06363
4223.34636,0.06308
4225.27483,0.05825
4227.20330,0.05507
4229.13177,0.05472
4231.06024,0.05066
4232.98871,0.04857
4234.91718,0.05307
4236.84564,0.05491
4238.77411,0.05108
4240.70258,0.05060
4242.63105,0.05434
4244.55952,0.05400
4246.48799,0.05237
4248.41646,0.05565
4250.34492,0.05901
4252.27339,0.05644
4254.20186,0.05084
4256.13033,0.04821
4258.05880,0.04756
4259.98727,0.04600
4261.91574,0.04349
4263.84421,0.04181
4265.77267,0.04165
4267.70114,0.04223
4269.62961,0.04630
4271.55808,0.04868
4273.48655,0.04274
4275.41502,0.03730
4277.34349,0.03806
4279.27195,0.03950
4281.20042,0.03917
4283.12889,0.04283
4285.05736,0.05184
4286.98583,0.05405
4288.91430,0.04617
4290.84277,0.03948
4292.77124,0.03934
4294.69970,0.04233
4296.62817,0.04176
4298.55664,0.03856
4300.48511,0.03771
4302.41358,0.03652
4304.34205,0.03747
4306.27052,0.04626
4308.19898,0.05407
4310.12745,0.04907
4312.05592,0.04120
4313.98439,0.04387
4315.91286,0.04682
4317.84133,0.03931
4319.76980,0.02975
4321.69827,0.02639
4323.62673,0.02640
4325.55520,0.03163
4327.48367,0.04140
4329.41214,0.04348
4331.34061,0.03616
4333.26908,0.02997
4335.19755,0.03243
4337.12601,0.03783
4339.05448,0.03579
4340.98295,0.02975
4342.91142,0.02917
4344.83989,0.03237
4346.76836,0.02971
4348.69683,0.02177
4350.62530,0.01740
4352.55376,0.01904
4354.48223,0.02232
4356.41070,0.02655
4358.33917,0.03205
4360.26764,0.03299
4362.19611,0.02756
4364.12458,0.01984
4366.05304,0.01641
4367.98151,0.02280
4369.90998,0.03520
4371.83845,0.03832
4373.76692,0.02413
4375.69539,0.00771
4377.62386,0.00362
4379.55232,0.00821
4381.48079,0.01240
4383.40926,0.01383
4385.33773,0.01355
4387.26620,0.01189
4389.19467,0.01337
4391.12314,0.01725
4393.05161,0.01944
4394.98007,0.02354
4396.90854,0.02728
4398.83701,0.02454
4400.76548,0.02014
4402.69395,0.01807
4404.62242,0.01731
4406.55089,0.02117
4408.47935,0.02706
4410.40782,0.02890
4412.33629,0.02736
4414.26476,0.02083
4416.19323,0.01017
4418.12170,0.00197
4420.05017,-0.00545
4421.97864,-0.01116
4423.90710,-0.00708
4425.83557,0.00180
4427.76404,0.00903
4429.69251,0.01507
4431.62098,0.01512
4433.54945,0.01038
4435.47792,0.00901
4437.40638,0.01410
4439.33485,0.02183
4441.26332,0.02477
4443.19179,0.02097
4445.12026,0.01432
4447.04873,0.00891
4448.97720,0.00401
4450.90567,0.00079
4452.83413,0.00452
4454.76260,0.01265
4456.69107,0.01976
4458.61954,0.01821
4460.54801,0.00687
4462.47648,0.00240
4464.40495,0.01108
4466.33341,0.01728
4468.26188,0.00929
4470.19035,-0.00519
4472.11882,-0.01062
4474.04729,-0.00824
4475.97576,-0.01203
4477.90423,-0.01425
4479.83270,-0.00050
4481.76116,0.01617
4483.68963,0.01980
4485.61810,0.01026
4487.54657,-0.00185
4489.47504,-0.00290
4491.40351,0.00417
4493.33198,0.00638
4495.26044,0.00661
4497.18891,0.00958
4499.11738,0.00671
4501.04585,-0.00114
4502.97432,-0.00451
4504.90279,-0.00695
4506.83126,-0.01370
4508.75973,-0.01987
4510.68819,-0.01543
4512.61666,0.00110
4514.54513,0.01498
4516.47360,0.00938
4518.40207,-0.00578
4520.33054,-0.01267
4522.25901,-0.01018
4524.18747,-0.00326
4526.11594,0.00683
4528.04441,0.01773
4529.97288,0.01914
4531.90135,0.00967
4533.82982,-0.00242
4535.75829,-0.00792
4537.68676,-0.00175
4539.61522,0.00388
4541.54369,0.00143
4543.47216,0.00158
4545.40063,0.00433
4547.32910,0.00276
4549.25757,-0.00094
4551.18604,-0.00392
4553.11450,-0.00909
4555.04297,-0.01147
4556.97144,-0.00399
4558.89991,0.00505
4560.82838,0.00961
4562.75685,0.01267
4564.68532,0.01575
4566.61378,0.01501
4568.54225,0.00757
4570.47072,0.00220
4572.39919,0.00443
4574.32766,0.00636
4576.25613,0.00382
4578.18460,0.00186
4580.11307,0.00430
4582.04153,0.01195
4583.97000,0.01931
4585.89847,0.01766
4587.82694,0.01241
4589.75541,0.00996
4591.68388,0.00472
4593.61235,0.00082
4595.54081,0.00763
4597.46928,0.01459
4599.39775,0.00491
4601.32622,-0.01001
4603.25469,-0.00659
4605.18316,0.00853
4607.11163,0.01297
4609.04010,0.00183
4610.96856,-0.01235
4612.89703,-0.01416
4614.82550,-0.00953
4616.75397,-0.01342
4618.68244,-0.01750
4620.61091,-0.00782
4622.53938,0.00869
4624.46784,0.02010
4626.39631,0.02152
4628.32478,0.01409
4630.25325,0.00901
4632.18172,0.01369
4634.11019,0.01502
4636.03866,0.00101
4637.96713,-0.01134
4639.89559,-0.00546
4641.82406,0.00849
4643.75253,0.01874
4645.68100,0.02420
4647.60947,0.02344
4649.53794,0.01896
4651.46641,0.01503
4653.39487,0.00703
4655.32334,-0.00253
4657.25181,0.00150
4659.18028,0.01592
4661.10875,0.01800
4663.03722,0.00366
4664.96569,0.00072
4666.89416,0.01919
4668.82262,0.03039
4670.75109,0.02523
4672.67956,0.02282
4674.60803,0.02500
4676.53650,0.02512
4678.46497,0.02055
4680.39344,0.01139
4682.32190,0.00724
4684.25037,0.00914
4686.17884,0.00833
4688.10731,0.00707
4690.03578,0.01001
4691.96425,0.01277
4693.89272,0.01106
4695.82119,0.00226
4697.74965,-0.01325
4699.67812,-0.02289
4701.60659,-0.02112
4703.53506,-0.01918
4705.46353,-0.01878
4707.39200,-0.00923
4709.32047,0.00838
4711.24893,0.01889
4713.17740,0.01962
4715.10587,0.01904
4717.03434,0.02208
4718.96281,0.03122
4720.89128,0.03392
4722.81975,0.02166
4724.74821,0.00964
4726.67668,0.00321
4728.60515,0.00096
4730.53362,0.01144
4732.46209,0.02743
4734.39056,0.02844
4736.31903,0.01322
4738.24750,-0.00252
4740.17596,-0.01381
4742.10443,-0.02211
4744.03290,-0.01536
4745.96137,0.00876
4747.88984,0.02929
4749.81831,0.02817
4751.74678,0.01059
4753.67524,-0.00401
4755.60371,-0.00852
4757.53218,-0.01120
4759.46065,-0.01260
4761.38912,-0.00503
4763.31759,0.00342
4765.24606,0.00101
4767.17453,-0.00345
4769.10299,0.00085
4771.03146,0.00435
4772.95993,-0.00419
4774.88840,-0.01172
4776.81687,-0.00960
4778.74534,-0.00989
4780.67381,-0.00899
4782.60227,0.00014
4784.53074,0.00442
4786.45921,0.00488
4788.38768,0.01098
4790.31615,0.01540
4792.24462,0.01583
4794.17309,0.01498
4796.10156,0.01176
4798.03002,0.01003
4799.95849,0.01329
4801.88696,0.01954
4803.81543,0.02008
4805.74390,0.01439
4807.67237,0.01597
4809.60084,0.01616
4811.52930,0.00085
4813.45777,-0.01272
4815.38624,-0.01016
4817.31471,0.00181
4819.24318,0.01040
4821.17165,0.00570
4823.10012,-0.00681
4825.02859,-0.00965
4826.95705,0.00283
4828.88552,0.01265
4830.81399,0.01078
4832.74246,0.00738
4834.67093,0.00453
4836.59940,0.00296
4838.52787,0.00158
4840.45633,-0.01116
4842.38480,-0.02808
4844.31327,-0.02521
4846.24174,-0.00442
4848.17021,0.00870
4850.09868,0.00747
4852.02715,0.00505
4853.95562,0.00685
4855.88408,0.01051
4857.81255,0.01189
4859.74102,0.01042
4861.66949,0.01429
4863.59796,0.01824
4865.52643,0.01535
4867.45490,0.01631
4869.38336,0.02048
4871.31183,0.02003
4873.24030,0.01518
4875.16877,0.00629
4877.09724,0.00139
4879.02571,0.00604
4880.95418,0.00832
4882.88265,0.00309
4884.81111,0.00156
4886.73958,0.00664
4888.66805,0.01470
4890.59652,0.02169
4892.52499,0.01867
4894.45346,0.01183
4896.38193,0.01606
4898.31039,0.01874
4900.23886,0.00639
4902.16733,0.00064
4904.09580,0.01394
4906.02427,0.03073
4907.95274,0.03532
4909.88121,0.02151
4911.80967,0.00642
4913.73814,0.00662
4915.66661,0.00827
4917.59508,0.00246
4919.52355,-0.00698
4921.45202,-0.01850
4923.38049,-0.01879
4925.30896,-0.00012
4927.23742,0.02007
4929.16589,0.03199
4931.09436,0.04374
4933.02283,0.05675
4934.95130,0.05038
4936.87977,0.01632
4938.80824,-0.00989
4940.73670,-0.00943
4942.66517,0.00565
4944.59364,0.02464
4946.52211,0.02686
4948.45058,0.00790
4950.37905,-0.01131
4952.30752,-0.02247
4954.23599,-0.02481
4956.16445,-0.01498
4958.09292,0.00124
4960.02139,0.01117
4961.94986,0.00158
4963.87833,-0.02202
4965.80680,-0.03122
4967.73527,-0.01756
4969.66373,-0.00388
4971.59220,-0.00003
4973.52067,0.00158
4975.44914,0.00275
4977.37761,0.00587
4979.30608,0.00887
4981.23455,0.00532
4983.16302,0.00875
4985.09148,0.01623
4987.01995,0.00478
4988.94842,-0.02068
4990.87689,-0.03305
4992.80536,-0.01926
4994.73383,0.00203
4996.66230,0.00905
4998.59076,0.00553
5000.51923,0.00957
5002.44770,0.02457
5004.37617,0.02679
5006.30464,0.01092
5008.23311,0.00470
5010.16158,0.01315
5012.09005,0.01992
5014.01851,0.02028
5015.94698,0.01583
5017.87545,0.00919
5019.80392,0.00416
5021.73239,0.00523
5023.66086,0.01052
5025.58933,0.01496
5027.51779,0.02659
5029.44626,0.04729
5031.37473,0.05337
5033.30320,0.03487
5035.23167,0.02154
5037.16014,0.02813
5039.08861,0.02972
5041.01708,0.01196
5042.94554,-0.00720
5044.87401,-0.00414
5046.80248,0.01566
5048.73095,0.02644
5050.65942,0.02467
5052.58789,0.01472
5054.51636,-0.00273
5056.44482,-0.01179
5058.37329,-0.00562
5060.30176,-0.00457
5062.23023,-0.01295
5064.15870,-0.01206
5066.08717,-0.00226
5068.01564,0.00855
5069.94410,0.01470
5071.87257,0.01381
5073.80104,0.02015
5075.72951,0.02573
5077.65798,0.00759
5079.58645,-0.01122
5081.51492,-0.00215
5083.44339,0.01123
5085.37185,0.01324
5087.30032,0.01594
5089.22879,0.01269
5091.15726,0.00990
5093.08573,0.01925
5095.01420,0.01771
5096.94267,0.00641
5098.87113,0.00698
5100.79960,0.00926
5102.72807,0.00322
5104.65654,-0.00856
5106.58501,-0.01717
5108.51348,-0.00979
5110.44195,0.00808
5112.37042,0.02166
5114.29888,0.02175
5116.22735,0.01034
5118.15582,-0.00607
5120.08429,-0.01728
5122.01276,-0.00735
5123.94123,0.01623
5125.86970,0.02862
5127.79816,0.01726
5129.72663,-0.00419
5131.65510,-0.01461
5133.58357,-0.01331
5135.51204,0.00034
5137.44051,0.02475
5139.36898,0.03855
5141.29745,0.03403
5143.22591,0.02231
5145.15438,0.01288
5147.08285,0.01316
5149.01132,0.02158
5150.93979,0.03016
5152.86826,0.02759
5154.79673,0.01085
5156.72519,-0.00422
5158.65366,-0.00784
5160.58213,-0.00070
5162.51060,0.01376
5164.43907,0.02312
5166.36754,0.01989
5168.29601,0.01214
5170.22448,0.01607
5172.15294,0.02773
5174.08141,0.02865
5176.00988,0.01243
5177.93835,-0.00927
5179.86682,-0.01498
5181.79529,-0.00157
5183.72376,0.02399
5185.65222,0.04452
5187.58069,0.04041
5189.50916,0.02710
5191.43763,0.02192
5193.36610,0.02329
5195.29457,0.02596
5197.22304,0.02485
5199.15151,0.02977
5201.07997,0.04929
5203.00844,0.05797
5204.93691,0.04296
5206.86538,0.03359
5208.79385,0.03008
5210.72232,0.00887
5212.65079,-0.00453
5214.57925,0.00806
5216.50772,0.01847
5218.43619,0.01414
5220.36466,0.01109
5222.29313,0.01312
5224.22160,0.02322
5226.15007,0.03614
5228.07854,0.03117
5230.00700,0.02644
5231.93547,0.04229
5233.86394,0.04363
5235.79241,0.02101
5237.72088,0.01213
5239.64935,0.02100
5241.57782,0.02975
5243.50628,0.02653
5245.43475,0.01075
5247.36322,-0.00203
5249.29169,-0.00609
5251.22016,0.00339
5253.14863,0.02634
5255.07710,0.04090
5257.00556,0.04024
5258.93403,0.04352
5260.86250,0.05458
5262.79097,0.05757
5264.71944,0.04160
5266.64791,0.02936
5268.57638,0.03527
5270.50485,0.03635
5272.43331,0.02677
5274.36178,0.02304
5276.29025,0.02416
5278.21872,0.02079
5280.14719,0.02099
5282.07566,0.02526
5284.00413,0.01589
5285.93259,0.00707
5287.86106,0.01174
5289.78953,0.00470
5291.71800,-0.00216
5293.64647,0.02389
5295.57494,0.04097
5297.50341,0.02091
5299.43188,0.01287
5301.36034,0.02955
5303.28881,0.04321
5305.21728,0.05723
5307.14575,0.06498
5309.07422,0.04990
5311.00269,0.01636
5312.93116,-0.01620
5314.85962,-0.02467
5316.78809,-0.01367
5318.71656,-0.00362
5320.64503,0.00276
5322.57350,0.01500
5324.50197,0.03704
5326.43044,0.05204
5328.35891,0.05446
5330.28737,0.05059
5332.21584,0.04456
5334.14431,0.06196
5336.07278,0.08354
5338.00125,0.06261
5339.92972,0.02555
5341.85819,0.00854
5343.78665,0.00735
5345.71512,0.02358
5347.64359,0.04643
5349.57206,0.06043
5351.50053,0.05758
5353.42900,0.05030
5355.35747,0.06320
5357.28594,0.07501
5359.21440,0.06323
5361.14287,0.05031
5363.07134,0.05785
5364.99981,0.06637
5366.92828,0.05727
5368.85675,0.05289
5370.78522,0.06173
5372.71368,0.06042
5374.64215,0.05228
5376.57062,0.04857
5378.49909,0.03139
5380.42756,0.02030
5382.35603,0.03811
5384.28450,0.05853
5386.21297,0.05457
5388.14143,0.03807
5390.06990,0.03011
5391.99837,0.02682
5393.92684,0.02023
5395.85531,0.03114
5397.78378,0.04711
5399.71225,0.04617
5401.64071,0.04843
5403.56918,0.05501
5405.49765,0.06163
5407.42612,0.07724
5409.35459,0.08703
5411.28306,0.08083
5413.21153,0.07490
5415.13999,0.08199
5417.06846,0.08562
5418.99693,0.06892
5420.92540,0.03928
5422.85387,0.01049
5424.78234,-0.00785
5426.71081,-0.00522
5428.63928,0.01613
5430.56774,0.04309
5432.49621,0.07397
5434.42468,0.10250
5436.35315,0.10799
5438.28162,0.08846
5440.21009,0.07015
5442.13856,0.07401
5444.06702,0.08019
5445.99549,0.07560
5447.92396,0.07013
5449.85243,0.06606
5451.78090,0.07123
5453.70937,0.08564
5455.63784,0.09140
5457.56631,0.08030
5459.49477,0.07169
5461.42324,0.07380
5463.35171,0.07776
5465.28018,0.08086
5467.20865,0.07679
5469.13712,0.06312
5471.06559,0.05425
5472.99405,0.06303
5474.92252,0.07458
5476.85099,0.07236
5478.77946,0.07707
5480.70793,0.08089
5482.63640,0.06956
5484.56487,0.06598
5486.49334,0.06659
5488.42180,0.07397
5490.35027,0.10973
5492.27874,0.12825
5494.20721,0.09879
5496.13568,0.06877
5498.06415,0.06126
5499.99262,0.06866
5501.92108,0.06786
5503.84955,0.05976
5505.77802,0.06421
5507.70649,0.06477
5509.63496,0.06395
5511.56343,0.07751
5513.49190,0.08289
5515.42037,0.06939
5517.34883,0.05871
5519.27730,0.06494
5521.20577,0.06822
5523.13424,0.05862
5525.06271,0.04662
5526.99118,0.03197
5528.91965,0.02267
5530.84811,0.02669
5532.77658,0.03751
5534.70505,0.05323
5536.63352,0.06838
5538.56199,0.06877
5540.49046,0.05633
5542.41893,0.04709
5544.34740,0.05905
5546.27586,0.08128
5548.20433,0.08985
5550.13280,0.10248
5552.06127,0.10261
5553.98974,0.06522
5555.91821,0.04228
5557.84668,0.05359
5559.77514,0.05794
5561.70361,0.05681
5563.63208,0.07041
5565.56055,0.08567
5567.48902,0.09185
5569.41749,0.09282
5571.34596,0.08970
5573.27443,0.08377
5575.20289,0.07923
5577.13136,0.06847
5579.05983,0.03817
5580.98830,-0.00080
5582.91677,-0.02506
5584.84524,-0.01917
5586.77371,0.01234
5588.70217,0.04327
5590.63064,0.06739
5592.55911,0.09131
5594.48758,0.10256
5596.41605,0.09832
5598.34452,0.08812
5600.27299,0.07424
5602.20145,0.06939
5604.12992,0.07305
5606.05839,0.06965
5607.98686,0.07117
5609.91533,0.07912
5611.84380,0.06502
5613.77227,0.03210
5615.70074,0.03113
5617.62920,0.08559
5619.55767,0.14679
5621.48614,0.16138
5623.41461,0.13235
5625.34308,0.09357
5627.27155,0.08006
5629.20002,0.08339
5631.12848,0.08160
5633.05695,0.08195
5634.98542,0.08102
5636.91389,0.07864
5638.84236,0.07481
5640.77083,0.06126
5642.69930,0.03707
5644.62777,0.01564
5646.55623,0.02895
5648.48470,0.05474
5650.41317,0.05908
5652.34164,0.06613
5654.27011,0.08477
5656.19858,0.09497
5658.12705,0.08582
5660.05551,0.07784
5661.98398,0.08816
5663.91245,0.09728
5665.84092,0.08944
5667.76939,0.07329
5669.69786,0.06375
5671.62633,0.05958
5673.55480,0.05923
5675.48326,0.08088
5677.41173,0.12244
5679.34020,0.13989
5681.26867,0.11355
5683.19714,0.08276
5685.12561,0.06865
5687.05408,0.04773
5688.98254,0.02040
5690.91101,0.00212
5692.83948,0.01291
5694.76795,0.07215
5696.69642,0.13603
5698.62489,0.14190
5700.55336,0.10100
5702.48183,0.06477
5704.41029,0.05282
5706.33876,0.06412
5708.26723,0.09266
5710.19570,0.12276
5712.12417,0.12730
5714.05264,0.08711
5715.98111,0.04778
5717.90957,0.04831
5719.83804,0.06843
5721.76651,0.08203
5723.69498,0.08879
5725.62345,0.10779
5727.55192,0.12773
5729.48039,0.13369
5731.40886,0.12611
5733.33732,0.09791
5735.26579,0.07076
5737.19426,0.08312
5739.12273,0.11672
5741.05120,0.11656
5742.97967,0.09373
5744.90814,0.10009
5746.83660,0.13803
5748.76507,0.16641
5750.69354,0.15801
5752.62201,0.12074
5754.55048,0.08187
5756.47895,0.07526
5758.40742,0.08485
5760.33588,0.08206
5762.26435,0.08793
5764.19282,0.09907
5766.12129,0.09482
5768.04976,0.08512
5769.97823,0.06645
5771.90670,0.04231
5773.83517,0.04118
5775.76363,0.05283
5777.69210,0.05008
5779.62057,0.04807
5781.54904,0.04927
5783.47751,0.03361
5785.40598,0.00650
5787.33445,0.00229
5789.26291,0.05101
5791.19138,0.10703
5793.11985,0.13012
5795.04832,0.15089
5796.97679,0.17914
5798.90526,0.17246
5800.83373,0.11555
5802.76220,0.07396
5804.69066,0.07185
5806.61913,0.06144
5808.54760,0.03558
5810.47607,0.01829
5812.40454,0.03758
5814.33301,0.06976
5816.26148,0.07841
5818.18994,0.09491
5820.11841,0.12949
5822.04688,0.13027
5823.97535,0.10870
5825.90382,0.12135
5827.83229,0.13136
5829.76076,0.09203
5831.68923,0.05037
5833.61769,0.04630
5835.54616,0.06510
5837.47463,0.07874
5839.40310,0.07811
5841.33157,0.08224
5843.26004,0.09212
5845.18851,0.09151
5847.11697,0.09880
5849.04544,0.12211
5850.97391,0.13237
5852.90238,0.12589
5854.83085,0.10955
5856.75932,0.08536
5858.68779,0.08104
5860.61626,0.09590
5862.54472,0.08648
5864.47319,0.05257
5866.40166,0.04374
5868.33013,0.07348
5870.25860,0.10594
5872.18707,0.12016
5874.11554,0.11066
5876.04400,0.09173
5877.97247,0.08117
5879.90094,0.05997
5881.82941,0.04753
5883.75788,0.08163
5885.68635,0.11118
5887.61482,0.06558
5889.54329,-0.00115
5891.47175,0.00743
5893.40022,0.06839
5895.32869,0.10889
5897.25716,0.11643
5899.18563,0.11567
5901.11410,0.10180
5903.04257,0.07103
5904.97103,0.06578
5906.89950,0.08790
5908.82797,0.09116
5910.75644,0.09423
5912.68491,0.10523
5914.61338,0.08082
5916.54185,0.03759
5918.47032,-0.01324
5920.39878,-0.05389
5922.32725,-0.04800
5924.25572,-0.01628
5926.18419,0.02171
5928.11266,0.03726
5930.04113,0.02057
5931.96960,0.02649
5933.89806,0.05660
5935.82653,0.06747
5937.75500,0.06885
5939.68347,0.07083
5941.61194,0.06966
5943.54041,0.06544
5945.46888,0.04286
5947.39734,0.03172
5949.32581,0.07837
5951.25428,0.12831
5953.18275,0.10533
5955.11122,0.06358
5957.03969,0.09405
5958.96816,0.14727
5960.89663,0.12620
5962.82509,0.08733
5964.75356,0.07927
5966.68203,0.05247
5968.61050,0.02351
5970.53897,0.04731
5972.46744,0.08640
5974.39591,0.07440
5976.32437,0.04425
5978.25284,0.06181
5980.18131,0.08981
5982.10978,0.07013
5984.03825,0.03923
5985.96672,0.04579
5987.89519,0.06516
5989.82366,0.07259
5991.75212,0.07070
5993.68059,0.08022
5995.60906,0.12830
5997.53753,0.16375
5999.46600,0.14151
6001.39447,0.07957
6003.32294,-0.00853
6005.25140,-0.06208
6007.17987,-0.03122
6009.10834,0.02898
6011.03681,0.06706
6012.96528,0.07684
6014.89375,0.06926
6016.82222,0.07622
6018.75069,0.10728
6020.67915,0.13905
6022.60762,0.13753
6024.53609,0.07025
6026.46456,-0.00301
6028.39303,0.01701
6030.32150,0.09781
6032.24997,0.14375
6034.17843,0.15002
6036.10690,0.13622
6038.03537,0.09580
6039.96384,0.04964
6041.89231,0.00737
6043.82078,-0.03613
6045.74925,-0.04637
6047.67772,-0.01447
6049.60618,0.00885
6051.53465,-0.00621
6053.46312,-0.03423
6055.39159,-0.05346
6057.32006,-0.03616
6059.24853,0.02657
6061.17700,0.06943
6063.10546,0.06829
6065.03393,0.07764
6066.96240,0.09054
6068.89087,0.07518
6070.81934,0.04598
6072.74781,0.02608
6074.67628,0.03485
6076.60475,0.05539
6078.53321,0.05542
6080.46168,0.05447
6082.39015,0.06528
6084.31862,0.09322
6086.24709,0.15021
6088.17556,0.18773
6090.10403,0.17998
6092.03249,0.15093
6093.96096,0.09791
6095.88943,0.05612
6097.81790,0.06976
6099.74637,0.10640
6101.67484,0.12104
6103.60331,0.08380
6105.53177,0.01758
6107.46024,-0.01425
6109.38871,-0.00838
6111.31718,0.02424
6113.24565,0.09867
6115.17412,0.16707
6117.10259,0.15301
6119.03106,0.08829
6120.95952,0.05301
6122.88799,0.02996
6124.81646,0.01019
6126.74493,-0.00722
6128.67340,-0.02492
6130.60187,-0.01379
6132.53034,0.00791
6134.45880,0.00840
6136.38727,0.00061
6138.31574,0.02180
6140.24421,0.07150
6142.17268,0.09275
6144.10115,0.07529
6146.02962,0.07146
6147.95809,0.08380
6149.88655,0.07461
6151.81502,0.04940
6153.74349,0.04403
6155.67196,0.04508
6157.60043,0.02044
6159.52890,0.00025
6161.45737,0.00968
6163.38583,0.00468
6165.31430,-0.00671
6167.24277,0.00336
6169.17124,0.01379
6171.09971,0.02571
6173.02818,0.03289
6174.95665,0.02299
6176.88512,0.00385
6178.81358,-0.00412
6180.74205,0.02319
6182.67052,0.05005
6184.59899,0.04338
6186.52746,0.03632
6188.45593,0.05224
6190.38440,0.09311
6192.31286,0.14319
6194.24133,0.13312
6196.16980,0.06240
6198.09827,0.02205
6200.02674,0.01087
6201.95521,0.00905
6203.88368,0.06255
6205.81215,0.14303
6207.74061,0.18982
6209.66908,0.20401
6211.59755,0.17959
6213.52602,0.12500
6215.45449,0.07440
6217.38296,0.03866
6219.31143,0.02256
6221.23989,0.02698
6223.16836,0.03316
6225.09683,0.04317
6227.02530,0.05151
6228.95377,0.04244
6230.88224,0.06143
6232.81071,0.08891
6234.73918,0.06107
6236.66764,0.04625
6238.59611,0.08152
6240.52458,0.12280
6242.45305,0.15746
6244.38152,0.18681
6246.30999,0.20649
6248.23846,0.19132
6250.16692,0.11225
6252.09539,0.03269
6254.02386,0.02651
6255.95233,0.08611
6257.88080,0.15718
6259.80927,0.13862
6261.73774,0.04211
6263.66621,-0.00226
6265.59467,0.03516
6267.52314,0.07555
6269.45161,0.09771
6271.38008,0.14153
6273.30855,0.18544
6275.23702,0.18128
6277.16549,0.16435
6279.09395,0.13128
6281.02242,0.03994
6282.95089,-0.04710
6284.87936,-0.02570
6286.80783,0.06349
6288.73630,0.12538
6290.66477,0.14403
6292.59323,0.12243
6294.52170,0.08218
6296.45017,0.04969
6298.37864,0.04463
6300.30711,0.07601
6302.23558,0.09210
6304.16405,0.10438
6306.09252,0.15597
6308.02098,0.16744
6309.94945,0.10157
6311.87792,0.02479
6313.80639,-0.02704
6315.73486,-0.07003
6317.66333,-0.09419
6319.59180,-0.05345
6321.52026,0.03433
6323.44873,0.10634
6325.37720,0.14445
6327.30567,0.14834
6329.23414,0.11482
6331.16261,0.05583
6333.09108,0.02227
6335.01955,0.05903
6336.94801,0.10879
6338.87648,0.09910
6340.80495,0.09091
6342.73342,0.12724
6344.66189,0.11876
6346.59036,0.06047
6348.51883,0.04280
6350.44729,0.06414
6352.37576,0.07288
6354.30423,0.04144
6356.23270,-0.01168
6358.16117,-0.03245
6360.08964,-0.01309
6362.01811,0.02265
6363.94658,0.08179
6365.87504,0.15203
6367.80351,0.18169
6369.73198,0.11937
6371.66045,-0.01254
6373.58892,-0.08267
6375.51739,-0.04813
6377.44586,-0.01000
6379.37432,-0.00714
6381.30279,0.02161
6383.23126,0.06830
6385.15973,0.02979
6387.08820,-0.04623
6389.01667,-0.04392
6390.94514,0.03626
6392.87361,0.08947
6394.80207,0.07094
6396.73054,0.04217
6398.65901,0.02903
6400.58748,0.04647
6402.51595,0.07173
6404.44442,0.07438
6406.37289,0.07067
6408.30135,0.07166
6410.22982,0.08371
6412.15829,0.06922
6414.08676,0.01794
6416.01523,-0.00749
6417.94370,0.00997
6419.87217,0.02582
6421.80064,0.00938
6423.72910,-0.01496
6425.65757,0.00664
6427.58604,0.08877
6429.51451,0.14099
6431.44298,0.06986
6433.37145,-0.01909
6435.29992,-0.01095
6437.22838,0.02676
6439.15685,0.02284
6441.08532,0.01639
6443.01379,0.01144
6444.94226,-0.03088
6446.87073,-0.04316
6448.79920,0.03108
6450.72766,0.10965
6452.65613,0.10535
6454.58460,0.06291
6456.51307,0.06210
6458.44154,0.09303
6460.37001,0.08598
6462.29848,0.03223
6464.22695,-0.00516
6466.15541,0.02254
6468.08388,0.08863
6470.01235,0.10132
6471.94082,0.04411
6473.86929,0.05672
6475.79776,0.17121
6477.72623,0.22868
6479.65469,0.19422
6481.58316,0.16258
6483.51163,0.12028
6485.44010,0.04158
6487.36857,-0.01056
6489.29704,0.02435
6491.22551,0.10152
6493.15398,0.11008
6495.08244,0.06186
6497.01091,0.05917
6498.93938,0.11717
6500.86785,0.17561
6502.79632,0.17097
6504.72479,0.13374
6506.65326,0.12023
6508.58172,0.11715
6510.51019,0.10633
6512.43866,0.06348
6514.36713,-0.01111
6516.29560,-0.01526
6518.22407,0.06365
6520.15254,0.10692
6522.08101,0.09687
6524.00947,0.07170
6525.93794,0.04775
6527.86641,0.03341
6529.79488,0.01223
6531.72335,0.00583
6533.65182,0.02921
6535.58029,0.01730
6537.50875,-0.02896
6539.43722,-0.03914
6541.36569,-0.02936
6543.29416,-0.02305
6545.22263,0.00545
6547.15110,0.04417
6549.07957,0.07640
6551.00804,0.09886
6552.93650,0.08467
6554.86497,0.01761
6556.79344,-0.02875
6558.72191,0.00690
6560.65038,0.05808
6562.57885,0.06551
6564.50732,0.09105
6566.43578,0.14905
6568.36425,0.15446
6570.29272,0.11877
6572.22119,0.08781
6574.14966,0.07296
6576.07813,0.07764
6578.00660,0.06037
6579.93507,0.00527
6581.86353,-0.00864
6583.79200,0.08919
6585.72047,0.18089
6587.64894,0.16703
6589.57741,0.12998
6591.50588,0.11215
6593.43435,0.08475
6595.36281,0.06605
6597.29128,0.05594
6599.21975,0.02725
6601.14822,0.02151
6603.07669,0.04271
6605.00516,0.02987
6606.93363,0.00707
6608.86210,-0.01566
6610.79056,-0.05418
6612.71903,-0.01952
6614.64750,0.09433
6616.57597,0.14483
6618.50444,0.13765
6620.43291,0.15519
6622.36138,0.15751
6624.28984,0.14882
6626.21831,0.17233
6628.14678,0.15260
6630.07525,0.06767
6632.00372,0.06698
6633.93219,0.12541
6635.86066,0.07724
6637.78912,-0.04416
6639.71759,-0.05718
6641.64606,0.00851
6643.57453,0.00073
6645.50300,-0.06456
6647.43147,-0.08597
6649.35994,-0.04295
6651.28841,0.02390
6653.21687,0.06059
6655.14534,0.08358
6657.07381,0.12612
6659.00228,0.17796
6660.93075,0.17070
6662.85922,0.07679
6664.78769,-0.00224
6666.71615,-0.04142
6668.64462,-0.11211
6670.57309,-0.11928
6672.50156,0.07684
6674.43003,0.26931
6676.35850,0.26086
6678.28697,0.17290
6680.21544,0.12781
6682.14390,0.09741
6684.07237,0.04246
6686.00084,0.00201
6687.92931,0.01844
6689.85778,0.10225
6691.78625,0.14717
6693.71472,0.06264
6695.64318,-0.06034
6697.57165,-0.08709
6699.50012,-0.04943
6701.42859,-0.00271
6703.35706,0.04074
6705.28553,-0.01036
6707.21400,-0.09250
6709.14247,-0.04985
6711.07093,0.01063
6712.99940,0.01940
6714.92787,0.02981
6716.85634,-0.00205
6718.78481,-0.04352
6720.71328,0.02451
6722.64175,0.11442
6724.57021,0.10199
6726.49868,0.06985
6728.42715,0.06375
6730.35562,0.00259
6732.28409,-0.06782
6734.21256,-0.04182
6736.14103,0.03644
6738.06950,0.12672
6739.99796,0.22192
6741.92643,0.24006
6743.85490,0.15893
6745.78337,0.07279
6747.71184,0.03032
6749.64031,-0.01484
6751.56878,-0.06697
6753.49724,-0.04072
6755.42571,-0.00296
6757.35418,-0.05652
6759.28265,-0.09718
6761.21112,-0.04203
6763.13959,0.02263
6765.06806,0.07428
6766.99653,0.12511
6768.92499,0.13183
6770.85346,0.05138
6772.78193,-0.07087
6774.71040,-0.10320
6776.63887,-0.00169
6778.56734,0.12401
6780.49581,0.18592
6782.42427,0.12204
6784.35274,0.00096
6786.28121,-0.02580
6788.20968,0.00046
6790.13815,-0.00924
6792.06662,0.02565
6793.99509,0.11806
6795.92355,0.15342
6797.85202,0.14343
6799.78049,0.14393
6801.70896,0.12322
6803.63743,0.08715
6805.56590,0.10629
6807.49437,0.12684
6809.42284,0.07390
6811.35130,0.01907
6813.27977,0.04483
6815.20824,0.08767
6817.13671,0.09604
6819.06518,0.08316
6820.99365,0.04254
6822.92212,0.00642
6824.85058,0.00410
6826.77905,0.01689
6828.70752,0.07113
6830.63599,0.13795
6832.56446,0.16522
6834.49293,0.12111
6836.42140,0.03219
6838.34987,0.04285
6840.27833,0.11919
6842.20680,0.17923
6844.13527,0.23888
6846.06374,0.23289
6847.99221,0.16674
6849.92068,0.18400
6851.84915,0.23370
6853.77761,0.22797
6855.70608,0.19564
6857.63455,0.14143
6859.56302,0.06040
6861.49149,-0.03407
6863.41996,-0.07997
6865.34843,-0.02137
6867.27690,0.10696
6869.20536,0.20257
6871.13383,0.22412
6873.06230,0.19799
6874.99077,0.16381
6876.91924,0.14696
6878.84771,0.15826
6880.77618,0.15328
6882.70464,0.10742
6884.63311,0.10090
6886.56158,0.12472
6888.49005,0.10504
6890.41852,0.09882
6892.34699,0.16100
6894.27546,0.21342
6896.20393,0.21625
6898.13239,0.19769
6900.06086,0.15954
6901.98933,0.10881
6903.91780,0.09824
6905.84627,0.13910
6907.77474,0.09434
6909.70321,-0.10481
6911.63167,-0.26773
6913.56014,-0.22924
6915.48861,-0.11355
6917.41708,-0.05195
6919.34555,-0.01698
6921.27402,0.01861
6923.20249,0.02391
6925.13096,0.01052
6927.05942,0.04492
6928.98789,0.11763
6930.91636,0.13090
6932.84483,0.07325
6934.77330,0.04877
6936.70177,0.06100
6938.63024,0.08272
6940.55870,0.10375
6942.48717,0.05916
6944.41564,-0.03831
6946.34411,-0.09555
6948.27258,-0.05742
6950.20105,0.05151
6952.12952,0.12000
6954.05799,0.10401
6955.98645,0.10628
6957.91492,0.13226
6959.84339,0.04713
6961.77186,-0.07724
6963.70033,-0.10411
6965.62880,-0.12582
6967.55727,-0.16481
6969.48573,-0.12002
6971.41420,-0.10031
6973.34267,-0.19945
6975.27114,-0.26508
6977.19961,-0.15939
6979.12808,0.00434
6981.05655,0.06167
6982.98501,-0.02792
6984.91348,-0.11346
6986.84195,-0.08144
6988.77042,-0.01111
6990.69889,-0.01059
6992.62736,-0.03527
6994.55583,-0.02571
6996.48430,0.01428
6998.41276,0.07946
7000.34123,0.13576
7002.26970,0.18650
7004.19817,0.25257
7006.12664,0.20591
7008.05511,-0.00196
7009.98358,-0.12330
7011.91204,-0.06029
7013.84051,0.06635
7015.76898,0.14643
7017.69745,0.16485
7019.62592,0.12447
7021.55439,0.09173
7023.48286,0.11683
7025.41133,0.09753
7027.33979,-0.02321
7029.26826,-0.11435
7031.19673,-0.09186
7033.12520,0.01458
7035.05367,0.12972
7036.98214,0.16506
7038.91061,0.21428
7040.83907,0.30547
7042.76754,0.29285
7044.69601,0.17273
7046.62448,0.10822
7048.55295,0.11180
7050.48142,0.14355
7052.40989,0.16131
7054.33836,0.12303
7056.26682,0.08324
7058.19529,0.09792
7060.12376,0.13373
7062.05223,0.17559
7063.98070,0.17616
7065.90917,0.09499
7067.83764,0.06511
7069.76610,0.16885
7071.69457,0.24450
7073.62304,0.16547
7075.55151,0.03777
7077.47998,-0.00835
7079.40845,0.10296
7081.33692,0.26919
7083.26539,0.23859
7085.19385,0.11173
7087.12232,0.06622
7089.05079,0.06067
7090.97926,0.02942
7092.90773,-0.00452
7094.83620,-0.01761
7096.76467,0.02088
7098.69313,0.06201
7100.62160,-0.03553
7102.55007,-0.18790
7104.47854,-0.16171
7106.40701,0.01428
7108.33548,0.06476
7110.26395,0.03704
7112.19242,0.12282
7114.12088,0.25345
7116.04935,0.28007
7117.97782,0.16090
7119.90629,-0.01649
7121.83476,-0.06362
7123.76323,0.05148
7125.69170,0.18938
7127.62016,0.24152
7129.54863,0.23788
7131.47710,0.23667
7133.40557,0.29134
7135.33404,0.39984
7137.26251,0.37674
7139.19098,0.17981
7141.11944,0.02879
7143.04791,-0.01201
7144.97638,0.03823
7146.90485,0.11578
7148.83332,0.02141
7150.76179,-0.18684
7152.69026,-0.20271
7154.61873,0.03907
7156.54719,0.22788
7158.47566,0.26860
7160.40413,0.16408
7162.33260,-0.06237
7164.26107,-0.18565
7166.18954,-0.02287
7168.11801,0.22840
7170.04647,0.28762
7171.97494,0.21422
7173.90341,0.18410
7175.83188,0.13792
7177.76035,-0.00434
7179.68882,-0.09648
7181.61729,-0.03728
7183.54576,0.06797
7185.47422,0.12732
7187.40269,0.16243
7189.33116,0.18411
7191.25963,0.23953
7193.18810,0.29651
7195.11657,0.26713
7197.04504,0.18198
7198.97350,0.10458
7200.90197,0.07513
7202.83044,0.09720
7204.75891,0.13448
7206.68738,0.10636
7208.61585,0.07231
7210.54432,0.11845
7212.47279,0.15407
7214.40125,0.09757
7216.32972,-0.01961
7218.25819,-0.14998
7220.18666,-0.16270
7222.11513,-0.06891
7224.04360,-0.02961
7225.97207,-0.05721
7227.90053,-0.04864
7229.82900,-0.07855
7231.75747,-0.08984
7233.68594,0.08972
7235.61441,0.25491
7237.54288,0.29959
7239.47135,0.26889
7241.39982,0.09696
7243.32828,-0.12329
7245.25675,-0.17107
7247.18522,-0.15974
7249.11369,-0.14190
7251.04216,-0.12404
7252.97063,-0.20282
7254.89910,-0.25211
7256.82756,-0.08584
7258.75603,0.20076
7260.68450,0.40723
7262.61297,0.42302
7264.54144,0.25901
7266.46991,0.09247
7268.39838,0.10234
7270.32685,0.08956
7272.25531,-0.00321
7274.18378,0.11342
7276.11225,0.27133
7278.04072,0.33856
7279.96919,0.36753
7281.89766,0.24626
7283.82613,0.05862
7285.75459,0.10584
7287.68306,0.28574
7289.61153,0.16813
7291.54000,-0.20335
7293.46847,-0.26622
7295.39694,0.02074
7297.32541,0.20529
7299.25387,0.16463
7301.18234,0.13500
7303.11081,0.16445
7305.03928,0.15259
7306.96775,0.13207
7308.89622,0.12245
7310.82469,0.15449
7312.75316,0.23471
7314.68162,0.24375
7316.61009,0.08935
7318.53856,-0.13477
7320.46703,-0.15028
7322.39550,0.00979
7324.32397,0.08168
7326.25244,0.00541
7328.18090,-0.06011
7330.10937,0.05184
7332.03784,0.23836
7333.96631,0.29730
7335.89478,0.20829
7337.82325,-0.00905
7339.75172,-0.28979
7341.68019,-0.39322
7343.60865,-0.42884
7345.53712,-0.36732
7347.46559,-0.15420
7349.39406,0.05500
7351.32253,0.14116
7353.25100,0.17798
7355.17947,0.29435
7357.10793,0.46826
7359.03640,0.41284
7360.96487,0.11900
7362.89334,-0.09857
7364.82181,-0.11675
7366.75028,0.04300
7368.67875,0.19615
7370.60722,0.16166
7372.53568,0.05928
7374.46415,0.14598
7376.39262,0.35184
7378.32109,0.34506
7380.24956,0.26272
7382.17803,0.23449
7384.10650,0.34195
7386.03496,0.49966
7387.96343,0.41461
7389.89190,0.20777
7391.82037,0.16356
7393.74884,0.27429
7395.67731,0.38258
7397.60578,0.40449
7399.53425,0.42638
7401.46271,0.45287
7403.39118,0.41058
7405.31965,0.33499
7407.24812,0.24462
7409.17659,0.11536
7411.10506,0.08021
7413.03353,0.17438
7414.96199,0.20528
7416.89046,0.18682
7418.81893,0.34725
7420.74740,0.43796
7422.67587,0.29523
7424.60434,0.16561
7426.53281,0.02587
7428.46128,-0.10836
7430.38974,-0.00218
7432.31821,0.18579
7434.24668,0.12467
7436.17515,0.00301
7438.10362,0.08522
7440.03209,0.24438
7441.96056,0.27710
7443.88902,0.17981
7445.81749,0.02049
7447.74596,-0.07144
7449.67443,-0.07652
7451.60290,-0.07972
7453.53137,0.00948
7455.45984,0.16615
7457.38831,0.29572
7459.31677,0.37221
7461.24524,0.33843
7463.17371,0.24782
7465.10218,0.18533
7467.03065,0.20515
7468.95912,0.29626
7470.88759,0.36809
7472.81605,0.30823
7474.74452,0.19064
7476.67299,0.10936
7478.60146,0.01736
7480.52993,0.02931
7482.45840,0.21447
7484.38687,0.37304
7486.31533,0.34810
7488.24380,0.13477
7490.17227,-0.02046
7492.10074,-0.03777
7494.02921,-0.03134
7495.95768,-0.00142
7497.88615,0.03836
