399.19301,3.35936
401.12148,-0.43431
403.04995,-0.07927
404.97842,0.28774
406.90689,0.32861
408.83536,0.29939
410.76382,0.21523
412.69229,0.15912
414.62076,0.16082
416.54923,0.12767
418.47770,0.10949
420.40617,0.10471
422.33464,0.04602
424.26311,0.06406
426.19157,0.11934
428.12004,0.09870
430.04851,0.06312
431.97698,0.06096
433.90545,0.08742
435.83392,0.08852
437.76239,0.00994
439.69085,-0.07705
441.61932,-0.06911
443.54779,-0.02002
445.47626,-0.01867
447.40473,0.02082
449.33320,0.10115
451.26167,0.07239
453.19013,-0.00652
455.11860,0.00809
457.04707,0.09604
458.97554,0.17441
460.90401,0.17793
462.83248,0.12455
464.76095,0.05568
466.68942,0.01191
468.61788,-0.01025
470.54635,-0.01503
472.47482,-0.03807
474.40329,-0.10977
476.33176,-0.06799
478.26023,0.00927
480.18870,0.01481
482.11716,0.01676
484.04563,0.09087
485.97410,0.17617
487.90257,0.21992
489.83104,0.20386
491.75951,0.13587
493.68798,0.07569
495.61645,0.09270
497.54491,0.13814
499.47338,0.09546
501.40185,0.04800
503.33032,0.08809
505.25879,0.12090
507.18726,0.11797
509.11573,0.11172
511.04419,0.06575
512.97266,0.01474
514.90113,0.02110
516.82960,0.05178
518.75807,0.07555
520.68654,0.09250
522.61501,0.09235
524.54348,0.10059
526.47194,0.14386
528.40041,0.14432
530.32888,0.08648
532.25735,0.04289
534.18582,0.04300
536.11429,0.07247
538.04276,0.11668
539.97122,0.15833
541.89969,0.14873
543.82816,0.06725
545.75663,-0.02028
547.68510,-0.04446
549.61357,0.18570
551.54204,1.37704
553.47051,2.86013
555.39897,2.50723
557.32744,0.87928
559.25591,0.11321
561.18438,0.06728
563.11285,0.04325
565.04132,0.01800
566.96979,0.04106
568.89825,0.07353
570.82672,0.04388
572.75519,0.01302
574.68366,0.02338
576.61213,0.04886
578.54060,0.05529
580.46907,0.05374
582.39754,0.06230
584.32600,0.07808
586.25447,0.08674
588.18294,0.06956
590.11141,0.03346
592.03988,0.01630
593.96835,0.05275
595.89682,0.09330
597.82528,0.06860
599.75375,-0.01019
601.68222,-0.03604
603.61069,0.01655
605.53916,0.05446
607.46763,0.07377
609.39610,0.09379
611.32456,0.08017
613.25303,0.04421
615.18150,0.03012
617.10997,0.03719
619.03844,0.06280
620.96691,0.09539
622.89538,0.09610
624.82385,0.06867
626.75231,0.04979
628.68078,0.06124
630.60925,0.08763
632.53772,0.09812
634.46619,0.09369
636.39466,0.09909
638.32313,0.11040
640.25159,0.11916
642.18006,0.12881
644.10853,0.12065
646.03700,0.09381
647.96547,0.08291
649.89394,0.09324
651.82241,0.08932
653.75088,0.06841
655.67934,0.05450
657.60781,0.04824
659.53628,0.04553
661.46475,0.05369
663.39322,0.06733
665.32169,0.07147
667.25016,0.05351
669.17862,0.02357
671.10709,0.02801
673.03556,0.04748
674.96403,0.06714
676.89250,0.08914
678.82097,0.10458
680.74944,0.10764
682.67791,0.09978
684.60637,0.08843
686.53484,0.10149
688.46331,0.12351
690.39178,0.10032
692.32025,0.06560
694.24872,0.07803
696.17719,0.11046
698.10565,0.12116
700.03412,0.10794
701.96259,0.08634
703.89106,0.07550
705.81953,0.07365
707.74800,0.07496
709.67647,0.08270
711.60494,0.07873
713.53340,0.06528
715.46187,0.07117
717.39034,0.08690
719.31881,0.09532
721.24728,0.10389
723.17575,0.10627
725.10422,0.09705
727.03268,0.09868
728.96115,0.11264
730.88962,0.10971
732.81809,0.08823
734.74656,0.07558
736.67503,0.07791
738.60350,0.08809
740.53197,0.09955
742.46043,0.09816
744.38890,0.09234
746.31737,0.09485
748.24584,0.09329
750.17431,0.08418
752.10278,0.08588
754.03125,0.10275
755.95971,0.11457
757.88818,0.10916
759.81665,0.09206
761.74512,0.07746
763.67359,0.07364
765.60206,0.08274
767.53053,0.09835
769.45900,0.10385
771.38746,0.10202
773.31593,0.10602
775.24440,0.11713
777.17287,0.11958
779.10134,0.10749
781.02981,0.10145
782.95828,0.10441
784.88674,0.10568
786.81521,0.10187
788.74368,0.08851
790.67215,0.07341
792.60062,0.07378
794.52909,0.08613
796.45756,0.09805
798.38602,0.11486
800.31449,0.12606
802.24296,0.11591
804.17143,0.10500
806.09990,0.10733
808.02837,0.10889
809.95684,0.10291
811.88531,0.09248
813.81377,0.08184
815.74224,0.08347
817.67071,0.10611
819.59918,0.13206
821.52765,0.13300
823.45612,0.11190
825.38459,0.09591
827.31305,0.09947
829.24152,0.11473
831.16999,0.11788
833.09846,0.09942
835.02693,0.08500
836.95540,0.08603
838.88387,0.08564
840.81234,0.08479
842.74080,0.09001
844.66927,0.10000
846.59774,0.11254
848.52621,0.11586
850.45468,0.11340
852.38315,0.11875
854.31162,0.12355
856.24008,0.12228
858.16855,0.11522
860.09702,0.10382
862.02549,0.10031
863.95396,0.10407
865.88243,0.10969
867.81090,0.12409
869.73937,0.14317
871.66783,0.14780
873.59630,0.13789
875.52477,0.12911
877.45324,0.11973
879.38171,0.11249
881.31018,0.11870
883.23865,0.12805
885.16711,0.12757
887.09558,0.11812
889.02405,0.10637
890.95252,0.10086
892.88099,0.10667
894.80946,0.11963
896.73793,0.12520
898.66640,0.11442
900.59486,0.09955
902.52333,0.09867
904.45180,0.10610
906.38027,0.10792
908.30874,0.11139
910.23721,0.12319
912.16568,0.13596
914.09414,0.13974
916.02261,0.13185
917.95108,0.12308
919.87955,0.12114
921.80802,0.12346
923.73649,0.12421
925.66496,0.12089
927.59343,0.11986
929.52189,0.12387
931.45036,0.12621
933.37883,0.12334
935.30730,0.12770
937.23577,0.14314
939.16424,0.14540
941.09271,0.12731
943.02117,0.10876
944.94964,0.10124
946.87811,0.10499
948.80658,0.11480
950.73505,0.12075
952.66352,0.11838
954.59199,0.11636
956.52045,0.11944
958.44892,0.11709
960.37739,0.11093
962.30586,0.11679
964.23433,0.12766
966.16280,0.12314
968.09127,0.11253
970.01974,0.11361
971.94820,0.12032
973.87667,0.12431
975.80514,0.12730
977.73361,0.12982
979.66208,0.12985
981.59055,0.12942
983.51902,0.12930
985.44748,0.12385
987.37595,0.11799
989.30442,0.12074
991.23289,0.12678
993.16136,0.12932
995.08983,0.12736
997.01830,0.11976
998.94677,0.11255
1000.87523,0.11505
1002.80370,0.12204
1004.73217,0.12440
1006.66064,0.12230
1008.58911,0.12362
1010.51758,0.13075
1012.44605,0.12981
1014.37451,0.11996
1016.30298,0.11391
1018.23145,0.11432
1020.15992,0.11743
1022.08839,0.11928
1024.01686,0.10746
1025.94533,0.08269
1027.87380,0.07362
1029.80226,0.07664
1031.73073,0.08283
1033.65920,0.10416
1035.58767,0.11984
1037.51614,0.12418
1039.44461,0.12813
1041.37308,0.12456
1043.30154,0.11397
1045.23001,0.10759
1047.15848,0.12281
1049.08695,0.15005
1051.01542,0.15689
1052.94389,0.14152
1054.87236,0.12934
1056.80083,0.13250
1058.72929,0.14465
1060.65776,0.15584
1062.58623,0.15703
1064.51470,0.14588
1066.44317,0.12828
1068.37164,0.12194
1070.30011,0.13497
1072.22857,0.14532
1074.15704,0.14424
1076.08551,0.14360
1078.01398,0.13904
1079.94245,0.12905
1081.87092,0.12409
1083.79939,0.12286
1085.72786,0.12238
1087.65632,0.12918
1089.58479,0.14046
1091.51326,0.14283
1093.44173,0.13917
1095.37020,0.14060
1097.29867,0.14288
1099.22714,0.14139
1101.15560,0.13993
1103.08407,0.14284
1105.01254,0.14441
1106.94101,0.13292
1108.86948,0.12168
1110.79795,0.12969
1112.72642,0.14435
1114.65489,0.15075
1116.58335,0.14899
1118.51182,0.14078
1120.44029,0.13334
1122.36876,0.13419
1124.29723,0.13994
1126.22570,0.14034
1128.15417,0.13383
1130.08263,0.13073
1132.01110,0.13279
1133.93957,0.13178
1135.86804,0.12681
1137.79651,0.12405
1139.72498,0.12621
1141.65345,0.12897
1143.58191,0.12745
1145.51038,0.12625
1147.43885,0.13176
1149.36732,0.13884
1151.29579,0.14114
1153.22426,0.14064
1155.15273,0.13966
1157.08120,0.13819
1159.00966,0.13769
1160.93813,0.13858
1162.86660,0.13948
1164.79507,0.14018
1166.72354,0.13933
1168.65201,0.13569
1170.58048,0.13269
1172.50894,0.13453
1174.43741,0.14032
1176.36588,0.14551
1178.29435,0.14767
1180.22282,0.14561
1182.15129,0.14109
1184.07976,0.13911
1186.00823,0.13851
1187.93669,0.13907
1189.86516,0.14224
1191.79363,0.14085
1193.72210,0.13469
1195.65057,0.13224
1197.57904,0.13067
1199.50751,0.12714
1201.43597,0.13068
1203.36444,0.14039
1205.29291,0.14657
1207.22138,0.14810
1209.14985,0.14601
1211.07832,0.14148
1213.00679,0.13821
1214.93526,0.13791
1216.86372,0.13928
1218.79219,0.14307
1220.72066,0.14772
1222.64913,0.14661
1224.57760,0.14270
1226.50607,0.14006
1228.43454,0.13535
1230.36300,0.13095
1232.29147,0.13106
1234.21994,0.13564
1236.14841,0.14113
1238.07688,0.14289
1240.00535,0.14147
1241.93382,0.14062
1243.86229,0.13923
1245.79075,0.13663
1247.71922,0.13940
1249.64769,0.14594
1251.57616,0.14660
1253.50463,0.14361
1255.43310,0.14428
1257.36157,0.14830
1259.29003,0.14910
1261.21850,0.14109
1263.14697,0.13214
1265.07544,0.13066
1267.00391,0.13226
1268.93238,0.13639
1270.86085,0.14438
1272.78932,0.14846
1274.71778,0.14648
1276.64625,0.14645
1278.57472,0.14822
1280.50319,0.14403
1282.43166,0.13779
1284.36013,0.13776
1286.28860,0.14094
1288.21706,0.14333
1290.14553,0.14585
1292.07400,0.14685
1294.00247,0.14558
1295.93094,0.14429
1297.85941,0.14177
1299.78788,0.13416
1301.71634,0.11995
1303.64481,0.10467
1305.57328,0.10488
1307.50175,0.12577
1309.43022,0.14395
1311.35869,0.14756
1313.28716,0.14942
1315.21563,0.15052
1317.14409,0.14763
1319.07256,0.14710
1321.00103,0.14831
1322.92950,0.14801
1324.85797,0.14613
1326.78644,0.14484
1328.71491,0.14620
1330.64337,0.14531
1332.57184,0.14193
1334.50031,0.14024
1336.42878,0.14196
1338.35725,0.14926
1340.28572,0.15123
1342.21419,0.14646
1344.14266,0.15094
1346.07112,0.15832
1347.99959,0.15602
1349.92806,0.14832
1351.85653,0.14380
1353.78500,0.14501
1355.71347,0.14884
1357.64194,0.15312
1359.57040,0.15910
1361.49887,0.16568
1363.42734,0.16421
1365.35581,0.15550
1367.28428,0.15122
1369.21275,0.15391
1371.14122,0.16131
1373.06969,0.17060
1374.99815,0.17602
1376.92662,0.17350
1378.85509,0.16654
1380.78356,0.16296
1382.71203,0.16566
1384.64050,0.16966
1386.56897,0.16949
1388.49743,0.16380
1390.42590,0.16012
1392.35437,0.16270
1394.28284,0.16575
1396.21131,0.16509
1398.13978,0.16479
1400.06825,0.16420
1401.99672,0.16463
1403.92518,0.16790
1405.85365,0.16958
1407.78212,0.16722
1409.71059,0.16297
1411.63906,0.16314
1413.56753,0.16921
1415.49600,0.17394
1417.42446,0.17740
1419.35293,0.17790
1421.28140,0.17282
1423.20987,0.17136
1425.13834,0.17263
1427.06681,0.17178
1428.99528,0.16859
1430.92375,0.16546
1432.85221,0.16936
1434.78068,0.18188
1436.70915,0.19028
1438.63762,0.18185
1440.56609,0.17258
1442.49456,0.17043
1444.42303,0.17369
1446.35149,0.18018
1448.27996,0.18426
1450.20843,0.18385
1452.13690,0.18645
1454.06537,0.20292
1455.99384,0.23694
1457.92231,0.24247
1459.85077,0.20350
1461.77924,0.17797
1463.70771,0.17269
1465.63618,0.17708
1467.56465,0.17769
1469.49312,0.18105
1471.42159,0.19719
1473.35006,0.21401
1475.27852,0.20487
1477.20699,0.18670
1479.13546,0.17927
1481.06393,0.17832
1482.99240,0.17654
1484.92087,0.18217
1486.84934,0.20003
1488.77780,0.21600
1490.70627,0.21151
1492.63474,0.20003
1494.56321,0.19938
1496.49168,0.20827
1498.42015,0.20801
1500.34862,0.19557
1502.27709,0.19019
1504.20555,0.20131
1506.13402,0.22917
1508.06249,0.23598
1509.99096,0.21764
1511.91943,0.20749
1513.84790,0.20813
1515.77637,0.21638
1517.70483,0.22323
1519.63330,0.22694
1521.56177,0.22736
1523.49024,0.21801
1525.41871,0.20910
1527.34718,0.19966
1529.27565,0.18905
1531.20412,0.18645
1533.13258,0.19306
1535.06105,0.20008
1536.98952,0.21107
1538.91799,0.23828
1540.84646,0.25709
1542.77493,0.23776
1544.70340,0.21732
1546.63186,0.20296
1548.56033,0.19755
1550.48880,0.19995
1552.41727,0.20476
1554.34574,0.21246
1556.27421,0.23090
1558.20268,0.25659
1560.13115,0.23167
1562.05961,0.20154
1563.98808,0.19249
1565.91655,0.19124
1567.84502,0.19922
1569.77349,0.20805
1571.70196,0.20350
1573.63043,0.20054
1575.55889,0.20235
1577.48736,0.19588
1579.41583,0.18492
1581.34430,0.17875
1583.27277,0.17983
1585.20124,0.18078
1587.12971,0.17639
1589.05818,0.17568
1590.98664,0.18076
1592.91511,0.18343
1594.84358,0.18157
1596.77205,0.17782
1598.70052,0.17626
1600.62899,0.18037
1602.55746,0.18511
1604.48592,0.18271
1606.41439,0.17954
1608.34286,0.18179
1610.27133,0.18245
1612.19980,0.18300
1614.12827,0.19133
1616.05674,0.20200
1617.98521,0.20035
1619.91367,0.19740
1621.84214,0.20087
1623.77061,0.19479
1625.69908,0.18246
1627.62755,0.18610
1629.55602,0.19538
1631.48449,0.19888
1633.41295,0.21084
1635.34142,0.23458
1637.26989,0.23049
1639.19836,0.20717
1641.12683,0.19410
1643.05530,0.19385
1644.98377,0.20669
1646.91223,0.22336
1648.84070,0.21947
1650.76917,0.21744
1652.69764,0.23458
1654.62611,0.22948
1656.55458,0.20826
1658.48305,0.20252
1660.41152,0.21356
1662.33998,0.22470
1664.26845,0.21447
1666.19692,0.20558
1668.12539,0.21355
1670.05386,0.21821
1671.98233,0.20858
1673.91080,0.20398
1675.83926,0.20421
1677.76773,0.20587
1679.69620,0.21293
1681.62467,0.22456
1683.55314,0.23226
1685.48161,0.21857
1687.41008,0.20518
1689.33855,0.20283
1691.26701,0.20215
1693.19548,0.20519
1695.12395,0.21752
1697.05242,0.23000
1698.98089,0.23464
1700.90936,0.22715
1702.83783,0.21458
1704.76629,0.21007
1706.69476,0.20609
1708.62323,0.19640
1710.55170,0.19010
1712.48017,0.19643
1714.40864,0.21585
1716.33711,0.23677
1718.26558,0.22681
1720.19404,0.19646
1722.12251,0.17930
1724.05098,0.17507
1725.97945,0.17446
1727.90792,0.17697
1729.83639,0.18728
1731.76486,0.20288
1733.69332,0.21307
1735.62179,0.20748
1737.55026,0.20074
1739.47873,0.19855
1741.40720,0.19775
1743.33567,0.19867
1745.26414,0.20248
1747.19261,0.20822
1749.12107,0.21024
1751.04954,0.20048
1752.97801,0.18824
1754.90648,0.18598
1756.83495,0.18878
1758.76342,0.19000
1760.69189,0.19406
1762.62035,0.19732
1764.54882,0.19548
1766.47729,0.19502
1768.40576,0.19909
1770.33423,0.21161
1772.26270,0.22224
1774.19117,0.21221
1776.11964,0.20037
1778.04810,0.19837
1779.97657,0.19812
1781.90504,0.19297
1783.83351,0.18689
1785.76198,0.18186
1787.69045,0.17909
1789.61892,0.18471
1791.54738,0.19818
1793.47585,0.20457
1795.40432,0.20052
1797.33279,0.19612
1799.26126,0.19486
1801.18973,0.19455
1803.11820,0.19194
1805.04666,0.18913
1806.97513,0.18787
1808.90360,0.18893
1810.83207,0.19250
1812.76054,0.19387
1814.68901,0.19090
1816.61748,0.18622
1818.54595,0.18611
1820.47441,0.19187
1822.40288,0.19394
1824.33135,0.19077
1826.25982,0.18932
1828.18829,0.19099
1830.11676,0.19232
1832.04523,0.18994
1833.97369,0.18786
1835.90216,0.18804
1837.83063,0.18713
1839.75910,0.18599
1841.68757,0.19012
1843.61604,0.19955
1845.54451,0.20162
1847.47298,0.19429
1849.40144,0.18790
1851.32991,0.18571
1853.25838,0.18608
1855.18685,0.18564
1857.11532,0.18408
1859.04379,0.18325
1860.97226,0.18331
1862.90072,0.18530
1864.82919,0.19122
1866.75766,0.20097
1868.68613,0.20656
1870.61460,0.19882
1872.54307,0.18605
1874.47154,0.17729
1876.40001,0.17460
1878.32847,0.17571
1880.25694,0.17725
1882.18541,0.17959
1884.11388,0.18394
1886.04235,0.18877
1887.97082,0.19258
1889.89929,0.19183
1891.82775,0.18514
1893.75622,0.17936
1895.68469,0.17766
1897.61316,0.17877
1899.54163,0.18209
1901.47010,0.18624
1903.39857,0.18882
1905.32704,0.18853
1907.25550,0.18799
1909.18397,0.18798
1911.11244,0.18672
1913.04091,0.18492
1914.96938,0.18401
1916.89785,0.18665
1918.82632,0.19127
1920.75478,0.19328
1922.68325,0.19217
1924.61172,0.18799
1926.54019,0.18509
1928.46866,0.18734
1930.39713,0.19175
1932.32560,0.19256
1934.25407,0.18791
1936.18253,0.18209
1938.11100,0.18054
1940.03947,0.18399
1941.96794,0.18832
1943.89641,0.19053
1945.82488,0.19222
1947.75335,0.19143
1949.68181,0.18636
1951.61028,0.18238
1953.53875,0.18294
1955.46722,0.18407
1957.39569,0.18226
1959.32416,0.18038
1961.25263,0.18065
1963.18110,0.18187
1965.10956,0.18465
1967.03803,0.18776
1968.96650,0.18691
1970.89497,0.18290
1972.82344,0.18020
1974.75191,0.17999
1976.68038,0.18153
1978.60884,0.18497
1980.53731,0.18795
1982.46578,0.18712
1984.39425,0.18590
1986.32272,0.18804
1988.25119,0.18966
1990.17966,0.18912
1992.10812,0.18843
1994.03659,0.18782
1995.96506,0.18810
1997.89353,0.19004
1999.82200,0.19301
2001.75047,0.19446
2003.67894,0.19244
2005.60741,0.18933
2007.53587,0.18808
2009.46434,0.18796
2011.39281,0.18767
2013.32128,0.18672
2015.24975,0.18732
2017.17822,0.18986
2019.10669,0.18852
2021.03515,0.18468
2022.96362,0.18465
2024.89209,0.18628
2026.82056,0.18698
2028.74903,0.18764
2030.67750,0.18714
2032.60597,0.18671
2034.53444,0.18736
2036.46290,0.18871
2038.39137,0.19166
2040.31984,0.19248
2042.24831,0.19057
2044.17678,0.19022
2046.10525,0.18997
2048.03372,0.18724
2049.96218,0.18520
2051.89065,0.18799
2053.81912,0.19183
2055.74759,0.19168
2057.67606,0.19061
2059.60453,0.19242
2061.53300,0.19524
2063.46147,0.19611
2065.38993,0.19439
2067.31840,0.19024
2069.24687,0.18539
2071.17534,0.18213
2073.10381,0.18165
2075.03228,0.18405
2076.96075,0.18698
2078.88921,0.18876
2080.81768,0.18918
2082.74615,0.18715
2084.67462,0.18570
2086.60309,0.18833
2088.53156,0.19065
2090.46003,0.18946
2092.38850,0.18869
2094.31696,0.19056
2096.24543,0.19220
2098.17390,0.19166
2100.10237,0.19005
2102.03084,0.18813
2103.95931,0.18626
2105.88778,0.18545
2107.81624,0.18679
2109.74471,0.18949
2111.67318,0.19017
2113.60165,0.18855
2115.53012,0.18706
2117.45859,0.18663
2119.38706,0.18811
2121.31553,0.18953
2123.24399,0.18887
2125.17246,0.18851
2127.10093,0.18870
2129.02940,0.18765
2130.95787,0.18729
2132.88634,0.18815
2134.81481,0.18600
2136.74327,0.18202
2138.67174,0.18108
2140.60021,0.18211
2142.52868,0.18259
2144.45715,0.18375
2146.38562,0.18650
2148.31409,0.18839
2150.24255,0.18933
2152.17102,0.18961
2154.09949,0.18774
2156.02796,0.18781
2157.95643,0.19047
2159.88490,0.19158
2161.81337,0.19175
2163.74184,0.19098
2165.67030,0.18935
2167.59877,0.18936
2169.52724,0.19182
2171.45571,0.19481
2173.38418,0.19512
2175.31265,0.19321
2177.24112,0.19349
2179.16958,0.19676
2181.09805,0.19869
2183.02652,0.19609
2184.95499,0.19093
2186.88346,0.18776
2188.81193,0.18694
2190.74040,0.18754
2192.66887,0.19188
2194.59733,0.19646
2196.52580,0.19592
2198.45427,0.19342
2200.38274,0.19285
2202.31121,0.19400
2204.23968,0.19545
2206.16815,0.19564
2208.09661,0.19498
2210.02508,0.19457
2211.95355,0.19415
2213.88202,0.19405
2215.81049,0.19399
2217.73896,0.19257
2219.66743,0.19089
2221.59590,0.19056
2223.52436,0.18951
2225.45283,0.18637
2227.38130,0.18578
2229.30977,0.19061
2231.23824,0.19417
2233.16671,0.19198
2235.09518,0.18995
2237.02364,0.19042
2238.95211,0.19106
2240.88058,0.19384
2242.80905,0.19744
2244.73752,0.19740
2246.66599,0.19464
2248.59446,0.19305
2250.52293,0.19411
2252.45139,0.19497
2254.37986,0.19332
2256.30833,0.19268
2258.23680,0.19588
2260.16527,0.19753
2262.09374,0.19303
2264.02221,0.18676
2265.95067,0.18393
2267.87914,0.18368
2269.80761,0.18398
2271.73608,0.18622
2273.66455,0.19053
2275.59302,0.19484
2277.52149,0.19716
2279.44996,0.19549
2281.37842,0.19158
2283.30689,0.18920
2285.23536,0.18759
2287.16383,0.18506
2289.09230,0.18543
2291.02077,0.19125
2292.94924,0.19980
2294.87770,0.20771
2296.80617,0.20838
2298.73464,0.20146
2300.66311,0.19754
2302.59158,0.20044
2304.52005,0.20587
2306.44852,0.21069
2308.37699,0.21451
2310.30545,0.21842
2312.23392,0.21906
2314.16239,0.21431
2316.09086,0.21299
2318.01933,0.21875
2319.94780,0.22232
2321.87627,0.22421
2323.80473,0.23319
2325.73320,0.24343
2327.66167,0.24348
2329.59014,0.23608
2331.51861,0.23274
2333.44708,0.23330
2335.37555,0.23598
2337.30401,0.23952
2339.23248,0.23719
2341.16095,0.22913
2343.08942,0.21661
2345.01789,0.20736
2346.94636,0.21044
2348.87483,0.21914
2350.80330,0.22475
2352.73176,0.22128
2354.66023,0.21029
2356.58870,0.20176
2358.51717,0.20646
2360.44564,0.22649
2362.37411,0.24212
2364.30258,0.24137
2366.23104,0.24082
2368.15951,0.24864
2370.08798,0.24016
2372.01645,0.21300
2373.94492,0.19846
2375.87339,0.20185
2377.80186,0.20537
2379.73033,0.20356
2381.65879,0.19922
2383.58726,0.19588
2385.51573,0.19479
2387.44420,0.19243
2389.37267,0.18959
2391.30114,0.19056
2393.22961,0.19412
2395.15807,0.19641
2397.08654,0.19583
2399.01501,0.19401
2400.94348,0.19407
2402.87195,0.19657
2404.80042,0.19914
2406.72889,0.19968
2408.65736,0.19968
2410.58582,0.20072
2412.51429,0.20028
2414.44276,0.19751
2416.37123,0.19511
2418.29970,0.19524
2420.22817,0.19767
2422.15664,0.19812
2424.08510,0.19399
2426.01357,0.19052
2427.94204,0.19016
2429.87051,0.18972
2431.79898,0.19022
2433.72745,0.19246
2435.65592,0.19432
2437.58439,0.19522
2439.51285,0.19425
2441.44132,0.19263
2443.36979,0.19517
2445.29826,0.20036
2447.22673,0.19929
2449.15520,0.18985
2451.08367,0.17918
2453.01213,0.17455
2454.94060,0.17713
2456.86907,0.18361
2458.79754,0.19109
2460.72601,0.19618
2462.65448,0.19725
2464.58295,0.19633
2466.51142,0.19582
2468.43988,0.19479
2470.36835,0.19226
2472.29682,0.19139
2474.22529,0.19293
2476.15376,0.19483
2478.08223,0.19639
2480.01070,0.19563
2481.93916,0.19169
2483.86763,0.18962
2485.79610,0.19211
2487.72457,0.19526
2489.65304,0.19705
2491.58151,0.19745
2493.50998,0.19726
2495.43844,0.19797
2497.36691,0.19862
2499.29538,0.19739
2501.22385,0.19510
2503.15232,0.19405
2505.08079,0.19535
2507.00926,0.19770
2508.93773,0.19666
2510.86619,0.19360
2512.79466,0.19465
2514.72313,0.19894
2516.65160,0.20143
2518.58007,0.20088
2520.50854,0.20009
2522.43701,0.19794
2524.36547,0.19231
2526.29394,0.18797
2528.22241,0.18880
2530.15088,0.19253
2532.07935,0.19426
2534.00782,0.19258
2535.93629,0.19181
2537.86476,0.19339
2539.79322,0.19345
2541.72169,0.19245
2543.65016,0.19518
2545.57863,0.20065
2547.50710,0.20323
2549.43557,0.20205
2551.36404,0.19935
2553.29250,0.19697
2555.22097,0.19669
2557.14944,0.19690
2559.07791,0.19633
2561.00638,0.19557
2562.93485,0.19331
2564.86332,0.19113
2566.79179,0.19344
2568.72025,0.19745
2570.64872,0.19903
2572.57719,0.20154
2574.50566,0.20328
2576.43413,0.19904
2578.36260,0.19298
2580.29107,0.19276
2582.21953,0.19772
2584.14800,0.19889
2586.07647,0.19466
2588.00494,0.19219
2589.93341,0.19424
2591.86188,0.19900
2593.79035,0.20300
2595.71882,0.20241
2597.64728,0.19870
2599.57575,0.19632
2601.50422,0.19572
2603.43269,0.19618
2605.36116,0.19752
2607.28963,0.19836
2609.21810,0.19702
2611.14656,0.19413
2613.07503,0.19302
2615.00350,0.19529
2616.93197,0.19929
2618.86044,0.20248
2620.78891,0.20374
2622.71738,0.20236
2624.64585,0.19847
2626.57431,0.19512
2628.50278,0.19384
2630.43125,0.19308
2632.35972,0.19307
2634.28819,0.19511
2636.21666,0.19814
2638.14513,0.20017
2640.07359,0.20010
2642.00206,0.20022
2643.93053,0.20097
2645.85900,0.19852
2647.78747,0.19566
2649.71594,0.19593
2651.64441,0.19566
2653.57288,0.19359
2655.50134,0.19386
2657.42981,0.19747
2659.35828,0.20126
2661.28675,0.20467
2663.21522,0.20635
2665.14369,0.20366
2667.07216,0.19942
2669.00062,0.19825
2670.92909,0.20069
2672.85756,0.20359
2674.78603,0.20448
2676.71450,0.20210
2678.64297,0.19532
2680.57144,0.19051
2682.49990,0.19393
2684.42837,0.20016
2686.35684,0.20323
2688.28531,0.20274
2690.21378,0.20182
2692.14225,0.20216
2694.07072,0.20034
2695.99919,0.19694
2697.92765,0.19553
2699.85612,0.19613
2701.78459,0.19687
2703.71306,0.19737
2705.64153,0.19836
2707.57000,0.19895
2709.49847,0.19947
2711.42693,0.20196
2713.35540,0.20550
2715.28387,0.20677
2717.21234,0.20597
2719.14081,0.20563
2721.06928,0.20650
2722.99775,0.20661
2724.92622,0.20251
2726.85468,0.19800
2728.78315,0.19876
2730.71162,0.19993
2732.64009,0.19876
2734.56856,0.19931
2736.49703,0.20033
2738.42550,0.20100
2740.35396,0.20396
2742.28243,0.20681
2744.21090,0.20530
2746.13937,0.19988
2748.06784,0.19563
2749.99631,0.19780
2751.92478,0.20484
2753.85325,0.20962
2755.78171,0.21026
2757.71018,0.21194
2759.63865,0.21462
2761.56712,0.21424
2763.49559,0.21445
2765.42406,0.21577
2767.35253,0.21200
2769.28099,0.20536
2771.20946,0.20224
2773.13793,0.20500
2775.06640,0.21081
2776.99487,0.21246
2778.92334,0.20981
2780.85181,0.21071
2782.78028,0.21540
2784.70874,0.21679
2786.63721,0.21374
2788.56568,0.21101
2790.49415,0.21208
2792.42262,0.21432
2794.35109,0.21197
2796.27956,0.20635
2798.20802,0.20338
2800.13649,0.20485
2802.06496,0.20904
2803.99343,0.21289
2805.92190,0.21376
2807.85037,0.21235
2809.77884,0.21090
2811.70731,0.21089
2813.63577,0.21046
2815.56424,0.20748
2817.49271,0.20593
2819.42118,0.20935
2821.34965,0.21425
2823.27812,0.21602
2825.20659,0.21495
2827.13505,0.21410
2829.06352,0.21559
2830.99199,0.21931
2832.92046,0.22160
2834.84893,0.21888
2836.77740,0.21533
2838.70587,0.21519
2840.63433,0.21401
2842.56280,0.21020
2844.49127,0.20837
2846.41974,0.20987
2848.34821,0.21231
2850.27668,0.21160
2852.20515,0.20642
2854.13362,0.20307
2856.06208,0.20582
2857.99055,0.20834
2859.91902,0.20753
2861.84749,0.21042
2863.77596,0.21550
2865.70443,0.21360
2867.63290,0.20830
2869.56136,0.20843
2871.48983,0.21392
2873.41830,0.21807
2875.34677,0.21554
2877.27524,0.20992
2879.20371,0.20894
2881.13218,0.21141
2883.06065,0.20998
2884.98911,0.20817
2886.91758,0.21132
2888.84605,0.21356
2890.77452,0.21272
2892.70299,0.20980
2894.63146,0.20503
2896.55993,0.20395
2898.48839,0.20872
2900.41686,0.21404
2902.34533,0.21503
2904.27380,0.21052
2906.20227,0.20447
2908.13074,0.20248
2910.05921,0.20353
2911.98768,0.20547
2913.91614,0.20468
2915.84461,0.19880
2917.77308,0.19701
2919.70155,0.20053
2921.63002,0.20398
2923.55849,0.20487
2925.48696,0.19561
2927.41542,0.18702
2929.34389,0.19366
2931.27236,0.20256
2933.20083,0.20389
2935.12930,0.19841
2937.05777,0.18812
2938.98624,0.18792
2940.91471,0.20112
2942.84317,0.21181
2944.77164,0.21104
2946.70011,0.20198
2948.62858,0.19953
2950.55705,0.20833
2952.48552,0.21280
2954.41399,0.20521
2956.34245,0.18868
2958.27092,0.17888
2960.19939,0.19056
2962.12786,0.20918
2964.05633,0.21572
2965.98480,0.20743
2967.91327,0.19536
2969.84174,0.19806
2971.77020,0.20970
2973.69867,0.21172
2975.62714,0.20423
2977.55561,0.19542
2979.48408,0.19531
2981.41255,0.20580
2983.34102,0.21617
2985.26948,0.21817
2987.19795,0.21055
2989.12642,0.20544
2991.05489,0.21074
2992.98336,0.21681
2994.91183,0.22014
2996.84030,0.22036
2998.76877,0.21780
3000.69723,0.21652
3002.62570,0.21342
3004.55417,0.21085
3006.48264,0.21362
3008.41111,0.21265
3010.33958,0.19512
3012.26805,0.15854
3014.19651,0.11461
3016.12498,0.08862
3018.05345,0.10894
3019.98192,0.16454
3021.91039,0.20773
3023.83886,0.22094
3025.76733,0.21866
3027.69579,0.21439
3029.62426,0.21784
3031.55273,0.22426
3033.48120,0.22273
3035.40967,0.21604
3037.33814,0.21011
3039.26661,0.20803
3041.19508,0.20972
3043.12354,0.20983
3045.05201,0.20560
3046.98048,0.20148
3048.90895,0.20261
3050.83742,0.20802
3052.76589,0.21348
3054.69436,0.21192
3056.62282,0.20424
3058.55129,0.20413
3060.47976,0.21178
3062.40823,0.21361
3064.33670,0.20387
3066.26517,0.19350
3068.19364,0.19770
3070.12211,0.20654
3072.05057,0.20234
3073.97904,0.18949
3075.90751,0.18245
3077.83598,0.18983
3079.76445,0.20596
3081.69292,0.21596
3083.62139,0.21406
3085.54985,0.21379
3087.47832,0.22342
3089.40679,0.22779
3091.33526,0.21892
3093.26373,0.20253
3095.19220,0.19075
3097.12067,0.19929
3099.04914,0.22060
3100.97760,0.22879
3102.90607,0.21584
3104.83454,0.20388
3106.76301,0.20657
3108.69148,0.21236
3110.61995,0.21156
3112.54842,0.20486
3114.47688,0.20148
3116.40535,0.20705
3118.33382,0.21447
3120.26229,0.21418
3122.19076,0.21169
3124.11923,0.21843
3126.04770,0.22454
3127.97617,0.22028
3129.90463,0.21295
3131.83310,0.21077
3133.76157,0.21673
3135.69004,0.22502
3137.61851,0.22479
3139.54698,0.21695
3141.47545,0.21473
3143.40391,0.21932
3145.33238,0.22076
3147.26085,0.21636
3149.18932,0.21448
3151.11779,0.22220
3153.04626,0.23008
3154.97473,0.23077
3156.90320,0.22895
3158.83166,0.22589
3160.76013,0.22491
3162.68860,0.22963
3164.61707,0.23301
3166.54554,0.23171
3168.47401,0.23179
3170.40248,0.23293
3172.33094,0.22992
3174.25941,0.22450
3176.18788,0.22248
3178.11635,0.22323
3180.04482,0.22265
3181.97329,0.22074
3183.90176,0.21745
3185.83022,0.21493
3187.75869,0.21662
3189.68716,0.21796
3191.61563,0.21678
3193.54410,0.21819
3195.47257,0.22109
3197.40104,0.22206
3199.32951,0.22416
3201.25797,0.22817
3203.18644,0.22798
3205.11491,0.22084
3207.04338,0.21606
3208.97185,0.21720
3210.90032,0.21567
3212.82879,0.21438
3214.75725,0.22022
3216.68572,0.22658
3218.61419,0.22872
3220.54266,0.22736
3222.47113,0.22181
3224.39960,0.21783
3226.32807,0.22068
3228.25654,0.22422
3230.18500,0.22370
3232.11347,0.22378
3234.04194,0.22581
3235.97041,0.22476
3237.89888,0.22211
3239.82735,0.22168
3241.75582,0.22291
3243.68428,0.22585
3245.61275,0.22892
3247.54122,0.23176
3249.46969,0.23406
3251.39816,0.23097
3253.32663,0.22341
3255.25510,0.21953
3257.18357,0.22128
3259.11203,0.22000
3261.04050,0.21261
3262.96897,0.20803
3264.89744,0.21031
3266.82591,0.21659
3268.75438,0.22519
3270.68285,0.22825
3272.61131,0.21972
3274.53978,0.21093
3276.46825,0.21281
3278.39672,0.22089
3280.32519,0.22430
3282.25366,0.22205
3284.18213,0.22350
3286.11060,0.22763
3288.03906,0.22709
3289.96753,0.22375
3291.89600,0.22296
3293.82447,0.22426
3295.75294,0.22309
3297.68141,0.21716
3299.60988,0.20970
3301.53834,0.20860
3303.46681,0.21492
3305.39528,0.21986
3307.32375,0.22003
3309.25222,0.21986
3311.18069,0.21714
3313.10916,0.20933
3315.03763,0.20638
3316.96609,0.21206
3318.89456,0.21700
3320.82303,0.21732
3322.75150,0.21551
3324.67997,0.21315
3326.60844,0.21674
3328.53691,0.22737
3330.46537,0.22961
3332.39384,0.22108
3334.32231,0.21658
3336.25078,0.21603
3338.17925,0.21482
3340.10772,0.21847
3342.03619,0.22536
3343.96466,0.22719
3345.89312,0.22324
3347.82159,0.21944
3349.75006,0.21712
3351.67853,0.21275
3353.60700,0.21020
3355.53547,0.21346
3357.46394,0.21885
3359.39240,0.22625
3361.32087,0.23157
3363.24934,0.22811
3365.17781,0.22229
3367.10628,0.22115
3369.03475,0.22334
3370.96322,0.22342
3372.89168,0.21948
3374.82015,0.21640
3376.74862,0.21452
3378.67709,0.21299
3380.60556,0.21387
3382.53403,0.21574
3384.46250,0.22053
3386.39097,0.22914
3388.31943,0.23063
3390.24790,0.22182
3392.17637,0.21585
3394.10484,0.21891
3396.03331,0.22366
3397.96178,0.22527
3399.89025,0.22296
3401.81871,0.21429
3403.74718,0.20639
3405.67565,0.21036
3407.60412,0.21943
3409.53259,0.22026
3411.46106,0.21654
3413.38953,0.21747
3415.31800,0.21993
3417.24646,0.22058
3419.17493,0.22090
3421.10340,0.22342
3423.03187,0.22728
3424.96034,0.22562
3426.88881,0.21979
3428.81728,0.21279
3430.74574,0.20382
3432.67421,0.19873
3434.60268,0.20063
3436.53115,0.20388
3438.45962,0.20644
3440.38809,0.20776
3442.31656,0.20272
3444.24503,0.19533
3446.17349,0.19531
3448.10196,0.20272
3450.03043,0.21005
3451.95890,0.21241
3453.88737,0.21115
3455.81584,0.20652
3457.74431,0.19979
3459.67277,0.19760
3461.60124,0.19938
3463.52971,0.19857
3465.45818,0.19546
3467.38665,0.19365
3469.31512,0.19417
3471.24359,0.19267
3473.17206,0.18833
3475.10052,0.18843
3477.02899,0.19153
3478.95746,0.19534
3480.88593,0.20257
3482.81440,0.20627
3484.74287,0.20192
3486.67134,0.19503
3488.59980,0.19173
3490.52827,0.19294
3492.45674,0.19107
3494.38521,0.18657
3496.31368,0.18823
3498.24215,0.19273
3500.17062,0.19439
3502.09909,0.19458
3504.02755,0.19369
3505.95602,0.19344
3507.88449,0.19492
3509.81296,0.19418
3511.74143,0.18654
3513.66990,0.17602
3515.59837,0.17106
3517.52683,0.17180
3519.45530,0.17465
3521.38377,0.18169
3523.31224,0.18842
3525.24071,0.18689
3527.16918,0.18599
3529.09765,0.18976
3531.02611,0.18757
3532.95458,0.18162
3534.88305,0.18022
3536.81152,0.18227
3538.73999,0.18308
3540.66846,0.17882
3542.59693,0.17195
3544.52540,0.17150
3546.45386,0.17632
3548.38233,0.17819
3550.31080,0.17991
3552.23927,0.18336
3554.16774,0.18103
3556.09621,0.17019
3558.02468,0.16372
3559.95314,0.17507
3561.88161,0.19113
3563.81008,0.19084
3565.73855,0.18359
3567.66702,0.18424
3569.59549,0.18058
3571.52396,0.17209
3573.45243,0.16820
3575.38089,0.16668
3577.30936,0.16261
3579.23783,0.16054
3581.16630,0.16442
3583.09477,0.17101
3585.02324,0.18121
3586.95171,0.19116
3588.88017,0.18360
3590.80864,0.17122
3592.73711,0.16872
3594.66558,0.16711
3596.59405,0.16151
3598.52252,0.15745
3600.45099,0.15596
3602.37946,0.15802
3604.30792,0.16563
3606.23639,0.17704
3608.16486,0.18288
3610.09333,0.17868
3612.02180,0.17794
3613.95027,0.18179
3615.87874,0.18235
3617.80720,0.18434
3619.73567,0.18502
3621.66414,0.17376
3623.59261,0.15921
3625.52108,0.15498
3627.44955,0.16646
3629.37802,0.17573
3631.30649,0.16708
3633.23495,0.15947
3635.16342,0.15299
3637.09189,0.14450
3639.02036,0.14098
3640.94883,0.14306
3642.87730,0.14530
3644.80577,0.15074
3646.73423,0.16363
3648.66270,0.17557
3650.59117,0.16678
3652.51964,0.15345
3654.44811,0.15157
3656.37658,0.15448
3658.30505,0.14994
3660.23352,0.13889
3662.16198,0.12802
3664.09045,0.12497
3666.01892,0.13274
3667.94739,0.14686
3669.87586,0.15983
3671.80433,0.16230
3673.73280,0.15871
3675.66126,0.15185
3677.58973,0.15092
3679.51820,0.15380
3681.44667,0.14667
3683.37514,0.13591
3685.30361,0.13705
3687.23208,0.14905
3689.16055,0.15489
3691.08901,0.14939
3693.01748,0.14745
3694.94595,0.14780
3696.87442,0.14563
3698.80289,0.14419
3700.73136,0.14841
3702.65983,0.15293
3704.58829,0.15159
3706.51676,0.14935
3708.44523,0.15055
3710.37370,0.15554
3712.30217,0.15629
3714.23064,0.14863
3716.15911,0.14583
3718.08757,0.15651
3720.01604,0.17233
3721.94451,0.17573
3723.87298,0.16210
3725.80145,0.14376
3727.72992,0.13408
3729.65839,0.13340
3731.58686,0.14046
3733.51532,0.15262
3735.44379,0.16103
3737.37226,0.16569
3739.30073,0.16596
3741.22920,0.16368
3743.15767,0.16587
3745.08614,0.17265
3747.01460,0.17308
3748.94307,0.16883
3750.87154,0.15604
3752.80001,0.13979
3754.72848,0.13913
3756.65695,0.14621
3758.58542,0.14772
3760.51389,0.13985
3762.44235,0.13202
3764.37082,0.13242
3766.29929,0.13818
3768.22776,0.13872
3770.15623,0.13095
3772.08470,0.12190
3774.01317,0.11794
3775.94163,0.11971
3777.87010,0.12403
3779.79857,0.12294
3781.72704,0.12203
3783.65551,0.13007
3785.58398,0.13367
3787.51245,0.12416
3789.44092,0.11717
3791.36938,0.12272
3793.29785,0.13218
3795.22632,0.13636
3797.15479,0.13703
3799.08326,0.14096
3801.01173,0.15101
3802.94020,0.15508
3804.86866,0.15230
3806.79713,0.15328
3808.72560,0.15047
3810.65407,0.14180
3812.58254,0.13696
3814.51101,0.13880
3816.43948,0.13852
3818.36795,0.13579
3820.29641,0.14028
3822.22488,0.14039
3824.15335,0.13142
3826.08182,0.12431
3828.01029,0.12428
3829.93876,0.12690
3831.86723,0.12582
3833.79569,0.13077
3835.72416,0.14853
3837.65263,0.16656
3839.58110,0.16647
3841.50957,0.15472
3843.43804,0.14390
3845.36651,0.13578
3847.29498,0.13057
3849.22344,0.12778
3851.15191,0.13336
3853.08038,0.14816
3855.00885,0.14253
3856.93732,0.13017
3858.86579,0.12875
3860.79426,0.13479
3862.72272,0.13929
3864.65119,0.13275
3866.57966,0.12273
3868.50813,0.12184
3870.43660,0.12977
3872.36507,0.13483
3874.29354,0.13327
3876.22200,0.13135
3878.15047,0.13618
3880.07894,0.14286
3882.00741,0.13662
3883.93588,0.12443
3885.86435,0.11647
3887.79282,0.11281
3889.72129,0.11687
3891.64975,0.12728
3893.57822,0.12767
3895.50669,0.12040
3897.43516,0.12059
3899.36363,0.12858
3901.29210,0.13339
3903.22057,0.13177
3905.14903,0.12403
3907.07750,0.11875
3909.00597,0.11991
3910.93444,0.11698
3912.86291,0.11234
3914.79138,0.11682
3916.71985,0.12415
3918.64832,0.12562
3920.57678,0.12611
3922.50525,0.12804
3924.43372,0.12513
3926.36219,0.11919
3928.29066,0.11866
3930.21913,0.11989
3932.14760,0.11706
3934.07606,0.11062
3936.00453,0.10602
3937.93300,0.10630
3939.86147,0.10633
3941.78994,0.10538
3943.71841,0.10589
3945.64688,0.10589
3947.57535,0.10583
3949.50381,0.10663
3951.43228,0.10728
3953.36075,0.10480
3955.28922,0.10011
3957.21769,0.10085
3959.14616,0.10981
3961.07463,0.11769
3963.00309,0.11597
3964.93156,0.10965
3966.86003,0.10409
3968.78850,0.09900
3970.71697,0.09754
3972.64544,0.10049
3974.57391,0.10453
3976.50238,0.10659
3978.43084,0.10709
3980.35931,0.10880
3982.28778,0.10528
3984.21625,0.09311
3986.14472,0.08428
3988.07319,0.08752
3990.00166,0.09966
3991.93012,0.10920
3993.85859,0.10873
3995.78706,0.10324
3997.71553,0.09976
3999.64400,0.09968
4001.57247,0.09958
4003.50094,0.09662
4005.42941,0.09239
4007.35787,0.09198
4009.28634,0.09329
4011.21481,0.09059
4013.14328,0.08817
4015.07175,0.08777
4017.00022,0.08879
4018.92869,0.09412
4020.85715,0.09569
4022.78562,0.08991
4024.71409,0.08962
4026.64256,0.09389
4028.57103,0.09093
4030.49950,0.08642
4032.42797,0.08720
4034.35644,0.08880
4036.28490,0.09052
4038.21337,0.09117
4040.14184,0.08871
4042.07031,0.08887
4043.99878,0.09029
4045.92725,0.08861
4047.85572,0.08649
4049.78418,0.08348
4051.71265,0.08145
4053.64112,0.08351
4055.56959,0.08843
4057.49806,0.09623
4059.42653,0.10168
4061.35500,0.09524
4063.28346,0.08244
4065.21193,0.07708
4067.14040,0.07823
4069.06887,0.07746
4070.99734,0.07491
4072.92581,0.07747
4074.85428,0.08475
4076.78275,0.08958
4078.71121,0.09169
4080.63968,0.09212
4082.56815,0.08955
4084.49662,0.08741
4086.42509,0.08939
4088.35356,0.09147
4090.28203,0.08773
4092.21049,0.08033
4094.13896,0.07544
4096.06743,0.07452
4097.99590,0.07574
4099.92437,0.07831
4101.85284,0.08117
4103.78131,0.08488
4105.70978,0.08788
4107.63824,0.08405
4109.56671,0.07639
4111.49518,0.07208
4113.42365,0.06928
4115.35212,0.06976
4117.28059,0.07781
4119.20906,0.08717
4121.13752,0.09116
4123.06599,0.08974
4124.99446,0.08620
4126.92293,0.08408
4128.85140,0.08433
4130.77987,0.08360
4132.70834,0.07862
4134.63681,0.07455
4136.56527,0.07406
4138.49374,0.06987
4140.42221,0.06082
4142.35068,0.05818
4144.27915,0.06926
4146.20762,0.08489
4148.13609,0.09220
4150.06455,0.08919
4151.99302,0.08136
4153.92149,0.07560
4155.84996,0.07679
4157.77843,0.07960
4159.70690,0.07566
4161.63537,0.07064
4163.56384,0.07192
4165.49230,0.07346
4167.42077,0.06595
4169.34924,0.05572
4171.27771,0.05580
4173.20618,0.06254
4175.13465,0.06746
4177.06312,0.06880
4178.99158,0.06744
4180.92005,0.06579
4182.84852,0.06670
4184.77699,0.07008
4186.70546,0.06981
4188.63393,0.06712
4190.56240,0.06948
4192.49087,0.07092
4194.41933,0.06532
4196.34780,0.06136
4198.27627,0.06226
4200.20474,0.06158
4202.13321,0.06104
4204.06168,0.06466
4205.99015,0.06918
4207.91861,0.06885
4209.84708,0.06433
4211.77555,0.06258
4213.70402,0.06174
4215.63249,0.05517
4217.56096,0.04552
4219.48943,0.04143
4221.41789,0.04802
4223.34636,0.05643
4225.27483,0.05488
4227.20330,0.04930
4229.13177,0.04921
4231.06024,0.05445
4232.98871,0.06136
4234.91718,0.06201
4236.84564,0.05224
4238.77411,0.04371
4240.70258,0.04730
4242.63105,0.05354
4244.55952,0.05024
4246.48799,0.03918
4248.41646,0.03049
4250.34492,0.03563
4252.27339,0.04987
4254.20186,0.05852
4256.13033,0.06363
4258.05880,0.06761
4259.98727,0.06155
4261.91574,0.05202
4263.84421,0.05102
4265.77267,0.05378
4267.70114,0.05243
4269.62961,0.04417
4271.55808,0.03407
4273.48655,0.03038
4275.41502,0.03151
4277.34349,0.03437
4279.27195,0.04046
4281.20042,0.04713
4283.12889,0.05124
4285.05736,0.05247
4286.98583,0.04834
4288.91430,0.04260
4290.84277,0.04239
4292.77124,0.04202
4294.69970,0.03538
4296.62817,0.03116
4298.55664,0.03577
4300.48511,0.04119
4302.41358,0.03966
4304.34205,0.03371
4306.27052,0.03291
4308.19898,0.04138
4310.12745,0.04807
4312.05592,0.04448
4313.98439,0.03916
4315.91286,0.04075
4317.84133,0.04394
4319.76980,0.04068
4321.69827,0.03522
4323.62673,0.03933
4325.55520,0.05138
4327.48367,0.05307
4329.41214,0.03982
4331.34061,0.03086
4333.26908,0.03359
4335.19755,0.03106
4337.12601,0.01925
4339.05448,0.01603
4340.98295,0.02674
4342.91142,0.03673
4344.83989,0.03456
4346.76836,0.02565
4348.69683,0.02074
4350.62530,0.02457
4352.55376,0.03483
4354.48223,0.03839
4356.41070,0.02849
4358.33917,0.02054
4360.26764,0.02355
4362.19611,0.02744
4364.12458,0.02460
4366.05304,0.01951
4367.98151,0.01918
4369.90998,0.01953
4371.83845,0.01607
4373.76692,0.01595
4375.69539,0.02432
4377.62386,0.03421
4379.55232,0.03419
4381.48079,0.02725
4383.40926,0.02639
4385.33773,0.03086
4387.26620,0.03159
4389.19467,0.02591
4391.12314,0.01676
4393.05161,0.01041
4394.98007,0.01029
4396.90854,0.01422
4398.83701,0.01704
4400.76548,0.01245
4402.69395,0.00371
4404.62242,0.00006
4406.55089,-0.00078
4408.47935,-0.00057
4410.40782,0.00666
4412.33629,0.01692
4414.26476,0.02228
4416.19323,0.02254
4418.12170,0.01789
4420.05017,0.01433
4421.97864,0.02040
4423.90710,0.02689
4425.83557,0.02280
4427.76404,0.01708
4429.69251,0.02110
4431.62098,0.02625
4433.54945,0.01851
4435.47792,0.01016
4437.40638,0.01798
4439.33485,0.03213
4441.26332,0.03946
4443.19179,0.03850
4445.12026,0.03140
4447.04873,0.02384
4448.97720,0.02414
4450.90567,0.03012
4452.83413,0.03019
4454.76260,0.02366
4456.69107,0.01251
4458.61954,-0.00093
4460.54801,-0.00541
4462.47648,0.00239
4464.40495,0.01468
4466.33341,0.02404
4468.26188,0.02559
4470.19035,0.02037
4472.11882,0.01691
4474.04729,0.01569
4475.97576,0.01051
4477.90423,0.00872
4479.83270,0.01297
4481.76116,0.01297
4483.68963,0.00935
4485.61810,0.00783
4487.54657,0.00849
4489.47504,0.00952
4491.40351,0.01066
4493.33198,0.01500
4495.26044,0.01980
4497.18891,0.02455
4499.11738,0.03148
4501.04585,0.03147
4502.97432,0.02334
4504.90279,0.01791
4506.83126,0.01499
4508.75973,0.00655
4510.68819,-0.00072
4512.61666,-0.00007
4514.54513,-0.00244
4516.47360,-0.00746
4518.40207,-0.00933
4520.33054,-0.01515
4522.25901,-0.02136
4524.18747,-0.01864
4526.11594,-0.01035
4528.04441,-0.00315
4529.97288,0.00081
4531.90135,0.00094
4533.82982,0.00134
4535.75829,0.00436
4537.68676,0.00205
4539.61522,-0.00627
4541.54369,-0.01048
4543.47216,-0.00499
4545.40063,0.00639
4547.32910,0.00722
4549.25757,-0.00841
4551.18604,-0.02009
4553.11450,-0.01903
4555.04297,-0.01998
4556.97144,-0.02406
4558.89991,-0.01942
4560.82838,-0.00629
4562.75685,0.00393
4564.68532,0.00728
4566.61378,0.00793
4568.54225,0.00272
4570.47072,-0.00245
4572.39919,0.00122
4574.32766,0.00798
4576.25613,0.01728
4578.18460,0.02584
4580.11307,0.02606
4582.04153,0.02102
4583.97000,0.01635
4585.89847,0.01120
4587.82694,0.00101
4589.75541,-0.01355
4591.68388,-0.01923
4593.61235,-0.00852
4595.54081,-0.00030
4597.46928,-0.00655
4599.39775,-0.01689
4601.32622,-0.01742
4603.25469,-0.00290
4605.18316,0.01128
4607.11163,0.01373
4609.04010,0.01105
4610.96856,0.00442
4612.89703,-0.00173
4614.82550,0.00224
4616.75397,0.01096
4618.68244,0.00931
4620.61091,-0.00839
4622.53938,-0.02715
4624.46784,-0.02112
4626.39631,0.00416
4628.32478,0.01786
4630.25325,0.01241
4632.18172,0.00157
4634.11019,0.00525
4636.03866,0.01982
4637.96713,0.02409
4639.89559,0.01796
4641.82406,0.00603
4643.75253,-0.00867
4645.68100,-0.01551
4647.60947,-0.01266
4649.53794,-0.00662
4651.46641,-0.00162
4653.39487,0.00026
4655.32334,-0.00251
4657.25181,-0.00438
4659.18028,0.00376
4661.10875,0.01364
4663.03722,0.00855
4664.96569,0.00010
4666.89416,0.01848
4668.82262,0.05477
4670.75109,0.07236
4672.67956,0.05654
4674.60803,0.01779
4676.53650,-0.00697
4678.46497,-0.00154
4680.39344,0.00111
4682.32190,-0.00760
4684.25037,-0.00819
4686.17884,-0.00090
4688.10731,0.00711
4690.03578,0.00992
4691.96425,0.00090
4693.89272,-0.01470
4695.82119,-0.01956
4697.74965,-0.00707
4699.67812,0.00442
4701.60659,0.00315
4703.53506,0.00475
4705.46353,0.01137
4707.39200,0.00961
4709.32047,0.00524
4711.24893,0.00727
4713.17740,0.01226
4715.10587,0.01597
4717.03434,0.01893
4718.96281,0.02391
4720.89128,0.02655
4722.81975,0.01953
4724.74821,0.00720
4726.67668,0.00257
4728.60515,0.00395
4730.53362,-0.00384
4732.46209,-0.01412
4734.39056,-0.01371
4736.31903,-0.00388
4738.24750,0.00960
4740.17596,0.00737
4742.10443,-0.01010
4744.03290,-0.01879
4745.96137,-0.01958
4747.88984,-0.01465
4749.81831,0.00533
4751.74678,0.02687
4753.67524,0.02728
4755.60371,0.01256
4757.53218,0.00394
4759.46065,0.00598
4761.38912,0.01343
4763.31759,0.01421
4765.24606,0.00463
4767.17453,0.00192
4769.10299,0.00684
4771.03146,0.01156
4772.95993,0.01921
4774.88840,0.02605
4776.81687,0.02966
4778.74534,0.02725
4780.67381,0.01350
4782.60227,0.00530
4784.53074,0.01796
4786.45921,0.03276
4788.38768,0.03694
4790.31615,0.03534
4792.24462,0.01771
4794.17309,-0.00714
4796.10156,-0.01023
4798.03002,-0.00345
4799.95849,-0.00890
4801.88696,-0.01658
4803.81543,-0.01808
4805.74390,-0.01598
4807.67237,-0.01065
4809.60084,-0.00569
4811.52930,-0.00025
4813.45777,0.00193
4815.38624,-0.00627
4817.31471,-0.00438
4819.24318,0.01697
4821.17165,0.03020
4823.10012,0.02595
4825.02859,0.01889
4826.95705,0.00955
4828.88552,-0.00865
4830.81399,-0.02149
4832.74246,-0.01855
4834.67093,-0.01861
4836.59940,-0.02779
4838.52787,-0.02259
4840.45633,-0.00244
4842.38480,0.01035
4844.31327,0.01874
4846.24174,0.02612
4848.17021,0.02031
4850.09868,0.00494
4852.02715,-0.00632
4853.95562,-0.00428
4855.88408,0.00478
4857.81255,0.01343
4859.74102,0.02703
4861.66949,0.03671
4863.59796,0.02569
4865.52643,0.00246
4867.45490,-0.01456
4869.38336,-0.02327
4871.31183,-0.02102
4873.24030,-0.00219
4875.16877,0.01674
4877.09724,0.01752
4879.02571,0.00730
4880.95418,0.00724
4882.88265,0.01638
4884.81111,0.01364
4886.73958,0.00698
4888.66805,0.00670
4890.59652,-0.00228
4892.52499,-0.01165
4894.45346,-0.00436
4896.38193,0.01016
4898.31039,0.01138
4900.23886,0.00018
4902.16733,0.00200
4904.09580,0.01180
4906.02427,0.00614
4907.95274,-0.00715
4909.88121,-0.01740
4911.80967,-0.02912
4913.73814,-0.02925
4915.66661,-0.01439
4917.59508,-0.00411
4919.52355,-0.00006
4921.45202,-0.00094
4923.38049,-0.00343
4925.30896,0.00989
4927.23742,0.02227
4929.16589,0.00937
4931.09436,-0.00328
4933.02283,0.00631
4934.95130,0.02017
4936.87977,0.02911
4938.80824,0.03095
4940.73670,0.01953
4942.66517,0.01013
4944.59364,0.01343
4946.52211,0.01439
4948.45058,0.01020
4950.37905,0.01684
4952.30752,0.03593
4954.23599,0.04429
4956.16445,0.02488
4958.09292,-0.00324
4960.02139,-0.01454
4961.94986,-0.00923
4963.87833,0.00242
4965.80680,0.01279
4967.73527,0.01274
4969.66373,0.00354
4971.59220,-0.00573
4973.52067,-0.00995
4975.44914,-0.00694
4977.37761,0.00052
4979.30608,0.01259
4981.23455,0.02607
4983.16302,0.02542
4985.09148,0.01129
4987.01995,0.00398
4988.94842,0.00844
4990.87689,0.00956
4992.80536,0.00528
4994.73383,0.00699
4996.66230,0.01447
4998.59076,0.01642
5000.51923,0.01904
5002.44770,0.02886
5004.37617,0.02499
5006.30464,0.01695
5008.23311,0.02297
5010.16158,0.01564
5012.09005,-0.00045
5014.01851,0.01161
5015.94698,0.03211
5017.87545,0.03332
5019.80392,0.03619
5021.73239,0.04257
5023.66086,0.02830
5025.58933,0.00339
5027.51779,-0.00254
5029.44626,0.01394
5031.37473,0.03794
5033.30320,0.05330
5035.23167,0.04968
5037.16014,0.03654
5039.08861,0.02218
5041.01708,0.00558
5042.94554,-0.00823
5044.87401,-0.00568
5046.80248,0.01731
5048.73095,0.03709
5050.65942,0.04119
5052.58789,0.03948
5054.51636,0.02769
5056.44482,0.00757
5058.37329,-0.00202
5060.30176,-0.00023
5062.23023,0.00291
5064.15870,0.00453
5066.08717,0.01064
5068.01564,0.02339
5069.94410,0.02842
5071.87257,0.03125
5073.80104,0.04435
5075.72951,0.05026
5077.65798,0.03439
5079.58645,0.02125
5081.51492,0.02803
5083.44339,0.02978
5085.37185,0.02664
5087.30032,0.02690
5089.22879,0.02054
5091.15726,0.02921
5093.08573,0.05077
5095.01420,0.04441
5096.94267,0.02156
5098.87113,0.01859
5100.79960,0.01694
5102.72807,0.00374
5104.65654,0.00318
5106.58501,0.00388
5108.51348,-0.01083
5110.44195,-0.01648
5112.37042,0.00180
5114.29888,0.01953
5116.22735,0.01622
5118.15582,0.00271
5120.08429,-0.00815
5122.01276,-0.00896
5123.94123,0.00448
5125.86970,0.02364
5127.79816,0.02998
5129.72663,0.01869
5131.65510,0.00922
5133.58357,0.01174
5135.51204,0.01562
5137.44051,0.02004
5139.36898,0.03597
5141.29745,0.04652
5143.22591,0.01242
5145.15438,-0.04559
5147.08285,-0.05487
5149.01132,-0.01509
5150.93979,0.00826
5152.86826,0.00538
5154.79673,0.00709
5156.72519,0.00390
5158.65366,-0.01252
5160.58213,-0.01977
5162.51060,-0.01269
5164.43907,-0.00655
5166.36754,-0.00959
5168.29601,-0.00874
5170.22448,-0.00403
5172.15294,-0.01104
5174.08141,-0.00844
5176.00988,0.01410
5177.93835,0.02163
5179.86682,0.00683
5181.79529,-0.00541
5183.72376,0.00372
5185.65222,0.03244
5187.58069,0.03735
5189.50916,0.01505
5191.43763,0.01704
5193.36610,0.03353
5195.29457,0.03406
5197.22304,0.03241
5199.15151,0.03728
5201.07997,0.03780
5203.00844,0.03387
5204.93691,0.03968
5206.86538,0.04291
5208.79385,0.03000
5210.72232,0.01922
5212.65079,0.01749
5214.57925,0.02667
5216.50772,0.03488
5218.43619,0.03307
5220.36466,0.03388
5222.29313,0.03327
5224.22160,0.02292
5226.15007,0.01966
5228.07854,0.03757
5230.00700,0.05376
5231.93547,0.04537
5233.86394,0.01975
5235.79241,0.00305
5237.72088,0.01157
5239.64935,0.03010
5241.57782,0.03839
5243.50628,0.03473
5245.43475,0.01715
5247.36322,-0.00412
5249.29169,-0.00268
5251.22016,0.01573
5253.14863,0.01982
5255.07710,0.01103
5257.00556,0.01636
5258.93403,0.02401
5260.86250,0.00920
5262.79097,0.00177
5264.71944,0.02298
5266.64791,0.03831
5268.57638,0.03663
5270.50485,0.03400
5272.43331,0.04478
5274.36178,0.05915
5276.29025,0.04139
5278.21872,-0.00184
5280.14719,-0.01358
5282.07566,0.00998
5284.00413,0.02111
5285.93259,0.01789
5287.86106,0.02009
5289.78953,0.02297
5291.71800,0.02908
5293.64647,0.03513
5295.57494,0.03355
5297.50341,0.03130
5299.43188,0.02957
5301.36034,0.02876
5303.28881,0.02436
5305.21728,0.00404
5307.14575,-0.00806
5309.07422,0.01654
5311.00269,0.03961
5312.93116,0.03274
5314.85962,0.01879
5316.78809,0.02048
5318.71656,0.04457
5320.64503,0.07068
5322.57350,0.08353
5324.50197,0.09777
5326.43044,0.10071
5328.35891,0.07187
5330.28737,0.03585
5332.21584,0.01045
5334.14431,-0.00078
5336.07278,0.00073
5338.00125,0.00842
5339.92972,0.02263
5341.85819,0.03397
5343.78665,0.03436
5345.71512,0.03238
5347.64359,0.02671
5349.57206,0.01722
5351.50053,0.02627
5353.42900,0.05163
5355.35747,0.05732
5357.28594,0.04041
5359.21440,0.02832
5361.14287,0.03099
5363.07134,0.02163
5364.99981,-0.00492
5366.92828,-0.01926
5368.85675,-0.02072
5370.78522,-0.01174
5372.71368,0.02115
5374.64215,0.05985
5376.57062,0.05098
5378.49909,0.01004
5380.42756,0.00015
5382.35603,0.02878
5384.28450,0.05666
5386.21297,0.04156
5388.14143,0.02000
5390.06990,0.02968
5391.99837,0.03792
5393.92684,0.01522
5395.85531,0.00964
5397.78378,0.06099
5399.71225,0.10691
5401.64071,0.10410
5403.56918,0.08044
5405.49765,0.05478
5407.42612,0.02309
5409.35459,-0.00914
5411.28306,-0.01143
5413.21153,0.04630
5415.13999,0.09898
5417.06846,0.08105
5418.99693,0.04167
5420.92540,0.03807
5422.85387,0.06301
5424.78234,0.08226
5426.71081,0.09481
5428.63928,0.11051
5430.56774,0.11047
5432.49621,0.09698
5434.42468,0.07506
5436.35315,0.03093
5438.28162,0.00069
5440.21009,0.02657
5442.13856,0.07375
5444.06702,0.08908
5445.99549,0.08172
5447.92396,0.07755
5449.85243,0.07831
5451.78090,0.06498
5453.70937,0.05104
5455.63784,0.06499
5457.56631,0.08777
5459.49477,0.08186
5461.42324,0.05484
5463.35171,0.04682
5465.28018,0.07283
5467.20865,0.10545
5469.13712,0.11043
5471.06559,0.07769
5472.99405,0.03175
5474.92252,0.00423
5476.85099,0.02300
5478.77946,0.07095
5480.70793,0.09956
5482.63640,0.10105
5484.56487,0.09566
5486.49334,0.07909
5488.42180,0.06066
5490.35027,0.06162
5492.27874,0.05780
5494.20721,0.03472
5496.13568,0.03320
5498.06415,0.06236
5499.99262,0.08318
5501.92108,0.07162
5503.84955,0.04921
5505.77802,0.04937
5507.70649,0.06379
5509.63496,0.06197
5511.56343,0.05616
5513.49190,0.05732
5515.42037,0.05090
5517.34883,0.03519
5519.27730,0.00916
5521.20577,-0.01911
5523.13424,-0.00533
5525.06271,0.05274
5526.99118,0.09056
5528.91965,0.09315
5530.84811,0.09122
5532.77658,0.08697
5534.70505,0.06638
5536.63352,0.03474
5538.56199,0.02649
5540.49046,0.04944
5542.41893,0.06769
5544.34740,0.07358
5546.27586,0.07086
5548.20433,0.05861
5550.13280,0.05898
5552.06127,0.06146
5553.98974,0.04322
5555.91821,0.03192
5557.84668,0.05436
5559.77514,0.07945
5561.70361,0.07790
5563.63208,0.06761
5565.56055,0.07157
5567.48902,0.07634
5569.41749,0.06237
5571.34596,0.04813
5573.27443,0.04959
5575.20289,0.05309
5577.13136,0.05689
5579.05983,0.07747
5580.98830,0.08363
5582.91677,0.03436
5584.84524,0.00641
5586.77371,0.05470
5588.70217,0.10461
5590.63064,0.10809
5592.55911,0.08599
5594.48758,0.05588
5596.41605,0.04794
5598.34452,0.06731
5600.27299,0.07695
5602.20145,0.05722
5604.12992,0.02923
5606.05839,0.03820
5607.98686,0.07293
5609.91533,0.07749
5611.84380,0.06627
5613.77227,0.07649
5615.70074,0.07920
5617.62920,0.06684
5619.55767,0.08269
5621.48614,0.11328
5623.41461,0.10679
5625.34308,0.07630
5627.27155,0.07590
5629.20002,0.10045
5631.12848,0.10499
5633.05695,0.08431
5634.98542,0.05297
5636.91389,0.01401
5638.84236,-0.02169
5640.77083,-0.01267
5642.69930,0.03681
5644.62777,0.06602
5646.55623,0.06223
5648.48470,0.06313
5650.41317,0.08562
5652.34164,0.10725
5654.27011,0.09689
5656.19858,0.05928
5658.12705,0.03680
5660.05551,0.04313
5661.98398,0.05778
5663.91245,0.07663
5665.84092,0.07882
5667.76939,0.04726
5669.69786,0.01168
5671.62633,0.00515
5673.55480,0.02740
5675.48326,0.04405
5677.41173,0.03480
5679.34020,0.02369
5681.26867,0.01540
5683.19714,0.01026
5685.12561,0.02731
5687.05408,0.03520
5688.98254,0.01719
5690.91101,0.02926
5692.83948,0.07247
5694.76795,0.09610
5696.69642,0.10209
5698.62489,0.10570
5700.55336,0.09307
5702.48183,0.07107
5704.41029,0.06173
5706.33876,0.05400
5708.26723,0.03173
5710.19570,0.01715
5712.12417,0.03547
5714.05264,0.08413
5715.98111,0.12408
5717.90957,0.11744
5719.83804,0.08622
5721.76651,0.06838
5723.69498,0.07325
5725.62345,0.08267
5727.55192,0.06734
5729.48039,0.03298
5731.40886,0.02240
5733.33732,0.03167
5735.26579,0.01965
5737.19426,0.02410
5739.12273,0.09377
5741.05120,0.14889
5742.97967,0.09916
5744.90814,0.00744
5746.83660,-0.01683
5748.76507,0.01452
5750.69354,0.03427
5752.62201,0.02959
5754.55048,0.03673
5756.47895,0.06539
5758.40742,0.07897
5760.33588,0.07333
5762.26435,0.05523
5764.19282,0.02956
5766.12129,0.04106
5768.04976,0.07723
5769.97823,0.09409
5771.90670,0.09464
5773.83517,0.06115
5775.76363,0.02361
5777.69210,0.04699
5779.62057,0.09136
5781.54904,0.09448
5783.47751,0.06485
5785.40598,0.03707
5787.33445,0.02254
5789.26291,0.02411
5791.19138,0.05055
5793.11985,0.07931
5795.04832,0.08669
5796.97679,0.07029
5798.90526,0.04754
5800.83373,0.04562
5802.76220,0.06575
5804.69066,0.07629
5806.61913,0.06254
5808.54760,0.06876
5810.47607,0.10831
5812.40454,0.12914
5814.33301,0.12718
5816.26148,0.12755
5818.18994,0.10289
5820.11841,0.05115
5822.04688,0.00981
5823.97535,-0.00232
5825.90382,0.01842
5827.83229,0.04868
5829.76076,0.07907
5831.68923,0.09458
5833.61769,0.07184
5835.54616,0.07177
5837.47463,0.11170
5839.40310,0.11843
5841.33157,0.07887
5843.26004,0.05149
5845.18851,0.08301
5847.11697,0.14756
5849.04544,0.18142
5850.97391,0.15424
5852.90238,0.11323
5854.83085,0.09158
5856.75932,0.04491
5858.68779,-0.00826
5860.61626,0.01665
5862.54472,0.09558
5864.47319,0.13943
5866.40166,0.12280
5868.33013,0.08293
5870.25860,0.06502
5872.18707,0.08065
5874.11554,0.10872
5876.04400,0.10828
5877.97247,0.08185
5879.90094,0.08496
5881.82941,0.10260
5883.75788,0.10117
5885.68635,0.10220
5887.61482,0.11137
5889.54329,0.11520
5891.47175,0.09758
5893.40022,0.06957
5895.32869,0.06457
5897.25716,0.07686
5899.18563,0.07732
5901.11410,0.05508
5903.04257,0.03039
5904.97103,0.04736
5906.89950,0.09567
5908.82797,0.10662
5910.75644,0.06705
5912.68491,0.02011
5914.61338,0.00098
5916.54185,0.02089
5918.47032,0.03779
5920.39878,0.02083
5922.32725,0.01403
5924.25572,0.05888
5926.18419,0.11657
5928.11266,0.12911
5930.04113,0.10900
5931.96960,0.09776
5933.89806,0.10494
5935.82653,0.11320
5937.75500,0.10752
5939.68347,0.07652
5941.61194,0.04491
5943.54041,0.07099
5945.46888,0.10872
5947.39734,0.08104
5949.32581,0.02269
5951.25428,-0.02109
5953.18275,-0.05009
5955.11122,-0.05565
5957.03969,-0.03452
5958.96816,0.01614
5960.89663,0.07269
5962.82509,0.08285
5964.75356,0.06400
5966.68203,0.07343
5968.61050,0.09175
5970.53897,0.08805
5972.46744,0.09563
5974.39591,0.08991
5976.32437,0.03682
5978.25284,-0.00552
5980.18131,0.00222
5982.10978,0.04847
5984.03825,0.10898
5985.96672,0.14687
5987.89519,0.14944
5989.82366,0.15238
5991.75212,0.17739
5993.68059,0.19085
5995.60906,0.15267
5997.53753,0.07374
5999.46600,0.01200
6001.39447,-0.00524
6003.32294,-0.00529
6005.25140,0.00890
6007.17987,0.05155
6009.10834,0.08472
6011.03681,0.08433
6012.96528,0.07409
6014.89375,0.05710
6016.82222,0.03348
6018.75069,0.01665
6020.67915,-0.00470
6022.60762,0.00591
6024.53609,0.06259
6026.46456,0.07691
6028.39303,0.03705
6030.32150,0.03616
6032.24997,0.07161
6034.17843,0.06163
6036.10690,0.02959
6038.03537,0.05151
6039.96384,0.08795
6041.89231,0.07244
6043.82078,0.01640
6045.74925,-0.03019
6047.67772,-0.04575
6049.60618,-0.02923
6051.53465,0.01358
6053.46312,0.04163
6055.39159,0.04421
6057.32006,0.07692
6059.24853,0.10289
6061.17700,0.06470
6063.10546,0.01224
6065.03393,-0.02446
6066.96240,-0.05345
6068.89087,-0.05066
6070.81934,0.01834
6072.74781,0.10024
6074.67628,0.07113
6076.60475,-0.03737
6078.53321,-0.06536
6080.46168,-0.01546
6082.39015,0.02836
6084.31862,0.08443
6086.24709,0.13324
6088.17556,0.11714
6090.10403,0.05486
6092.03249,-0.01386
6093.96096,-0.03401
6095.88943,0.02636
6097.81790,0.12630
6099.74637,0.20299
6101.67484,0.21004
6103.60331,0.14740
6105.53177,0.10061
6107.46024,0.12671
6109.38871,0.14911
6111.31718,0.12325
6113.24565,0.11934
6115.17412,0.18277
6117.10259,0.25846
6119.03106,0.24562
6120.95952,0.16215
6122.88799,0.11801
6124.81646,0.15408
6126.74493,0.21432
6128.67340,0.19607
6130.60187,0.10572
6132.53034,0.04551
6134.45880,0.03886
6136.38727,0.04268
6138.31574,0.01668
6140.24421,-0.01630
6142.17268,0.02649
6144.10115,0.10291
6146.02962,0.10031
6147.95809,0.05833
6149.88655,0.03705
6151.81502,0.01294
6153.74349,-0.02195
6155.67196,-0.03216
6157.60043,0.00328
6159.52890,0.05533
6161.45737,0.06773
6163.38583,0.02872
6165.31430,-0.02593
6167.24277,-0.03448
6169.17124,0.02022
6171.09971,0.08569
6173.02818,0.09953
6174.95665,0.06124
6176.88512,0.03173
6178.81358,0.03299
6180.74205,0.03950
6182.67052,0.05772
6184.59899,0.07330
6186.52746,0.07695
6188.45593,0.10102
6190.38440,0.11645
6192.31286,0.10963
6194.24133,0.12015
6196.16980,0.10421
6198.09827,0.04094
6200.02674,0.03193
6201.95521,0.12497
6203.88368,0.22866
6205.81215,0.26044
6207.74061,0.25377
6209.66908,0.20518
6211.59755,0.10464
6213.52602,0.02974
6215.45449,-0.01038
6217.38296,-0.05602
6219.31143,-0.06714
6221.23989,0.00754
6223.16836,0.08902
6225.09683,0.08111
6227.02530,0.04745
6228.95377,0.07286
6230.88224,0.09988
6232.81071,0.01628
6234.73918,-0.10719
6236.66764,-0.13868
6238.59611,-0.08377
6240.52458,-0.00771
6242.45305,0.02002
6244.38152,0.00730
6246.30999,0.02411
6248.23846,0.07260
6250.16692,0.07554
6252.09539,0.00239
6254.02386,-0.05405
6255.95233,-0.03582
6257.88080,0.02056
6259.80927,0.03882
6261.73774,-0.00183
6263.66621,-0.04112
6265.59467,-0.04943
6267.52314,-0.03817
6269.45161,-0.01679
6271.38008,0.02294
6273.30855,0.09999
6275.23702,0.13703
6277.16549,0.07755
6279.09395,0.01020
6281.02242,0.03336
6282.95089,0.11576
6284.87936,0.11433
6286.80783,0.05829
6288.73630,0.05250
6290.66477,0.06416
6292.59323,0.05615
6294.52170,0.03141
6296.45017,0.00661
6298.37864,0.00901
6300.30711,0.04131
6302.23558,0.09580
6304.16405,0.11495
6306.09252,0.05027
6308.02098,-0.02096
6309.94945,-0.03668
6311.87792,-0.05201
6313.80639,-0.08363
6315.73486,-0.05258
6317.66333,0.05766
6319.59180,0.13413
6321.52026,0.15979
6323.44873,0.19052
6325.37720,0.18569
6327.30567,0.15191
6329.23414,0.12755
6331.16261,0.11167
6333.09108,0.07269
6335.01955,-0.01122
6336.94801,-0.04056
6338.87648,0.00221
6340.80495,0.01438
6342.73342,0.04076
6344.66189,0.10167
6346.59036,0.09665
6348.51883,0.05659
6350.44729,0.03916
6352.37576,-0.01390
6354.30423,-0.08507
6356.23270,-0.10386
6358.16117,-0.05009
6360.08964,0.05690
6362.01811,0.13685
6363.94658,0.13942
6365.87504,0.14394
6367.80351,0.20146
6369.73198,0.21562
6371.66045,0.17499
6373.58892,0.16062
6375.51739,0.12365
6377.44586,0.05198
6379.37432,0.03147
6381.30279,0.06310
6383.23126,0.11160
6385.15973,0.13291
6387.08820,0.09418
6389.01667,0.03929
6390.94514,0.03845
6392.87361,0.11120
6394.80207,0.15650
6396.73054,0.10270
6398.65901,0.02916
6400.58748,0.02241
6402.51595,0.05699
6404.44442,0.05081
6406.37289,0.03586
6408.30135,0.09732
6410.22982,0.18256
6412.15829,0.20382
6414.08676,0.21645
6416.01523,0.24209
6417.94370,0.20509
6419.87217,0.14773
6421.80064,0.11393
6423.72910,0.06010
6425.65757,0.05384
6427.58604,0.10821
6429.51451,0.10267
6431.44298,0.06450
6433.37145,0.07214
6435.29992,0.04237
6437.22838,-0.03901
6439.15685,-0.03663
6441.08532,0.03945
6443.01379,0.06404
6444.94226,0.04182
6446.87073,0.03775
6448.79920,0.04949
6450.72766,0.07681
6452.65613,0.08917
6454.58460,0.04466
6456.51307,0.01001
6458.44154,0.06828
6460.37001,0.12311
6462.29848,0.07293
6464.22695,0.01247
6466.15541,0.02910
6468.08388,0.07384
6470.01235,0.10014
6471.94082,0.11547
6473.86929,0.11877
6475.79776,0.07394
6477.72623,0.01498
6479.65469,-0.01065
6481.58316,-0.03131
6483.51163,-0.00149
6485.44010,0.06261
6487.36857,0.05534
6489.29704,0.00421
6491.22551,-0.00271
6493.15398,0.00773
6495.08244,0.00539
6497.01091,0.03894
6498.93938,0.08000
6500.86785,0.06233
6502.79632,0.06265
6504.72479,0.15225
6506.65326,0.19949
6508.58172,0.12831
6510.51019,0.07599
6512.43866,0.08611
6514.36713,0.07466
6516.29560,0.08235
6518.22407,0.12991
6520.15254,0.14779
6522.08101,0.14643
6524.00947,0.16638
6525.93794,0.16692
6527.86641,0.12238
6529.79488,0.07100
6531.72335,0.04051
6533.65182,0.02844
6535.58029,0.02007
6537.50875,0.03643
6539.43722,0.08966
6541.36569,0.12762
6543.29416,0.10772
6545.22263,0.05686
6547.15110,0.04395
6549.07957,0.11897
6551.00804,0.20789
6552.93650,0.16679
6554.86497,0.02522
6556.79344,-0.09395
6558.72191,-0.13844
6560.65038,-0.11793
6562.57885,-0.03321
6564.50732,0.07867
6566.43578,0.10048
6568.36425,0.05889
6570.29272,0.09021
6572.22119,0.17311
6574.14966,0.18396
6576.07813,0.13736
6578.00660,0.13856
6579.93507,0.20330
6581.86353,0.27242
6583.79200,0.30255
6585.72047,0.29250
6587.64894,0.24612
6589.57741,0.21163
6591.50588,0.26524
6593.43435,0.35586
6595.36281,0.34761
6597.29128,0.25199
6599.21975,0.15079
6601.14822,0.07122
6603.07669,0.02331
6605.00516,0.01407
6606.93363,0.03883
6608.86210,0.05582
6610.79056,0.05356
6612.71903,0.06160
6614.64750,0.10004
6616.57597,0.19094
6618.50444,0.23419
6620.43291,0.15424
6622.36138,0.08917
6624.28984,0.16320
6626.21831,0.28261
6628.14678,0.28608
6630.07525,0.16377
6632.00372,0.06805
6633.93219,0.07322
6635.86066,0.11892
6637.78912,0.13259
6639.71759,0.10876
6641.64606,0.06423
6643.57453,0.05206
6645.50300,0.09955
6647.43147,0.12225
6649.35994,0.08163
6651.28841,0.02560
6653.21687,-0.02169
6655.14534,-0.00688
6657.07381,0.09814
6659.00228,0.21404
6660.93075,0.24795
6662.85922,0.15899
6664.78769,0.05734
6666.71615,0.03418
6668.64462,0.04524
6670.57309,0.04619
6672.50156,0.01708
6674.43003,-0.03173
6676.35850,-0.05704
6678.28697,-0.02372
6680.21544,0.01048
6682.14390,-0.03629
6684.07237,-0.09174
6686.00084,-0.04969
6687.92931,0.07388
6689.85778,0.11664
6691.78625,0.01151
6693.71472,-0.06581
6695.64318,-0.02354
6697.57165,0.07812
6699.50012,0.14955
6701.42859,0.14271
6703.35706,0.07277
6705.28553,-0.00237
6707.21400,-0.03835
6709.14247,-0.02824
6711.07093,-0.03502
6712.99940,-0.07143
6714.92787,-0.07782
6716.85634,-0.05917
6718.78481,-0.03418
6720.71328,0.02454
6722.64175,0.07489
6724.57021,0.07991
6726.49868,0.06481
6728.42715,0.03731
6730.35562,0.01473
6732.28409,0.02136
6734.21256,0.02767
6736.14103,0.03839
6738.06950,0.05288
6739.99796,0.02487
6741.92643,0.03753
6743.85490,0.13992
6745.78337,0.18170
6747.71184,0.11768
6749.64031,0.07331
6751.56878,0.10152
6753.49724,0.09776
6755.42571,0.01889
6757.35418,-0.05551
6759.28265,-0.06803
6761.21112,-0.03242
6763.13959,-0.00607
6765.06806,-0.00318
6766.99653,-0.00206
6768.92499,-0.00370
6770.85346,-0.03510
6772.78193,-0.07548
6774.71040,-0.06277
6776.63887,-0.04316
6778.56734,-0.07205
6780.49581,-0.01312
6782.42427,0.09868
6784.35274,0.08950
6786.28121,0.08056
6788.20968,0.15820
6790.13815,0.20636
6792.06662,0.21013
6793.99509,0.16993
6795.92355,0.06392
6797.85202,0.00117
6799.78049,0.02429
6801.70896,0.07849
6803.63743,0.09515
6805.56590,0.00090
6807.49437,-0.04166
6809.42284,0.06696
6811.35130,0.14969
6813.27977,0.19555
6815.20824,0.24637
6817.13671,0.18705
6819.06518,0.12966
6820.99365,0.13300
6822.92212,0.05035
6824.85058,-0.09704
6826.77905,-0.12888
6828.70752,-0.01674
6830.63599,0.11670
6832.56446,0.17997
6834.49293,0.17375
6836.42140,0.10387
6838.34987,0.03837
6840.27833,0.02346
6842.20680,-0.00434
6844.13527,-0.09133
6846.06374,-0.16800
6847.99221,-0.10170
6849.92068,0.11430
6851.84915,0.26929
6853.77761,0.28585
6855.70608,0.17181
6857.63455,0.01014
6859.56302,-0.02951
6861.49149,0.08589
6863.41996,0.15432
6865.34843,0.01243
6867.27690,-0.16024
6869.20536,-0.14373
6871.13383,-0.00632
6873.06230,0.11613
6874.99077,0.13046
6876.91924,0.06550
6878.84771,0.04511
6880.77618,0.07275
6882.70464,0.05057
6884.63311,0.02344
6886.56158,0.02826
6888.49005,0.05563
6890.41852,0.07843
6892.34699,0.06403
6894.27546,0.07552
6896.20393,0.15048
6898.13239,0.16065
6900.06086,0.03238
6901.98933,-0.04701
6903.91780,0.05005
6905.84627,0.16195
6907.77474,0.18411
6909.70321,0.24017
6911.63167,0.29891
6913.56014,0.24758
6915.48861,0.12642
6917.41708,0.08445
6919.34555,0.12417
6921.27402,0.08085
6923.20249,0.00212
6925.13096,-0.02718
6927.05942,-0.00865
6928.98789,0.03060
6930.91636,0.00482
6932.84483,-0.03397
6934.77330,-0.06233
6936.70177,-0.11504
6938.63024,-0.08626
6940.55870,0.03726
6942.48717,0.10899
6944.41564,0.16705
6946.34411,0.30598
6948.27258,0.46049
6950.20105,0.53696
6952.12952,0.48543
6954.05799,0.30910
6955.98645,0.12792
6957.91492,0.02887
6959.84339,0.00683
6961.77186,-0.00046
6963.70033,-0.03395
6965.62880,-0.01756
6967.55727,0.01341
6969.48573,-0.06363
6971.41420,-0.16048
6973.34267,-0.07432
6975.27114,0.10554
6977.19961,0.07512
6979.12808,-0.09667
6981.05655,-0.16291
6982.98501,-0.06185
6984.91348,0.09208
6986.84195,0.18099
6988.77042,0.19131
6990.69889,0.17638
6992.62736,0.16333
6994.55583,0.08222
6996.48430,-0.04365
6998.41276,-0.04105
7000.34123,0.06680
7002.26970,0.10942
7004.19817,0.05338
7006.12664,0.00456
7008.05511,0.07662
7009.98358,0.17418
7011.91204,0.13466
7013.84051,-0.01331
7015.76898,-0.04527
7017.69745,0.06043
7019.62592,0.19333
7021.55439,0.28280
7023.48286,0.21328
7025.41133,0.02093
7027.33979,-0.06468
7029.26826,-0.04974
7031.19673,-0.10536
7033.12520,-0.13151
7035.05367,-0.05850
7036.98214,-0.07450
7038.91061,-0.11986
7040.83907,0.04376
7042.76754,0.33080
7044.69601,0.44349
7046.62448,0.42796
7048.55295,0.29915
7050.48142,0.05925
7052.40989,-0.06600
7054.33836,-0.01540
7056.26682,0.07535
7058.19529,0.15324
7060.12376,0.10883
7062.05223,-0.01062
7063.98070,0.02873
7065.90917,0.11566
7067.83764,0.07824
7069.76610,-0.00677
7071.69457,-0.12342
7073.62304,-0.16811
7075.55151,-0.02435
7077.47998,0.17279
7079.40845,0.24940
7081.33692,0.13323
7083.26539,-0.02750
7085.19385,-0.03646
7087.12232,0.08442
7089.05079,0.18107
7090.97926,0.23748
7092.90773,0.17504
7094.83620,-0.02716
7096.76467,-0.08753
7098.69313,0.04501
7100.62160,0.14585
7102.55007,0.19453
7104.47854,0.23279
7106.40701,0.14797
7108.33548,-0.02928
7110.26395,-0.03368
7112.19242,0.12915
7114.12088,0.12786
7116.04935,-0.09781
7117.97782,-0.11632
7119.90629,0.12759
7121.83476,0.20978
7123.76323,0.18777
7125.69170,0.18706
7127.62016,0.13641
7129.54863,0.05804
7131.47710,0.01476
7133.40557,-0.04137
7135.33404,-0.01884
7137.26251,0.13881
7139.19098,0.17635
7141.11944,0.06033
7143.04791,0.10332
7144.97638,0.30295
7146.90485,0.35927
7148.83332,0.22547
7150.76179,0.06868
7152.69026,-0.01854
7154.61873,-0.04973
7156.54719,-0.05862
7158.47566,-0.04761
7160.40413,-0.08106
7162.33260,-0.16516
7164.26107,-0.19686
7166.18954,-0.12025
7168.11801,0.02164
7170.04647,0.08720
7171.97494,0.05512
7173.90341,0.09684
7175.83188,0.12788
7177.76035,0.04890
7179.68882,0.06695
7181.61729,0.19170
7183.54576,0.21632
7185.47422,0.20163
7187.40269,0.32105
7189.33116,0.39588
7191.25963,0.15645
7193.18810,-0.10930
7195.11657,-0.04965
7197.04504,0.15500
7198.97350,0.26364
7200.90197,0.22301
7202.83044,0.10065
7204.75891,-0.01732
7206.68738,-0.07973
7208.61585,-0.06490
7210.54432,0.02407
7212.47279,0.18010
7214.40125,0.37370
7216.32972,0.45858
7218.25819,0.26830
7220.18666,0.02151
7222.11513,-0.01262
7224.04360,0.14008
7225.97207,0.24583
7227.90053,0.13175
7229.82900,-0.04833
7231.75747,-0.26250
7233.68594,-0.37611
7235.61441,-0.20233
7237.54288,0.05506
7239.47135,0.14496
7241.39982,0.13778
7243.32828,0.07391
7245.25675,-0.04740
7247.18522,-0.12622
7249.11369,-0.08558
7251.04216,0.17549
7252.97063,0.48313
7254.89910,0.35021
7256.82756,0.11494
7258.75603,0.09000
7260.68450,0.12305
7262.61297,-0.01847
7264.54144,-0.22288
7266.46991,-0.19719
7268.39838,0.03570
7270.32685,0.17664
7272.25531,-0.00222
7274.18378,-0.15024
7276.11225,0.00629
7278.04072,0.30640
7279.96919,0.49164
7281.89766,0.33429
7283.82613,0.11802
7285.75459,0.06719
7287.68306,0.15743
7289.61153,0.30276
7291.54000,0.28108
7293.46847,0.17306
7295.39694,0.11257
7297.32541,-0.05890
7299.25387,-0.20274
7301.18234,-0.17637
7303.11081,-0.16039
7305.03928,-0.30593
7306.96775,-0.46325
7308.89622,-0.38544
7310.82469,-0.25627
7312.75316,-0.30408
7314.68162,-0.33107
7316.61009,-0.20928
7318.53856,-0.03437
7320.46703,0.14304
7322.39550,0.31473
7324.32397,0.38897
7326.25244,0.36519
7328.18090,0.29986
7330.10937,0.17381
7332.03784,0.04955
7333.96631,0.02548
7335.89478,0.07063
7337.82325,0.03963
7339.75172,-0.12185
7341.68019,-0.23030
7343.60865,-0.30089
7345.53712,-0.32845
7347.46559,-0.15655
7349.39406,0.13132
7351.32253,0.41529
7353.25100,0.60064
7355.17947,0.56465
7357.10793,0.27328
7359.03640,-0.00635
7360.96487,0.02263
7362.89334,0.10504
7364.82181,0.04268
7366.75028,0.03234
7368.67875,0.16209
7370.60722,0.26482
7372.53568,0.27858
7374.46415,0.14852
7376.39262,-0.18224
7378.32109,-0.38117
7380.24956,-0.32925
7382.17803,-0.14856
7384.10650,0.05763
7386.03496,0.32106
7387.96343,0.41285
7389.89190,0.16353
7391.82037,-0.03146
7393.74884,0.12132
7395.67731,0.30476
7397.60578,0.17270
7399.53425,-0.04456
7401.46271,-0.10111
7403.39118,0.04922
7405.31965,0.24716
7407.24812,0.20956
7409.17659,0.04742
7411.10506,-0.02580
7413.03353,0.03223
7414.96199,0.22170
7416.89046,0.43734
7418.81893,0.33143
7420.74740,-0.02860
7422.67587,-0.02992
7424.60434,0.15238
7426.53281,0.18362
7428.46128,0.12502
7430.38974,0.23760
7432.31821,0.45411
7434.24668,0.46965
7436.17515,0.31683
7438.10362,0.13024
7440.03209,-0.01131
7441.96056,-0.09477
7443.88902,-0.11125
7445.81749,-0.00806
7447.74596,0.10626
7449.67443,0.20696
7451.60290,0.30111
7453.53137,0.17236
7455.45984,-0.00933
7457.38831,-0.03189
7459.31677,-0.00789
7461.24524,0.00748
7463.17371,0.05136
7465.10218,-0.01058
7467.03065,-0.14696
7468.95912,-0.16895
7470.88759,-0.05068
7472.81605,0.08255
7474.74452,0.09256
7476.67299,0.00883
7478.60146,-0.06477
7480.52993,-0.02919
7482.45840,0.03017
7484.38687,-0.10395
7486.31533,-0.24038
7488.24380,-0.17123
7490.17227,-0.08343
7492.10074,0.00440
7494.02921,0.21625
7495.95768,0.41087
7497.88615,0.39992
