399.19301,1.47129
401.12148,-0.23816
403.04995,-0.17656
404.97842,-0.19155
406.90689,-0.18326
408.83536,-0.16862
410.76382,-0.22019
412.69229,-0.21654
414.62076,-0.21436
416.54923,-0.31121
418.47770,-0.22750
420.40617,0.09638
422.33464,0.20967
424.26311,0.17163
426.19157,0.06455
428.12004,0.00014
430.04851,0.09609
431.97698,0.13758
433.90545,0.02310
435.83392,-0.04533
437.76239,-0.05278
439.69085,-0.03724
441.61932,-0.01874
443.54779,0.01686
445.47626,0.07842
447.40473,0.11525
449.33320,0.14177
451.26167,0.20374
453.19013,0.23715
455.11860,0.19167
457.04707,0.15652
458.97554,0.16660
460.90401,0.15186
462.83248,0.14007
464.76095,0.15425
466.68942,0.13193
468.61788,0.08653
470.54635,0.09630
472.47482,0.13704
474.40329,0.01158
476.33176,-0.20605
478.26023,-0.22717
480.18870,-0.10016
482.11716,0.00836
484.04563,-0.00312
485.97410,-0.04745
487.90257,0.00369
489.83104,0.11581
491.75951,0.16387
493.68798,0.12139
495.61645,0.05918
497.54491,0.01287
499.47338,0.00251
501.40185,0.04426
503.33032,0.07561
505.25879,0.05802
507.18726,0.03456
509.11573,0.05755
511.04419,0.10274
512.97266,0.09364
514.90113,0.02900
516.82960,-0.01619
518.75807,-0.03160
520.68654,-0.05099
522.61501,-0.04563
524.54348,0.00325
526.47194,0.05752
528.40041,0.06870
530.32888,0.04539
532.25735,0.00454
534.18582,-0.02654
536.11429,-0.01474
538.04276,0.00721
539.97122,-0.00211
541.89969,-0.00721
543.82816,0.01855
545.75663,0.01343
547.68510,-0.03339
549.61357,0.10115
551.54204,0.84232
553.47051,1.62311
555.39897,1.27624
557.32744,0.33419
559.25591,-0.03189
561.18438,0.00220
563.11285,0.02771
565.04132,0.02369
566.96979,0.02317
568.89825,0.02682
570.82672,0.04471
572.75519,0.06180
574.68366,0.04227
576.61213,0.02311
578.54060,0.02757
580.46907,0.04125
582.39754,0.05646
584.32600,0.07493
586.25447,0.07898
588.18294,0.06828
590.11141,0.07087
592.03988,0.07912
593.96835,0.08646
595.89682,0.11266
597.82528,0.14294
599.75375,0.13882
601.68222,0.11029
603.61069,0.08921
605.53916,0.08006
607.46763,0.07413
609.39610,0.06945
611.32456,0.06837
613.25303,0.06568
615.18150,0.05517
617.10997,0.04708
619.03844,0.05309
620.96691,0.06458
622.89538,0.07529
624.82385,0.08222
626.75231,0.08964
628.68078,0.09460
630.60925,0.08574
632.53772,0.08004
634.46619,0.07771
636.39466,0.07023
638.32313,0.08733
640.25159,0.12320
642.18006,0.13187
644.10853,0.12129
646.03700,0.11109
647.96547,0.09510
649.89394,0.08438
651.82241,0.09042
653.75088,0.09918
655.67934,0.09402
657.60781,0.08581
659.53628,0.08010
661.46475,0.07643
663.39322,0.08732
665.32169,0.09277
667.25016,0.06173
669.17862,0.03566
671.10709,0.05819
673.03556,0.07238
674.96403,0.08112
676.89250,0.09562
678.82097,0.09172
680.74944,0.07508
682.67791,0.08359
684.60637,0.11814
686.53484,0.13752
688.46331,0.11758
690.39178,0.08885
692.32025,0.08473
694.24872,0.08790
696.17719,0.08249
698.10565,0.08717
700.03412,0.10472
701.96259,0.11792
703.89106,0.11468
705.81953,0.10380
707.74800,0.14416
709.67647,0.30610
711.60494,0.46005
713.53340,0.37978
715.46187,0.17567
717.39034,0.08727
719.31881,0.09435
721.24728,0.10098
723.17575,0.09610
725.10422,0.09280
727.03268,0.08543
728.96115,0.07420
730.88962,0.06758
732.81809,0.07344
734.74656,0.09168
736.67503,0.10689
738.60350,0.11507
740.53197,0.11235
742.46043,0.10774
744.38890,0.11379
746.31737,0.10841
748.24584,0.09502
750.17431,0.10093
752.10278,0.10902
754.03125,0.10006
755.95971,0.08434
757.88818,0.06897
759.81665,0.07104
761.74512,0.09814
763.67359,0.12261
765.60206,0.12498
767.53053,0.11088
769.45900,0.09616
771.38746,0.09886
773.31593,0.11225
775.24440,0.11448
777.17287,0.10739
779.10134,0.09791
781.02981,0.09054
782.95828,0.09547
784.88674,0.10430
786.81521,0.10821
788.74368,0.11203
790.67215,0.11434
792.60062,0.11504
794.52909,0.11158
796.45756,0.10195
798.38602,0.10378
800.31449,0.11830
802.24296,0.11887
804.17143,0.10302
806.09990,0.09221
808.02837,0.09363
809.95684,0.09971
811.88531,0.09799
813.81377,0.09103
815.74224,0.09761
817.67071,0.10809
819.59918,0.10258
821.52765,0.09103
823.45612,0.08757
825.38459,0.09543
827.31305,0.10663
829.24152,0.10751
831.16999,0.10738
833.09846,0.12137
835.02693,0.13459
836.95540,0.13519
838.88387,0.13111
840.81234,0.12553
842.74080,0.11844
844.66927,0.10592
846.59774,0.09120
848.52621,0.08973
850.45468,0.10605
852.38315,0.11999
854.31162,0.11638
856.24008,0.10986
858.16855,0.10912
860.09702,0.11207
862.02549,0.11527
863.95396,0.10642
865.88243,0.09351
867.81090,0.08390
869.73937,0.07385
871.66783,0.07877
873.59630,0.09641
875.52477,0.11226
877.45324,0.12350
879.38171,0.12116
881.31018,0.10986
883.23865,0.09944
885.16711,0.09356
887.09558,0.09759
889.02405,0.10117
890.95252,0.10277
892.88099,0.10688
894.80946,0.10723
896.73793,0.11270
898.66640,0.11786
900.59486,0.11073
902.52333,0.11050
904.45180,0.12144
906.38027,0.12905
908.30874,0.13320
910.23721,0.13060
912.16568,0.11799
914.09414,0.10712
916.02261,0.10844
917.95108,0.11997
919.87955,0.13018
921.80802,0.12765
923.73649,0.11579
925.66496,0.10895
927.59343,0.11344
929.52189,0.12355
931.45036,0.12665
933.37883,0.11501
935.30730,0.10502
937.23577,0.11260
939.16424,0.12688
941.09271,0.13486
943.02117,0.13025
944.94964,0.11697
946.87811,0.11128
948.80658,0.11656
950.73505,0.12277
952.66352,0.12625
954.59199,0.12859
956.52045,0.12993
958.44892,0.12871
960.37739,0.12042
962.30586,0.10954
964.23433,0.11239
966.16280,0.12462
968.09127,0.12937
970.01974,0.12735
971.94820,0.12218
973.87667,0.11472
975.80514,0.10780
977.73361,0.10491
979.66208,0.11174
981.59055,0.12353
983.51902,0.12628
985.44748,0.12451
987.37595,0.12932
989.30442,0.13023
991.23289,0.12352
993.16136,0.12101
995.08983,0.12541
997.01830,0.13261
998.94677,0.13430
1000.87523,0.13420
1002.80370,0.14117
1004.73217,0.14230
1006.66064,0.13420
1008.58911,0.12917
1010.51758,0.12758
1012.44605,0.12896
1014.37451,0.13546
1016.30298,0.14762
1018.23145,0.15924
1020.15992,0.15602
1022.08839,0.13914
1024.01686,0.12142
1025.94533,0.09842
1027.87380,0.07668
1029.80226,0.08365
1031.73073,0.10806
1033.65920,0.12353
1035.58767,0.12932
1037.51614,0.12672
1039.44461,0.12207
1041.37308,0.11802
1043.30154,0.10826
1045.23001,0.10026
1047.15848,0.10847
1049.08695,0.12929
1051.01542,0.14611
1052.94389,0.14913
1054.87236,0.14349
1056.80083,0.14008
1058.72929,0.13279
1060.65776,0.12358
1062.58623,0.13299
1064.51470,0.14949
1066.44317,0.14347
1068.37164,0.12980
1070.30011,0.13619
1072.22857,0.14806
1074.15704,0.14508
1076.08551,0.13450
1078.01398,0.12817
1079.94245,0.13128
1081.87092,0.14120
1083.79939,0.14830
1085.72786,0.14821
1087.65632,0.14101
1089.58479,0.12847
1091.51326,0.11703
1093.44173,0.11320
1095.37020,0.12189
1097.29867,0.13534
1099.22714,0.14524
1101.15560,0.15480
1103.08407,0.15556
1105.01254,0.14482
1106.94101,0.13767
1108.86948,0.13994
1110.79795,0.14632
1112.72642,0.14863
1114.65489,0.14407
1116.58335,0.14214
1118.51182,0.14539
1120.44029,0.14740
1122.36876,0.14801
1124.29723,0.14309
1126.22570,0.13475
1128.15417,0.13804
1130.08263,0.14598
1132.01110,0.14247
1133.93957,0.13423
1135.86804,0.12927
1137.79651,0.12861
1139.72498,0.13529
1141.65345,0.14600
1143.58191,0.15171
1145.51038,0.14599
1147.43885,0.13267
1149.36732,0.12109
1151.29579,0.11806
1153.22426,0.12601
1155.15273,0.13587
1157.08120,0.14131
1159.00966,0.14631
1160.93813,0.14983
1162.86660,0.15076
1164.79507,0.14988
1166.72354,0.14703
1168.65201,0.14363
1170.58048,0.14110
1172.50894,0.14156
1174.43741,0.14329
1176.36588,0.13946
1178.29435,0.12843
1180.22282,0.12098
1182.15129,0.12657
1184.07976,0.13330
1186.00823,0.12588
1187.93669,0.11836
1189.86516,0.12644
1191.79363,0.13807
1193.72210,0.14357
1195.65057,0.14452
1197.57904,0.14516
1199.50751,0.14957
1201.43597,0.15512
1203.36444,0.15561
1205.29291,0.15120
1207.22138,0.14776
1209.14985,0.14357
1211.07832,0.13926
1213.00679,0.14018
1214.93526,0.14351
1216.86372,0.14307
1218.79219,0.13868
1220.72066,0.13641
1222.64913,0.13750
1224.57760,0.13815
1226.50607,0.13734
1228.43454,0.13654
1230.36300,0.13611
1232.29147,0.13769
1234.21994,0.14231
1236.14841,0.14663
1238.07688,0.14770
1240.00535,0.14356
1241.93382,0.13808
1243.86229,0.13755
1245.79075,0.14126
1247.71922,0.14365
1249.64769,0.14188
1251.57616,0.14054
1253.50463,0.14371
1255.43310,0.14364
1257.36157,0.13466
1259.29003,0.12992
1261.21850,0.13704
1263.14697,0.14610
1265.07544,0.14697
1267.00391,0.13740
1268.93238,0.12893
1270.86085,0.13355
1272.78932,0.14307
1274.71778,0.14480
1276.64625,0.14452
1278.57472,0.14755
1280.50319,0.14841
1282.43166,0.14645
1284.36013,0.14608
1286.28860,0.14588
1288.21706,0.14377
1290.14553,0.14394
1292.07400,0.14606
1294.00247,0.14701
1295.93094,0.14656
1297.85941,0.14385
1299.78788,0.13515
1301.71634,0.11865
1303.64481,0.10143
1305.57328,0.10110
1307.50175,0.12259
1309.43022,0.14203
1311.35869,0.14863
1313.28716,0.15124
1315.21563,0.15143
1317.14409,0.15204
1319.07256,0.15397
1321.00103,0.15188
1322.92950,0.14822
1324.85797,0.14564
1326.78644,0.14678
1328.71491,0.15393
1330.64337,0.15442
1332.57184,0.14721
1334.50031,0.14084
1336.42878,0.13630
1338.35725,0.13996
1340.28572,0.15050
1342.21419,0.12293
1344.14266,0.05089
1346.07112,0.04596
1347.99959,0.12613
1349.92806,0.16259
1351.85653,0.14947
1353.78500,0.14377
1355.71347,0.14431
1357.64194,0.15019
1359.57040,0.15922
1361.49887,0.16392
1363.42734,0.15978
1365.35581,0.15488
1367.28428,0.15275
1369.21275,0.15313
1371.14122,0.15970
1373.06969,0.16969
1374.99815,0.17240
1376.92662,0.16453
1378.85509,0.15789
1380.78356,0.15481
1382.71203,0.15201
1384.64050,0.15441
1386.56897,0.16379
1388.49743,0.16683
1390.42590,0.16457
1392.35437,0.16899
1394.28284,0.17768
1396.21131,0.18418
1398.13978,0.18524
1400.06825,0.18057
1401.99672,0.17638
1403.92518,0.17779
1405.85365,0.17698
1407.78212,0.16887
1409.71059,0.16049
1411.63906,0.15600
1413.56753,0.15863
1415.49600,0.16854
1417.42446,0.18095
1419.35293,0.17994
1421.28140,0.16895
1423.20987,0.16795
1425.13834,0.16968
1427.06681,0.16792
1428.99528,0.16735
1430.92375,0.16710
1432.85221,0.16868
1434.78068,0.17650
1436.70915,0.18479
1438.63762,0.18360
1440.56609,0.17674
1442.49456,0.17022
1444.42303,0.16813
1446.35149,0.17011
1448.27996,0.17328
1450.20843,0.17518
1452.13690,0.17732
1454.06537,0.18611
1455.99384,0.20669
1457.92231,0.21050
1459.85077,0.18495
1461.77924,0.17220
1463.70771,0.17562
1465.63618,0.18352
1467.56465,0.18477
1469.49312,0.18490
1471.42159,0.19186
1473.35006,0.20205
1475.27852,0.20397
1477.20699,0.19609
1479.13546,0.18594
1481.06393,0.18322
1482.99240,0.18473
1484.92087,0.18966
1486.84934,0.20598
1488.77780,0.22117
1490.70627,0.21008
1492.63474,0.19378
1494.56321,0.19159
1496.49168,0.19775
1498.42015,0.19910
1500.34862,0.19297
1502.27709,0.19134
1504.20555,0.20790
1506.13402,0.24750
1508.06249,0.24869
1509.99096,0.21333
1511.91943,0.19589
1513.84790,0.19535
1515.77637,0.20363
1517.70483,0.20797
1519.63330,0.20805
1521.56177,0.21111
1523.49024,0.20533
1525.41871,0.19826
1527.34718,0.19854
1529.27565,0.19931
1531.20412,0.20362
1533.13258,0.20960
1535.06105,0.20379
1536.98952,0.20242
1538.91799,0.22538
1540.84646,0.25012
1542.77493,0.23600
1544.70340,0.21509
1546.63186,0.20060
1548.56033,0.19856
1550.48880,0.20225
1552.41727,0.20371
1554.34574,0.20841
1556.27421,0.22132
1558.20268,0.24028
1560.13115,0.22354
1562.05961,0.19863
1563.98808,0.19124
1565.91655,0.19305
1567.84502,0.20063
1569.77349,0.20413
1571.70196,0.19691
1573.63043,0.19448
1575.55889,0.19775
1577.48736,0.19103
1579.41583,0.17987
1581.34430,0.17404
1583.27277,0.17098
1585.20124,0.16991
1587.12971,0.17257
1589.05818,0.17516
1590.98664,0.17345
1592.91511,0.17074
1594.84358,0.17092
1596.77205,0.17468
1598.70052,0.18167
1600.62899,0.18894
1602.55746,0.19107
1604.48592,0.18724
1606.41439,0.18544
1608.34286,0.19005
1610.27133,0.19280
1612.19980,0.19023
1614.12827,0.19248
1616.05674,0.20196
1617.98521,0.20091
1619.91367,0.19441
1621.84214,0.19682
1623.77061,0.19972
1625.69908,0.19694
1627.62755,0.19486
1629.55602,0.19307
1631.48449,0.19351
1633.41295,0.20211
1635.34142,0.21811
1637.26989,0.21632
1639.19836,0.20155
1641.12683,0.19227
1643.05530,0.19047
1644.98377,0.20050
1646.91223,0.22239
1648.84070,0.23430
1650.76917,0.24365
1652.69764,0.26225
1654.62611,0.24583
1656.55458,0.21656
1658.48305,0.20025
1660.41152,0.18850
1662.33998,0.18451
1664.26845,0.19122
1666.19692,0.19913
1668.12539,0.21153
1670.05386,0.22401
1671.98233,0.22047
1673.91080,0.21107
1675.83926,0.19963
1677.76773,0.19147
1679.69620,0.19467
1681.62467,0.20998
1683.55314,0.23420
1685.48161,0.23787
1687.41008,0.22302
1689.33855,0.21064
1691.26701,0.20179
1693.19548,0.20412
1695.12395,0.22154
1697.05242,0.24183
1698.98089,0.25074
1700.90936,0.23991
1702.83783,0.22188
1704.76629,0.21283
1706.69476,0.20400
1708.62323,0.19096
1710.55170,0.18216
1712.48017,0.18594
1714.40864,0.20397
1716.33711,0.22238
1718.26558,0.21174
1720.19404,0.19012
1722.12251,0.18036
1724.05098,0.17747
1725.97945,0.17905
1727.90792,0.18601
1729.83639,0.19708
1731.76486,0.21148
1733.69332,0.22107
1735.62179,0.21145
1737.55026,0.20067
1739.47873,0.19580
1741.40720,0.19438
1743.33567,0.19861
1745.26414,0.20630
1747.19261,0.21312
1749.12107,0.21278
1751.04954,0.19779
1752.97801,0.18392
1754.90648,0.18491
1756.83495,0.19232
1758.76342,0.19519
1760.69189,0.19539
1762.62035,0.19343
1764.54882,0.18989
1766.47729,0.19014
1768.40576,0.19400
1770.33423,0.20202
1772.26270,0.21024
1774.19117,0.20645
1776.11964,0.19815
1778.04810,0.19451
1779.97657,0.19569
1781.90504,0.19758
1783.83351,0.19676
1785.76198,0.19036
1787.69045,0.18266
1789.61892,0.18575
1791.54738,0.19801
1793.47585,0.20011
1795.40432,0.19342
1797.33279,0.19173
1799.26126,0.19503
1801.18973,0.19716
1803.11820,0.19605
1805.04666,0.19523
1806.97513,0.19583
1808.90360,0.19591
1810.83207,0.19428
1812.76054,0.19104
1814.68901,0.18659
1816.61748,0.18201
1818.54595,0.18001
1820.47441,0.18090
1822.40288,0.18544
1824.33135,0.19494
1826.25982,0.20224
1828.18829,0.20609
1830.11676,0.20729
1832.04523,0.20030
1833.97369,0.19160
1835.90216,0.18528
1837.83063,0.18158
1839.75910,0.18396
1841.68757,0.19475
1843.61604,0.20762
1845.54451,0.20683
1847.47298,0.19613
1849.40144,0.18693
1851.32991,0.18138
1853.25838,0.17844
1855.18685,0.17691
1857.11532,0.17763
1859.04379,0.18036
1860.97226,0.18311
1862.90072,0.18561
1864.82919,0.19149
1866.75766,0.20242
1868.68613,0.20885
1870.61460,0.20049
1872.54307,0.18886
1874.47154,0.18440
1876.40001,0.18409
1878.32847,0.18399
1880.25694,0.18450
1882.18541,0.18488
1884.11388,0.18571
1886.04235,0.18727
1887.97082,0.18950
1889.89929,0.19143
1891.82775,0.18965
1893.75622,0.18622
1895.68469,0.18201
1897.61316,0.17814
1899.54163,0.17822
1901.47010,0.17969
1903.39857,0.18232
1905.32704,0.18671
1907.25550,0.18872
1909.18397,0.18868
1911.11244,0.18790
1913.04091,0.18617
1914.96938,0.18651
1916.89785,0.18954
1918.82632,0.19107
1920.75478,0.18962
1922.68325,0.18840
1924.61172,0.18900
1926.54019,0.18845
1928.46866,0.18680
1930.39713,0.18819
1932.32560,0.19042
1934.25407,0.18907
1936.18253,0.18684
1938.11100,0.18738
1940.03947,0.18961
1941.96794,0.19085
1943.89641,0.19013
1945.82488,0.18931
1947.75335,0.18993
1949.68181,0.19115
1951.61028,0.19060
1953.53875,0.18832
1955.46722,0.18653
1957.39569,0.18460
1959.32416,0.18324
1961.25263,0.18511
1963.18110,0.18965
1965.10956,0.19382
1967.03803,0.19426
1968.96650,0.19097
1970.89497,0.18641
1972.82344,0.18352
1974.75191,0.18532
1976.68038,0.19015
1978.60884,0.19207
1980.53731,0.18936
1982.46578,0.18691
1984.39425,0.18641
1986.32272,0.18721
1988.25119,0.19078
1990.17966,0.19496
1992.10812,0.19468
1994.03659,0.18912
1995.96506,0.18431
1997.89353,0.18440
1999.82200,0.18633
2001.75047,0.18549
2003.67894,0.18277
2005.60741,0.18249
2007.53587,0.18469
2009.46434,0.18634
2011.39281,0.18771
2013.32128,0.19017
2015.24975,0.19107
2017.17822,0.18958
2019.10669,0.18975
2021.03515,0.19143
2022.96362,0.19020
2024.89209,0.18576
2026.82056,0.18310
2028.74903,0.18496
2030.67750,0.18996
2032.60597,0.19455
2034.53444,0.19406
2036.46290,0.18889
2038.39137,0.18326
2040.31984,0.18062
2042.24831,0.18209
2044.17678,0.18433
2046.10525,0.18494
2048.03372,0.18684
2049.96218,0.19057
2051.89065,0.19104
2053.81912,0.18683
2055.74759,0.18250
2057.67606,0.18215
2059.60453,0.18458
2061.53300,0.18540
2063.46147,0.18504
2065.38993,0.18597
2067.31840,0.18747
2069.24687,0.18948
2071.17534,0.19106
2073.10381,0.19027
2075.03228,0.18820
2076.96075,0.18602
2078.88921,0.18531
2080.81768,0.18716
2082.74615,0.18932
2084.67462,0.19087
2086.60309,0.19261
2088.53156,0.19312
2090.46003,0.19077
2092.38850,0.18778
2094.31696,0.18757
2096.24543,0.18957
2098.17390,0.19055
2100.10237,0.18908
2102.03084,0.18671
2103.95931,0.18720
2105.88778,0.19221
2107.81624,0.19595
2109.74471,0.19415
2111.67318,0.19157
2113.60165,0.19097
2115.53012,0.19066
2117.45859,0.19126
2119.38706,0.19226
2121.31553,0.19156
2123.24399,0.19014
2125.17246,0.18953
2127.10093,0.18916
2129.02940,0.18833
2130.95787,0.18836
2132.88634,0.19425
2134.81481,0.20721
2136.74327,0.21430
2138.67174,0.20549
2140.60021,0.19319
2142.52868,0.19036
2144.45715,0.19251
2146.38562,0.19322
2148.31409,0.19176
2150.24255,0.18900
2152.17102,0.18773
2154.09949,0.19004
2156.02796,0.19300
2157.95643,0.19325
2159.88490,0.19292
2161.81337,0.19292
2163.74184,0.19032
2165.67030,0.18711
2167.59877,0.18621
2169.52724,0.18550
2171.45571,0.18538
2173.38418,0.18692
2175.31265,0.18551
2177.24112,0.18183
2179.16958,0.18365
2181.09805,0.18957
2183.02652,0.19309
2184.95499,0.19434
2186.88346,0.19336
2188.81193,0.19103
2190.74040,0.19045
2192.66887,0.19064
2194.59733,0.19200
2196.52580,0.19464
2198.45427,0.19579
2200.38274,0.19498
2202.31121,0.19229
2204.23968,0.18946
2206.16815,0.18870
2208.09661,0.19022
2210.02508,0.19439
2211.95355,0.19880
2213.88202,0.19809
2215.81049,0.19238
2217.73896,0.18861
2219.66743,0.18884
2221.59590,0.18865
2223.52436,0.18759
2225.45283,0.18880
2227.38130,0.19004
2229.30977,0.18878
2231.23824,0.18946
2233.16671,0.19223
2235.09518,0.19312
2237.02364,0.19363
2238.95211,0.19478
2240.88058,0.19498
2242.80905,0.19433
2244.73752,0.19339
2246.66599,0.19372
2248.59446,0.19580
2250.52293,0.19543
2252.45139,0.19173
2254.37986,0.19005
2256.30833,0.19149
2258.23680,0.19189
2260.16527,0.19040
2262.09374,0.19128
2264.02221,0.19526
2265.95067,0.19584
2267.87914,0.19223
2269.80761,0.19189
2271.73608,0.19331
2273.66455,0.19140
2275.59302,0.18969
2277.52149,0.19092
2279.44996,0.19319
2281.37842,0.19364
2283.30689,0.19352
2285.23536,0.19460
2287.16383,0.19352
2289.09230,0.19132
2291.02077,0.19142
2292.94924,0.19238
2294.87770,0.19218
2296.80617,0.19226
2298.73464,0.19635
2300.66311,0.20258
2302.59158,0.20435
2304.52005,0.19938
2306.44852,0.19322
2308.37699,0.19297
2310.30545,0.19696
2312.23392,0.19978
2314.16239,0.20182
2316.09086,0.20500
2318.01933,0.20806
2319.94780,0.21013
2321.87627,0.21455
2323.80473,0.22350
2325.73320,0.23123
2327.66167,0.23290
2329.59014,0.23356
2331.51861,0.23903
2333.44708,0.24685
2335.37555,0.25449
2337.30401,0.25319
2339.23248,0.23823
2341.16095,0.23379
2343.08942,0.23806
2345.01789,0.22451
2346.94636,0.21109
2348.87483,0.21343
2350.80330,0.22802
2352.73176,0.24603
2354.66023,0.25467
2356.58870,0.26503
2358.51717,0.27910
2360.44564,0.27115
2362.37411,0.25313
2364.30258,0.24906
2366.23104,0.24253
2368.15951,0.22853
2370.08798,0.22253
2372.01645,0.22173
2373.94492,0.22072
2375.87339,0.21790
2377.80186,0.21336
2379.73033,0.20759
2381.65879,0.20043
2383.58726,0.19527
2385.51573,0.19398
2387.44420,0.19261
2389.37267,0.18999
2391.30114,0.19113
2393.22961,0.19548
2395.15807,0.19645
2397.08654,0.19525
2399.01501,0.19733
2400.94348,0.19963
2402.87195,0.19875
2404.80042,0.19678
2406.72889,0.19387
2408.65736,0.19136
2410.58582,0.19087
2412.51429,0.18892
2414.44276,0.18550
2416.37123,0.18574
2418.29970,0.19091
2420.22817,0.19565
2422.15664,0.19468
2424.08510,0.19182
2426.01357,0.19144
2427.94204,0.19059
2429.87051,0.19013
2431.79898,0.19398
2433.72745,0.19863
2435.65592,0.19846
2437.58439,0.19568
2439.51285,0.19425
2441.44132,0.19436
2443.36979,0.19522
2445.29826,0.19448
2447.22673,0.19273
2449.15520,0.19210
2451.08367,0.18849
2453.01213,0.18235
2454.94060,0.18325
2456.86907,0.19049
2458.79754,0.19450
2460.72601,0.19496
2462.65448,0.19552
2464.58295,0.19618
2466.51142,0.19726
2468.43988,0.19885
2470.36835,0.19933
2472.29682,0.19817
2474.22529,0.19645
2476.15376,0.19386
2478.08223,0.19024
2480.01070,0.18888
2481.93916,0.19141
2483.86763,0.19437
2485.79610,0.19632
2487.72457,0.19717
2489.65304,0.19578
2491.58151,0.19282
2493.50998,0.19006
2495.43844,0.19029
2497.36691,0.19208
2499.29538,0.19296
2501.22385,0.19504
2503.15232,0.19824
2505.08079,0.20114
2507.00926,0.20167
2508.93773,0.19846
2510.86619,0.19534
2512.79466,0.19392
2514.72313,0.19247
2516.65160,0.19215
2518.58007,0.19316
2520.50854,0.19346
2522.43701,0.19313
2524.36547,0.19302
2526.29394,0.19362
2528.22241,0.19634
2530.15088,0.20010
2532.07935,0.20006
2534.00782,0.19469
2535.93629,0.18937
2537.86476,0.18926
2539.79322,0.19261
2541.72169,0.19594
2543.65016,0.19969
2545.57863,0.20253
2547.50710,0.20087
2549.43557,0.19674
2551.36404,0.19452
2553.29250,0.19543
2555.22097,0.19940
2557.14944,0.20211
2559.07791,0.20122
2561.00638,0.20063
2562.93485,0.19896
2564.86332,0.19559
2566.79179,0.19533
2568.72025,0.19586
2570.64872,0.19380
2572.57719,0.19345
2574.50566,0.19637
2576.43413,0.19910
2578.36260,0.20023
2580.29107,0.19905
2582.21953,0.19613
2584.14800,0.19475
2586.07647,0.19615
2588.00494,0.19944
2589.93341,0.20270
2591.86188,0.20294
2593.79035,0.20051
2595.71882,0.19827
2597.64728,0.19622
2599.57575,0.19546
2601.50422,0.19767
2603.43269,0.20010
2605.36116,0.20174
2607.28963,0.20097
2609.21810,0.19570
2611.14656,0.19006
2613.07503,0.18767
2615.00350,0.19047
2616.93197,0.19759
2618.86044,0.20358
2620.78891,0.20552
2622.71738,0.20495
2624.64585,0.20513
2626.57431,0.20521
2628.50278,0.20197
2630.43125,0.19866
2632.35972,0.19808
2634.28819,0.19739
2636.21666,0.19733
2638.14513,0.19933
2640.07359,0.19903
2642.00206,0.19609
2643.93053,0.19655
2645.85900,0.20020
2647.78747,0.20119
2649.71594,0.20039
2651.64441,0.20047
2653.57288,0.19990
2655.50134,0.19990
2657.42981,0.20255
2659.35828,0.20447
2661.28675,0.20277
2663.21522,0.20151
2665.14369,0.20308
2667.07216,0.20572
2669.00062,0.20780
2670.92909,0.20626
2672.85756,0.20202
2674.78603,0.20068
2676.71450,0.20161
2678.64297,0.20152
2680.57144,0.20228
2682.49990,0.20239
2684.42837,0.19883
2686.35684,0.19568
2688.28531,0.19738
2690.21378,0.20200
2692.14225,0.20403
2694.07072,0.20164
2695.99919,0.19930
2697.92765,0.20132
2699.85612,0.20494
2701.78459,0.20603
2703.71306,0.20553
2705.64153,0.20418
2707.57000,0.20095
2709.49847,0.19812
2711.42693,0.20077
2713.35540,0.20548
2715.28387,0.20500
2717.21234,0.20373
2719.14081,0.20598
2721.06928,0.20553
2722.99775,0.20035
2724.92622,0.19805
2726.85468,0.20149
2728.78315,0.20599
2730.71162,0.20970
2732.64009,0.21238
2734.56856,0.21141
2736.49703,0.20746
2738.42550,0.20527
2740.35396,0.20537
2742.28243,0.20484
2744.21090,0.20415
2746.13937,0.20649
2748.06784,0.21129
2749.99631,0.21254
2751.92478,0.21049
2753.85325,0.21027
2755.78171,0.20980
2757.71018,0.20798
2759.63865,0.20813
2761.56712,0.21025
2763.49559,0.21166
2765.42406,0.21173
2767.35253,0.21298
2769.28099,0.21488
2771.20946,0.21314
2773.13793,0.20942
2775.06640,0.20916
2776.99487,0.21033
2778.92334,0.20843
2780.85181,0.20456
2782.78028,0.20105
2784.70874,0.20088
2786.63721,0.20601
2788.56568,0.21089
2790.49415,0.21010
2792.42262,0.20682
2794.35109,0.20720
2796.27956,0.21290
2798.20802,0.21866
2800.13649,0.22088
2802.06496,0.22172
2803.99343,0.22273
2805.92190,0.22237
2807.85037,0.21805
2809.77884,0.21465
2811.70731,0.21685
2813.63577,0.21731
2815.56424,0.21221
2817.49271,0.20839
2819.42118,0.20960
2821.34965,0.21312
2823.27812,0.21594
2825.20659,0.21728
2827.13505,0.21880
2829.06352,0.22039
2830.99199,0.22080
2832.92046,0.22113
2834.84893,0.22021
2836.77740,0.21844
2838.70587,0.21817
2840.63433,0.21537
2842.56280,0.20940
2844.49127,0.20607
2846.41974,0.20744
2848.34821,0.21098
2850.27668,0.21175
2852.20515,0.21066
2854.13362,0.21225
2856.06208,0.21413
2857.99055,0.21481
2859.91902,0.21523
2861.84749,0.21467
2863.77596,0.21417
2865.70443,0.21428
2867.63290,0.21282
2869.56136,0.20847
2871.48983,0.20324
2873.41830,0.20012
2875.34677,0.20138
2877.27524,0.20537
2879.20371,0.20832
2881.13218,0.20993
2883.06065,0.20955
2884.98911,0.20645
2886.91758,0.20424
2888.84605,0.20606
2890.77452,0.20890
2892.70299,0.20711
2894.63146,0.20170
2896.55993,0.20196
2898.48839,0.20976
2900.41686,0.21380
2902.34533,0.20974
2904.27380,0.20612
2906.20227,0.20714
2908.13074,0.20677
2910.05921,0.20204
2911.98768,0.19910
2913.91614,0.19967
2915.84461,0.19760
2917.77308,0.19502
2919.70155,0.20003
2921.63002,0.20952
2923.55849,0.21175
2925.48696,0.20296
2927.41542,0.19602
2929.34389,0.20055
2931.27236,0.20982
2933.20083,0.21477
2935.12930,0.20917
2937.05777,0.19969
2938.98624,0.20199
2940.91471,0.21287
2942.84317,0.21930
2944.77164,0.21447
2946.70011,0.20095
2948.62858,0.19597
2950.55705,0.20367
2952.48552,0.20944
2954.41399,0.20737
2956.34245,0.19381
2958.27092,0.17982
2960.19939,0.18630
2962.12786,0.20114
2964.05633,0.20481
2965.98480,0.20034
2967.91327,0.19650
2969.84174,0.19818
2971.77020,0.20298
2973.69867,0.20886
2975.62714,0.20947
2977.55561,0.20105
2979.48408,0.20079
2981.41255,0.21192
2983.34102,0.21628
2985.26948,0.21061
2987.19795,0.20132
2989.12642,0.19791
2991.05489,0.20659
2992.98336,0.21653
2994.91183,0.21989
2996.84030,0.21994
2998.76877,0.22013
3000.69723,0.22111
3002.62570,0.22027
3004.55417,0.21814
3006.48264,0.21382
3008.41111,0.20276
3010.33958,0.18365
3012.26805,0.15439
3014.19651,0.11442
3016.12498,0.08751
3018.05345,0.11060
3019.98192,0.16815
3021.91039,0.20912
3023.83886,0.22280
3025.76733,0.21967
3027.69579,0.20790
3029.62426,0.20722
3031.55273,0.22118
3033.48120,0.23083
3035.40967,0.22984
3037.33814,0.22434
3039.26661,0.22084
3041.19508,0.22104
3043.12354,0.22097
3045.05201,0.21797
3046.98048,0.21214
3048.90895,0.20978
3050.83742,0.21176
3052.76589,0.21175
3054.69436,0.20639
3056.62282,0.19559
3058.55129,0.19311
3060.47976,0.20375
3062.40823,0.21170
3064.33670,0.20802
3066.26517,0.19556
3068.19364,0.18864
3070.12211,0.19528
3072.05057,0.20443
3073.97904,0.20459
3075.90751,0.19941
3077.83598,0.20404
3079.76445,0.21617
3081.69292,0.21760
3083.62139,0.20347
3085.54985,0.18899
3087.47832,0.19207
3089.40679,0.20859
3091.33526,0.21834
3093.26373,0.21047
3095.19220,0.20113
3097.12067,0.20667
3099.04914,0.21407
3100.97760,0.20814
3102.90607,0.19127
3104.83454,0.18330
3106.76301,0.19476
3108.69148,0.21002
3110.61995,0.21293
3112.54842,0.20366
3114.47688,0.19995
3116.40535,0.21200
3118.33382,0.22338
3120.26229,0.21639
3122.19076,0.20417
3124.11923,0.20953
3126.04770,0.22251
3127.97617,0.22300
3129.90463,0.21406
3131.83310,0.21172
3133.76157,0.21960
3135.69004,0.22457
3137.61851,0.22129
3139.54698,0.21837
3141.47545,0.21949
3143.40391,0.21965
3145.33238,0.21758
3147.26085,0.21419
3149.18932,0.21195
3151.11779,0.21359
3153.04626,0.21852
3154.97473,0.22458
3156.90320,0.22710
3158.83166,0.22874
3160.76013,0.23179
3162.68860,0.22984
3164.61707,0.22467
3166.54554,0.22457
3168.47401,0.22884
3170.40248,0.22760
3172.33094,0.22293
3174.25941,0.22642
3176.18788,0.23085
3178.11635,0.22671
3180.04482,0.22150
3181.97329,0.21887
3183.90176,0.21851
3185.83022,0.22320
3187.75869,0.22771
3189.68716,0.22502
3191.61563,0.21731
3193.54410,0.21431
3195.47257,0.22083
3197.40104,0.22674
3199.32951,0.22487
3201.25797,0.22262
3203.18644,0.22298
3205.11491,0.22113
3207.04338,0.21746
3208.97185,0.21404
3210.90032,0.21402
3212.82879,0.21896
3214.75725,0.22204
3216.68572,0.21993
3218.61419,0.21405
3220.54266,0.20796
3222.47113,0.20856
3224.39960,0.21468
3226.32807,0.21926
3228.25654,0.21859
3230.18500,0.21538
3232.11347,0.21765
3234.04194,0.22659
3235.97041,0.23151
3237.89888,0.22770
3239.82735,0.22012
3241.75582,0.21283
3243.68428,0.21232
3245.61275,0.21754
3247.54122,0.21872
3249.46969,0.21264
3251.39816,0.20658
3253.32663,0.21194
3255.25510,0.22068
3257.18357,0.22032
3259.11203,0.22122
3261.04050,0.22684
3262.96897,0.22948
3264.89744,0.23094
3266.82591,0.22944
3268.75438,0.22317
3270.68285,0.21893
3272.61131,0.21768
3274.53978,0.21650
3276.46825,0.21883
3278.39672,0.22372
3280.32519,0.22025
3282.25366,0.20843
3284.18213,0.20427
3286.11060,0.21543
3288.03906,0.22861
3289.96753,0.22697
3291.89600,0.21639
3293.82447,0.21418
3295.75294,0.21912
3297.68141,0.22271
3299.60988,0.22420
3301.53834,0.22349
3303.46681,0.22149
3305.39528,0.21954
3307.32375,0.21587
3309.25222,0.21005
3311.18069,0.20787
3313.10916,0.21268
3315.03763,0.21798
3316.96609,0.21894
3318.89456,0.21727
3320.82303,0.21776
3322.75150,0.21854
3324.67997,0.21362
3326.60844,0.21299
3328.53691,0.22193
3330.46537,0.22596
3332.39384,0.22127
3334.32231,0.21894
3336.25078,0.22170
3338.17925,0.22149
3340.10772,0.21719
3342.03619,0.21613
3343.96466,0.21627
3345.89312,0.21593
3347.82159,0.22224
3349.75006,0.22958
3351.67853,0.22821
3353.60700,0.22199
3355.53547,0.21891
3357.46394,0.22291
3359.39240,0.22688
3361.32087,0.22221
3363.24934,0.21391
3365.17781,0.21103
3367.10628,0.21584
3369.03475,0.22195
3370.96322,0.22048
3372.89168,0.21719
3374.82015,0.21790
3376.74862,0.21626
3378.67709,0.21553
3380.60556,0.21744
3382.53403,0.21593
3384.46250,0.21437
3386.39097,0.21610
3388.31943,0.21751
3390.24790,0.21661
3392.17637,0.21549
3394.10484,0.21688
3396.03331,0.22123
3397.96178,0.22548
3399.89025,0.22561
3401.81871,0.22339
3403.74718,0.22404
3405.67565,0.22376
3407.60412,0.21562
3409.53259,0.20601
3411.46106,0.20280
3413.38953,0.20165
3415.31800,0.19993
3417.24646,0.20175
3419.17493,0.20525
3421.10340,0.20832
3423.03187,0.21029
3424.96034,0.20588
3426.88881,0.20077
3428.81728,0.20566
3430.74574,0.21663
3432.67421,0.22051
3434.60268,0.21334
3436.53115,0.20675
3438.45962,0.21019
3440.38809,0.21661
3442.31656,0.21907
3444.24503,0.22250
3446.17349,0.22663
3448.10196,0.22555
3450.03043,0.22141
3451.95890,0.21887
3453.88737,0.21661
3455.81584,0.21149
3457.74431,0.20501
3459.67277,0.20059
3461.60124,0.20084
3463.52971,0.20386
3465.45818,0.20523
3467.38665,0.20409
3469.31512,0.20105
3471.24359,0.19944
3473.17206,0.20011
3475.10052,0.19876
3477.02899,0.19850
3478.95746,0.20378
3480.88593,0.20985
3482.81440,0.21131
3484.74287,0.20694
3486.67134,0.20048
3488.59980,0.19658
3490.52827,0.19497
3492.45674,0.19496
3494.38521,0.19693
3496.31368,0.19847
3498.24215,0.19659
3500.17062,0.19516
3502.09909,0.19656
3504.02755,0.19667
3505.95602,0.19780
3507.88449,0.19982
3509.81296,0.19692
3511.74143,0.18953
3513.66990,0.18183
3515.59837,0.17894
3517.52683,0.18061
3519.45530,0.18297
3521.38377,0.18450
3523.31224,0.17992
3525.24071,0.17430
3527.16918,0.17564
3529.09765,0.17359
3531.02611,0.16752
3532.95458,0.16790
3534.88305,0.17516
3536.81152,0.18243
3538.73999,0.18232
3540.66846,0.17828
3542.59693,0.17507
3544.52540,0.17245
3546.45386,0.17464
3548.38233,0.18034
3550.31080,0.18330
3552.23927,0.18192
3554.16774,0.17779
3556.09621,0.17505
3558.02468,0.17242
3559.95314,0.17021
3561.88161,0.17350
3563.81008,0.17915
3565.73855,0.18216
3567.66702,0.18109
3569.59549,0.17645
3571.52396,0.17148
3573.45243,0.16610
3575.38089,0.16180
3577.30936,0.16246
3579.23783,0.16676
3581.16630,0.17058
3583.09477,0.17348
3585.02324,0.17893
3586.95171,0.18500
3588.88017,0.17924
3590.80864,0.16767
3592.73711,0.16146
3594.66558,0.15974
3596.59405,0.15864
3598.52252,0.15738
3600.45099,0.15815
3602.37946,0.15989
3604.30792,0.16299
3606.23639,0.16795
3608.16486,0.16862
3610.09333,0.16633
3612.02180,0.16807
3613.95027,0.16907
3615.87874,0.16939
3617.80720,0.17429
3619.73567,0.17495
3621.66414,0.16539
3623.59261,0.15438
3625.52108,0.14910
3627.44955,0.15710
3629.37802,0.17240
3631.30649,0.17333
3633.23495,0.16540
3635.16342,0.15680
3637.09189,0.15128
3639.02036,0.14730
3640.94883,0.14619
3642.87730,0.15124
3644.80577,0.16110
3646.73423,0.17498
3648.66270,0.18170
3650.59117,0.16355
3652.51964,0.14406
3654.44811,0.13606
3656.37658,0.13852
3658.30505,0.14538
3660.23352,0.14821
3662.16198,0.14651
3664.09045,0.14210
3666.01892,0.13813
3667.94739,0.13961
3669.87586,0.14773
3671.80433,0.15449
3673.73280,0.16303
3675.66126,0.17049
3677.58973,0.16260
3679.51820,0.15110
3681.44667,0.14041
3683.37514,0.13461
3685.30361,0.13933
3687.23208,0.15300
3689.16055,0.16895
3691.08901,0.16969
3693.01748,0.15504
3694.94595,0.14039
3696.87442,0.13180
3698.80289,0.13032
3700.73136,0.13263
3702.65983,0.13289
3704.58829,0.13416
3706.51676,0.13993
3708.44523,0.15090
3710.37370,0.16558
3712.30217,0.16111
3714.23064,0.14188
3716.15911,0.13605
3718.08757,0.14079
3720.01604,0.14223
3721.94451,0.13700
3723.87298,0.13283
3725.80145,0.13383
3727.72992,0.13941
3729.65839,0.15022
3731.58686,0.16600
3733.51532,0.17749
3735.44379,0.17542
3737.37226,0.16651
3739.30073,0.15875
3741.22920,0.15778
3743.15767,0.16405
3745.08614,0.16297
3747.01460,0.15542
3748.94307,0.15881
3750.87154,0.16139
3752.80001,0.14636
3754.72848,0.13434
3756.65695,0.13324
3758.58542,0.13586
3760.51389,0.13595
3762.44235,0.13439
3764.37082,0.13175
3766.29929,0.12972
3768.22776,0.13226
3770.15623,0.13358
3772.08470,0.12507
3774.01317,0.11714
3775.94163,0.12164
3777.87010,0.13120
3779.79857,0.12836
3781.72704,0.11983
3783.65551,0.11903
3785.58398,0.12273
3787.51245,0.12703
3789.44092,0.12911
3791.36938,0.12993
3793.29785,0.13373
3795.22632,0.14045
3797.15479,0.14620
3799.08326,0.14694
3801.01173,0.14479
3802.94020,0.14427
3804.86866,0.14676
3806.79713,0.14896
3808.72560,0.14145
3810.65407,0.12956
3812.58254,0.12536
3814.51101,0.13066
3816.43948,0.13875
3818.36795,0.14606
3820.29641,0.15453
3822.22488,0.14997
3824.15335,0.13687
3826.08182,0.13075
3828.01029,0.12747
3829.93876,0.12598
3831.86723,0.13163
3833.79569,0.13938
3835.72416,0.14486
3837.65263,0.15045
3839.58110,0.15037
3841.50957,0.14604
3843.43804,0.13976
3845.36651,0.13102
3847.29498,0.12851
3849.22344,0.13528
3851.15191,0.14925
3853.08038,0.16530
3855.00885,0.15748
3856.93732,0.14214
3858.86579,0.13680
3860.79426,0.13923
3862.72272,0.14400
3864.65119,0.13757
3866.57966,0.12611
3868.50813,0.12970
3870.43660,0.14064
3872.36507,0.14024
3874.29354,0.13429
3876.22200,0.13258
3878.15047,0.13834
3880.07894,0.14485
3882.00741,0.14193
3883.93588,0.13649
3885.86435,0.13410
3887.79282,0.13179
3889.72129,0.13052
3891.64975,0.13127
3893.57822,0.12621
3895.50669,0.11545
3897.43516,0.11201
3899.36363,0.12371
3901.29210,0.13808
3903.22057,0.14152
3905.14903,0.13656
3907.07750,0.12577
3909.00597,0.11273
3910.93444,0.10321
3912.86291,0.10226
3914.79138,0.10853
3916.71985,0.11497
3918.64832,0.11577
3920.57678,0.11279
3922.50525,0.11330
3924.43372,0.11866
3926.36219,0.11987
3928.29066,0.11644
3930.21913,0.11714
3932.14760,0.11673
3934.07606,0.10884
3936.00453,0.10237
3937.93300,0.09852
3939.86147,0.09896
3941.78994,0.10639
3943.71841,0.11093
3945.64688,0.11064
3947.57535,0.11164
3949.50381,0.11167
3951.43228,0.10907
3953.36075,0.10852
3955.28922,0.10966
3957.21769,0.10587
3959.14616,0.09940
3961.07463,0.09894
3963.00309,0.10454
3964.93156,0.10979
3966.86003,0.11349
3968.78850,0.11623
3970.71697,0.11380
3972.64544,0.10639
3974.57391,0.10170
3976.50238,0.10137
3978.43084,0.10048
3980.35931,0.09981
3982.28778,0.09900
3984.21625,0.09747
3986.14472,0.10165
3988.07319,0.10982
3990.00166,0.11341
3991.93012,0.10974
3993.85859,0.10195
3995.78706,0.09783
3997.71553,0.10052
3999.64400,0.10290
4001.57247,0.10130
4003.50094,0.10075
4005.42941,0.10185
4007.35787,0.09797
4009.28634,0.09197
4011.21481,0.09274
4013.14328,0.09628
4015.07175,0.09756
4017.00022,0.09941
4018.92869,0.10048
4020.85715,0.09574
4022.78562,0.08764
4024.71409,0.08259
4026.64256,0.08225
4028.57103,0.08730
4030.49950,0.09537
4032.42797,0.10086
4034.35644,0.10497
4036.28490,0.10887
4038.21337,0.10668
4040.14184,0.09968
4042.07031,0.09595
4043.99878,0.09361
4045.92725,0.08696
4047.85572,0.08052
4049.78418,0.08137
4051.71265,0.08447
4053.64112,0.07959
4055.56959,0.07052
4057.49806,0.06902
4059.42653,0.07654
4061.35500,0.08920
4063.28346,0.10303
4065.21193,0.10764
4067.14040,0.09861
4069.06887,0.08603
4070.99734,0.08157
4072.92581,0.08755
4074.85428,0.09471
4076.78275,0.09508
4078.71121,0.09092
4080.63968,0.08635
4082.56815,0.08260
4084.49662,0.08145
4086.42509,0.08485
4088.35356,0.08827
4090.28203,0.08708
4092.21049,0.08591
4094.13896,0.08553
4096.06743,0.08094
4097.99590,0.07688
4099.92437,0.07919
4101.85284,0.08221
4103.78131,0.08063
4105.70978,0.07944
4107.63824,0.08308
4109.56671,0.08762
4111.49518,0.08861
4113.42365,0.08565
4115.35212,0.08142
4117.28059,0.07895
4119.20906,0.07792
4121.13752,0.07510
4123.06599,0.07171
4124.99446,0.07261
4126.92293,0.07648
4128.85140,0.07695
4130.77987,0.07236
4132.70834,0.06867
4134.63681,0.07009
4136.56527,0.07392
4138.49374,0.07590
4140.42221,0.07646
4142.35068,0.07629
4144.27915,0.07145
4146.20762,0.06523
4148.13609,0.06404
4150.06455,0.06543
4151.99302,0.06537
4153.92149,0.06386
4155.84996,0.06298
4157.77843,0.06348
4159.70690,0.06664
4161.63537,0.07229
4163.56384,0.07910
4165.49230,0.08560
4167.42077,0.08607
4169.34924,0.08098
4171.27771,0.07458
4173.20618,0.06568
4175.13465,0.06042
4177.06312,0.06475
4178.99158,0.07020
4180.92005,0.07128
4182.84852,0.07011
4184.77699,0.06652
4186.70546,0.06526
4188.63393,0.06773
4190.56240,0.06302
4192.49087,0.05001
4194.41933,0.04094
4196.34780,0.04652
4198.27627,0.06568
4200.20474,0.07679
4202.13321,0.07048
4204.06168,0.06537
4205.99015,0.06650
4207.91861,0.06416
4209.84708,0.05826
4211.77555,0.05482
4213.70402,0.05522
4215.63249,0.05429
4217.56096,0.05446
4219.48943,0.06090
4221.41789,0.06499
4223.34636,0.05970
4225.27483,0.05317
4227.20330,0.05387
4229.13177,0.05758
4231.06024,0.05879
4232.98871,0.05835
4234.91718,0.05618
4236.84564,0.05171
4238.77411,0.04539
4240.70258,0.03981
4242.63105,0.03892
4244.55952,0.04389
4246.48799,0.05086
4248.41646,0.05260
4250.34492,0.05058
4252.27339,0.05198
4254.20186,0.05425
4256.13033,0.05476
4258.05880,0.05909
4259.98727,0.06324
4261.91574,0.06024
4263.84421,0.05798
4265.77267,0.06019
4267.70114,0.06017
4269.62961,0.05661
4271.55808,0.05433
4273.48655,0.05406
4275.41502,0.04656
4277.34349,0.03087
4279.27195,0.02412
4281.20042,0.03039
4283.12889,0.03529
4285.05736,0.03873
4286.98583,0.04694
4288.91430,0.05283
4290.84277,0.05165
4292.77124,0.04704
4294.69970,0.04210
4296.62817,0.03548
4298.55664,0.02729
4300.48511,0.02437
4302.41358,0.02784
4304.34205,0.03119
4306.27052,0.03377
4308.19898,0.03663
4310.12745,0.03734
4312.05592,0.03460
4313.98439,0.03135
4315.91286,0.03204
4317.84133,0.03465
4319.76980,0.03793
4321.69827,0.04175
4323.62673,0.04128
4325.55520,0.03494
4327.48367,0.02300
4329.41214,0.01000
4331.34061,0.00616
4333.26908,0.01132
4335.19755,0.01331
4337.12601,0.01246
4339.05448,0.01700
4340.98295,0.02203
4342.91142,0.02526
4344.83989,0.03197
4346.76836,0.04002
4348.69683,0.03953
4350.62530,0.03079
4352.55376,0.02568
4354.48223,0.02644
4356.41070,0.02528
4358.33917,0.01705
4360.26764,0.01189
4362.19611,0.02125
4364.12458,0.03340
4366.05304,0.03214
4367.98151,0.02400
4369.90998,0.02023
4371.83845,0.01713
4373.76692,0.01215
4375.69539,0.00789
4377.62386,0.00757
4379.55232,0.01195
4381.48079,0.01441
4383.40926,0.01372
4385.33773,0.01543
4387.26620,0.01862
4389.19467,0.01734
4391.12314,0.01604
4393.05161,0.02186
4394.98007,0.02839
4396.90854,0.02717
4398.83701,0.01989
4400.76548,0.01406
4402.69395,0.01333
4404.62242,0.01624
4406.55089,0.01995
4408.47935,0.02232
4410.40782,0.02221
4412.33629,0.02092
4414.26476,0.02406
4416.19323,0.02831
4418.12170,0.02417
4420.05017,0.01428
4421.97864,0.00706
4423.90710,0.00522
4425.83557,0.00519
4427.76404,0.00408
4429.69251,0.00268
4431.62098,-0.00157
4433.54945,-0.00526
4435.47792,0.00131
4437.40638,0.01073
4439.33485,0.00709
4441.26332,-0.00238
4443.19179,-0.00143
4445.12026,0.00838
4447.04873,0.01671
4448.97720,0.01577
4450.90567,0.01128
4452.83413,0.01200
4454.76260,0.01272
4456.69107,0.01518
4458.61954,0.01864
4460.54801,0.01099
4462.47648,0.00084
4464.40495,0.00181
4466.33341,0.00437
4468.26188,-0.00016
4470.19035,-0.00511
4472.11882,-0.00002
4474.04729,0.01761
4475.97576,0.03552
4477.90423,0.04303
4479.83270,0.04387
4481.76116,0.04186
4483.68963,0.03680
4485.61810,0.02992
4487.54657,0.02303
4489.47504,0.01597
4491.40351,0.00816
4493.33198,0.00275
4495.26044,0.00479
4497.18891,0.01150
4499.11738,0.01081
4501.04585,0.00530
4502.97432,0.00937
4504.90279,0.01896
4506.83126,0.02285
4508.75973,0.01677
4510.68819,0.00168
4512.61666,-0.01014
4514.54513,-0.00770
4516.47360,0.00447
4518.40207,0.01207
4520.33054,0.00647
4522.25901,-0.00202
4524.18747,0.00110
4526.11594,0.01139
4528.04441,0.01541
4529.97288,0.00884
4531.90135,-0.00203
4533.82982,-0.00826
4535.75829,-0.00595
4537.68676,0.00427
4539.61522,0.01691
4541.54369,0.02310
4543.47216,0.02214
4545.40063,0.01833
4547.32910,0.00922
4549.25757,-0.00116
4551.18604,-0.00044
4553.11450,0.01016
4555.04297,0.02568
4556.97144,0.03697
4558.89991,0.02500
4560.82838,0.00297
4562.75685,-0.00157
4564.68532,0.00561
4566.61378,0.01136
4568.54225,0.01454
4570.47072,0.01143
4572.39919,0.00439
4574.32766,0.00330
4576.25613,0.00643
4578.18460,0.00815
4580.11307,0.01205
4582.04153,0.01782
4583.97000,0.01295
4585.89847,-0.00289
4587.82694,-0.00880
4589.75541,-0.00236
4591.68388,0.00118
4593.61235,-0.00029
4595.54081,-0.00685
4597.46928,-0.01383
4599.39775,-0.00747
4601.32622,0.00802
4603.25469,0.01548
4605.18316,0.01151
4607.11163,0.00310
4609.04010,-0.00414
4610.96856,-0.00817
4612.89703,-0.01292
4614.82550,-0.01560
4616.75397,-0.00936
4618.68244,0.00236
4620.61091,0.01426
4622.53938,0.01941
4624.46784,0.01251
4626.39631,0.00531
4628.32478,0.00819
4630.25325,0.01336
4632.18172,0.01733
4634.11019,0.02255
4636.03866,0.02075
4637.96713,0.00481
4639.89559,-0.01249
4641.82406,-0.00983
4643.75253,0.00931
4645.68100,0.02121
4647.60947,0.01645
4649.53794,-0.00013
4651.46641,-0.01614
4653.39487,-0.02000
4655.32334,-0.01362
4657.25181,-0.00559
4659.18028,-0.00164
4661.10875,0.00198
4663.03722,0.00670
4664.96569,0.01458
4666.89416,0.03254
4668.82262,0.05100
4670.75109,0.04615
4672.67956,0.01727
4674.60803,0.00267
4676.53650,0.00611
4678.46497,-0.00811
4680.39344,-0.02691
4682.32190,-0.01957
4684.25037,0.00035
4686.17884,0.00777
4688.10731,0.00843
4690.03578,0.00983
4691.96425,0.00318
4693.89272,-0.00483
4695.82119,-0.00758
4697.74965,-0.01005
4699.67812,-0.00739
4701.60659,0.00391
4703.53506,0.01035
4705.46353,0.00797
4707.39200,0.01534
4709.32047,0.02919
4711.24893,0.02733
4713.17740,0.01855
4715.10587,0.01564
4717.03434,0.01202
4718.96281,0.00756
4720.89128,0.00443
4722.81975,0.00536
4724.74821,0.00921
4726.67668,0.00408
4728.60515,-0.00314
4730.53362,0.00645
4732.46209,0.02853
4734.39056,0.04230
4736.31903,0.03068
4738.24750,0.00148
4740.17596,-0.00782
4742.10443,0.00397
4744.03290,0.00758
4745.96137,0.00787
4747.88984,0.01665
4749.81831,0.02119
4751.74678,0.00685
4753.67524,-0.01381
4755.60371,-0.02342
4757.53218,-0.01320
4759.46065,0.00724
4761.38912,0.01616
4763.31759,0.00963
4765.24606,0.00950
4767.17453,0.01927
4769.10299,0.02146
4771.03146,0.02468
4772.95993,0.03941
4774.88840,0.04629
4776.81687,0.03809
4778.74534,0.02350
4780.67381,0.00663
4782.60227,-0.00406
4784.53074,-0.01106
4786.45921,-0.02087
4788.38768,-0.01917
4790.31615,-0.00490
4792.24462,0.00839
4794.17309,0.01375
4796.10156,0.00732
4798.03002,0.00421
4799.95849,0.00951
4801.88696,0.00831
4803.81543,0.00542
4805.74390,0.00319
4807.67237,-0.00121
4809.60084,0.00373
4811.52930,0.01473
4813.45777,0.02208
4815.38624,0.02727
4817.31471,0.02727
4819.24318,0.01542
4821.17165,0.00012
4823.10012,-0.00317
4825.02859,0.00397
4826.95705,0.00441
4828.88552,-0.00785
4830.81399,-0.01258
4832.74246,0.00176
4834.67093,0.01394
4836.59940,0.01465
4838.52787,0.01476
4840.45633,0.00978
4842.38480,-0.00440
4844.31327,-0.01695
4846.24174,-0.01933
4848.17021,-0.01403
4850.09868,-0.00450
4852.02715,0.00873
4853.95562,0.01748
4855.88408,0.01928
4857.81255,0.01872
4859.74102,0.01850
4861.66949,0.01288
4863.59796,-0.00815
4865.52643,-0.02562
4867.45490,-0.01806
4869.38336,0.00064
4871.31183,0.01582
4873.24030,0.02852
4875.16877,0.03680
4877.09724,0.03291
4879.02571,0.01449
4880.95418,-0.00895
4882.88265,-0.02132
4884.81111,-0.00914
4886.73958,0.01440
4888.66805,0.01955
4890.59652,0.01229
4892.52499,0.01437
4894.45346,0.01189
4896.38193,-0.00179
4898.31039,0.00241
4900.23886,0.02792
4902.16733,0.04217
4904.09580,0.03037
4906.02427,0.01339
4907.95274,0.01308
4909.88121,0.01354
4911.80967,0.00359
4913.73814,0.00546
4915.66661,0.02266
4917.59508,0.03449
4919.52355,0.02594
4921.45202,0.01222
4923.38049,0.01992
4925.30896,0.03053
4927.23742,0.01522
4929.16589,-0.01008
4931.09436,-0.02639
4933.02283,-0.03225
4934.95130,-0.01523
4936.87977,0.01629
4938.80824,0.02518
4940.73670,0.01084
4942.66517,-0.00166
4944.59364,-0.00531
4946.52211,-0.00076
4948.45058,0.00596
4950.37905,0.00829
4952.30752,0.01101
4954.23599,0.01280
4956.16445,0.00831
4958.09292,0.00069
4960.02139,-0.00905
4961.94986,-0.01599
4963.87833,-0.01437
4965.80680,-0.01278
4967.73527,-0.01504
4969.66373,-0.01263
4971.59220,0.00182
4973.52067,0.02454
4975.44914,0.02446
4977.37761,0.00022
4979.30608,-0.00784
4981.23455,0.00139
4983.16302,0.00961
4985.09148,0.01729
4987.01995,0.02068
4988.94842,0.01719
4990.87689,0.00939
4992.80536,-0.00069
4994.73383,-0.00867
4996.66230,-0.00504
4998.59076,0.01661
5000.51923,0.04119
5002.44770,0.04668
5004.37617,0.03639
5006.30464,0.02311
5008.23311,0.00219
5010.16158,-0.01565
5012.09005,-0.00422
5014.01851,0.01897
5015.94698,0.01637
5017.87545,0.00206
5019.80392,0.00702
5021.73239,0.01949
5023.66086,0.02030
5025.58933,0.01957
5027.51779,0.01690
5029.44626,-0.00076
5031.37473,-0.01648
5033.30320,-0.01504
5035.23167,-0.00093
5037.16014,0.01525
5039.08861,0.01559
5041.01708,0.00019
5042.94554,-0.01813
5044.87401,-0.02177
5046.80248,0.00382
5048.73095,0.03694
5050.65942,0.04788
5052.58789,0.02912
5054.51636,0.00207
5056.44482,-0.00216
5058.37329,0.01421
5060.30176,0.02385
5062.23023,0.01792
5064.15870,0.01817
5066.08717,0.02768
5068.01564,0.03135
5069.94410,0.03242
5071.87257,0.02284
5073.80104,0.00494
5075.72951,0.00617
5077.65798,0.01626
5079.58645,0.01175
5081.51492,0.00625
5083.44339,0.02168
5085.37185,0.05570
5087.30032,0.07495
5089.22879,0.05750
5091.15726,0.02743
5093.08573,0.01209
5095.01420,0.01709
5096.94267,0.03381
5098.87113,0.04288
5100.79960,0.03978
5102.72807,0.03481
5104.65654,0.02625
5106.58501,0.00888
5108.51348,-0.00353
5110.44195,0.00830
5112.37042,0.03187
5114.29888,0.02700
5116.22735,-0.01023
5118.15582,-0.03452
5120.08429,-0.02091
5122.01276,0.00271
5123.94123,0.00999
5125.86970,0.00528
5127.79816,-0.00601
5129.72663,-0.01081
5131.65510,0.00667
5133.58357,0.03003
5135.51204,0.03397
5137.44051,0.01993
5139.36898,0.00171
5141.29745,-0.01765
5143.22591,-0.02860
5145.15438,-0.01427
5147.08285,0.00976
5149.01132,0.01726
5150.93979,0.01074
5152.86826,0.00856
5154.79673,0.01663
5156.72519,0.02665
5158.65366,0.04369
5160.58213,0.06105
5162.51060,0.04906
5164.43907,0.01510
5166.36754,-0.00311
5168.29601,0.00480
5170.22448,0.02298
5172.15294,0.02157
5174.08141,0.00127
5176.00988,0.00511
5177.93835,0.03149
5179.86682,0.04346
5181.79529,0.05145
5183.72376,0.06735
5185.65222,0.06521
5187.58069,0.04186
5189.50916,0.02617
5191.43763,0.02900
5193.36610,0.03427
5195.29457,0.02764
5197.22304,0.01754
5199.15151,0.01723
5201.07997,0.01699
5203.00844,0.01707
5204.93691,0.03219
5206.86538,0.04264
5208.79385,0.03063
5210.72232,0.02316
5212.65079,0.03100
5214.57925,0.02996
5216.50772,0.00187
5218.43619,-0.02245
5220.36466,-0.01020
5222.29313,0.01039
5224.22160,0.00895
5226.15007,-0.00503
5228.07854,-0.01365
5230.00700,-0.01299
5231.93547,-0.00077
5233.86394,0.01392
5235.79241,0.01522
5237.72088,0.01263
5239.64935,0.02053
5241.57782,0.02513
5243.50628,0.01323
5245.43475,0.01092
5247.36322,0.03758
5249.29169,0.04371
5251.22016,0.00266
5253.14863,-0.02970
5255.07710,-0.03161
5257.00556,-0.02713
5258.93403,-0.01603
5260.86250,0.00875
5262.79097,0.02930
5264.71944,0.02372
5266.64791,0.00688
5268.57638,-0.00656
5270.50485,-0.02270
5272.43331,-0.02367
5274.36178,0.00078
5276.29025,0.02535
5278.21872,0.03809
5280.14719,0.05165
5282.07566,0.05480
5284.00413,0.03353
5285.93259,0.01603
5287.86106,0.01842
5289.78953,0.01715
5291.71800,-0.00164
5293.64647,-0.01575
5295.57494,0.00385
5297.50341,0.03829
5299.43188,0.03873
5301.36034,0.01310
5303.28881,-0.00189
5305.21728,-0.00200
5307.14575,0.02111
5309.07422,0.06250
5311.00269,0.08298
5312.93116,0.06818
5314.85962,0.03798
5316.78809,0.03036
5318.71656,0.05092
5320.64503,0.05902
5322.57350,0.04488
5324.50197,0.03276
5326.43044,0.02729
5328.35891,0.01581
5330.28737,0.00921
5332.21584,0.02928
5334.14431,0.05214
5336.07278,0.04812
5338.00125,0.03200
5339.92972,0.02157
5341.85819,0.01640
5343.78665,0.01231
5345.71512,0.01588
5347.64359,0.03029
5349.57206,0.05343
5351.50053,0.07883
5353.42900,0.08076
5355.35747,0.05479
5357.28594,0.03045
5359.21440,0.02188
5361.14287,0.02170
5363.07134,0.01594
5364.99981,0.01916
5366.92828,0.04243
5368.85675,0.05350
5370.78522,0.04531
5372.71368,0.04114
5374.64215,0.04069
5376.57062,0.04941
5378.49909,0.07015
5380.42756,0.07760
5382.35603,0.06553
5384.28450,0.05150
5386.21297,0.05424
5388.14143,0.05995
5390.06990,0.05309
5391.99837,0.03929
5393.92684,0.02362
5395.85531,0.01299
5397.78378,0.01123
5399.71225,0.02043
5401.64071,0.04123
5403.56918,0.05418
5405.49765,0.04681
5407.42612,0.03508
5409.35459,0.02221
5411.28306,0.00576
5413.21153,0.00339
5415.13999,0.02657
5417.06846,0.05455
5418.99693,0.05312
5420.92540,0.02195
5422.85387,-0.00740
5424.78234,-0.00734
5426.71081,0.03000
5428.63928,0.06123
5430.56774,0.05497
5432.49621,0.04478
5434.42468,0.03733
5436.35315,0.03509
5438.28162,0.05885
5440.21009,0.08695
5442.13856,0.08686
5444.06702,0.07224
5445.99549,0.05844
5447.92396,0.04847
5449.85243,0.04734
5451.78090,0.04405
5453.70937,0.02895
5455.63784,0.01821
5457.56631,0.03609
5459.49477,0.06305
5461.42324,0.07506
5463.35171,0.07569
5465.28018,0.06116
5467.20865,0.03549
5469.13712,0.02003
5471.06559,0.03122
5472.99405,0.06028
5474.92252,0.08659
5476.85099,0.09970
5478.77946,0.10051
5480.70793,0.08323
5482.63640,0.04836
5484.56487,0.01995
5486.49334,0.01131
5488.42180,0.00528
5490.35027,0.00436
5492.27874,0.03965
5494.20721,0.09077
5496.13568,0.09527
5498.06415,0.06192
5499.99262,0.05224
5501.92108,0.07157
5503.84955,0.08981
5505.77802,0.10142
5507.70649,0.08141
5509.63496,0.03735
5511.56343,0.02439
5513.49190,0.04796
5515.42037,0.05776
5517.34883,0.04533
5519.27730,0.04932
5521.20577,0.05746
5523.13424,0.03850
5525.06271,0.01099
5526.99118,0.00843
5528.91965,0.03698
5530.84811,0.07104
5532.77658,0.08644
5534.70505,0.09317
5536.63352,0.09248
5538.56199,0.06486
5540.49046,0.03136
5542.41893,0.02586
5544.34740,0.04238
5546.27586,0.06106
5548.20433,0.06469
5550.13280,0.05354
5552.06127,0.04476
5553.98974,0.05160
5555.91821,0.07260
5557.84668,0.08743
5559.77514,0.09091
5561.70361,0.09627
5563.63208,0.09222
5565.56055,0.07287
5567.48902,0.06899
5569.41749,0.08701
5571.34596,0.08698
5573.27443,0.05786
5575.20289,0.04427
5577.13136,0.06093
5579.05983,0.07322
5580.98830,0.06205
5582.91677,0.03945
5584.84524,0.03117
5586.77371,0.04540
5588.70217,0.06336
5590.63064,0.06757
5592.55911,0.05948
5594.48758,0.04636
5596.41605,0.03727
5598.34452,0.04524
5600.27299,0.07438
5602.20145,0.11522
5604.12992,0.14677
5606.05839,0.12808
5607.98686,0.06357
5609.91533,0.02430
5611.84380,0.02544
5613.77227,0.04474
5615.70074,0.08680
5617.62920,0.11169
5619.55767,0.09275
5621.48614,0.05989
5623.41461,0.02898
5625.34308,0.01885
5627.27155,0.05336
5629.20002,0.10437
5631.12848,0.11804
5633.05695,0.09639
5634.98542,0.08062
5636.91389,0.07257
5638.84236,0.05681
5640.77083,0.04620
5642.69930,0.04792
5644.62777,0.06772
5646.55623,0.09292
5648.48470,0.06583
5650.41317,-0.00370
5652.34164,-0.01840
5654.27011,0.02499
5656.19858,0.04305
5658.12705,0.03922
5660.05551,0.05377
5661.98398,0.07036
5663.91245,0.08183
5665.84092,0.09460
5667.76939,0.09450
5669.69786,0.07361
5671.62633,0.04198
5673.55480,0.02948
5675.48326,0.05495
5677.41173,0.08423
5679.34020,0.07853
5681.26867,0.05843
5683.19714,0.04116
5685.12561,0.01137
5687.05408,-0.01093
5688.98254,0.00877
5690.91101,0.04452
5692.83948,0.05888
5694.76795,0.06549
5696.69642,0.07441
5698.62489,0.07761
5700.55336,0.09644
5702.48183,0.12252
5704.41029,0.11525
5706.33876,0.09581
5708.26723,0.09435
5710.19570,0.08073
5712.12417,0.03295
5714.05264,0.00262
5715.98111,0.02599
5717.90957,0.05614
5719.83804,0.06812
5721.76651,0.07852
5723.69498,0.09391
5725.62345,0.11472
5727.55192,0.12917
5729.48039,0.11449
5731.40886,0.08326
5733.33732,0.08284
5735.26579,0.11338
5737.19426,0.11910
5739.12273,0.07605
5741.05120,0.03584
5742.97967,0.04734
5744.90814,0.07731
5746.83660,0.09925
5748.76507,0.12432
5750.69354,0.14680
5752.62201,0.14652
5754.55048,0.11469
5756.47895,0.08891
5758.40742,0.12589
5760.33588,0.20521
5762.26435,0.21201
5764.19282,0.11485
5766.12129,0.02766
5768.04976,0.01372
5769.97823,0.04015
5771.90670,0.05518
5773.83517,0.03973
5775.76363,0.02090
5777.69210,0.01764
5779.62057,0.02793
5781.54904,0.07074
5783.47751,0.13621
5785.40598,0.15215
5787.33445,0.11924
5789.26291,0.09196
5791.19138,0.06617
5793.11985,0.05504
5795.04832,0.06834
5796.97679,0.05872
5798.90526,0.02755
5800.83373,0.02113
5802.76220,0.01394
5804.69066,-0.02006
5806.61913,-0.03871
5808.54760,-0.01372
5810.47607,0.05851
5812.40454,0.11710
5814.33301,0.08540
5816.26148,0.01074
5818.18994,-0.02493
5820.11841,0.00431
5822.04688,0.04896
5823.97535,0.04478
5825.90382,0.03840
5827.83229,0.08799
5829.76076,0.14506
5831.68923,0.14303
5833.61769,0.10277
5835.54616,0.08091
5837.47463,0.07294
5839.40310,0.05702
5841.33157,0.05856
5843.26004,0.09391
5845.18851,0.13663
5847.11697,0.14609
5849.04544,0.12351
5850.97391,0.10329
5852.90238,0.08692
5854.83085,0.08041
5856.75932,0.08256
5858.68779,0.08439
5860.61626,0.09478
5862.54472,0.08661
5864.47319,0.05282
5866.40166,0.04306
5868.33013,0.06731
5870.25860,0.08463
5872.18707,0.08691
5874.11554,0.09163
5876.04400,0.09658
5877.97247,0.10298
5879.90094,0.09072
5881.82941,0.04215
5883.75788,0.01758
5885.68635,0.04970
5887.61482,0.09293
5889.54329,0.10942
5891.47175,0.08736
5893.40022,0.06181
5895.32869,0.07715
5897.25716,0.08932
5899.18563,0.05490
5901.11410,0.02886
5903.04257,0.05676
5904.97103,0.10207
5906.89950,0.11552
5908.82797,0.09842
5910.75644,0.09345
5912.68491,0.09996
5914.61338,0.07457
5916.54185,0.03949
5918.47032,0.04480
5920.39878,0.06658
5922.32725,0.07080
5924.25572,0.07720
5926.18419,0.09241
5928.11266,0.09001
5930.04113,0.07216
5931.96960,0.06938
5933.89806,0.08233
5935.82653,0.08576
5937.75500,0.06878
5939.68347,0.04209
5941.61194,0.02754
5943.54041,0.02607
5945.46888,0.02084
5947.39734,0.00632
5949.32581,-0.00237
5951.25428,0.04839
5953.18275,0.14420
5955.11122,0.18063
5957.03969,0.14124
5958.96816,0.07958
5960.89663,0.04363
5962.82509,0.05883
5964.75356,0.06950
5966.68203,0.02179
5968.61050,-0.01572
5970.53897,0.04564
5972.46744,0.14226
5974.39591,0.17370
5976.32437,0.16256
5978.25284,0.15126
5980.18131,0.13340
5982.10978,0.09918
5984.03825,0.05927
5985.96672,0.05313
5987.89519,0.09448
5989.82366,0.11584
5991.75212,0.08729
5993.68059,0.06999
5995.60906,0.09461
5997.53753,0.12275
5999.46600,0.12001
6001.39447,0.10925
6003.32294,0.12026
6005.25140,0.15289
6007.17987,0.18201
6009.10834,0.17344
6011.03681,0.15020
6012.96528,0.12783
6014.89375,0.07799
6016.82222,0.03711
6018.75069,0.06004
6020.67915,0.09103
6022.60762,0.07549
6024.53609,0.06766
6026.46456,0.10471
6028.39303,0.13127
6030.32150,0.11356
6032.24997,0.10612
6034.17843,0.12035
6036.10690,0.13128
6038.03537,0.13017
6039.96384,0.09650
6041.89231,0.03512
6043.82078,-0.00621
6045.74925,0.00681
6047.67772,0.03234
6049.60618,0.02844
6051.53465,0.01470
6053.46312,0.01379
6055.39159,0.03934
6057.32006,0.08520
6059.24853,0.09938
6061.17700,0.05738
6063.10546,0.02884
6065.03393,0.04514
6066.96240,0.05189
6068.89087,0.04056
6070.81934,0.02760
6072.74781,0.03911
6074.67628,0.09562
6076.60475,0.12932
6078.53321,0.08712
6080.46168,0.02861
6082.39015,0.01255
6084.31862,0.03785
6086.24709,0.03528
6088.17556,-0.01732
6090.10403,-0.00691
6092.03249,0.06278
6093.96096,0.08442
6095.88943,0.06618
6097.81790,0.06470
6099.74637,0.07103
6101.67484,0.07006
6103.60331,0.09641
6105.53177,0.13083
6107.46024,0.12025
6109.38871,0.11478
6111.31718,0.13859
6113.24565,0.14327
6115.17412,0.15194
6117.10259,0.15520
6119.03106,0.11389
6120.95952,0.06687
6122.88799,0.04418
6124.81646,0.05604
6126.74493,0.09504
6128.67340,0.10907
6130.60187,0.09574
6132.53034,0.08960
6134.45880,0.07204
6136.38727,0.04293
6138.31574,0.04025
6140.24421,0.06088
6142.17268,0.07787
6144.10115,0.06520
6146.02962,0.01430
6147.95809,-0.00867
6149.88655,0.04483
6151.81502,0.07670
6153.74349,0.01060
6155.67196,-0.03719
6157.60043,0.01380
6159.52890,0.09910
6161.45737,0.10973
6163.38583,0.03731
6165.31430,-0.00836
6167.24277,0.00168
6169.17124,0.02551
6171.09971,0.05997
6173.02818,0.08498
6174.95665,0.08240
6176.88512,0.07399
6178.81358,0.07416
6180.74205,0.05430
6182.67052,0.02007
6184.59899,0.02613
6186.52746,0.06956
6188.45593,0.10552
6190.38440,0.10574
6192.31286,0.07915
6194.24133,0.05800
6196.16980,0.07205
6198.09827,0.10805
6200.02674,0.11557
6201.95521,0.10078
6203.88368,0.10556
6205.81215,0.12378
6207.74061,0.11188
6209.66908,0.07243
6211.59755,0.05431
6213.52602,0.06184
6215.45449,0.09183
6217.38296,0.12878
6219.31143,0.12013
6221.23989,0.07636
6223.16836,0.05421
6225.09683,0.05955
6227.02530,0.06574
6228.95377,0.08725
6230.88224,0.11878
6232.81071,0.13288
6234.73918,0.14896
6236.66764,0.17792
6238.59611,0.17585
6240.52458,0.10685
6242.45305,0.03129
6244.38152,0.03120
6246.30999,0.05756
6248.23846,0.03467
6250.16692,0.00152
6252.09539,0.00316
6254.02386,0.01581
6255.95233,0.02799
6257.88080,0.02955
6259.80927,0.03873
6261.73774,0.06946
6263.66621,0.07145
6265.59467,0.04948
6267.52314,0.04335
6269.45161,0.04950
6271.38008,0.08385
6273.30855,0.13835
6275.23702,0.13093
6277.16549,0.02605
6279.09395,-0.04445
6281.02242,0.00095
6282.95089,0.06836
6284.87936,0.07540
6286.80783,0.03993
6288.73630,-0.01222
6290.66477,-0.02957
6292.59323,0.07160
6294.52170,0.21398
6296.45017,0.24838
6298.37864,0.20196
6300.30711,0.14426
6302.23558,0.08541
6304.16405,0.07834
6306.09252,0.13271
6308.02098,0.16939
6309.94945,0.14000
6311.87792,0.05123
6313.80639,-0.01288
6315.73486,0.02967
6317.66333,0.11615
6319.59180,0.15898
6321.52026,0.14692
6323.44873,0.10090
6325.37720,0.06695
6327.30567,0.08604
6329.23414,0.14068
6331.16261,0.19300
6333.09108,0.22970
6335.01955,0.20252
6336.94801,0.12623
6338.87648,0.08725
6340.80495,0.11734
6342.73342,0.18114
6344.66189,0.18994
6346.59036,0.09433
6348.51883,0.00015
6350.44729,0.02272
6352.37576,0.08515
6354.30423,0.07418
6356.23270,0.04687
6358.16117,0.04281
6360.08964,0.01270
6362.01811,-0.03794
6363.94658,-0.07952
6365.87504,-0.11159
6367.80351,-0.07329
6369.73198,0.04250
6371.66045,0.10163
6373.58892,0.04546
6375.51739,-0.01533
6377.44586,0.00710
6379.37432,0.11113
6381.30279,0.21334
6383.23126,0.18426
6385.15973,0.08604
6387.08820,0.07715
6389.01667,0.11203
6390.94514,0.11391
6392.87361,0.06100
6394.80207,-0.00339
6396.73054,-0.01740
6398.65901,0.00580
6400.58748,0.05112
6402.51595,0.07301
6404.44442,0.07334
6406.37289,0.15244
6408.30135,0.26306
6410.22982,0.25747
6412.15829,0.17758
6414.08676,0.13000
6416.01523,0.12302
6417.94370,0.13353
6419.87217,0.11168
6421.80064,0.05383
6423.72910,0.01409
6425.65757,0.02480
6427.58604,0.07716
6429.51451,0.12296
6431.44298,0.12133
6433.37145,0.09881
6435.29992,0.10076
6437.22838,0.07224
6439.15685,-0.01180
6441.08532,-0.04185
6443.01379,-0.01421
6444.94226,0.01895
6446.87073,0.05168
6448.79920,0.05636
6450.72766,0.03844
6452.65613,0.02732
6454.58460,0.06407
6456.51307,0.13693
6458.44154,0.11137
6460.37001,0.00100
6462.29848,-0.03279
6464.22695,0.00478
6466.15541,0.02232
6468.08388,0.03626
6470.01235,0.09194
6471.94082,0.15290
6473.86929,0.12690
6475.79776,0.05393
6477.72623,0.03618
6479.65469,0.01664
6481.58316,-0.00534
6483.51163,0.02553
6485.44010,0.01167
6487.36857,-0.03089
6489.29704,0.00919
6491.22551,0.07387
6493.15398,0.07586
6495.08244,0.05279
6497.01091,0.04734
6498.93938,0.05877
6500.86785,0.10678
6502.79632,0.20883
6504.72479,0.26155
6506.65326,0.23952
6508.58172,0.24877
6510.51019,0.24532
6512.43866,0.13592
6514.36713,0.03640
6516.29560,0.02261
6518.22407,0.02175
6520.15254,0.01867
6522.08101,0.05444
6524.00947,0.09537
6525.93794,0.06304
6527.86641,-0.00769
6529.79488,-0.03200
6531.72335,0.00313
6533.65182,0.07484
6535.58029,0.12134
6537.50875,0.12329
6539.43722,0.13635
6541.36569,0.14042
6543.29416,0.11201
6545.22263,0.06228
6547.15110,-0.02639
6549.07957,-0.07443
6551.00804,0.02033
6552.93650,0.14830
6554.86497,0.17972
6556.79344,0.16504
6558.72191,0.16099
6560.65038,0.13324
6562.57885,0.06336
6564.50732,-0.03026
6566.43578,-0.07067
6568.36425,-0.02042
6570.29272,0.02477
6572.22119,0.02767
6574.14966,0.03401
6576.07813,0.05414
6578.00660,0.07598
6579.93507,0.09746
6581.86353,0.10547
6583.79200,0.06440
6585.72047,0.02692
6587.64894,0.02974
6589.57741,-0.01461
6591.50588,-0.06795
6593.43435,-0.02346
6595.36281,-0.00081
6597.29128,-0.11578
6599.21975,-0.23381
6601.14822,-0.19575
6603.07669,-0.07360
6605.00516,-0.02560
6606.93363,-0.01780
6608.86210,0.00743
6610.79056,0.00082
6612.71903,0.00568
6614.64750,0.07528
6616.57597,0.08406
6618.50444,0.01331
6620.43291,-0.02016
6622.36138,0.00498
6624.28984,0.04205
6626.21831,0.04158
6628.14678,0.03888
6630.07525,0.05271
6632.00372,0.01619
6633.93219,-0.06316
6635.86066,-0.14076
6637.78912,-0.17438
6639.71759,-0.12610
6641.64606,-0.02084
6643.57453,0.05305
6645.50300,0.05425
6647.43147,0.05652
6649.35994,0.10595
6651.28841,0.15088
6653.21687,0.12877
6655.14534,0.03830
6657.07381,-0.03989
6659.00228,-0.03413
6660.93075,0.04830
6662.85922,0.17535
6664.78769,0.28885
6666.71615,0.31387
6668.64462,0.22025
6670.57309,0.10510
6672.50156,0.08754
6674.43003,0.12571
6676.35850,0.13601
6678.28697,0.12029
6680.21544,0.06177
6682.14390,-0.02098
6684.07237,-0.01992
6686.00084,0.05751
6687.92931,0.11180
6689.85778,0.14067
6691.78625,0.13099
6693.71472,0.10614
6695.64318,0.15006
6697.57165,0.24095
6699.50012,0.29750
6701.42859,0.26268
6703.35706,0.11749
6705.28553,-0.07191
6707.21400,-0.20487
6709.14247,-0.15268
6711.07093,0.00639
6712.99940,0.08208
6714.92787,0.07343
6716.85634,0.06000
6718.78481,0.07987
6720.71328,0.17109
6722.64175,0.29290
6724.57021,0.31007
6726.49868,0.24599
6728.42715,0.24354
6730.35562,0.25444
6732.28409,0.12973
6734.21256,-0.00053
6736.14103,0.05020
6738.06950,0.16251
6739.99796,0.18636
6741.92643,0.10556
6743.85490,-0.02717
6745.78337,-0.11007
6747.71184,-0.05125
6749.64031,0.07913
6751.56878,0.12192
6753.49724,0.14448
6755.42571,0.19236
6757.35418,0.16113
6759.28265,0.08026
6761.21112,0.05117
6763.13959,0.03192
6765.06806,-0.02396
6766.99653,-0.04100
6768.92499,0.00619
6770.85346,0.04555
6772.78193,0.04995
6774.71040,0.08635
6776.63887,0.17572
6778.56734,0.19549
6780.49581,0.09339
6782.42427,0.01396
6784.35274,0.09965
6786.28121,0.21468
6788.20968,0.17997
6790.13815,0.06140
6792.06662,0.00863
6793.99509,0.04745
6795.92355,0.11215
6797.85202,0.15533
6799.78049,0.22778
6801.70896,0.33223
6803.63743,0.29343
6805.56590,0.14379
6807.49437,0.07129
6809.42284,0.07677
6811.35130,0.11909
6813.27977,0.18746
6815.20824,0.23903
6817.13671,0.13255
6819.06518,-0.01538
6820.99365,0.00167
6822.92212,0.05251
6824.85058,-0.00530
6826.77905,-0.07370
6828.70752,-0.11838
6830.63599,-0.12873
6832.56446,-0.09766
6834.49293,-0.09948
6836.42140,-0.10893
6838.34987,-0.02754
6840.27833,0.04943
6842.20680,0.05996
6844.13527,0.03790
6846.06374,-0.02559
6847.99221,-0.10921
6849.92068,-0.10318
6851.84915,-0.00637
6853.77761,0.06529
6855.70608,0.07028
6857.63455,0.03462
6859.56302,-0.00170
6861.49149,-0.03894
6863.41996,-0.04461
6865.34843,0.04044
6867.27690,0.17349
6869.20536,0.29630
6871.13383,0.38107
6873.06230,0.30232
6874.99077,0.11885
6876.91924,0.06909
6878.84771,0.13982
6880.77618,0.18987
6882.70464,0.18016
6884.63311,0.11427
6886.56158,0.02782
6888.49005,-0.02692
6890.41852,-0.01774
6892.34699,0.05434
6894.27546,0.11195
6896.20393,0.10823
6898.13239,0.04683
6900.06086,-0.02008
6901.98933,-0.01833
6903.91780,0.04010
6905.84627,0.09910
6907.77474,0.12988
6909.70321,0.08129
6911.63167,-0.02322
6913.56014,-0.08922
6915.48861,-0.13402
6917.41708,-0.19189
6919.34555,-0.17306
6921.27402,-0.05721
6923.20249,0.08933
6925.13096,0.20802
6927.05942,0.18829
6928.98789,0.06217
6930.91636,0.02692
6932.84483,0.12805
6934.77330,0.21921
6936.70177,0.26278
6938.63024,0.28268
6940.55870,0.24398
6942.48717,0.19379
6944.41564,0.20913
6946.34411,0.24504
6948.27258,0.22292
6950.20105,0.19111
6952.12952,0.19493
6954.05799,0.14170
6955.98645,0.05441
6957.91492,0.01149
6959.84339,0.00291
6961.77186,0.05715
6963.70033,0.12616
6965.62880,0.11667
6967.55727,-0.01571
6969.48573,-0.16967
6971.41420,-0.16368
6973.34267,-0.02058
6975.27114,0.05429
6977.19961,0.04135
6979.12808,0.06171
6981.05655,0.07079
6982.98501,0.08649
6984.91348,0.20149
6986.84195,0.31489
6988.77042,0.34099
6990.69889,0.33559
6992.62736,0.30913
6994.55583,0.29513
6996.48430,0.30603
6998.41276,0.16539
7000.34123,-0.08607
7002.26970,-0.13581
7004.19817,0.03070
7006.12664,0.17453
7008.05511,0.07869
7009.98358,-0.13681
7011.91204,-0.22447
7013.84051,-0.17556
7015.76898,-0.17840
7017.69745,-0.19902
7019.62592,-0.08560
7021.55439,0.08962
7023.48286,0.15823
7025.41133,0.07117
7027.33979,-0.00369
7029.26826,0.10604
7031.19673,0.27727
7033.12520,0.34575
7035.05367,0.32399
7036.98214,0.28815
7038.91061,0.25016
7040.83907,0.17282
7042.76754,0.18341
7044.69601,0.31451
7046.62448,0.33314
7048.55295,0.25667
7050.48142,0.24613
7052.40989,0.26735
7054.33836,0.26137
7056.26682,0.29063
7058.19529,0.31211
7060.12376,0.18680
7062.05223,-0.04474
7063.98070,-0.18773
7065.90917,-0.08030
7067.83764,0.15528
7069.76610,0.33614
7071.69457,0.33141
7073.62304,0.24131
7075.55151,0.16124
7077.47998,0.06753
7079.40845,-0.03605
7081.33692,0.01124
7083.26539,0.30206
7085.19385,0.48119
7087.12232,0.31654
7089.05079,0.07227
7090.97926,0.02655
7092.90773,0.08180
7094.83620,0.06468
7096.76467,-0.02816
7098.69313,0.03689
7100.62160,0.16891
7102.55007,0.09829
7104.47854,-0.02203
7106.40701,0.03287
7108.33548,0.12782
7110.26395,0.06547
7112.19242,-0.10972
7114.12088,-0.20622
7116.04935,-0.02084
7117.97782,0.42511
7119.90629,0.70139
7121.83476,0.59727
7123.76323,0.31019
7125.69170,0.16297
7127.62016,0.19466
7129.54863,0.18392
7131.47710,0.14251
7133.40557,0.15376
7135.33404,0.10443
7137.26251,-0.06057
7139.19098,-0.21039
7141.11944,-0.19362
7143.04791,-0.05312
7144.97638,-0.05740
7146.90485,-0.15694
7148.83332,-0.05294
7150.76179,0.08497
7152.69026,0.11674
7154.61873,0.07491
7156.54719,-0.03197
7158.47566,-0.11834
7160.40413,-0.12185
7162.33260,-0.03856
7164.26107,0.06824
7166.18954,0.13440
7168.11801,0.16696
7170.04647,0.21523
7171.97494,0.32922
7173.90341,0.51321
7175.83188,0.64414
7177.76035,0.48428
7179.68882,0.16617
7181.61729,-0.03117
7183.54576,-0.07889
7185.47422,-0.02813
7187.40269,0.02195
7189.33116,0.02184
7191.25963,0.04741
7193.18810,0.13194
7195.11657,0.21699
7197.04504,0.17654
7198.97350,-0.00268
7200.90197,-0.08410
7202.83044,0.00639
7204.75891,0.08963
7206.68738,0.10481
7208.61585,0.15442
7210.54432,0.11508
7212.47279,-0.02942
7214.40125,-0.05256
7216.32972,0.15288
7218.25819,0.33343
7220.18666,0.23839
7222.11513,0.15823
7224.04360,0.29169
7225.97207,0.50551
7227.90053,0.56109
7229.82900,0.42757
7231.75747,0.19729
7233.68594,0.02028
7235.61441,-0.05825
7237.54288,-0.09307
7239.47135,-0.08182
7241.39982,0.03037
7243.32828,0.07485
7245.25675,-0.14998
7247.18522,-0.37919
7249.11369,-0.40266
7251.04216,-0.31945
7252.97063,-0.21290
7254.89910,0.02806
7256.82756,0.29749
7258.75603,0.44323
7260.68450,0.38305
7262.61297,0.31625
7264.54144,0.34192
7266.46991,0.28416
7268.39838,0.24025
7270.32685,0.28206
7272.25531,0.28125
7274.18378,0.07108
7276.11225,-0.18782
7278.04072,-0.20640
7279.96919,-0.03254
7281.89766,-0.02749
7283.82613,-0.01465
7285.75459,-0.01322
7287.68306,-0.12101
7289.61153,-0.00207
7291.54000,0.34772
7293.46847,0.44059
7295.39694,0.21604
7297.32541,0.01148
7299.25387,0.03424
7301.18234,0.21578
7303.11081,0.31764
7305.03928,0.22846
7306.96775,0.14400
7308.89622,0.13948
7310.82469,0.11237
7312.75316,0.03949
7314.68162,-0.04622
7316.61009,-0.04409
7318.53856,0.05655
7320.46703,0.20724
7322.39550,0.26070
7324.32397,0.18855
7326.25244,0.21265
7328.18090,0.34231
7330.10937,0.39098
7332.03784,0.22162
7333.96631,0.00588
7335.89478,-0.04581
7337.82325,0.03592
7339.75172,0.16154
7341.68019,0.12490
7343.60865,0.00726
7345.53712,-0.03778
7347.46559,-0.01295
7349.39406,0.04390
7351.32253,0.03425
7353.25100,-0.00164
7355.17947,0.03956
7357.10793,0.18706
7359.03640,0.34352
7360.96487,0.19941
7362.89334,-0.20312
7364.82181,-0.48112
7366.75028,-0.45087
7368.67875,-0.16249
7370.60722,0.15265
7372.53568,0.35058
7374.46415,0.40508
7376.39262,0.24358
7378.32109,0.03741
7380.24956,-0.15482
7382.17803,-0.22745
7384.10650,-0.12437
7386.03496,-0.07142
7387.96343,-0.06273
7389.89190,0.00418
7391.82037,0.01580
7393.74884,0.01844
7395.67731,0.14750
7397.60578,0.31300
7399.53425,0.35089
7401.46271,0.17550
7403.39118,-0.04701
7405.31965,-0.06350
7407.24812,0.07489
7409.17659,0.29304
7411.10506,0.40707
7413.03353,0.37407
7414.96199,0.33917
7416.89046,0.29734
7418.81893,0.26571
7420.74740,0.26743
7422.67587,0.12322
7424.60434,-0.06242
7426.53281,-0.08067
7428.46128,-0.04349
7430.38974,-0.11682
7432.31821,-0.13461
7434.24668,-0.03117
7436.17515,0.04868
7438.10362,0.11580
7440.03209,0.20293
7441.96056,0.19800
7443.88902,0.14509
7445.81749,0.15990
7447.74596,0.21971
7449.67443,0.27318
7451.60290,0.28583
7453.53137,0.23848
7455.45984,0.07860
7457.38831,-0.06585
7459.31677,0.11320
7461.24524,0.44617
7463.17371,0.46776
7465.10218,0.33259
7467.03065,0.15659
7468.95912,0.01383
7470.88759,0.12078
7472.81605,0.32910
7474.74452,0.35646
7476.67299,0.33990
7478.60146,0.24691
7480.52993,-0.01606
7482.45840,-0.15447
7484.38687,-0.08054
7486.31533,0.03760
7488.24380,0.09391
7490.17227,0.02432
7492.10074,-0.08147
7494.02921,-0.11359
7495.95768,-0.09521
7497.88615,-0.05407
