399.19301,1.64225
401.12148,-0.36088
403.04995,-0.08648
404.97842,-0.07675
406.90689,-0.19126
408.83536,-0.02098
410.76382,0.33487
412.69229,0.44299
414.62076,0.24493
416.54923,-0.06088
418.47770,-0.25108
420.40617,-0.26856
422.33464,-0.26960
424.26311,-0.19724
426.19157,-0.08878
428.12004,0.00695
430.04851,0.07550
431.97698,0.11620
433.90545,0.17567
435.83392,0.17603
437.76239,0.13727
439.69085,0.11101
441.61932,0.18938
443.54779,0.29542
445.47626,0.27935
447.40473,0.24497
449.33320,0.26803
451.26167,0.23588
453.19013,0.11563
455.11860,0.09969
457.04707,0.21445
458.97554,0.19841
460.90401,0.10679
462.83248,0.08495
464.76095,0.08541
466.68942,0.14080
468.61788,0.22772
470.54635,0.21696
472.47482,0.12301
474.40329,0.13457
476.33176,0.16032
478.26023,0.08964
480.18870,0.00459
482.11716,-0.04682
484.04563,-0.02042
485.97410,0.07151
487.90257,0.13363
489.83104,0.12346
491.75951,0.10539
493.68798,0.10722
495.61645,0.09610
497.54491,0.04574
499.47338,-0.01732
501.40185,-0.07283
503.33032,-0.12267
505.25879,-0.09563
507.18726,0.01965
509.11573,0.09555
511.04419,0.08983
512.97266,0.07662
514.90113,0.08253
516.82960,0.09797
518.75807,0.12097
520.68654,0.10749
522.61501,0.03741
524.54348,-0.01872
526.47194,0.00372
528.40041,0.03836
530.32888,0.03482
532.25735,0.01868
534.18582,0.05148
536.11429,0.10946
538.04276,0.08539
539.97122,0.02142
541.89969,0.02135
543.82816,0.05091
545.75663,0.03437
547.68510,-0.00087
549.61357,0.19544
551.54204,1.28906
553.47051,2.55800
555.39897,2.13017
557.32744,0.68183
559.25591,0.05959
561.18438,0.02670
563.11285,0.00505
565.04132,-0.00996
566.96979,-0.01491
568.89825,0.00296
570.82672,0.05201
572.75519,0.10629
574.68366,0.11837
576.61213,0.09396
578.54060,0.05272
580.46907,0.01189
582.39754,-0.01238
584.32600,-0.01156
586.25447,-0.00825
588.18294,-0.01266
590.11141,0.00006
592.03988,0.02916
593.96835,0.06253
595.89682,0.08272
597.82528,0.07416
599.75375,0.04175
601.68222,0.02926
603.61069,0.04376
605.53916,0.03822
607.46763,0.01363
609.39610,0.00075
611.32456,0.00171
613.25303,0.00476
615.18150,0.01406
617.10997,0.03067
619.03844,0.04196
620.96691,0.03977
622.89538,0.04025
624.82385,0.05360
626.75231,0.06027
628.68078,0.05042
630.60925,0.03480
632.53772,0.02359
634.46619,0.02903
636.39466,0.04813
638.32313,0.06233
640.25159,0.07950
642.18006,0.08929
644.10853,0.06620
646.03700,0.03568
647.96547,0.03678
649.89394,0.07514
651.82241,0.10635
653.75088,0.09759
655.67934,0.07688
657.60781,0.07370
659.53628,0.07869
661.46475,0.08733
663.39322,0.10032
665.32169,0.11421
667.25016,0.13328
669.17862,0.11490
671.10709,0.06873
673.03556,0.05847
674.96403,0.07288
676.89250,0.08372
678.82097,0.09615
680.74944,0.11235
682.67791,0.10744
684.60637,0.08296
686.53484,0.06291
688.46331,0.05642
690.39178,0.05345
692.32025,0.05438
694.24872,0.07121
696.17719,0.10029
698.10565,0.12442
700.03412,0.13475
701.96259,0.13336
703.89106,0.11281
705.81953,0.08096
707.74800,0.04807
709.67647,-0.02418
711.60494,-0.10308
713.53340,-0.07075
715.46187,0.03425
717.39034,0.08697
719.31881,0.09318
721.24728,0.09668
723.17575,0.10108
725.10422,0.09716
727.03268,0.08603
728.96115,0.08165
730.88962,0.08278
732.81809,0.08320
734.74656,0.08610
736.67503,0.09299
738.60350,0.10221
740.53197,0.11217
742.46043,0.11435
744.38890,0.10530
746.31737,0.09489
748.24584,0.08956
750.17431,0.09155
752.10278,0.09664
754.03125,0.09567
755.95971,0.08875
757.88818,0.08500
759.81665,0.09252
761.74512,0.10840
763.67359,0.12142
765.60206,0.12152
767.53053,0.10508
769.45900,0.08584
771.38746,0.08306
773.31593,0.09347
775.24440,0.10484
777.17287,0.11191
779.10134,0.11035
781.02981,0.10184
782.95828,0.09099
784.88674,0.08097
786.81521,0.08086
788.74368,0.08910
790.67215,0.09513
792.60062,0.10302
794.52909,0.11354
796.45756,0.12036
798.38602,0.12560
800.31449,0.12717
802.24296,0.11171
804.17143,0.08089
806.09990,0.06370
808.02837,0.07617
809.95684,0.09912
811.88531,0.11171
813.81377,0.11115
815.74224,0.09912
817.67071,0.08915
819.59918,0.10020
821.52765,0.11770
823.45612,0.11338
825.38459,0.08769
827.31305,0.06912
829.24152,0.07513
831.16999,0.08894
833.09846,0.09505
835.02693,0.09449
836.95540,0.09800
838.88387,0.11308
840.81234,0.12357
842.74080,0.11661
844.66927,0.10336
846.59774,0.09712
848.52621,0.10250
850.45468,0.11390
852.38315,0.11598
854.31162,0.10694
856.24008,0.10221
858.16855,0.10105
860.09702,0.09687
862.02549,0.09983
863.95396,0.10634
865.88243,0.10274
867.81090,0.09788
869.73937,0.10376
871.66783,0.11075
873.59630,0.11459
875.52477,0.12211
877.45324,0.12328
879.38171,0.11756
881.31018,0.11733
883.23865,0.11525
885.16711,0.10648
887.09558,0.10574
889.02405,0.11758
890.95252,0.12432
892.88099,0.11921
894.80946,0.11314
896.73793,0.10747
898.66640,0.09687
900.59486,0.08752
902.52333,0.09301
904.45180,0.10935
906.38027,0.12044
908.30874,0.12628
910.23721,0.12905
912.16568,0.12456
914.09414,0.11815
916.02261,0.11446
917.95108,0.11063
919.87955,0.10349
921.80802,0.09791
923.73649,0.10376
925.66496,0.11211
927.59343,0.11229
929.52189,0.11119
931.45036,0.11047
933.37883,0.10674
935.30730,0.10163
937.23577,0.09673
939.16424,0.09663
941.09271,0.10735
943.02117,0.12183
944.94964,0.12526
946.87811,0.11746
948.80658,0.11203
950.73505,0.11554
952.66352,0.12343
954.59199,0.12986
956.52045,0.13220
958.44892,0.13285
960.37739,0.13202
962.30586,0.12562
964.23433,0.11832
966.16280,0.11774
968.09127,0.11877
970.01974,0.11693
971.94820,0.11736
973.87667,0.11865
975.80514,0.11776
977.73361,0.11881
979.66208,0.11859
981.59055,0.11459
983.51902,0.11612
985.44748,0.12156
987.37595,0.12415
989.30442,0.12655
991.23289,0.12536
993.16136,0.11750
995.08983,0.10871
997.01830,0.10191
998.94677,0.09780
1000.87523,0.09988
1002.80370,0.10478
1004.73217,0.10548
1006.66064,0.10259
1008.58911,0.10140
1010.51758,0.10832
1012.44605,0.11834
1014.37451,0.12392
1016.30298,0.12266
1018.23145,0.11386
1020.15992,0.11088
1022.08839,0.11725
1024.01686,0.12516
1025.94533,0.13921
1027.87380,0.15267
1029.80226,0.14879
1031.73073,0.13074
1033.65920,0.11048
1035.58767,0.09789
1037.51614,0.10066
1039.44461,0.11036
1041.37308,0.11918
1043.30154,0.12900
1045.23001,0.13134
1047.15848,0.12424
1049.08695,0.12046
1051.01542,0.12085
1052.94389,0.12219
1054.87236,0.12657
1056.80083,0.13131
1058.72929,0.13517
1060.65776,0.13493
1062.58623,0.12773
1064.51470,0.12121
1066.44317,0.12179
1068.37164,0.12857
1070.30011,0.13866
1072.22857,0.14574
1074.15704,0.14286
1076.08551,0.13408
1078.01398,0.12836
1079.94245,0.12599
1081.87092,0.12732
1083.79939,0.12780
1085.72786,0.11595
1087.65632,0.10366
1089.58479,0.10866
1091.51326,0.12127
1093.44173,0.12864
1095.37020,0.13070
1097.29867,0.13269
1099.22714,0.13892
1101.15560,0.14219
1103.08407,0.13715
1105.01254,0.13441
1106.94101,0.14044
1108.86948,0.14605
1110.79795,0.14325
1112.72642,0.14123
1114.65489,0.14677
1116.58335,0.15095
1118.51182,0.14871
1120.44029,0.14012
1122.36876,0.13184
1124.29723,0.12984
1126.22570,0.12658
1128.15417,0.12110
1130.08263,0.12151
1132.01110,0.12480
1133.93957,0.12351
1135.86804,0.12371
1137.79651,0.13175
1139.72498,0.13860
1141.65345,0.13865
1143.58191,0.13941
1145.51038,0.14470
1147.43885,0.15015
1149.36732,0.15087
1151.29579,0.14186
1153.22426,0.12977
1155.15273,0.13131
1157.08120,0.14439
1159.00966,0.14926
1160.93813,0.14368
1162.86660,0.14329
1164.79507,0.14840
1166.72354,0.14465
1168.65201,0.13492
1170.58048,0.13474
1172.50894,0.14017
1174.43741,0.14221
1176.36588,0.14472
1178.29435,0.14775
1180.22282,0.14789
1182.15129,0.14593
1184.07976,0.13580
1186.00823,0.11596
1187.93669,0.11206
1189.86516,0.12891
1191.79363,0.13650
1193.72210,0.13223
1195.65057,0.12865
1197.57904,0.12598
1199.50751,0.12686
1201.43597,0.13284
1203.36444,0.13721
1205.29291,0.13595
1207.22138,0.13717
1209.14985,0.14106
1211.07832,0.14080
1213.00679,0.14287
1214.93526,0.14619
1216.86372,0.14006
1218.79219,0.13121
1220.72066,0.13079
1222.64913,0.13531
1224.57760,0.13625
1226.50607,0.13322
1228.43454,0.13288
1230.36300,0.13782
1232.29147,0.14465
1234.21994,0.14926
1236.14841,0.15023
1238.07688,0.14815
1240.00535,0.14587
1241.93382,0.14686
1243.86229,0.14757
1245.79075,0.14442
1247.71922,0.14187
1249.64769,0.14217
1251.57616,0.14221
1253.50463,0.14239
1255.43310,0.14602
1257.36157,0.15013
1259.29003,0.14807
1261.21850,0.14320
1263.14697,0.14167
1265.07544,0.13955
1267.00391,0.13810
1268.93238,0.14359
1270.86085,0.15114
1272.78932,0.15384
1274.71778,0.15328
1276.64625,0.15472
1278.57472,0.15787
1280.50319,0.15762
1282.43166,0.15527
1284.36013,0.15567
1286.28860,0.15684
1288.21706,0.15553
1290.14553,0.15343
1292.07400,0.15304
1294.00247,0.15439
1295.93094,0.15632
1297.85941,0.15774
1299.78788,0.15657
1301.71634,0.15122
1303.64481,0.14495
1305.57328,0.14288
1307.50175,0.14364
1309.43022,0.14426
1311.35869,0.14619
1313.28716,0.14741
1315.21563,0.14512
1317.14409,0.14424
1319.07256,0.14745
1321.00103,0.14733
1322.92950,0.14357
1324.85797,0.14512
1326.78644,0.14880
1328.71491,0.14735
1330.64337,0.14486
1332.57184,0.14552
1334.50031,0.14916
1336.42878,0.15686
1338.35725,0.16713
1340.28572,0.16299
1342.21419,0.13256
1344.14266,0.09967
1346.07112,0.09687
1347.99959,0.12523
1349.92806,0.15016
1351.85653,0.15578
1353.78500,0.15561
1355.71347,0.15529
1357.64194,0.15618
1359.57040,0.16014
1361.49887,0.16296
1363.42734,0.16129
1365.35581,0.15963
1367.28428,0.16033
1369.21275,0.15934
1371.14122,0.15774
1373.06969,0.15890
1374.99815,0.16139
1376.92662,0.16064
1378.85509,0.15629
1380.78356,0.15376
1382.71203,0.15486
1384.64050,0.15887
1386.56897,0.16591
1388.49743,0.16925
1390.42590,0.16711
1392.35437,0.16821
1394.28284,0.17298
1396.21131,0.17515
1398.13978,0.17571
1400.06825,0.17466
1401.99672,0.17156
1403.92518,0.16773
1405.85365,0.16230
1407.78212,0.15875
1409.71059,0.15738
1411.63906,0.15549
1413.56753,0.15889
1415.49600,0.17236
1417.42446,0.18806
1419.35293,0.18801
1421.28140,0.17708
1423.20987,0.17208
1425.13834,0.17044
1427.06681,0.17139
1428.99528,0.17323
1430.92375,0.17305
1432.85221,0.17726
1434.78068,0.18866
1436.70915,0.19488
1438.63762,0.18450
1440.56609,0.17306
1442.49456,0.16781
1444.42303,0.16810
1446.35149,0.17220
1448.27996,0.17302
1450.20843,0.16901
1452.13690,0.16996
1454.06537,0.18118
1455.99384,0.20178
1457.92231,0.21485
1459.85077,0.20440
1461.77924,0.19463
1463.70771,0.19283
1465.63618,0.19121
1467.56465,0.18841
1469.49312,0.19533
1471.42159,0.21234
1473.35006,0.21837
1475.27852,0.20560
1477.20699,0.19118
1479.13546,0.18054
1481.06393,0.17573
1482.99240,0.17536
1484.92087,0.18077
1486.84934,0.19312
1488.77780,0.20395
1490.70627,0.19840
1492.63474,0.18750
1494.56321,0.18867
1496.49168,0.19840
1498.42015,0.19636
1500.34862,0.18153
1502.27709,0.17338
1504.20555,0.18468
1506.13402,0.22664
1508.06249,0.24848
1509.99096,0.22182
1511.91943,0.20317
1513.84790,0.20053
1515.77637,0.20807
1517.70483,0.21658
1519.63330,0.22735
1521.56177,0.24218
1523.49024,0.24259
1525.41871,0.23097
1527.34718,0.21397
1529.27565,0.20089
1531.20412,0.20307
1533.13258,0.21567
1535.06105,0.22069
1536.98952,0.22566
1538.91799,0.24690
1540.84646,0.26354
1542.77493,0.24808
1544.70340,0.22377
1546.63186,0.20237
1548.56033,0.19236
1550.48880,0.18872
1552.41727,0.18817
1554.34574,0.19863
1556.27421,0.22584
1558.20268,0.26053
1560.13115,0.24178
1562.05961,0.21300
1563.98808,0.20407
1565.91655,0.19996
1567.84502,0.20124
1569.77349,0.20557
1571.70196,0.20370
1573.63043,0.20769
1575.55889,0.21865
1577.48736,0.21080
1579.41583,0.18890
1581.34430,0.17625
1583.27277,0.17558
1585.20124,0.17767
1587.12971,0.17744
1589.05818,0.17746
1590.98664,0.17968
1592.91511,0.18250
1594.84358,0.18264
1596.77205,0.18102
1598.70052,0.18037
1600.62899,0.18183
1602.55746,0.18240
1604.48592,0.17887
1606.41439,0.17691
1608.34286,0.18046
1610.27133,0.18476
1612.19980,0.18831
1614.12827,0.19542
1616.05674,0.20398
1617.98521,0.19981
1619.91367,0.19244
1621.84214,0.19457
1623.77061,0.19758
1625.69908,0.19534
1627.62755,0.19124
1629.55602,0.18335
1631.48449,0.18118
1633.41295,0.19552
1635.34142,0.21926
1637.26989,0.21633
1639.19836,0.19666
1641.12683,0.18396
1643.05530,0.18435
1644.98377,0.20638
1646.91223,0.23986
1648.84070,0.24212
1650.76917,0.23858
1652.69764,0.24818
1654.62611,0.22841
1656.55458,0.20162
1658.48305,0.20098
1660.41152,0.22991
1662.33998,0.25113
1664.26845,0.22359
1666.19692,0.19783
1668.12539,0.20103
1670.05386,0.21291
1671.98233,0.21575
1673.91080,0.21266
1675.83926,0.20364
1677.76773,0.19718
1679.69620,0.20227
1681.62467,0.22087
1683.55314,0.24638
1685.48161,0.23941
1687.41008,0.21495
1689.33855,0.20173
1691.26701,0.19602
1693.19548,0.19799
1695.12395,0.21123
1697.05242,0.22878
1698.98089,0.23640
1700.90936,0.22775
1702.83783,0.21744
1704.76629,0.21563
1706.69476,0.21052
1708.62323,0.20026
1710.55170,0.19520
1712.48017,0.19882
1714.40864,0.21106
1716.33711,0.22626
1718.26558,0.22166
1720.19404,0.20253
1722.12251,0.18957
1724.05098,0.18076
1725.97945,0.17410
1727.90792,0.17483
1729.83639,0.18362
1731.76486,0.19518
1733.69332,0.20331
1735.62179,0.19917
1737.55026,0.19610
1739.47873,0.20102
1741.40720,0.20281
1743.33567,0.19697
1745.26414,0.19453
1747.19261,0.20103
1749.12107,0.20886
1751.04954,0.20680
1752.97801,0.19750
1754.90648,0.19169
1756.83495,0.19219
1758.76342,0.19631
1760.69189,0.20114
1762.62035,0.19948
1764.54882,0.19474
1766.47729,0.19648
1768.40576,0.20297
1770.33423,0.21393
1772.26270,0.22013
1774.19117,0.20871
1776.11964,0.19538
1778.04810,0.18798
1779.97657,0.18424
1781.90504,0.18189
1783.83351,0.18221
1785.76198,0.18582
1787.69045,0.18960
1789.61892,0.19543
1791.54738,0.20380
1793.47585,0.20350
1795.40432,0.19576
1797.33279,0.19234
1799.26126,0.19484
1801.18973,0.19661
1803.11820,0.19240
1805.04666,0.18746
1806.97513,0.18678
1808.90360,0.19007
1810.83207,0.19207
1812.76054,0.18729
1814.68901,0.18227
1816.61748,0.18753
1818.54595,0.19994
1820.47441,0.20296
1822.40288,0.19594
1824.33135,0.19218
1826.25982,0.19408
1828.18829,0.19977
1830.11676,0.20360
1832.04523,0.19616
1833.97369,0.18620
1835.90216,0.18219
1837.83063,0.18329
1839.75910,0.18663
1841.68757,0.19292
1843.61604,0.20100
1845.54451,0.20239
1847.47298,0.19491
1849.40144,0.18433
1851.32991,0.17900
1853.25838,0.18097
1855.18685,0.18130
1857.11532,0.17781
1859.04379,0.17873
1860.97226,0.18407
1862.90072,0.18681
1864.82919,0.18980
1866.75766,0.19817
1868.68613,0.20380
1870.61460,0.19596
1872.54307,0.18479
1874.47154,0.18101
1876.40001,0.18164
1878.32847,0.18009
1880.25694,0.17717
1882.18541,0.17832
1884.11388,0.18511
1886.04235,0.19289
1887.97082,0.19748
1889.89929,0.19491
1891.82775,0.18762
1893.75622,0.18558
1895.68469,0.18739
1897.61316,0.18545
1899.54163,0.18184
1901.47010,0.18008
1903.39857,0.17897
1905.32704,0.17754
1907.25550,0.17660
1909.18397,0.17815
1911.11244,0.18106
1913.04091,0.18265
1914.96938,0.18486
1916.89785,0.18778
1918.82632,0.18857
1920.75478,0.18862
1922.68325,0.18677
1924.61172,0.18119
1926.54019,0.17766
1928.46866,0.17846
1930.39713,0.18043
1932.32560,0.18233
1934.25407,0.18429
1936.18253,0.18569
1938.11100,0.18742
1940.03947,0.19249
1941.96794,0.19830
1943.89641,0.19679
1945.82488,0.19034
1947.75335,0.18659
1949.68181,0.18556
1951.61028,0.18439
1953.53875,0.18324
1955.46722,0.18270
1957.39569,0.18075
1959.32416,0.17831
1961.25263,0.17949
1963.18110,0.18348
1965.10956,0.18657
1967.03803,0.18530
1968.96650,0.17991
1970.89497,0.17807
1972.82344,0.18232
1974.75191,0.18570
1976.68038,0.18461
1978.60884,0.18271
1980.53731,0.18068
1982.46578,0.17689
1984.39425,0.17556
1986.32272,0.17833
1988.25119,0.18109
1990.17966,0.18366
1992.10812,0.18511
1994.03659,0.18202
1995.96506,0.17870
1997.89353,0.17938
1999.82200,0.18171
2001.75047,0.18380
2003.67894,0.18562
2005.60741,0.18747
2007.53587,0.18904
2009.46434,0.18765
2011.39281,0.18402
2013.32128,0.18484
2015.24975,0.19075
2017.17822,0.19344
2019.10669,0.19097
2021.03515,0.18888
2022.96362,0.18814
2024.89209,0.18645
2026.82056,0.18358
2028.74903,0.18280
2030.67750,0.18660
2032.60597,0.19200
2034.53444,0.19361
2036.46290,0.19045
2038.39137,0.18810
2040.31984,0.18882
2042.24831,0.18897
2044.17678,0.18911
2046.10525,0.18941
2048.03372,0.18665
2049.96218,0.18274
2051.89065,0.18306
2053.81912,0.18811
2055.74759,0.19331
2057.67606,0.19476
2059.60453,0.19177
2061.53300,0.18850
2063.46147,0.18828
2065.38993,0.18798
2067.31840,0.18711
2069.24687,0.18797
2071.17534,0.18893
2073.10381,0.18896
2075.03228,0.18945
2076.96075,0.18992
2078.88921,0.18877
2080.81768,0.18841
2082.74615,0.19032
2084.67462,0.19114
2086.60309,0.19179
2088.53156,0.19409
2090.46003,0.19495
2092.38850,0.19496
2094.31696,0.19645
2096.24543,0.19732
2098.17390,0.19624
2100.10237,0.19548
2102.03084,0.19724
2103.95931,0.19950
2105.88778,0.19804
2107.81624,0.19338
2109.74471,0.19010
2111.67318,0.18952
2113.60165,0.18930
2115.53012,0.18872
2117.45859,0.18872
2119.38706,0.18926
2121.31553,0.18995
2123.24399,0.18940
2125.17246,0.18852
2127.10093,0.18902
2129.02940,0.18901
2130.95787,0.19015
2132.88634,0.19506
2134.81481,0.19938
2136.74327,0.19772
2138.67174,0.19388
2140.60021,0.19335
2142.52868,0.19183
2144.45715,0.18821
2146.38562,0.18721
2148.31409,0.18828
2150.24255,0.18993
2152.17102,0.19124
2154.09949,0.19048
2156.02796,0.19027
2157.95643,0.19256
2159.88490,0.19263
2161.81337,0.18973
2163.74184,0.18659
2165.67030,0.18340
2167.59877,0.18301
2169.52724,0.18653
2171.45571,0.18989
2173.38418,0.19000
2175.31265,0.18923
2177.24112,0.19072
2179.16958,0.19196
2181.09805,0.18990
2183.02652,0.18680
2184.95499,0.18662
2186.88346,0.18924
2188.81193,0.19139
2190.74040,0.19183
2192.66887,0.19235
2194.59733,0.19396
2196.52580,0.19582
2198.45427,0.19520
2200.38274,0.19009
2202.31121,0.18471
2204.23968,0.18373
2206.16815,0.18666
2208.09661,0.18891
2210.02508,0.18775
2211.95355,0.18794
2213.88202,0.19153
2215.81049,0.19398
2217.73896,0.19432
2219.66743,0.19461
2221.59590,0.19425
2223.52436,0.19271
2225.45283,0.19086
2227.38130,0.18866
2229.30977,0.18732
2231.23824,0.18792
2233.16671,0.18940
2235.09518,0.19108
2237.02364,0.19191
2238.95211,0.19114
2240.88058,0.19079
2242.80905,0.19250
2244.73752,0.19403
2246.66599,0.19225
2248.59446,0.18849
2250.52293,0.18698
2252.45139,0.18795
2254.37986,0.18743
2256.30833,0.18626
2258.23680,0.18952
2260.16527,0.19539
2262.09374,0.19831
2264.02221,0.19846
2265.95067,0.19692
2267.87914,0.19391
2269.80761,0.19180
2271.73608,0.19075
2273.66455,0.19035
2275.59302,0.19213
2277.52149,0.19414
2279.44996,0.19343
2281.37842,0.19248
2283.30689,0.19363
2285.23536,0.19441
2287.16383,0.19444
2289.09230,0.19557
2291.02077,0.19836
2292.94924,0.20326
2294.87770,0.20455
2296.80617,0.19801
2298.73464,0.19208
2300.66311,0.19169
2302.59158,0.19343
2304.52005,0.19709
2306.44852,0.20215
2308.37699,0.20534
2310.30545,0.20517
2312.23392,0.20322
2314.16239,0.20095
2316.09086,0.20005
2318.01933,0.20371
2319.94780,0.21072
2321.87627,0.21755
2323.80473,0.22387
2325.73320,0.23062
2327.66167,0.23536
2329.59014,0.23413
2331.51861,0.22760
2333.44708,0.21679
2335.37555,0.20747
2337.30401,0.20537
2339.23248,0.20770
2341.16095,0.21529
2343.08942,0.22258
2345.01789,0.21574
2346.94636,0.20470
2348.87483,0.20496
2350.80330,0.21334
2352.73176,0.22191
2354.66023,0.23353
2356.58870,0.25628
2358.51717,0.27446
2360.44564,0.27034
2362.37411,0.25774
2364.30258,0.25605
2366.23104,0.25352
2368.15951,0.23325
2370.08798,0.21609
2372.01645,0.21872
2373.94492,0.22477
2375.87339,0.22136
2377.80186,0.21107
2379.73033,0.20171
2381.65879,0.19861
2383.58726,0.19894
2385.51573,0.19727
2387.44420,0.19343
2389.37267,0.19197
2391.30114,0.19422
2393.22961,0.19602
2395.15807,0.19483
2397.08654,0.19221
2399.01501,0.19120
2400.94348,0.19184
2402.87195,0.19119
2404.80042,0.19130
2406.72889,0.19494
2408.65736,0.19729
2410.58582,0.19615
2412.51429,0.19460
2414.44276,0.19261
2416.37123,0.19070
2418.29970,0.19042
2420.22817,0.19107
2422.15664,0.19247
2424.08510,0.19378
2426.01357,0.19277
2427.94204,0.18984
2429.87051,0.18845
2431.79898,0.19133
2433.72745,0.19569
2435.65592,0.19593
2437.58439,0.19237
2439.51285,0.19054
2441.44132,0.19286
2443.36979,0.19564
2445.29826,0.19514
2447.22673,0.19262
2449.15520,0.19167
2451.08367,0.19319
2453.01213,0.19234
2454.94060,0.18761
2456.86907,0.18593
2458.79754,0.18875
2460.72601,0.19166
2462.65448,0.19425
2464.58295,0.19511
2466.51142,0.19252
2468.43988,0.18994
2470.36835,0.18960
2472.29682,0.18912
2474.22529,0.18655
2476.15376,0.18548
2478.08223,0.18890
2480.01070,0.19214
2481.93916,0.19305
2483.86763,0.19566
2485.79610,0.19970
2487.72457,0.20166
2489.65304,0.20172
2491.58151,0.20110
2493.50998,0.19901
2495.43844,0.19677
2497.36691,0.19638
2499.29538,0.19588
2501.22385,0.19468
2503.15232,0.19412
2505.08079,0.19231
2507.00926,0.18875
2508.93773,0.18716
2510.86619,0.19046
2512.79466,0.19541
2514.72313,0.19633
2516.65160,0.19347
2518.58007,0.19199
2520.50854,0.19484
2522.43701,0.19856
2524.36547,0.20039
2526.29394,0.20258
2528.22241,0.20402
2530.15088,0.20138
2532.07935,0.19560
2534.00782,0.19194
2535.93629,0.19415
2537.86476,0.19838
2539.79322,0.19874
2541.72169,0.19666
2543.65016,0.19664
2545.57863,0.19631
2547.50710,0.19345
2549.43557,0.19368
2551.36404,0.19798
2553.29250,0.20183
2555.22097,0.20450
2557.14944,0.20593
2559.07791,0.20443
2561.00638,0.20119
2562.93485,0.20119
2564.86332,0.20390
2566.79179,0.20461
2568.72025,0.20312
2570.64872,0.19967
2572.57719,0.19595
2574.50566,0.19578
2576.43413,0.19829
2578.36260,0.19951
2580.29107,0.19848
2582.21953,0.19799
2584.14800,0.19942
2586.07647,0.20211
2588.00494,0.20562
2589.93341,0.20707
2591.86188,0.20452
2593.79035,0.20121
2595.71882,0.20027
2597.64728,0.20111
2599.57575,0.20103
2601.50422,0.19965
2603.43269,0.19918
2605.36116,0.20048
2607.28963,0.20311
2609.21810,0.20688
2611.14656,0.21243
2613.07503,0.21472
2615.00350,0.20857
2616.93197,0.20248
2618.86044,0.20261
2620.78891,0.20412
2622.71738,0.20373
2624.64585,0.20089
2626.57431,0.19812
2628.50278,0.19709
2630.43125,0.19493
2632.35972,0.19407
2634.28819,0.19829
2636.21666,0.20177
2638.14513,0.20041
2640.07359,0.19963
2642.00206,0.20116
2643.93053,0.20066
2645.85900,0.19955
2647.78747,0.20145
2649.71594,0.20360
2651.64441,0.20344
2653.57288,0.20159
2655.50134,0.19906
2657.42981,0.19923
2659.35828,0.20316
2661.28675,0.20546
2663.21522,0.20295
2665.14369,0.20021
2667.07216,0.20148
2669.00062,0.20490
2670.92909,0.20727
2672.85756,0.20750
2674.78603,0.20492
2676.71450,0.20053
2678.64297,0.19778
2680.57144,0.19806
2682.49990,0.20070
2684.42837,0.20453
2686.35684,0.20736
2688.28531,0.20784
2690.21378,0.20572
2692.14225,0.20267
2694.07072,0.20066
2695.99919,0.20051
2697.92765,0.20175
2699.85612,0.20131
2701.78459,0.19817
2703.71306,0.19660
2705.64153,0.19954
2707.57000,0.20344
2709.49847,0.20573
2711.42693,0.20681
2713.35540,0.20601
2715.28387,0.20520
2717.21234,0.20478
2719.14081,0.20254
2721.06928,0.19989
2722.99775,0.20000
2724.92622,0.20268
2726.85468,0.20642
2728.78315,0.21065
2730.71162,0.21235
2732.64009,0.21166
2734.56856,0.21166
2736.49703,0.21209
2738.42550,0.21161
2740.35396,0.20875
2742.28243,0.20478
2744.21090,0.20142
2746.13937,0.20002
2748.06784,0.20349
2749.99631,0.20847
2751.92478,0.20840
2753.85325,0.20469
2755.78171,0.20199
2757.71018,0.20050
2759.63865,0.20097
2761.56712,0.20264
2763.49559,0.20243
2765.42406,0.20685
2767.35253,0.22094
2769.28099,0.22955
2771.20946,0.22133
2773.13793,0.21150
2775.06640,0.21028
2776.99487,0.21007
2778.92334,0.20922
2780.85181,0.21187
2782.78028,0.21817
2784.70874,0.22165
2786.63721,0.21876
2788.56568,0.21471
2790.49415,0.21250
2792.42262,0.21148
2794.35109,0.21135
2796.27956,0.21240
2798.20802,0.21316
2800.13649,0.21258
2802.06496,0.21270
2803.99343,0.21101
2805.92190,0.20590
2807.85037,0.20419
2809.77884,0.20873
2811.70731,0.21514
2813.63577,0.22037
2815.56424,0.22167
2817.49271,0.21842
2819.42118,0.21546
2821.34965,0.21622
2823.27812,0.21813
2825.20659,0.21690
2827.13505,0.21445
2829.06352,0.21584
2830.99199,0.21955
2832.92046,0.22171
2834.84893,0.22142
2836.77740,0.21803
2838.70587,0.21246
2840.63433,0.20929
2842.56280,0.20951
2844.49127,0.20901
2846.41974,0.20875
2848.34821,0.21111
2850.27668,0.21299
2852.20515,0.21342
2854.13362,0.21285
2856.06208,0.21092
2857.99055,0.21014
2859.91902,0.20976
2861.84749,0.20749
2863.77596,0.20581
2865.70443,0.20598
2867.63290,0.20803
2869.56136,0.21204
2871.48983,0.21227
2873.41830,0.20758
2875.34677,0.20611
2877.27524,0.20922
2879.20371,0.21143
2881.13218,0.20994
2883.06065,0.20884
2884.98911,0.21198
2886.91758,0.21303
2888.84605,0.21072
2890.77452,0.21297
2892.70299,0.21781
2894.63146,0.21781
2896.55993,0.21515
2898.48839,0.21555
2900.41686,0.21800
2902.34533,0.21822
2904.27380,0.21638
2906.20227,0.21534
2908.13074,0.21495
2910.05921,0.21463
2911.98768,0.21404
2913.91614,0.21316
2915.84461,0.21221
2917.77308,0.21045
2919.70155,0.21129
2921.63002,0.21466
2923.55849,0.21536
2925.48696,0.21508
2927.41542,0.21542
2929.34389,0.21431
2931.27236,0.21286
2933.20083,0.21192
2935.12930,0.21048
2937.05777,0.21005
2938.98624,0.21241
2940.91471,0.21402
2942.84317,0.21245
2944.77164,0.21024
2946.70011,0.20811
2948.62858,0.20627
2950.55705,0.20739
2952.48552,0.21229
2954.41399,0.21525
2956.34245,0.21035
2958.27092,0.20312
2960.19939,0.20357
2962.12786,0.21031
2964.05633,0.21590
2965.98480,0.21916
2967.91327,0.21983
2969.84174,0.21917
2971.77020,0.21983
2973.69867,0.21864
2975.62714,0.21414
2977.55561,0.20895
2979.48408,0.20705
2981.41255,0.21093
2983.34102,0.21435
2985.26948,0.21172
2987.19795,0.20775
2989.12642,0.21038
2991.05489,0.21910
2992.98336,0.22262
2994.91183,0.21774
2996.84030,0.21402
2998.76877,0.21248
3000.69723,0.20907
3002.62570,0.20950
3004.55417,0.21498
3006.48264,0.21540
3008.41111,0.20985
3010.33958,0.20686
3012.26805,0.20782
3014.19651,0.20669
3016.12498,0.20082
3018.05345,0.19579
3019.98192,0.19808
3021.91039,0.20818
3023.83886,0.21850
3025.76733,0.22102
3027.69579,0.21822
3029.62426,0.21824
3031.55273,0.22129
3033.48120,0.21949
3035.40967,0.21387
3037.33814,0.21117
3039.26661,0.21204
3041.19508,0.21278
3043.12354,0.21077
3045.05201,0.20979
3046.98048,0.21248
3048.90895,0.21742
3050.83742,0.22225
3052.76589,0.22243
3054.69436,0.21656
3056.62282,0.20996
3058.55129,0.20975
3060.47976,0.21361
3062.40823,0.21423
3064.33670,0.21217
3066.26517,0.21045
3068.19364,0.21175
3070.12211,0.21673
3072.05057,0.21904
3073.97904,0.21608
3075.90751,0.21448
3077.83598,0.21749
3079.76445,0.22054
3081.69292,0.22024
3083.62139,0.21534
3085.54985,0.20952
3087.47832,0.21287
3089.40679,0.22211
3091.33526,0.22172
3093.26373,0.21082
3095.19220,0.20349
3097.12067,0.20539
3099.04914,0.21027
3100.97760,0.21290
3102.90607,0.21281
3104.83454,0.21553
3106.76301,0.22246
3108.69148,0.22581
3110.61995,0.21959
3112.54842,0.20806
3114.47688,0.20329
3116.40535,0.20700
3118.33382,0.21100
3120.26229,0.21347
3122.19076,0.21795
3124.11923,0.22448
3126.04770,0.22898
3127.97617,0.22853
3129.90463,0.22250
3131.83310,0.21734
3133.76157,0.21936
3135.69004,0.22270
3137.61851,0.22226
3139.54698,0.22196
3141.47545,0.22407
3143.40391,0.22499
3145.33238,0.22207
3147.26085,0.21786
3149.18932,0.21622
3151.11779,0.21800
3153.04626,0.22356
3154.97473,0.23008
3156.90320,0.23191
3158.83166,0.23105
3160.76013,0.23067
3162.68860,0.22985
3164.61707,0.23075
3166.54554,0.23257
3168.47401,0.23067
3170.40248,0.22587
3172.33094,0.22269
3174.25941,0.22330
3176.18788,0.22536
3178.11635,0.22308
3180.04482,0.21679
3181.97329,0.21821
3183.90176,0.22839
3185.83022,0.23169
3187.75869,0.22670
3189.68716,0.22427
3191.61563,0.22272
3193.54410,0.21881
3195.47257,0.21559
3197.40104,0.21464
3199.32951,0.21682
3201.25797,0.22036
3203.18644,0.22373
3205.11491,0.22785
3207.04338,0.23103
3208.97185,0.23236
3210.90032,0.23220
3212.82879,0.22888
3214.75725,0.22320
3216.68572,0.22110
3218.61419,0.22415
3220.54266,0.22584
3222.47113,0.22396
3224.39960,0.22168
3226.32807,0.22087
3228.25654,0.22236
3230.18500,0.22453
3232.11347,0.22424
3234.04194,0.21915
3235.97041,0.21188
3237.89888,0.20887
3239.82735,0.21012
3241.75582,0.21237
3243.68428,0.21702
3245.61275,0.22442
3247.54122,0.22763
3249.46969,0.22360
3251.39816,0.21964
3253.32663,0.21833
3255.25510,0.21605
3257.18357,0.21480
3259.11203,0.21794
3261.04050,0.22017
3262.96897,0.21788
3264.89744,0.21679
3266.82591,0.21788
3268.75438,0.21644
3270.68285,0.21089
3272.61131,0.20549
3274.53978,0.20611
3276.46825,0.20942
3278.39672,0.21198
3280.32519,0.21570
3282.25366,0.21573
3284.18213,0.21137
3286.11060,0.21137
3288.03906,0.21704
3289.96753,0.22275
3291.89600,0.22544
3293.82447,0.22805
3295.75294,0.23281
3297.68141,0.23126
3299.60988,0.22073
3301.53834,0.21279
3303.46681,0.21008
3305.39528,0.20709
3307.32375,0.20604
3309.25222,0.20993
3311.18069,0.21613
3313.10916,0.22013
3315.03763,0.22003
3316.96609,0.21889
3318.89456,0.21924
3320.82303,0.22021
3322.75150,0.21996
3324.67997,0.21831
3326.60844,0.21791
3328.53691,0.22015
3330.46537,0.22230
3332.39384,0.22168
3334.32231,0.21977
3336.25078,0.22116
3338.17925,0.22582
3340.10772,0.22756
3342.03619,0.22344
3343.96466,0.21704
3345.89312,0.21516
3347.82159,0.22036
3349.75006,0.22642
3351.67853,0.22715
3353.60700,0.22480
3355.53547,0.22186
3357.46394,0.21884
3359.39240,0.22025
3361.32087,0.22207
3363.24934,0.21913
3365.17781,0.21903
3367.10628,0.22308
3369.03475,0.22476
3370.96322,0.22300
3372.89168,0.22145
3374.82015,0.22073
3376.74862,0.22084
3378.67709,0.22673
3380.60556,0.23203
3382.53403,0.22672
3384.46250,0.22118
3386.39097,0.22578
3388.31943,0.23365
3390.24790,0.23668
3392.17637,0.23168
3394.10484,0.22097
3396.03331,0.21121
3397.96178,0.20645
3399.89025,0.20724
3401.81871,0.20911
3403.74718,0.20664
3405.67565,0.20439
3407.60412,0.20873
3409.53259,0.21180
3411.46106,0.20833
3413.38953,0.20642
3415.31800,0.20954
3417.24646,0.21502
3419.17493,0.21678
3421.10340,0.21140
3423.03187,0.20989
3424.96034,0.21586
3426.88881,0.21876
3428.81728,0.21725
3430.74574,0.21374
3432.67421,0.20858
3434.60268,0.20531
3436.53115,0.20254
3438.45962,0.19983
3440.38809,0.20235
3442.31656,0.20933
3444.24503,0.21230
3446.17349,0.20919
3448.10196,0.20455
3450.03043,0.19806
3451.95890,0.19628
3453.88737,0.20301
3455.81584,0.20284
3457.74431,0.19405
3459.67277,0.19235
3461.60124,0.19909
3463.52971,0.20650
3465.45818,0.20899
3467.38665,0.20362
3469.31512,0.19646
3471.24359,0.19907
3473.17206,0.20937
3475.10052,0.21356
3477.02899,0.21104
3478.95746,0.20869
3480.88593,0.20625
3482.81440,0.19968
3484.74287,0.19155
3486.67134,0.19124
3488.59980,0.19506
3490.52827,0.19625
3492.45674,0.19705
3494.38521,0.19291
3496.31368,0.18350
3498.24215,0.17951
3500.17062,0.18404
3502.09909,0.18958
3504.02755,0.19227
3505.95602,0.19540
3507.88449,0.19509
3509.81296,0.18969
3511.74143,0.18857
3513.66990,0.19213
3515.59837,0.19442
3517.52683,0.19274
3519.45530,0.18970
3521.38377,0.19258
3523.31224,0.19768
3525.24071,0.19700
3527.16918,0.19111
3529.09765,0.18261
3531.02611,0.17760
3532.95458,0.17682
3534.88305,0.17646
3536.81152,0.17860
3538.73999,0.18254
3540.66846,0.18453
3542.59693,0.18665
3544.52540,0.18842
3546.45386,0.18367
3548.38233,0.17485
3550.31080,0.17329
3552.23927,0.17900
3554.16774,0.18042
3556.09621,0.17251
3558.02468,0.15887
3559.95314,0.15294
3561.88161,0.16734
3563.81008,0.19177
3565.73855,0.20805
3567.66702,0.20542
3569.59549,0.18999
3571.52396,0.17726
3573.45243,0.17023
3575.38089,0.16255
3577.30936,0.15376
3579.23783,0.15271
3581.16630,0.15979
3583.09477,0.16741
3585.02324,0.17421
3586.95171,0.17569
3588.88017,0.16439
3590.80864,0.15847
3592.73711,0.16375
3594.66558,0.16729
3596.59405,0.16508
3598.52252,0.16249
3600.45099,0.16110
3602.37946,0.16202
3604.30792,0.16564
3606.23639,0.17034
3608.16486,0.17126
3610.09333,0.16792
3612.02180,0.16807
3613.95027,0.17081
3615.87874,0.17299
3617.80720,0.17587
3619.73567,0.17311
3621.66414,0.16322
3623.59261,0.15705
3625.52108,0.16226
3627.44955,0.18207
3629.37802,0.19418
3631.30649,0.17619
3633.23495,0.15866
3635.16342,0.15009
3637.09189,0.14424
3639.02036,0.14226
3640.94883,0.14575
3642.87730,0.15153
3644.80577,0.16050
3646.73423,0.17820
3648.66270,0.20134
3650.59117,0.19476
3652.51964,0.16961
3654.44811,0.15900
3656.37658,0.16063
3658.30505,0.15861
3660.23352,0.15082
3662.16198,0.14085
3664.09045,0.13185
3666.01892,0.13247
3667.94739,0.14719
3669.87586,0.16504
3671.80433,0.16604
3673.73280,0.16457
3675.66126,0.16629
3677.58973,0.15529
3679.51820,0.14290
3681.44667,0.13811
3683.37514,0.13676
3685.30361,0.13583
3687.23208,0.13887
3689.16055,0.14991
3691.08901,0.15821
3693.01748,0.15374
3694.94595,0.14381
3696.87442,0.13479
3698.80289,0.13052
3700.73136,0.13269
3702.65983,0.13873
3704.58829,0.14155
3706.51676,0.14130
3708.44523,0.14725
3710.37370,0.15973
3712.30217,0.15447
3714.23064,0.13642
3716.15911,0.13260
3718.08757,0.14325
3720.01604,0.15684
3721.94451,0.16531
3723.87298,0.16386
3725.80145,0.15540
3727.72992,0.14882
3729.65839,0.14293
3731.58686,0.13992
3733.51532,0.14972
3735.44379,0.16461
3737.37226,0.16273
3739.30073,0.15547
3741.22920,0.15823
3743.15767,0.16679
3745.08614,0.16957
3747.01460,0.16770
3748.94307,0.16638
3750.87154,0.16207
3752.80001,0.15198
3754.72848,0.14433
3756.65695,0.14440
3758.58542,0.14883
3760.51389,0.14773
3762.44235,0.14296
3764.37082,0.14406
3766.29929,0.14905
3768.22776,0.14990
3770.15623,0.14438
3772.08470,0.13529
3774.01317,0.12830
3775.94163,0.12534
3777.87010,0.12510
3779.79857,0.12634
3781.72704,0.12872
3783.65551,0.12719
3785.58398,0.12151
3787.51245,0.12032
3789.44092,0.12309
3791.36938,0.12748
3793.29785,0.13706
3795.22632,0.14703
3797.15479,0.14857
3799.08326,0.14976
3801.01173,0.15265
3802.94020,0.14283
3804.86866,0.13731
3806.79713,0.14310
3808.72560,0.14265
3810.65407,0.13605
3812.58254,0.13522
3814.51101,0.14317
3816.43948,0.14988
3818.36795,0.15128
3820.29641,0.15841
3822.22488,0.15670
3824.15335,0.14474
3826.08182,0.13778
3828.01029,0.13532
3829.93876,0.13852
3831.86723,0.14855
3833.79569,0.15676
3835.72416,0.15338
3837.65263,0.14412
3839.58110,0.14005
3841.50957,0.13470
3843.43804,0.12574
3845.36651,0.11885
3847.29498,0.11593
3849.22344,0.11882
3851.15191,0.13110
3853.08038,0.15016
3855.00885,0.14992
3856.93732,0.13921
3858.86579,0.13443
3860.79426,0.13438
3862.72272,0.13489
3864.65119,0.13326
3866.57966,0.13657
3868.50813,0.14408
3870.43660,0.13878
3872.36507,0.12675
3874.29354,0.12582
3876.22200,0.12469
3878.15047,0.12019
3880.07894,0.12254
3882.00741,0.12710
3883.93588,0.12540
3885.86435,0.12387
3887.79282,0.12542
3889.72129,0.12869
3891.64975,0.12903
3893.57822,0.12415
3895.50669,0.12202
3897.43516,0.12401
3899.36363,0.13126
3901.29210,0.14563
3903.22057,0.15135
3905.14903,0.13371
3907.07750,0.11238
3909.00597,0.10296
3910.93444,0.10031
3912.86291,0.09643
3914.79138,0.09448
3916.71985,0.10479
3918.64832,0.11737
3920.57678,0.11907
3922.50525,0.11862
3924.43372,0.11781
3926.36219,0.11017
3928.29066,0.10287
3930.21913,0.10490
3932.14760,0.11021
3934.07606,0.11061
3936.00453,0.10573
3937.93300,0.09770
3939.86147,0.09439
3941.78994,0.10205
3943.71841,0.11414
3945.64688,0.11941
3947.57535,0.12278
3949.50381,0.12844
3951.43228,0.12509
3953.36075,0.11450
3955.28922,0.10931
3957.21769,0.10889
3959.14616,0.10736
3961.07463,0.10636
3963.00309,0.10975
3964.93156,0.11399
3966.86003,0.10906
3968.78850,0.09877
3970.71697,0.09788
3972.64544,0.10197
3974.57391,0.09811
3976.50238,0.09131
3978.43084,0.09144
3980.35931,0.09449
3982.28778,0.09363
3984.21625,0.09323
3986.14472,0.09733
3988.07319,0.10235
3990.00166,0.10566
3991.93012,0.10710
3993.85859,0.10853
3995.78706,0.11096
3997.71553,0.11144
3999.64400,0.10741
4001.57247,0.09936
4003.50094,0.09147
4005.42941,0.08891
4007.35787,0.09148
4009.28634,0.09631
4011.21481,0.10096
4013.14328,0.10104
4015.07175,0.09607
4017.00022,0.09312
4018.92869,0.09636
4020.85715,0.09714
4022.78562,0.08940
4024.71409,0.08386
4026.64256,0.08814
4028.57103,0.09262
4030.49950,0.09025
4032.42797,0.08965
4034.35644,0.09214
4036.28490,0.08778
4038.21337,0.08100
4040.14184,0.07891
4042.07031,0.08072
4043.99878,0.08917
4045.92725,0.09826
4047.85572,0.09857
4049.78418,0.09589
4051.71265,0.09616
4053.64112,0.09824
4055.56959,0.09800
4057.49806,0.09256
4059.42653,0.09050
4061.35500,0.09533
4063.28346,0.09614
4065.21193,0.09192
4067.14040,0.09036
4069.06887,0.08855
4070.99734,0.08311
4072.92581,0.08192
4074.85428,0.08841
4076.78275,0.09338
4078.71121,0.08808
4080.63968,0.07856
4082.56815,0.07657
4084.49662,0.07921
4086.42509,0.07732
4088.35356,0.07364
4090.28203,0.07771
4092.21049,0.08682
4094.13896,0.09084
4096.06743,0.09097
4097.99590,0.09045
4099.92437,0.08835
4101.85284,0.08823
4103.78131,0.08872
4105.70978,0.08710
4107.63824,0.08822
4109.56671,0.08949
4111.49518,0.08437
4113.42365,0.07429
4115.35212,0.06474
4117.28059,0.06187
4119.20906,0.06476
4121.13752,0.06845
4123.06599,0.07201
4124.99446,0.07413
4126.92293,0.07620
4128.85140,0.07854
4130.77987,0.07974
4132.70834,0.08231
4134.63681,0.08282
4136.56527,0.07866
4138.49374,0.07489
4140.42221,0.07603
4142.35068,0.08099
4144.27915,0.08114
4146.20762,0.07630
4148.13609,0.07808
4150.06455,0.08315
4151.99302,0.07910
4153.92149,0.07362
4155.84996,0.07400
4157.77843,0.07131
4159.70690,0.06664
4161.63537,0.06416
4163.56384,0.05930
4165.49230,0.05589
4167.42077,0.06102
4169.34924,0.06940
4171.27771,0.07573
4173.20618,0.07993
4175.13465,0.07734
4177.06312,0.06686
4178.99158,0.05617
4180.92005,0.05114
4182.84852,0.05182
4184.77699,0.05724
4186.70546,0.05964
4188.63393,0.05248
4190.56240,0.04364
4192.49087,0.04023
4194.41933,0.04197
4196.34780,0.04973
4198.27627,0.06126
4200.20474,0.06691
4202.13321,0.06585
4204.06168,0.06575
4205.99015,0.06348
4207.91861,0.05694
4209.84708,0.05501
4211.77555,0.05662
4213.70402,0.05441
4215.63249,0.05379
4217.56096,0.05711
4219.48943,0.05704
4221.41789,0.05171
4223.34636,0.05059
4225.27483,0.06179
4227.20330,0.07366
4229.13177,0.07572
4231.06024,0.07376
4232.98871,0.07034
4234.91718,0.06321
4236.84564,0.05397
4238.77411,0.04783
4240.70258,0.04899
4242.63105,0.05275
4244.55952,0.05372
4246.48799,0.05428
4248.41646,0.05562
4250.34492,0.05614
4252.27339,0.05348
4254.20186,0.04803
4256.13033,0.04572
4258.05880,0.04723
4259.98727,0.04514
4261.91574,0.04003
4263.84421,0.03882
4265.77267,0.03794
4267.70114,0.03459
4269.62961,0.03519
4271.55808,0.04200
4273.48655,0.04742
4275.41502,0.04464
4277.34349,0.04090
4279.27195,0.04300
4281.20042,0.04274
4283.12889,0.03600
4285.05736,0.03059
4286.98583,0.03063
4288.91430,0.03491
4290.84277,0.03955
4292.77124,0.03978
4294.69970,0.03837
4296.62817,0.04154
4298.55664,0.04644
4300.48511,0.04701
4302.41358,0.04770
4304.34205,0.04893
4306.27052,0.04303
4308.19898,0.03492
4310.12745,0.03107
4312.05592,0.03098
4313.98439,0.03680
4315.91286,0.04257
4317.84133,0.04229
4319.76980,0.03995
4321.69827,0.03645
4323.62673,0.03460
4325.55520,0.03326
4327.48367,0.03075
4329.41214,0.03344
4331.34061,0.03398
4333.26908,0.02803
4335.19755,0.02829
4337.12601,0.03127
4339.05448,0.02321
4340.98295,0.01530
4342.91142,0.02036
4344.83989,0.02505
4346.76836,0.01814
4348.69683,0.00607
4350.62530,0.00143
4352.55376,0.00539
4354.48223,0.00804
4356.41070,0.01033
4358.33917,0.01970
4360.26764,0.03141
4362.19611,0.03423
4364.12458,0.03033
4366.05304,0.02669
4367.98151,0.02169
4369.90998,0.01743
4371.83845,0.01821
4373.76692,0.02161
4375.69539,0.02203
4377.62386,0.01766
4379.55232,0.01073
4381.48079,0.00901
4383.40926,0.02046
4385.33773,0.03507
4387.26620,0.03570
4389.19467,0.01916
4391.12314,0.00284
4393.05161,0.00416
4394.98007,0.00794
4396.90854,0.00290
4398.83701,0.00520
4400.76548,0.01237
4402.69395,0.01129
4404.62242,0.00780
4406.55089,0.00562
4408.47935,0.00247
4410.40782,0.00538
4412.33629,0.01525
4414.26476,0.02278
4416.19323,0.02496
4418.12170,0.01763
4420.05017,0.00399
4421.97864,0.00370
4423.90710,0.01661
4425.83557,0.02166
4427.76404,0.01516
4429.69251,0.00713
4431.62098,0.00453
4433.54945,0.00986
4435.47792,0.01590
4437.40638,0.01869
4439.33485,0.01694
4441.26332,0.00790
4443.19179,0.00366
4445.12026,0.00592
4447.04873,0.00587
4448.97720,0.01116
4450.90567,0.01774
4452.83413,0.01337
4454.76260,0.00634
4456.69107,0.00492
4458.61954,0.00755
4460.54801,0.01510
4462.47648,0.02294
4464.40495,0.02345
4466.33341,0.02102
4468.26188,0.01868
4470.19035,0.01505
4472.11882,0.01043
4474.04729,0.00245
4475.97576,-0.00223
4477.90423,0.00107
4479.83270,0.00349
4481.76116,0.00638
4483.68963,0.01231
4485.61810,0.01100
4487.54657,0.00383
4489.47504,0.00036
4491.40351,0.00155
4493.33198,0.00177
4495.26044,-0.00559
4497.18891,-0.01231
4499.11738,-0.00717
4501.04585,0.00276
4502.97432,0.00855
4504.90279,0.00903
4506.83126,0.00576
4508.75973,0.00195
4510.68819,-0.00079
4512.61666,0.00323
4514.54513,0.01471
4516.47360,0.01964
4518.40207,0.00900
4520.33054,-0.00524
4522.25901,-0.01751
4524.18747,-0.03041
4526.11594,-0.03182
4528.04441,-0.01425
4529.97288,0.01077
4531.90135,0.02710
4533.82982,0.02497
4535.75829,0.01540
4537.68676,0.01382
4539.61522,0.01802
4541.54369,0.01928
4543.47216,0.01690
4545.40063,0.01099
4547.32910,-0.00240
4549.25757,-0.01942
4551.18604,-0.02013
4553.11450,-0.00342
4555.04297,0.00612
4556.97144,-0.00271
4558.89991,-0.01721
4560.82838,-0.01766
4562.75685,-0.00096
4564.68532,0.01518
4566.61378,0.01688
4568.54225,0.01214
4570.47072,0.00932
4572.39919,0.00827
4574.32766,0.01077
4576.25613,0.01459
4578.18460,0.01439
4580.11307,0.01061
4582.04153,0.00037
4583.97000,-0.01065
4585.89847,-0.00604
4587.82694,0.01157
4589.75541,0.02226
4591.68388,0.02231
4593.61235,0.02391
4595.54081,0.02245
4597.46928,0.00970
4599.39775,0.00182
4601.32622,0.00493
4603.25469,0.00335
4605.18316,-0.00344
4607.11163,-0.00750
4609.04010,-0.01043
4610.96856,-0.01284
4612.89703,-0.00780
4614.82550,0.00230
4616.75397,0.00514
4618.68244,0.00632
4620.61091,0.01184
4622.53938,0.01106
4624.46784,0.00718
4626.39631,0.01193
4628.32478,0.01278
4630.25325,-0.00407
4632.18172,-0.02450
4634.11019,-0.03142
4636.03866,-0.01957
4637.96713,-0.00137
4639.89559,0.01212
4641.82406,0.02720
4643.75253,0.03371
4645.68100,0.01846
4647.60947,-0.00091
4649.53794,-0.00802
4651.46641,-0.00447
4653.39487,0.00732
4655.32334,0.01765
4657.25181,0.01580
4659.18028,0.00713
4661.10875,-0.00100
4663.03722,-0.00974
4664.96569,-0.01224
4666.89416,0.00313
4668.82262,0.02362
4670.75109,0.02110
4672.67956,-0.00299
4674.60803,-0.01351
4676.53650,0.00327
4678.46497,0.01803
4680.39344,0.01049
4682.32190,-0.00576
4684.25037,-0.01108
4686.17884,-0.00490
4688.10731,0.00162
4690.03578,0.00233
4691.96425,-0.00140
4693.89272,-0.00066
4695.82119,0.00364
4697.74965,0.00096
4699.67812,-0.00831
4701.60659,-0.01192
4703.53506,-0.00789
4705.46353,-0.00292
4707.39200,0.00696
4709.32047,0.01641
4711.24893,0.01359
4713.17740,0.00612
4715.10587,0.00177
4717.03434,0.00038
4718.96281,0.00439
4720.89128,0.00964
4722.81975,0.01343
4724.74821,0.01991
4726.67668,0.02279
4728.60515,0.01768
4730.53362,0.01438
4732.46209,0.02156
4734.39056,0.03102
4736.31903,0.02430
4738.24750,0.00796
4740.17596,0.00128
4742.10443,-0.00555
4744.03290,-0.01049
4745.96137,0.00086
4747.88984,0.00851
4749.81831,0.00212
4751.74678,-0.00179
4753.67524,-0.00494
4755.60371,-0.01434
4757.53218,-0.02084
4759.46065,-0.02002
4761.38912,-0.01524
4763.31759,-0.00605
4765.24606,0.00036
4767.17453,-0.00022
4769.10299,0.00126
4771.03146,0.01250
4772.95993,0.02589
4774.88840,0.02253
4776.81687,0.00746
4778.74534,-0.00332
4780.67381,-0.01510
4782.60227,-0.02692
4784.53074,-0.02786
4786.45921,-0.01493
4788.38768,0.00323
4790.31615,0.00466
4792.24462,-0.00857
4794.17309,-0.00951
4796.10156,0.00472
4798.03002,0.01249
4799.95849,0.00135
4801.88696,-0.01623
4803.81543,-0.01666
4805.74390,-0.00025
4807.67237,0.00902
4809.60084,0.00635
4811.52930,0.00832
4813.45777,0.01834
4815.38624,0.01881
4817.31471,0.00356
4819.24318,-0.00471
4821.17165,0.00817
4823.10012,0.02087
4825.02859,0.01861
4826.95705,0.01790
4828.88552,0.01216
4830.81399,-0.00275
4832.74246,0.00642
4834.67093,0.03062
4836.59940,0.03210
4838.52787,0.01948
4840.45633,0.01351
4842.38480,0.00927
4844.31327,0.00768
4846.24174,0.01540
4848.17021,0.01977
4850.09868,0.01611
4852.02715,0.00781
4853.95562,-0.00920
4855.88408,-0.02417
4857.81255,-0.02158
4859.74102,-0.00527
4861.66949,0.01281
4863.59796,0.02751
4865.52643,0.03614
4867.45490,0.04276
4869.38336,0.05455
4871.31183,0.06319
4873.24030,0.05905
4875.16877,0.04708
4877.09724,0.02670
4879.02571,0.00433
4880.95418,0.00358
4882.88265,0.01777
4884.81111,0.02447
4886.73958,0.02280
4888.66805,0.01381
4890.59652,0.00307
4892.52499,0.00132
4894.45346,0.00547
4896.38193,0.00821
4898.31039,0.00904
4900.23886,0.00884
4902.16733,0.00947
4904.09580,0.01193
4906.02427,0.00846
4907.95274,-0.00220
4909.88121,-0.00610
4911.80967,-0.00485
4913.73814,-0.00543
4915.66661,-0.00735
4917.59508,-0.01135
4919.52355,-0.01707
4921.45202,-0.02009
4923.38049,-0.02017
4925.30896,-0.02588
4927.23742,-0.02882
4929.16589,-0.01259
4931.09436,0.00897
4933.02283,0.01523
4934.95130,0.00962
4936.87977,0.00304
4938.80824,0.00481
4940.73670,0.01120
4942.66517,0.01325
4944.59364,0.00809
4946.52211,-0.00092
4948.45058,-0.01123
4950.37905,-0.02028
4952.30752,-0.01485
4954.23599,0.00285
4956.16445,0.01459
4958.09292,0.01407
4960.02139,0.00195
4961.94986,-0.01062
4963.87833,-0.01350
4965.80680,-0.00794
4967.73527,0.00158
4969.66373,0.01452
4971.59220,0.03242
4973.52067,0.04289
4975.44914,0.03961
4977.37761,0.03888
4979.30608,0.03983
4981.23455,0.02530
4983.16302,0.00561
4985.09148,-0.00146
4987.01995,0.00152
4988.94842,0.00381
4990.87689,-0.00780
4992.80536,-0.02538
4994.73383,-0.01778
4996.66230,0.01269
4998.59076,0.02815
5000.51923,0.02052
5002.44770,0.01716
5004.37617,0.02812
5006.30464,0.03173
5008.23311,0.02306
5010.16158,0.01258
5012.09005,-0.00069
5014.01851,-0.00646
5015.94698,0.00426
5017.87545,0.01439
5019.80392,0.01311
5021.73239,0.01287
5023.66086,0.02177
5025.58933,0.03200
5027.51779,0.02628
5029.44626,0.00802
5031.37473,0.01147
5033.30320,0.03112
5035.23167,0.03274
5037.16014,0.01783
5039.08861,0.00060
5041.01708,-0.00201
5042.94554,0.01686
5044.87401,0.04040
5046.80248,0.05010
5048.73095,0.03710
5050.65942,0.01269
5052.58789,-0.00626
5054.51636,-0.01831
5056.44482,-0.01857
5058.37329,-0.00216
5060.30176,0.01968
5062.23023,0.03794
5064.15870,0.05105
5066.08717,0.04932
5068.01564,0.02527
5069.94410,0.00466
5071.87257,0.01460
5073.80104,0.03466
5075.72951,0.04107
5077.65798,0.02545
5079.58645,-0.00388
5081.51492,-0.01575
5083.44339,-0.01058
5085.37185,-0.00287
5087.30032,0.00669
5089.22879,0.01564
5091.15726,0.02146
5093.08573,0.01284
5095.01420,-0.01327
5096.94267,-0.03611
5098.87113,-0.03102
5100.79960,0.00080
5102.72807,0.01720
5104.65654,-0.00934
5106.58501,-0.04112
5108.51348,-0.03313
5110.44195,-0.00284
5112.37042,0.00975
5114.29888,0.00099
5116.22735,-0.00170
5118.15582,0.01221
5120.08429,0.02250
5122.01276,0.02817
5123.94123,0.03595
5125.86970,0.03199
5127.79816,0.02492
5129.72663,0.02735
5131.65510,0.02433
5133.58357,0.01552
5135.51204,0.01235
5137.44051,0.00498
5139.36898,-0.00718
5141.29745,-0.00611
5143.22591,-0.00621
5145.15438,-0.01542
5147.08285,0.00006
5149.01132,0.02916
5150.93979,0.04031
5152.86826,0.04454
5154.79673,0.03941
5156.72519,0.02258
5158.65366,0.01696
5160.58213,0.00829
5162.51060,-0.01975
5164.43907,-0.02914
5166.36754,-0.00349
5168.29601,0.01831
5170.22448,0.02296
5172.15294,0.02361
5174.08141,0.02115
5176.00988,0.01639
5177.93835,0.00700
5179.86682,0.00445
5181.79529,0.02168
5183.72376,0.03009
5185.65222,0.02127
5187.58069,0.02194
5189.50916,0.02136
5191.43763,0.00916
5193.36610,-0.00046
5195.29457,-0.00514
5197.22304,-0.00025
5199.15151,0.01665
5201.07997,0.03201
5203.00844,0.03622
5204.93691,0.03375
5206.86538,0.04724
5208.79385,0.07788
5210.72232,0.09033
5212.65079,0.07415
5214.57925,0.05268
5216.50772,0.04667
5218.43619,0.05140
5220.36466,0.05767
5222.29313,0.07162
5224.22160,0.08581
5226.15007,0.07959
5228.07854,0.06733
5230.00700,0.07086
5231.93547,0.08137
5233.86394,0.07455
5235.79241,0.04206
5237.72088,0.01456
5239.64935,0.01019
5241.57782,0.01067
5243.50628,0.01120
5245.43475,0.02120
5247.36322,0.04032
5249.29169,0.06015
5251.22016,0.06340
5253.14863,0.05888
5255.07710,0.06610
5257.00556,0.07080
5258.93403,0.06347
5260.86250,0.04408
5262.79097,0.02340
5264.71944,0.02861
5266.64791,0.05090
5268.57638,0.07285
5270.50485,0.07443
5272.43331,0.04551
5274.36178,0.02785
5276.29025,0.04435
5278.21872,0.06283
5280.14719,0.05550
5282.07566,0.03590
5284.00413,0.02334
5285.93259,0.01810
5287.86106,0.01826
5289.78953,0.02811
5291.71800,0.04528
5293.64647,0.06280
5295.57494,0.07510
5297.50341,0.06090
5299.43188,0.02718
5301.36034,0.01309
5303.28881,0.02201
5305.21728,0.04199
5307.14575,0.06238
5309.07422,0.05683
5311.00269,0.03473
5312.93116,0.02392
5314.85962,0.01269
5316.78809,-0.00465
5318.71656,0.00214
5320.64503,0.03976
5322.57350,0.06810
5324.50197,0.05808
5326.43044,0.04388
5328.35891,0.05244
5330.28737,0.05668
5332.21584,0.05547
5334.14431,0.06273
5336.07278,0.06898
5338.00125,0.07063
5339.92972,0.07499
5341.85819,0.08527
5343.78665,0.09673
5345.71512,0.10232
5347.64359,0.10292
5349.57206,0.09437
5351.50053,0.07545
5353.42900,0.04881
5355.35747,0.00997
5357.28594,-0.01619
5359.21440,-0.00683
5361.14287,0.02653
5363.07134,0.06169
5364.99981,0.07520
5366.92828,0.06009
5368.85675,0.04131
5370.78522,0.04373
5372.71368,0.05133
5374.64215,0.04006
5376.57062,0.04705
5378.49909,0.07344
5380.42756,0.06616
5382.35603,0.04706
5384.28450,0.04579
5386.21297,0.05066
5388.14143,0.05903
5390.06990,0.07003
5391.99837,0.07262
5393.92684,0.05652
5395.85531,0.03037
5397.78378,0.01791
5399.71225,0.02055
5401.64071,0.02244
5403.56918,0.01652
5405.49765,0.01123
5407.42612,0.00949
5409.35459,0.01792
5411.28306,0.04483
5413.21153,0.06716
5415.13999,0.05975
5417.06846,0.03441
5418.99693,0.01641
5420.92540,0.02155
5422.85387,0.03535
5424.78234,0.03645
5426.71081,0.03816
5428.63928,0.05420
5430.56774,0.05226
5432.49621,0.01907
5434.42468,-0.00151
5436.35315,0.01368
5438.28162,0.03760
5440.21009,0.06924
5442.13856,0.09813
5444.06702,0.09146
5445.99549,0.05586
5447.92396,0.01625
5449.85243,0.00245
5451.78090,0.01621
5453.70937,0.02690
5455.63784,0.04424
5457.56631,0.08535
5459.49477,0.11339
5461.42324,0.10525
5463.35171,0.08501
5465.28018,0.07920
5467.20865,0.08698
5469.13712,0.08887
5471.06559,0.08255
5472.99405,0.09281
5474.92252,0.11664
5476.85099,0.10938
5478.77946,0.06788
5480.70793,0.02717
5482.63640,0.01779
5484.56487,0.03896
5486.49334,0.05190
5488.42180,0.04889
5490.35027,0.04409
5492.27874,0.04176
5494.20721,0.05812
5496.13568,0.07484
5498.06415,0.07075
5499.99262,0.07430
5501.92108,0.09267
5503.84955,0.09871
5505.77802,0.08840
5507.70649,0.05784
5509.63496,0.02329
5511.56343,0.02444
5513.49190,0.05891
5515.42037,0.08901
5517.34883,0.08746
5519.27730,0.06667
5521.20577,0.05471
5523.13424,0.05534
5525.06271,0.06272
5526.99118,0.05919
5528.91965,0.04252
5530.84811,0.04530
5532.77658,0.06603
5534.70505,0.07315
5536.63352,0.05857
5538.56199,0.03718
5540.49046,0.03288
5542.41893,0.05308
5544.34740,0.06793
5546.27586,0.05345
5548.20433,0.02466
5550.13280,-0.00276
5552.06127,-0.01331
5553.98974,0.01200
5555.91821,0.05977
5557.84668,0.08736
5559.77514,0.06933
5561.70361,0.02234
5563.63208,-0.01978
5565.56055,-0.01993
5567.48902,0.01814
5569.41749,0.04967
5571.34596,0.06010
5573.27443,0.06465
5575.20289,0.07530
5577.13136,0.08476
5579.05983,0.08231
5580.98830,0.06045
5582.91677,0.03787
5584.84524,0.04508
5586.77371,0.05891
5588.70217,0.06085
5590.63064,0.07802
5592.55911,0.10836
5594.48758,0.11462
5596.41605,0.09472
5598.34452,0.07820
5600.27299,0.07797
5602.20145,0.08306
5604.12992,0.07853
5606.05839,0.06638
5607.98686,0.05550
5609.91533,0.06588
5611.84380,0.08208
5613.77227,0.04677
5615.70074,0.00818
5617.62920,0.04195
5619.55767,0.09490
5621.48614,0.09510
5623.41461,0.06305
5625.34308,0.05990
5627.27155,0.07579
5629.20002,0.05243
5631.12848,0.01505
5633.05695,-0.00578
5634.98542,-0.00378
5636.91389,0.05193
5638.84236,0.11633
5640.77083,0.11494
5642.69930,0.07238
5644.62777,0.06038
5646.55623,0.09380
5648.48470,0.12309
5650.41317,0.13700
5652.34164,0.13899
5654.27011,0.10709
5656.19858,0.06145
5658.12705,0.04699
5660.05551,0.06467
5661.98398,0.07550
5663.91245,0.05651
5665.84092,0.02661
5667.76939,0.02714
5669.69786,0.05716
5671.62633,0.07749
5673.55480,0.08729
5675.48326,0.08975
5677.41173,0.07439
5679.34020,0.05981
5681.26867,0.05977
5683.19714,0.06130
5685.12561,0.05142
5687.05408,0.03899
5688.98254,0.04489
5690.91101,0.05635
5692.83948,0.04030
5694.76795,0.02755
5696.69642,0.06225
5698.62489,0.09429
5700.55336,0.06099
5702.48183,0.01930
5704.41029,0.05918
5706.33876,0.13949
5708.26723,0.17180
5710.19570,0.15400
5712.12417,0.12256
5714.05264,0.10818
5715.98111,0.12212
5717.90957,0.15028
5719.83804,0.17435
5721.76651,0.17260
5723.69498,0.12872
5725.62345,0.05663
5727.55192,-0.00407
5729.48039,-0.01553
5731.40886,0.01526
5733.33732,0.04136
5735.26579,0.03553
5737.19426,0.02764
5739.12273,0.05881
5741.05120,0.08849
5742.97967,0.06876
5744.90814,0.04700
5746.83660,0.04940
5748.76507,0.04815
5750.69354,0.04506
5752.62201,0.03929
5754.55048,0.02809
5756.47895,0.03441
5758.40742,0.04150
5760.33588,0.02995
5762.26435,0.02586
5764.19282,0.05493
5766.12129,0.11563
5768.04976,0.15531
5769.97823,0.13892
5771.90670,0.09444
5773.83517,0.04544
5775.76363,0.01592
5777.69210,0.01803
5779.62057,0.03351
5781.54904,0.06500
5783.47751,0.10758
5785.40598,0.12337
5787.33445,0.09506
5789.26291,0.04970
5791.19138,0.04184
5793.11985,0.08000
5795.04832,0.09796
5796.97679,0.07014
5798.90526,0.05040
5800.83373,0.07599
5802.76220,0.10344
5804.69066,0.08441
5806.61913,0.05600
5808.54760,0.05618
5810.47607,0.05951
5812.40454,0.04411
5814.33301,0.04992
5816.26148,0.08699
5818.18994,0.08903
5820.11841,0.06038
5822.04688,0.06599
5823.97535,0.08169
5825.90382,0.06416
5827.83229,0.04785
5829.76076,0.06627
5831.68923,0.10783
5833.61769,0.14230
5835.54616,0.12452
5837.47463,0.07047
5839.40310,0.04378
5841.33157,0.05122
5843.26004,0.08044
5845.18851,0.14444
5847.11697,0.19633
5849.04544,0.18198
5850.97391,0.14530
5852.90238,0.11927
5854.83085,0.09665
5856.75932,0.10009
5858.68779,0.10998
5860.61626,0.08337
5862.54472,0.05249
5864.47319,0.05172
5866.40166,0.05152
5868.33013,0.03920
5870.25860,0.03249
5872.18707,0.01633
5874.11554,-0.01758
5876.04400,-0.02173
5877.97247,0.02880
5879.90094,0.09323
5881.82941,0.12386
5883.75788,0.11930
5885.68635,0.10644
5887.61482,0.09147
5889.54329,0.08860
5891.47175,0.08737
5893.40022,0.04852
5895.32869,-0.00219
5897.25716,-0.00648
5899.18563,0.02486
5901.11410,0.03829
5903.04257,0.03610
5904.97103,0.02218
5906.89950,-0.00496
5908.82797,0.02461
5910.75644,0.10100
5912.68491,0.11845
5914.61338,0.07575
5916.54185,0.03034
5918.47032,0.01560
5920.39878,0.04618
5922.32725,0.08550
5924.25572,0.10514
5926.18419,0.11164
5928.11266,0.10513
5930.04113,0.08647
5931.96960,0.08692
5933.89806,0.12047
5935.82653,0.13541
5937.75500,0.09986
5939.68347,0.05656
5941.61194,0.06060
5943.54041,0.08428
5945.46888,0.08176
5947.39734,0.08781
5949.32581,0.12737
5951.25428,0.16310
5953.18275,0.13578
5955.11122,0.07263
5957.03969,0.05794
5958.96816,0.09682
5960.89663,0.10748
5962.82509,0.05964
5964.75356,0.03543
5966.68203,0.05606
5968.61050,0.08402
5970.53897,0.10357
5972.46744,0.08182
5974.39591,0.06443
5976.32437,0.08688
5978.25284,0.07409
5980.18131,0.03881
5982.10978,0.05421
5984.03825,0.09646
5985.96672,0.10326
5987.89519,0.07008
5989.82366,0.03236
5991.75212,0.01965
5993.68059,0.02854
5995.60906,0.03679
5997.53753,0.05269
5999.46600,0.07612
6001.39447,0.07588
6003.32294,0.06420
6005.25140,0.07677
6007.17987,0.08981
6009.10834,0.04189
6011.03681,-0.02421
6012.96528,0.00037
6014.89375,0.06192
6016.82222,0.04760
6018.75069,0.00408
6020.67915,0.03603
6022.60762,0.10747
6024.53609,0.11786
6026.46456,0.06884
6028.39303,0.04268
6030.32150,0.05881
6032.24997,0.06526
6034.17843,0.05981
6036.10690,0.05379
6038.03537,0.03558
6039.96384,0.01046
6041.89231,-0.00401
6043.82078,0.01436
6045.74925,0.03393
6047.67772,0.02486
6049.60618,0.01998
6051.53465,0.02758
6053.46312,0.02231
6055.39159,-0.00659
6057.32006,-0.02284
6059.24853,0.01877
6061.17700,0.06970
6063.10546,0.08209
6065.03393,0.09729
6066.96240,0.13513
6068.89087,0.15146
6070.81934,0.09664
6072.74781,0.02164
6074.67628,0.04060
6076.60475,0.10204
6078.53321,0.07310
6080.46168,0.01036
6082.39015,0.01196
6084.31862,0.03091
6086.24709,0.01392
6088.17556,0.03397
6090.10403,0.14163
6092.03249,0.20804
6093.96096,0.14376
6095.88943,0.04681
6097.81790,0.00082
6099.74637,0.01365
6101.67484,0.06375
6103.60331,0.10167
6105.53177,0.10976
6107.46024,0.09932
6109.38871,0.06174
6111.31718,0.02623
6113.24565,0.04277
6115.17412,0.07709
6117.10259,0.09600
6119.03106,0.11197
6120.95952,0.10341
6122.88799,0.06167
6124.81646,0.04323
6126.74493,0.06422
6128.67340,0.07858
6130.60187,0.09060
6132.53034,0.11923
6134.45880,0.13459
6136.38727,0.10903
6138.31574,0.06658
6140.24421,0.05621
6142.17268,0.09484
6144.10115,0.13515
6146.02962,0.11325
6147.95809,0.05771
6149.88655,0.01874
6151.81502,0.00570
6153.74349,0.02925
6155.67196,0.07009
6157.60043,0.08235
6159.52890,0.05515
6161.45737,0.02118
6163.38583,0.00761
6165.31430,0.00546
6167.24277,0.02451
6169.17124,0.06620
6171.09971,0.07087
6173.02818,0.04221
6174.95665,0.06047
6176.88512,0.11944
6178.81358,0.13677
6180.74205,0.09048
6182.67052,0.04360
6184.59899,0.02719
6186.52746,0.03418
6188.45593,0.04414
6190.38440,0.04089
6192.31286,0.08146
6194.24133,0.16140
6196.16980,0.19412
6198.09827,0.18018
6200.02674,0.17777
6201.95521,0.18714
6203.88368,0.16967
6205.81215,0.13572
6207.74061,0.14064
6209.66908,0.17042
6211.59755,0.16941
6213.52602,0.14644
6215.45449,0.10914
6217.38296,0.07085
6219.31143,0.07786
6221.23989,0.09641
6223.16836,0.05984
6225.09683,-0.01651
6227.02530,-0.07568
6228.95377,-0.07640
6230.88224,-0.02644
6232.81071,-0.01155
6234.73918,-0.04297
6236.66764,-0.04685
6238.59611,-0.03686
6240.52458,-0.01626
6242.45305,0.06387
6244.38152,0.12372
6246.30999,0.08833
6248.23846,0.05487
6250.16692,0.07165
6252.09539,0.09045
6254.02386,0.10142
6255.95233,0.07535
6257.88080,0.02147
6259.80927,0.05109
6261.73774,0.15939
6263.66621,0.21755
6265.59467,0.17330
6267.52314,0.08861
6269.45161,0.03866
6271.38008,0.03682
6273.30855,0.06041
6275.23702,0.08986
6277.16549,0.13494
6279.09395,0.19089
6281.02242,0.19010
6282.95089,0.10969
6284.87936,0.03841
6286.80783,0.05713
6288.73630,0.12004
6290.66477,0.14338
6292.59323,0.15256
6294.52170,0.15774
6296.45017,0.13235
6298.37864,0.13135
6300.30711,0.11546
6302.23558,-0.00855
6304.16405,-0.11782
6306.09252,-0.06919
6308.02098,0.06423
6309.94945,0.10428
6311.87792,0.01841
6313.80639,-0.04004
6315.73486,-0.00755
6317.66333,0.02845
6319.59180,0.03811
6321.52026,0.09188
6323.44873,0.17694
6325.37720,0.17313
6327.30567,0.10463
6329.23414,0.10730
6331.16261,0.18749
6333.09108,0.25928
6335.01955,0.27410
6336.94801,0.25144
6338.87648,0.21994
6340.80495,0.16505
6342.73342,0.10166
6344.66189,0.05302
6346.59036,0.00031
6348.51883,-0.05328
6350.44729,-0.04773
6352.37576,0.02771
6354.30423,0.08360
6356.23270,0.10113
6358.16117,0.12530
6360.08964,0.15019
6362.01811,0.16009
6363.94658,0.13988
6365.87504,0.05274
6367.80351,-0.04258
6369.73198,-0.04111
6371.66045,0.07276
6373.58892,0.14855
6375.51739,0.10066
6377.44586,0.06213
6379.37432,0.05284
6381.30279,0.07055
6383.23126,0.13456
6385.15973,0.13701
6387.08820,0.11187
6389.01667,0.12498
6390.94514,0.11834
6392.87361,0.08174
6394.80207,0.03109
6396.73054,-0.00810
6398.65901,-0.01882
6400.58748,-0.03954
6402.51595,-0.06964
6404.44442,-0.05503
6406.37289,0.02776
6408.30135,0.12235
6410.22982,0.14480
6412.15829,0.09421
6414.08676,0.01012
6416.01523,-0.06952
6417.94370,-0.10378
6419.87217,-0.08931
6421.80064,0.00583
6423.72910,0.19438
6425.65757,0.31774
6427.58604,0.26853
6429.51451,0.17461
6431.44298,0.14945
6433.37145,0.14585
6435.29992,0.12067
6437.22838,0.12575
6439.15685,0.15324
6441.08532,0.16284
6443.01379,0.16445
6444.94226,0.13551
6446.87073,0.09146
6448.79920,0.07186
6450.72766,0.05956
6452.65613,0.06679
6454.58460,0.08238
6456.51307,0.06358
6458.44154,0.07462
6460.37001,0.13816
6462.29848,0.16503
6464.22695,0.11792
6466.15541,0.08304
6468.08388,0.11957
6470.01235,0.13881
6471.94082,0.11652
6473.86929,0.10031
6475.79776,0.10286
6477.72623,0.13445
6479.65469,0.14658
6481.58316,0.12587
6483.51163,0.09441
6485.44010,0.07874
6487.36857,0.08000
6489.29704,0.05289
6491.22551,0.03699
6493.15398,0.07263
6495.08244,0.06726
6497.01091,0.02001
6498.93938,0.01487
6500.86785,0.04369
6502.79632,0.04708
6504.72479,0.03426
6506.65326,0.06595
6508.58172,0.13199
6510.51019,0.16624
6512.43866,0.18088
6514.36713,0.19352
6516.29560,0.14939
6518.22407,0.05353
6520.15254,-0.00743
6522.08101,0.00397
6524.00947,0.04594
6525.93794,0.04101
6527.86641,0.00070
6529.79488,0.03788
6531.72335,0.13189
6533.65182,0.13217
6535.58029,0.04873
6537.50875,-0.00889
6539.43722,-0.01807
6541.36569,0.02305
6543.29416,0.07415
6545.22263,0.06696
6547.15110,0.04382
6549.07957,0.04339
6551.00804,0.03365
6552.93650,0.00321
6554.86497,-0.02968
6556.79344,-0.02312
6558.72191,0.01191
6560.65038,0.01108
6562.57885,-0.03872
6564.50732,-0.09673
6566.43578,-0.09405
6568.36425,-0.05531
6570.29272,-0.05383
6572.22119,-0.02572
6574.14966,0.06496
6576.07813,0.11486
6578.00660,0.09505
6579.93507,0.05706
6581.86353,0.03560
6583.79200,0.07050
6585.72047,0.12603
6587.64894,0.16684
6589.57741,0.17516
6591.50588,0.09890
6593.43435,-0.00042
6595.36281,-0.02040
6597.29128,-0.00716
6599.21975,0.01802
6601.14822,0.07133
6603.07669,0.12404
6605.00516,0.15232
6606.93363,0.10990
6608.86210,0.01667
6610.79056,-0.08003
6612.71903,-0.17536
6614.64750,-0.18755
6616.57597,-0.10763
6618.50444,-0.03073
6620.43291,-0.03377
6622.36138,-0.09069
6624.28984,-0.06806
6626.21831,0.01352
6628.14678,0.06397
6630.07525,0.10161
6632.00372,0.11216
6633.93219,0.06993
6635.86066,0.00409
6637.78912,-0.04242
6639.71759,-0.05031
6641.64606,-0.02078
6643.57453,0.02701
6645.50300,0.10771
6647.43147,0.22291
6649.35994,0.23940
6651.28841,0.12695
6653.21687,0.05685
6655.14534,0.10693
6657.07381,0.14591
6659.00228,0.11142
6660.93075,0.06961
6662.85922,0.05304
6664.78769,0.08870
6666.71615,0.13351
6668.64462,0.09919
6670.57309,0.05152
6672.50156,0.09314
6674.43003,0.12647
6676.35850,0.12644
6678.28697,0.16228
6680.21544,0.15140
6682.14390,0.06440
6684.07237,0.04115
6686.00084,0.08440
6687.92931,0.04056
6689.85778,-0.08515
6691.78625,-0.14853
6693.71472,-0.09561
6695.64318,-0.00609
6697.57165,0.00514
6699.50012,-0.04360
6701.42859,-0.08670
6703.35706,-0.06618
6705.28553,0.01363
6707.21400,0.04751
6709.14247,0.04677
6711.07093,0.05470
6712.99940,0.03343
6714.92787,-0.00589
6716.85634,-0.00861
6718.78481,0.05406
6720.71328,0.14401
6722.64175,0.20807
6724.57021,0.23910
6726.49868,0.23301
6728.42715,0.21406
6730.35562,0.20853
6732.28409,0.17535
6734.21256,0.08037
6736.14103,0.01448
6738.06950,0.02342
6739.99796,0.01020
6741.92643,-0.02301
6743.85490,-0.05070
6745.78337,-0.10654
6747.71184,-0.08071
6749.64031,0.09176
6751.56878,0.25247
6753.49724,0.29371
6755.42571,0.23543
6757.35418,0.14107
6759.28265,0.08280
6761.21112,0.09103
6763.13959,0.10748
6765.06806,0.06685
6766.99653,0.00390
6768.92499,0.00122
6770.85346,0.02301
6772.78193,0.02506
6774.71040,0.02638
6776.63887,-0.00619
6778.56734,-0.03545
6780.49581,-0.00380
6782.42427,0.04568
6784.35274,0.12015
6786.28121,0.21784
6788.20968,0.24758
6790.13815,0.17442
6792.06662,0.02442
6793.99509,-0.07114
6795.92355,-0.01674
6797.85202,0.12029
6799.78049,0.25610
6801.70896,0.32348
6803.63743,0.26337
6805.56590,0.15609
6807.49437,0.07687
6809.42284,0.01649
6811.35130,-0.00229
6813.27977,0.08251
6815.20824,0.15010
6817.13671,0.05777
6819.06518,-0.03450
6820.99365,-0.02403
6822.92212,0.05163
6824.85058,0.16289
6826.77905,0.29533
6828.70752,0.33318
6830.63599,0.15166
6832.56446,-0.06171
6834.49293,-0.11362
6836.42140,-0.08236
6838.34987,-0.08452
6840.27833,-0.09042
6842.20680,-0.12595
6844.13527,-0.14643
6846.06374,-0.04394
6847.99221,0.04509
6849.92068,-0.01789
6851.84915,-0.01895
6853.77761,0.11180
6855.70608,0.14053
6857.63455,-0.00562
6859.56302,-0.12129
6861.49149,-0.08323
6863.41996,0.08196
6865.34843,0.19965
6867.27690,0.19639
6869.20536,0.17391
6871.13383,0.18703
6873.06230,0.17913
6874.99077,0.10508
6876.91924,-0.04933
6878.84771,-0.23823
6880.77618,-0.26524
6882.70464,-0.13278
6884.63311,-0.03778
6886.56158,-0.00550
6888.49005,0.03328
6890.41852,0.12159
6892.34699,0.19834
6894.27546,0.15352
6896.20393,0.03545
6898.13239,-0.01065
6900.06086,0.04111
6901.98933,0.11858
6903.91780,0.15502
6905.84627,0.10614
6907.77474,0.06610
6909.70321,0.11123
6911.63167,0.13175
6913.56014,0.05850
6915.48861,0.03650
6917.41708,0.11663
6919.34555,0.15955
6921.27402,0.13775
6923.20249,0.15694
6925.13096,0.18013
6927.05942,0.16917
6928.98789,0.22578
6930.91636,0.34842
6932.84483,0.33759
6934.77330,0.17125
6936.70177,0.00773
6938.63024,-0.05775
6940.55870,-0.01517
6942.48717,0.02586
6944.41564,0.04266
6946.34411,0.08382
6948.27258,0.13068
6950.20105,0.09423
6952.12952,-0.06464
6954.05799,-0.12121
6955.98645,0.07404
6957.91492,0.20028
6959.84339,0.12486
6961.77186,0.01914
6963.70033,0.02283
6965.62880,0.09914
6967.55727,0.09196
6969.48573,-0.10083
6971.41420,-0.32010
6973.34267,-0.28741
6975.27114,-0.12277
6977.19961,-0.06548
6979.12808,0.00780
6981.05655,0.08499
6982.98501,0.06417
6984.91348,0.07094
6986.84195,0.12075
6988.77042,0.12504
6990.69889,0.11472
6992.62736,0.07660
6994.55583,0.01937
6996.48430,-0.00344
6998.41276,0.01350
7000.34123,0.06212
7002.26970,0.11153
7004.19817,0.09996
7006.12664,0.01880
7008.05511,-0.01860
7009.98358,0.03097
7011.91204,0.09867
7013.84051,0.17260
7015.76898,0.19660
7017.69745,0.14673
7019.62592,0.11787
7021.55439,0.12428
7023.48286,0.09044
7025.41133,0.04951
7027.33979,0.03801
7029.26826,0.02195
7031.19673,0.04019
7033.12520,0.09904
7035.05367,0.11015
7036.98214,0.05673
7038.91061,0.01971
7040.83907,-0.03172
7042.76754,-0.16609
7044.69601,-0.20823
7046.62448,-0.03463
7048.55295,0.19510
7050.48142,0.31276
7052.40989,0.29216
7054.33836,0.21574
7056.26682,0.18381
7058.19529,0.19435
7060.12376,0.14304
7062.05223,0.02935
7063.98070,0.03976
7065.90917,0.15662
7067.83764,0.11499
7069.76610,-0.09630
7071.69457,-0.16322
7073.62304,-0.03480
7075.55151,-0.00296
7077.47998,-0.07469
7079.40845,-0.09725
7081.33692,-0.07748
7083.26539,-0.04770
7085.19385,0.04778
7087.12232,0.15203
7089.05079,0.14504
7090.97926,0.02372
7092.90773,-0.09669
7094.83620,-0.11647
7096.76467,-0.03803
7098.69313,0.13777
7100.62160,0.29515
7102.55007,0.33821
7104.47854,0.30448
7106.40701,0.19116
7108.33548,0.00982
7110.26395,-0.09954
7112.19242,-0.02378
7114.12088,0.09006
7116.04935,0.05322
7117.97782,-0.02078
7119.90629,0.02932
7121.83476,0.01213
7123.76323,-0.07989
7125.69170,-0.06117
7127.62016,-0.02659
7129.54863,-0.02570
7131.47710,0.03667
7133.40557,0.14590
7135.33404,0.28716
7137.26251,0.36166
7139.19098,0.24051
7141.11944,0.09526
7143.04791,0.18485
7144.97638,0.35126
7146.90485,0.24799
7148.83332,-0.01672
7150.76179,-0.20026
7152.69026,-0.23005
7154.61873,-0.09613
7156.54719,-0.00671
7158.47566,-0.03695
7160.40413,-0.02464
7162.33260,-0.04291
7164.26107,-0.20897
7166.18954,-0.29795
7168.11801,-0.14435
7170.04647,0.03471
7171.97494,0.16440
7173.90341,0.28885
7175.83188,0.20222
7177.76035,-0.01411
7179.68882,-0.09626
7181.61729,-0.10732
7183.54576,-0.09706
7185.47422,-0.05010
7187.40269,-0.02836
7189.33116,-0.09280
7191.25963,-0.17883
7193.18810,-0.13872
7195.11657,0.02744
7197.04504,0.11906
7198.97350,0.06781
7200.90197,0.04059
7202.83044,0.06836
7204.75891,0.11630
7206.68738,0.20407
7208.61585,0.25102
7210.54432,0.19511
7212.47279,0.03964
7214.40125,-0.05293
7216.32972,0.06651
7218.25819,0.26831
7220.18666,0.37560
7222.11513,0.34452
7224.04360,0.23413
7225.97207,0.22202
7227.90053,0.20459
7229.82900,-0.05316
7231.75747,-0.31891
7233.68594,-0.24576
7235.61441,-0.06103
7237.54288,0.04702
7239.47135,0.06290
7241.39982,-0.05648
7243.32828,-0.17341
7245.25675,-0.14559
7247.18522,-0.13342
7249.11369,-0.05698
7251.04216,0.18709
7252.97063,0.31609
7254.89910,0.17235
7256.82756,0.07937
7258.75603,0.01408
7260.68450,-0.07873
7262.61297,-0.03737
7264.54144,0.02850
7266.46991,-0.04476
7268.39838,-0.16620
7270.32685,-0.18773
7272.25531,-0.02706
7274.18378,0.14681
7276.11225,0.26222
7278.04072,0.33240
7279.96919,0.30399
7281.89766,0.27035
7283.82613,0.22433
7285.75459,0.04198
7287.68306,-0.13818
7289.61153,-0.11806
7291.54000,0.01991
7293.46847,0.04367
7295.39694,0.03435
7297.32541,0.09655
7299.25387,0.09479
7301.18234,0.02177
7303.11081,0.01407
7305.03928,0.13381
7306.96775,0.28460
7308.89622,0.33836
7310.82469,0.35824
7312.75316,0.32971
7314.68162,0.21213
7316.61009,0.14552
7318.53856,0.07541
7320.46703,-0.17388
7322.39550,-0.28542
7324.32397,0.05353
7326.25244,0.44126
7328.18090,0.41024
7330.10937,-0.00930
7332.03784,-0.18732
7333.96631,-0.02685
7335.89478,0.15528
7337.82325,0.24412
7339.75172,0.09117
7341.68019,-0.16352
7343.60865,-0.07896
7345.53712,0.11176
7347.46559,0.05204
7349.39406,-0.07675
7351.32253,-0.03861
7353.25100,0.03764
7355.17947,0.17448
7357.10793,0.42819
7359.03640,0.58125
7360.96487,0.54187
7362.89334,0.48024
7364.82181,0.36419
7366.75028,0.17908
7368.67875,0.07942
7370.60722,0.08521
7372.53568,0.12903
7374.46415,0.12322
7376.39262,-0.01202
7378.32109,0.01691
7380.24956,0.21093
7382.17803,0.18794
7384.10650,-0.12080
7386.03496,-0.23699
7387.96343,0.03429
7389.89190,0.28949
7391.82037,0.37558
7393.74884,0.44084
7395.67731,0.45417
7397.60578,0.30514
7399.53425,0.14968
7401.46271,0.14675
7403.39118,0.20696
7405.31965,0.19338
7407.24812,0.15466
7409.17659,0.11360
7411.10506,0.04222
7413.03353,-0.04520
7414.96199,-0.08360
7416.89046,0.05089
7418.81893,0.18967
7420.74740,0.04628
7422.67587,-0.09022
7424.60434,-0.10631
7426.53281,0.00382
7428.46128,0.22596
7430.38974,0.26039
7432.31821,0.00740
7434.24668,-0.14409
7436.17515,-0.04226
7438.10362,0.13707
7440.03209,0.16504
7441.96056,-0.03241
7443.88902,-0.23494
7445.81749,-0.17873
7447.74596,-0.03312
7449.67443,-0.04927
7451.60290,-0.06144
7453.53137,0.08593
7455.45984,0.15975
7457.38831,0.19979
7459.31677,0.41163
7461.24524,0.53636
7463.17371,0.30427
7465.10218,0.03078
7467.03065,-0.03604
7468.95912,0.12157
7470.88759,0.37741
7472.81605,0.41627
7474.74452,0.31079
7476.67299,0.32911
7478.60146,0.38971
7480.52993,0.33277
7482.45840,0.31308
7484.38687,0.36184
7486.31533,0.29553
7488.24380,0.14945
7490.17227,0.05767
7492.10074,-0.02663
7494.02921,-0.10377
7495.95768,-0.05571
7497.88615,0.09932
