399.19301,3.57860
401.12148,0.02039
403.04995,-0.04286
404.97842,0.16722
406.90689,0.13646
408.83536,-0.04256
410.76382,-0.11166
412.69229,-0.09615
414.62076,-0.07079
416.54923,-0.04915
418.47770,-0.13130
420.40617,-0.14914
422.33464,-0.01307
424.26311,0.12136
426.19157,0.22076
428.12004,0.25719
430.04851,0.24823
431.97698,0.19619
433.90545,0.05414
435.83392,-0.03338
437.76239,0.01836
439.69085,0.11031
441.61932,0.16779
443.54779,0.15208
445.47626,0.02919
447.40473,-0.08584
449.33320,-0.09283
451.26167,-0.04716
453.19013,0.01439
455.11860,0.04821
457.04707,0.05593
458.97554,0.07147
460.90401,0.06304
462.83248,0.02019
464.76095,-0.00149
466.68942,0.02927
468.61788,0.05810
470.54635,0.04461
472.47482,-0.01334
474.40329,-0.06616
476.33176,-0.05556
478.26023,0.00475
480.18870,0.04677
482.11716,0.02716
484.04563,-0.03395
485.97410,-0.08958
487.90257,-0.08636
489.83104,-0.01092
491.75951,0.06987
493.68798,0.05185
495.61645,-0.02378
497.54491,-0.06531
499.47338,-0.07085
501.40185,-0.06102
503.33032,-0.02618
505.25879,0.00085
507.18726,-0.02216
509.11573,-0.04264
511.04419,-0.04552
512.97266,-0.03830
514.90113,-0.02133
516.82960,-0.00480
518.75807,-0.00933
520.68654,-0.01868
522.61501,-0.00628
524.54348,0.01830
526.47194,0.05945
528.40041,0.06464
530.32888,0.03756
532.25735,-0.02132
534.18582,-0.08380
536.11429,-0.09723
538.04276,-0.07969
539.97122,-0.04835
541.89969,-0.02263
543.82816,0.00061
545.75663,0.01659
547.68510,-0.00148
549.61357,0.47218
551.54204,3.10331
553.47051,6.23552
555.39897,5.29601
557.32744,1.72156
559.25591,0.05952
561.18438,-0.05599
563.11285,-0.08608
565.04132,-0.09430
566.96979,-0.05427
568.89825,-0.00593
570.82672,-0.00632
572.75519,-0.04526
574.68366,-0.07916
576.61213,-0.03631
578.54060,0.00454
580.46907,-0.02091
582.39754,-0.04776
584.32600,-0.03679
586.25447,-0.01550
588.18294,0.01634
590.11141,0.05561
592.03988,0.08231
593.96835,0.09179
595.89682,0.05108
597.82528,0.00371
599.75375,-0.01479
601.68222,-0.01562
603.61069,-0.00108
605.53916,0.01393
607.46763,0.00478
609.39610,-0.02555
611.32456,-0.03239
613.25303,-0.01240
615.18150,0.01059
617.10997,0.02546
619.03844,0.03570
620.96691,0.03070
622.89538,0.02228
624.82385,0.01981
626.75231,0.00951
628.68078,0.00527
630.60925,0.02919
632.53772,0.06929
634.46619,0.08546
636.39466,0.07858
638.32313,0.07761
640.25159,0.08853
642.18006,0.09795
644.10853,0.10932
646.03700,0.13459
647.96547,0.15014
649.89394,0.12592
651.82241,0.08912
653.75088,0.07376
655.67934,0.07171
657.60781,0.06920
659.53628,0.06422
661.46475,0.05375
663.39322,0.04365
665.32169,0.04333
667.25016,0.05020
669.17862,0.07909
671.10709,0.11996
673.03556,0.13644
674.96403,0.11889
676.89250,0.09795
678.82097,0.10706
680.74944,0.11679
682.67791,0.10686
684.60637,0.10607
686.53484,0.11412
688.46331,0.10346
690.39178,0.08936
692.32025,0.09028
694.24872,0.10307
696.17719,0.11945
698.10565,0.11944
700.03412,0.10909
701.96259,0.10973
703.89106,0.10837
705.81953,0.09695
707.74800,0.09870
709.67647,0.10847
711.60494,0.11133
713.53340,0.12070
715.46187,0.12829
717.39034,0.11469
719.31881,0.09711
721.24728,0.09467
723.17575,0.09847
725.10422,0.10258
727.03268,0.10565
728.96115,0.10133
730.88962,0.09269
732.81809,0.08748
734.74656,0.08117
736.67503,0.07471
738.60350,0.07899
740.53197,0.08719
742.46043,0.08938
744.38890,0.08813
746.31737,0.08831
748.24584,0.09006
750.17431,0.09512
752.10278,0.10446
754.03125,0.10760
755.95971,0.10220
757.88818,0.09896
759.81665,0.10326
761.74512,0.10924
763.67359,0.10915
765.60206,0.10530
767.53053,0.10432
769.45900,0.10421
771.38746,0.09858
773.31593,0.08752
775.24440,0.07872
777.17287,0.08258
779.10134,0.09606
781.02981,0.10177
782.95828,0.09902
784.88674,0.10160
786.81521,0.10080
788.74368,0.08900
790.67215,0.08441
792.60062,0.09188
794.52909,0.09704
796.45756,0.09936
798.38602,0.10562
800.31449,0.10789
802.24296,0.10639
804.17143,0.10450
806.09990,0.09211
808.02837,0.07294
809.95684,0.06383
811.88531,0.06793
813.81377,0.07787
815.74224,0.08475
817.67071,0.07888
819.59918,0.06934
821.52765,0.07384
823.45612,0.08762
825.38459,0.09508
827.31305,0.09533
829.24152,0.10084
831.16999,0.10944
833.09846,0.10578
835.02693,0.09407
836.95540,0.09479
838.88387,0.10660
840.81234,0.10877
842.74080,0.09809
844.66927,0.09330
846.59774,0.09981
848.52621,0.10697
850.45468,0.11481
852.38315,0.12274
854.31162,0.12405
856.24008,0.12012
858.16855,0.11436
860.09702,0.10697
862.02549,0.09718
863.95396,0.08889
865.88243,0.09205
867.81090,0.10453
869.73937,0.11459
871.66783,0.11431
873.59630,0.10412
875.52477,0.09962
877.45324,0.11074
879.38171,0.12557
881.31018,0.13143
883.23865,0.12722
885.16711,0.11697
887.09558,0.10661
889.02405,0.09787
890.95252,0.09417
892.88099,0.10019
894.80946,0.11026
896.73793,0.12048
898.66640,0.12369
900.59486,0.11586
902.52333,0.11361
904.45180,0.12435
906.38027,0.13311
908.30874,0.12803
910.23721,0.11281
912.16568,0.10191
914.09414,0.10645
916.02261,0.12059
917.95108,0.12785
919.87955,0.12311
921.80802,0.12032
923.73649,0.12145
925.66496,0.11851
927.59343,0.12052
929.52189,0.12518
931.45036,0.12356
933.37883,0.12126
935.30730,0.11968
937.23577,0.11892
939.16424,0.12095
941.09271,0.12164
943.02117,0.11976
944.94964,0.11920
946.87811,0.11822
948.80658,0.11504
950.73505,0.11114
952.66352,0.10760
954.59199,0.10854
956.52045,0.11209
958.44892,0.10941
960.37739,0.10302
962.30586,0.10309
964.23433,0.10864
966.16280,0.11042
968.09127,0.10844
970.01974,0.11228
971.94820,0.11930
973.87667,0.12190
975.80514,0.12326
977.73361,0.12322
979.66208,0.12095
981.59055,0.11984
983.51902,0.11867
985.44748,0.11696
987.37595,0.11858
989.30442,0.11993
991.23289,0.11533
993.16136,0.11303
995.08983,0.11724
997.01830,0.12047
998.94677,0.12117
1000.87523,0.12076
1002.80370,0.12210
1004.73217,0.12861
1006.66064,0.13249
1008.58911,0.12954
1010.51758,0.12737
1012.44605,0.12471
1014.37451,0.12049
1016.30298,0.12385
1018.23145,0.13248
1020.15992,0.13391
1022.08839,0.12599
1024.01686,0.11085
1025.94533,0.08658
1027.87380,0.06436
1029.80226,0.06345
1031.73073,0.08466
1033.65920,0.10671
1035.58767,0.11238
1037.51614,0.11187
1039.44461,0.11353
1041.37308,0.11207
1043.30154,0.11185
1045.23001,0.11630
1047.15848,0.12038
1049.08695,0.11924
1051.01542,0.11855
1052.94389,0.12797
1054.87236,0.13907
1056.80083,0.13575
1058.72929,0.12452
1060.65776,0.12005
1062.58623,0.12268
1064.51470,0.13203
1066.44317,0.14096
1068.37164,0.14105
1070.30011,0.14332
1072.22857,0.15343
1074.15704,0.15694
1076.08551,0.14780
1078.01398,0.13691
1079.94245,0.13648
1081.87092,0.14504
1083.79939,0.14688
1085.72786,0.13699
1087.65632,0.12755
1089.58479,0.12457
1091.51326,0.12106
1093.44173,0.12067
1095.37020,0.13085
1097.29867,0.13845
1099.22714,0.13482
1101.15560,0.13038
1103.08407,0.13367
1105.01254,0.14010
1106.94101,0.14300
1108.86948,0.14172
1110.79795,0.13938
1112.72642,0.14360
1114.65489,0.15221
1116.58335,0.15367
1118.51182,0.14719
1120.44029,0.13836
1122.36876,0.12863
1124.29723,0.11975
1126.22570,0.11834
1128.15417,0.12713
1130.08263,0.13641
1132.01110,0.13972
1133.93957,0.13480
1135.86804,0.12329
1137.79651,0.11908
1139.72498,0.12398
1141.65345,0.12883
1143.58191,0.13443
1145.51038,0.14215
1147.43885,0.14642
1149.36732,0.14290
1151.29579,0.13449
1153.22426,0.13055
1155.15273,0.13621
1157.08120,0.14220
1159.00966,0.14267
1160.93813,0.14359
1162.86660,0.14560
1164.79507,0.14350
1166.72354,0.13721
1168.65201,0.12990
1170.58048,0.12619
1172.50894,0.13053
1174.43741,0.13583
1176.36588,0.13388
1178.29435,0.12971
1180.22282,0.12938
1182.15129,0.12892
1184.07976,0.12472
1186.00823,0.12167
1187.93669,0.12604
1189.86516,0.13816
1191.79363,0.14492
1193.72210,0.13884
1195.65057,0.13353
1197.57904,0.13713
1199.50751,0.14060
1201.43597,0.13897
1203.36444,0.13931
1205.29291,0.14490
1207.22138,0.14992
1209.14985,0.14965
1211.07832,0.14753
1213.00679,0.14793
1214.93526,0.14809
1216.86372,0.14445
1218.79219,0.14015
1220.72066,0.14073
1222.64913,0.14499
1224.57760,0.14758
1226.50607,0.14695
1228.43454,0.14478
1230.36300,0.14361
1232.29147,0.14461
1234.21994,0.14598
1236.14841,0.14732
1238.07688,0.14884
1240.00535,0.14648
1241.93382,0.14086
1243.86229,0.13827
1245.79075,0.13711
1247.71922,0.13453
1249.64769,0.13583
1251.57616,0.13976
1253.50463,0.14035
1255.43310,0.13936
1257.36157,0.13688
1259.29003,0.13323
1261.21850,0.13376
1263.14697,0.13752
1265.07544,0.13983
1267.00391,0.13968
1268.93238,0.13672
1270.86085,0.13399
1272.78932,0.13524
1274.71778,0.13810
1276.64625,0.14226
1278.57472,0.14798
1280.50319,0.14982
1282.43166,0.14962
1284.36013,0.15067
1286.28860,0.14420
1288.21706,0.13435
1290.14553,0.13587
1292.07400,0.14075
1294.00247,0.13941
1295.93094,0.13772
1297.85941,0.13692
1299.78788,0.12919
1301.71634,0.11004
1303.64481,0.09131
1305.57328,0.09348
1307.50175,0.11894
1309.43022,0.14467
1311.35869,0.15732
1313.28716,0.16257
1315.21563,0.16145
1317.14409,0.15704
1319.07256,0.15324
1321.00103,0.14989
1322.92950,0.14946
1324.85797,0.14802
1326.78644,0.14440
1328.71491,0.14298
1330.64337,0.13762
1332.57184,0.13188
1334.50031,0.13537
1336.42878,0.14154
1338.35725,0.14765
1340.28572,0.14812
1342.21419,0.14756
1344.14266,0.15795
1346.07112,0.16081
1347.99959,0.15038
1349.92806,0.14312
1351.85653,0.14013
1353.78500,0.13822
1355.71347,0.13771
1357.64194,0.13613
1359.57040,0.13538
1361.49887,0.14259
1363.42734,0.15355
1365.35581,0.15827
1367.28428,0.15957
1369.21275,0.16026
1371.14122,0.16099
1373.06969,0.16278
1374.99815,0.16342
1376.92662,0.16185
1378.85509,0.16164
1380.78356,0.16159
1382.71203,0.16101
1384.64050,0.16388
1386.56897,0.16786
1388.49743,0.16537
1390.42590,0.16006
1392.35437,0.16143
1394.28284,0.17019
1396.21131,0.17814
1398.13978,0.18086
1400.06825,0.17774
1401.99672,0.17138
1403.92518,0.16742
1405.85365,0.16537
1407.78212,0.16446
1409.71059,0.16536
1411.63906,0.16445
1413.56753,0.16344
1415.49600,0.17196
1417.42446,0.19119
1419.35293,0.19759
1421.28140,0.18194
1423.20987,0.16913
1425.13834,0.16622
1427.06681,0.17168
1428.99528,0.17845
1430.92375,0.17608
1432.85221,0.17013
1434.78068,0.17138
1436.70915,0.17380
1438.63762,0.16781
1440.56609,0.16109
1442.49456,0.15829
1444.42303,0.16152
1446.35149,0.17305
1448.27996,0.18543
1450.20843,0.18800
1452.13690,0.18579
1454.06537,0.18863
1455.99384,0.20470
1457.92231,0.21463
1459.85077,0.19507
1461.77924,0.18072
1463.70771,0.18101
1465.63618,0.18625
1467.56465,0.18534
1469.49312,0.18541
1471.42159,0.19479
1473.35006,0.20487
1475.27852,0.20155
1477.20699,0.19418
1479.13546,0.19007
1481.06393,0.18859
1482.99240,0.18682
1484.92087,0.18849
1486.84934,0.19838
1488.77780,0.20958
1490.70627,0.20396
1492.63474,0.19074
1494.56321,0.18932
1496.49168,0.19976
1498.42015,0.20573
1500.34862,0.19782
1502.27709,0.18849
1504.20555,0.19631
1506.13402,0.23418
1508.06249,0.24262
1509.99096,0.21117
1511.91943,0.19742
1513.84790,0.20069
1515.77637,0.20995
1517.70483,0.21332
1519.63330,0.22143
1521.56177,0.24210
1523.49024,0.24256
1525.41871,0.22692
1527.34718,0.20964
1529.27565,0.19332
1531.20412,0.18998
1533.13258,0.20018
1535.06105,0.20547
1536.98952,0.21292
1538.91799,0.24476
1540.84646,0.27752
1542.77493,0.25800
1544.70340,0.22427
1546.63186,0.19911
1548.56033,0.19087
1550.48880,0.19627
1552.41727,0.20872
1554.34574,0.22565
1556.27421,0.24751
1558.20268,0.27148
1560.13115,0.24201
1562.05961,0.20489
1563.98808,0.19132
1565.91655,0.18709
1567.84502,0.19116
1569.77349,0.19722
1571.70196,0.19374
1573.63043,0.19545
1575.55889,0.20622
1577.48736,0.20223
1579.41583,0.18748
1581.34430,0.17941
1583.27277,0.17685
1585.20124,0.17641
1587.12971,0.17638
1589.05818,0.17635
1590.98664,0.17697
1592.91511,0.17854
1594.84358,0.17953
1596.77205,0.17864
1598.70052,0.18022
1600.62899,0.18707
1602.55746,0.19167
1604.48592,0.18839
1606.41439,0.18429
1608.34286,0.18425
1610.27133,0.18369
1612.19980,0.18153
1614.12827,0.18265
1616.05674,0.18868
1617.98521,0.19068
1619.91367,0.18949
1621.84214,0.19544
1623.77061,0.20061
1625.69908,0.19665
1627.62755,0.19394
1629.55602,0.19106
1631.48449,0.18717
1633.41295,0.19261
1635.34142,0.21041
1637.26989,0.21252
1639.19836,0.19953
1641.12683,0.19375
1643.05530,0.19934
1644.98377,0.21773
1646.91223,0.23629
1648.84070,0.23318
1650.76917,0.23612
1652.69764,0.25294
1654.62611,0.23260
1656.55458,0.20224
1658.48305,0.19059
1660.41152,0.19651
1662.33998,0.20809
1664.26845,0.20316
1666.19692,0.19902
1668.12539,0.21159
1670.05386,0.22118
1671.98233,0.21471
1673.91080,0.21115
1675.83926,0.20909
1677.76773,0.20424
1679.69620,0.20590
1681.62467,0.22008
1683.55314,0.23897
1685.48161,0.23081
1687.41008,0.21412
1689.33855,0.20681
1691.26701,0.20260
1693.19548,0.20698
1695.12395,0.22565
1697.05242,0.24532
1698.98089,0.24709
1700.90936,0.22725
1702.83783,0.21046
1704.76629,0.20801
1706.69476,0.20518
1708.62323,0.19771
1710.55170,0.19274
1712.48017,0.19555
1714.40864,0.21151
1716.33711,0.23083
1718.26558,0.22292
1720.19404,0.20377
1722.12251,0.19517
1724.05098,0.19053
1725.97945,0.18677
1727.90792,0.18812
1729.83639,0.19410
1731.76486,0.20316
1733.69332,0.20924
1735.62179,0.20302
1737.55026,0.20172
1739.47873,0.20768
1741.40720,0.20977
1743.33567,0.20771
1745.26414,0.20881
1747.19261,0.21411
1749.12107,0.21608
1751.04954,0.20733
1752.97801,0.19471
1754.90648,0.18826
1756.83495,0.18845
1758.76342,0.19142
1760.69189,0.19487
1762.62035,0.19340
1764.54882,0.18861
1766.47729,0.18862
1768.40576,0.19654
1770.33423,0.21294
1772.26270,0.22392
1774.19117,0.21370
1776.11964,0.19850
1778.04810,0.19122
1779.97657,0.18949
1781.90504,0.18354
1783.83351,0.17790
1785.76198,0.18225
1787.69045,0.18990
1789.61892,0.19509
1791.54738,0.19947
1793.47585,0.20056
1795.40432,0.19907
1797.33279,0.19924
1799.26126,0.19970
1801.18973,0.19670
1803.11820,0.19147
1805.04666,0.18793
1806.97513,0.18720
1808.90360,0.18842
1810.83207,0.18863
1812.76054,0.18682
1814.68901,0.18602
1816.61748,0.18383
1818.54595,0.17519
1820.47441,0.16821
1822.40288,0.17591
1824.33135,0.19238
1826.25982,0.20075
1828.18829,0.20301
1830.11676,0.20261
1832.04523,0.19531
1833.97369,0.18887
1835.90216,0.18672
1837.83063,0.18579
1839.75910,0.18627
1841.68757,0.19095
1843.61604,0.19783
1845.54451,0.19892
1847.47298,0.19586
1849.40144,0.19198
1851.32991,0.18615
1853.25838,0.18125
1855.18685,0.17909
1857.11532,0.17852
1859.04379,0.17843
1860.97226,0.17936
1862.90072,0.18368
1864.82919,0.19114
1866.75766,0.19857
1868.68613,0.20016
1870.61460,0.19359
1872.54307,0.18658
1874.47154,0.18285
1876.40001,0.18084
1878.32847,0.17958
1880.25694,0.18030
1882.18541,0.18389
1884.11388,0.18783
1886.04235,0.18931
1887.97082,0.19044
1889.89929,0.19113
1891.82775,0.18929
1893.75622,0.18751
1895.68469,0.18468
1897.61316,0.18076
1899.54163,0.18096
1901.47010,0.18535
1903.39857,0.18921
1905.32704,0.18956
1907.25550,0.18812
1909.18397,0.18729
1911.11244,0.18657
1913.04091,0.18544
1914.96938,0.18471
1916.89785,0.18502
1918.82632,0.18561
1920.75478,0.18763
1922.68325,0.19208
1924.61172,0.19296
1926.54019,0.18812
1928.46866,0.18345
1930.39713,0.18166
1932.32560,0.18177
1934.25407,0.18325
1936.18253,0.18560
1938.11100,0.18750
1940.03947,0.18849
1941.96794,0.18872
1943.89641,0.18782
1945.82488,0.18711
1947.75335,0.18685
1949.68181,0.18505
1951.61028,0.18296
1953.53875,0.18423
1955.46722,0.18754
1957.39569,0.18893
1959.32416,0.18805
1961.25263,0.18622
1963.18110,0.18515
1965.10956,0.18679
1967.03803,0.18992
1968.96650,0.19130
1970.89497,0.19129
1972.82344,0.19077
1974.75191,0.19068
1976.68038,0.19412
1978.60884,0.19799
1980.53731,0.19638
1982.46578,0.19168
1984.39425,0.18870
1986.32272,0.18734
1988.25119,0.18637
1990.17966,0.18817
1992.10812,0.19209
1994.03659,0.19235
1995.96506,0.18952
1997.89353,0.18776
1999.82200,0.18794
2001.75047,0.18956
2003.67894,0.19072
2005.60741,0.18942
2007.53587,0.18711
2009.46434,0.18623
2011.39281,0.18599
2013.32128,0.18643
2015.24975,0.18927
2017.17822,0.19138
2019.10669,0.18871
2021.03515,0.18587
2022.96362,0.18796
2024.89209,0.19159
2026.82056,0.19148
2028.74903,0.18828
2030.67750,0.18763
2032.60597,0.18971
2034.53444,0.18913
2036.46290,0.18651
2038.39137,0.18435
2040.31984,0.18302
2042.24831,0.18363
2044.17678,0.18608
2046.10525,0.18853
2048.03372,0.18927
2049.96218,0.18966
2051.89065,0.19116
2053.81912,0.19179
2055.74759,0.19075
2057.67606,0.18947
2059.60453,0.18802
2061.53300,0.18630
2063.46147,0.18572
2065.38993,0.18522
2067.31840,0.18309
2069.24687,0.18217
2071.17534,0.18401
2073.10381,0.18699
2075.03228,0.18981
2076.96075,0.18971
2078.88921,0.18712
2080.81768,0.18734
2082.74615,0.19081
2084.67462,0.19297
2086.60309,0.19359
2088.53156,0.19452
2090.46003,0.19402
2092.38850,0.19090
2094.31696,0.18699
2096.24543,0.18410
2098.17390,0.18299
2100.10237,0.18520
2102.03084,0.18948
2103.95931,0.19182
2105.88778,0.19209
2107.81624,0.19183
2109.74471,0.19064
2111.67318,0.18910
2113.60165,0.18945
2115.53012,0.19105
2117.45859,0.19214
2119.38706,0.19281
2121.31553,0.19195
2123.24399,0.18917
2125.17246,0.18623
2127.10093,0.18503
2129.02940,0.18628
2130.95787,0.18745
2132.88634,0.18549
2134.81481,0.18328
2136.74327,0.18401
2138.67174,0.18452
2140.60021,0.18562
2142.52868,0.18855
2144.45715,0.18992
2146.38562,0.19135
2148.31409,0.19390
2150.24255,0.19445
2152.17102,0.19200
2154.09949,0.18959
2156.02796,0.18972
2157.95643,0.19146
2159.88490,0.19402
2161.81337,0.19543
2163.74184,0.19365
2165.67030,0.18944
2167.59877,0.18506
2169.52724,0.18401
2171.45571,0.18670
2173.38418,0.18959
2175.31265,0.19131
2177.24112,0.19233
2179.16958,0.19213
2181.09805,0.19052
2183.02652,0.18880
2184.95499,0.18894
2186.88346,0.19003
2188.81193,0.18921
2190.74040,0.18774
2192.66887,0.18887
2194.59733,0.19194
2196.52580,0.19381
2198.45427,0.19275
2200.38274,0.19017
2202.31121,0.18953
2204.23968,0.19083
2206.16815,0.19238
2208.09661,0.19433
2210.02508,0.19468
2211.95355,0.19210
2213.88202,0.18863
2215.81049,0.18657
2217.73896,0.18604
2219.66743,0.18566
2221.59590,0.18651
2223.52436,0.18972
2225.45283,0.19203
2227.38130,0.19171
2229.30977,0.19095
2231.23824,0.19056
2233.16671,0.19046
2235.09518,0.19064
2237.02364,0.19106
2238.95211,0.19137
2240.88058,0.19169
2242.80905,0.19385
2244.73752,0.19630
2246.66599,0.19651
2248.59446,0.19496
2250.52293,0.19184
2252.45139,0.18934
2254.37986,0.19015
2256.30833,0.19153
2258.23680,0.19000
2260.16527,0.18835
2262.09374,0.18983
2264.02221,0.19211
2265.95067,0.19395
2267.87914,0.19559
2269.80761,0.19433
2271.73608,0.19132
2273.66455,0.18963
2275.59302,0.18907
2277.52149,0.19014
2279.44996,0.19160
2281.37842,0.19238
2283.30689,0.19528
2285.23536,0.19903
2287.16383,0.19949
2289.09230,0.19856
2291.02077,0.19959
2292.94924,0.20049
2294.87770,0.20060
2296.80617,0.20116
2298.73464,0.20066
2300.66311,0.19964
2302.59158,0.19740
2304.52005,0.19359
2306.44852,0.19338
2308.37699,0.19846
2310.30545,0.20416
2312.23392,0.20579
2314.16239,0.20531
2316.09086,0.20801
2318.01933,0.21275
2319.94780,0.21745
2321.87627,0.22331
2323.80473,0.22665
2325.73320,0.22365
2327.66167,0.22147
2329.59014,0.22474
2331.51861,0.22685
2333.44708,0.23163
2335.37555,0.24663
2337.30401,0.25849
2339.23248,0.25516
2341.16095,0.24707
2343.08942,0.24233
2345.01789,0.23478
2346.94636,0.22654
2348.87483,0.22227
2350.80330,0.22068
2352.73176,0.22559
2354.66023,0.23894
2356.58870,0.24614
2358.51717,0.24435
2360.44564,0.24293
2362.37411,0.23919
2364.30258,0.23558
2366.23104,0.24265
2368.15951,0.25503
2370.08798,0.25293
2372.01645,0.23396
2373.94492,0.21665
2375.87339,0.21100
2377.80186,0.20899
2379.73033,0.20613
2381.65879,0.20438
2383.58726,0.20187
2385.51573,0.19709
2387.44420,0.19215
2389.37267,0.18998
2391.30114,0.19094
2393.22961,0.19251
2395.15807,0.19356
2397.08654,0.19446
2399.01501,0.19480
2400.94348,0.19517
2402.87195,0.19663
2404.80042,0.19663
2406.72889,0.19276
2408.65736,0.18980
2410.58582,0.19153
2412.51429,0.19335
2414.44276,0.19260
2416.37123,0.19254
2418.29970,0.19307
2420.22817,0.19231
2422.15664,0.19166
2424.08510,0.19133
2426.01357,0.19139
2427.94204,0.19181
2429.87051,0.19112
2431.79898,0.19117
2433.72745,0.19396
2435.65592,0.19512
2437.58439,0.19122
2439.51285,0.18894
2441.44132,0.19273
2443.36979,0.19526
2445.29826,0.19358
2447.22673,0.19315
2449.15520,0.19351
2451.08367,0.19330
2453.01213,0.19473
2454.94060,0.19389
2456.86907,0.19052
2458.79754,0.19013
2460.72601,0.19037
2462.65448,0.18928
2464.58295,0.19045
2466.51142,0.19406
2468.43988,0.19717
2470.36835,0.19767
2472.29682,0.19705
2474.22529,0.19723
2476.15376,0.19561
2478.08223,0.19275
2480.01070,0.19406
2481.93916,0.19777
2483.86763,0.19883
2485.79610,0.19856
2487.72457,0.19856
2489.65304,0.19841
2491.58151,0.19763
2493.50998,0.19543
2495.43844,0.19407
2497.36691,0.19486
2499.29538,0.19523
2501.22385,0.19430
2503.15232,0.19359
2505.08079,0.19405
2507.00926,0.19434
2508.93773,0.19273
2510.86619,0.19224
2512.79466,0.19584
2514.72313,0.19949
2516.65160,0.19946
2518.58007,0.19744
2520.50854,0.19552
2522.43701,0.19412
2524.36547,0.19357
2526.29394,0.19432
2528.22241,0.19628
2530.15088,0.19761
2532.07935,0.19639
2534.00782,0.19434
2535.93629,0.19431
2537.86476,0.19735
2539.79322,0.20071
2541.72169,0.20078
2543.65016,0.19985
2545.57863,0.19956
2547.50710,0.19805
2549.43557,0.19551
2551.36404,0.19351
2553.29250,0.19438
2555.22097,0.19888
2557.14944,0.20189
2559.07791,0.19943
2561.00638,0.19599
2562.93485,0.19592
2564.86332,0.19700
2566.79179,0.19655
2568.72025,0.19586
2570.64872,0.19604
2572.57719,0.19655
2574.50566,0.19778
2576.43413,0.19824
2578.36260,0.19676
2580.29107,0.19656
2582.21953,0.19916
2584.14800,0.19988
2586.07647,0.19557
2588.00494,0.19222
2589.93341,0.19551
2591.86188,0.20162
2593.79035,0.20333
2595.71882,0.19966
2597.64728,0.19531
2599.57575,0.19349
2601.50422,0.19461
2603.43269,0.19523
2605.36116,0.19278
2607.28963,0.19261
2609.21810,0.20079
2611.14656,0.21264
2613.07503,0.21359
2615.00350,0.20237
2616.93197,0.19641
2618.86044,0.20069
2620.78891,0.20326
2622.71738,0.19924
2624.64585,0.19606
2626.57431,0.19827
2628.50278,0.19920
2630.43125,0.19519
2632.35972,0.19251
2634.28819,0.19385
2636.21666,0.19561
2638.14513,0.19717
2640.07359,0.20076
2642.00206,0.20438
2643.93053,0.20379
2645.85900,0.20086
2647.78747,0.20053
2649.71594,0.20236
2651.64441,0.20232
2653.57288,0.20076
2655.50134,0.20081
2657.42981,0.20138
2659.35828,0.20120
2661.28675,0.20178
2663.21522,0.20150
2665.14369,0.19905
2667.07216,0.19740
2669.00062,0.19787
2670.92909,0.20009
2672.85756,0.20289
2674.78603,0.20136
2676.71450,0.19558
2678.64297,0.19458
2680.57144,0.19889
2682.49990,0.19963
2684.42837,0.19773
2686.35684,0.19930
2688.28531,0.20160
2690.21378,0.20161
2692.14225,0.20288
2694.07072,0.20412
2695.99919,0.20122
2697.92765,0.19797
2699.85612,0.19818
2701.78459,0.20043
2703.71306,0.20416
2705.64153,0.20746
2707.57000,0.20682
2709.49847,0.20525
2711.42693,0.20680
2713.35540,0.20889
2715.28387,0.20843
2717.21234,0.20563
2719.14081,0.20300
2721.06928,0.20184
2722.99775,0.20192
2724.92622,0.20428
2726.85468,0.20688
2728.78315,0.20554
2730.71162,0.20463
2732.64009,0.20840
2734.56856,0.21109
2736.49703,0.21105
2738.42550,0.21070
2740.35396,0.20954
2742.28243,0.20693
2744.21090,0.20259
2746.13937,0.19934
2748.06784,0.19862
2749.99631,0.19956
2751.92478,0.20194
2753.85325,0.20303
2755.78171,0.20248
2757.71018,0.20349
2759.63865,0.20435
2761.56712,0.20236
2763.49559,0.20249
2765.42406,0.20756
2767.35253,0.21179
2769.28099,0.21205
2771.20946,0.21195
2773.13793,0.21342
2775.06640,0.21235
2776.99487,0.20787
2778.92334,0.20583
2780.85181,0.20707
2782.78028,0.20722
2784.70874,0.20520
2786.63721,0.20298
2788.56568,0.20322
2790.49415,0.20620
2792.42262,0.20807
2794.35109,0.20657
2796.27956,0.20566
2798.20802,0.20973
2800.13649,0.21501
2802.06496,0.21335
2803.99343,0.20799
2805.92190,0.20842
2807.85037,0.21086
2809.77884,0.20916
2811.70731,0.20873
2813.63577,0.21388
2815.56424,0.21897
2817.49271,0.21727
2819.42118,0.21198
2821.34965,0.20833
2823.27812,0.20520
2825.20659,0.20578
2827.13505,0.21180
2829.06352,0.21529
2830.99199,0.21469
2832.92046,0.21386
2834.84893,0.21162
2836.77740,0.21064
2838.70587,0.21441
2840.63433,0.21786
2842.56280,0.21734
2844.49127,0.21557
2846.41974,0.21506
2848.34821,0.21637
2850.27668,0.21806
2852.20515,0.21783
2854.13362,0.21611
2856.06208,0.21372
2857.99055,0.21015
2859.91902,0.20783
2861.84749,0.20872
2863.77596,0.21044
2865.70443,0.21242
2867.63290,0.21511
2869.56136,0.21527
2871.48983,0.21292
2873.41830,0.21001
2875.34677,0.20494
2877.27524,0.20126
2879.20371,0.20396
2881.13218,0.20808
2883.06065,0.20712
2884.98911,0.20350
2886.91758,0.20242
2888.84605,0.20411
2890.77452,0.20779
2892.70299,0.20822
2894.63146,0.20118
2896.55993,0.19850
2898.48839,0.20546
2900.41686,0.21092
2902.34533,0.20935
2904.27380,0.20159
2906.20227,0.19495
2908.13074,0.19895
2910.05921,0.20775
2911.98768,0.20956
2913.91614,0.19969
2915.84461,0.18605
2917.77308,0.18662
2919.70155,0.20016
2921.63002,0.21158
2923.55849,0.21075
2925.48696,0.19199
2927.41542,0.17709
2929.34389,0.18721
2931.27236,0.20260
2933.20083,0.20529
2935.12930,0.19725
2937.05777,0.18598
2938.98624,0.18753
2940.91471,0.20025
2942.84317,0.20778
2944.77164,0.20475
2946.70011,0.19174
2948.62858,0.18398
2950.55705,0.19229
2952.48552,0.20408
2954.41399,0.20671
2956.34245,0.19278
2958.27092,0.17953
2960.19939,0.19289
2962.12786,0.21564
2964.05633,0.21968
2965.98480,0.20554
2967.91327,0.18920
2969.84174,0.18996
2971.77020,0.20514
2973.69867,0.21330
2975.62714,0.20681
2977.55561,0.19417
2979.48408,0.19268
2981.41255,0.20696
2983.34102,0.22126
2985.26948,0.22306
2987.19795,0.21136
2989.12642,0.20225
2991.05489,0.20976
2992.98336,0.22202
2994.91183,0.22368
2996.84030,0.21295
2998.76877,0.20307
3000.69723,0.20788
3002.62570,0.21737
3004.55417,0.21621
3006.48264,0.20515
3008.41111,0.19014
3010.33958,0.17167
3012.26805,0.14215
3014.19651,0.09880
3016.12498,0.06827
3018.05345,0.08992
3019.98192,0.15185
3021.91039,0.20002
3023.83886,0.21636
3025.76733,0.21753
3027.69579,0.21401
3029.62426,0.21222
3031.55273,0.21601
3033.48120,0.21997
3035.40967,0.21919
3037.33814,0.21391
3039.26661,0.21054
3041.19508,0.21386
3043.12354,0.21747
3045.05201,0.21464
3046.98048,0.20618
3048.90895,0.20066
3050.83742,0.20345
3052.76589,0.20791
3054.69436,0.20398
3056.62282,0.19228
3058.55129,0.18929
3060.47976,0.19806
3062.40823,0.20376
3064.33670,0.19842
3066.26517,0.18845
3068.19364,0.19205
3070.12211,0.20782
3072.05057,0.21381
3073.97904,0.20320
3075.90751,0.19017
3077.83598,0.19275
3079.76445,0.20655
3081.69292,0.21024
3083.62139,0.19618
3085.54985,0.18531
3087.47832,0.19687
3089.40679,0.21205
3091.33526,0.21117
3093.26373,0.19648
3095.19220,0.18476
3097.12067,0.19636
3099.04914,0.21548
3100.97760,0.21295
3102.90607,0.19423
3104.83454,0.18785
3106.76301,0.20084
3108.69148,0.21262
3110.61995,0.20975
3112.54842,0.19978
3114.47688,0.20012
3116.40535,0.20917
3118.33382,0.20880
3120.26229,0.19622
3122.19076,0.18924
3124.11923,0.20003
3126.04770,0.21234
3127.97617,0.21211
3129.90463,0.20711
3131.83310,0.20903
3133.76157,0.21696
3135.69004,0.21977
3137.61851,0.21434
3139.54698,0.20739
3141.47545,0.20971
3143.40391,0.21962
3145.33238,0.22339
3147.26085,0.21892
3149.18932,0.21515
3151.11779,0.21810
3153.04626,0.22358
3154.97473,0.22601
3156.90320,0.22569
3158.83166,0.22474
3160.76013,0.22481
3162.68860,0.22455
3164.61707,0.22440
3166.54554,0.22652
3168.47401,0.22885
3170.40248,0.23033
3172.33094,0.22990
3174.25941,0.22604
3176.18788,0.22220
3178.11635,0.22066
3180.04482,0.21887
3181.97329,0.21595
3183.90176,0.21600
3185.83022,0.21942
3187.75869,0.22150
3189.68716,0.22226
3191.61563,0.22292
3193.54410,0.22438
3195.47257,0.22682
3197.40104,0.22669
3199.32951,0.22264
3201.25797,0.21613
3203.18644,0.21189
3205.11491,0.21179
3207.04338,0.21227
3208.97185,0.21629
3210.90032,0.22324
3212.82879,0.22462
3214.75725,0.22021
3216.68572,0.21821
3218.61419,0.22188
3220.54266,0.22436
3222.47113,0.22377
3224.39960,0.22249
3226.32807,0.21817
3228.25654,0.21721
3230.18500,0.22408
3232.11347,0.22973
3234.04194,0.23130
3235.97041,0.23247
3237.89888,0.23065
3239.82735,0.22597
3241.75582,0.22727
3243.68428,0.23447
3245.61275,0.23731
3247.54122,0.23285
3249.46969,0.22494
3251.39816,0.21896
3253.32663,0.21730
3255.25510,0.21706
3257.18357,0.21717
3259.11203,0.21811
3261.04050,0.21809
3262.96897,0.21565
3264.89744,0.21085
3266.82591,0.20849
3268.75438,0.21386
3270.68285,0.22046
3272.61131,0.22379
3274.53978,0.22735
3276.46825,0.22747
3278.39672,0.22073
3280.32519,0.21215
3282.25366,0.21083
3284.18213,0.21891
3286.11060,0.22650
3288.03906,0.22611
3289.96753,0.21906
3291.89600,0.21163
3293.82447,0.20850
3295.75294,0.20962
3297.68141,0.21249
3299.60988,0.21421
3301.53834,0.21800
3303.46681,0.22440
3305.39528,0.22312
3307.32375,0.21590
3309.25222,0.21688
3311.18069,0.22330
3313.10916,0.22449
3315.03763,0.22236
3316.96609,0.22042
3318.89456,0.21748
3320.82303,0.21244
3322.75150,0.20810
3324.67997,0.21094
3326.60844,0.21917
3328.53691,0.22308
3330.46537,0.22262
3332.39384,0.22470
3334.32231,0.22757
3336.25078,0.22767
3338.17925,0.22861
3340.10772,0.23057
3342.03619,0.22918
3343.96466,0.22519
3345.89312,0.22230
3347.82159,0.22224
3349.75006,0.22179
3351.67853,0.21724
3353.60700,0.21397
3355.53547,0.21630
3357.46394,0.21896
3359.39240,0.21685
3361.32087,0.21413
3363.24934,0.21839
3365.17781,0.22564
3367.10628,0.22847
3369.03475,0.22987
3370.96322,0.23106
3372.89168,0.22705
3374.82015,0.21774
3376.74862,0.20889
3378.67709,0.20652
3380.60556,0.21209
3382.53403,0.21914
3384.46250,0.22048
3386.39097,0.21816
3388.31943,0.21738
3390.24790,0.21816
3392.17637,0.21999
3394.10484,0.22351
3396.03331,0.22867
3397.96178,0.23348
3399.89025,0.23445
3401.81871,0.22992
3403.74718,0.22326
3405.67565,0.22119
3407.60412,0.22307
3409.53259,0.22492
3411.46106,0.22564
3413.38953,0.22068
3415.31800,0.21073
3417.24646,0.20496
3419.17493,0.20860
3421.10340,0.21746
3423.03187,0.22121
3424.96034,0.21690
3426.88881,0.21124
3428.81728,0.20737
3430.74574,0.20465
3432.67421,0.20387
3434.60268,0.20326
3436.53115,0.20405
3438.45962,0.21138
3440.38809,0.21911
3442.31656,0.21409
3444.24503,0.20039
3446.17349,0.19593
3448.10196,0.20053
3450.03043,0.19837
3451.95890,0.19229
3453.88737,0.19310
3455.81584,0.19810
3457.74431,0.20256
3459.67277,0.20762
3461.60124,0.21111
3463.52971,0.20769
3465.45818,0.19991
3467.38665,0.19381
3469.31512,0.19249
3471.24359,0.19579
3473.17206,0.19471
3475.10052,0.18872
3477.02899,0.18987
3478.95746,0.19690
3480.88593,0.20321
3482.81440,0.20663
3484.74287,0.20457
3486.67134,0.20106
3488.59980,0.19837
3490.52827,0.19341
3492.45674,0.18892
3494.38521,0.18804
3496.31368,0.18821
3498.24215,0.18809
3500.17062,0.19114
3502.09909,0.19694
3504.02755,0.19725
3505.95602,0.19307
3507.88449,0.19443
3509.81296,0.19865
3511.74143,0.19615
3513.66990,0.18904
3515.59837,0.18549
3517.52683,0.18706
3519.45530,0.18837
3521.38377,0.18724
3523.31224,0.18643
3525.24071,0.18948
3527.16918,0.19439
3529.09765,0.18944
3531.02611,0.17649
3532.95458,0.17286
3534.88305,0.17828
3536.81152,0.17910
3538.73999,0.17630
3540.66846,0.17736
3542.59693,0.17703
3544.52540,0.17155
3546.45386,0.16830
3548.38233,0.17287
3550.31080,0.18133
3552.23927,0.18596
3554.16774,0.18147
3556.09621,0.17298
3558.02468,0.16814
3559.95314,0.16761
3561.88161,0.16909
3563.81008,0.17466
3565.73855,0.18777
3567.66702,0.19369
3569.59549,0.18131
3571.52396,0.17116
3573.45243,0.16773
3575.38089,0.16422
3577.30936,0.16269
3579.23783,0.16516
3581.16630,0.16725
3583.09477,0.16884
3585.02324,0.17465
3586.95171,0.18126
3588.88017,0.17683
3590.80864,0.16828
3592.73711,0.16742
3594.66558,0.17357
3596.59405,0.17781
3598.52252,0.17565
3600.45099,0.17123
3602.37946,0.16883
3604.30792,0.16781
3606.23639,0.16942
3608.16486,0.17242
3610.09333,0.16672
3612.02180,0.15782
3613.95027,0.15635
3615.87874,0.15980
3617.80720,0.16737
3619.73567,0.17271
3621.66414,0.16469
3623.59261,0.15295
3625.52108,0.14731
3627.44955,0.15357
3629.37802,0.16428
3631.30649,0.15802
3633.23495,0.14814
3635.16342,0.14677
3637.09189,0.15024
3639.02036,0.15003
3640.94883,0.14717
3642.87730,0.14788
3644.80577,0.15397
3646.73423,0.16876
3648.66270,0.18847
3650.59117,0.18170
3652.51964,0.16117
3654.44811,0.15182
3656.37658,0.14795
3658.30505,0.14134
3660.23352,0.13706
3662.16198,0.13682
3664.09045,0.13648
3666.01892,0.13855
3667.94739,0.15006
3669.87586,0.16624
3671.80433,0.16827
3673.73280,0.16830
3675.66126,0.17598
3677.58973,0.17138
3679.51820,0.15736
3681.44667,0.14433
3683.37514,0.13705
3685.30361,0.14146
3687.23208,0.15655
3689.16055,0.16747
3691.08901,0.15851
3693.01748,0.14398
3694.94595,0.13456
3696.87442,0.13204
3698.80289,0.13728
3700.73136,0.14466
3702.65983,0.14526
3704.58829,0.14211
3706.51676,0.14469
3708.44523,0.15470
3710.37370,0.16610
3712.30217,0.16164
3714.23064,0.14918
3716.15911,0.14183
3718.08757,0.12730
3720.01604,0.10930
3721.94451,0.11421
3723.87298,0.13608
3725.80145,0.14296
3727.72992,0.13872
3729.65839,0.14084
3731.58686,0.14776
3733.51532,0.15961
3735.44379,0.17183
3737.37226,0.16603
3739.30073,0.15259
3741.22920,0.14852
3743.15767,0.15892
3745.08614,0.17383
3747.01460,0.17661
3748.94307,0.17966
3750.87154,0.18405
3752.80001,0.17140
3754.72848,0.15525
3756.65695,0.14897
3758.58542,0.14823
3760.51389,0.14457
3762.44235,0.13909
3764.37082,0.13603
3766.29929,0.13765
3768.22776,0.14144
3770.15623,0.14010
3772.08470,0.13566
3774.01317,0.13417
3775.94163,0.13404
3777.87010,0.13352
3779.79857,0.13312
3781.72704,0.13331
3783.65551,0.13190
3785.58398,0.12785
3787.51245,0.12244
3789.44092,0.11807
3791.36938,0.11771
3793.29785,0.12177
3795.22632,0.13099
3797.15479,0.14133
3799.08326,0.14593
3801.01173,0.14811
3802.94020,0.14373
3804.86866,0.13650
3806.79713,0.13583
3808.72560,0.13595
3810.65407,0.13107
3812.58254,0.12778
3814.51101,0.13264
3816.43948,0.13981
3818.36795,0.14096
3820.29641,0.14280
3822.22488,0.14368
3824.15335,0.14476
3826.08182,0.14753
3828.01029,0.14474
3829.93876,0.13950
3831.86723,0.14083
3833.79569,0.14442
3835.72416,0.14678
3837.65263,0.15502
3839.58110,0.15670
3841.50957,0.14679
3843.43804,0.13853
3845.36651,0.13272
3847.29498,0.13028
3849.22344,0.13228
3851.15191,0.13973
3853.08038,0.14703
3855.00885,0.13542
3856.93732,0.12618
3858.86579,0.12567
3860.79426,0.12694
3862.72272,0.13093
3864.65119,0.13406
3866.57966,0.13028
3868.50813,0.13000
3870.43660,0.13592
3872.36507,0.13518
3874.29354,0.12506
3876.22200,0.11526
3878.15047,0.11548
3880.07894,0.12034
3882.00741,0.11823
3883.93588,0.11677
3885.86435,0.11899
3887.79282,0.11608
3889.72129,0.11381
3891.64975,0.11797
3893.57822,0.12293
3895.50669,0.12502
3897.43516,0.12766
3899.36363,0.13648
3901.29210,0.15037
3903.22057,0.15302
3905.14903,0.13809
3907.07750,0.12254
3909.00597,0.11555
3910.93444,0.11580
3912.86291,0.12022
3914.79138,0.12285
3916.71985,0.11942
3918.64832,0.11433
3920.57678,0.11394
3922.50525,0.11596
3924.43372,0.11635
3926.36219,0.11643
3928.29066,0.12046
3930.21913,0.12492
3932.14760,0.12262
3934.07606,0.11376
3936.00453,0.10332
3937.93300,0.09903
3939.86147,0.10385
3941.78994,0.11066
3943.71841,0.11519
3945.64688,0.11688
3947.57535,0.11259
3949.50381,0.10493
3951.43228,0.10271
3953.36075,0.10606
3955.28922,0.10749
3957.21769,0.10427
3959.14616,0.10143
3961.07463,0.10191
3963.00309,0.10481
3964.93156,0.10914
3966.86003,0.11050
3968.78850,0.10627
3970.71697,0.10247
3972.64544,0.10343
3974.57391,0.10317
3976.50238,0.09944
3978.43084,0.09885
3980.35931,0.10140
3982.28778,0.10090
3984.21625,0.09883
3986.14472,0.09943
3988.07319,0.09991
3990.00166,0.10008
3991.93012,0.10470
3993.85859,0.10977
3995.78706,0.10612
3997.71553,0.09914
3999.64400,0.09841
4001.57247,0.10008
4003.50094,0.10044
4005.42941,0.10060
4007.35787,0.09969
4009.28634,0.09703
4011.21481,0.09490
4013.14328,0.09817
4015.07175,0.10403
4017.00022,0.10384
4018.92869,0.09967
4020.85715,0.09786
4022.78562,0.09828
4024.71409,0.10028
4026.64256,0.10132
4028.57103,0.09924
4030.49950,0.09830
4032.42797,0.09745
4034.35644,0.09084
4036.28490,0.08375
4038.21337,0.08306
4040.14184,0.08497
4042.07031,0.08549
4043.99878,0.08445
4045.92725,0.08367
4047.85572,0.08726
4049.78418,0.09431
4051.71265,0.09794
4053.64112,0.09575
4055.56959,0.09264
4057.49806,0.09210
4059.42653,0.09213
4061.35500,0.09104
4063.28346,0.09300
4065.21193,0.09803
4067.14040,0.09912
4069.06887,0.09692
4070.99734,0.09333
4072.92581,0.08747
4074.85428,0.08404
4076.78275,0.08356
4078.71121,0.08240
4080.63968,0.07927
4082.56815,0.07226
4084.49662,0.06661
4086.42509,0.07325
4088.35356,0.08847
4090.28203,0.09746
4092.21049,0.09732
4094.13896,0.09251
4096.06743,0.08646
4097.99590,0.08331
4099.92437,0.08364
4101.85284,0.08701
4103.78131,0.09107
4105.70978,0.09232
4107.63824,0.09223
4109.56671,0.09265
4111.49518,0.09038
4113.42365,0.08457
4115.35212,0.08252
4117.28059,0.08328
4119.20906,0.07920
4121.13752,0.07376
4123.06599,0.07127
4124.99446,0.07243
4126.92293,0.07818
4128.85140,0.08292
4130.77987,0.08094
4132.70834,0.07460
4134.63681,0.06920
4136.56527,0.06689
4138.49374,0.06698
4140.42221,0.06989
4142.35068,0.07566
4144.27915,0.08064
4146.20762,0.08123
4148.13609,0.07711
4150.06455,0.07014
4151.99302,0.06665
4153.92149,0.07022
4155.84996,0.07186
4157.77843,0.06778
4159.70690,0.06626
4161.63537,0.06756
4163.56384,0.06675
4165.49230,0.06669
4167.42077,0.07006
4169.34924,0.07330
4171.27771,0.07499
4173.20618,0.07521
4175.13465,0.06901
4177.06312,0.06079
4178.99158,0.06168
4180.92005,0.06826
4182.84852,0.07152
4184.77699,0.06886
4186.70546,0.06422
4188.63393,0.06282
4190.56240,0.06164
4192.49087,0.05581
4194.41933,0.04733
4196.34780,0.04407
4198.27627,0.05123
4200.20474,0.05922
4202.13321,0.05830
4204.06168,0.05773
4205.99015,0.06234
4207.91861,0.06520
4209.84708,0.06505
4211.77555,0.05869
4213.70402,0.04873
4215.63249,0.04850
4217.56096,0.05626
4219.48943,0.05685
4221.41789,0.04797
4223.34636,0.04161
4225.27483,0.04361
4227.20330,0.04873
4229.13177,0.05261
4231.06024,0.05393
4232.98871,0.05013
4234.91718,0.04251
4236.84564,0.03912
4238.77411,0.04404
4240.70258,0.05228
4242.63105,0.05643
4244.55952,0.05299
4246.48799,0.04679
4248.41646,0.04301
4250.34492,0.04216
4252.27339,0.04883
4254.20186,0.06184
4256.13033,0.07148
4258.05880,0.07204
4259.98727,0.06092
4261.91574,0.04434
4263.84421,0.03525
4265.77267,0.03292
4267.70114,0.03091
4269.62961,0.03557
4271.55808,0.04448
4273.48655,0.04572
4275.41502,0.04169
4277.34349,0.03860
4279.27195,0.03923
4281.20042,0.04129
4283.12889,0.04123
4285.05736,0.04099
4286.98583,0.04364
4288.91430,0.04738
4290.84277,0.04331
4292.77124,0.03609
4294.69970,0.03625
4296.62817,0.03558
4298.55664,0.03134
4300.48511,0.03481
4302.41358,0.04277
4304.34205,0.04354
4306.27052,0.04070
4308.19898,0.04314
4310.12745,0.05185
4312.05592,0.05837
4313.98439,0.05286
4315.91286,0.04115
4317.84133,0.03282
4319.76980,0.02752
4321.69827,0.02329
4323.62673,0.02210
4325.55520,0.02816
4327.48367,0.03654
4329.41214,0.03885
4331.34061,0.03676
4333.26908,0.03212
4335.19755,0.02745
4337.12601,0.02917
4339.05448,0.03254
4340.98295,0.02977
4342.91142,0.02668
4344.83989,0.02794
4346.76836,0.03259
4348.69683,0.03518
4350.62530,0.02550
4352.55376,0.01040
4354.48223,0.00537
4356.41070,0.01628
4358.33917,0.03147
4360.26764,0.03259
4362.19611,0.02662
4364.12458,0.02665
4366.05304,0.02697
4367.98151,0.02040
4369.90998,0.01473
4371.83845,0.01931
4373.76692,0.02682
4375.69539,0.02933
4377.62386,0.02917
4379.55232,0.02841
4381.48079,0.02686
4383.40926,0.02728
4385.33773,0.03035
4387.26620,0.03213
4389.19467,0.02914
4391.12314,0.02215
4393.05161,0.01818
4394.98007,0.01812
4396.90854,0.01631
4398.83701,0.01299
4400.76548,0.01376
4402.69395,0.01696
4404.62242,0.01473
4406.55089,0.01496
4408.47935,0.02521
4410.40782,0.02901
4412.33629,0.01882
4414.26476,0.01184
4416.19323,0.01347
4418.12170,0.01334
4420.05017,0.00787
4421.97864,0.00447
4423.90710,0.01245
4425.83557,0.02354
4427.76404,0.02364
4429.69251,0.02066
4431.62098,0.02609
4433.54945,0.03108
4435.47792,0.02842
4437.40638,0.02495
4439.33485,0.02336
4441.26332,0.02068
4443.19179,0.01823
4445.12026,0.01844
4447.04873,0.01460
4448.97720,0.00736
4450.90567,0.00713
4452.83413,0.01104
4454.76260,0.01016
4456.69107,0.00196
4458.61954,-0.00497
4460.54801,0.00021
4462.47648,0.01382
4464.40495,0.02268
4466.33341,0.01997
4468.26188,0.01333
4470.19035,0.01113
4472.11882,0.01436
4474.04729,0.01908
4475.97576,0.01780
4477.90423,0.01094
4479.83270,0.00947
4481.76116,0.01702
4483.68963,0.02152
4485.61810,0.01718
4487.54657,0.01435
4489.47504,0.01542
4491.40351,0.01295
4493.33198,0.00744
4495.26044,0.00366
4497.18891,0.00535
4499.11738,0.01361
4501.04585,0.01907
4502.97432,0.01389
4504.90279,0.00256
4506.83126,-0.00593
4508.75973,-0.00659
4510.68819,-0.00173
4512.61666,0.00871
4514.54513,0.01895
4516.47360,0.01355
4518.40207,0.00103
4520.33054,0.00224
4522.25901,0.00772
4524.18747,0.00149
4526.11594,-0.00484
4528.04441,0.00023
4529.97288,0.00496
4531.90135,0.00302
4533.82982,0.00198
4535.75829,0.00082
4537.68676,-0.00268
4539.61522,0.00021
4541.54369,0.01375
4543.47216,0.02274
4545.40063,0.01663
4547.32910,0.00849
4549.25757,0.00865
4551.18604,0.01040
4553.11450,0.00582
4555.04297,-0.00060
4556.97144,-0.00451
4558.89991,-0.00455
4560.82838,0.00501
4562.75685,0.01320
4564.68532,0.00603
4566.61378,-0.00483
4568.54225,-0.00334
4570.47072,0.01246
4572.39919,0.02449
4574.32766,0.02157
4576.25613,0.01122
4578.18460,0.00336
4580.11307,0.00144
4582.04153,0.00529
4583.97000,0.00932
4585.89847,0.00541
4587.82694,-0.00223
4589.75541,-0.00333
4591.68388,-0.00240
4593.61235,-0.00150
4595.54081,0.00468
4597.46928,0.00566
4599.39775,-0.00369
4601.32622,-0.00823
4603.25469,-0.00095
4605.18316,0.00934
4607.11163,0.01473
4609.04010,0.01169
4610.96856,0.00154
4612.89703,-0.00497
4614.82550,0.00100
4616.75397,0.01085
4618.68244,0.01698
4620.61091,0.02117
4622.53938,0.01776
4624.46784,0.00934
4626.39631,0.00783
4628.32478,0.01417
4630.25325,0.02110
4632.18172,0.01836
4634.11019,0.00306
4636.03866,-0.00964
4637.96713,-0.00539
4639.89559,0.00880
4641.82406,0.01754
4643.75253,0.01444
4645.68100,0.00424
4647.60947,0.00033
4649.53794,0.00825
4651.46641,0.01574
4653.39487,0.01330
4655.32334,0.00644
4657.25181,0.00528
4659.18028,0.01538
4661.10875,0.03078
4663.03722,0.03326
4664.96569,0.01785
4666.89416,0.01107
4668.82262,0.02741
4670.75109,0.03649
4672.67956,0.02009
4674.60803,0.00272
4676.53650,0.00061
4678.46497,0.00102
4680.39344,-0.00500
4682.32190,-0.00858
4684.25037,-0.00424
4686.17884,-0.00078
4688.10731,-0.00168
4690.03578,0.00198
4691.96425,0.00572
4693.89272,0.00482
4695.82119,0.00999
4697.74965,0.01779
4699.67812,0.01775
4701.60659,0.01576
4703.53506,0.01603
4705.46353,0.01539
4707.39200,0.01045
4709.32047,0.00509
4711.24893,0.00602
4713.17740,0.00689
4715.10587,-0.00214
4717.03434,-0.01095
4718.96281,-0.00466
4720.89128,0.00317
4722.81975,-0.00001
4724.74821,0.00017
4726.67668,0.00325
4728.60515,0.00080
4730.53362,0.00476
4732.46209,0.01580
4734.39056,0.02086
4736.31903,0.02231
4738.24750,0.02606
4740.17596,0.02881
4742.10443,0.02442
4744.03290,0.01192
4745.96137,-0.00023
4747.88984,-0.00125
4749.81831,0.00562
4751.74678,0.00868
4753.67524,0.00441
4755.60371,-0.00560
4757.53218,-0.00656
4759.46065,0.00556
4761.38912,0.01210
4763.31759,0.00934
4765.24606,0.00299
4767.17453,-0.00044
4769.10299,0.00440
4771.03146,0.00924
4772.95993,0.01003
4774.88840,0.00977
4776.81687,0.01246
4778.74534,0.01552
4780.67381,0.01138
4782.60227,0.00388
4784.53074,-0.00242
4786.45921,-0.00530
4788.38768,-0.00661
4790.31615,-0.01119
4792.24462,-0.01531
4794.17309,-0.01582
4796.10156,-0.01509
4798.03002,-0.00892
4799.95849,0.00344
4801.88696,0.00875
4803.81543,0.00672
4805.74390,0.00732
4807.67237,0.00400
4809.60084,-0.00500
4811.52930,-0.00522
4813.45777,0.00662
4815.38624,0.01905
4817.31471,0.02596
4819.24318,0.02752
4821.17165,0.02444
4823.10012,0.02165
4825.02859,0.02218
4826.95705,0.02219
4828.88552,0.02055
4830.81399,0.02161
4832.74246,0.02033
4834.67093,0.01195
4836.59940,0.00410
4838.52787,-0.00321
4840.45633,-0.01046
4842.38480,-0.00608
4844.31327,0.00611
4846.24174,0.01402
4848.17021,0.01879
4850.09868,0.01291
4852.02715,0.00133
4853.95562,0.00289
4855.88408,0.00814
4857.81255,0.00088
4859.74102,-0.01143
4861.66949,-0.00998
4863.59796,0.00164
4865.52643,0.00329
4867.45490,-0.00350
4869.38336,-0.00012
4871.31183,0.01394
4873.24030,0.01786
4875.16877,0.01062
4877.09724,0.00857
4879.02571,0.01321
4880.95418,0.01495
4882.88265,0.01302
4884.81111,0.01963
4886.73958,0.02693
4888.66805,0.02324
4890.59652,0.01898
4892.52499,0.01351
4894.45346,0.00314
4896.38193,-0.00432
4898.31039,-0.00430
4900.23886,-0.00115
4902.16733,-0.00305
4904.09580,-0.00552
4906.02427,-0.00404
4907.95274,-0.00350
4909.88121,-0.00134
4911.80967,0.00080
4913.73814,-0.00210
4915.66661,-0.00416
4917.59508,0.00083
4919.52355,0.00930
4921.45202,0.01263
4923.38049,0.01585
4925.30896,0.01913
4927.23742,0.01402
4929.16589,0.00898
4931.09436,0.00581
4933.02283,0.00110
4934.95130,-0.00284
4936.87977,-0.01025
4938.80824,-0.01602
4940.73670,-0.01694
4942.66517,-0.01917
4944.59364,-0.01326
4946.52211,0.00313
4948.45058,0.01347
4950.37905,0.01385
4952.30752,0.01279
4954.23599,0.01117
4956.16445,0.00169
4958.09292,-0.01071
4960.02139,-0.01017
4961.94986,0.00308
4963.87833,0.01537
4965.80680,0.02111
4967.73527,0.02282
4969.66373,0.02286
4971.59220,0.01864
4973.52067,0.01437
4975.44914,0.01898
4977.37761,0.02113
4979.30608,0.01602
4981.23455,0.02012
4983.16302,0.03229
4985.09148,0.03521
4987.01995,0.02486
4988.94842,0.01231
4990.87689,0.00735
4992.80536,0.00589
4994.73383,0.00340
4996.66230,0.00959
4998.59076,0.01505
5000.51923,0.00388
5002.44770,-0.00331
5004.37617,0.00393
5006.30464,0.00757
5008.23311,0.00592
5010.16158,0.01468
5012.09005,0.03401
5014.01851,0.04058
5015.94698,0.02453
5017.87545,0.01069
5019.80392,0.01188
5021.73239,0.00872
5023.66086,0.00496
5025.58933,0.01170
5027.51779,0.01400
5029.44626,0.01069
5031.37473,0.00734
5033.30320,0.00441
5035.23167,0.00873
5037.16014,0.01503
5039.08861,0.00822
5041.01708,-0.00094
5042.94554,0.00040
5044.87401,-0.00344
5046.80248,-0.01651
5048.73095,-0.01745
5050.65942,-0.00471
5052.58789,0.00372
5054.51636,0.00264
5056.44482,0.00032
5058.37329,0.01100
5060.30176,0.03644
5062.23023,0.04180
5064.15870,0.00379
5066.08717,-0.03602
5068.01564,-0.03323
5069.94410,-0.00802
5071.87257,0.00222
5073.80104,0.00252
5075.72951,0.01389
5077.65798,0.02467
5079.58645,0.01455
5081.51492,-0.00263
5083.44339,-0.00019
5085.37185,0.01626
5087.30032,0.02397
5089.22879,0.02327
5091.15726,0.02174
5093.08573,0.01999
5095.01420,0.02201
5096.94267,0.01764
5098.87113,0.00309
5100.79960,0.00556
5102.72807,0.02717
5104.65654,0.03635
5106.58501,0.02484
5108.51348,0.00911
5110.44195,0.00853
5112.37042,0.02653
5114.29888,0.02881
5116.22735,0.00258
5118.15582,-0.01013
5120.08429,0.00491
5122.01276,0.02087
5123.94123,0.02426
5125.86970,0.02345
5127.79816,0.02836
5129.72663,0.03124
5131.65510,0.02503
5133.58357,0.01405
5135.51204,0.00541
5137.44051,0.00131
5139.36898,0.00146
5141.29745,0.01805
5143.22591,0.04409
5145.15438,0.05179
5147.08285,0.02989
5149.01132,-0.00655
5150.93979,-0.02255
5152.86826,-0.01615
5154.79673,-0.01358
5156.72519,-0.01347
5158.65366,-0.00040
5160.58213,0.02514
5162.51060,0.04268
5164.43907,0.03510
5166.36754,0.01933
5168.29601,0.02001
5170.22448,0.03162
5172.15294,0.04210
5174.08141,0.04790
5176.00988,0.03486
5177.93835,0.01426
5179.86682,0.00537
5181.79529,-0.00721
5183.72376,-0.02084
5185.65222,-0.01963
5187.58069,-0.01586
5189.50916,-0.01176
5191.43763,0.00296
5193.36610,0.01907
5195.29457,0.02372
5197.22304,0.01186
5199.15151,-0.01163
5201.07997,-0.01896
5203.00844,0.00663
5204.93691,0.03728
5206.86538,0.04028
5208.79385,0.03420
5210.72232,0.04296
5212.65079,0.05285
5214.57925,0.04821
5216.50772,0.04002
5218.43619,0.05058
5220.36466,0.06267
5222.29313,0.04312
5224.22160,0.01807
5226.15007,0.03185
5228.07854,0.05296
5230.00700,0.04237
5231.93547,0.02278
5233.86394,0.01654
5235.79241,0.02033
5237.72088,0.02494
5239.64935,0.02841
5241.57782,0.03278
5243.50628,0.04230
5245.43475,0.06283
5247.36322,0.07756
5249.29169,0.06086
5251.22016,0.02885
5253.14863,0.01219
5255.07710,0.00956
5257.00556,0.01275
5258.93403,0.01770
5260.86250,0.02271
5262.79097,0.02789
5264.71944,0.02310
5266.64791,0.02388
5268.57638,0.04245
5270.50485,0.05486
5272.43331,0.04934
5274.36178,0.02157
5276.29025,-0.01644
5278.21872,-0.03099
5280.14719,-0.01249
5282.07566,0.02515
5284.00413,0.05670
5285.93259,0.05947
5287.86106,0.04632
5289.78953,0.04759
5291.71800,0.05121
5293.64647,0.03200
5295.57494,0.02063
5297.50341,0.04264
5299.43188,0.07255
5301.36034,0.07214
5303.28881,0.05200
5305.21728,0.05962
5307.14575,0.08606
5309.07422,0.07385
5311.00269,0.02638
5312.93116,-0.00728
5314.85962,-0.01928
5316.78809,-0.01914
5318.71656,0.00126
5320.64503,0.02749
5322.57350,0.03224
5324.50197,0.02060
5326.43044,0.01363
5328.35891,0.01725
5330.28737,0.02852
5332.21584,0.03842
5334.14431,0.04005
5336.07278,0.04444
5338.00125,0.05421
5339.92972,0.05821
5341.85819,0.05948
5343.78665,0.05972
5345.71512,0.04824
5347.64359,0.02214
5349.57206,-0.00107
5351.50053,0.00729
5353.42900,0.04801
5355.35747,0.07585
5357.28594,0.06833
5359.21440,0.05348
5361.14287,0.05761
5363.07134,0.05978
5364.99981,0.03390
5366.92828,0.01873
5368.85675,0.03807
5370.78522,0.04863
5372.71368,0.03489
5374.64215,0.03967
5376.57062,0.07316
5378.49909,0.08636
5380.42756,0.07640
5382.35603,0.07379
5384.28450,0.07693
5386.21297,0.06854
5388.14143,0.05233
5390.06990,0.04633
5391.99837,0.06483
5393.92684,0.09328
5395.85531,0.09093
5397.78378,0.05802
5399.71225,0.02875
5401.64071,0.02433
5403.56918,0.03588
5405.49765,0.04346
5407.42612,0.05662
5409.35459,0.07853
5411.28306,0.07208
5413.21153,0.02877
5415.13999,0.00610
5417.06846,0.01824
5418.99693,0.01605
5420.92540,-0.00853
5422.85387,-0.02086
5424.78234,-0.01275
5426.71081,0.00776
5428.63928,0.03434
5430.56774,0.06137
5432.49621,0.07142
5434.42468,0.04676
5436.35315,0.02114
5438.28162,0.02724
5440.21009,0.04525
5442.13856,0.05121
5444.06702,0.04580
5445.99549,0.04454
5447.92396,0.04457
5449.85243,0.02725
5451.78090,0.01348
5453.70937,0.02505
5455.63784,0.03719
5457.56631,0.01860
5459.49477,-0.01198
5461.42324,-0.00561
5463.35171,0.02018
5465.28018,0.02362
5467.20865,0.02573
5469.13712,0.04479
5471.06559,0.06521
5472.99405,0.07438
5474.92252,0.07646
5476.85099,0.07084
5478.77946,0.04938
5480.70793,0.02936
5482.63640,0.03156
5484.56487,0.04034
5486.49334,0.03531
5488.42180,0.03823
5490.35027,0.05946
5492.27874,0.06032
5494.20721,0.03893
5496.13568,0.03192
5498.06415,0.03517
5499.99262,0.04147
5501.92108,0.05887
5503.84955,0.08044
5505.77802,0.08855
5507.70649,0.06863
5509.63496,0.04256
5511.56343,0.04990
5513.49190,0.07718
5515.42037,0.07775
5517.34883,0.05261
5519.27730,0.02688
5521.20577,0.01262
5523.13424,0.02404
5525.06271,0.05483
5526.99118,0.08613
5528.91965,0.09298
5530.84811,0.06608
5532.77658,0.04588
5534.70505,0.05049
5536.63352,0.06200
5538.56199,0.06476
5540.49046,0.05496
5542.41893,0.04634
5544.34740,0.04944
5546.27586,0.04860
5548.20433,0.03796
5550.13280,0.03446
5552.06127,0.04017
5553.98974,0.04666
5555.91821,0.04263
5557.84668,0.04089
5559.77514,0.05861
5561.70361,0.07556
5563.63208,0.08936
5565.56055,0.10547
5567.48902,0.10294
5569.41749,0.07037
5571.34596,0.03361
5573.27443,0.03020
5575.20289,0.05150
5577.13136,0.07514
5579.05983,0.10398
5580.98830,0.12595
5582.91677,0.12733
5584.84524,0.11446
5586.77371,0.10532
5588.70217,0.11227
5590.63064,0.11931
5592.55911,0.11422
5594.48758,0.09268
5596.41605,0.05549
5598.34452,0.03362
5600.27299,0.03937
5602.20145,0.05543
5604.12992,0.08209
5606.05839,0.09458
5607.98686,0.05834
5609.91533,0.01854
5611.84380,0.02984
5613.77227,0.06493
5615.70074,0.08230
5617.62920,0.07974
5619.55767,0.07119
5621.48614,0.06578
5623.41461,0.05669
5625.34308,0.03746
5627.27155,0.01912
5629.20002,0.02021
5631.12848,0.03569
5633.05695,0.04175
5634.98542,0.04779
5636.91389,0.07201
5638.84236,0.08546
5640.77083,0.07944
5642.69930,0.07966
5644.62777,0.07544
5646.55623,0.04114
5648.48470,0.00827
5650.41317,0.01937
5652.34164,0.05391
5654.27011,0.08696
5656.19858,0.11019
5658.12705,0.10754
5660.05551,0.07538
5661.98398,0.03833
5663.91245,0.03282
5665.84092,0.04541
5667.76939,0.03989
5669.69786,0.02575
5671.62633,0.02160
5673.55480,0.01161
5675.48326,0.00492
5677.41173,0.03558
5679.34020,0.06294
5681.26867,0.06184
5683.19714,0.07884
5685.12561,0.11729
5687.05408,0.14407
5688.98254,0.13693
5690.91101,0.11018
5692.83948,0.10130
5694.76795,0.11491
5696.69642,0.13114
5698.62489,0.13267
5700.55336,0.10895
5702.48183,0.06802
5704.41029,0.05215
5706.33876,0.07295
5708.26723,0.08545
5710.19570,0.08266
5712.12417,0.07802
5714.05264,0.05320
5715.98111,0.03127
5717.90957,0.03724
5719.83804,0.03503
5721.76651,0.01209
5723.69498,0.00365
5725.62345,0.03075
5727.55192,0.05870
5729.48039,0.04124
5731.40886,0.00132
5733.33732,-0.01309
5735.26579,0.01716
5737.19426,0.05494
5739.12273,0.04891
5741.05120,0.03127
5742.97967,0.04984
5744.90814,0.07214
5746.83660,0.07662
5748.76507,0.09641
5750.69354,0.09974
5752.62201,0.04819
5754.55048,-0.00250
5756.47895,-0.01574
5758.40742,0.01134
5760.33588,0.06197
5762.26435,0.08621
5764.19282,0.06334
5766.12129,0.03502
5768.04976,0.03470
5769.97823,0.04106
5771.90670,0.03820
5773.83517,0.04699
5775.76363,0.07933
5777.69210,0.10425
5779.62057,0.08571
5781.54904,0.04650
5783.47751,0.03710
5785.40598,0.04380
5787.33445,0.00873
5789.26291,-0.03421
5791.19138,-0.02083
5793.11985,0.00098
5795.04832,-0.01648
5796.97679,-0.03221
5798.90526,-0.00911
5800.83373,0.03767
5802.76220,0.06333
5804.69066,0.03998
5806.61913,0.01703
5808.54760,0.04687
5810.47607,0.09764
5812.40454,0.11239
5814.33301,0.07836
5816.26148,0.04465
5818.18994,0.05260
5820.11841,0.06394
5822.04688,0.05221
5823.97535,0.06546
5825.90382,0.10974
5827.83229,0.13966
5829.76076,0.15171
5831.68923,0.16364
5833.61769,0.14823
5835.54616,0.10037
5837.47463,0.05945
5839.40310,0.03793
5841.33157,0.02404
5843.26004,0.00934
5845.18851,0.00961
5847.11697,0.04394
5849.04544,0.09549
5850.97391,0.11614
5852.90238,0.11061
5854.83085,0.13035
5856.75932,0.16686
5858.68779,0.16256
5860.61626,0.12055
5862.54472,0.10796
5864.47319,0.13187
5866.40166,0.12879
5868.33013,0.09116
5870.25860,0.07809
5872.18707,0.10620
5874.11554,0.11777
5876.04400,0.08819
5877.97247,0.06956
5879.90094,0.08262
5881.82941,0.10466
5883.75788,0.12008
5885.68635,0.11737
5887.61482,0.09911
5889.54329,0.07579
5891.47175,0.05721
5893.40022,0.05311
5895.32869,0.04241
5897.25716,0.01466
5899.18563,0.01061
5901.11410,0.04224
5903.04257,0.07951
5904.97103,0.10418
5906.89950,0.09292
5908.82797,0.05731
5910.75644,0.06389
5912.68491,0.09481
5914.61338,0.09317
5916.54185,0.07367
5918.47032,0.06198
5920.39878,0.08145
5922.32725,0.13180
5924.25572,0.17509
5926.18419,0.18889
5928.11266,0.17715
5930.04113,0.15256
5931.96960,0.11142
5933.89806,0.06898
5935.82653,0.06788
5937.75500,0.07634
5939.68347,0.06514
5941.61194,0.08314
5943.54041,0.11913
5945.46888,0.11372
5947.39734,0.07109
5949.32581,0.04045
5951.25428,0.04644
5953.18275,0.05108
5955.11122,0.04883
5957.03969,0.06204
5958.96816,0.06843
5960.89663,0.04840
5962.82509,0.04329
5964.75356,0.07106
5966.68203,0.07701
5968.61050,0.04506
5970.53897,0.03066
5972.46744,0.07729
5974.39591,0.14796
5976.32437,0.15239
5978.25284,0.09315
5980.18131,0.05457
5982.10978,0.06127
5984.03825,0.07605
5985.96672,0.09428
5987.89519,0.10111
5989.82366,0.08023
5991.75212,0.07208
5993.68059,0.08723
5995.60906,0.10866
5997.53753,0.12248
5999.46600,0.11159
6001.39447,0.07603
6003.32294,0.03515
6005.25140,0.00044
6007.17987,-0.03012
6009.10834,-0.03934
6011.03681,-0.02487
6012.96528,0.00408
6014.89375,0.03784
6016.82222,0.05979
6018.75069,0.07163
6020.67915,0.06779
6022.60762,0.04952
6024.53609,0.03671
6026.46456,0.04695
6028.39303,0.08503
6030.32150,0.12104
6032.24997,0.13624
6034.17843,0.13459
6036.10690,0.12166
6038.03537,0.11677
6039.96384,0.11983
6041.89231,0.09674
6043.82078,0.04165
6045.74925,0.00387
6047.67772,0.01284
6049.60618,0.06206
6051.53465,0.11749
6053.46312,0.12488
6055.39159,0.08469
6057.32006,0.08155
6059.24853,0.12999
6061.17700,0.15598
6063.10546,0.14372
6065.03393,0.11623
6066.96240,0.09771
6068.89087,0.09622
6070.81934,0.05727
6072.74781,-0.03192
6074.67628,-0.08580
6076.60475,-0.06779
6078.53321,-0.04357
6080.46168,-0.03793
6082.39015,-0.00814
6084.31862,0.04251
6086.24709,0.05661
6088.17556,0.02900
6090.10403,0.01492
6092.03249,0.02266
6093.96096,0.04942
6095.88943,0.10436
6097.81790,0.14328
6099.74637,0.15235
6101.67484,0.15919
6103.60331,0.13329
6105.53177,0.05615
6107.46024,-0.00229
6109.38871,0.00431
6111.31718,0.02081
6113.24565,0.02972
6115.17412,0.05525
6117.10259,0.07680
6119.03106,0.07547
6120.95952,0.06531
6122.88799,0.06666
6124.81646,0.07784
6126.74493,0.07849
6128.67340,0.06393
6130.60187,0.05335
6132.53034,0.04831
6134.45880,0.03311
6136.38727,0.00255
6138.31574,-0.02192
6140.24421,0.00581
6142.17268,0.05524
6144.10115,0.03585
6146.02962,-0.02190
6147.95809,-0.04503
6149.88655,-0.02596
6151.81502,0.02184
6153.74349,0.06937
6155.67196,0.10368
6157.60043,0.11700
6159.52890,0.07058
6161.45737,-0.00758
6163.38583,-0.02825
6165.31430,-0.00239
6167.24277,0.00078
6169.17124,0.01771
6171.09971,0.07559
6173.02818,0.09665
6174.95665,0.09613
6176.88512,0.12636
6178.81358,0.13611
6180.74205,0.10817
6182.67052,0.06533
6184.59899,0.02704
6186.52746,0.01206
6188.45593,0.03204
6190.38440,0.09992
6192.31286,0.15031
6194.24133,0.10233
6196.16980,0.02877
6198.09827,0.02787
6200.02674,0.07454
6201.95521,0.13360
6203.88368,0.15152
6205.81215,0.10648
6207.74061,0.08123
6209.66908,0.06788
6211.59755,0.01261
6213.52602,-0.02631
6215.45449,-0.00831
6217.38296,0.03510
6219.31143,0.08131
6221.23989,0.11457
6223.16836,0.11392
6225.09683,0.10777
6227.02530,0.11134
6228.95377,0.11443
6230.88224,0.12792
6232.81071,0.13100
6234.73918,0.10515
6236.66764,0.08177
6238.59611,0.09591
6240.52458,0.09868
6242.45305,0.02380
6244.38152,-0.03843
6246.30999,-0.00252
6248.23846,0.04717
6250.16692,0.05971
6252.09539,0.10363
6254.02386,0.18775
6255.95233,0.24885
6257.88080,0.23608
6259.80927,0.15402
6261.73774,0.08989
6263.66621,0.09043
6265.59467,0.09227
6267.52314,0.06954
6269.45161,0.06978
6271.38008,0.09417
6273.30855,0.10500
6275.23702,0.05741
6277.16549,-0.00194
6279.09395,0.03076
6281.02242,0.10165
6282.95089,0.09666
6284.87936,0.04356
6286.80783,0.03713
6288.73630,0.07756
6290.66477,0.11520
6292.59323,0.14361
6294.52170,0.14262
6296.45017,0.09671
6298.37864,0.06251
6300.30711,0.05753
6302.23558,0.04537
6304.16405,0.03841
6306.09252,0.04856
6308.02098,0.07681
6309.94945,0.14166
6311.87792,0.18352
6313.80639,0.15990
6315.73486,0.12632
6317.66333,0.08810
6319.59180,0.06215
6321.52026,0.09843
6323.44873,0.12531
6325.37720,0.09665
6327.30567,0.07815
6329.23414,0.07884
6331.16261,0.09264
6333.09108,0.12712
6335.01955,0.12138
6336.94801,0.04332
6338.87648,-0.03471
6340.80495,-0.02118
6342.73342,0.07017
6344.66189,0.16218
6346.59036,0.17954
6348.51883,0.10526
6350.44729,0.05676
6352.37576,0.08887
6354.30423,0.11431
6356.23270,0.10641
6358.16117,0.09877
6360.08964,0.12719
6362.01811,0.16036
6363.94658,0.14646
6365.87504,0.11349
6367.80351,0.09506
6369.73198,0.05987
6371.66045,-0.01013
6373.58892,-0.05093
6375.51739,-0.06384
6377.44586,-0.08693
6379.37432,-0.06670
6381.30279,-0.00841
6383.23126,0.02709
6385.15973,0.04853
6387.08820,0.10257
6389.01667,0.17208
6390.94514,0.19035
6392.87361,0.11311
6394.80207,0.00811
6396.73054,-0.01710
6398.65901,0.01725
6400.58748,0.05768
6402.51595,0.05980
6404.44442,0.00657
6406.37289,-0.04085
6408.30135,-0.06482
6410.22982,-0.08414
6412.15829,-0.05958
6414.08676,-0.03735
6416.01523,-0.03365
6417.94370,0.03514
6419.87217,0.10533
6421.80064,0.08935
6423.72910,0.06785
6425.65757,0.10086
6427.58604,0.17691
6429.51451,0.27613
6431.44298,0.30421
6433.37145,0.18924
6435.29992,0.05495
6437.22838,0.02731
6439.15685,0.07127
6441.08532,0.09011
6443.01379,0.06720
6444.94226,0.04433
6446.87073,0.07273
6448.79920,0.12289
6450.72766,0.10457
6452.65613,0.03155
6454.58460,-0.02307
6456.51307,-0.06784
6458.44154,-0.08005
6460.37001,-0.01825
6462.29848,0.03248
6464.22695,0.00347
6466.15541,-0.01234
6468.08388,0.06493
6470.01235,0.18566
6471.94082,0.24338
6473.86929,0.20034
6475.79776,0.14962
6477.72623,0.15954
6479.65469,0.12795
6481.58316,0.01438
6483.51163,-0.06959
6485.44010,-0.04348
6487.36857,0.06396
6489.29704,0.13416
6491.22551,0.10331
6493.15398,0.04421
6495.08244,0.03538
6497.01091,0.07550
6498.93938,0.12608
6500.86785,0.13525
6502.79632,0.11061
6504.72479,0.08490
6506.65326,0.03525
6508.58172,0.02821
6510.51019,0.10432
6512.43866,0.14883
6514.36713,0.15939
6516.29560,0.20704
6518.22407,0.21467
6520.15254,0.13638
6522.08101,0.06471
6524.00947,0.05625
6525.93794,0.06369
6527.86641,0.04257
6529.79488,0.00217
6531.72335,-0.04057
6533.65182,-0.04498
6535.58029,0.02265
6537.50875,0.10999
6539.43722,0.15256
6541.36569,0.13415
6543.29416,0.08001
6545.22263,0.05253
6547.15110,0.03434
6549.07957,-0.01132
6551.00804,0.00585
6552.93650,0.10709
6554.86497,0.15548
6556.79344,0.09961
6558.72191,0.00713
6560.65038,-0.01307
6562.57885,0.02142
6564.50732,-0.01752
6566.43578,-0.08407
6568.36425,-0.08347
6570.29272,-0.06323
6572.22119,-0.00955
6574.14966,0.08852
6576.07813,0.11039
6578.00660,0.04240
6579.93507,0.02968
6581.86353,0.10075
6583.79200,0.11919
6585.72047,0.04570
6587.64894,0.00999
6589.57741,0.05322
6591.50588,0.10046
6593.43435,0.11044
6595.36281,0.07123
6597.29128,-0.00104
6599.21975,-0.04565
6601.14822,-0.02969
6603.07669,-0.02165
6605.00516,-0.05855
6606.93363,-0.08000
6608.86210,-0.05830
6610.79056,-0.03053
6612.71903,0.00038
6614.64750,0.00130
6616.57597,-0.03771
6618.50444,-0.02807
6620.43291,0.03028
6622.36138,0.07464
6624.28984,0.06062
6626.21831,0.01309
6628.14678,0.01416
6630.07525,0.07315
6632.00372,0.08522
6633.93219,-0.00174
6635.86066,-0.05607
6637.78912,0.03353
6639.71759,0.13378
6641.64606,0.14977
6643.57453,0.13658
6645.50300,0.11978
6647.43147,0.05272
6649.35994,-0.02120
6651.28841,-0.04717
6653.21687,-0.03876
6655.14534,-0.02391
6657.07381,-0.01644
6659.00228,0.04155
6660.93075,0.14829
6662.85922,0.19557
6664.78769,0.17334
6666.71615,0.11298
6668.64462,0.04641
6670.57309,0.02366
6672.50156,0.01873
6674.43003,0.01166
6676.35850,-0.01094
6678.28697,-0.04972
6680.21544,-0.04300
6682.14390,-0.01347
6684.07237,-0.01384
6686.00084,0.00289
6687.92931,0.05706
6689.85778,0.09492
6691.78625,0.13493
6693.71472,0.18075
6695.64318,0.18991
6697.57165,0.13841
6699.50012,0.03666
6701.42859,-0.00040
6703.35706,0.05240
6705.28553,0.04557
6707.21400,0.00712
6709.14247,0.04716
6711.07093,0.09107
6712.99940,0.08896
6714.92787,0.06507
6716.85634,0.07229
6718.78481,0.17132
6720.71328,0.26498
6722.64175,0.25148
6724.57021,0.17564
6726.49868,0.06772
6728.42715,-0.01599
6730.35562,-0.03530
6732.28409,-0.03402
6734.21256,-0.04935
6736.14103,-0.07315
6738.06950,-0.06154
6739.99796,0.01824
6741.92643,0.13916
6743.85490,0.22160
6745.78337,0.23263
6747.71184,0.17458
6749.64031,0.08325
6751.56878,0.06743
6753.49724,0.13572
6755.42571,0.11783
6757.35418,-0.00993
6759.28265,-0.10173
6761.21112,-0.11519
6763.13959,-0.10287
6765.06806,-0.04674
6766.99653,0.05712
6768.92499,0.12549
6770.85346,0.08658
6772.78193,0.00657
6774.71040,-0.01571
6776.63887,0.01595
6778.56734,0.06906
6780.49581,0.12095
6782.42427,0.10878
6784.35274,0.04772
6786.28121,0.02428
6788.20968,0.04132
6790.13815,0.08188
6792.06662,0.06734
6793.99509,-0.02220
6795.92355,-0.07319
6797.85202,-0.02218
6799.78049,0.05073
6801.70896,0.04965
6803.63743,0.00209
6805.56590,0.06385
6807.49437,0.19099
6809.42284,0.21629
6811.35130,0.15989
6813.27977,0.15946
6815.20824,0.18571
6817.13671,0.12526
6819.06518,0.04671
6820.99365,0.03235
6822.92212,0.03210
6824.85058,0.00718
6826.77905,-0.01405
6828.70752,-0.04081
6830.63599,-0.09890
6832.56446,-0.13745
6834.49293,-0.12418
6836.42140,-0.12146
6838.34987,-0.11724
6840.27833,-0.03650
6842.20680,0.04334
6844.13527,0.05434
6846.06374,0.07004
6847.99221,0.13411
6849.92068,0.16126
6851.84915,0.08949
6853.77761,-0.00189
6855.70608,-0.00250
6857.63455,0.04961
6859.56302,0.02193
6861.49149,-0.04936
6863.41996,-0.04154
6865.34843,0.00559
6867.27690,0.01373
6869.20536,0.06278
6871.13383,0.13918
6873.06230,0.10505
6874.99077,0.02934
6876.91924,0.03252
6878.84771,0.08289
6880.77618,0.11808
6882.70464,0.12306
6884.63311,0.12591
6886.56158,0.10012
6888.49005,0.02609
6890.41852,-0.03339
6892.34699,-0.04308
6894.27546,-0.05487
6896.20393,-0.05684
6898.13239,-0.01846
6900.06086,0.01131
6901.98933,0.03018
6903.91780,0.01268
6905.84627,-0.03528
6907.77474,-0.01507
6909.70321,0.03182
6911.63167,0.05325
6913.56014,0.11352
6915.48861,0.17608
6917.41708,0.10588
6919.34555,0.00048
6921.27402,0.03851
6923.20249,0.08242
6925.13096,0.07635
6927.05942,0.07317
6928.98789,0.03511
6930.91636,0.01065
6932.84483,0.10551
6934.77330,0.19428
6936.70177,0.19322
6938.63024,0.18385
6940.55870,0.18800
6942.48717,0.18164
6944.41564,0.11802
6946.34411,-0.03972
6948.27258,-0.10103
6950.20105,-0.00277
6952.12952,0.05163
6954.05799,0.04340
6955.98645,0.07136
6957.91492,0.10159
6959.84339,0.07204
6961.77186,-0.02921
6963.70033,-0.13894
6965.62880,-0.15398
6967.55727,-0.06054
6969.48573,0.02967
6971.41420,0.08894
6973.34267,0.14953
6975.27114,0.16248
6977.19961,0.11501
6979.12808,0.01149
6981.05655,-0.08385
6982.98501,-0.06463
6984.91348,0.04324
6986.84195,0.14611
6988.77042,0.15485
6990.69889,0.10247
6992.62736,0.13292
6994.55583,0.24311
6996.48430,0.33361
6998.41276,0.27201
7000.34123,0.12011
7002.26970,0.12467
7004.19817,0.21212
7006.12664,0.19319
7008.05511,0.09012
7009.98358,0.02781
7011.91204,0.06012
7013.84051,0.13377
7015.76898,0.11678
7017.69745,-0.00101
7019.62592,-0.11501
7021.55439,-0.13740
7023.48286,-0.07474
7025.41133,0.01321
7027.33979,0.10173
7029.26826,0.12144
7031.19673,0.06443
7033.12520,0.13041
7035.05367,0.26930
7036.98214,0.20553
7038.91061,0.02423
7040.83907,-0.08762
7042.76754,-0.09035
7044.69601,-0.08881
7046.62448,-0.09995
7048.55295,0.03141
7050.48142,0.21772
7052.40989,0.23007
7054.33836,0.06253
7056.26682,-0.13896
7058.19529,-0.31325
7060.12376,-0.34137
7062.05223,-0.14402
7063.98070,0.07842
7065.90917,0.11840
7067.83764,0.12306
7069.76610,0.15989
7071.69457,0.13100
7073.62304,0.09441
7075.55151,0.07698
7077.47998,0.04252
7079.40845,0.04054
7081.33692,0.09904
7083.26539,0.17819
7085.19385,0.19762
7087.12232,0.14404
7089.05079,0.14512
7090.97926,0.20651
7092.90773,0.17376
7094.83620,0.01512
7096.76467,-0.13276
7098.69313,-0.11960
7100.62160,-0.00054
7102.55007,0.05767
7104.47854,0.07779
7106.40701,0.10282
7108.33548,0.07637
7110.26395,0.01764
7112.19242,0.01676
7114.12088,0.05652
7116.04935,0.07233
7117.97782,0.07229
7119.90629,0.06131
7121.83476,0.03614
7123.76323,-0.06800
7125.69170,-0.24918
7127.62016,-0.25289
7129.54863,0.00719
7131.47710,0.23203
7133.40557,0.21375
7135.33404,0.08004
7137.26251,-0.01989
7139.19098,-0.08461
7141.11944,-0.09721
7143.04791,-0.03495
7144.97638,0.02548
7146.90485,-0.01441
7148.83332,-0.00219
7150.76179,0.14739
7152.69026,0.16981
7154.61873,-0.02913
7156.54719,-0.12292
7158.47566,-0.05100
7160.40413,0.02648
7162.33260,-0.01662
7164.26107,-0.16709
7166.18954,-0.20618
7168.11801,-0.04728
7170.04647,0.15698
7171.97494,0.31078
7173.90341,0.36843
7175.83188,0.38422
7177.76035,0.41922
7179.68882,0.36626
7181.61729,0.23606
7183.54576,0.15679
7185.47422,0.17669
7187.40269,0.25376
7189.33116,0.17933
7191.25963,-0.18758
7193.18810,-0.41961
7195.11657,-0.20646
7197.04504,0.09187
7198.97350,0.13070
7200.90197,0.06614
7202.83044,0.15412
7204.75891,0.29320
7206.68738,0.20307
7208.61585,0.09760
7210.54432,0.10247
7212.47279,0.14717
7214.40125,0.22025
7216.32972,0.26428
7218.25819,0.08113
7220.18666,-0.12431
7222.11513,-0.08536
7224.04360,-0.02897
7225.97207,-0.09801
7227.90053,-0.09468
7229.82900,0.04950
7231.75747,0.11076
7233.68594,0.06710
7235.61441,0.14133
7237.54288,0.24047
7239.47135,0.10852
7241.39982,-0.14064
7243.32828,-0.16411
7245.25675,-0.03635
7247.18522,-0.02897
7249.11369,-0.06535
7251.04216,-0.01682
7252.97063,0.12529
7254.89910,0.21100
7256.82756,0.12966
7258.75603,-0.08425
7260.68450,-0.22201
7262.61297,-0.09417
7264.54144,0.11301
7266.46991,0.23712
7268.39838,0.26899
7270.32685,0.21031
7272.25531,0.12076
7274.18378,0.21946
7276.11225,0.41047
7278.04072,0.40088
7279.96919,0.15555
7281.89766,0.01477
7283.82613,-0.01798
7285.75459,-0.02327
7287.68306,0.10058
7289.61153,0.29045
7291.54000,0.37319
7293.46847,0.30612
7295.39694,0.11419
7297.32541,-0.13542
7299.25387,-0.19843
7301.18234,-0.01982
7303.11081,0.15522
7305.03928,0.21302
7306.96775,0.24800
7308.89622,0.23593
7310.82469,0.10069
7312.75316,0.00252
7314.68162,0.05034
7316.61009,0.16000
7318.53856,0.25226
7320.46703,0.31296
7322.39550,0.23673
7324.32397,0.00912
7326.25244,-0.15831
7328.18090,-0.10785
7330.10937,0.15876
7332.03784,0.33961
7333.96631,0.24271
7335.89478,0.05193
7337.82325,-0.05536
7339.75172,-0.02429
7341.68019,0.14388
7343.60865,0.28848
7345.53712,0.37283
7347.46559,0.32702
7349.39406,0.14100
7351.32253,-0.05566
7353.25100,-0.23022
7355.17947,-0.35418
7357.10793,-0.43636
7359.03640,-0.44655
7360.96487,-0.21719
7362.89334,0.11274
7364.82181,0.37190
7366.75028,0.49709
7368.67875,0.42089
7370.60722,0.25328
7372.53568,0.16703
7374.46415,0.24957
7376.39262,0.36145
7378.32109,0.24365
7380.24956,0.06864
7382.17803,0.04035
7384.10650,0.00327
7386.03496,-0.15607
7387.96343,-0.24527
7389.89190,-0.18010
7391.82037,-0.00911
7393.74884,0.10441
7395.67731,0.09068
7397.60578,0.11548
7399.53425,0.19208
7401.46271,0.25418
7403.39118,0.28736
7405.31965,0.28602
7407.24812,0.23043
7409.17659,0.12880
7411.10506,0.04201
7413.03353,-0.07506
7414.96199,-0.26170
7416.89046,-0.38883
7418.81893,-0.31106
7420.74740,-0.15273
7422.67587,-0.10690
7424.60434,-0.05414
7426.53281,0.11848
7428.46128,0.36215
7430.38974,0.53285
7432.31821,0.50251
7434.24668,0.34776
7436.17515,0.20222
7438.10362,0.10512
7440.03209,0.06760
7441.96056,0.09963
7443.88902,0.05023
7445.81749,-0.11712
7447.74596,-0.19054
7449.67443,-0.07878
7451.60290,0.00241
7453.53137,-0.03443
7455.45984,0.00522
7457.38831,0.13413
7459.31677,0.30454
7461.24524,0.46098
7463.17371,0.48245
7465.10218,0.32029
7467.03065,0.11695
7468.95912,0.10089
7470.88759,0.24998
7472.81605,0.27810
7474.74452,0.13322
7476.67299,0.09779
7478.60146,0.24812
7480.52993,0.31900
7482.45840,0.26855
7484.38687,0.29689
7486.31533,0.30389
7488.24380,0.20755
7490.17227,0.12106
7492.10074,0.04036
7494.02921,-0.07244
7495.95768,-0.12896
7497.88615,-0.01920
